DTS Sentinel unit serial number:	SN413079Multiplexer serial number:	ORYXHardware model number:	OX4-SRSoftware version number:	ORYX F/W v4.00 Oryx Data Collector v3.7.2.0data status	okinstallation	princeton_trtdifferential loss correction	single-endedforward channel	channel 1reverse channel	N/Adate	2019/09/10time	22:44:11forward acquisition time	60.00reverse acquisition time	0.00gamma	496.2192k internal	0.2331k external	0.2331temperature offset calibration	0.9937default loss term (dB/km)	0.3790temperature slope calibration	1.0000multiplexer offset coefficient	1.0000multiplexer slope coefficient	1.0000fibre end	0.00T internal ref (°C)	30.19T ext. ref 1 (°C)	-0.31T ext. ref 2 (°C)	23.68length (m)	temperature (°C)	Stokes	anti-Stokes-747.200	800.000	0.069	0.231
-746.185	3.599	-0.278	0.204
-745.171	-48.927	0.167	-0.080
-744.156	-158.522	0.102	0.006
-743.142	82.066	-0.134	0.146
-742.127	-51.122	-0.165	0.078
-741.112	318.815	-0.080	0.153
-740.098	-200.000	-0.004	0.245
-739.083	-200.000	0.070	-0.405
-738.069	-141.918	0.130	-0.013
-737.054	-24.637	0.303	0.182
-736.039	-119.308	-0.223	0.039
-735.025	-200.000	0.009	0.290
-734.010	-94.974	-0.039	0.011
-732.996	-147.987	-0.021	-0.002
-731.981	33.588	0.176	-0.154
-730.966	-200.000	-0.018	-0.323
-729.952	289.412	0.241	-0.440
-728.937	-102.349	-0.414	-0.100
-727.923	81.464	0.345	0.375
-726.908	-200.000	-0.025	-0.161
-725.894	574.976	0.032	0.079
-724.879	367.586	0.035	-0.072
-723.864	-200.000	-0.057	-0.367
-722.850	-38.893	-0.241	-0.128
-721.835	275.509	0.188	-0.336
-720.821	-57.914	-0.163	-0.072
-719.806	-200.000	-0.005	0.080
-718.791	-200.000	0.002	0.277
-717.777	-105.256	0.167	0.038
-716.762	800.000	-0.055	-0.216
-715.748	187.809	0.173	-0.259
-714.733	-200.000	-0.007	-0.320
-713.718	208.807	-0.239	-0.375
-712.704	-200.000	0.026	-0.194
-711.689	407.135	-0.166	-0.353
-710.675	1.704	0.135	-0.098
-709.660	217.622	-0.194	0.311
-708.645	306.191	0.046	-0.087
-707.631	-10.438	0.249	-0.166
-706.616	-122.180	0.412	0.068
-705.602	-100.594	-0.325	0.081
-704.587	-5.103	-0.157	-0.109
-703.572	206.900	0.078	-0.122
-702.558	-16.770	-0.296	-0.188
-701.543	-200.000	-0.051	-0.362
-700.529	180.002	-0.165	0.243
-699.514	93.450	0.134	-0.153
-698.499	-200.000	0.055	-0.285
-697.485	-74.002	0.264	0.096
-696.470	800.000	-0.062	-0.206
-695.456	-185.515	-0.135	-0.002
-694.441	-155.874	-0.272	0.017
-693.426	-200.000	-0.028	0.139
-692.412	338.097	-0.030	0.059
-691.397	-200.000	0.008	0.176
-690.383	-126.684	0.459	-0.068
-689.368	602.279	0.152	0.380
-688.354	0.718	0.006	0.005
-687.339	-29.090	0.037	-0.021
-686.324	-56.639	0.111	-0.049
-685.310	-95.332	0.268	-0.072
-684.295	147.866	0.089	-0.120
-683.281	70.623	-0.089	0.093
-682.266	42.611	0.022	0.020
-681.251	-200.000	0.007	-0.098
-680.237	-200.000	-0.034	-0.212
-679.222	-2.784	-0.249	-0.174
-678.208	8.791	0.143	0.109
-677.193	-200.000	0.001	0.019
-676.178	-200.000	-0.036	-0.391
-675.164	150.679	-0.013	0.017
-674.149	-162.607	-0.465	-0.023
-673.135	554.948	-0.039	-0.094
-672.120	-171.534	0.265	0.009
-671.105	-108.069	-0.148	0.032
-670.091	-40.791	0.256	0.133
-669.076	-113.463	0.104	0.020
-668.062	-101.731	0.312	-0.076
-667.047	458.512	0.096	-0.215
-666.032	-136.253	-0.183	-0.022
-665.018	-86.083	-0.085	0.026
-664.003	162.706	-0.231	-0.325
-662.989	-14.138	0.193	0.125
-661.974	-79.362	-0.088	0.030
-660.959	46.476	-0.072	-0.067
-659.945	800.000	0.051	-0.199
-658.930	-200.000	-0.020	0.160
-657.916	188.368	-0.160	0.240
-656.901	-83.884	0.107	-0.034
-655.886	-200.000	-0.011	-0.195
-654.872	38.356	-0.102	-0.091
-653.857	-71.517	-0.061	-0.023
-652.843	-95.557	0.153	0.041
-651.828	8.679	0.178	0.135
-650.814	-200.000	-0.009	0.281
-649.799	-62.331	-0.347	0.145
-648.784	47.233	-0.355	0.331
-647.770	-25.640	-0.032	-0.019
-646.755	800.000	-0.027	-0.093
-645.741	-5.754	0.138	-0.095
-644.726	175.025	0.075	-0.108
-643.711	-200.000	-0.039	0.391
-642.697	133.898	0.108	0.140
-641.682	70.515	-0.112	0.116
-640.668	-200.000	0.027	-0.269
-639.653	-80.652	-0.077	-0.026
-638.638	395.031	-0.082	-0.171
-637.624	43.328	-0.350	-0.320
-636.609	-86.476	-0.253	-0.078
-635.595	115.272	0.009	0.011
-634.580	-200.000	0.016	0.092
-633.565	88.327	0.069	0.077
-632.551	73.946	0.200	-0.211
-631.536	800.000	0.061	0.232
-630.522	-25.610	-0.113	-0.067
-629.507	-200.000	-0.002	-0.084
-628.492	-40.207	0.071	-0.037
-627.478	800.000	-0.046	0.171
-626.463	741.364	-0.125	-0.336
-625.449	159.160	-0.145	-0.202
-624.434	410.729	-0.077	-0.163
-623.419	-173.828	0.119	-0.004
-622.405	14.526	-0.200	0.156
-621.390	157.924	-0.038	-0.053
-620.376	149.480	-0.074	-0.101
-619.361	-36.000	0.073	0.039
-618.346	143.003	0.134	0.178
-617.332	-63.247	0.172	-0.071
-616.317	207.205	0.183	0.285
-615.303	-40.416	-0.241	0.125
-614.288	16.923	-0.017	0.014
-613.273	-41.834	0.162	0.083
-612.259	-200.000	0.010	-0.054
-611.244	359.380	-0.084	-0.169
-610.230	-15.353	0.244	-0.156
-609.215	242.468	0.210	-0.351
-608.201	-57.021	0.080	-0.036
-607.186	529.321	0.089	-0.211
-606.171	800.000	-0.035	0.132
-605.157	13.208	-0.145	0.113
-604.142	17.261	-0.159	0.127
-603.128	-200.000	-0.010	-0.220
-602.113	495.678	0.161	-0.370
-601.098	-200.000	-0.028	-0.163
-600.084	-71.239	0.260	0.097
-599.069	-80.623	0.052	0.017
-598.055	23.587	-0.118	0.097
-597.040	-68.863	-0.111	0.043
-596.025	0.187	-0.108	-0.077
-595.011	-153.098	0.169	-0.012
-593.996	-200.000	-0.006	-0.257
-592.982	778.262	0.028	0.075
-591.967	-113.206	-0.281	0.055
-590.952	74.545	0.139	-0.146
-589.938	17.136	0.050	0.039
-588.923	62.471	-0.094	0.094
-587.909	-71.612	0.308	-0.115
-586.894	-49.018	-0.261	0.125
-585.879	800.000	0.047	0.135
-584.865	34.569	0.176	-0.154
-583.850	72.853	-0.141	-0.148
-582.836	162.591	0.101	0.142
-581.821	-92.326	-0.305	0.086
-580.806	-48.241	-0.260	-0.125
-579.792	-200.000	0.011	-0.062
-578.777	-182.772	-0.356	0.006
-577.763	-29.545	0.082	0.047
-576.748	193.771	-0.137	-0.207
-575.733	-87.646	-0.288	-0.087
-574.719	-200.000	-0.041	0.185
-573.704	197.103	-0.125	0.190
-572.690	21.252	0.138	-0.112
-571.675	527.756	-0.071	-0.167
-570.661	800.000	0.090	-0.270
-569.646	800.000	-0.066	0.190
-568.631	5.272	-0.165	0.121
-567.617	-121.118	-0.237	0.040
-566.602	-140.685	0.332	0.034
-565.588	-57.082	0.450	-0.198
-564.573	153.245	-0.298	0.408
-563.558	-161.681	0.495	0.025
-562.544	-50.451	0.125	0.059
-561.529	231.224	-0.094	-0.153
-560.515	-62.998	-0.081	-0.033
-559.500	86.184	-0.068	0.075
-558.485	40.195	-0.070	-0.063
-557.471	427.086	0.078	0.169
-556.456	341.466	0.133	-0.260
-555.442	353.831	0.049	-0.097
-554.427	800.000	-0.046	0.135
-553.412	95.582	0.068	0.078
-552.398	56.769	-0.082	-0.080
-551.383	-93.247	-0.351	0.097
-550.369	-121.091	0.065	-0.011
-549.354	-200.000	0.014	0.420
-548.339	-154.537	0.062	-0.004
-547.325	-99.791	-0.275	-0.069
-546.310	104.094	0.067	0.079
-545.296	336.897	0.119	-0.232
-544.281	-200.000	0.045	-0.281
-543.266	-23.873	-0.048	-0.029
-542.252	123.805	0.123	-0.154
-541.237	-37.805	0.161	-0.086
-540.223	241.164	-0.172	0.287
-539.208	11.626	0.142	0.109
-538.193	66.995	-0.121	-0.123
-537.179	-94.054	0.231	-0.063
-536.164	-200.000	-0.018	-0.270
-535.150	-200.000	0.013	0.167
-534.135	202.534	-0.020	0.031
-533.121	-43.590	0.315	0.158
-532.106	-172.646	0.193	-0.006
-531.091	-102.035	-0.317	-0.076
-530.077	-78.416	0.176	-0.060
-529.062	300.284	0.129	-0.237
-528.048	-200.000	0.038	-0.299
-527.033	100.809	0.127	0.148
-526.018	800.000	0.032	0.129
-525.004	-34.216	-0.343	0.188
-523.989	432.229	-0.127	0.275
-522.975	216.909	0.087	0.139
-521.960	800.000	-0.045	-0.185
-520.945	20.308	0.372	0.300
-519.931	231.358	-0.036	0.059
-518.916	-200.000	-0.015	-0.150
-517.902	196.395	0.214	-0.325
-516.887	-106.821	0.165	0.037
-515.872	50.269	-0.063	0.059
-514.858	-190.958	0.186	0.002
-513.843	186.610	-0.173	0.257
-512.829	23.136	-0.148	0.121
-511.814	-200.000	-0.014	-0.263
-510.799	-100.429	-0.268	0.066
-509.785	144.533	0.217	-0.288
-508.770	-53.132	0.112	0.051
-507.756	-200.000	-0.036	0.233
-506.741	36.713	-0.230	0.203
-505.726	39.935	-0.172	-0.154
-504.712	138.319	0.083	-0.109
-503.697	-160.397	-0.160	-0.009
-502.683	74.675	-0.205	0.215
-501.668	109.121	0.261	-0.311
-500.653	56.202	0.243	0.235
-499.639	599.910	0.058	0.143
-498.624	6.121	0.298	-0.220
-497.610	404.106	0.141	0.296
-496.595	109.010	-0.290	-0.345
-495.581	-89.988	0.124	-0.036
-494.566	-200.000	-0.096	-0.531
-493.551	212.629	0.087	-0.137
-492.537	94.243	0.192	0.218
-491.522	367.130	0.090	0.182
-490.508	800.000	-0.047	0.154
-489.493	43.510	-0.175	-0.160
-488.478	-200.000	-0.018	0.431
-487.464	800.000	0.022	-0.092
-486.449	285.726	-0.146	-0.263
-485.435	-200.000	-0.012	0.186
-484.420	-72.678	0.312	0.115
-483.405	-200.000	-0.013	-0.098
-482.391	59.501	-0.155	0.152
-481.376	-65.881	-0.140	0.056
-480.362	69.814	0.225	-0.231
-479.347	149.898	0.126	-0.170
-478.332	-31.467	-0.198	0.111
-477.318	371.710	0.125	0.252
-476.303	-200.000	-0.006	0.120
-475.289	-71.138	0.191	-0.071
-474.274	-200.000	-0.009	0.173
-473.259	180.186	0.102	0.150
-472.245	-19.090	0.105	-0.065
-471.230	-200.000	-0.013	-0.101
-470.216	800.000	-0.089	-0.322
-469.201	-115.753	-0.084	0.016
-468.186	-53.889	0.214	-0.097
-467.172	-93.166	-0.401	0.111
-466.157	169.575	0.184	0.262
-465.143	-132.301	-0.114	-0.015
-464.128	-127.331	0.126	-0.018
-463.113	-200.000	-0.045	-0.420
-462.099	27.263	0.191	-0.159
-461.084	-75.352	0.188	0.067
-460.070	56.997	-0.213	-0.207
-459.055	432.490	0.148	0.320
-458.040	-200.000	0.015	-0.122
-457.026	-148.297	0.395	-0.032
-456.011	-78.208	-0.311	0.106
-454.997	-200.000	0.003	-0.122
-453.982	-121.584	0.241	0.040
-452.968	-124.470	-0.304	-0.047
-451.953	-146.639	-0.136	-0.012
-450.938	58.005	-0.176	0.171
-449.924	-200.000	0.008	-0.119
-448.909	348.048	0.099	0.194
-447.895	-32.150	0.210	-0.117
-446.880	-46.501	-0.151	0.074
-445.865	47.435	0.062	-0.057
-444.851	91.849	-0.284	0.318
-443.836	81.610	-0.161	0.173
-442.822	-111.188	0.095	-0.019
-441.807	-11.967	0.129	-0.084
-440.792	-93.487	-0.097	-0.027
-439.778	46.239	-0.195	-0.179
-438.763	-200.000	0.068	0.364
-437.749	302.677	0.118	-0.217
-436.734	297.342	-0.161	0.295
-435.719	-85.432	0.166	0.052
-434.705	-36.088	0.321	-0.172
-433.690	-72.425	0.183	-0.067
-432.676	-59.474	0.034	0.015
-431.661	-200.000	-0.020	-0.362
-430.646	-200.000	-0.042	0.197
-429.632	13.281	-0.374	-0.288
-428.617	140.967	-0.173	-0.227
-427.603	-105.047	0.135	-0.031
-426.588	-124.971	-0.049	0.007
-425.573	-79.243	0.227	-0.077
-424.559	-79.142	-0.232	0.078
-423.544	170.913	-0.111	-0.158
-422.530	-200.000	-0.034	0.213
-421.515	-83.773	-0.120	0.038
-420.500	636.751	0.089	-0.226
-419.486	-135.194	-0.299	-0.036
-418.471	97.352	-0.157	0.179
-417.457	800.000	0.070	-0.216
-416.442	-99.038	-0.090	0.023
-415.428	98.687	0.132	-0.151
-414.413	89.696	-0.147	0.163
-413.398	-101.391	0.304	-0.074
-412.384	-71.182	-0.131	0.049
-411.369	-200.000	-0.025	0.154
-410.355	458.945	0.063	0.139
-409.340	-200.000	-0.010	0.121
-408.325	-200.000	0.009	0.172
-407.311	-200.000	0.018	0.118
-406.296	-200.000	-0.013	-0.100
-405.282	152.385	-0.165	0.224
-404.267	-97.816	0.097	-0.025
-403.252	-200.000	0.009	0.162
-402.238	800.000	-0.079	-0.238
-401.223	-24.666	-0.174	0.103
-400.209	-200.000	-0.003	-0.280
-399.194	-200.000	0.047	0.429
-398.179	-25.029	0.130	-0.076
-397.165	188.547	0.299	0.444
-396.150	800.000	-0.053	0.179
-395.136	-67.821	-0.196	-0.076
-394.121	293.153	0.096	-0.173
-393.106	-200.000	0.103	-0.521
-392.092	-200.000	-0.014	-0.180
-391.077	-47.561	-0.135	0.065
-390.063	-193.167	-0.140	0.001
-389.048	32.287	0.258	-0.221
-388.033	190.410	-0.082	-0.123
-387.019	4.894	-0.228	-0.167
-386.004	-6.981	0.364	-0.246
-384.990	258.683	-0.135	-0.230
-383.975	328.000	-0.117	-0.222
-382.960	-200.000	0.008	0.122
-381.946	94.207	0.113	0.128
-380.931	129.735	0.067	0.085
-379.917	708.660	-0.099	-0.260
-378.902	-19.043	-0.248	0.153
-377.888	-100.861	-0.318	0.077
-376.873	-200.000	-0.013	-0.214
-375.858	-136.747	0.123	-0.014
-374.844	-109.980	0.144	0.030
-373.829	792.691	0.084	-0.230
-372.815	-130.065	0.155	-0.021
-371.800	800.000	0.048	-0.195
-370.785	621.685	0.066	0.164
-369.771	0.665	0.143	-0.101
-368.756	-87.469	-0.493	0.148
-367.742	-146.179	0.267	-0.023
-366.727	485.735	-0.102	0.230
-365.712	-112.330	0.366	0.073
-364.698	-145.537	-0.147	0.013
-363.683	-22.400	0.328	-0.197
-362.669	631.764	-0.128	0.320
-361.654	20.239	0.117	0.094
-360.639	-200.000	0.022	0.112
-359.625	566.875	0.047	0.113
-358.610	44.527	-0.198	-0.181
-357.596	-200.000	0.004	-0.099
-356.581	800.000	0.005	-0.022
-355.566	-51.445	-0.140	0.065
-354.552	800.000	-0.126	-0.410
-353.537	-172.671	-0.123	-0.004
-352.523	29.059	-0.166	0.139
-351.508	-19.444	0.032	0.019
-350.493	88.835	0.084	0.093
-349.479	-200.000	-0.009	-0.115
-348.464	-189.663	0.065	-0.001
-347.450	-200.000	0.011	-0.176
-346.435	800.000	-0.048	0.147
-345.420	-200.000	-0.050	0.464
-344.406	240.261	-0.152	0.251
-343.391	-149.822	-0.190	0.015
-342.377	12.873	-0.075	0.057
-341.362	5.042	-0.123	-0.090
-340.348	-200.000	0.012	0.180
-339.333	800.000	0.046	-0.189
-338.318	-145.170	-0.122	-0.011
-337.304	-200.000	-0.028	-0.251
-336.289	-115.280	0.158	0.030
-335.275	-200.000	0.045	-0.317
-334.260	-12.688	-0.174	0.112
-333.245	-105.757	0.342	-0.076
-332.231	98.287	-0.122	-0.139
-331.216	427.249	-0.077	-0.165
-330.202	-34.684	-0.126	0.068
-329.187	-95.302	-0.255	-0.068
-328.172	616.003	0.034	-0.085
-327.158	331.709	-0.274	-0.523
-326.143	800.000	-0.021	0.083
-325.129	-200.000	0.032	-0.225
-324.114	-160.409	0.313	0.017
-323.099	-200.000	-0.052	0.229
-322.085	40.635	-0.266	0.237
-321.070	-131.852	0.303	0.039
-320.056	-53.327	-0.116	-0.052
-319.041	521.869	-0.063	0.147
-318.026	-154.476	0.096	-0.006
-317.012	-97.405	0.182	0.047
-315.997	-73.653	-0.101	0.036
-314.983	62.075	-0.092	-0.090
-313.968	325.792	0.038	-0.072
-312.953	368.170	0.119	0.238
-311.939	-87.649	0.188	0.056
-310.924	14.754	-0.332	0.257
-309.910	4.159	0.127	0.092
-308.895	-96.372	0.461	0.121
-307.880	43.777	0.404	-0.366
-306.866	22.491	-0.134	0.109
-305.851	-167.565	-0.109	0.004
-304.837	-115.445	-0.237	-0.044
-303.822	435.208	-0.085	-0.182
-302.807	-200.000	0.037	-0.234
-301.793	-3.490	0.099	0.068
-300.778	17.396	0.360	0.283
-299.764	-186.784	0.183	0.003
-298.749	-63.831	-0.196	-0.079
-297.735	-119.695	0.111	-0.019
-296.720	234.526	-0.175	0.285
-295.705	69.739	0.262	0.267
-294.691	-9.018	0.142	0.094
-293.676	-8.901	0.173	-0.114
-292.662	-200.000	0.045	-0.278
-291.647	358.083	-0.111	0.219
-290.632	722.863	0.026	-0.069
-289.618	-200.000	0.046	0.259
-288.603	800.000	0.085	0.291
-287.589	103.316	0.059	-0.068
-286.574	57.647	-0.208	-0.201
-285.559	43.828	0.254	-0.230
-284.545	-47.898	-0.291	-0.139
-283.530	-200.000	-0.093	-0.428
-282.516	-77.473	-0.093	0.032
-281.501	123.888	0.180	-0.223
-280.486	379.962	-0.097	0.196
-279.472	-200.000	0.019	-0.192
-278.457	800.000	-0.156	0.498
-277.443	-76.422	0.037	-0.013
-276.428	-170.356	0.054	-0.002
-275.413	496.199	0.040	-0.092
-274.399	-99.296	-0.267	0.067
-273.384	-115.513	-0.195	0.036
-272.370	131.285	-0.094	-0.120
-271.355	-119.744	0.102	-0.017
-270.340	608.928	-0.063	-0.156
-269.326	-71.207	-0.324	0.120
-268.311	-104.064	0.115	0.026
-267.297	112.070	0.020	-0.024
-266.282	800.000	0.029	0.092
-265.267	800.000	0.028	0.112
-264.253	800.000	-0.034	0.134
-263.238	287.016	-0.070	-0.125
-262.224	-200.000	0.033	-0.407
-261.209	-200.000	-0.045	0.221
-260.195	800.000	-0.070	0.277
-259.180	-37.570	0.379	0.200
-258.165	-200.000	0.000	0.190
-257.151	-150.927	0.171	0.013
-256.136	7.622	0.362	-0.267
-255.122	65.993	-0.227	0.227
-254.107	-64.712	0.070	0.028
-253.092	576.395	0.055	0.134
-252.078	-200.000	-0.060	-0.435
-251.063	306.237	0.141	0.260
-250.049	18.769	-0.221	0.175
-249.034	467.607	-0.215	-0.477
-248.019	-200.000	0.020	0.177
-247.005	-200.000	-0.020	-0.117
-245.990	-200.000	-0.041	-0.343
-244.976	-66.110	-0.297	0.117
-243.961	800.000	-0.033	-0.102
-242.946	-200.000	0.011	0.172
-241.932	2.114	-0.070	0.050
-240.917	144.735	0.262	-0.346
-239.903	800.000	-0.045	0.165
-238.888	-200.000	0.003	-0.028
-237.873	216.307	-0.075	-0.117
-236.859	239.172	-0.157	-0.258
-235.844	-200.000	0.043	-0.369
-234.830	-200.000	0.007	0.107
-233.815	-186.521	0.536	-0.008
-232.800	-85.384	0.143	-0.044
-231.786	119.714	0.022	0.027
-230.771	-47.936	-0.149	0.071
-229.757	40.474	0.151	0.134
-228.742	74.173	-0.185	0.192
-227.727	272.752	-0.145	0.253
-226.713	-138.197	-0.188	-0.020
-225.698	-59.937	-0.092	-0.039
-224.684	-72.719	0.254	0.092
-223.669	-200.000	0.013	0.137
-222.655	-117.791	0.069	0.012
-221.640	-5.792	0.241	0.162
-220.625	-59.098	-0.150	0.064
-219.611	-131.558	0.150	0.020
-218.596	800.000	0.067	0.257
-217.582	-170.737	-0.077	-0.003
-216.567	173.610	0.129	-0.184
-215.552	251.038	-0.078	0.131
-214.538	15.448	-0.379	-0.293
-213.523	-98.176	-0.132	-0.034
-212.509	186.807	-0.041	-0.061
-211.494	-59.821	0.086	0.036
-210.479	-110.319	0.381	-0.078
-209.465	222.366	0.188	-0.299
-208.450	-200.000	0.000	0.076
-207.436	-142.624	-0.320	-0.031
-206.421	39.902	0.363	-0.321
-205.406	-0.686	0.092	-0.065
-204.392	71.772	0.177	0.181
-203.377	97.432	0.165	0.187
-202.363	800.000	0.040	0.148
-201.348	-85.648	0.075	-0.023
-200.333	-56.643	-0.198	0.086
-199.319	649.697	-0.117	0.296
-198.304	331.049	0.173	0.329
-197.290	-49.821	0.209	0.098
-196.275	-55.006	-0.145	0.064
-195.260	-76.455	0.164	-0.057
-194.246	57.634	0.172	0.166
-193.231	800.000	0.023	0.084
-192.217	154.757	-0.136	0.185
-191.202	800.000	-0.044	0.131
-190.187	68.045	-0.079	-0.079
-189.173	79.618	0.120	0.127
-188.158	-77.357	-0.175	0.060
-187.144	-200.000	-0.027	0.279
-186.129	-184.572	-0.177	-0.003
-185.114	302.105	0.147	-0.268
-184.100	434.454	0.056	-0.120
-183.085	86.637	-0.201	0.218
-182.071	29.907	-0.055	-0.046
-181.056	-27.356	-0.086	0.050
-180.042	67.354	0.064	0.064
-179.027	-55.368	-0.173	0.076
-178.012	-139.073	0.042	0.004
-176.998	56.872	0.110	-0.105
-175.983	-200.000	-0.002	-0.182
-174.969	-5.082	0.096	0.065
-173.954	-200.000	-0.053	0.240
-172.939	-95.531	0.089	0.023
-171.925	112.561	0.127	-0.152
-170.910	-200.000	0.004	0.307
-169.896	-200.000	-0.022	0.169
-168.881	122.251	0.112	-0.138
-167.866	-126.055	-0.515	0.076
-166.852	-23.898	-0.154	0.091
-165.837	-200.000	0.008	-0.144
-164.823	-200.000	0.071	-0.321
-163.808	-200.000	0.015	-0.204
-162.793	-122.521	0.355	0.057
-161.779	-200.000	-0.056	-0.308
-160.764	-200.000	-0.041	0.408
-159.750	-83.625	-0.234	0.073
-158.735	314.464	-0.166	0.308
-157.720	38.640	0.123	0.108
-156.706	-200.000	0.032	0.270
-155.691	800.000	0.074	-0.295
-154.677	-2.190	0.184	0.127
-153.662	120.975	-0.164	0.201
-152.647	358.612	-0.087	-0.172
-151.633	-103.890	0.282	-0.065
-150.618	-94.855	-0.204	0.054
-149.604	-38.288	-0.326	0.170
-148.589	797.964	0.071	-0.192
-147.574	-61.739	0.154	0.063
-146.560	-162.873	-0.016	0.001
-145.545	47.640	0.140	0.128
-144.531	-168.977	0.213	-0.008
-143.516	28.480	-0.114	0.095
-142.502	186.044	0.075	0.110
-141.487	800.000	-0.040	0.142
-140.472	800.000	-0.032	-0.130
-139.458	-107.691	0.277	0.059
-138.443	16.996	-0.197	-0.154
-137.429	-130.671	0.271	0.036
-136.414	800.000	-0.009	0.027
-135.399	-19.195	0.258	-0.158
-134.385	800.000	-0.041	0.118
-133.370	-200.000	0.054	0.339
-132.356	-118.308	-0.478	-0.083
-131.341	-40.910	0.317	0.161
-130.326	-7.505	0.252	0.167
-129.312	-10.387	-0.247	0.161
-128.297	-141.152	0.146	0.015
-127.283	369.977	0.019	0.037
-126.268	-25.185	-0.222	0.129
-125.253	-200.000	-0.002	0.065
-124.239	-40.203	0.073	-0.038
-123.224	-200.000	0.018	0.274
-122.210	167.539	-0.078	0.109
-121.195	401.949	0.135	-0.279
-120.180	-181.230	-0.109	0.002
-119.166	-19.658	0.265	0.161
-118.151	-200.000	-0.070	0.392
-117.137	-111.164	-0.192	-0.039
-116.122	-104.990	0.104	0.023
-115.107	-200.000	0.016	0.199
-114.093	800.000	-0.084	-0.288
-113.078	800.000	0.054	-0.218
-112.064	41.250	-0.054	-0.048
-111.049	488.590	0.070	0.156
-110.034	-118.851	-0.216	-0.037
-109.020	39.738	0.151	0.133
-108.005	145.005	0.224	0.294
-106.991	-31.736	-0.171	0.094
-105.976	-200.000	0.036	0.182
-104.962	-200.000	-0.066	0.299
-103.947	-0.907	0.065	-0.045
-102.932	-27.903	-0.035	-0.020
-101.918	130.888	-0.197	-0.248
-100.903	-62.621	-0.180	0.073
-99.889	112.369	-0.135	0.161
-98.874	-29.315	0.228	0.128
-97.859	216.033	-0.123	0.192
-96.845	96.828	0.058	0.066
-95.830	-55.990	-0.068	0.030
-94.816	-26.497	0.313	-0.180
-93.801	354.348	-0.197	-0.383
-92.786	800.000	-0.023	0.095
-91.772	-200.000	0.037	-0.260
-90.757	-200.000	-0.032	0.181
-89.743	542.901	-0.108	0.252
-88.728	507.801	0.049	-0.112
-87.713	800.000	-0.059	-0.201
-86.699	214.194	-0.053	0.083
-85.684	-5.709	-0.159	0.107
-84.670	-200.000	0.017	-0.110
-83.655	-26.991	-0.168	-0.096
-82.640	61.682	-0.055	-0.054
-81.626	236.479	-0.135	-0.220
-80.611	-147.324	-0.170	0.014
-79.597	235.106	0.075	-0.121
-78.582	-200.000	0.010	-0.041
-77.567	232.481	0.122	0.196
-76.553	800.000	0.051	-0.180
-75.538	3.295	-0.127	0.091
-74.524	-200.000	-0.012	-0.210
-73.509	39.826	0.093	0.081
-72.494	471.217	-0.097	0.215
-71.480	222.307	0.160	0.253
-70.465	179.038	0.257	0.368
-69.451	800.000	-0.018	-0.070
-68.436	-200.000	-0.139	-0.619
-67.422	52.884	0.087	0.082
-66.407	800.000	-0.067	0.281
-65.392	-200.000	-0.017	0.213
-64.378	-81.976	0.340	-0.109
-63.363	-200.000	0.003	0.436
-62.349	29.751	-0.209	0.174
-61.334	90.785	-0.921	-1.011
-60.319	-9.897	0.328	0.214
-59.305	90.580	-0.560	-0.614
-58.290	508.418	0.449	1.021
-57.276	447.396	0.655	1.412
-56.261	-200.000	104.018	615.636
-55.246	524.772	1477.918	3405.983
-54.232	181.176	2671.122	3846.016
-53.217	114.997	2150.922	2570.688
-52.203	42.417	1589.028	1415.274
-51.188	33.698	1324.043	1127.686
-50.173	30.547	1282.916	1074.437
-49.159	54.365	1335.992	1260.011
-48.144	55.408	1351.768	1280.985
-47.130	33.961	1307.110	1114.631
-46.115	30.326	1289.736	1078.690
-45.100	30.147	1284.643	1073.353
-44.086	30.142	1282.137	1071.190
-43.071	29.941	1280.068	1068.256
-42.057	29.968	1277.995	1066.642
-41.042	30.070	1276.222	1065.708
-40.027	30.128	1274.924	1064.911
-39.013	30.025	1273.401	1063.007
-37.998	30.073	1271.359	1061.537
-36.984	30.122	1269.696	1060.385
-35.969	30.116	1267.970	1058.868
-34.954	30.238	1265.442	1057.412
-33.940	30.219	1264.965	1056.863
-32.925	30.345	1263.430	1056.253
-31.911	30.189	1262.340	1054.412
-30.896	30.318	1260.681	1053.719
-29.881	30.288	1259.337	1052.383
-28.867	30.328	1257.789	1051.276
-27.852	30.448	1256.311	1050.676
-26.838	30.338	1255.081	1048.984
-25.823	30.239	1253.983	1047.467
-24.809	30.286	1252.489	1046.444
-23.794	30.343	1251.699	1046.062
-22.779	30.317	1250.200	1044.621
-21.765	30.251	1248.829	1043.062
-20.750	30.232	1247.357	1041.686
-19.736	30.177	1246.409	1040.543
-18.721	30.103	1245.423	1039.262
-17.706	30.117	1243.912	1038.038
-16.692	30.162	1242.734	1037.271
-15.677	30.136	1241.407	1035.972
-14.663	30.133	1240.699	1035.328
-13.648	30.120	1239.574	1034.275
-12.633	30.213	1238.663	1033.990
-11.619	30.160	1237.428	1032.625
-10.604	30.116	1236.767	1031.786
-9.590	30.052	1235.924	1030.683
-8.575	30.062	1234.948	1029.884
-7.560	30.061	1234.525	1029.487
-6.546	30.136	1232.985	1028.578
-5.531	30.133	1231.746	1027.489
-4.517	30.073	1231.491	1026.903
-3.502	30.145	1230.781	1026.667
-2.487	30.152	1229.356	1025.477
-1.473	30.072	1225.559	1021.825
-0.458	28.540	1210.651	1001.005
0.556	22.841	1193.231	963.384
1.571	19.254	1197.808	947.309
2.586	18.395	1212.247	953.859
3.600	18.290	1201.248	944.541
4.615	13.088	1130.560	861.799
5.629	4.130	1056.698	761.555
6.644	-0.037	1036.798	727.020
7.659	-0.301	1034.015	723.732
8.673	-0.385	1032.676	722.328
9.688	-0.516	1031.663	720.926
10.702	-0.001	1029.681	721.951
11.717	5.634	1037.637	754.673
12.731	14.703	1050.731	808.203
13.746	18.818	1055.990	832.148
14.761	19.541	1055.943	835.541
15.775	19.625	1055.403	835.446
16.790	19.368	1054.856	833.696
17.804	19.295	1053.845	832.469
18.819	19.306	1054.033	832.596
19.834	19.392	1052.997	832.122
20.848	19.415	1052.926	832.100
21.863	19.443	1052.311	831.677
22.877	19.313	1051.618	830.429
23.892	19.325	1050.748	829.728
24.907	19.398	1050.323	829.667
25.921	19.388	1049.198	828.660
26.936	19.354	1047.666	827.212
27.950	19.255	1046.421	825.682
28.965	19.170	1044.216	823.462
29.980	19.287	1042.359	822.482
30.994	19.402	1041.883	822.587
32.009	19.392	1040.402	821.295
33.023	19.020	1039.492	818.734
34.038	19.276	1038.370	818.993
35.053	19.381	1038.078	819.188
36.067	19.421	1036.973	818.438
37.082	19.399	1036.256	817.691
38.096	19.660	1035.120	817.959
39.111	19.745	1034.112	817.494
40.126	19.474	1033.298	815.495
41.140	19.323	1030.815	812.751
42.155	19.059	1029.121	810.102
43.169	19.158	1028.417	809.943
44.184	19.038	1027.782	808.809
45.199	18.992	1026.734	807.693
46.213	19.021	1025.911	807.113
47.228	19.218	1024.427	806.794
48.242	19.245	1023.506	806.123
49.257	19.345	1023.284	806.347
50.271	19.413	1022.250	805.780
51.286	19.501	1021.033	805.157
52.301	19.374	1020.440	804.028
53.315	19.370	1019.266	803.011
54.330	19.411	1018.436	802.479
55.344	19.454	1017.751	802.069
56.359	19.298	1016.864	800.574
57.374	19.122	1015.980	798.988
58.388	19.249	1014.974	798.716
59.403	19.286	1013.814	797.904
60.417	18.989	1013.011	795.830
61.432	19.118	1012.624	796.050
62.447	19.324	1011.670	796.183
63.461	19.221	1011.084	795.175
64.476	19.260	1009.840	794.305
65.490	19.171	1008.846	793.042
66.505	19.275	1008.286	793.014
67.520	19.277	1007.576	792.394
68.534	19.032	1006.652	790.470
69.549	18.721	1005.525	788.089
70.563	18.788	1004.562	787.571
71.578	18.763	1003.694	786.705
72.593	18.815	1002.403	785.864
73.607	18.871	1002.521	786.142
74.622	19.115	1001.732	786.570
75.636	19.238	1000.800	786.327
76.651	19.026	1000.018	784.675
77.666	18.866	999.520	783.486
78.680	18.957	998.850	783.306
79.695	19.035	998.201	783.084
80.709	19.079	997.378	782.570
81.724	19.080	996.276	781.638
82.739	19.208	995.623	781.638
83.753	19.420	995.331	782.301
84.768	19.585	994.245	782.125
85.782	19.529	993.658	781.341
86.797	19.568	992.323	780.400
87.812	19.419	991.405	778.936
88.826	19.438	990.751	778.438
89.841	19.612	989.001	777.781
90.855	19.624	988.581	777.434
91.870	19.535	987.398	776.036
92.884	19.457	986.198	774.672
93.899	19.514	985.255	774.117
94.914	19.650	984.563	774.119
95.928	19.415	983.648	772.278
96.943	19.366	981.952	770.656
97.957	18.980	981.064	768.167
98.972	18.799	979.790	766.295
99.987	19.139	979.242	767.316
101.001	19.363	978.588	767.734
102.016	19.415	977.301	766.884
103.030	19.240	976.817	765.660
104.045	19.021	975.596	763.666
105.060	18.944	974.679	762.538
106.074	19.059	973.975	762.429
107.089	19.509	972.988	763.580
108.103	19.464	972.529	762.954
109.118	19.243	971.014	760.723
110.133	19.369	970.045	760.448
111.147	19.120	968.948	758.425
112.162	18.977	967.486	756.584
113.176	19.041	967.468	756.784
114.191	19.067	966.144	755.799
115.206	18.756	964.866	753.367
116.220	18.878	963.768	752.976
117.235	18.939	962.792	752.415
118.249	18.935	962.398	752.024
119.264	18.830	961.397	750.715
120.279	18.848	960.972	750.394
121.293	18.965	960.024	750.098
122.308	18.973	959.053	749.311
123.322	19.021	957.795	748.467
124.337	18.982	956.472	747.199
125.352	18.289	955.209	743.142
126.366	18.456	953.720	742.638
127.381	19.018	953.719	745.008
128.395	19.504	952.421	746.029
129.410	19.405	951.768	745.023
130.424	19.355	951.214	744.307
131.439	19.368	949.855	743.235
132.454	19.331	949.483	742.719
133.468	19.320	948.327	741.704
134.483	19.536	947.441	741.871
135.497	19.752	946.435	741.946
136.512	19.547	945.895	740.576
137.527	19.668	944.893	740.246
138.541	19.651	944.233	739.589
139.556	19.732	942.693	738.665
140.570	19.734	942.300	738.300
141.585	19.624	941.276	736.963
142.600	19.673	940.260	736.311
143.614	19.821	939.603	736.362
144.629	19.815	939.168	735.930
145.643	19.730	937.731	734.378
146.658	19.584	936.569	732.783
147.673	19.628	935.183	731.821
148.687	19.526	934.660	730.913
149.702	19.526	933.328	729.809
150.716	19.376	932.729	728.641
151.731	19.504	932.181	728.688
152.746	19.748	931.727	729.298
153.760	19.840	930.978	729.035
154.775	19.874	930.007	728.353
155.789	19.846	929.137	727.493
156.804	19.811	928.049	726.427
157.819	19.738	927.733	725.809
158.833	19.945	926.671	725.783
159.848	19.885	925.793	724.781
160.862	19.822	924.363	723.334
161.877	19.873	923.832	723.067
162.892	19.830	923.087	722.241
163.906	19.851	921.966	721.385
164.921	19.974	920.863	720.972
165.935	19.943	920.260	720.307
166.950	19.908	919.239	719.296
167.964	19.844	918.410	718.319
168.979	19.648	917.831	716.989
169.994	19.577	916.936	715.933
171.008	19.839	916.096	716.300
172.023	19.846	915.181	715.550
173.037	19.538	914.325	713.543
174.052	19.529	913.213	712.575
175.067	19.580	912.476	712.146
176.081	19.725	912.381	712.608
177.096	19.579	911.443	711.212
178.110	19.371	910.392	709.475
179.125	19.219	909.825	708.342
180.140	19.428	909.422	708.828
181.154	19.389	909.145	708.389
182.169	19.620	909.023	709.177
183.183	19.766	908.523	709.326
184.198	19.797	907.573	708.649
185.213	19.772	906.699	707.800
186.227	19.863	905.855	707.449
187.242	19.798	905.515	706.857
188.256	19.734	904.903	706.053
189.271	19.885	903.713	705.680
190.286	19.553	902.983	703.694
191.300	19.130	901.291	700.594
192.315	18.278	900.245	696.252
193.329	18.409	899.707	696.309
194.344	19.354	900.150	700.431
195.359	19.682	899.987	701.573
196.373	19.757	899.084	701.112
197.388	19.626	898.295	699.903
198.402	19.575	897.891	699.322
199.417	19.562	896.867	698.406
200.432	19.285	896.077	696.613
201.446	19.231	895.423	695.824
202.461	19.189	894.474	694.852
203.475	18.415	893.074	690.586
204.490	17.809	891.708	687.031
205.504	18.823	892.171	691.408
206.519	19.261	892.024	692.997
207.534	19.356	891.282	692.738
208.548	19.830	891.331	694.619
209.563	19.551	890.169	692.533
210.577	19.701	889.449	692.513
211.592	19.960	888.989	693.132
212.607	19.811	888.181	691.843
213.621	19.788	887.979	691.533
214.636	20.024	886.921	691.593
215.650	19.824	886.356	690.290
216.665	19.960	885.844	690.373
217.680	19.851	885.051	689.259
218.694	19.214	883.693	685.606
219.709	19.289	883.081	685.372
220.723	19.613	883.086	686.603
221.738	19.809	881.836	686.348
222.753	19.784	881.403	685.849
223.767	19.868	881.007	685.812
224.782	20.001	880.711	686.050
225.796	19.911	879.919	685.015
226.811	19.278	878.245	681.152
227.826	18.820	877.027	678.339
228.840	18.965	876.901	678.753
229.855	18.996	875.992	678.110
230.869	18.680	875.352	676.311
231.884	19.102	874.873	677.543
232.899	19.786	874.734	680.067
233.913	19.869	873.949	679.721
234.928	19.780	873.347	678.843
235.942	19.604	872.935	677.773
236.957	19.353	871.984	675.990
237.972	19.506	871.414	676.088
238.986	19.506	870.873	675.608
240.001	19.543	870.186	675.159
241.015	19.656	869.405	674.935
242.030	19.689	869.473	675.058
243.045	19.842	868.728	675.016
244.059	19.901	868.097	674.699
245.074	19.704	867.269	673.228
246.088	19.315	865.988	670.658
247.103	19.888	865.182	672.203
248.117	20.269	865.760	674.074
249.132	20.195	865.598	673.598
250.147	20.349	864.628	673.382
251.161	20.484	864.027	673.379
252.176	20.391	863.118	672.249
253.190	20.517	863.088	672.653
254.205	20.640	862.182	672.367
255.220	20.566	862.026	671.895
256.234	20.313	861.171	670.194
257.249	20.297	860.334	669.421
258.263	20.540	859.390	669.564
259.278	20.486	859.031	669.019
260.293	20.425	858.431	668.256
261.307	20.327	857.682	667.239
262.322	20.243	856.668	666.069
263.336	19.501	854.625	661.578
264.351	18.406	852.936	656.020
265.366	18.529	852.611	656.182
266.380	19.706	853.605	661.398
267.395	20.280	852.971	663.040
268.409	20.295	851.843	662.164
269.424	20.288	852.114	662.289
270.439	20.362	851.330	661.903
271.453	20.489	850.591	661.753
272.468	20.547	850.391	661.758
273.482	20.724	849.850	661.953
274.497	20.253	848.384	658.962
275.512	19.924	847.706	657.132
276.526	20.201	847.854	658.239
277.541	20.494	846.932	658.577
278.555	20.241	846.151	656.953
279.570	20.090	844.817	655.287
280.585	20.138	844.896	655.472
281.599	20.105	843.904	654.517
282.614	19.596	842.785	651.675
283.628	19.724	842.428	651.822
284.643	19.987	842.406	652.740
285.657	19.683	840.961	650.418
286.672	19.330	840.290	648.514
287.687	20.093	839.613	650.802
288.701	20.099	839.310	650.530
289.716	19.706	838.732	648.549
290.730	19.700	837.924	647.846
291.745	19.398	837.023	645.960
292.760	19.699	836.906	646.942
293.774	20.606	837.322	650.598
294.789	20.892	836.802	651.209
295.803	20.903	836.249	650.761
296.818	21.096	835.387	650.753
297.833	20.603	834.366	648.060
298.847	20.564	833.925	647.517
299.862	20.945	833.408	648.477
300.876	20.970	833.244	648.384
301.891	20.714	832.657	646.920
302.906	20.332	831.884	644.843
303.920	20.638	831.015	645.247
304.935	20.860	830.893	645.918
305.949	20.888	830.099	645.346
306.964	20.588	829.507	643.720
307.979	20.615	829.400	643.678
308.993	20.916	828.864	644.321
310.008	20.911	828.327	643.826
311.022	20.735	827.623	642.571
312.037	20.662	826.821	641.623
313.052	20.450	826.126	640.246
314.066	19.702	824.587	636.245
315.081	19.458	824.068	634.890
316.095	20.255	824.274	637.925
317.110	20.565	824.090	638.863
318.125	19.865	822.600	635.084
319.139	18.937	821.215	630.558
320.154	18.862	821.127	630.160
321.168	19.867	821.128	633.788
322.183	20.371	821.057	635.524
323.197	20.538	820.794	635.873
324.212	20.844	820.295	636.551
325.227	20.772	819.594	635.685
326.241	20.683	819.401	635.156
327.256	20.616	818.514	634.168
328.270	20.589	817.798	633.458
329.285	20.377	817.157	632.132
330.300	20.318	816.392	631.272
331.314	20.463	815.923	631.381
332.329	20.707	815.841	632.148
333.343	20.778	815.307	631.936
334.358	20.777	814.855	631.523
335.373	20.982	814.619	632.030
336.387	21.059	814.710	632.323
337.402	21.146	814.549	632.456
338.416	20.975	813.964	631.328
339.431	21.257	813.553	631.974
340.446	21.465	812.863	632.132
341.460	21.309	812.692	631.380
342.475	21.022	811.977	629.734
343.489	21.011	811.964	629.629
344.504	21.290	811.410	630.147
345.519	21.433	811.349	630.560
346.533	21.570	810.823	630.592
347.548	21.603	810.170	630.146
348.562	21.614	809.665	629.738
349.577	21.383	809.282	628.552
350.592	21.543	808.661	628.590
351.606	21.559	807.759	627.889
352.621	21.440	806.546	626.465
353.635	21.350	805.991	625.657
354.650	20.590	804.663	621.852
355.665	19.914	802.958	618.069
356.679	20.085	803.349	618.925
357.694	20.600	802.641	620.161
358.708	20.544	802.360	619.689
359.723	20.807	802.152	620.412
360.738	21.109	801.668	621.057
361.752	21.435	800.693	621.406
362.767	21.715	800.875	622.488
363.781	21.800	800.236	622.238
364.796	21.897	799.748	622.147
365.810	21.792	799.656	621.648
366.825	21.730	799.205	621.022
367.840	21.553	798.070	619.458
368.854	21.183	797.262	617.470
369.869	21.223	797.335	617.612
370.883	21.211	796.834	617.129
371.898	21.142	796.135	616.288
372.913	21.295	795.565	616.330
373.927	21.358	795.874	616.739
374.942	21.629	795.088	617.030
375.956	21.502	794.775	616.286
376.971	21.656	794.497	616.556
377.986	21.888	794.077	616.993
379.000	21.705	793.367	615.742
380.015	21.628	792.782	614.965
381.029	21.760	792.353	615.039
382.044	21.794	791.992	614.824
383.059	21.779	791.455	614.300
384.073	21.810	790.915	613.935
385.088	21.936	789.971	613.589
386.102	21.772	789.503	612.600
387.117	21.809	788.826	612.147
388.132	21.276	787.952	609.558
389.146	20.880	786.905	607.313
390.161	21.268	786.753	608.496
391.175	21.594	786.691	609.527
392.190	21.287	785.710	607.646
393.205	20.097	783.442	601.707
394.219	18.704	782.121	595.809
395.234	18.799	782.444	596.334
396.248	20.426	783.440	602.689
397.263	21.595	784.074	607.182
398.278	21.534	783.594	606.542
399.292	21.486	782.695	605.628
400.307	21.389	782.556	605.130
401.321	21.460	782.186	605.037
402.336	21.833	781.974	606.108
403.350	22.023	781.699	606.499
404.365	22.255	781.659	607.215
405.380	22.464	781.200	607.527
406.394	22.587	780.352	607.238
407.409	22.380	780.118	606.287
408.423	22.379	779.577	605.809
409.438	22.501	779.707	606.279
410.453	22.437	779.230	605.632
411.467	22.426	778.721	605.146
412.482	22.547	778.501	605.338
413.496	22.503	777.822	604.605
414.511	22.700	777.135	604.694
415.526	22.614	777.388	604.541
416.540	22.332	776.464	602.803
417.555	22.258	775.308	601.597
418.569	22.272	775.177	601.492
419.584	22.080	774.594	600.329
420.599	22.005	773.963	599.531
421.613	159.593	1361.186	1799.349
422.628	137.794	1446.751	1799.438
