DTS Sentinel unit serial number:	SN413079Multiplexer serial number:	ORYXHardware model number:	OX4-SRSoftware version number:	ORYX F/W v4.00 Oryx Data Collector v3.7.2.0data status	okinstallation	princeton_trtdifferential loss correction	single-endedforward channel	channel 1reverse channel	N/Adate	2019/09/12time	07:04:11forward acquisition time	60.00reverse acquisition time	0.00gamma	496.2192k internal	0.2320k external	0.2320temperature offset calibration	1.0044default loss term (dB/km)	0.3790temperature slope calibration	1.0000multiplexer offset coefficient	1.0000multiplexer slope coefficient	1.0000fibre end	0.00T internal ref (°C)	32.19T ext. ref 1 (°C)	1.62T ext. ref 2 (°C)	27.42length (m)	temperature (°C)	Stokes	anti-Stokes-747.200	-40.881	0.236	0.123
-746.185	95.112	-0.138	-0.159
-745.171	800.000	0.144	0.432
-744.156	-85.485	0.237	-0.075
-743.142	14.266	-0.233	0.183
-742.127	-76.016	-0.188	0.067
-741.112	-119.604	-0.308	-0.054
-740.098	191.830	-0.151	0.230
-739.083	800.000	-0.056	-0.160
-738.069	-169.998	-0.140	0.005
-737.054	-125.613	-0.333	0.051
-736.039	779.980	0.076	0.210
-735.025	491.706	0.125	0.290
-734.010	67.012	0.023	0.024
-732.996	800.000	0.166	-0.655
-731.981	-17.488	0.474	-0.301
-730.966	-11.991	-0.081	-0.054
-729.952	-88.690	-0.152	0.046
-728.937	-101.090	-0.248	-0.061
-727.923	-45.909	-0.371	-0.185
-726.908	355.464	0.035	0.070
-725.894	82.153	-0.220	0.241
-724.879	-129.597	-0.228	-0.032
-723.864	-19.517	0.301	0.188
-722.850	587.142	-0.075	-0.186
-721.835	-51.569	0.053	-0.025
-720.821	-200.000	-0.028	0.185
-719.806	97.157	-0.065	0.075
-718.791	38.087	-0.197	-0.177
-717.777	-143.075	0.242	0.024
-716.762	-200.000	0.009	-0.052
-715.748	-99.432	-0.064	0.016
-714.733	-41.058	0.605	0.316
-713.718	141.255	-0.129	0.172
-712.704	-200.000	0.008	0.221
-711.689	137.422	-0.130	-0.172
-710.675	-90.420	-0.204	0.060
-709.660	-8.605	0.343	0.232
-708.645	800.000	0.175	-0.546
-707.631	-136.843	0.348	0.040
-706.616	670.593	0.054	-0.141
-705.602	-113.691	0.256	-0.050
-704.587	91.754	0.074	-0.085
-703.572	80.599	-0.173	-0.188
-702.558	138.709	0.165	0.219
-701.543	-49.050	-0.166	-0.080
-700.529	-116.397	0.283	-0.053
-699.514	-123.748	0.135	0.022
-698.499	-157.537	-0.248	-0.015
-697.485	-31.327	0.215	0.122
-696.470	-200.000	0.023	0.131
-695.456	-200.000	-0.033	-0.370
-694.441	-200.000	-0.102	-0.474
-693.426	35.360	0.197	-0.174
-692.412	323.309	0.034	0.066
-691.397	517.467	0.023	-0.054
-690.383	8.616	-0.023	0.018
-689.368	263.716	0.049	0.087
-688.354	800.000	0.060	-0.212
-687.339	-92.788	0.070	0.020
-686.324	-47.516	0.211	-0.104
-685.310	800.000	-0.045	-0.159
-684.295	-79.724	-0.326	0.111
-683.281	-18.583	-0.109	0.068
-682.266	-200.000	0.018	-0.278
-681.251	749.767	-0.051	-0.139
-680.237	800.000	0.039	-0.122
-679.222	-182.984	0.256	0.005
-678.208	-49.783	0.078	-0.038
-677.193	-29.859	0.097	-0.056
-676.178	530.908	0.141	0.335
-675.164	800.000	0.090	-0.261
-674.149	424.241	0.182	-0.394
-673.135	49.966	0.184	-0.175
-672.120	163.069	0.082	0.116
-671.105	-102.712	-0.136	0.033
-670.091	47.273	-0.170	0.159
-669.076	-120.750	-0.381	-0.065
-668.062	90.266	0.195	-0.220
-667.047	317.496	0.044	0.084
-666.032	-200.000	-0.023	-0.154
-665.018	800.000	-0.047	0.161
-664.003	-27.737	-0.332	-0.194
-662.989	75.017	0.119	-0.126
-661.974	54.197	-0.269	-0.261
-660.959	-186.508	-0.247	-0.004
-659.945	-200.000	-0.001	0.094
-658.930	-200.000	0.053	-0.233
-657.916	-200.000	-0.007	-0.375
-656.901	21.782	-0.141	-0.116
-655.886	-66.587	-0.156	-0.063
-654.872	130.387	0.062	0.080
-653.857	104.375	-0.237	0.281
-652.843	322.282	0.112	0.215
-651.828	-200.000	0.007	0.104
-650.814	129.828	-0.206	0.265
-649.799	262.018	0.227	-0.396
-648.784	800.000	-0.118	-0.359
-647.770	800.000	-0.041	-0.160
-646.755	-200.000	-0.003	-0.311
-645.741	342.381	0.200	-0.394
-644.726	-117.998	-0.289	-0.052
-643.711	-200.000	0.014	-0.242
-642.697	371.033	0.175	-0.358
-641.682	-1.868	-0.142	-0.101
-640.668	-200.000	-0.027	-0.161
-639.653	336.086	-0.122	0.238
-638.638	781.911	0.033	-0.091
-637.624	314.598	-0.090	-0.170
-636.609	36.999	-0.102	-0.090
-635.595	141.934	0.121	-0.162
-634.580	174.769	-0.191	0.279
-633.565	476.080	-0.086	-0.196
-632.551	71.825	-0.205	0.214
-631.536	95.407	0.126	-0.144
-630.522	-67.172	0.186	-0.074
-629.507	228.700	0.112	0.184
-628.492	-104.294	-0.139	-0.032
-627.478	-51.802	-0.118	0.056
-626.463	-200.000	0.001	0.374
-625.449	-103.447	-0.148	-0.035
-624.434	156.509	0.218	-0.302
-623.419	800.000	0.051	0.219
-622.405	255.709	0.120	-0.207
-621.390	24.216	-0.116	0.096
-620.376	2.081	-0.194	0.141
-619.361	-94.979	-0.249	-0.068
-618.346	800.000	0.037	-0.151
-617.332	800.000	0.039	-0.168
-616.317	-128.848	0.049	0.007
-615.303	-200.000	-0.023	0.421
-614.288	680.123	-0.035	0.093
-613.273	-7.374	-0.226	0.154
-612.259	-200.000	0.008	-0.269
-611.244	-16.643	-0.194	-0.124
-610.230	32.415	0.081	0.070
-609.215	-27.764	0.130	-0.076
-608.201	-137.476	-0.158	0.018
-607.186	-28.692	0.147	0.085
-606.171	-117.389	0.104	-0.019
-605.157	-11.330	0.261	0.173
-604.142	-17.324	-0.180	-0.114
-603.128	-200.000	0.017	0.182
-602.113	420.251	-0.107	0.230
-601.098	76.247	-0.145	0.154
-600.084	-170.954	-0.126	0.004
-599.069	-200.000	-0.065	0.454
-598.055	130.328	0.068	-0.087
-597.040	-84.934	0.144	-0.045
-596.025	-200.000	-0.061	0.315
-595.011	800.000	-0.141	-0.430
-593.996	-75.962	-0.249	-0.089
-592.982	-200.000	0.015	-0.073
-591.967	210.415	0.084	0.133
-590.952	252.340	-0.056	-0.096
-589.938	800.000	0.074	-0.239
-588.923	-111.251	0.242	-0.050
-587.909	20.882	0.164	0.134
-586.894	-168.925	-0.122	0.005
-585.879	14.463	0.243	-0.190
-584.865	-26.845	-0.199	-0.117
-583.850	176.752	0.073	-0.107
-582.836	-200.000	-0.013	-0.078
-581.821	-26.090	-0.262	0.155
-580.806	-66.137	-0.216	0.087
-579.792	-160.228	0.374	0.020
-578.777	800.000	0.048	0.141
-577.763	-161.439	0.083	0.004
-576.748	-200.000	0.012	-0.645
-575.733	56.938	-0.061	-0.060
-574.719	426.125	-0.129	0.280
-573.704	-200.000	-0.008	0.065
-572.690	94.878	-0.230	0.263
-571.675	-32.123	-0.286	0.161
-570.661	-41.332	-0.198	-0.102
-569.646	-185.161	-0.161	-0.003
-568.631	-200.000	0.002	0.136
-567.617	-200.000	0.004	-0.176
-566.602	-200.000	0.021	0.152
-565.588	-81.055	-0.121	0.040
-564.573	101.752	-0.308	0.361
-563.558	110.254	-0.068	0.082
-562.544	593.725	0.032	-0.079
-561.529	298.306	-0.097	0.178
-560.515	797.145	-0.104	-0.287
-559.500	5.727	0.148	0.110
-558.485	93.897	-0.101	0.115
-557.471	-115.335	-0.116	-0.022
-556.456	232.884	0.063	-0.104
-555.442	34.234	0.059	0.051
-554.427	800.000	-0.096	-0.272
-553.412	-116.470	-0.166	0.031
-552.398	224.327	0.089	0.144
-551.383	174.294	-0.183	-0.265
-550.369	40.004	-0.198	-0.179
-549.354	-98.017	-0.102	0.026
-548.339	267.139	0.092	-0.162
-547.325	89.033	0.133	0.148
-546.310	-200.000	0.016	-0.292
-545.296	-83.571	-0.189	-0.061
-544.281	800.000	-0.116	0.343
-543.266	-86.306	0.418	-0.129
-542.252	93.099	0.183	-0.207
-541.237	-199.192	0.054	-0.000
-540.223	767.804	0.026	0.070
-539.208	42.273	0.162	-0.147
-538.193	23.836	-0.131	0.108
-537.179	85.863	-0.274	-0.302
-536.164	25.723	-0.055	0.046
-535.150	348.897	-0.129	-0.256
-534.135	-51.460	-0.182	0.085
-533.121	22.775	-0.353	0.290
-532.106	-82.989	0.116	0.037
-531.091	13.167	-0.206	0.160
-530.077	-50.006	0.372	0.177
-529.062	-55.493	-0.184	0.083
-528.048	-91.513	0.121	-0.035
-527.033	-17.826	0.167	0.105
-526.018	260.273	-0.191	0.331
-525.004	71.908	-0.227	-0.237
-523.989	28.968	-0.202	-0.172
-522.975	-25.833	0.335	0.198
-521.960	356.751	0.149	-0.298
-520.945	130.300	0.184	0.236
-519.931	325.298	-0.079	-0.152
-518.916	-85.180	-0.114	-0.036
-517.902	390.256	0.126	0.261
-516.887	27.780	0.160	-0.135
-515.872	-32.491	0.120	-0.067
-514.858	-36.454	-0.091	0.049
-513.843	-119.046	-0.211	0.037
-512.829	-25.437	-0.073	-0.043
-511.814	-13.426	-0.242	0.158
-510.799	301.198	-0.189	-0.349
-509.785	302.552	0.088	-0.163
-508.770	-120.188	0.252	-0.043
-507.756	654.254	-0.056	0.143
-506.741	-87.058	-0.193	0.059
-505.726	-69.581	0.056	0.021
-504.712	-63.637	0.210	-0.086
-503.697	-134.340	-0.256	-0.031
-502.683	220.915	-0.050	-0.081
-501.668	800.000	-0.012	-0.036
-500.653	250.259	-0.151	0.256
-499.639	-62.775	0.052	-0.022
-498.624	-21.482	0.219	0.134
-497.610	800.000	0.053	0.187
-496.595	-200.000	-0.004	-0.129
-495.581	140.151	0.084	-0.111
-494.566	-53.528	-0.166	-0.076
-493.551	-200.000	-0.051	-0.351
-492.537	-144.254	0.138	-0.013
-491.522	518.250	0.056	0.130
-490.508	65.231	0.349	-0.353
-489.493	52.196	0.264	-0.252
-488.478	486.093	-0.060	-0.137
-487.464	-111.177	-0.174	-0.036
-486.449	156.770	-0.034	0.046
-485.435	34.448	0.133	0.117
-484.420	-200.000	0.035	0.226
-483.405	-62.000	-0.119	0.050
-482.391	-56.762	0.121	0.053
-481.376	-1.173	0.064	-0.046
-480.362	370.887	0.063	0.127
-479.347	461.959	-0.130	0.290
-478.332	-158.883	-0.063	0.004
-477.318	800.000	-0.038	0.113
-476.303	304.395	-0.052	0.097
-475.289	-62.452	-0.145	0.060
-474.274	-200.000	-0.006	-0.351
-473.259	-30.107	0.115	-0.065
-472.245	-200.000	-0.039	0.268
-471.230	295.538	0.044	0.080
-470.216	-200.000	-0.055	0.400
-469.201	-122.432	0.432	0.070
-468.186	144.321	0.095	-0.126
-467.172	1.987	0.112	0.081
-466.157	-114.077	-0.134	-0.026
-465.143	-33.407	-0.434	0.240
-464.128	151.268	0.205	-0.280
-463.113	150.251	-0.114	-0.155
-462.099	-143.366	0.090	-0.009
-461.084	53.769	-0.122	-0.117
-460.070	-100.949	0.388	-0.095
-459.055	-200.000	0.030	-0.145
-458.040	148.414	0.079	0.106
-457.026	310.057	0.054	-0.102
-456.011	-200.000	-0.079	0.400
-454.997	54.147	-0.143	0.138
-453.982	-58.768	0.104	-0.045
-452.968	34.931	0.151	-0.132
-451.953	248.119	0.056	-0.095
-450.938	-30.179	-0.094	-0.053
-449.924	-200.000	0.013	-0.166
-448.909	-81.619	0.005	0.002
-447.895	-200.000	-0.067	-0.399
-446.880	-200.000	0.021	-0.116
-445.865	-89.526	0.333	0.098
-444.851	44.098	-0.122	-0.112
-443.836	-200.000	-0.036	0.248
-442.822	-45.146	0.101	0.050
-441.807	-130.027	0.167	0.023
-440.792	-84.396	0.204	-0.064
-439.778	588.606	-0.002	-0.006
-438.763	-200.000	-0.020	0.189
-437.749	800.000	-0.066	0.258
-436.734	-138.943	0.248	-0.027
-435.719	-130.395	0.216	0.029
-434.705	-5.256	0.287	-0.197
-433.690	127.770	-0.106	-0.135
-432.676	800.000	0.073	-0.220
-431.661	-126.150	-0.439	0.066
-430.646	800.000	0.038	-0.148
-429.632	27.750	0.246	-0.207
-428.617	63.047	-0.331	-0.331
-427.603	-200.000	0.046	-0.232
-426.588	-76.515	-0.163	-0.057
-425.573	-108.458	0.078	-0.017
-424.559	286.542	0.039	-0.070
-423.544	-200.000	-0.019	-0.123
-422.530	-30.885	0.271	0.153
-421.515	800.000	0.059	0.190
-420.500	405.713	-0.013	-0.028
-419.486	69.009	-0.134	0.138
-418.471	103.118	0.139	-0.162
-417.457	654.516	0.155	0.397
-416.442	-57.317	-0.192	-0.084
-415.428	-200.000	0.012	-0.076
-414.413	-51.937	-0.432	0.201
-413.398	-200.000	0.063	0.314
-412.384	-58.556	-0.234	-0.101
-411.369	2.924	0.197	-0.143
-410.355	-200.000	0.023	-0.161
-409.340	-85.730	-0.202	-0.063
-408.325	800.000	-0.091	-0.344
-407.311	-84.325	-0.282	-0.089
-406.296	-156.923	0.163	-0.010
-405.282	-98.739	-0.103	0.026
-404.267	-200.000	0.029	-0.257
-403.252	-113.139	0.275	-0.054
-402.238	241.195	0.101	-0.168
-401.223	-45.521	-0.300	0.148
-400.209	-200.000	-0.013	0.076
-399.194	-106.564	-0.275	0.061
-398.179	-85.417	0.106	-0.033
-397.165	179.234	0.132	-0.192
-396.150	-88.949	-0.169	-0.050
-395.136	51.647	-0.114	0.108
-394.121	-37.573	0.215	-0.114
-393.106	496.759	0.009	0.021
-392.092	-91.446	-0.030	0.008
-391.077	-86.567	0.306	0.094
-390.063	-200.000	-0.005	0.227
-389.048	-200.000	-0.037	-0.179
-388.033	-66.080	0.241	0.096
-387.019	-152.521	-0.310	0.022
-386.004	451.367	-0.047	-0.104
-384.990	137.516	0.014	0.019
-383.975	-152.058	-0.150	-0.011
-382.960	-114.185	-0.286	0.055
-381.946	800.000	0.037	0.143
-380.931	-200.000	0.052	-0.237
-379.917	-170.672	0.107	0.004
-378.902	-200.000	0.014	-0.126
-377.888	-200.000	-0.010	0.087
-376.873	-43.659	-0.043	0.021
-375.858	69.655	0.215	-0.221
-374.844	176.950	-0.132	-0.192
-373.829	-97.642	-0.406	-0.105
-372.815	472.402	0.084	0.189
-371.800	137.516	0.139	0.182
-370.785	800.000	0.017	0.055
-369.771	168.552	-0.118	0.167
-368.756	-73.325	0.317	0.115
-367.742	330.059	0.098	0.189
-366.727	-11.405	0.160	0.105
-365.712	800.000	0.128	-0.363
-364.698	-67.341	0.099	-0.039
-363.683	131.465	-0.109	-0.140
-362.669	800.000	-0.058	0.242
-361.654	800.000	-0.058	-0.252
-360.639	-87.868	-0.167	0.050
-359.625	114.421	0.008	-0.009
-358.610	-21.908	-0.185	0.112
-357.596	4.030	0.210	-0.153
-356.581	-136.871	-0.230	-0.026
-355.566	161.013	0.149	0.207
-354.552	188.853	-0.101	0.151
-353.537	-38.392	0.032	0.017
-352.523	-101.924	0.155	-0.037
-351.508	97.085	-0.145	-0.165
-350.493	336.550	0.168	-0.326
-349.479	240.761	0.121	-0.200
-348.464	402.923	0.051	0.107
-347.450	-132.746	-0.260	-0.033
-346.435	-200.000	0.025	-0.172
-345.420	-96.382	0.093	-0.024
-344.406	76.010	0.033	0.034
-343.391	-25.222	-0.260	0.153
-342.377	-73.428	0.152	-0.055
-341.362	289.121	-0.161	0.290
-340.348	800.000	0.039	0.132
-339.333	232.544	0.100	-0.163
-338.318	-200.000	0.019	0.124
-337.304	-18.617	-0.273	-0.170
-336.289	-119.704	-0.371	-0.064
-335.275	173.670	0.088	0.126
-334.260	-29.472	0.319	0.182
-333.245	-89.940	-0.228	0.066
-332.231	81.053	0.210	0.226
-331.216	310.516	0.109	0.203
-330.202	30.989	0.072	0.061
-329.187	-36.125	0.215	-0.116
-328.172	-51.318	-0.319	0.149
-327.158	-26.540	0.100	0.058
-326.143	-106.097	-0.224	-0.050
-325.129	-134.238	0.351	-0.043
-324.114	164.998	0.178	-0.249
-323.099	-79.345	0.219	-0.074
-322.085	12.169	-0.321	0.246
-321.070	648.330	-0.091	0.231
-320.056	-6.347	0.224	-0.152
-319.041	-98.894	-0.208	0.053
-318.026	-200.000	-0.020	-0.175
-317.012	221.972	-0.155	0.248
-315.997	-139.546	0.204	-0.022
-314.983	-116.438	-0.068	0.012
-313.968	-167.627	0.218	0.009
-312.953	382.396	-0.121	-0.248
-311.939	604.149	-0.093	0.229
-310.924	171.611	-0.237	0.338
-309.910	-99.396	0.218	0.054
-308.895	-112.301	-0.085	0.017
-307.880	-146.215	0.167	0.015
-306.866	72.950	0.151	-0.157
-305.851	-6.406	-0.262	-0.177
-304.837	-47.307	0.154	0.075
-303.822	-89.244	-0.314	-0.092
-302.807	-61.626	0.093	-0.039
-301.793	-200.000	-0.049	-0.215
-300.778	431.577	-0.132	-0.285
-299.764	800.000	-0.062	0.242
-298.749	-49.792	0.194	-0.092
-297.735	-73.364	-0.231	0.084
-296.720	-119.624	0.297	0.051
-295.705	-113.345	0.058	-0.011
-294.691	-200.000	-0.042	0.267
-293.676	144.362	-0.121	0.161
-292.662	-148.556	-0.285	0.023
-291.647	-200.000	0.020	0.329
-290.632	348.547	0.108	0.211
-289.618	713.875	-0.137	-0.359
-288.603	56.916	0.038	0.037
-287.589	37.221	-0.134	0.118
-286.574	-164.348	0.228	0.010
-285.559	-21.759	0.206	0.124
-284.545	-19.872	0.117	-0.072
-283.530	-200.000	-0.026	-0.200
-282.516	-48.691	-0.155	0.074
-281.501	643.761	-0.096	0.243
-280.486	59.357	0.152	0.149
-279.472	-200.000	0.038	-0.243
-278.457	-41.112	-0.056	-0.029
-277.443	-64.029	-0.037	0.015
-276.428	112.949	-0.194	0.234
-275.413	-200.000	0.018	-0.129
-274.399	328.110	-0.069	0.131
-273.384	652.780	-0.076	0.193
-272.370	-106.307	0.347	0.077
-271.355	315.833	0.070	0.131
-270.340	-200.000	0.004	-0.278
-269.326	281.955	0.107	-0.191
-268.311	-140.922	-0.143	0.015
-267.297	800.000	0.071	0.297
-266.282	-71.639	-0.061	-0.022
-265.267	46.871	0.089	0.082
-264.253	234.404	0.027	-0.044
-263.238	-144.571	0.290	-0.027
-262.224	-200.000	-0.027	0.232
-261.209	139.530	0.159	0.208
-260.195	-200.000	0.011	-0.386
-259.180	-200.000	-0.004	-0.065
-258.165	95.431	0.294	-0.333
-257.151	-200.000	-0.010	0.143
-256.136	344.731	-0.086	0.167
-255.122	66.077	-0.032	0.032
-254.107	49.412	-0.218	0.203
-253.092	-200.000	-0.032	-0.292
-252.078	-147.224	0.361	-0.030
-251.063	10.335	0.113	-0.086
-250.049	251.756	0.181	0.306
-249.034	-139.329	0.240	0.026
-248.019	181.838	0.144	-0.210
-247.005	-27.041	0.186	-0.107
-245.990	6.640	-0.275	-0.203
-244.976	-20.120	0.258	0.158
-243.961	-33.128	0.134	0.074
-242.946	-66.889	0.082	0.032
-241.932	205.755	0.124	0.191
-240.917	800.000	0.063	0.187
-239.903	182.167	0.178	-0.260
-238.888	99.191	-0.106	0.122
-237.873	-49.313	-0.249	0.118
-236.859	111.819	-0.153	0.184
-235.844	-200.000	0.018	0.111
-234.830	52.699	-0.241	-0.228
-233.815	-174.658	0.169	-0.005
-232.800	677.746	0.013	-0.033
-231.786	285.738	0.158	-0.283
-230.771	-42.231	0.310	-0.157
-229.757	-200.000	0.034	0.294
-228.742	1.767	-0.204	-0.146
-227.727	260.650	0.172	-0.294
-226.713	-32.623	0.048	0.027
-225.698	29.908	-0.298	0.251
-224.684	-63.282	-0.459	0.187
-223.669	-200.000	0.001	0.326
-222.655	55.186	0.068	0.065
-221.640	-110.935	0.241	0.049
-220.625	-139.283	-0.255	-0.027
-219.611	-148.666	0.324	0.026
-218.596	117.026	0.216	0.262
-217.582	800.000	0.121	-0.343
-216.567	-64.292	-0.391	-0.158
-215.552	800.000	-0.076	0.210
-214.538	-12.976	-0.076	-0.049
-213.523	70.228	-0.236	-0.241
-212.509	276.137	-0.167	0.293
-211.494	1.217	-0.130	0.093
-210.479	-200.000	0.230	0.000
-209.465	64.906	0.043	-0.043
-208.450	-179.526	-0.261	0.006
-207.436	587.034	-0.106	0.257
-206.421	-200.000	0.007	0.060
-205.406	-200.000	-0.020	0.408
-204.392	572.475	-0.083	-0.200
-203.377	-23.490	-0.204	-0.121
-202.363	30.016	0.156	0.131
-201.348	-58.932	0.203	-0.087
-200.333	48.787	0.208	0.193
-199.319	-200.000	0.071	0.503
-198.304	-104.711	-0.426	-0.097
-197.290	-200.000	0.029	0.219
-196.275	-84.031	0.416	0.131
-195.260	185.219	0.115	-0.169
-194.246	-200.000	-0.015	-0.269
-193.231	-8.918	0.067	-0.045
-192.217	-157.750	0.043	-0.003
-191.202	-200.000	-0.018	0.337
-190.187	-147.891	0.284	-0.023
-189.173	-23.524	-0.222	-0.132
-188.158	-101.437	0.116	0.028
-187.144	-200.000	0.010	0.089
-186.129	69.516	-0.043	0.044
-185.114	-200.000	0.027	0.265
-184.100	425.368	0.140	0.297
-183.085	-71.651	0.341	-0.126
-182.071	70.361	-0.170	-0.173
-181.056	-75.753	0.072	0.025
-180.042	31.021	0.403	-0.341
-179.027	-9.828	-0.236	0.155
-178.012	511.112	-0.082	0.188
-176.998	-162.606	-0.247	0.012
-175.983	-64.276	-0.320	-0.129
-174.969	81.779	0.210	0.225
-173.954	-124.629	-0.258	0.040
-172.939	-48.813	-0.274	-0.130
-171.925	123.071	0.290	-0.359
-170.910	-69.908	-0.143	-0.054
-169.896	156.576	0.074	-0.101
-168.881	-9.977	-0.222	0.146
-167.866	-180.059	0.042	-0.001
-166.852	192.804	0.140	0.209
-165.837	-93.576	-0.101	-0.028
-164.823	-74.214	0.356	-0.127
-163.808	228.669	-0.136	-0.219
-162.793	506.862	-0.037	0.085
-161.779	124.064	0.124	-0.154
-160.764	708.149	-0.083	-0.216
-159.750	-130.021	0.124	0.017
-158.735	-41.918	0.169	0.086
-157.720	800.000	0.044	0.123
-156.706	-200.000	0.010	0.174
-155.691	-85.178	0.175	0.054
-154.677	62.895	0.190	0.188
-153.662	-200.000	-0.060	-0.342
-152.647	800.000	0.046	-0.153
-151.633	800.000	0.086	0.345
-150.618	12.562	0.097	-0.074
-149.604	800.000	-0.068	0.219
-148.589	-200.000	0.032	-0.156
-147.574	203.531	0.205	-0.313
-146.560	-23.525	0.172	0.102
-145.545	75.876	0.076	0.079
-144.531	-200.000	0.004	-0.036
-143.516	113.855	0.152	-0.183
-142.502	303.019	-0.228	0.417
-141.487	428.907	0.061	0.131
-140.472	-106.082	-0.213	-0.047
-139.458	351.020	0.154	-0.300
-138.443	-200.000	0.029	0.219
-137.429	-200.000	0.004	0.069
-136.414	-200.000	0.023	-0.109
-135.399	800.000	-0.043	0.122
-134.385	-6.642	-0.210	0.141
-133.370	132.656	0.201	0.256
-132.356	-175.335	-0.186	0.005
-131.341	171.675	-0.186	-0.264
-130.326	-106.208	0.180	-0.040
-129.312	800.000	0.104	0.305
-128.297	-200.000	0.045	0.248
-127.283	39.507	0.266	0.236
-126.268	23.752	0.098	-0.079
-125.253	-47.723	0.095	-0.045
-124.239	60.310	-0.300	-0.293
-123.224	-200.000	0.027	0.169
-122.210	-200.000	0.001	0.221
-121.195	264.207	0.052	0.090
-120.180	26.826	-0.063	0.052
-119.166	49.654	0.455	-0.423
-118.151	800.000	-0.036	-0.138
-117.137	554.972	0.142	-0.336
-116.122	-56.171	-0.004	0.002
-115.107	-200.000	-0.008	0.038
-114.093	98.299	0.107	0.122
-113.078	443.725	-0.025	-0.054
-112.064	28.950	-0.105	0.088
-111.049	-123.249	-0.199	0.031
-110.034	-180.004	0.381	0.008
-109.020	-200.000	-0.011	0.170
-108.005	-92.723	-0.259	0.072
-106.991	107.096	-0.163	0.191
-105.976	44.130	-0.128	-0.116
-104.962	800.000	-0.109	0.299
-103.947	51.835	-0.197	-0.185
-102.932	22.458	0.107	0.086
-101.918	122.705	0.095	-0.118
-100.903	-190.994	-0.245	-0.003
-99.889	83.342	0.096	-0.103
-98.874	-67.087	-0.042	0.016
-97.859	-18.484	-0.127	-0.078
-96.845	-16.512	-0.331	-0.207
-95.830	344.874	0.084	0.162
-94.816	-136.804	-0.103	0.012
-93.801	-74.738	0.342	-0.121
-92.786	-147.009	-0.220	-0.019
-91.772	-2.096	0.138	0.095
-90.757	6.805	-0.036	0.026
-89.743	140.003	0.138	0.180
-88.728	-200.000	0.007	-0.058
-87.713	-200.000	0.032	-0.435
-86.699	-64.166	-0.079	0.032
-85.684	-200.000	-0.027	0.216
-84.670	348.485	-0.053	-0.103
-83.655	-13.231	-0.366	-0.234
-82.640	113.074	0.033	0.039
-81.626	-103.017	-0.290	0.068
-80.611	465.995	-0.114	-0.251
-79.597	241.527	-0.127	0.210
-78.582	-59.682	0.376	0.159
-77.567	188.235	-0.050	0.074
-76.553	741.945	-0.100	-0.264
-75.538	-200.000	0.026	0.133
-74.524	-99.676	-0.273	-0.067
-73.509	-77.432	0.030	-0.010
-72.494	-200.000	0.022	-0.190
-71.480	-142.807	0.424	0.041
-70.465	71.618	-0.151	0.154
-69.451	-122.754	-0.171	0.027
-68.436	101.294	0.146	-0.168
-67.422	200.357	-0.181	0.274
-66.407	34.278	-0.061	-0.052
-65.392	649.462	0.062	-0.155
-64.378	175.424	-0.183	-0.262
-63.363	60.231	0.087	0.084
-62.349	494.325	-0.077	-0.174
-61.334	149.843	-0.596	-0.795
-60.319	133.693	0.660	0.840
-59.305	-200.000	-0.137	-0.945
-58.290	287.882	0.684	1.219
-57.276	-200.000	0.354	1.656
-56.261	-200.000	96.010	595.506
-55.246	566.035	1374.466	3281.362
-54.232	160.838	2552.288	3508.056
-53.217	113.528	2143.719	2561.722
-52.203	44.119	1604.972	1448.401
-51.188	35.790	1342.246	1161.240
-50.173	32.489	1301.091	1106.235
-49.159	54.539	1348.542	1278.889
-48.144	56.730	1364.984	1307.515
-47.130	35.828	1323.614	1145.167
-46.115	32.330	1306.298	1109.546
-45.100	32.103	1300.895	1103.581
-44.086	32.014	1298.686	1101.139
-43.071	32.105	1296.020	1099.367
-42.057	32.012	1294.372	1097.387
-41.042	32.060	1292.583	1096.102
-40.027	32.037	1290.973	1094.560
-39.013	32.093	1288.953	1093.130
-37.998	32.058	1287.562	1091.704
-36.984	32.172	1285.645	1090.700
-35.969	32.332	1283.692	1089.927
-34.954	32.255	1281.857	1087.880
-33.940	32.226	1280.467	1086.488
-32.925	32.245	1279.415	1085.661
-31.911	32.327	1277.662	1084.604
-30.896	32.181	1276.214	1082.491
-29.881	32.287	1274.787	1081.848
-28.867	32.307	1273.552	1080.869
-27.852	32.412	1272.115	1080.210
-26.838	32.358	1270.333	1078.345
-25.823	32.292	1269.577	1077.285
-24.809	32.227	1268.173	1075.677
-23.794	32.239	1266.823	1074.557
-22.779	32.232	1265.334	1073.214
-21.765	32.387	1264.343	1073.216
-20.750	32.334	1262.823	1071.576
-19.736	32.134	1261.719	1069.461
-18.721	32.155	1260.357	1068.384
-17.706	32.066	1259.324	1066.961
-16.692	32.111	1258.264	1066.274
-15.677	32.132	1256.910	1065.202
-14.663	32.080	1256.061	1064.145
-13.648	32.169	1254.377	1063.185
-12.633	32.090	1253.808	1062.211
-11.619	32.089	1253.211	1061.656
-10.604	32.170	1252.053	1061.092
-9.590	32.027	1251.316	1059.620
-8.575	32.070	1250.034	1058.730
-7.560	32.161	1249.151	1058.456
-6.546	32.045	1248.957	1057.598
-5.531	32.130	1247.493	1056.791
-4.517	32.030	1246.892	1055.677
-3.502	32.125	1245.944	1055.368
-2.487	32.026	1245.189	1054.133
-1.473	32.150	1240.875	1051.132
-0.458	30.684	1226.185	1030.530
0.556	27.070	1209.050	993.470
1.571	23.600	1214.761	978.974
2.586	22.842	1230.285	987.158
3.600	22.146	1219.534	974.589
4.615	15.790	1145.475	882.106
5.629	5.989	1069.089	775.035
6.644	1.945	1048.982	740.780
7.659	1.642	1046.736	737.658
8.673	1.488	1045.627	736.064
9.688	1.396	1043.998	734.411
10.702	1.795	1042.369	735.126
11.717	7.640	1051.205	769.668
12.731	17.953	1065.979	830.838
13.746	23.636	1072.563	863.630
14.761	24.765	1074.493	870.609
15.775	24.812	1074.553	870.809
16.790	24.645	1072.972	868.637
17.804	24.685	1072.211	868.141
18.819	24.831	1072.111	868.692
19.834	24.980	1071.878	869.148
20.848	24.922	1071.329	868.343
21.863	24.864	1071.010	867.730
22.877	24.802	1070.145	866.650
23.892	24.808	1069.780	866.309
24.907	24.922	1068.896	866.065
25.921	24.731	1067.867	864.234
26.936	24.806	1066.229	863.195
27.950	24.763	1064.822	861.772
28.965	24.639	1062.901	859.542
29.980	24.681	1061.722	858.714
30.994	25.096	1060.350	859.519
32.009	24.909	1059.584	857.929
33.023	24.731	1058.334	855.986
34.038	24.868	1057.397	855.807
35.053	24.891	1056.733	855.304
36.067	25.018	1056.120	855.342
37.082	25.024	1055.193	854.541
38.096	25.153	1054.783	854.751
39.111	25.066	1054.341	853.900
40.126	24.934	1052.789	851.942
41.140	24.676	1050.933	849.139
42.155	24.473	1049.534	846.971
43.169	24.475	1049.189	846.626
44.184	24.506	1047.678	845.476
45.199	24.508	1046.526	844.485
46.213	24.523	1046.080	844.120
47.228	24.715	1045.548	844.521
48.242	24.844	1044.081	843.871
49.257	24.907	1043.505	843.627
50.271	25.001	1042.971	843.563
51.286	25.113	1041.885	843.138
52.301	24.989	1041.238	841.957
53.315	24.801	1040.614	840.495
54.330	24.805	1039.602	839.620
55.344	24.954	1038.767	839.574
56.359	24.838	1037.788	838.164
57.374	24.539	1036.950	836.012
58.388	24.554	1036.378	835.548
59.403	24.567	1035.288	834.654
60.417	24.508	1034.563	833.721
61.432	24.523	1033.928	833.209
62.447	24.642	1033.532	833.368
63.461	24.544	1033.316	832.665
64.476	24.624	1031.498	831.498
65.490	24.512	1030.427	830.038
66.505	24.688	1029.980	830.423
67.520	24.625	1029.547	829.707
68.534	24.409	1028.205	827.551
69.549	24.020	1027.495	825.103
70.563	24.152	1026.561	824.893
71.578	24.112	1025.945	824.141
72.593	23.989	1024.672	822.477
73.607	24.176	1024.321	822.986
74.622	24.419	1024.057	823.821
75.636	24.397	1023.295	823.033
76.651	24.327	1022.530	822.022
77.666	24.270	1021.538	820.890
78.680	24.301	1021.277	820.750
79.695	24.350	1020.532	820.305
80.709	24.607	1019.205	820.344
81.724	24.472	1018.974	819.470
82.739	24.594	1017.816	819.025
83.753	24.898	1017.642	820.203
84.768	25.242	1016.865	821.081
85.782	25.324	1016.283	820.912
86.797	25.103	1015.357	819.084
87.812	25.009	1014.477	817.869
88.826	25.043	1013.672	817.304
89.841	25.220	1012.487	817.081
90.855	25.136	1011.926	816.174
91.870	25.157	1010.983	815.438
92.884	24.970	1010.049	813.765
93.899	24.977	1008.695	812.632
94.914	25.121	1008.121	812.752
95.928	25.003	1006.931	811.184
96.943	24.664	1005.818	808.685
97.957	24.452	1004.703	806.755
98.972	24.324	1003.689	805.292
99.987	24.572	1003.249	805.988
101.001	24.878	1002.293	806.526
102.016	24.905	1001.218	805.715
103.030	24.769	1000.589	804.523
104.045	24.770	998.984	803.168
105.060	24.414	999.101	801.592
106.074	24.785	997.807	802.144
107.089	24.998	997.174	802.521
108.103	24.922	996.055	801.207
109.118	24.639	994.846	798.899
110.133	24.800	993.827	798.730
111.147	24.351	993.255	796.199
112.162	24.334	992.129	795.147
113.176	24.551	991.766	795.753
114.191	24.479	990.935	794.697
115.206	24.143	989.511	791.990
116.220	24.302	988.913	792.147
117.235	24.302	988.384	791.655
118.249	24.306	987.343	790.769
119.264	24.184	986.583	789.549
120.279	24.242	985.813	789.118
121.293	24.439	984.826	789.129
122.308	24.389	984.410	788.506
123.322	24.324	982.995	787.017
124.337	24.100	981.832	785.030
125.352	23.589	980.029	781.270
126.366	23.644	979.368	780.912
127.381	24.344	979.392	783.941
128.395	24.715	978.979	785.171
129.410	24.839	978.270	785.076
130.424	24.839	977.198	784.149
131.439	24.882	976.204	783.469
132.454	24.755	975.474	782.256
133.468	24.739	974.374	781.238
134.483	24.931	973.448	781.265
135.497	24.967	973.159	781.118
136.512	24.998	972.427	780.598
137.527	25.165	971.570	780.567
138.541	25.057	970.667	779.301
139.556	25.085	969.824	778.679
140.570	25.154	969.383	778.555
141.585	25.187	968.227	777.702
142.600	25.079	967.507	776.585
143.614	25.320	966.397	776.669
144.629	25.370	965.631	776.199
145.643	25.251	964.502	774.711
146.658	25.128	963.511	773.315
147.673	25.048	961.902	771.611
148.687	24.898	961.169	770.312
149.702	24.757	960.360	768.990
150.716	24.723	959.430	768.029
151.731	24.937	959.002	768.538
152.746	25.178	958.316	768.954
153.760	25.359	957.484	768.995
154.775	25.252	957.313	768.331
155.789	25.298	956.086	767.472
156.804	25.274	954.964	766.402
157.819	25.348	954.205	766.042
158.833	25.373	953.891	765.826
159.848	25.386	952.880	765.005
160.862	25.079	951.984	762.912
161.877	25.230	950.695	762.451
162.892	25.288	949.993	762.068
163.906	25.222	948.407	760.446
164.921	25.102	948.209	759.714
165.935	25.226	947.355	759.485
166.950	25.299	946.278	758.865
167.964	25.240	945.512	757.934
168.979	25.165	944.289	756.570
169.994	25.034	943.427	755.261
171.008	25.171	943.377	755.729
172.023	25.410	942.095	755.642
173.037	25.011	941.541	753.456
174.052	24.889	940.578	752.103
175.067	24.946	939.801	751.655
176.081	25.180	938.840	751.800
177.096	24.943	938.654	750.595
178.110	24.620	937.573	748.309
179.125	24.600	936.668	747.439
180.140	24.734	936.534	747.824
181.154	24.786	936.488	747.940
182.169	24.955	936.509	748.595
183.183	25.261	935.865	749.293
184.198	25.140	934.453	747.593
185.213	25.219	933.606	747.177
186.227	25.227	933.583	747.125
187.242	25.147	932.978	746.243
188.256	25.244	932.104	745.882
189.271	25.365	931.594	745.910
190.286	24.988	930.358	743.291
191.300	24.453	928.609	739.610
192.315	23.402	927.452	734.272
193.329	23.519	926.998	734.331
194.344	24.488	927.701	738.837
195.359	25.133	927.221	741.056
196.373	25.177	926.967	740.969
197.388	25.015	926.348	739.737
198.402	25.075	925.964	739.613
199.417	25.200	924.829	739.157
200.432	24.891	924.254	737.359
201.446	24.730	923.325	735.890
202.461	24.827	922.814	735.816
203.475	24.040	920.366	730.570
204.490	23.065	919.244	725.616
205.504	24.131	919.449	730.086
206.519	24.609	920.202	732.581
207.534	24.656	919.654	732.271
208.548	25.124	919.391	733.914
209.563	24.860	918.597	732.136
210.577	24.935	917.837	731.771
211.592	25.352	917.660	733.270
212.607	25.438	916.437	732.577
213.621	25.357	915.974	731.814
214.636	25.321	915.079	730.889
215.650	25.220	914.344	729.825
216.665	25.401	914.016	730.235
217.680	25.332	913.145	729.195
218.694	24.922	912.163	726.682
219.709	24.764	911.273	725.268
220.723	25.073	911.180	726.379
221.738	25.097	910.663	726.003
222.753	25.036	909.787	724.993
223.767	25.115	909.583	725.084
224.782	25.391	909.075	725.733
225.796	25.467	908.430	725.459
226.811	24.778	906.875	721.374
227.826	24.274	905.097	717.868
228.840	24.452	905.057	718.488
229.855	24.520	904.198	718.016
230.869	23.963	903.480	715.145
231.884	24.423	903.336	716.817
232.899	25.080	903.843	719.794
233.913	24.992	903.079	718.768
234.928	24.926	902.397	717.897
235.942	24.904	901.773	717.251
236.957	24.474	901.435	715.197
237.972	24.659	900.592	715.206
238.986	24.816	899.896	715.216
240.001	24.886	899.265	714.930
241.015	25.069	898.481	714.975
242.030	25.143	898.196	714.978
243.045	25.058	898.164	714.553
244.059	25.232	897.780	714.877
245.074	25.092	896.534	713.262
246.088	24.871	895.187	711.249
247.103	25.021	894.980	711.620
248.117	25.709	895.150	714.425
249.132	25.856	894.960	714.791
250.147	25.858	894.584	714.436
251.161	26.126	893.799	714.809
252.176	25.818	893.478	713.266
253.190	26.080	893.081	713.926
254.205	26.221	892.125	713.653
255.220	26.184	891.436	712.892
256.234	25.935	890.818	711.356
257.249	26.093	889.997	711.260
258.263	26.060	889.170	710.406
259.278	26.057	888.991	710.188
260.293	26.112	888.262	709.759
261.307	25.954	887.345	708.343
262.322	25.750	886.484	706.791
263.336	24.881	884.964	702.109
264.351	23.958	883.334	697.139
265.366	24.029	883.019	697.106
266.380	25.273	883.455	702.260
267.395	25.657	882.808	703.187
268.409	25.584	882.253	702.395
269.424	25.802	881.743	702.779
270.439	25.891	881.239	702.663
271.453	25.754	880.936	701.824
272.468	25.962	880.304	702.069
273.482	26.162	880.041	702.576
274.497	25.608	878.686	699.277
275.512	25.359	877.901	697.623
276.526	25.781	877.640	698.992
277.541	25.861	877.319	698.985
278.555	25.512	877.105	697.399
279.570	25.455	876.396	696.553
280.585	25.729	875.094	696.518
281.599	25.735	874.225	695.787
282.614	25.050	873.382	692.411
283.628	25.179	872.823	692.402
284.643	25.504	872.669	693.473
285.657	25.094	871.308	690.752
286.672	24.848	870.298	688.942
287.687	25.416	870.905	691.551
288.701	25.580	869.952	691.364
289.716	25.079	869.003	688.622
290.730	25.085	868.638	688.297
291.745	24.801	867.435	686.191
292.760	25.170	867.078	687.262
293.774	26.026	867.914	691.147
294.789	26.360	867.781	692.258
295.803	26.332	867.169	691.601
296.818	26.475	866.491	691.549
297.833	26.113	865.181	689.059
298.847	25.738	864.681	687.167
299.862	26.184	864.574	688.725
300.876	26.470	864.058	689.343
301.891	26.396	863.286	688.383
302.906	25.864	862.564	685.722
303.920	26.069	862.222	686.171
304.935	26.385	862.227	687.313
305.949	26.177	861.093	685.562
306.964	26.110	860.404	684.698
307.979	25.996	860.311	684.129
308.993	26.536	859.924	685.807
310.008	26.441	859.737	685.239
311.022	26.311	858.404	683.624
312.037	26.136	857.762	682.389
313.052	25.994	856.451	680.752
314.066	24.987	855.385	676.044
315.081	24.570	854.761	673.919
316.095	25.542	854.944	677.670
317.110	25.829	855.109	678.824
318.125	25.060	853.365	674.484
319.139	24.016	852.159	669.548
320.154	24.105	851.698	669.461
321.168	24.917	852.100	672.767
322.183	25.724	852.128	675.760
323.197	26.031	851.629	676.458
324.212	25.998	851.358	676.060
325.227	26.100	850.740	675.891
326.241	25.963	850.266	674.941
327.256	25.762	849.897	673.839
328.270	25.691	849.289	673.031
329.285	25.464	848.166	671.231
330.300	25.396	847.068	670.051
331.314	25.826	846.733	671.329
332.329	26.134	847.105	672.712
333.343	26.270	846.534	672.707
334.358	26.118	846.377	671.957
335.373	26.220	846.160	672.104
336.387	26.555	845.866	673.059
337.402	26.668	845.774	673.344
338.416	26.674	845.097	672.769
339.431	26.789	844.868	672.952
340.446	26.735	844.890	672.711
341.460	26.646	844.179	671.754
342.475	26.593	843.294	670.795
343.489	26.579	843.468	670.821
344.504	26.858	843.178	671.565
345.519	27.060	842.492	671.707
346.533	27.147	841.831	671.441
347.548	26.979	841.446	670.455
348.562	27.004	840.839	670.002
349.577	26.967	840.425	669.479
350.592	27.004	839.415	668.751
351.606	26.981	838.836	668.144
352.621	26.749	838.187	666.716
353.635	26.767	837.161	665.907
354.650	26.080	835.605	662.090
355.665	25.148	834.622	657.837
356.679	25.626	834.277	659.258
357.694	25.900	833.724	659.766
358.708	25.987	833.144	659.567
359.723	26.155	833.396	660.320
360.738	26.669	832.716	661.604
361.752	26.795	832.207	661.602
362.767	27.072	832.137	662.497
363.781	27.360	831.572	663.039
364.796	27.353	831.197	662.654
365.810	27.441	830.806	662.604
366.825	27.455	830.540	662.383
367.840	27.083	829.594	660.219
368.854	26.607	828.858	657.846
369.869	26.732	828.569	658.014
370.883	26.724	828.105	657.558
371.898	26.648	827.628	656.845
372.913	26.852	827.378	657.327
373.927	26.884	826.956	657.049
374.942	27.088	826.230	657.153
375.956	27.077	825.987	656.863
376.971	27.364	825.410	657.382
377.986	27.354	825.253	657.161
379.000	27.412	824.494	656.707
380.015	27.242	823.769	655.460
381.029	27.207	823.399	654.982
382.044	27.382	822.612	654.929
383.059	27.366	822.359	654.613
384.073	27.404	821.972	654.382
385.088	27.349	821.012	653.361
386.102	27.078	820.289	651.756
387.117	27.111	819.588	651.261
388.132	26.860	818.477	649.423
389.146	26.392	817.682	647.058
390.161	26.655	818.071	648.252
391.175	27.156	817.626	649.630
392.190	26.761	816.629	647.373
393.205	25.452	814.287	640.792
394.219	23.989	812.535	634.148
395.234	23.763	812.557	633.302
396.248	25.371	814.336	640.373
397.263	26.668	815.171	645.597
398.278	26.721	814.477	645.182
399.292	26.587	814.045	644.303
400.307	26.555	813.606	643.786
401.321	26.774	812.704	643.795
402.336	27.182	812.623	645.121
403.350	27.497	812.917	646.416
404.365	27.805	812.425	647.059
405.380	28.028	812.049	647.491
406.394	28.077	811.756	647.376
407.409	28.021	810.916	646.448
408.423	28.009	810.798	646.255
409.438	28.064	810.647	646.273
410.453	28.113	809.804	645.716
411.467	28.034	809.487	645.126
412.482	28.096	808.906	644.824
413.496	28.107	808.603	644.567
414.511	28.153	808.165	644.323
415.526	28.151	807.936	644.076
416.540	27.970	807.486	643.022
417.555	27.753	806.684	641.563
418.569	27.812	806.295	641.406
419.584	27.863	805.458	640.860
420.599	27.608	804.769	639.362
421.613	110.496	1286.857	1460.086
422.628	95.399	1357.091	1460.190
