DTS Sentinel unit serial number:	SN413079Multiplexer serial number:	ORYXHardware model number:	OX4-SRSoftware version number:	ORYX F/W v4.00 Oryx Data Collector v3.7.2.0data status	okinstallation	princeton_trtdifferential loss correction	single-endedforward channel	channel 1reverse channel	N/Adate	2019/09/11time	01:56:11forward acquisition time	60.00reverse acquisition time	0.00gamma	496.2192k internal	0.2332k external	0.2332temperature offset calibration	0.9928default loss term (dB/km)	0.3790temperature slope calibration	1.0000multiplexer offset coefficient	1.0000multiplexer slope coefficient	1.0000fibre end	0.00T internal ref (°C)	29.19T ext. ref 1 (°C)	-0.31T ext. ref 2 (°C)	23.35length (m)	temperature (°C)	Stokes	anti-Stokes-747.200	-200.000	-0.038	-0.232
-746.185	-38.531	0.085	-0.045
-745.171	-47.874	0.393	0.192
-744.156	-200.000	-0.083	-0.381
-743.142	131.306	0.097	-0.126
-742.127	-51.861	0.239	0.112
-741.112	39.263	-0.111	0.100
-740.098	425.528	-0.065	0.142
-739.083	409.613	-0.057	0.121
-738.069	800.000	0.030	0.125
-737.054	-192.885	0.171	0.002
-736.039	-44.551	-0.300	0.151
-735.025	800.000	0.066	0.248
-734.010	-109.288	0.116	-0.025
-732.996	-2.805	-0.165	-0.116
-731.981	35.094	-0.149	-0.131
-730.966	-87.614	-0.133	-0.040
-729.952	-200.000	-0.031	-0.150
-728.937	-78.715	-0.151	-0.052
-727.923	-18.102	0.114	0.072
-726.908	47.109	0.107	0.100
-725.894	-21.531	-0.141	0.086
-724.879	295.300	0.037	-0.067
-723.864	-74.038	-0.097	-0.035
-722.850	-104.926	-0.188	-0.043
-721.835	44.627	0.372	-0.344
-720.821	-30.486	-0.155	0.088
-719.806	106.439	0.119	-0.141
-718.791	-110.849	0.193	-0.040
-717.777	-47.628	-0.223	-0.109
-716.762	-29.271	0.169	0.097
-715.748	-192.121	0.116	0.001
-714.733	-71.334	-0.208	-0.078
-713.718	6.072	0.169	0.126
-712.704	800.000	-0.102	-0.317
-711.689	-11.171	0.228	-0.151
-710.675	-25.823	-0.236	0.140
-709.660	198.348	-0.055	-0.084
-708.645	14.978	-0.046	0.036
-707.631	-41.137	0.051	0.026
-706.616	-126.853	0.124	-0.018
-705.602	-200.000	0.040	-0.287
-704.587	-76.822	-0.094	0.033
-703.572	-47.044	-0.105	-0.051
-702.558	537.579	-0.092	-0.219
-701.543	800.000	-0.128	-0.459
-700.529	-156.767	-0.409	0.025
-699.514	524.891	0.036	0.085
-698.499	-51.646	-0.251	0.118
-697.485	-200.000	0.004	0.187
-696.470	230.408	-0.109	-0.178
-695.456	-44.833	0.069	0.035
-694.441	460.238	0.062	0.138
-693.426	-31.374	-0.160	-0.090
-692.412	-92.335	0.128	-0.036
-691.397	-200.000	0.060	-0.384
-690.383	-11.476	-0.228	0.150
-689.368	800.000	-0.091	0.385
-688.354	114.811	0.127	-0.156
-687.339	-200.000	0.001	-0.113
-686.324	-96.153	-0.078	0.021
-685.310	-99.588	0.336	-0.085
-684.295	182.547	-0.160	0.237
-683.281	-31.694	-0.262	0.148
-682.266	9.940	0.300	-0.228
-681.251	-200.000	0.010	0.116
-680.237	-78.141	0.240	-0.083
-679.222	800.000	0.056	-0.232
-678.208	-69.046	-0.141	-0.055
-677.193	76.465	0.098	-0.104
-676.178	110.935	0.220	-0.266
-675.164	161.834	0.163	0.229
-674.149	-9.806	-0.198	0.132
-673.135	450.355	-0.104	-0.231
-672.120	-29.771	0.175	-0.100
-671.105	-200.000	0.006	0.115
-670.091	-54.835	-0.039	0.018
-669.076	-200.000	0.023	-0.124
-668.062	-128.687	0.112	-0.016
-667.047	-38.716	0.125	-0.066
-666.032	1.115	-0.181	-0.130
-665.018	19.236	0.112	-0.090
-664.003	182.503	-0.051	0.075
-662.989	-200.000	-0.041	0.235
-661.974	-15.809	0.163	-0.104
-660.959	-200.000	-0.028	-0.278
-659.945	-160.158	-0.263	-0.014
-658.930	-35.548	-0.100	0.054
-657.916	-200.000	0.075	-0.351
-656.901	-101.768	0.294	-0.071
-655.886	526.186	-0.095	-0.223
-654.872	180.235	-0.145	0.213
-653.857	-86.756	0.203	0.062
-652.843	-17.122	-0.361	-0.228
-651.828	-200.000	-0.005	-0.037
-650.814	-61.499	0.192	0.081
-649.799	92.748	0.159	-0.179
-648.784	-200.000	-0.036	-0.209
-647.770	-124.260	0.127	0.020
-646.755	-41.711	0.130	0.067
-645.741	-200.000	-0.023	-0.188
-644.726	-200.000	0.000	0.046
-643.711	-56.314	0.119	0.053
-642.697	-200.000	0.013	0.238
-641.682	-200.000	0.005	-0.120
-640.668	-21.478	-0.183	-0.112
-639.653	-200.000	0.051	-0.382
-638.638	394.455	-0.080	0.167
-637.624	-200.000	-0.058	0.325
-636.609	-135.056	0.184	0.022
-635.595	-200.000	-0.015	0.262
-634.580	-109.251	-0.252	0.054
-633.565	800.000	0.026	0.109
-632.551	-78.048	0.450	0.155
-631.536	-73.063	-0.148	0.054
-630.522	-10.066	0.070	-0.046
-629.507	328.291	-0.090	-0.174
-628.492	-200.000	0.005	-0.203
-627.478	-122.963	-0.036	-0.006
-626.463	-200.000	-0.006	-0.150
-625.449	-142.044	0.178	0.018
-624.434	-134.117	-0.332	-0.041
-623.419	-74.209	-0.400	-0.145
-622.405	-200.000	0.003	0.111
-621.390	800.000	0.012	-0.041
-620.376	-84.262	-0.079	0.025
-619.361	114.459	-0.090	0.109
-618.346	-42.507	0.048	0.025
-617.332	650.203	-0.118	-0.304
-616.317	113.022	-0.050	-0.061
-615.303	-200.000	-0.021	0.103
-614.288	-200.000	-0.035	0.251
-613.273	-200.000	0.027	0.424
-612.259	11.873	-0.301	0.231
-611.244	260.684	-0.216	-0.374
-610.230	800.000	0.069	0.270
-609.215	800.000	0.051	-0.175
-608.201	-159.668	0.023	0.001
-607.186	596.018	0.111	-0.275
-606.171	-40.024	0.273	-0.143
-605.157	111.317	0.097	-0.117
-604.142	221.262	0.089	0.143
-603.128	8.299	0.136	0.102
-602.113	-12.459	-0.182	0.119
-601.098	-69.126	-0.496	0.191
-600.084	-10.143	0.367	-0.244
-599.069	-107.369	0.114	-0.025
-598.055	13.339	0.247	-0.191
-597.040	800.000	0.052	0.226
-596.025	800.000	0.063	-0.250
-595.011	49.622	0.227	0.214
-593.996	93.814	0.057	0.064
-592.982	777.267	-0.119	0.326
-591.967	19.604	0.116	0.093
-590.952	-176.553	0.545	-0.014
-589.938	-200.000	0.014	0.191
-588.923	-87.269	0.137	0.042
-587.909	-200.000	0.004	0.065
-586.894	-200.000	0.039	0.328
-585.879	214.588	-0.012	-0.018
-584.865	520.753	0.039	-0.092
-583.850	98.125	0.124	0.143
-582.836	-113.414	-0.450	-0.088
-581.821	-24.880	-0.195	0.116
-580.806	-57.979	-0.217	0.095
-579.792	238.554	0.162	-0.269
-578.777	504.659	-0.086	-0.199
-577.763	-190.498	0.322	-0.003
-576.748	-118.605	0.296	0.052
-575.733	477.256	0.097	-0.218
-574.719	800.000	0.071	-0.267
-573.704	173.747	-0.088	-0.127
-572.690	-44.352	-0.111	0.056
-571.675	-36.457	-0.233	0.125
-570.661	-78.559	-0.199	0.068
-569.646	376.600	-0.027	0.056
-568.631	131.932	0.184	0.237
-567.617	-200.000	0.005	-0.069
-566.602	114.828	-0.180	0.219
-565.588	622.558	-0.052	-0.131
-564.573	-57.137	0.131	0.058
-563.558	222.308	-0.038	0.061
-562.544	-75.427	-0.236	0.084
-561.529	13.523	0.111	-0.086
-560.515	-200.000	-0.014	0.199
-559.500	236.717	0.188	-0.311
-558.485	344.993	0.051	0.100
-557.471	-43.350	0.154	-0.078
-556.456	-14.790	0.208	-0.134
-555.442	-147.105	-0.211	-0.018
-554.427	22.736	-0.326	-0.267
-553.412	-117.590	-0.322	-0.058
-552.398	49.070	0.214	-0.201
-551.383	-75.710	0.331	-0.117
-550.369	646.392	0.074	-0.189
-549.354	-200.000	-0.006	-0.176
-548.339	-200.000	0.028	-0.189
-547.325	-49.376	0.118	-0.056
-546.310	-200.000	0.032	0.255
-545.296	-200.000	-0.000	-0.257
-544.281	-200.000	0.030	0.171
-543.266	568.597	-0.100	0.242
-542.252	20.677	0.081	0.065
-541.237	74.621	0.030	0.032
-540.223	217.095	-0.023	-0.037
-539.208	800.000	0.062	-0.258
-538.193	140.454	0.066	0.087
-537.179	-92.979	0.302	0.084
-536.164	-135.151	-0.170	-0.020
-535.150	598.686	-0.133	-0.329
-534.135	-186.714	-0.090	-0.001
-533.121	147.219	-0.301	0.404
-532.106	-200.000	-0.011	-0.207
-531.091	27.466	0.106	-0.089
-530.077	89.958	-0.158	0.177
-529.062	82.829	-0.072	0.078
-528.048	167.399	0.160	-0.227
-527.033	3.887	-0.193	0.141
-526.018	167.338	-0.059	0.084
-525.004	-136.311	-0.244	0.028
-523.989	-112.289	-0.194	-0.039
-522.975	-200.000	0.026	0.201
-521.960	-86.760	-0.225	-0.069
-520.945	217.490	-0.019	0.031
-519.931	656.908	-0.090	-0.231
-518.916	103.097	-0.139	0.162
-517.902	-200.000	0.005	-0.029
-516.887	-20.324	-0.202	0.124
-515.872	15.113	-0.121	0.094
-514.858	377.382	-0.069	0.140
-513.843	-109.185	-0.129	0.027
-512.829	336.560	-0.175	0.340
-511.814	13.110	-0.209	0.161
-510.799	-200.000	0.011	0.089
-509.785	126.526	-0.063	0.079
-508.770	107.120	0.093	-0.111
-507.756	800.000	-0.091	-0.357
-506.741	52.902	-0.214	0.204
-505.726	-200.000	-0.025	0.176
-504.712	217.164	-0.080	0.127
-503.697	-47.685	-0.090	0.044
-502.683	-200.000	-0.059	-0.276
-501.668	59.011	-0.224	0.219
-500.653	20.307	-0.050	0.040
-499.639	-200.000	-0.010	0.170
-498.624	-200.000	-0.003	0.211
-497.610	-17.633	0.151	-0.094
-496.595	-90.886	0.252	0.072
-495.581	668.761	-0.090	0.232
-494.566	-148.953	-0.136	0.011
-493.551	-146.278	0.120	-0.010
-492.537	618.565	0.056	-0.139
-491.522	-21.914	0.188	0.114
-490.508	641.962	-0.041	0.105
-489.493	-84.401	0.079	-0.025
-488.478	-90.139	-0.048	0.014
-487.464	-200.000	0.001	-0.318
-486.449	405.117	-0.149	0.313
-485.435	-71.620	0.235	0.087
-484.420	790.612	-0.056	-0.153
-483.405	-84.036	0.174	0.055
-482.391	526.148	-0.080	0.188
-481.376	-91.631	0.023	0.007
-480.362	-24.499	-0.328	-0.195
-479.347	800.000	-0.046	0.147
-478.332	800.000	0.041	-0.143
-477.318	-53.000	0.122	-0.056
-476.303	465.195	0.040	0.088
-475.289	95.152	0.126	0.143
-474.274	-1.574	0.166	0.117
-473.259	-71.081	-0.242	0.091
-472.245	31.969	0.252	-0.216
-471.230	-16.275	-0.328	0.207
-470.216	-137.704	-0.310	-0.035
-469.201	12.810	-0.155	-0.119
-468.186	-126.552	0.214	0.032
-467.172	87.925	0.289	0.319
-466.157	-141.840	-0.405	0.040
-465.143	294.167	0.096	-0.174
-464.128	616.000	-0.046	0.115
-463.113	74.137	0.261	0.273
-462.099	-200.000	-0.016	-0.561
-461.084	800.000	0.030	-0.103
-460.070	-56.389	0.093	-0.041
-459.055	235.726	0.031	0.051
-458.040	-66.414	-0.073	0.029
-457.026	800.000	0.086	0.346
-456.011	52.222	0.089	0.085
-454.997	-91.303	-0.110	-0.031
-453.982	-103.319	-0.212	-0.050
-452.968	-104.294	0.085	0.020
-451.953	-15.234	-0.152	-0.097
-450.938	-200.000	-0.019	-0.254
-449.924	-81.988	0.186	-0.060
-448.909	800.000	-0.105	0.459
-447.895	800.000	0.100	-0.381
-446.880	-40.941	0.058	-0.030
-445.865	493.932	0.048	-0.109
-444.851	150.897	-0.085	-0.115
-443.836	-200.000	0.032	0.219
-442.822	-18.392	0.268	-0.167
-441.807	-159.138	0.097	0.005
-440.792	736.062	0.104	-0.277
-439.778	-57.261	0.203	-0.089
-438.763	-200.000	0.050	-0.272
-437.749	-200.000	-0.002	0.192
-436.734	218.618	-0.218	0.347
-435.719	-47.958	0.169	-0.081
-434.705	169.736	-0.069	-0.098
-433.690	303.999	-0.044	0.081
-432.676	-81.429	0.348	0.114
-431.661	-170.291	0.244	-0.009
-430.646	-200.000	0.020	0.220
-429.632	0.908	-0.234	0.167
-428.617	-200.000	-0.057	-0.275
-427.603	39.532	0.110	-0.098
-426.588	-122.977	-0.154	-0.025
-425.573	476.897	-0.253	0.568
-424.559	406.504	0.107	0.225
-423.544	800.000	-0.057	-0.157
-422.530	-165.110	-0.116	-0.005
-421.515	211.060	-0.178	-0.278
-420.500	-189.157	-0.244	0.003
-419.486	-79.805	0.248	-0.083
-418.471	-42.999	0.265	-0.133
-417.457	165.317	0.063	0.089
-416.442	-179.738	-0.135	-0.003
-415.428	800.000	-0.059	-0.199
-414.413	66.805	-0.113	0.114
-413.398	214.267	-0.037	0.059
-412.384	-200.000	0.004	0.046
-411.369	-200.000	0.028	-0.289
-410.355	-97.099	0.233	0.060
-409.340	257.475	-0.160	0.274
-408.325	-138.521	-0.103	-0.011
-407.311	40.541	0.208	-0.186
-406.296	292.120	0.176	0.319
-405.282	8.386	-0.172	-0.129
-404.267	307.945	-0.028	-0.051
-403.252	-40.579	-0.052	0.027
-402.238	-63.579	-0.116	-0.047
-401.223	800.000	-0.040	0.145
-400.209	-200.000	0.031	0.462
-399.194	-200.000	0.039	0.325
-398.179	-200.000	0.008	-0.131
-397.165	800.000	-0.079	0.227
-396.150	-18.381	0.128	-0.079
-395.136	-200.000	-0.001	-0.022
-394.121	-48.334	-0.162	-0.077
-393.106	-200.000	-0.001	-0.124
-392.092	-200.000	-0.015	-0.304
-391.077	136.759	0.172	-0.223
-390.063	-89.571	-0.024	-0.007
-389.048	800.000	0.064	0.226
-388.033	115.173	0.118	-0.143
-387.019	800.000	-0.013	-0.040
-386.004	-44.193	-0.197	0.098
-384.990	-31.578	0.242	0.135
-383.975	-65.350	0.380	0.151
-382.960	499.926	0.079	-0.180
-381.946	-200.000	0.014	-0.111
-380.931	-141.179	-0.297	0.030
-379.917	95.660	0.165	0.187
-378.902	722.547	-0.101	0.267
-377.888	-125.214	-0.155	-0.024
-376.873	-152.368	-0.173	-0.012
-375.858	-73.241	0.332	0.120
-374.844	-99.859	0.085	-0.021
-373.829	70.640	-0.231	0.237
-372.815	30.884	0.154	-0.131
-371.800	-46.523	-0.209	0.102
-370.785	800.000	-0.072	0.300
-369.771	-167.049	0.310	-0.013
-368.756	8.301	0.229	0.170
-367.742	-0.289	-0.212	0.149
-366.727	88.884	0.123	0.135
-365.712	93.135	-0.182	-0.204
-364.698	652.891	-0.116	0.295
-363.683	84.745	0.178	0.193
-362.669	-143.458	-0.045	0.004
-361.654	256.409	-0.111	-0.188
-360.639	-65.285	0.081	-0.032
-359.625	79.462	-0.109	-0.116
-358.610	212.307	-0.081	-0.127
-357.596	717.801	0.117	-0.309
-356.581	102.426	0.208	-0.241
-355.566	-200.000	-0.014	-0.173
-354.552	289.124	0.191	0.342
-353.537	96.609	0.207	0.235
-352.523	41.085	-0.047	0.042
-351.508	-200.000	-0.059	-0.527
-350.493	-200.000	0.052	0.261
-349.479	-200.000	-0.047	-0.263
-348.464	-200.000	-0.026	-0.188
-347.450	346.797	-0.040	-0.078
-346.435	-24.193	-0.150	-0.089
-345.420	-44.039	0.122	-0.060
-344.406	163.319	0.137	0.191
-343.391	800.000	0.030	-0.112
-342.377	-200.000	-0.067	-0.314
-341.362	800.000	0.017	-0.057
-340.348	68.963	-0.179	0.182
-339.333	798.753	0.048	0.130
-338.318	13.393	-0.049	0.037
-337.304	-22.583	0.132	-0.079
-336.289	186.226	0.117	-0.172
-335.275	9.780	0.156	-0.117
-334.260	-156.424	0.232	-0.014
-333.245	204.004	-0.110	0.169
-332.231	-200.000	0.103	0.493
-331.216	58.550	-0.156	0.151
-330.202	-78.027	-0.277	0.094
-329.187	-200.000	-0.049	0.241
-328.172	-200.000	-0.029	0.269
-327.158	245.687	-0.057	0.095
-326.143	-200.000	0.017	0.178
-325.129	800.000	0.006	-0.026
-324.114	800.000	0.040	-0.159
-323.099	-96.322	0.271	-0.071
-322.085	77.521	0.142	-0.150
-321.070	-10.667	-0.036	-0.024
-320.056	-67.878	0.151	0.058
-319.041	602.826	-0.190	-0.466
-318.026	-116.220	0.248	-0.045
-317.012	92.473	0.108	0.121
-315.997	30.463	-0.262	-0.221
-314.983	-147.195	0.122	0.010
-313.968	-129.072	0.185	0.026
-312.953	444.383	0.121	-0.262
-311.939	-39.314	0.122	-0.063
-310.924	-17.519	-0.244	-0.152
-309.910	-161.648	0.465	-0.024
-308.895	494.384	0.032	0.073
-307.880	13.283	0.368	-0.282
-306.866	-36.957	-0.341	0.181
-305.851	563.731	-0.044	0.105
-304.837	523.826	0.035	-0.080
-303.822	-200.000	0.095	-0.414
-302.807	56.676	-0.188	-0.181
-301.793	-28.902	-0.342	-0.195
-300.778	8.821	-0.202	-0.151
-299.764	-8.745	-0.327	0.217
-298.749	185.862	-0.187	0.275
-297.735	5.776	-0.193	0.141
-296.720	800.000	-0.008	-0.034
-295.705	432.430	-0.090	0.193
-294.691	-113.200	0.382	-0.074
-293.676	-44.646	-0.256	0.126
-292.662	-166.200	0.204	0.009
-291.647	148.235	0.173	-0.231
-290.632	-200.000	-0.027	0.142
-289.618	-126.023	0.143	0.021
-288.603	-130.200	-0.127	0.017
-287.589	-31.410	0.299	0.166
-286.574	-111.506	0.043	0.009
-285.559	-200.000	-0.045	-0.484
-284.545	-200.000	0.065	-0.293
-283.530	-29.456	0.138	0.078
-282.516	-24.028	-0.191	-0.113
-281.501	-200.000	0.022	-0.192
-280.486	-24.395	-0.478	0.282
-279.472	-15.797	0.272	0.171
-278.457	514.677	-0.134	-0.308
-277.443	316.350	-0.149	0.277
-276.428	800.000	0.077	-0.310
-275.413	-35.405	-0.288	-0.155
-274.399	-148.854	-0.109	0.009
-273.384	294.535	0.009	0.017
-272.370	118.970	0.233	-0.284
-271.355	-63.404	-0.091	-0.037
-270.340	-200.000	0.009	-0.130
-269.326	-133.871	0.129	-0.016
-268.311	-45.232	0.140	-0.069
-267.297	-109.079	0.224	0.047
-266.282	110.808	0.058	0.069
-265.267	7.263	-0.133	0.098
-264.253	-200.000	-0.025	-0.245
-263.238	-20.112	0.132	-0.080
-262.224	-145.734	0.299	-0.026
-261.209	395.173	0.095	-0.195
-260.195	-200.000	-0.034	0.203
-259.180	560.251	-0.100	0.240
-258.165	-160.057	-0.264	0.014
-257.151	-46.656	0.147	0.071
-256.136	-128.317	-0.033	-0.005
-255.122	-127.484	-0.089	0.013
-254.107	297.010	-0.070	0.126
-253.092	800.000	0.134	0.385
-252.078	33.991	-0.122	-0.105
-251.063	88.312	0.200	0.219
-250.049	800.000	0.068	-0.225
-249.034	-61.852	0.260	0.107
-248.019	294.500	0.230	-0.414
-247.005	111.786	0.071	0.084
-245.990	49.446	-0.259	-0.240
-244.976	354.763	0.160	-0.314
-243.961	-200.000	-0.029	0.222
-242.946	-4.701	-0.061	0.042
-241.932	32.989	0.191	0.164
-240.917	56.435	-0.367	-0.352
-239.903	-13.102	-0.182	0.117
-238.888	157.716	0.069	0.094
-237.873	261.033	0.166	-0.284
-236.859	-180.239	-0.262	0.005
-235.844	20.864	0.199	-0.159
-234.830	126.271	-0.090	0.112
-233.815	-62.573	0.181	-0.074
-232.800	-27.665	0.156	-0.089
-231.786	-200.000	-0.008	0.403
-230.771	183.139	0.038	0.055
-229.757	157.602	-0.162	0.222
-228.742	-200.000	0.046	-0.256
-227.727	-92.621	-0.231	-0.064
-226.713	-21.936	-0.061	-0.036
-225.698	-128.375	-0.169	0.024
-224.684	-89.611	0.077	0.022
-223.669	-200.000	-0.028	-0.170
-222.655	-200.000	-0.003	-0.230
-221.640	-192.395	0.120	-0.001
-220.625	-200.000	-0.015	-0.066
-219.611	335.624	-0.124	0.236
-218.596	-200.000	0.007	-0.290
-217.582	68.913	0.067	0.068
-216.567	-105.850	-0.061	0.014
-215.552	536.508	-0.125	-0.293
-214.538	-120.674	-0.139	-0.023
-213.523	12.820	-0.173	0.132
-212.509	-184.532	-0.414	0.007
-211.494	-111.860	-0.056	0.011
-210.479	-200.000	0.007	0.252
-209.465	-200.000	-0.019	0.406
-208.450	-24.981	-0.119	0.070
-207.436	-72.920	0.265	0.096
-206.421	33.415	0.204	-0.175
-205.406	-27.669	0.220	-0.126
-204.392	-130.669	0.134	0.018
-203.377	41.527	0.036	-0.032
-202.363	-200.000	-0.010	-0.235
-201.348	39.348	0.231	0.203
-200.333	-200.000	-0.050	0.373
-199.319	-50.122	-0.051	0.024
-198.304	42.838	0.195	0.175
-197.290	-75.930	0.109	-0.038
-196.275	24.092	-0.045	0.037
-195.260	629.268	-0.156	0.388
-194.246	-122.678	-0.258	-0.041
-193.231	-47.086	-0.270	0.130
-192.217	113.275	-0.202	0.241
-191.202	139.755	0.071	0.092
-190.187	248.302	-0.286	-0.477
-189.173	235.456	-0.066	-0.107
-188.158	-196.036	0.183	0.001
-187.144	-180.187	-0.326	0.007
-186.129	-91.681	-0.326	-0.091
-185.114	-67.261	0.181	-0.070
-184.100	-119.655	-0.208	-0.035
-183.085	-108.000	-0.046	0.010
-182.071	675.825	-0.065	0.165
-181.056	93.316	-0.033	-0.037
-180.042	-26.176	0.219	-0.126
-179.027	-170.047	0.176	-0.006
-178.012	-93.870	-0.365	0.099
-176.998	-172.375	0.083	0.003
-175.983	-63.982	0.147	-0.059
-174.969	-75.878	0.077	0.027
-173.954	-60.615	0.250	-0.105
-172.939	-200.000	-0.044	-0.240
-171.925	800.000	0.051	0.173
-170.910	49.634	0.284	0.263
-169.896	-106.406	0.027	0.006
-168.881	-59.621	0.100	-0.042
-167.866	-14.349	-0.135	0.086
-166.852	-98.365	0.218	-0.055
-165.837	-200.000	0.029	-0.187
-164.823	-120.965	0.223	0.037
-163.808	-22.496	0.303	-0.180
-162.793	-98.317	-0.064	0.016
-161.779	-200.000	-0.016	-0.177
-160.764	-200.000	-0.084	-0.376
-159.750	-152.558	-0.239	-0.017
-158.735	-152.993	0.104	-0.007
-157.720	-200.000	0.010	-0.434
-156.706	135.011	-0.166	-0.212
-155.691	-125.906	-0.151	-0.022
-154.677	800.000	0.076	0.221
-153.662	-56.964	0.186	-0.081
-152.647	139.260	0.194	0.251
-151.633	71.993	-0.207	-0.211
-150.618	800.000	-0.028	0.100
-149.604	-100.729	0.227	0.055
-148.589	800.000	-0.015	-0.054
-147.574	73.930	-0.287	-0.296
-146.560	-107.099	0.297	0.064
-145.545	82.351	-0.147	0.157
-144.531	6.047	0.127	-0.092
-143.516	-70.147	-0.329	0.123
-142.502	-65.756	-0.223	0.088
-141.487	-200.000	0.064	0.304
-140.472	-125.353	-0.130	-0.020
-139.458	52.567	0.091	-0.086
-138.443	-74.961	-0.133	0.047
-137.429	-200.000	-0.002	-0.165
-136.414	-167.327	0.201	-0.008
-135.399	-14.345	-0.154	-0.098
-134.385	298.407	-0.038	0.069
-133.370	-61.383	-0.196	0.081
-132.356	-58.762	-0.328	-0.139
-131.341	-200.000	-0.009	0.454
-130.326	-200.000	0.037	0.330
-129.312	-129.783	-0.224	0.030
-128.297	70.118	0.336	0.340
-127.283	-44.247	-0.163	-0.080
-126.268	-200.000	0.014	-0.143
-125.253	-200.000	0.013	-0.060
-124.239	800.000	-0.016	0.059
-123.224	-91.655	-0.132	-0.037
-122.210	372.518	0.189	-0.377
-121.195	-153.483	0.163	0.011
-120.180	-48.959	0.218	-0.102
-119.166	646.395	0.045	-0.112
-118.151	-66.239	-0.310	-0.121
-117.137	-200.000	-0.050	-0.265
-116.122	-200.000	-0.030	-0.275
-115.107	-52.816	-0.250	0.113
-114.093	121.627	0.122	0.150
-113.078	800.000	0.066	0.179
-112.064	55.235	-0.095	0.090
-111.049	347.806	-0.080	-0.155
-110.034	-30.881	0.226	-0.125
-109.020	-94.981	-0.256	0.068
-108.005	-98.958	0.237	0.059
-106.991	500.076	-0.172	0.390
-105.976	324.526	0.094	0.176
-104.962	43.608	-0.296	0.265
-103.947	358.422	-0.073	0.142
-102.932	800.000	-0.025	-0.083
-101.918	0.472	-0.233	0.163
-100.903	-200.000	-0.001	0.136
-99.889	73.617	-0.158	-0.162
-98.874	13.469	-0.224	-0.171
-97.859	37.289	0.058	-0.051
-96.845	-137.424	-0.116	-0.013
-95.830	-200.000	-0.041	-0.219
-94.816	-169.469	-0.109	-0.004
-93.801	-132.872	0.213	-0.027
-92.786	-80.225	-0.109	-0.036
-91.772	-17.270	0.079	0.049
-90.757	-200.000	-0.004	-0.181
-89.743	-200.000	0.021	-0.205
-88.728	137.268	0.065	-0.083
-87.713	-200.000	-0.030	-0.142
-86.699	-49.344	-0.406	0.190
-85.684	-12.011	0.175	0.112
-84.670	800.000	0.077	-0.285
-83.655	364.052	-0.162	-0.318
-82.640	2.149	-0.099	-0.070
-81.626	800.000	-0.120	0.391
-80.611	184.689	0.097	-0.141
-79.597	494.304	-0.112	-0.252
-78.582	32.859	-0.148	-0.126
-77.567	-103.415	0.492	-0.113
-76.553	-98.215	0.119	0.030
-75.538	-62.038	-0.093	0.038
-74.524	-53.715	0.435	-0.195
-73.509	-200.000	-0.043	0.267
-72.494	-124.422	0.160	0.024
-71.480	-200.000	-0.012	-0.205
-70.465	800.000	-0.043	0.122
-69.451	-81.856	0.267	0.086
-68.436	-77.171	0.100	0.034
-67.422	44.733	0.067	0.060
-66.407	-60.127	0.080	-0.033
-65.392	-109.568	0.087	0.018
-64.378	-200.000	-0.016	0.107
-63.363	686.450	-0.099	-0.254
-62.349	546.036	-0.191	-0.446
-61.334	80.982	-0.860	-0.910
-60.319	162.057	0.424	0.581
-59.305	233.589	-0.665	-1.072
-58.290	114.181	0.931	1.110
-57.276	-200.000	0.224	1.446
-56.261	-200.000	107.026	626.211
-55.246	522.200	1514.569	3482.729
-54.232	176.090	2704.445	3845.359
-53.217	112.026	2163.079	2559.336
-52.203	41.174	1600.427	1416.300
-51.188	32.643	1337.240	1132.363
-50.173	29.660	1295.862	1079.880
-49.159	53.999	1351.044	1271.793
-48.144	54.219	1366.185	1287.305
-47.130	32.858	1320.018	1118.874
-46.115	29.398	1302.574	1083.760
-45.100	29.235	1297.709	1078.718
-44.086	29.149	1295.157	1076.049
-43.071	28.906	1293.627	1073.314
-42.057	28.972	1291.123	1071.583
-41.042	29.118	1289.011	1070.634
-40.027	29.028	1287.832	1069.091
-39.013	29.063	1285.534	1067.344
-37.998	29.087	1283.806	1066.004
-36.984	29.181	1281.717	1064.769
-35.969	29.106	1280.614	1063.382
-34.954	29.203	1278.218	1061.906
-33.940	29.132	1277.522	1060.880
-32.925	29.289	1276.100	1060.559
-31.911	29.340	1274.427	1059.421
-30.896	29.207	1273.354	1057.721
-29.881	29.248	1271.737	1056.569
-28.867	29.298	1270.414	1055.718
-27.852	29.251	1268.844	1054.100
-26.838	29.286	1267.448	1053.103
-25.823	29.408	1265.502	1052.136
-24.809	29.204	1264.959	1050.481
-23.794	29.240	1264.149	1049.974
-22.779	29.202	1262.416	1048.275
-21.765	29.342	1260.816	1047.698
-20.750	29.248	1259.868	1046.337
-19.736	29.210	1258.404	1044.863
-18.721	29.246	1257.231	1044.051
-17.706	29.215	1255.981	1042.794
-16.692	29.195	1255.255	1042.041
-15.677	29.199	1254.051	1041.021
-14.663	29.250	1252.483	1039.966
-13.648	29.129	1251.535	1038.456
-12.633	29.088	1251.055	1037.785
-11.619	29.083	1250.094	1036.918
-10.604	29.182	1249.084	1036.594
-9.590	29.076	1248.198	1035.227
-8.575	29.104	1247.091	1034.425
-7.560	29.068	1246.683	1033.842
-6.546	29.104	1245.630	1033.128
-5.531	29.112	1244.896	1032.521
-4.517	29.200	1243.450	1031.779
-3.502	29.185	1242.934	1031.222
-2.487	29.140	1242.263	1030.373
-1.473	29.099	1238.220	1026.749
-0.458	27.801	1223.456	1007.307
0.556	22.094	1206.036	970.295
1.571	18.612	1211.997	955.642
2.586	18.030	1226.475	963.693
3.600	17.841	1215.807	954.167
4.615	13.025	1144.550	872.756
5.629	4.026	1070.388	771.456
6.644	-0.087	1050.696	737.049
7.659	-0.287	1047.923	734.064
8.673	-0.381	1046.832	732.775
9.688	-0.464	1045.580	731.426
10.702	-0.027	1044.022	732.403
11.717	5.645	1052.358	765.980
12.731	14.747	1065.176	820.119
13.746	19.289	1070.884	846.807
14.761	20.230	1071.952	852.202
15.775	20.274	1071.245	851.780
16.790	20.078	1070.335	850.019
17.804	19.902	1069.864	848.710
18.819	20.123	1069.267	849.245
19.834	20.137	1068.752	848.826
20.848	20.208	1068.613	848.990
21.863	20.180	1068.044	848.324
22.877	20.181	1067.193	847.579
23.892	20.115	1066.430	846.573
24.907	20.029	1066.039	845.772
25.921	20.147	1064.354	844.935
26.936	20.088	1063.470	843.872
27.950	20.089	1061.574	842.296
28.965	19.991	1059.615	840.193
29.980	20.121	1058.108	839.549
30.994	20.252	1056.917	839.168
32.009	20.127	1056.394	838.071
33.023	20.054	1054.470	836.119
34.038	20.106	1054.212	836.093
35.053	20.164	1053.649	835.850
36.067	20.214	1052.410	835.036
37.082	20.433	1051.405	835.215
38.096	20.529	1050.648	835.003
39.111	20.410	1050.364	834.131
40.126	20.275	1048.165	831.664
41.140	19.964	1046.908	829.103
42.155	19.801	1045.912	827.463
43.169	19.927	1044.830	827.134
44.184	19.846	1043.821	825.877
45.199	19.791	1042.053	824.145
46.213	19.803	1042.033	824.111
47.228	19.746	1041.143	823.065
48.242	19.966	1039.676	822.878
49.257	20.083	1039.115	822.914
50.271	20.237	1038.371	822.986
51.286	20.188	1037.348	821.870
52.301	20.177	1036.408	820.998
53.315	20.216	1035.291	820.224
54.330	20.116	1034.640	819.164
55.344	20.207	1033.828	818.881
56.359	20.107	1032.836	817.552
57.374	19.970	1031.950	816.130
58.388	20.016	1031.068	815.578
59.403	19.943	1030.149	814.433
60.417	19.842	1029.120	813.075
61.432	19.910	1028.709	812.999
62.447	20.083	1027.605	812.864
63.461	19.996	1027.239	812.097
64.476	20.004	1026.283	811.307
65.490	19.792	1025.402	809.546
66.505	19.893	1024.466	809.206
67.520	20.078	1023.893	809.546
68.534	19.762	1022.997	807.291
69.549	19.501	1021.559	804.866
70.563	19.482	1021.062	804.317
71.578	19.476	1020.303	803.619
72.593	19.485	1019.221	802.739
73.607	19.550	1018.811	802.644
74.622	19.891	1018.081	803.585
75.636	19.826	1017.316	802.608
76.651	19.657	1016.847	801.381
77.666	19.691	1015.691	800.560
78.680	19.745	1015.158	800.315
79.695	19.734	1014.708	799.840
80.709	19.885	1013.850	799.794
81.724	19.791	1012.994	798.613
82.739	19.827	1011.956	797.890
83.753	20.150	1011.724	799.126
84.768	20.416	1010.783	799.536
85.782	20.462	1009.632	798.764
86.797	20.349	1008.589	797.350
87.812	20.326	1007.404	796.238
88.826	20.386	1006.491	795.723
89.841	20.411	1005.840	795.251
90.855	20.403	1005.020	794.494
91.870	20.328	1004.120	793.373
92.884	20.145	1002.826	791.442
93.899	20.169	1001.796	790.669
94.914	20.443	1000.947	791.178
95.928	20.210	1000.045	789.335
96.943	19.971	999.017	787.367
97.957	19.894	997.261	785.562
98.972	19.718	996.175	783.839
99.987	19.887	995.794	784.236
101.001	20.173	994.948	784.796
102.016	19.929	994.668	783.400
103.030	20.071	993.119	782.756
104.045	19.813	992.302	780.877
105.060	19.875	990.574	779.728
106.074	19.932	990.413	779.788
107.089	20.180	990.366	780.800
108.103	20.252	988.976	779.955
109.118	20.021	987.448	777.648
110.133	19.939	987.084	776.922
111.147	19.851	985.285	775.045
112.162	19.616	984.534	773.331
113.176	19.943	983.559	773.959
114.191	19.817	982.758	772.700
115.206	19.487	981.339	770.044
116.220	19.611	980.874	770.163
117.235	19.673	979.615	769.383
118.249	19.572	979.250	768.578
119.264	19.533	977.785	767.188
120.279	19.667	977.396	767.407
121.293	19.827	976.322	767.208
122.308	19.819	975.571	766.514
123.322	19.669	974.453	764.904
124.337	19.578	972.848	763.176
125.352	19.059	971.541	759.788
126.366	18.916	970.462	758.249
127.381	19.719	970.653	761.870
128.395	20.079	970.179	763.017
129.410	20.172	969.013	762.442
130.424	20.349	967.469	761.938
131.439	19.999	967.233	760.148
132.454	20.132	966.135	759.801
133.468	20.008	965.396	758.610
134.483	20.166	964.592	758.603
135.497	20.363	963.599	758.613
136.512	20.423	962.732	758.128
137.527	20.414	961.716	757.219
138.541	20.414	960.826	756.451
139.556	20.354	960.056	755.517
140.570	20.484	959.115	755.274
141.585	20.388	958.076	753.974
142.600	20.276	957.539	752.999
143.614	20.513	956.885	753.446
144.629	20.676	955.425	752.936
145.643	20.535	954.405	751.452
146.658	20.470	953.383	750.304
147.673	20.293	952.289	748.613
148.687	20.168	951.465	747.360
149.702	20.290	950.070	746.721
150.716	20.238	949.110	745.680
151.731	20.257	948.721	745.388
152.746	20.495	948.591	746.243
153.760	20.543	947.723	745.699
154.775	20.646	946.693	745.265
155.789	20.637	945.870	744.512
156.804	20.550	945.230	743.569
157.819	20.552	943.980	742.529
158.833	20.670	943.640	742.702
159.848	20.398	942.942	740.925
160.862	20.444	941.363	739.815
161.877	20.567	940.638	739.705
162.892	20.589	939.379	738.741
163.906	20.461	938.601	737.521
164.921	20.381	937.647	736.365
165.935	20.487	936.620	735.945
166.950	20.473	935.913	735.264
167.964	20.611	935.003	735.067
168.979	20.423	933.852	733.303
169.994	20.335	932.829	732.063
171.008	20.511	932.979	732.857
172.023	20.579	931.334	731.790
173.037	20.387	930.124	729.965
174.052	20.294	929.374	728.921
175.067	20.168	929.231	728.218
176.081	20.246	928.818	728.156
177.096	20.256	928.180	727.635
178.110	20.128	926.997	726.105
179.125	19.935	925.938	724.405
180.140	19.981	925.701	724.347
181.154	20.044	925.389	724.300
182.169	20.569	924.760	725.939
183.183	20.615	924.908	726.182
184.198	20.374	924.000	724.400
185.213	20.463	923.095	723.995
186.227	20.594	922.143	723.732
187.242	20.509	921.491	722.801
188.256	20.625	920.893	722.751
189.271	20.634	920.151	722.143
190.286	20.262	919.184	719.774
191.300	19.856	917.554	716.753
192.315	19.182	915.947	712.646
193.329	19.024	916.134	712.075
194.344	19.913	916.389	715.890
195.359	20.311	916.227	717.345
196.373	20.526	915.231	717.391
197.388	20.401	914.267	716.057
198.402	20.230	913.787	714.911
199.417	20.344	913.448	715.051
200.432	20.084	912.094	712.859
201.446	20.007	911.357	711.905
202.461	20.145	910.619	711.834
203.475	19.113	909.309	706.511
204.490	18.462	907.754	702.571
205.504	19.383	908.336	706.736
206.519	20.044	908.156	709.242
207.534	20.086	907.833	709.099
208.548	20.579	907.453	710.756
209.563	20.343	906.212	708.758
210.577	20.248	905.878	708.045
211.592	20.668	905.521	709.416
212.607	20.298	904.901	707.361
213.621	20.697	903.423	707.764
214.636	20.749	902.733	707.373
215.650	20.561	902.068	706.027
216.665	20.843	901.662	706.789
217.680	20.596	900.748	705.011
218.694	20.204	899.456	702.348
219.709	20.198	898.807	701.755
220.723	20.385	898.519	702.226
221.738	20.422	897.785	701.738
222.753	20.386	897.177	701.056
223.767	20.445	897.052	701.137
224.782	20.581	896.470	701.168
225.796	20.613	896.196	701.017
226.811	19.969	894.569	697.092
227.826	19.437	893.076	693.730
228.840	19.653	892.722	694.259
229.855	19.713	891.929	693.822
230.869	19.388	890.644	691.460
231.884	19.893	890.751	693.507
232.899	20.455	891.176	696.029
233.913	20.491	890.105	695.275
234.928	20.417	889.828	694.699
235.942	20.485	888.561	693.920
236.957	19.982	888.352	691.688
237.972	20.132	887.659	691.687
238.986	20.304	886.724	691.579
240.001	20.215	886.242	690.791
241.015	20.270	885.927	690.702
242.030	20.371	885.414	690.644
243.045	20.522	884.505	690.471
244.059	20.644	884.341	690.769
245.074	20.433	883.147	688.938
246.088	20.180	881.986	686.970
247.103	20.232	881.911	687.053
248.117	20.805	882.302	689.568
249.132	21.037	881.489	689.789
250.147	21.074	881.020	689.508
251.161	21.197	880.490	689.518
252.176	21.158	879.693	688.680
253.190	21.323	879.368	689.014
254.205	21.461	878.453	688.781
255.220	21.418	878.120	688.288
256.234	21.352	877.397	687.403
257.249	21.025	876.760	685.558
258.263	21.062	876.084	685.112
259.278	21.258	875.067	685.025
260.293	21.381	874.265	684.820
261.307	21.353	873.417	683.984
262.322	21.116	872.379	682.183
263.336	20.197	871.015	677.471
264.351	19.194	869.154	672.050
265.366	19.351	868.949	672.445
266.380	20.387	869.381	676.760
267.395	20.887	868.963	678.320
268.409	20.876	868.401	677.779
269.424	21.029	867.283	677.442
270.439	20.919	867.137	676.841
271.453	21.168	866.574	677.306
272.468	21.460	866.039	677.962
273.482	21.294	865.844	677.105
274.497	20.826	864.415	674.115
275.512	20.715	863.411	672.846
276.526	20.945	863.662	673.869
277.541	21.134	863.445	674.372
278.555	20.675	862.699	671.956
279.570	20.672	861.458	670.918
280.585	20.996	860.385	671.272
281.599	20.928	859.890	670.564
282.614	20.271	858.920	667.221
283.628	20.330	858.037	666.706
284.643	20.652	858.152	667.972
285.657	20.448	856.419	665.781
286.672	20.043	856.072	663.902
287.687	20.575	856.225	666.000
288.701	20.787	855.311	666.041
289.716	20.486	854.520	664.217
290.730	20.294	854.035	663.048
291.745	20.101	852.854	661.335
292.760	20.392	852.650	662.226
293.774	21.422	853.085	666.434
294.789	21.671	852.730	667.047
295.803	21.796	851.966	666.867
296.818	21.760	851.285	666.138
297.833	21.257	850.420	663.492
298.847	21.265	849.312	662.597
299.862	21.367	849.724	663.247
300.876	21.643	849.296	663.903
301.891	21.510	848.213	662.491
302.906	21.062	847.399	660.103
303.920	21.293	847.179	660.745
304.935	21.539	846.483	661.077
305.949	21.500	846.089	660.561
306.964	21.387	845.371	659.516
307.979	21.530	845.008	659.715
308.993	21.746	844.962	660.433
310.008	21.731	844.025	659.588
311.022	21.443	843.085	657.710
312.037	21.334	842.735	656.969
313.052	21.196	841.453	655.393
314.066	20.339	840.191	651.141
315.081	20.239	839.721	650.343
316.095	21.014	840.200	653.563
317.110	21.423	839.730	654.672
318.125	20.531	838.377	650.224
319.139	19.603	836.562	645.294
320.154	19.620	836.355	645.138
321.168	20.509	836.883	648.809
322.183	21.078	836.594	650.653
323.197	21.319	836.444	651.375
324.212	21.464	835.957	651.478
325.227	21.400	835.532	650.850
326.241	21.347	835.024	650.201
327.256	21.214	834.187	648.998
328.270	21.290	833.350	648.569
329.285	21.086	832.374	646.999
330.300	20.765	832.321	645.707
331.314	21.105	831.743	646.461
332.329	21.447	831.307	647.331
333.343	21.639	831.078	647.806
334.358	21.492	830.836	647.018
335.373	21.499	830.609	646.811
336.387	22.007	830.253	648.350
337.402	21.873	830.195	647.755
338.416	21.785	829.671	646.962
339.431	21.981	829.206	647.268
340.446	22.042	828.943	647.228
341.460	21.811	828.652	646.092
342.475	21.850	827.929	645.614
343.489	21.905	827.600	645.506
344.504	22.202	827.283	646.291
345.519	22.109	827.067	645.722
346.533	22.285	826.691	646.022
347.548	22.313	825.806	645.373
348.562	22.229	825.143	644.492
349.577	22.240	824.507	643.978
350.592	22.156	824.395	643.526
351.606	22.171	823.592	642.896
352.621	22.124	822.355	641.703
353.635	21.997	821.472	640.493
354.650	21.427	819.673	636.959
355.665	20.574	818.782	633.106
356.679	20.814	818.767	633.912
357.694	21.370	818.184	635.426
358.708	21.234	817.645	634.458
359.723	21.649	817.663	635.920
360.738	22.073	816.899	636.809
361.752	21.822	817.160	636.047
362.767	22.381	816.411	637.431
363.781	22.551	816.219	637.839
364.796	22.593	815.972	637.743
365.810	22.721	815.099	637.467
366.825	22.615	814.623	636.654
367.840	22.281	814.077	634.965
368.854	21.941	812.906	632.773
369.869	21.973	813.050	632.943
370.883	21.974	812.231	632.254
371.898	21.888	811.857	631.598
372.913	21.912	811.484	631.338
373.927	22.111	811.082	631.683
374.942	22.363	810.726	632.255
375.956	22.337	810.537	631.960
376.971	22.313	810.556	631.832
377.986	22.672	809.725	632.415
379.000	22.511	809.336	631.479
380.015	22.352	808.737	630.387
381.029	22.406	808.148	630.063
382.044	22.629	807.208	630.074
383.059	22.464	807.153	629.385
384.073	22.659	806.315	629.372
385.088	22.711	805.767	629.073
386.102	22.460	804.909	627.453
387.117	22.346	804.171	626.416
388.132	22.073	803.229	624.658
389.146	21.723	802.161	622.528
390.161	21.936	802.604	623.574
391.175	22.231	802.246	624.288
392.190	21.945	801.216	622.418
393.205	20.735	799.125	616.455
394.219	19.295	797.453	610.017
395.234	19.442	797.322	610.382
396.248	20.913	798.799	616.670
397.263	22.171	799.638	621.714
398.278	21.956	799.305	620.642
399.292	22.020	798.099	619.876
400.307	22.065	797.793	619.742
401.321	21.990	797.527	619.216
402.336	22.501	797.125	620.650
403.350	22.824	797.223	621.812
404.365	22.966	797.249	622.277
405.380	23.254	796.776	622.865
406.394	23.372	795.931	622.561
407.409	23.145	795.413	621.307
408.423	23.177	795.319	621.290
409.438	23.315	794.725	621.255
410.453	23.215	794.348	620.556
411.467	23.111	793.782	619.693
412.482	23.182	793.534	619.695
413.496	23.423	793.169	620.195
414.511	23.381	792.825	619.725
415.526	23.422	791.804	619.017
416.540	23.138	791.593	617.806
417.555	22.874	791.205	616.525
418.569	23.026	790.469	616.429
419.584	22.938	789.865	615.596
420.599	22.867	789.319	614.867
421.613	158.340	1364.451	1798.960
422.628	137.129	1448.234	1799.048
