DTS Sentinel unit serial number:	SN413079Multiplexer serial number:	ORYXHardware model number:	OX4-SRSoftware version number:	ORYX F/W v4.00 Oryx Data Collector v3.7.2.0data status	okinstallation	princeton_trtdifferential loss correction	single-endedforward channel	channel 1reverse channel	N/Adate	2019/09/12time	06:40:11forward acquisition time	60.00reverse acquisition time	0.00gamma	496.2192k internal	0.2320k external	0.2320temperature offset calibration	1.0048default loss term (dB/km)	0.3790temperature slope calibration	1.0000multiplexer offset coefficient	1.0000multiplexer slope coefficient	1.0000fibre end	0.00T internal ref (°C)	32.14T ext. ref 1 (°C)	1.59T ext. ref 2 (°C)	27.16length (m)	temperature (°C)	Stokes	anti-Stokes-747.200	82.904	0.133	-0.146
-746.185	800.000	-0.124	0.418
-745.171	-79.964	0.295	0.100
-744.156	-42.790	-0.014	0.007
-743.142	232.446	0.109	-0.181
-742.127	800.000	0.066	0.205
-741.112	-68.271	-0.350	-0.138
-740.098	32.717	-0.200	0.175
-739.083	-51.085	0.249	-0.118
-738.069	170.232	0.162	0.234
-737.054	-44.281	0.250	0.127
-736.039	-66.976	-0.306	0.122
-735.025	20.632	0.400	0.327
-734.010	-200.000	-0.018	-0.193
-732.996	-145.070	0.172	0.016
-731.981	-144.233	-0.214	-0.020
-730.966	-200.000	-0.010	-0.372
-729.952	-22.039	-0.342	-0.210
-728.937	713.665	-0.058	-0.155
-727.923	-105.077	0.063	0.015
-726.908	124.335	0.208	-0.264
-725.894	298.674	-0.220	-0.409
-724.879	18.567	-0.069	-0.055
-723.864	33.472	-0.220	-0.193
-722.850	800.000	-0.077	-0.325
-721.835	-200.000	0.012	0.184
-720.821	800.000	-0.036	-0.109
-719.806	-71.547	-0.298	0.113
-718.791	-116.279	-0.160	-0.030
-717.777	-117.041	-0.207	-0.038
-716.762	342.619	0.054	0.107
-715.748	-164.909	-0.508	-0.023
-714.733	-51.867	-0.068	0.032
-713.718	-123.658	-0.102	0.016
-712.704	800.000	-0.014	-0.045
-711.689	92.938	-0.130	-0.149
-710.675	-67.358	-0.519	0.206
-709.660	-177.459	-0.082	-0.002
-708.645	615.811	-0.084	-0.212
-707.631	-20.304	-0.136	-0.084
-706.616	800.000	-0.017	-0.065
-705.602	-80.998	0.094	-0.031
-704.587	800.000	0.027	-0.114
-703.572	800.000	0.041	-0.148
-702.558	-25.915	0.257	0.153
-701.543	68.822	0.186	-0.192
-700.529	75.950	0.248	0.264
-699.514	-147.000	-0.223	0.019
-698.499	-200.000	0.022	-0.160
-697.485	-59.561	-0.171	-0.074
-696.470	518.696	0.084	0.199
-695.456	-57.608	0.265	0.117
-694.441	531.651	0.144	-0.343
-693.426	-121.646	-0.118	-0.020
-692.412	-79.279	0.368	0.126
-691.397	800.000	0.066	-0.228
-690.383	183.823	-0.102	0.153
-689.368	124.786	-0.113	-0.144
-688.354	-31.759	-0.069	0.039
-687.339	-140.527	0.109	0.011
-686.324	-133.472	0.239	0.030
-685.310	11.425	-0.178	0.138
-684.295	-137.123	-0.153	0.018
-683.281	157.110	-0.074	-0.104
-682.266	-104.842	0.297	0.069
-681.251	-82.281	0.337	-0.111
-680.237	800.000	0.084	0.360
-679.222	62.936	0.242	-0.244
-678.208	241.038	0.062	-0.104
-677.193	800.000	0.051	0.207
-676.178	-200.000	0.000	0.028
-675.164	-200.000	-0.035	-0.426
-674.149	73.245	0.124	0.131
-673.135	129.850	-0.079	-0.102
-672.120	88.297	-0.107	0.119
-671.105	188.247	-0.081	-0.122
-670.091	502.954	0.063	-0.147
-669.076	24.174	-0.166	0.138
-668.062	628.456	0.057	-0.146
-667.047	-28.743	0.307	-0.178
-666.032	-8.148	-0.047	-0.032
-665.018	-50.772	0.354	-0.168
-664.003	-200.000	-0.015	-0.251
-662.989	800.000	0.068	0.190
-661.974	48.097	-0.107	-0.101
-660.959	-70.337	-0.085	0.032
-659.945	-46.367	-0.113	0.056
-658.930	800.000	0.053	0.181
-657.916	82.109	-0.084	-0.092
-656.901	-37.552	0.162	-0.087
-655.886	-30.702	0.185	-0.106
-654.872	-200.000	-0.026	-0.155
-653.857	-35.094	-0.409	-0.225
-652.843	800.000	-0.049	-0.168
-651.828	-200.000	0.009	0.198
-650.814	-28.756	0.278	-0.161
-649.799	-116.497	0.090	-0.017
-648.784	-200.000	-0.027	-0.265
-647.770	-1.577	-0.320	-0.227
-646.755	800.000	-0.077	-0.320
-645.741	-61.724	0.321	0.136
-644.726	-147.785	0.316	0.027
-643.711	-6.118	-0.121	-0.083
-642.697	563.320	-0.153	0.373
-641.682	35.965	-0.188	0.167
-640.668	-55.659	-0.220	-0.099
-639.653	-47.002	-0.138	0.068
-638.638	800.000	-0.101	-0.382
-637.624	-200.000	0.043	-0.295
-636.609	-24.542	-0.244	-0.146
-635.595	68.530	0.133	-0.137
-634.580	800.000	0.073	-0.304
-633.565	-130.766	-0.143	0.019
-632.551	-128.260	-0.115	-0.017
-631.536	-159.918	-0.164	0.009
-630.522	181.720	0.076	0.113
-629.507	-120.826	-0.347	0.059
-628.492	-200.000	0.014	-0.200
-627.478	628.986	-0.058	-0.148
-626.463	-120.994	-0.362	-0.061
-625.449	83.843	-0.048	0.053
-624.434	246.000	-0.206	0.349
-623.419	446.337	-0.171	-0.378
-622.405	-200.000	0.002	-0.204
-621.390	51.170	-0.196	-0.187
-620.376	800.000	-0.065	0.226
-619.361	-1.939	0.405	-0.287
-618.346	800.000	-0.125	-0.357
-617.332	-200.000	-0.035	-0.276
-616.317	142.480	-0.144	-0.192
-615.303	-96.008	-0.132	0.035
-614.288	93.620	0.178	-0.203
-613.273	800.000	0.122	0.377
-612.259	56.565	0.027	0.026
-611.244	30.667	-0.147	0.127
-610.230	-82.883	-0.465	-0.151
-609.215	-200.000	0.000	-0.048
-608.201	379.368	-0.042	-0.086
-607.186	-90.849	0.139	0.040
-606.171	-200.000	-0.000	-0.277
-605.157	-122.913	0.117	-0.019
-604.142	-5.112	-0.041	0.029
-603.128	800.000	-0.047	0.199
-602.113	47.973	0.191	0.180
-601.098	24.662	-0.055	0.046
-600.084	-100.838	0.211	0.052
-599.069	7.365	0.110	-0.082
-598.055	-200.000	-0.030	0.150
-597.040	-54.215	-0.042	-0.019
-596.025	-94.429	0.076	-0.021
-595.011	-88.888	-0.249	0.074
-593.996	-200.000	-0.035	0.164
-592.982	304.078	-0.060	-0.112
-591.967	800.000	-0.017	-0.059
-590.952	-200.000	0.030	0.136
-589.938	174.675	-0.086	-0.125
-588.923	800.000	-0.090	0.311
-587.909	-70.938	-0.191	-0.072
-586.894	-176.109	0.197	-0.005
-585.879	293.360	0.048	-0.088
-584.865	-153.187	-0.445	0.031
-583.850	-46.949	0.120	-0.059
-582.836	680.727	-0.004	0.010
-581.821	774.928	0.123	0.338
-580.806	-105.077	0.122	-0.028
-579.792	31.434	0.213	-0.184
-578.777	115.147	0.209	-0.257
-577.763	-98.377	-0.281	-0.072
-576.748	-6.364	-0.023	-0.016
-575.733	-177.517	-0.536	-0.013
-574.719	300.450	-0.207	0.384
-573.704	279.174	-0.124	-0.222
-572.690	-142.810	-0.125	-0.012
-571.675	86.290	0.060	0.067
-570.661	97.580	-0.124	-0.143
-569.646	13.628	-0.198	-0.154
-568.631	97.829	0.073	-0.084
-567.617	-65.052	0.310	-0.126
-566.602	95.665	-0.165	0.189
-565.588	-36.662	-0.184	-0.099
-564.573	-31.814	0.252	-0.142
-563.558	-200.000	0.040	0.343
-562.544	-129.094	-0.186	-0.026
-561.529	-200.000	0.089	0.421
-560.515	-47.673	-0.374	0.182
-559.500	0.235	0.191	0.137
-558.485	-200.000	-0.005	-0.306
-557.471	800.000	0.110	0.428
-556.456	-200.000	-0.039	-0.238
-555.442	-200.000	-0.046	-0.232
-554.427	-163.698	-0.290	-0.014
-553.412	-182.892	-0.258	0.005
-552.398	299.284	-0.114	-0.211
-551.383	-103.794	0.591	0.139
-550.369	-200.000	0.002	-0.074
-549.354	800.000	0.039	-0.149
-548.339	1.138	0.136	-0.098
-547.325	-132.136	-0.253	-0.033
-546.310	117.112	0.051	-0.063
-545.296	-200.000	0.041	-0.248
-544.281	160.913	-0.194	0.272
-543.266	88.468	0.083	0.093
-542.252	-200.000	0.042	0.372
-541.237	1.668	-0.391	0.282
-540.223	284.648	-0.010	-0.017
-539.208	390.137	-0.083	0.172
-538.193	-136.880	-0.116	-0.013
-537.179	-55.180	-0.114	0.052
-536.164	-23.912	0.300	-0.180
-535.150	-152.640	-0.261	-0.019
-534.135	-30.174	-0.081	0.046
-533.121	256.253	-0.129	0.221
-532.106	156.455	-0.209	0.289
-531.091	-137.392	-0.281	-0.032
-530.077	-200.000	-0.020	-0.121
-529.062	-76.780	0.252	-0.088
-528.048	193.490	-0.205	0.311
-527.033	311.678	-0.234	0.441
-526.018	-12.571	0.185	-0.121
-525.004	-134.933	0.144	-0.017
-523.989	742.238	-0.056	-0.150
-522.975	792.137	-0.062	0.171
-521.960	800.000	0.064	0.251
-520.945	93.696	0.338	-0.384
-519.931	-4.770	-0.043	0.030
-518.916	24.750	-0.155	-0.129
-517.902	645.878	0.091	0.234
-516.887	77.365	-0.121	-0.129
-515.872	-200.000	-0.008	-0.173
-514.858	311.950	0.088	0.166
-513.843	-200.000	0.015	-0.289
-512.829	1.992	-0.151	0.109
-511.814	-52.375	0.094	-0.044
-510.799	-168.471	0.181	-0.007
-509.785	135.653	-0.166	-0.217
-508.770	19.461	0.150	0.121
-507.756	-117.684	0.311	0.056
-506.741	-200.000	0.008	0.080
-505.726	-18.381	-0.056	0.035
-504.712	-91.739	-0.280	-0.080
-503.697	-30.384	-0.185	-0.105
-502.683	-83.481	0.358	0.115
-501.668	-168.232	-0.242	-0.009
-500.653	-200.000	0.001	0.109
-499.639	-49.245	0.305	0.146
-498.624	200.708	-0.135	-0.208
-497.610	800.000	0.016	-0.053
-496.595	-200.000	-0.020	-0.335
-495.581	47.448	-0.143	0.133
-494.566	160.146	0.134	0.187
-493.551	800.000	-0.149	0.528
-492.537	-44.456	0.177	0.089
-491.522	61.616	0.299	0.298
-490.508	0.554	-0.177	-0.126
-489.493	-181.471	-0.158	0.003
-488.478	-200.000	0.000	-0.007
-487.464	-200.000	-0.036	0.164
-486.449	7.111	0.095	-0.071
-485.435	-199.332	0.343	-0.002
-484.420	27.323	0.132	0.111
-483.405	-200.000	0.030	-0.202
-482.391	429.269	-0.053	-0.116
-481.376	-1.621	0.115	-0.081
-480.362	47.670	-0.170	0.158
-479.347	-11.565	-0.030	0.020
-478.332	-200.000	0.014	-0.090
-477.318	117.739	0.113	-0.139
-476.303	9.922	0.283	-0.215
-475.289	-11.185	-0.210	-0.139
-474.274	24.802	0.269	-0.223
-473.259	-200.000	0.035	0.209
-472.245	273.618	-0.057	0.101
-471.230	-200.000	-0.015	0.224
-470.216	-107.638	0.179	0.039
-469.201	-26.932	0.267	-0.156
-468.186	800.000	-0.058	0.192
-467.172	19.068	0.103	-0.083
-466.157	-59.836	-0.025	-0.011
-465.143	-32.848	-0.159	-0.088
-464.128	298.102	0.094	0.172
-463.113	-86.401	0.196	0.060
-462.099	-135.861	0.139	-0.016
-461.084	178.332	0.092	-0.135
-460.070	-200.000	0.030	0.365
-459.055	-200.000	0.026	-0.147
-458.040	-116.307	0.135	-0.025
-457.026	29.379	-0.178	-0.152
-456.011	-34.535	0.072	-0.040
-454.997	49.471	0.239	-0.225
-453.982	-120.329	0.444	-0.076
-452.968	21.700	0.358	0.291
-451.953	714.396	0.102	0.271
-450.938	153.925	0.092	-0.126
-449.924	-200.000	-0.034	-0.153
-448.909	-64.463	-0.096	0.039
-447.895	72.030	0.242	-0.252
-446.880	116.798	0.322	-0.395
-445.865	800.000	-0.034	0.095
-444.851	-135.979	0.089	-0.010
-443.836	-61.082	0.143	0.060
-442.822	90.486	-0.087	0.098
-441.807	-99.633	0.447	-0.112
-440.792	-43.300	0.072	-0.036
-439.778	208.609	-0.095	-0.149
-438.763	385.443	0.077	0.159
-437.749	327.385	-0.055	-0.105
-436.734	-200.000	0.026	-0.121
-435.719	-32.521	-0.087	0.049
-434.705	-200.000	-0.039	0.229
-433.690	222.598	-0.147	0.237
-432.676	-200.000	-0.011	0.093
-431.661	-143.451	0.201	0.019
-430.646	-29.297	0.078	-0.044
-429.632	1.590	0.124	0.089
-428.617	488.233	-0.130	0.296
-427.603	-200.000	0.042	0.211
-426.588	134.447	0.216	0.279
-425.573	-86.721	0.009	0.003
-424.559	-161.279	0.197	0.010
-423.544	800.000	0.061	0.201
-422.530	398.236	-0.018	0.038
-421.515	-39.107	-0.284	0.149
-420.500	196.373	0.171	-0.260
-419.486	-120.905	-0.402	-0.068
-418.471	72.050	-0.136	0.142
-417.457	800.000	0.048	0.158
-416.442	-61.715	-0.013	-0.006
-415.428	-44.714	-0.057	0.029
-414.413	-153.824	0.344	-0.023
-413.398	-31.591	-0.291	-0.163
-412.384	26.567	0.135	0.113
-411.369	-114.545	0.294	0.056
-410.355	583.835	-0.130	-0.319
-409.340	-200.000	-0.014	-0.072
-408.325	-23.620	0.172	0.103
-407.311	800.000	-0.023	-0.095
-406.296	800.000	0.067	-0.217
-405.282	-159.297	-0.389	-0.022
-404.267	-125.947	0.203	0.031
-403.252	-124.387	0.091	-0.014
-402.238	-200.000	0.006	-0.139
-401.223	650.467	-0.206	0.526
-400.209	-66.539	0.139	0.055
-399.194	-84.676	-0.237	-0.074
-398.179	-200.000	-0.039	-0.221
-397.165	-9.721	-0.060	-0.040
-396.150	-26.597	0.064	0.037
-395.136	491.073	-0.060	-0.138
-394.121	-109.607	-0.046	0.010
-393.106	227.887	0.086	0.140
-392.092	43.301	0.358	-0.326
-391.077	-95.287	-0.156	0.042
-390.063	-47.801	-0.117	-0.057
-389.048	467.860	-0.028	-0.063
-388.033	121.479	0.146	0.182
-387.019	673.789	-0.095	0.245
-386.004	-200.000	0.004	0.195
-384.990	800.000	-0.057	-0.247
-383.975	-200.000	0.037	0.468
-382.960	800.000	-0.091	0.325
-381.946	-100.300	-0.069	0.017
-380.931	-39.195	0.373	0.195
-379.917	-90.435	0.113	-0.033
-378.902	-199.539	-0.353	0.002
-377.888	454.464	-0.050	-0.111
-376.873	657.025	-0.127	-0.326
-375.858	-103.331	-0.343	-0.081
-374.844	-44.613	0.246	-0.122
-373.829	800.000	0.083	-0.324
-372.815	-200.000	0.003	0.201
-371.800	97.383	0.162	0.186
-370.785	-24.819	-0.222	-0.132
-369.771	122.518	0.249	0.310
-368.756	498.634	-0.050	0.115
-367.742	800.000	0.115	0.353
-366.727	-200.000	-0.000	-0.020
-365.712	-33.671	0.162	0.089
-364.698	-200.000	-0.047	0.219
-363.683	-197.263	-0.264	-0.002
-362.669	-200.000	0.025	-0.150
-361.654	388.177	0.101	0.208
-360.639	-200.000	0.036	-0.310
-359.625	104.983	0.014	-0.016
-358.610	102.481	0.093	-0.108
-357.596	-140.619	-0.331	-0.034
-356.581	353.518	0.051	0.101
-355.566	331.382	0.042	0.080
-354.552	76.185	-0.202	-0.213
-353.537	46.386	0.120	-0.111
-352.523	-90.128	-0.221	0.064
-351.508	-200.000	-0.053	0.251
-350.493	72.389	0.201	0.209
-349.479	29.953	0.131	0.111
-348.464	800.000	0.083	0.351
-347.450	89.174	0.069	0.077
-346.435	800.000	0.028	0.111
-345.420	-1.873	-0.032	0.022
-344.406	306.424	0.288	0.535
-343.391	-200.000	0.043	0.550
-342.377	324.010	-0.063	0.120
-341.362	670.920	-0.022	-0.056
-340.348	16.406	-0.242	0.190
-339.333	-200.000	0.001	-0.581
-338.318	-106.358	-0.030	-0.007
-337.304	250.752	0.157	0.265
-336.289	-87.294	0.130	0.039
-335.275	32.824	-0.241	-0.207
-334.260	800.000	0.055	-0.167
-333.245	-200.000	0.015	0.136
-332.231	-56.743	0.186	-0.082
-331.216	-93.775	-0.304	-0.083
-330.202	-134.486	0.241	0.029
-329.187	194.406	0.224	-0.338
-328.172	-113.302	-0.155	-0.030
-327.158	135.509	-0.031	0.040
-326.143	17.621	-0.110	-0.087
-325.129	-200.000	0.033	0.239
-324.114	-132.180	0.360	-0.046
-323.099	4.315	0.311	-0.227
-322.085	9.499	-0.114	0.086
-321.070	-22.003	-0.213	-0.129
-320.056	-41.192	0.303	0.156
-319.041	80.061	0.203	0.217
-318.026	300.483	0.099	-0.182
-317.012	788.361	-0.082	0.224
-315.997	-60.516	0.093	-0.039
-314.983	-164.703	-0.201	0.009
-313.968	-53.451	0.102	-0.047
-312.953	28.125	0.177	0.148
-311.939	-85.629	-0.047	0.014
-310.924	-145.532	0.262	-0.023
-309.910	80.188	0.042	-0.045
-308.895	-101.595	-0.291	0.070
-307.880	-25.229	0.018	0.011
-306.866	-75.547	-0.132	-0.047
-305.851	456.433	0.035	0.076
-304.837	601.817	-0.070	-0.172
-303.822	-200.000	0.001	0.156
-302.807	-32.287	-0.331	0.183
-301.793	71.247	0.116	0.120
-300.778	102.849	0.145	-0.169
-299.764	-155.072	-0.256	0.017
-298.749	-200.000	0.068	-0.409
-297.735	21.905	0.044	0.036
-296.720	-76.268	0.104	0.036
-295.705	800.000	0.048	0.185
-294.691	434.984	0.108	-0.232
-293.676	800.000	0.080	0.250
-292.662	-141.153	-0.189	-0.019
-291.647	800.000	0.118	-0.451
-290.632	800.000	0.033	0.110
-289.618	-5.911	0.189	-0.129
-288.603	116.442	0.163	0.198
-287.589	514.008	-0.104	0.241
-286.574	-200.000	0.058	0.264
-285.559	76.451	-0.189	-0.199
-284.545	-200.000	0.014	-0.204
-283.530	-8.488	-0.166	-0.111
-282.516	-55.118	-0.156	-0.070
-281.501	139.523	0.115	-0.150
-280.486	-50.901	0.670	-0.313
-279.472	-124.920	0.380	-0.058
-278.457	-200.000	-0.052	0.396
-277.443	800.000	-0.038	-0.156
-276.428	-200.000	-0.011	-0.334
-275.413	18.594	0.064	-0.051
-274.399	448.119	0.037	-0.080
-273.384	37.419	-0.052	-0.046
-272.370	-130.635	-0.432	0.058
-271.355	-200.000	-0.053	0.269
-270.340	-200.000	0.004	0.325
-269.326	-151.877	0.186	0.014
-268.311	504.207	0.108	0.248
-267.297	-125.245	-0.348	0.053
-266.282	-200.000	0.036	-0.294
-265.267	-167.681	-0.201	0.008
-264.253	-136.100	0.300	-0.035
-263.238	800.000	-0.042	0.167
-262.224	-92.571	-0.086	0.024
-261.209	-84.654	0.095	-0.030
-260.195	800.000	-0.045	0.183
-259.180	-93.212	0.278	0.077
-258.165	187.259	0.316	-0.467
-257.151	77.152	-0.090	-0.095
-256.136	-80.752	0.347	0.114
-255.122	-48.597	-0.262	0.125
-254.107	116.002	-0.049	-0.059
-253.092	-200.000	-0.020	-0.253
-252.078	-200.000	-0.042	0.235
-251.063	-200.000	-0.018	-0.256
-250.049	800.000	-0.055	-0.218
-249.034	800.000	0.013	0.054
-248.019	-96.335	-0.189	-0.050
-247.005	318.621	0.089	0.168
-245.990	-200.000	0.007	0.279
-244.976	800.000	0.076	0.220
-243.961	323.607	-0.125	0.236
-242.946	-5.672	0.266	0.181
-241.932	8.716	-0.121	0.090
-240.917	139.806	-0.283	-0.370
-239.903	-200.000	0.005	0.080
-238.888	-170.769	0.262	0.009
-237.873	42.107	-0.194	-0.175
-236.859	78.214	0.201	-0.213
-235.844	-44.462	-0.083	-0.041
-234.830	162.376	0.095	-0.132
-233.815	-200.000	-0.003	0.181
-232.800	-37.887	-0.186	-0.098
-231.786	-200.000	-0.041	-0.182
-230.771	-70.941	0.175	-0.065
-229.757	-200.000	-0.014	0.110
-228.742	800.000	0.055	-0.202
-227.727	-76.069	-0.182	-0.064
-226.713	-32.222	0.278	0.154
-225.698	-54.149	-0.173	0.078
-224.684	-31.376	0.198	0.110
-223.669	238.437	0.178	0.293
-222.655	-200.000	-0.062	0.368
-221.640	800.000	-0.101	0.311
-220.625	-200.000	0.001	0.057
-219.611	293.964	-0.169	0.306
-218.596	-21.802	-0.170	0.103
-217.582	-200.000	0.032	-0.177
-216.567	491.215	-0.084	-0.191
-215.552	176.098	-0.064	0.092
-214.538	96.249	-0.136	-0.155
-213.523	87.438	0.122	0.133
-212.509	-69.550	0.080	-0.030
-211.494	133.559	-0.204	-0.261
-210.479	61.545	0.304	-0.300
-209.465	373.727	0.121	-0.243
-208.450	14.076	0.155	-0.119
-207.436	-30.540	-0.081	-0.045
-206.421	-186.346	0.055	0.001
-205.406	54.066	-0.058	-0.055
-204.392	168.831	-0.140	-0.197
-203.377	800.000	-0.057	-0.201
-202.363	252.824	0.128	-0.215
-201.348	-51.857	0.360	0.166
-200.333	-106.589	-0.040	0.009
-199.319	25.983	0.060	0.049
-198.304	-200.000	0.012	-0.109
-197.290	-10.360	-0.561	0.368
-196.275	-159.488	0.162	0.009
-195.260	19.435	-0.152	-0.121
-194.246	-20.751	0.083	0.051
-193.231	46.981	-0.066	-0.061
-192.217	-75.146	0.142	0.050
-191.202	-146.368	-0.318	-0.027
-190.187	-117.794	-0.170	-0.030
-189.173	-186.962	-0.078	-0.001
-188.158	-86.136	0.097	0.030
-187.144	48.055	0.184	-0.170
-186.129	-200.000	-0.026	0.376
-185.114	492.478	-0.079	-0.179
-184.100	-200.000	-0.022	0.177
-183.085	14.758	-0.070	-0.054
-182.071	77.665	-0.159	0.168
-181.056	-120.176	-0.391	-0.066
-180.042	-166.099	0.238	0.010
-179.027	178.308	0.052	0.076
-178.012	-113.453	-0.323	-0.063
-176.998	-117.601	-0.144	-0.026
-175.983	-200.000	0.007	0.056
-174.969	645.289	-0.082	-0.207
-173.954	800.000	-0.071	-0.212
-172.939	20.943	-0.025	-0.020
-171.925	88.327	-0.161	0.177
-170.910	658.843	-0.014	0.035
-169.896	-96.143	0.234	0.061
-168.881	-200.000	-0.021	-0.309
-167.866	225.936	0.200	-0.321
-166.852	-75.842	0.165	-0.058
-165.837	42.522	-0.093	-0.084
-164.823	244.185	0.171	-0.285
-163.808	-132.196	0.104	-0.013
-162.793	800.000	0.075	-0.249
-161.779	-200.000	0.013	-0.388
-160.764	-150.872	0.282	-0.021
-159.750	10.878	-0.292	-0.221
-158.735	-98.402	0.333	-0.084
-157.720	-200.000	0.025	0.167
-156.706	-127.937	-0.269	0.038
-155.691	-121.903	-0.201	-0.033
-154.677	-56.501	-0.017	0.008
-153.662	-165.339	-0.281	0.012
-152.647	800.000	0.060	0.176
-151.633	-99.498	-0.177	-0.044
-150.618	-200.000	0.008	0.463
-149.604	-200.000	-0.026	-0.315
-148.589	68.156	-0.069	-0.070
-147.574	-200.000	-0.020	0.340
-146.560	-5.804	0.184	0.124
-145.545	-200.000	-0.027	0.141
-144.531	-135.531	-0.401	0.047
-143.516	28.591	-0.051	-0.042
-142.502	-102.296	0.040	0.009
-141.487	-90.312	0.075	0.021
-140.472	-9.423	-0.055	-0.036
-139.458	592.834	-0.132	-0.321
-138.443	-56.416	-0.287	-0.126
-137.429	-125.552	0.029	-0.004
-136.414	-200.000	-0.035	0.268
-135.399	-200.000	0.024	0.456
-134.385	-64.329	0.060	0.024
-133.370	-200.000	0.063	0.358
-132.356	-102.904	-0.187	0.044
-131.341	-50.705	-0.251	0.117
-130.326	439.103	-0.120	0.258
-129.312	-182.515	0.117	0.002
-128.297	-138.942	-0.148	-0.016
-127.283	-97.055	0.303	0.078
-126.268	27.053	0.034	-0.029
-125.253	-76.493	-0.254	-0.088
-124.239	460.378	0.082	-0.181
-123.224	-131.991	0.266	-0.034
-122.210	434.206	-0.090	0.192
-121.195	-8.683	0.294	0.195
-120.180	800.000	0.022	0.073
-119.166	-173.414	-0.043	-0.001
-118.151	125.431	-0.247	-0.307
-117.137	375.048	-0.041	-0.082
-116.122	3.164	-0.154	-0.111
-115.107	-175.973	0.410	0.011
-114.093	89.340	0.278	0.306
-113.078	1.461	-0.011	-0.008
-112.064	65.341	0.157	0.157
-111.049	800.000	0.037	0.142
-110.034	-147.583	0.211	0.017
-109.020	-200.000	-0.053	-0.348
-108.005	327.059	0.069	-0.131
-106.991	-131.259	-0.221	-0.029
-105.976	-200.000	-0.120	0.540
-104.962	-200.000	-0.076	0.381
-103.947	89.028	-0.120	0.131
-102.932	211.789	-0.038	0.059
-101.918	-51.246	0.110	0.051
-100.903	-3.570	-0.159	0.109
-99.889	170.314	0.140	0.198
-98.874	-200.000	-0.022	-0.207
-97.859	-72.999	0.137	-0.050
-96.845	159.054	-0.255	0.350
-95.830	800.000	0.106	-0.295
-94.816	-200.000	-0.006	0.187
-93.801	-138.406	-0.065	0.007
-92.786	-74.133	-0.370	-0.132
-91.772	232.206	0.040	-0.065
-90.757	-104.896	-0.209	-0.047
-89.743	774.158	0.176	-0.472
-88.728	-16.363	0.168	0.105
-87.713	-140.612	0.389	0.040
-86.699	113.286	-0.130	0.155
-85.684	-59.511	-0.087	0.037
-84.670	-133.045	-0.145	0.018
-83.655	88.445	0.209	-0.229
-82.640	-82.172	-0.221	0.071
-81.626	-53.633	0.140	-0.063
-80.611	126.881	0.216	0.270
-79.597	-200.000	0.001	0.209
-78.582	-161.292	0.261	-0.013
-77.567	138.981	-0.165	-0.213
-76.553	304.843	-0.163	0.298
-75.538	-200.000	-0.024	0.145
-74.524	529.249	-0.051	-0.118
-73.509	33.659	-0.164	-0.140
-72.494	209.483	-0.153	-0.236
-71.480	-200.000	-0.042	-0.235
-70.465	800.000	-0.014	-0.038
-69.451	-141.272	0.289	-0.029
-68.436	-37.730	0.172	-0.090
-67.422	-200.000	-0.000	-0.005
-66.407	3.269	-0.014	0.010
-65.392	327.503	-0.035	-0.067
-64.378	-16.789	-0.224	-0.139
-63.363	551.393	0.010	-0.023
-62.349	-200.000	0.005	-0.370
-61.334	144.425	-0.966	-1.270
-60.319	256.531	0.301	0.509
-59.305	-200.000	0.210	-1.106
-58.290	800.000	0.233	0.926
-57.276	614.581	0.716	1.766
-56.261	-200.000	96.098	595.884
-55.246	566.718	1371.968	3277.225
-54.232	160.948	2550.129	3506.367
-53.217	113.416	2142.511	2559.524
-52.203	44.030	1604.767	1447.687
-51.188	35.663	1342.252	1160.572
-50.173	32.425	1300.705	1105.614
-49.159	54.756	1347.411	1279.196
-48.144	56.999	1363.676	1307.963
-47.130	35.851	1322.874	1144.750
-46.115	32.285	1305.661	1108.828
-45.100	32.287	1300.255	1104.201
-44.086	32.113	1298.312	1101.491
-43.071	32.028	1296.267	1099.214
-42.057	32.065	1293.405	1096.958
-41.042	31.996	1292.244	1095.525
-40.027	32.037	1290.688	1094.403
-39.013	32.145	1288.592	1093.210
-37.998	31.956	1287.393	1091.049
-36.984	32.093	1285.359	1090.079
-35.969	32.149	1283.515	1088.800
-34.954	32.137	1281.614	1087.071
-33.940	32.235	1280.407	1086.571
-32.925	32.187	1279.505	1085.484
-31.911	32.199	1277.489	1083.801
-30.896	32.284	1276.025	1083.008
-29.881	32.299	1274.530	1081.782
-28.867	32.234	1273.121	1080.167
-27.852	32.225	1271.902	1079.039
-26.838	32.285	1270.509	1078.159
-25.823	32.323	1268.761	1076.854
-24.809	32.169	1268.248	1075.490
-23.794	32.348	1266.442	1074.943
-22.779	32.235	1265.208	1073.204
-21.765	32.240	1263.968	1072.137
-20.750	32.254	1262.311	1070.771
-19.736	32.183	1261.351	1069.510
-18.721	32.153	1259.844	1068.020
-17.706	32.090	1258.838	1066.766
-16.692	32.000	1257.649	1065.204
-15.677	32.193	1256.400	1065.202
-14.663	32.150	1255.387	1064.053
-13.648	32.025	1254.677	1062.702
-12.633	32.121	1253.538	1062.239
-11.619	31.986	1252.797	1060.804
-10.604	32.118	1251.782	1060.649
-9.590	32.002	1250.875	1059.182
-8.575	31.908	1249.962	1057.841
-7.560	32.019	1248.774	1057.419
-6.546	32.030	1248.269	1057.008
-5.531	32.041	1247.273	1056.185
-4.517	32.106	1246.309	1055.693
-3.502	32.033	1245.740	1054.757
-2.487	31.930	1244.811	1053.351
-1.473	32.094	1240.434	1050.524
-0.458	30.676	1225.642	1030.110
0.556	27.268	1208.034	993.373
1.571	23.681	1214.478	978.849
2.586	22.753	1229.997	986.088
3.600	22.167	1219.158	974.064
4.615	15.790	1145.490	881.808
5.629	5.955	1069.076	774.590
6.644	1.948	1048.653	740.302
7.659	1.481	1046.650	736.559
8.673	1.500	1045.265	735.614
9.688	1.433	1043.737	734.147
10.702	1.703	1042.284	734.366
11.717	7.707	1051.019	769.590
12.731	17.977	1065.610	830.380
13.746	23.604	1072.783	863.355
14.761	24.890	1073.629	870.215
15.775	24.981	1073.328	870.336
16.790	24.776	1072.490	868.583
17.804	24.565	1072.242	867.281
18.819	24.900	1071.710	868.401
19.834	24.850	1071.367	867.802
20.848	24.986	1070.616	867.775
21.863	25.048	1070.455	867.870
22.877	24.850	1070.327	866.728
23.892	24.823	1069.247	865.646
24.907	24.770	1068.862	865.002
25.921	24.895	1067.188	864.176
26.936	24.859	1065.943	862.915
27.950	24.843	1064.634	861.704
28.965	24.651	1062.671	859.116
29.980	24.870	1060.910	858.665
30.994	25.174	1059.532	858.933
32.009	24.946	1059.265	857.550
33.023	24.784	1057.589	855.339
34.038	24.782	1057.302	855.022
35.053	24.901	1056.432	854.811
36.067	24.896	1055.994	854.360
37.082	25.104	1054.694	854.220
38.096	25.202	1054.477	854.440
39.111	25.193	1053.652	853.649
40.126	25.049	1052.425	851.895
41.140	24.796	1050.243	848.854
42.155	24.554	1049.053	846.671
43.169	24.604	1048.350	846.267
44.184	24.536	1047.477	845.163
45.199	24.478	1046.473	844.006
46.213	24.459	1045.760	843.265
47.228	24.734	1045.067	843.928
48.242	24.683	1044.172	842.894
49.257	24.890	1043.446	843.208
50.271	24.858	1042.870	842.516
51.286	24.908	1042.223	842.155
52.301	24.966	1041.040	841.395
53.315	24.983	1039.846	840.434
54.330	24.918	1038.948	839.332
55.344	24.876	1038.601	838.779
56.359	24.801	1037.525	837.486
57.374	24.720	1036.319	836.060
58.388	24.622	1035.849	835.147
59.403	24.608	1034.748	834.120
60.417	24.605	1033.493	833.020
61.432	24.738	1033.479	833.556
62.447	24.755	1033.009	833.184
63.461	24.660	1032.353	832.139
64.476	24.585	1031.121	830.721
65.490	24.549	1030.311	829.829
66.505	24.753	1029.436	829.998
67.520	24.765	1028.907	829.552
68.534	24.431	1027.747	826.999
69.549	24.063	1026.862	824.510
70.563	24.238	1026.062	824.602
71.578	24.232	1024.770	823.466
72.593	24.067	1024.111	822.099
73.607	24.097	1023.825	821.934
74.622	24.398	1023.951	823.355
75.636	24.539	1022.950	823.126
76.651	24.322	1021.963	821.261
77.666	24.273	1020.993	820.182
78.680	24.251	1020.936	819.962
79.695	24.361	1020.230	819.830
80.709	24.569	1019.165	819.855
81.724	24.465	1018.408	818.695
82.739	24.613	1017.758	818.778
83.753	24.965	1017.357	819.999
84.768	25.138	1016.739	820.218
85.782	25.357	1015.950	820.508
86.797	25.248	1014.510	818.776
87.812	24.998	1013.758	816.957
88.826	25.147	1012.838	816.821
89.841	25.099	1012.197	816.014
90.855	25.185	1011.186	815.516
91.870	25.131	1010.159	814.373
92.884	25.020	1009.130	812.969
93.899	25.074	1007.883	812.136
94.914	25.219	1007.333	812.276
95.928	24.968	1006.178	810.140
96.943	24.659	1005.673	808.264
97.957	24.542	1003.978	806.303
98.972	24.518	1002.924	805.274
99.987	24.705	1002.663	805.838
101.001	24.728	1002.251	805.536
102.016	24.882	1001.236	805.344
103.030	24.783	1000.329	804.097
104.045	24.601	999.159	802.268
105.060	24.456	998.193	800.775
106.074	24.731	997.649	801.499
107.089	24.925	997.412	802.105
108.103	24.973	995.961	801.084
109.118	24.653	994.310	798.257
110.133	24.709	993.934	798.131
111.147	24.519	992.434	796.010
112.162	24.264	992.028	794.478
113.176	24.528	991.610	795.248
114.191	24.483	990.484	794.076
115.206	24.204	989.048	791.614
116.220	24.176	988.915	791.313
117.235	24.287	988.066	791.057
118.249	24.266	987.028	790.061
119.264	24.173	986.450	789.118
120.279	24.326	985.888	789.275
121.293	24.248	984.980	788.136
122.308	24.386	983.998	787.887
123.322	24.278	982.910	786.471
124.337	24.095	981.473	784.444
125.352	23.720	979.647	781.267
126.366	23.569	979.129	780.121
127.381	24.392	979.070	783.623
128.395	24.833	978.442	784.985
129.410	24.858	977.854	784.551
130.424	24.818	976.894	783.539
131.439	24.961	975.790	783.211
132.454	24.859	974.645	781.776
133.468	24.632	974.376	780.500
134.483	24.842	973.284	780.472
135.497	25.103	972.471	780.886
136.512	25.323	971.263	780.807
137.527	25.118	970.878	779.538
138.541	25.141	969.942	778.817
139.556	25.063	969.621	778.148
140.570	25.122	969.003	777.842
141.585	25.225	967.736	777.202
142.600	25.100	966.929	775.944
143.614	25.302	966.121	776.098
144.629	25.319	965.737	775.795
145.643	25.273	963.989	774.123
146.658	25.079	962.574	772.086
147.673	24.853	962.137	770.691
148.687	24.946	960.745	769.910
149.702	24.874	959.562	768.583
150.716	24.881	958.782	767.921
151.731	24.986	958.268	767.891
152.746	25.282	957.634	768.586
153.760	25.189	957.318	767.863
154.775	25.383	956.649	768.087
155.789	25.277	955.480	766.628
156.804	25.235	954.511	765.605
157.819	25.348	953.795	765.447
158.833	25.465	953.475	765.618
159.848	25.528	952.152	764.756
160.862	25.243	951.110	762.640
161.877	25.263	950.431	762.114
162.892	25.298	949.327	761.312
163.906	25.207	948.680	760.337
164.921	25.102	947.891	759.195
165.935	25.315	946.704	759.076
166.950	25.358	945.300	758.066
167.964	25.151	945.252	757.088
168.979	25.199	943.639	755.928
169.994	25.135	942.634	754.789
171.008	25.382	942.338	755.525
172.023	25.351	941.768	754.869
173.037	25.100	941.010	753.139
174.052	24.940	939.611	751.284
175.067	24.957	939.309	751.048
176.081	25.064	938.542	750.816
177.096	24.991	938.096	750.085
178.110	24.875	936.692	748.413
179.125	24.617	936.266	746.929
180.140	24.631	936.129	746.811
181.154	24.787	936.189	747.446
182.169	25.115	935.456	748.161
183.183	25.234	935.466	748.599
184.198	25.153	934.099	747.102
185.213	25.177	933.506	746.662
186.227	25.298	932.536	746.325
187.242	25.322	932.091	746.002
188.256	25.361	931.565	745.674
189.271	25.393	931.057	745.334
190.286	24.982	929.536	742.348
191.300	24.378	928.128	738.662
192.315	23.563	926.250	733.730
193.329	23.551	926.503	733.816
194.344	24.580	927.068	738.453
195.359	25.087	927.101	740.513
196.373	25.239	925.941	740.145
197.388	25.103	925.491	739.158
198.402	25.104	925.200	738.867
199.417	25.198	924.411	738.559
200.432	24.900	923.383	736.447
201.446	24.788	922.497	735.212
202.461	24.735	922.068	734.588
203.475	23.937	920.348	729.882
204.490	23.116	918.889	725.295
205.504	24.126	919.286	729.683
206.519	24.717	919.067	731.866
207.534	24.790	919.018	732.058
208.548	25.136	918.803	733.239
209.563	24.909	917.680	731.352
210.577	25.037	916.823	731.126
211.592	25.297	917.407	732.588
212.607	25.400	915.894	731.733
213.621	25.309	915.463	730.955
214.636	25.246	914.945	730.220
215.650	25.322	913.553	729.355
216.665	25.467	913.087	729.507
217.680	25.133	912.924	727.954
218.694	24.984	911.018	725.767
219.709	24.881	910.516	724.887
220.723	25.020	910.565	725.425
221.738	25.022	909.972	724.894
222.753	25.142	908.863	724.431
223.767	25.220	908.415	724.326
224.782	25.414	908.321	724.968
225.796	25.510	907.856	724.921
226.811	24.634	906.403	720.168
227.826	24.249	904.976	717.423
228.840	24.489	904.358	717.833
229.855	24.429	903.333	716.716
230.869	24.045	902.674	714.588
231.884	24.382	902.812	715.986
232.899	25.252	902.864	719.455
233.913	24.985	902.300	717.871
234.928	25.018	901.500	717.304
235.942	24.947	900.978	716.540
236.957	24.770	899.755	714.799
237.972	24.731	899.850	714.655
238.986	24.651	899.486	713.982
240.001	24.761	898.500	713.577
241.015	24.860	898.121	713.606
242.030	25.194	897.240	714.174
243.045	25.226	897.261	714.256
244.059	25.350	896.556	714.124
245.074	25.018	895.910	712.224
246.088	24.850	894.523	710.394
247.103	25.089	894.487	711.251
248.117	25.573	894.745	713.314
249.132	25.848	894.401	714.066
250.147	25.800	893.708	713.260
251.161	26.055	893.355	713.925
252.176	25.865	892.864	712.715
253.190	26.002	892.049	712.543
254.205	26.376	891.116	713.210
255.220	26.163	890.633	711.923
256.234	26.159	889.835	711.204
257.249	25.978	889.256	709.968
258.263	25.902	888.563	709.053
259.278	26.101	888.397	709.640
260.293	25.994	887.686	708.588
261.307	25.918	886.653	707.401
262.322	25.790	885.876	706.220
263.336	25.047	884.094	701.825
264.351	24.050	882.196	696.360
265.366	24.142	882.134	696.607
266.380	25.311	882.668	701.541
267.395	25.764	881.975	702.694
268.409	25.703	881.486	702.005
269.424	25.772	881.274	702.042
270.439	25.888	880.658	701.942
271.453	26.011	879.840	701.709
272.468	26.089	879.309	701.525
273.482	26.043	879.454	701.400
274.497	25.634	878.366	698.883
275.512	25.381	877.075	696.811
276.526	25.848	877.038	698.532
277.541	26.006	876.645	698.768
278.555	25.824	876.074	697.548
279.570	25.477	875.225	695.465
280.585	25.850	874.584	696.336
281.599	25.734	873.950	695.325
282.614	24.984	872.409	691.143
283.628	25.044	872.192	691.140
284.643	25.601	871.915	693.007
285.657	25.168	870.557	690.202
286.672	24.802	869.856	688.176
287.687	25.232	870.063	689.933
288.701	25.373	869.566	690.019
289.716	25.138	868.517	688.226
290.730	25.234	867.486	687.715
291.745	24.788	866.591	685.236
292.760	25.061	867.155	686.668
293.774	26.108	867.475	690.872
294.789	26.639	866.886	692.370
295.803	26.499	866.433	691.413
296.818	26.472	865.772	690.722
297.833	25.976	864.398	687.674
298.847	25.855	863.664	686.568
299.862	26.166	863.658	687.686
300.876	26.326	863.535	688.136
301.891	26.287	862.501	687.102
302.906	25.818	861.809	684.710
303.920	26.126	861.269	685.388
304.935	26.447	861.251	686.532
305.949	26.318	860.811	685.631
306.964	26.053	859.739	683.715
307.979	26.170	859.479	683.888
308.993	26.518	859.096	684.843
310.008	26.498	858.941	684.581
311.022	25.984	858.185	681.974
312.037	26.121	857.296	681.724
313.052	25.845	856.194	679.747
314.066	24.945	854.729	675.134
315.081	24.756	853.877	673.690
316.095	25.534	854.199	676.814
317.110	25.966	854.654	678.742
318.125	25.053	852.943	673.890
319.139	24.277	851.107	669.466
320.154	24.194	850.721	668.794
321.168	25.095	851.299	672.571
322.183	25.681	852.100	675.343
323.197	25.816	851.333	675.183
324.212	26.091	850.757	675.695
325.227	26.075	849.993	674.970
326.241	25.964	849.466	674.076
327.256	25.836	848.962	673.136
328.270	25.843	847.741	672.138
329.285	25.748	846.963	671.108
330.300	25.364	846.314	669.103
331.314	25.774	846.356	670.602
332.329	26.248	846.324	672.281
333.343	26.298	845.621	671.850
334.358	26.258	845.504	671.551
335.373	26.441	845.123	671.868
336.387	26.549	845.275	672.331
337.402	26.728	845.044	672.752
338.416	26.772	844.053	672.068
339.431	26.746	844.218	672.042
340.446	26.999	843.841	672.620
341.460	26.751	843.291	671.204
342.475	26.486	843.126	670.032
343.489	26.634	842.651	670.143
344.504	26.845	842.233	670.531
345.519	27.097	841.797	671.054
346.533	27.158	841.344	670.862
347.548	27.082	840.968	670.219
348.562	26.867	840.220	668.773
349.577	27.016	839.609	668.776
350.592	26.884	839.066	667.799
351.606	27.038	838.024	667.474
352.621	26.952	837.664	666.814
353.635	26.820	836.833	665.610
354.650	26.260	835.004	662.042
355.665	25.226	833.302	656.851
356.679	25.717	833.367	658.644
357.694	25.967	833.618	659.698
358.708	25.857	832.499	658.353
359.723	26.411	832.538	660.348
360.738	26.682	832.166	660.983
361.752	26.767	831.704	660.867
362.767	27.068	831.497	661.742
363.781	27.358	830.890	662.255
364.796	27.334	830.709	661.966
365.810	27.449	830.449	662.116
366.825	27.548	829.672	661.799
367.840	27.080	829.198	659.663
368.854	26.925	827.674	657.830
369.869	26.739	827.496	656.959
370.883	26.806	827.195	656.903
371.898	26.650	826.792	655.959
372.913	26.749	826.555	656.070
373.927	26.812	826.200	655.961
374.942	26.999	825.629	656.125
375.956	27.034	825.396	656.010
376.971	27.190	824.717	655.973
377.986	27.462	824.683	656.870
379.000	27.439	823.773	656.004
380.015	27.240	823.282	654.839
381.029	27.183	823.177	654.490
382.044	27.416	822.101	654.417
383.059	27.434	821.642	654.058
384.073	27.426	821.224	653.637
385.088	27.354	820.862	653.033
386.102	27.177	819.969	651.630
387.117	27.150	819.314	650.956
388.132	26.773	818.225	648.684
389.146	26.317	817.223	646.201
390.161	26.648	817.183	647.298
391.175	27.175	817.417	649.308
392.190	26.833	816.138	647.014
393.205	25.426	813.938	640.204
394.219	24.032	812.123	633.760
395.234	23.888	811.930	633.040
396.248	25.379	813.462	639.493
397.263	27.090	813.904	645.871
398.278	26.832	813.693	644.729
399.292	26.771	812.566	643.565
400.307	26.638	812.521	642.999
401.321	26.909	812.305	643.734
402.336	27.139	812.305	644.490
403.350	27.635	811.862	645.840
404.365	27.849	811.970	646.625
405.380	28.189	811.509	647.404
406.394	28.120	810.941	646.650
407.409	28.096	810.465	646.128
408.423	28.022	810.571	645.897
409.438	28.080	809.750	645.389
410.453	28.226	809.221	645.426
411.467	28.046	808.629	644.263
412.482	27.977	808.407	643.785
413.496	28.213	808.179	644.378
414.511	28.119	807.985	643.833
415.526	28.213	807.117	643.418
416.540	27.992	806.342	641.964
417.555	27.672	805.762	640.323
418.569	27.809	805.490	640.532
419.584	27.728	804.946	639.757
420.599	27.533	804.596	638.738
421.613	110.067	1287.671	1458.391
422.628	94.983	1358.058	1458.497
