DTS Sentinel unit serial number:	SN413079Multiplexer serial number:	ORYXHardware model number:	OX4-SRSoftware version number:	ORYX F/W v4.00 Oryx Data Collector v3.7.2.0data status	okinstallation	princeton_trtdifferential loss correction	single-endedforward channel	channel 1reverse channel	N/Adate	2019/09/11time	13:52:11forward acquisition time	60.00reverse acquisition time	0.00gamma	496.2192k internal	0.2294k external	0.2294temperature offset calibration	0.9983default loss term (dB/km)	0.3790temperature slope calibration	1.0000multiplexer offset coefficient	1.0000multiplexer slope coefficient	1.0000fibre end	0.00T internal ref (°C)	41.87T ext. ref 1 (°C)	0.81T ext. ref 2 (°C)	35.72length (m)	temperature (°C)	Stokes	anti-Stokes-747.200	800.000	0.079	-0.232
-746.185	-165.753	-0.136	0.006
-745.171	15.222	-0.458	0.367
-744.156	-45.002	-0.152	-0.077
-743.142	695.699	0.079	-0.211
-742.127	-200.000	0.084	0.640
-741.112	16.394	0.136	0.110
-740.098	800.000	0.044	0.193
-739.083	800.000	-0.025	0.092
-738.069	1.845	0.146	0.108
-737.054	-38.081	-0.179	0.097
-736.039	-189.960	0.175	-0.002
-735.025	-59.206	0.390	0.172
-734.010	19.046	-0.354	-0.290
-732.996	-33.269	-0.358	-0.202
-731.981	57.804	-0.090	-0.090
-730.966	-200.000	-0.014	-0.134
-729.952	144.172	0.055	0.076
-728.937	-101.276	-0.136	0.034
-727.923	111.862	-0.075	0.093
-726.908	50.938	-0.161	-0.156
-725.894	129.222	0.248	-0.324
-724.879	-200.000	0.035	0.393
-723.864	-200.000	0.127	0.570
-722.850	-132.838	0.230	0.030
-721.835	-115.646	-0.067	-0.013
-720.821	52.616	-0.192	-0.188
-719.806	-200.000	-0.030	0.185
-718.791	-200.000	0.026	-0.213
-717.777	-30.706	0.110	-0.064
-716.762	339.698	0.016	-0.033
-715.748	35.924	-0.109	0.098
-714.733	256.747	-0.081	0.142
-713.718	103.410	-0.058	-0.070
-712.704	556.894	0.179	-0.439
-711.689	-38.186	-0.058	-0.032
-710.675	-36.533	-0.161	0.089
-709.660	163.950	-0.066	-0.096
-708.645	451.298	-0.156	0.352
-707.631	270.644	0.125	0.225
-706.616	800.000	-0.015	0.064
-705.602	137.362	-0.199	-0.266
-704.587	-33.305	-0.040	-0.023
-703.572	-102.283	-0.325	-0.080
-702.558	-57.484	-0.213	-0.096
-701.543	-65.615	-0.081	-0.033
-700.529	108.569	0.388	-0.473
-699.514	126.178	-0.091	-0.117
-698.499	24.107	-0.445	-0.375
-697.485	800.000	-0.059	-0.186
-696.470	-20.185	0.171	0.108
-695.456	-131.904	-0.315	0.042
-694.441	-200.000	-0.055	-0.325
-693.426	246.996	-0.037	-0.064
-692.412	-200.000	0.026	0.218
-691.397	-200.000	0.002	-0.205
-690.383	-28.580	-0.376	0.221
-689.368	-200.000	-0.035	0.193
-688.354	138.359	-0.119	0.159
-687.339	800.000	-0.108	0.340
-686.324	-130.614	-0.199	-0.027
-685.310	110.007	0.185	0.227
-684.295	90.681	0.146	-0.167
-683.281	-200.000	-0.024	-0.118
-682.266	-88.180	-0.355	0.109
-681.251	-171.414	-0.207	0.007
-680.237	800.000	-0.057	0.233
-679.222	-4.077	0.144	0.102
-678.208	-70.800	-0.131	-0.050
-677.193	5.011	-0.262	-0.197
-676.178	800.000	0.029	0.084
-675.164	268.808	-0.069	-0.124
-674.149	800.000	-0.025	0.098
-673.135	-54.660	-0.079	-0.036
-672.120	32.639	-0.083	0.073
-671.105	-83.953	-0.213	0.069
-670.091	3.378	0.275	-0.204
-669.076	-20.010	0.340	0.214
-668.062	-200.000	-0.005	0.064
-667.047	96.342	0.110	-0.128
-666.032	-200.000	-0.027	-0.337
-665.018	-143.147	-0.228	-0.022
-664.003	47.549	0.079	0.075
-662.989	-200.000	0.003	0.019
-661.974	377.109	-0.084	0.175
-660.959	-93.278	0.321	-0.091
-659.945	114.177	-0.127	0.158
-658.930	91.381	0.120	0.137
-657.916	286.953	-0.063	-0.116
-656.901	471.579	0.190	-0.437
-655.886	70.271	0.127	-0.133
-654.872	219.854	-0.048	0.078
-653.857	-162.252	0.263	-0.013
-652.843	-200.000	0.026	-0.426
-651.828	-186.100	0.089	0.001
-650.814	-200.000	0.007	-0.039
-649.799	-82.661	-0.122	0.040
-648.784	416.534	0.039	0.084
-647.770	11.869	-0.231	0.181
-646.755	-200.000	0.000	0.042
-645.741	-200.000	0.053	-0.367
-644.726	-96.322	0.137	0.037
-643.711	800.000	0.043	-0.190
-642.697	-135.866	0.194	0.023
-641.682	755.130	-0.128	-0.352
-640.668	189.692	0.216	-0.330
-639.653	15.359	-0.072	-0.057
-638.638	-60.189	-0.360	-0.156
-637.624	-68.610	-0.256	-0.101
-636.609	-40.143	-0.042	0.022
-635.595	-128.618	0.169	0.024
-634.580	-200.000	-0.035	-0.295
-633.565	179.508	0.137	-0.205
-632.551	266.259	0.165	-0.294
-631.536	153.099	-0.285	-0.397
-630.522	-200.000	0.091	0.446
-629.507	102.066	0.086	0.102
-628.492	-200.000	-0.009	-0.356
-627.478	108.466	0.294	0.358
-626.463	-146.179	-0.202	-0.018
-625.449	-149.104	0.387	0.032
-624.434	111.188	-0.177	0.217
-623.419	-140.197	0.170	0.018
-622.405	-30.091	-0.089	0.051
-621.390	-170.941	0.158	0.005
-620.376	275.497	-0.077	0.138
-619.361	-200.000	0.012	0.165
-618.346	-200.000	-0.005	-0.169
-617.332	177.769	-0.155	-0.230
-616.317	800.000	0.074	0.232
-615.303	-25.619	-0.149	-0.090
-614.288	25.542	0.297	0.251
-613.273	-51.544	0.124	-0.059
-612.259	-62.666	0.189	-0.080
-611.244	-200.000	-0.041	0.224
-610.230	58.518	-0.309	-0.308
-609.215	-200.000	0.039	-0.249
-608.201	-104.640	-0.317	0.074
-607.186	-47.444	0.223	0.110
-606.171	-200.000	0.011	0.084
-605.157	-27.038	-0.112	0.066
-604.142	339.444	0.074	0.146
-603.128	-200.000	0.043	-0.287
-602.113	29.814	-0.268	-0.232
-601.098	800.000	-0.116	-0.388
-600.084	638.577	0.028	-0.073
-599.069	-180.469	-0.500	0.011
-598.055	-99.799	0.293	-0.074
-597.040	-200.000	0.035	-0.314
-596.025	800.000	0.036	-0.123
-595.011	800.000	-0.094	0.296
-593.996	-200.000	-0.035	0.218
-592.982	124.362	-0.094	0.121
-591.967	153.483	-0.231	0.322
-590.952	394.504	0.038	0.080
-589.938	-8.584	-0.115	0.078
-588.923	-94.460	-0.088	0.024
-587.909	389.201	0.040	-0.085
-586.894	800.000	-0.095	0.345
-585.879	-200.000	-0.007	0.111
-584.865	-74.764	0.273	-0.100
-583.850	-101.846	-0.377	-0.093
-582.836	800.000	-0.148	-0.467
-581.821	-18.486	0.094	-0.060
-580.806	416.158	-0.090	-0.196
-579.792	-75.286	0.087	0.032
-578.777	-8.796	0.337	-0.230
-577.763	-200.000	-0.000	-0.312
-576.748	-92.043	0.267	-0.077
-575.733	-200.000	-0.082	-0.493
-574.719	800.000	0.011	-0.038
-573.704	118.917	-0.183	-0.230
-572.690	800.000	0.078	0.250
-571.675	45.749	-0.229	-0.215
-570.661	58.869	0.314	-0.314
-569.646	35.038	0.078	-0.069
-568.631	-200.000	0.026	0.323
-567.617	-23.522	-0.041	-0.025
-566.602	-85.563	0.383	-0.121
-565.588	800.000	-0.048	-0.198
-564.573	-125.432	0.325	0.050
-563.558	51.081	-0.141	-0.136
-562.544	-174.092	-0.280	0.008
-561.529	-200.000	0.019	-0.166
-560.515	-61.322	-0.192	0.082
-559.500	12.946	-0.218	0.171
-558.485	-127.610	0.425	0.063
-557.471	-200.000	-0.010	0.119
-556.456	587.394	-0.127	0.318
-555.442	-17.139	0.131	0.084
-554.427	54.045	-0.300	-0.293
-553.412	-107.589	-0.330	-0.073
-552.398	-200.000	0.014	-0.313
-551.383	-14.616	0.197	-0.128
-550.369	573.137	0.099	0.245
-549.354	-200.000	0.116	-0.565
-548.339	-167.473	0.234	-0.010
-547.325	800.000	-0.092	-0.286
-546.310	-124.990	-0.189	0.030
-545.296	-81.166	0.139	0.047
-544.281	-99.851	-0.163	0.041
-543.266	-135.712	0.285	0.034
-542.252	-115.352	-0.258	0.049
-541.237	-132.856	-0.153	-0.020
-540.223	-127.235	-0.174	-0.026
-539.208	103.329	-0.133	-0.158
-538.193	-117.929	0.255	0.046
-537.179	100.829	-0.146	-0.172
-536.164	354.485	0.130	-0.261
-535.150	199.788	0.201	0.313
-534.135	-91.985	0.495	-0.142
-533.121	-33.707	-0.492	0.275
-532.106	800.000	-0.067	0.240
-531.091	661.375	-0.163	-0.426
-530.077	-107.718	-0.109	0.024
-529.062	54.864	-0.100	0.097
-528.048	800.000	0.097	0.281
-527.033	-200.000	0.002	0.214
-526.018	179.678	-0.171	-0.255
-525.004	26.112	0.146	-0.124
-523.989	-7.444	-0.235	-0.162
-522.975	282.622	-0.051	0.094
-521.960	-92.626	-0.229	0.065
-520.945	-200.000	0.029	0.179
-519.931	-59.270	0.143	0.062
-518.916	-64.013	0.296	-0.123
-517.902	321.435	0.097	0.187
-516.887	-200.000	0.017	0.392
-515.872	-102.949	-0.293	-0.070
-514.858	800.000	-0.010	0.032
-513.843	-57.156	0.218	0.097
-512.829	-91.559	0.099	0.029
-511.814	-27.265	0.092	0.054
-510.799	-118.203	0.037	0.007
-509.785	-59.875	0.192	0.083
-508.770	389.398	0.217	0.455
-507.756	4.093	0.066	0.049
-506.741	-157.665	0.387	-0.023
-505.726	-200.000	0.034	0.185
-504.712	800.000	0.042	0.138
-503.697	70.238	0.201	0.210
-502.683	191.460	0.207	-0.316
-501.668	434.060	0.101	-0.222
-500.653	-61.394	-0.304	-0.130
-499.639	788.585	-0.055	-0.153
-498.624	169.444	-0.308	-0.445
-497.610	4.418	0.126	-0.093
-496.595	-21.667	-0.172	0.106
-495.581	51.334	-0.245	0.236
-494.566	800.000	-0.086	0.243
-493.551	-46.009	0.236	0.118
-492.537	245.090	-0.142	-0.242
-491.522	-36.527	-0.098	-0.053
-490.508	108.878	0.073	-0.088
-489.493	-131.905	-0.055	0.007
-488.478	-155.381	-0.071	0.005
-487.464	21.016	-0.104	-0.085
-486.449	-77.796	-0.176	0.062
-485.435	-31.006	-0.078	0.044
-484.420	304.567	-0.048	-0.091
-483.405	316.697	0.087	0.166
-482.391	-64.335	0.081	-0.034
-481.376	-16.186	0.356	0.229
-480.362	-11.607	-0.077	-0.051
-479.347	348.761	0.096	-0.192
-478.332	-96.148	-0.188	-0.050
-477.318	49.766	0.187	0.179
-476.303	111.927	0.063	-0.078
-475.289	231.956	-0.136	0.227
-474.274	104.423	0.250	0.298
-473.259	-28.382	-0.119	0.070
-472.245	39.687	-0.044	0.040
-471.230	43.847	0.061	0.056
-470.216	-200.000	-0.012	0.392
-469.201	-148.079	-0.018	-0.001
-468.186	-103.661	0.195	0.046
-467.172	453.312	-0.094	0.210
-466.157	31.957	-0.208	-0.182
-465.143	-107.596	0.294	0.065
-464.128	-200.000	-0.077	0.421
-463.113	29.648	0.146	-0.126
-462.099	-98.807	-0.403	-0.104
-461.084	59.484	-0.203	-0.203
-460.070	-200.000	-0.033	0.277
-459.055	590.522	0.088	0.219
-458.040	-200.000	0.035	-0.212
-457.026	800.000	-0.039	0.110
-456.011	287.175	-0.143	-0.261
-454.997	-48.932	-0.150	0.073
-453.982	-108.786	-0.225	-0.049
-452.968	-45.175	-0.228	0.115
-451.953	-38.905	0.227	-0.121
-450.938	-200.000	-0.068	0.466
-449.924	-59.757	-0.117	-0.051
-448.909	134.895	-0.259	0.340
-447.895	-14.549	0.147	0.095
-446.880	173.516	0.064	0.094
-445.865	743.691	-0.028	0.075
-444.851	48.027	0.372	0.351
-443.836	-55.243	-0.112	0.051
-442.822	-95.632	-0.176	0.048
-441.807	-48.559	-0.207	0.101
-440.792	562.480	0.080	-0.196
-439.778	-57.860	-0.223	0.099
-438.763	800.000	0.027	-0.083
-437.749	260.874	0.052	-0.091
-436.734	145.132	-0.111	-0.151
-435.719	400.607	0.137	0.290
-434.705	-76.919	-0.043	-0.015
-433.690	-200.000	-0.002	-0.153
-432.676	-1.115	-0.072	0.052
-431.661	800.000	0.067	0.209
-430.646	466.303	0.062	-0.141
-429.632	-101.826	-0.227	0.055
-428.617	-188.664	0.178	0.002
-427.603	-37.134	-0.277	-0.150
-426.588	234.110	0.118	0.196
-425.573	-200.000	0.035	0.227
-424.559	-200.000	-0.024	0.218
-423.544	-173.338	-0.191	0.006
-422.530	-200.000	0.068	0.329
-421.515	-59.907	0.287	0.124
-420.500	258.775	-0.072	0.125
-419.486	-106.054	-0.096	-0.022
-418.471	161.408	0.250	0.353
-417.457	41.379	0.103	-0.094
-416.442	-39.544	0.103	-0.055
-415.428	-37.993	0.390	-0.209
-414.413	800.000	-0.050	-0.219
-413.398	419.685	0.148	0.321
-412.384	-200.000	-0.409	-0.002
-411.369	-190.388	0.275	0.003
-410.355	-13.068	0.350	-0.229
-409.340	154.101	0.213	0.296
-408.325	232.964	-0.130	0.215
-407.311	107.939	0.201	0.241
-406.296	800.000	0.075	-0.280
-405.282	-200.000	-0.005	0.032
-404.267	244.908	-0.011	0.018
-403.252	-93.152	-0.074	0.021
-402.238	52.428	-0.230	0.222
-401.223	-200.000	-0.068	0.394
-400.209	236.611	0.084	-0.141
-399.194	-126.730	-0.153	-0.023
-398.179	-84.069	-0.292	-0.094
-397.165	-200.000	-0.002	0.336
-396.150	175.259	-0.109	-0.159
-395.136	-152.151	-0.336	-0.025
-394.121	120.313	0.134	0.168
-393.106	-136.770	0.177	-0.021
-392.092	-104.588	-0.163	-0.038
-391.077	75.716	0.205	-0.219
-390.063	35.218	-0.063	0.056
-389.048	544.435	-0.121	0.292
-388.033	-141.815	0.253	-0.026
-387.019	398.381	-0.046	0.097
-386.004	184.616	-0.074	0.110
-384.990	50.911	0.185	0.176
-383.975	-33.937	0.019	0.010
-382.960	101.325	0.132	0.155
-381.946	-200.000	0.003	0.083
-380.931	-92.941	0.090	0.025
-379.917	-129.163	0.148	-0.021
-378.902	566.988	0.058	-0.143
-377.888	208.324	-0.117	0.184
-376.873	619.125	0.137	0.348
-375.858	800.000	-0.065	0.254
-374.844	-165.200	-0.309	-0.014
-373.829	-144.260	0.174	-0.016
-372.815	184.898	0.093	-0.139
-371.800	84.120	0.035	-0.039
-370.785	-98.547	0.395	0.102
-369.771	800.000	-0.063	-0.188
-368.756	-137.792	-0.203	-0.023
-367.742	-60.021	0.250	0.108
-366.727	-200.000	0.018	-0.123
-365.712	-39.464	-0.382	-0.202
-364.698	-148.594	0.254	0.021
-363.683	3.944	-0.191	-0.140
-362.669	-199.652	-0.391	-0.002
-361.654	38.445	0.294	0.264
-360.639	-45.719	0.305	0.152
-359.625	800.000	-0.073	0.248
-358.610	34.176	0.100	0.088
-357.596	-54.587	0.237	0.108
-356.581	-171.122	0.307	0.010
-355.566	-62.763	0.273	-0.114
-354.552	-80.935	-0.062	0.021
-353.537	287.058	-0.161	-0.293
-352.523	-200.000	0.007	-0.092
-351.508	184.150	-0.077	0.114
-350.493	800.000	0.093	-0.263
-349.479	-200.000	0.020	-0.206
-348.464	-82.757	-0.070	-0.023
-347.450	76.531	0.160	0.171
-346.435	-200.000	0.012	-0.184
-345.420	-162.741	-0.193	0.009
-344.406	-156.849	-0.198	0.012
-343.391	800.000	-0.151	-0.437
-342.377	17.534	0.248	0.199
-341.362	-77.016	0.066	-0.023
-340.348	-175.177	0.302	-0.008
-339.333	83.394	-0.068	-0.074
-338.318	236.654	-0.097	0.161
-337.304	-117.950	-0.130	0.023
-336.289	-19.422	0.117	-0.073
-335.275	-107.769	-0.474	0.104
-334.260	800.000	-0.080	0.267
-333.245	-73.395	-0.418	-0.154
-332.231	169.570	0.152	0.219
-331.216	800.000	-0.117	0.415
-330.202	-124.123	-0.270	0.043
-329.187	-200.000	-0.018	-0.117
-328.172	-157.382	-0.155	0.009
-327.158	144.422	-0.183	0.246
-326.143	246.091	0.050	-0.085
-325.129	-109.910	-0.439	0.093
-324.114	-138.381	0.022	-0.002
-323.099	-61.733	0.035	-0.015
-322.085	50.747	-0.157	0.149
-321.070	800.000	0.089	0.301
-320.056	-139.286	0.142	0.015
-319.041	-200.000	-0.036	0.328
-318.026	-46.862	0.212	-0.104
-317.012	353.199	0.104	0.208
-315.997	553.909	-0.068	0.165
-314.983	-32.059	-0.043	-0.024
-313.968	-43.798	0.171	-0.086
-312.953	-110.093	-0.127	-0.027
-311.939	754.554	0.148	-0.402
-310.924	-82.862	0.209	0.068
-309.910	-200.000	-0.035	-0.212
-308.895	-54.587	0.173	-0.079
-307.880	399.413	0.077	-0.163
-306.866	-28.395	0.168	-0.097
-305.851	44.625	0.243	-0.225
-304.837	456.271	0.032	-0.072
-303.822	-47.172	0.355	-0.174
-302.807	560.829	-0.089	-0.215
-301.793	-0.667	-0.217	-0.155
-300.778	-78.549	-0.384	-0.132
-299.764	-59.969	-0.150	-0.064
-298.749	-28.944	0.053	-0.031
-297.735	-40.510	0.366	0.191
-296.720	71.669	-0.074	-0.077
-295.705	-57.182	0.201	0.089
-294.691	37.137	-0.182	0.162
-293.676	800.000	-0.028	-0.116
-292.662	800.000	-0.139	-0.562
-291.647	14.253	-0.156	-0.122
-290.632	-63.637	0.218	0.090
-289.618	-200.000	0.032	-0.160
-288.603	800.000	-0.022	-0.087
-287.589	74.017	0.220	-0.231
-286.574	800.000	-0.071	-0.225
-285.559	800.000	-0.021	0.087
-284.545	-24.494	0.217	0.130
-283.530	-29.941	0.153	-0.088
-282.516	-62.574	-0.089	-0.037
-281.501	142.704	0.011	0.014
-280.486	96.302	0.168	0.193
-279.472	800.000	-0.028	-0.122
-278.457	320.511	-0.037	-0.071
-277.443	800.000	0.077	0.217
-276.428	114.918	0.041	-0.050
-275.413	-103.301	0.359	-0.085
-274.399	-102.235	0.108	0.026
-273.384	-65.773	0.372	0.149
-272.370	-91.180	-0.155	-0.045
-271.355	-48.013	-0.273	-0.132
-270.340	-44.853	-0.016	-0.008
-269.326	-169.959	0.275	0.010
-268.311	-136.136	0.316	0.037
-267.297	534.747	-0.137	0.325
-266.282	-55.037	-0.231	-0.104
-265.267	550.943	-0.167	0.403
-264.253	141.561	0.209	0.278
-263.238	-59.849	-0.134	-0.058
-262.224	-19.079	0.004	-0.003
-261.209	-200.000	-0.031	-0.180
-260.195	17.994	0.272	-0.218
-259.180	-122.776	0.188	-0.031
-258.165	53.402	-0.134	0.129
-257.151	92.484	-0.065	0.074
-256.136	104.158	0.109	-0.128
-255.122	-99.781	0.388	-0.098
-254.107	-200.000	0.026	0.169
-253.092	-81.274	-0.412	-0.136
-252.078	67.608	0.174	-0.179
-251.063	37.403	-0.070	-0.062
-250.049	800.000	0.068	-0.208
-249.034	744.653	-0.049	-0.133
-248.019	-114.330	-0.217	0.042
-247.005	5.740	0.161	0.119
-245.990	45.040	-0.117	-0.108
-244.976	770.820	-0.053	-0.144
-243.961	800.000	0.010	0.039
-242.946	42.675	-0.197	0.180
-241.932	-200.000	-0.040	0.352
-240.917	-135.940	-0.096	-0.011
-239.903	183.025	0.118	-0.174
-238.888	-200.000	-0.031	-0.155
-237.873	-200.000	0.026	0.170
-236.859	144.215	0.045	0.061
-235.844	6.341	-0.196	0.146
-234.830	-58.440	-0.344	-0.150
-233.815	212.893	0.091	-0.144
-232.800	52.248	0.246	-0.235
-231.786	206.845	0.044	0.069
-230.771	284.664	0.076	0.138
-229.757	343.385	-0.219	-0.429
-228.742	800.000	-0.062	-0.182
-227.727	90.693	0.099	-0.111
-226.713	165.489	0.100	0.141
-225.698	800.000	0.033	0.127
-224.684	-200.000	-0.066	0.307
-223.669	-31.225	0.174	-0.098
-222.655	-200.000	0.031	0.360
-221.640	-200.000	0.007	0.251
-220.625	-145.896	-0.224	0.020
-219.611	-200.000	0.013	0.226
-218.596	-9.831	-0.341	-0.227
-217.582	583.720	-0.088	-0.216
-216.567	-13.250	0.197	-0.128
-215.552	50.980	-0.219	0.208
-214.538	-36.712	-0.322	-0.173
-213.523	349.262	0.059	-0.117
-212.509	-200.000	-0.013	-0.350
-211.494	88.745	0.176	0.196
-210.479	-125.283	0.055	0.008
-209.465	-200.000	0.009	-0.371
-208.450	-111.077	-0.118	-0.024
-207.436	-200.000	-0.006	-0.118
-206.421	8.844	0.220	-0.166
-205.406	800.000	-0.038	0.129
-204.392	-193.452	0.164	-0.001
-203.377	800.000	0.069	-0.222
-202.363	-200.000	-0.011	0.074
-201.348	375.056	-0.180	-0.367
-200.333	800.000	0.052	-0.192
-199.319	-200.000	0.037	-0.184
-198.304	-91.552	0.119	-0.034
-197.290	-2.345	-0.201	0.141
-196.275	-200.000	-0.008	0.091
-195.260	-13.773	0.209	-0.135
-194.246	-116.555	0.341	0.063
-193.231	800.000	0.027	-0.092
-192.217	-47.053	-0.218	0.107
-191.202	-140.176	0.116	0.012
-190.187	88.162	-0.208	0.231
-189.173	485.857	-0.114	-0.259
-188.158	-150.131	-0.293	0.023
-187.144	137.599	-0.060	0.079
-186.129	595.890	-0.021	-0.051
-185.114	-9.952	-0.119	-0.079
-184.100	800.000	-0.006	-0.022
-183.085	-145.228	0.103	-0.009
-182.071	-102.797	0.222	0.053
-181.056	188.878	0.057	-0.085
-180.042	130.237	-0.044	-0.056
-179.027	-128.675	-0.048	0.007
-178.012	52.974	0.066	-0.063
-176.998	-137.796	-0.093	-0.010
-175.983	-106.889	-0.223	0.050
-174.969	800.000	-0.025	-0.098
-173.954	279.880	0.090	0.161
-172.939	15.139	-0.111	0.087
-171.925	260.514	0.054	0.093
-170.910	305.007	-0.111	-0.205
-169.896	-200.000	-0.039	0.172
-168.881	800.000	0.064	-0.218
-167.866	-77.036	0.096	-0.034
-166.852	-200.000	-0.201	-0.000
-165.837	-149.775	-0.183	-0.014
-164.823	11.003	0.162	0.124
-163.808	-200.000	-0.006	-0.075
-162.793	-200.000	-0.035	0.190
-161.779	-76.432	0.166	-0.058
-160.764	-20.078	0.101	-0.063
-159.750	800.000	0.083	0.291
-158.735	-117.611	-0.099	-0.018
-157.720	201.697	-0.117	0.179
-156.706	-25.503	0.190	-0.112
-155.691	307.684	-0.050	-0.092
-154.677	18.223	-0.204	0.163
-153.662	-174.422	-0.338	0.010
-152.647	-103.145	0.151	0.036
-151.633	-143.672	0.217	-0.021
-150.618	800.000	0.054	-0.222
-149.604	-132.026	-0.134	0.017
-148.589	80.874	-0.076	-0.082
-147.574	-200.000	-0.008	-0.472
-146.560	-200.000	-0.023	-0.115
-145.545	266.319	-0.133	-0.232
-144.531	-117.039	0.235	0.043
-143.516	52.333	0.149	0.142
-142.502	-200.000	-0.047	-0.379
-141.487	42.786	-0.160	0.146
-140.472	800.000	0.044	0.135
-139.458	43.821	0.280	0.256
-138.443	800.000	0.056	-0.169
-137.429	256.727	-0.100	-0.172
-136.414	584.224	-0.121	0.297
-135.399	-139.147	-0.339	0.037
-134.385	-167.004	-0.353	0.014
-133.370	417.665	-0.042	-0.089
-132.356	-157.708	0.312	0.019
-131.341	-148.786	-0.179	0.014
-130.326	-42.904	-0.062	0.031
-129.312	-104.785	0.100	0.023
-128.297	-200.000	0.016	0.073
-127.283	-200.000	0.003	-0.053
-126.268	-200.000	-0.067	0.301
-125.253	-200.000	0.120	0.599
-124.239	-74.768	0.343	0.123
-123.224	-79.159	0.332	0.112
-122.210	-117.573	0.237	-0.043
-121.195	572.162	-0.023	0.055
-120.180	71.868	0.074	0.077
-119.166	-46.051	-0.226	0.111
-118.151	-62.985	-0.197	0.081
-117.137	800.000	0.124	0.418
-116.122	-178.956	0.244	-0.006
-115.107	800.000	0.061	0.182
-114.093	-3.903	-0.343	0.237
-113.078	-33.607	0.161	0.089
-112.064	436.562	0.116	0.252
-111.049	800.000	-0.091	-0.393
-110.034	290.453	-0.132	0.239
-109.020	28.902	0.259	-0.219
-108.005	203.302	-0.160	-0.247
-106.991	485.555	0.085	-0.193
-105.976	132.017	0.128	0.165
-104.962	147.790	-0.097	0.131
-103.947	-25.883	-0.331	0.194
-102.932	-74.220	0.082	-0.029
-101.918	-146.281	-0.245	-0.021
-100.903	-140.840	-0.455	0.047
-99.889	123.469	0.177	0.222
-98.874	-200.000	-0.021	-0.126
-97.859	171.436	0.142	-0.204
-96.845	-2.793	-0.081	-0.056
-95.830	14.881	0.311	0.243
-94.816	800.000	-0.063	-0.206
-93.801	800.000	-0.026	0.082
-92.786	17.303	-0.125	-0.099
-91.772	274.245	-0.064	-0.112
-90.757	-101.382	-0.256	0.062
-89.743	26.908	-0.215	-0.180
-88.728	-158.856	0.126	0.007
-87.713	519.546	0.117	-0.273
-86.699	-15.267	-0.241	-0.154
-85.684	457.176	-0.129	0.286
-84.670	800.000	-0.041	0.115
-83.655	-59.452	-0.505	0.216
-82.640	-23.827	0.180	0.107
-81.626	-200.000	-0.057	0.291
-80.611	18.592	0.219	-0.174
-79.597	800.000	-0.090	0.281
-78.582	640.715	-0.053	0.134
-77.567	44.107	-0.074	-0.068
-76.553	-92.221	-0.107	-0.030
-75.538	70.972	-0.083	-0.086
-74.524	-111.699	0.130	0.026
-73.509	13.683	-0.398	0.308
-72.494	-78.662	0.115	-0.039
-71.480	800.000	0.126	0.450
-70.465	118.502	-0.040	-0.049
-69.451	800.000	0.007	-0.028
-68.436	800.000	-0.080	-0.275
-67.422	-148.114	-0.144	0.012
-66.407	-89.569	0.178	-0.052
-65.392	173.242	0.098	-0.141
-64.378	-200.000	-0.047	-0.246
-63.363	168.865	-0.191	-0.272
-62.349	18.353	0.031	0.025
-61.334	24.544	-0.852	-0.702
-60.319	-200.000	0.012	0.253
-59.305	-200.000	-0.113	-0.658
-58.290	419.415	0.266	0.566
-57.276	742.841	0.588	1.575
-56.261	-200.000	75.915	526.971
-55.246	548.235	1311.502	3126.927
-54.232	146.183	2550.234	3406.872
-53.217	120.046	2231.249	2755.148
-52.203	54.398	1671.561	1602.703
-51.188	45.860	1391.729	1281.324
-50.173	42.133	1345.640	1216.268
-49.159	60.626	1380.034	1360.959
-48.144	68.004	1398.693	1424.373
-47.130	46.241	1360.995	1255.154
-46.115	42.043	1345.024	1214.972
-45.100	41.801	1340.258	1209.159
-44.086	41.778	1337.679	1206.642
-43.071	41.819	1334.923	1204.356
-42.057	41.651	1332.956	1201.526
-41.042	41.756	1330.818	1200.177
-40.027	41.751	1329.377	1198.804
-39.013	41.680	1328.086	1197.165
-37.998	41.794	1326.022	1195.939
-36.984	41.832	1324.198	1194.476
-35.969	41.889	1322.067	1192.844
-34.954	41.977	1320.194	1191.632
-33.940	41.920	1318.927	1190.101
-32.925	41.994	1317.436	1189.146
-31.911	42.045	1315.899	1188.014
-30.896	41.996	1314.105	1186.057
-29.881	41.960	1312.978	1184.780
-28.867	41.987	1311.468	1183.534
-27.852	41.918	1309.760	1181.538
-26.838	41.914	1308.570	1180.394
-25.823	42.031	1307.127	1179.731
-24.809	41.981	1305.600	1178.012
-23.794	41.953	1304.110	1176.455
-22.779	42.033	1303.046	1175.919
-21.765	41.945	1301.657	1174.104
-20.750	42.008	1300.119	1173.038
-19.736	41.876	1299.114	1171.314
-18.721	41.979	1297.985	1170.854
-17.706	41.896	1296.632	1169.102
-16.692	41.855	1295.453	1167.751
-15.677	42.006	1293.945	1167.224
-14.663	41.885	1292.881	1165.512
-13.648	41.756	1291.833	1163.774
-12.633	41.597	1290.916	1161.976
-11.619	41.794	1289.864	1162.127
-10.604	41.681	1289.650	1161.231
-9.590	41.770	1288.124	1160.331
-8.575	41.707	1287.248	1159.130
-7.560	41.795	1286.313	1158.751
-6.546	41.777	1285.180	1157.579
-5.531	41.771	1284.339	1156.740
-4.517	41.816	1283.446	1156.148
-3.502	41.799	1282.636	1155.277
-2.487	41.725	1281.740	1153.997
-1.473	41.792	1277.602	1150.609
-0.458	40.665	1262.702	1130.730
0.556	35.895	1243.587	1090.194
1.571	32.284	1247.302	1072.796
2.586	31.448	1262.060	1080.562
3.600	30.150	1251.766	1064.207
4.615	21.366	1173.767	950.290
5.629	7.582	1087.286	810.310
6.644	1.327	1062.211	760.299
7.659	0.797	1059.299	755.502
8.673	0.588	1057.914	753.404
9.688	0.551	1056.846	752.395
10.702	1.246	1055.974	755.167
11.717	9.552	1068.408	805.682
12.731	20.989	1084.825	875.763
13.746	24.158	1087.978	894.165
14.761	23.240	1086.688	888.422
15.775	23.035	1085.594	886.421
16.790	22.950	1084.456	884.992
17.804	22.637	1084.621	883.479
18.819	22.942	1083.780	884.243
19.834	22.904	1083.270	883.559
20.848	23.089	1082.334	883.640
21.863	22.962	1082.191	882.812
22.877	22.831	1081.921	881.856
23.892	22.921	1080.297	880.906
24.907	22.933	1080.148	880.765
25.921	22.886	1079.088	879.590
26.936	22.732	1077.747	877.651
27.950	22.906	1076.240	877.211
28.965	22.619	1074.405	874.215
29.980	22.710	1072.490	873.030
30.994	23.027	1071.665	873.850
32.009	22.942	1070.880	872.711
33.023	22.859	1069.376	870.997
34.038	22.823	1068.717	870.206
35.053	22.877	1068.290	870.049
36.067	22.948	1067.422	869.617
37.082	23.056	1066.045	868.945
38.096	23.091	1065.944	868.961
39.111	23.186	1065.112	868.672
40.126	23.030	1063.885	866.828
41.140	22.777	1061.862	863.867
42.155	22.590	1060.377	861.668
43.169	22.502	1059.865	860.746
44.184	22.591	1058.745	860.195
45.199	22.496	1057.670	858.778
46.213	22.494	1056.918	858.082
47.228	22.590	1056.012	857.737
48.242	22.724	1055.013	857.506
49.257	22.834	1054.593	857.623
50.271	22.884	1053.756	857.105
51.286	22.933	1053.195	856.815
52.301	22.920	1051.809	855.547
53.315	22.871	1050.787	854.400
54.330	22.898	1049.840	853.686
55.344	22.849	1049.533	853.128
56.359	22.858	1048.100	851.928
57.374	22.704	1046.875	850.114
58.388	22.630	1046.662	849.512
59.403	22.479	1046.091	848.243
60.417	22.464	1044.920	847.148
61.432	22.468	1044.167	846.483
62.447	22.716	1043.545	847.092
63.461	22.671	1042.745	846.154
64.476	22.644	1041.841	845.216
65.490	22.514	1040.861	843.722
66.505	22.648	1040.013	843.604
67.520	22.738	1039.168	843.275
68.534	22.462	1038.329	841.200
69.549	22.241	1037.181	839.142
70.563	22.107	1036.217	837.647
71.578	22.216	1035.576	837.574
72.593	22.012	1034.433	835.603
73.607	22.124	1034.320	835.970
74.622	22.335	1034.078	836.707
75.636	22.534	1033.110	836.793
76.651	22.304	1032.167	834.865
77.666	22.263	1031.182	833.801
78.680	22.316	1030.511	833.433
79.695	22.343	1030.158	833.206
80.709	22.581	1028.965	833.288
81.724	22.463	1028.306	832.123
82.739	22.504	1027.812	831.847
83.753	22.866	1027.514	833.239
84.768	23.152	1026.261	833.496
85.782	23.176	1025.388	832.827
86.797	23.208	1024.023	831.794
87.812	22.949	1023.175	829.816
88.826	23.005	1022.584	829.525
89.841	23.120	1021.783	829.344
90.855	23.226	1020.437	828.675
91.870	23.206	1019.303	827.587
92.884	23.075	1018.477	826.230
93.899	22.986	1017.485	824.937
94.914	23.251	1016.783	825.531
95.928	22.979	1016.027	823.574
96.943	22.671	1014.712	821.002
97.957	22.472	1013.411	818.953
98.972	22.287	1012.224	817.061
99.987	22.722	1011.357	818.310
101.001	22.742	1011.170	818.178
102.016	22.809	1010.011	817.479
103.030	22.835	1008.765	816.516
104.045	22.539	1008.127	814.559
105.060	22.473	1007.226	813.453
106.074	22.580	1006.713	813.461
107.089	22.925	1006.252	814.610
108.103	22.940	1004.691	813.342
109.118	22.635	1003.489	810.894
110.133	22.735	1002.352	810.362
111.147	22.501	1001.047	808.163
112.162	22.352	999.749	806.360
113.176	22.548	999.764	807.199
114.191	22.559	999.014	806.575
115.206	22.280	997.479	803.986
116.220	22.140	997.033	802.916
117.235	22.254	996.548	802.976
118.249	22.328	995.454	802.359
119.264	22.198	994.456	800.894
120.279	22.366	993.852	801.103
121.293	22.470	992.768	800.630
122.308	22.423	991.942	799.681
123.322	22.223	991.052	797.981
124.337	22.315	989.651	797.200
125.352	21.755	987.986	793.254
126.366	21.701	987.034	792.178
127.381	22.416	987.386	795.624
128.395	22.948	986.442	797.193
129.410	22.857	986.034	796.384
130.424	22.875	984.651	795.273
131.439	22.770	983.867	794.100
132.454	22.808	983.322	793.760
133.468	22.867	982.180	793.032
134.483	22.861	981.583	792.451
135.497	23.167	980.532	792.909
136.512	23.212	979.786	792.433
137.527	23.207	978.546	791.341
138.541	23.234	978.143	791.062
139.556	23.091	977.481	789.818
140.570	23.211	976.314	789.344
141.585	23.205	975.662	788.718
142.600	23.152	974.672	787.614
143.614	23.389	973.960	788.021
144.629	23.469	973.331	787.800
145.643	23.287	971.934	785.791
146.658	23.104	970.841	784.025
147.673	23.029	969.538	782.572
148.687	22.889	968.668	781.181
149.702	22.882	967.413	780.071
150.716	23.034	966.406	779.860
151.731	23.023	965.887	779.324
152.746	23.314	965.134	779.928
153.760	23.278	964.688	779.342
154.775	23.370	963.691	778.871
155.789	23.294	963.241	778.105
156.804	23.190	962.002	776.579
157.819	23.227	961.562	776.317
158.833	23.513	960.653	776.766
159.848	23.451	959.851	775.777
160.862	23.242	958.489	773.697
161.877	23.291	957.492	773.037
162.892	23.371	956.839	772.789
163.906	23.366	955.459	771.585
164.921	23.173	955.316	770.563
165.935	23.207	953.990	769.572
166.950	23.202	953.287	768.914
167.964	23.287	952.403	768.504
168.979	23.178	951.181	766.975
169.994	23.138	950.317	766.036
171.008	23.327	949.821	766.388
172.023	23.395	948.880	765.856
173.037	23.119	947.847	763.761
174.052	22.904	946.703	761.847
175.067	23.000	946.108	761.715
176.081	23.043	946.149	761.862
177.096	22.992	945.182	760.800
178.110	22.788	944.068	758.958
179.125	22.688	942.926	757.544
180.140	22.697	943.080	757.637
181.154	22.796	942.566	757.584
182.169	23.124	942.912	759.201
183.183	23.223	942.406	759.153
184.198	23.113	941.372	757.779
185.213	23.181	940.121	756.998
186.227	23.265	939.697	756.949
187.242	23.314	938.687	756.278
188.256	23.306	938.404	755.947
189.271	23.301	937.699	755.289
190.286	23.156	936.570	753.699
191.300	22.559	934.946	749.783
192.315	21.723	933.465	744.976
193.329	21.658	933.016	744.277
194.344	22.597	933.569	748.643
195.359	23.166	933.512	750.945
196.373	23.262	932.766	750.685
197.388	23.160	932.039	749.604
198.402	23.014	931.849	748.765
199.417	23.250	930.734	748.804
200.432	22.863	929.939	746.460
201.446	22.748	929.190	745.310
202.461	22.774	928.985	745.189
203.475	22.001	926.530	739.895
204.490	21.285	925.011	735.602
205.504	22.228	925.486	739.887
206.519	22.841	925.394	742.327
207.534	22.822	925.514	742.277
208.548	23.224	925.027	743.509
209.563	23.046	924.271	742.089
210.577	22.933	923.630	741.033
211.592	23.402	922.856	742.311
212.607	23.358	922.290	741.606
213.621	23.345	921.583	740.919
214.636	23.392	920.968	740.556
215.650	23.295	919.843	739.181
216.665	23.549	919.096	739.572
217.680	23.537	918.222	738.756
218.694	23.097	917.404	736.199
219.709	22.785	916.669	734.248
220.723	22.973	916.641	734.941
221.738	23.138	916.049	735.086
222.753	23.265	915.030	734.731
223.767	23.259	914.654	734.340
224.782	23.473	914.468	735.015
225.796	23.489	913.814	734.489
226.811	22.884	911.929	730.409
227.826	22.367	910.746	727.260
228.840	22.420	910.364	727.108
229.855	22.444	909.606	726.539
230.869	22.152	908.817	724.638
231.884	22.380	908.877	725.563
232.899	23.142	909.013	728.747
233.913	23.106	907.876	727.624
234.928	23.173	907.374	727.434
235.942	23.034	907.003	726.499
236.957	22.754	906.000	724.482
237.972	22.699	905.676	723.935
238.986	22.909	905.131	724.296
240.001	22.888	904.704	723.803
241.015	23.018	904.098	723.789
242.030	23.034	903.453	723.273
243.045	23.310	902.394	723.489
244.059	23.351	902.351	723.556
245.074	23.068	901.908	721.982
246.088	22.796	900.188	719.432
247.103	22.992	900.064	720.068
248.117	23.603	900.046	722.480
249.132	23.889	899.900	723.463
250.147	23.993	899.123	723.197
251.161	24.081	898.576	723.048
252.176	24.022	897.809	722.127
253.190	24.061	897.368	721.869
254.205	24.256	897.014	722.308
255.220	24.208	896.406	721.561
256.234	23.955	895.888	720.056
257.249	23.843	894.842	718.700
258.263	24.017	893.844	718.536
259.278	24.092	893.136	718.207
260.293	24.092	893.109	718.121
261.307	23.969	891.793	716.503
262.322	23.943	890.963	715.670
263.336	23.027	889.694	710.905
264.351	22.124	887.060	705.116
265.366	22.131	887.261	705.243
266.380	23.217	887.681	709.870
267.395	23.513	887.801	711.092
268.409	23.587	886.875	710.582
269.424	23.758	886.474	710.881
270.439	23.727	886.172	710.456
271.453	23.787	885.425	710.032
272.468	24.076	884.646	710.499
273.482	24.149	884.451	710.571
274.497	23.633	883.598	707.765
275.512	23.239	882.751	705.454
276.526	23.685	882.279	706.791
277.541	24.079	881.976	708.052
278.555	23.659	881.400	705.858
279.570	23.618	880.174	704.651
280.585	23.684	879.744	704.504
281.599	23.729	878.714	703.795
282.614	23.126	877.574	700.435
283.628	23.146	876.779	699.818
284.643	23.461	877.099	701.258
285.657	23.163	875.761	698.950
286.672	22.662	875.111	696.391
287.687	23.350	875.112	699.043
288.701	23.490	874.357	698.930
289.716	23.020	873.373	696.231
290.730	23.058	872.770	695.841
291.745	22.867	871.859	694.303
292.760	23.041	871.833	694.904
293.774	24.078	871.859	698.936
294.789	24.411	871.894	700.210
295.803	24.497	871.204	699.931
296.818	24.527	870.418	699.356
297.833	24.087	869.334	696.699
298.847	23.861	868.623	695.185
299.862	24.133	868.696	696.245
300.876	24.374	868.076	696.628
301.891	24.376	867.463	696.082
302.906	23.853	866.460	693.178
303.920	23.971	865.883	693.113
304.935	24.510	865.453	694.806
305.949	24.374	865.427	694.195
306.964	24.005	864.860	692.244
307.979	24.184	864.527	692.610
308.993	24.486	864.324	693.559
310.008	24.363	863.466	692.333
311.022	24.253	862.861	691.359
312.037	24.256	861.543	690.257
313.052	23.879	861.175	688.438
314.066	22.944	859.564	683.475
315.081	22.684	858.773	681.781
316.095	23.618	859.186	685.661
317.110	24.003	858.902	686.857
318.125	23.353	857.303	683.016
319.139	22.362	855.583	677.770
320.154	22.178	855.455	676.899
321.168	23.076	855.850	680.610
322.183	23.807	855.882	683.386
323.197	23.851	856.032	683.616
324.212	24.105	855.582	684.172
325.227	24.065	854.889	683.401
326.241	24.178	853.983	683.049
327.256	23.953	853.357	681.629
328.270	24.022	852.217	680.920
329.285	23.624	851.767	678.977
330.300	23.466	850.799	677.543
331.314	23.728	850.634	678.355
332.329	24.052	850.592	679.497
333.343	24.337	850.364	680.342
334.358	24.188	850.180	679.566
335.373	24.432	849.408	679.820
336.387	24.625	849.526	680.589
337.402	24.689	849.605	680.835
338.416	24.541	848.942	679.681
339.431	24.786	848.541	680.232
340.446	24.834	848.051	679.961
341.460	24.936	847.093	679.520
342.475	24.695	846.646	678.187
343.489	24.831	846.644	678.639
344.504	24.848	846.648	678.649
345.519	25.067	845.949	678.855
346.533	25.148	845.121	678.437
347.548	25.110	844.725	677.919
348.562	25.120	844.119	677.407
349.577	24.986	843.862	676.638
350.592	24.967	842.811	675.661
351.606	25.101	842.210	675.624
352.621	24.703	841.858	673.785
353.635	24.607	841.058	672.723
354.650	24.242	839.183	669.792
355.665	23.226	837.560	664.627
356.679	23.603	837.495	665.932
357.694	24.031	837.242	667.273
358.708	23.931	836.633	666.354
359.723	24.336	836.576	667.768
360.738	24.704	836.153	668.747
361.752	24.792	835.464	668.466
362.767	25.108	835.325	669.476
363.781	25.447	834.986	670.412
364.796	25.356	834.808	669.869
365.810	25.379	834.133	669.352
366.825	25.407	833.618	668.986
367.840	25.175	832.907	667.492
368.854	24.847	831.863	665.379
369.869	24.765	831.727	664.904
370.883	24.639	831.545	664.234
371.898	24.593	831.314	663.820
372.913	24.736	830.454	663.605
373.927	24.837	829.667	663.291
374.942	24.965	829.564	663.623
375.956	25.206	829.205	664.169
376.971	25.293	828.996	664.264
377.986	25.499	828.140	664.282
379.000	25.434	827.718	663.643
380.015	25.226	826.959	662.209
381.029	25.331	826.580	662.235
382.044	25.437	826.132	662.207
383.059	25.291	825.925	661.446
384.073	25.403	825.317	661.313
385.088	25.438	824.540	660.762
386.102	25.103	823.743	658.833
387.117	25.146	823.310	658.585
388.132	24.594	822.081	655.522
389.146	24.398	821.173	654.019
390.161	24.750	821.086	655.183
391.175	25.203	820.759	656.523
392.190	24.793	819.897	654.274
393.205	23.472	817.639	647.595
394.219	22.012	816.026	640.934
395.234	21.908	816.090	640.546
396.248	23.530	817.101	647.207
397.263	24.876	818.305	653.016
398.278	24.923	817.601	652.570
399.292	24.716	816.861	651.169
400.307	24.746	816.464	650.904
401.321	24.803	816.133	650.790
402.336	25.253	815.857	652.145
403.350	25.509	816.152	653.255
404.365	25.909	815.985	654.515
405.380	26.063	815.439	654.578
406.394	26.162	814.685	654.275
407.409	26.060	814.136	653.408
408.423	26.030	814.089	653.204
409.438	26.122	813.614	653.098
410.453	26.152	813.488	653.045
411.467	26.018	812.880	652.014
412.482	25.991	812.160	651.283
413.496	26.142	812.046	651.680
414.511	25.947	811.968	650.855
415.526	26.118	811.105	650.722
416.540	26.073	810.027	649.637
417.555	25.862	809.582	648.465
418.569	25.679	809.310	647.530
419.584	25.640	808.993	647.078
420.599	25.689	807.708	646.172
421.613	92.104	1255.961	1358.805
422.628	79.000	1321.313	1358.917
