DTS Sentinel unit serial number:	SN413079Multiplexer serial number:	ORYXHardware model number:	OX4-SRSoftware version number:	ORYX F/W v4.00 Oryx Data Collector v3.7.2.0data status	okinstallation	princeton_trtdifferential loss correction	single-endedforward channel	channel 1reverse channel	N/Adate	2019/09/11time	04:16:11forward acquisition time	60.00reverse acquisition time	0.00gamma	496.2192k internal	0.2331k external	0.2331temperature offset calibration	0.9921default loss term (dB/km)	0.3790temperature slope calibration	1.0000multiplexer offset coefficient	1.0000multiplexer slope coefficient	1.0000fibre end	0.00T internal ref (°C)	29.56T ext. ref 1 (°C)	-0.30T ext. ref 2 (°C)	23.42length (m)	temperature (°C)	Stokes	anti-Stokes-747.200	-92.698	-0.113	-0.032
-746.185	-200.000	-0.036	0.299
-745.171	-200.000	0.544	-0.002
-744.156	25.541	0.099	0.083
-743.142	-121.417	0.262	-0.044
-742.127	-60.730	0.145	0.062
-741.112	-36.577	-0.347	0.188
-740.098	-169.918	-0.349	-0.013
-739.083	253.931	-0.126	0.216
-738.069	-200.000	-0.007	-0.191
-737.054	-73.436	-0.245	0.090
-736.039	-137.690	-0.047	-0.005
-735.025	-75.419	0.405	-0.145
-734.010	82.361	0.167	-0.182
-732.996	-200.000	-0.036	-0.365
-731.981	-176.315	-0.245	0.006
-730.966	83.669	-0.264	0.290
-729.952	-200.000	-0.075	-0.366
-728.937	8.240	0.131	0.099
-727.923	-200.000	-0.029	-0.143
-726.908	210.571	0.182	-0.287
-725.894	-200.000	-0.032	-0.191
-724.879	-101.269	0.111	0.027
-723.864	209.830	-0.177	-0.279
-722.850	-110.781	-0.397	0.082
-721.835	653.578	0.093	-0.240
-720.821	185.461	-0.056	0.084
-719.806	-102.641	-0.128	0.031
-718.791	104.475	-0.040	0.048
-717.777	115.262	0.097	0.120
-716.762	-200.000	0.006	0.132
-715.748	97.365	0.254	-0.293
-714.733	-141.211	0.205	0.021
-713.718	-0.082	0.216	-0.155
-712.704	-157.759	0.213	-0.013
-711.689	-116.971	-0.090	0.017
-710.675	-59.338	-0.053	-0.023
-709.660	345.747	0.029	0.058
-708.645	-149.315	-0.064	-0.005
-707.631	-33.412	0.213	-0.118
-706.616	103.859	-0.245	0.290
-705.602	166.114	0.160	-0.228
-704.587	-127.078	-0.135	0.020
-703.572	63.942	-0.248	-0.251
-702.558	67.672	0.294	0.302
-701.543	-8.118	0.074	0.050
-700.529	-118.988	0.059	-0.010
-699.514	800.000	-0.040	0.131
-698.499	-200.000	0.002	0.080
-697.485	93.712	-0.094	-0.107
-696.470	-23.266	-0.222	0.134
-695.456	-0.105	0.097	-0.070
-694.441	-31.801	-0.246	-0.139
-693.426	-100.439	-0.193	-0.048
-692.412	56.409	-0.008	0.007
-691.397	-53.401	0.277	-0.128
-690.383	-36.903	-0.295	-0.159
-689.368	214.972	-0.154	0.246
-688.354	-97.667	-0.173	-0.045
-687.339	-123.138	-0.091	-0.015
-686.324	-45.466	-0.074	-0.037
-685.310	-92.614	0.103	0.029
-684.295	34.084	0.100	-0.087
-683.281	243.196	-0.149	-0.251
-682.266	-46.590	0.180	0.089
-681.251	800.000	-0.069	0.270
-680.237	178.098	-0.185	-0.271
-679.222	-63.693	0.381	-0.157
-678.208	12.192	0.195	-0.151
-677.193	-200.000	-0.043	-0.386
-676.178	-121.103	-0.134	0.022
-675.164	104.765	0.135	-0.159
-674.149	46.036	-0.143	0.133
-673.135	297.345	0.102	-0.189
-672.120	-67.039	0.163	0.065
-671.105	-63.430	0.201	0.083
-670.091	35.994	-0.252	0.223
-669.076	319.002	0.078	-0.148
-668.062	-73.664	-0.070	0.026
-667.047	472.522	-0.075	0.169
-666.032	-136.544	-0.066	0.008
-665.018	800.000	0.068	-0.208
-664.003	-143.179	0.066	-0.006
-662.989	-16.213	0.137	0.088
-661.974	407.078	-0.099	-0.209
-660.959	106.576	0.095	0.113
-659.945	-75.228	-0.068	-0.024
-658.930	5.815	0.298	0.221
-657.916	268.590	-0.125	0.220
-656.901	-79.748	-0.175	-0.059
-655.886	-200.000	0.016	0.376
-654.872	-136.825	0.264	0.030
-653.857	-138.358	0.170	0.019
-652.843	-104.693	-0.206	0.048
-651.828	-20.468	-0.182	0.112
-650.814	800.000	0.156	-0.533
-649.799	-28.272	-0.165	-0.095
-648.784	60.733	0.342	-0.340
-647.770	-59.089	0.117	-0.051
-646.755	-14.420	0.175	-0.113
-645.741	-200.000	0.074	0.390
-644.726	-150.458	-0.202	-0.016
-643.711	800.000	-0.043	-0.167
-642.697	-45.046	0.204	0.102
-641.682	-29.425	0.039	0.022
-640.668	-112.384	-0.086	0.017
-639.653	-200.000	-0.036	-0.385
-638.638	-8.558	0.206	0.139
-637.624	-94.662	0.151	-0.041
-636.609	-132.875	-0.161	-0.021
-635.595	-2.014	-0.063	-0.044
-634.580	28.666	0.040	0.034
-633.565	-109.447	-0.222	0.047
-632.551	-101.636	-0.544	0.132
-631.536	-200.000	-0.056	0.293
-630.522	-200.000	-0.029	-0.274
-629.507	146.584	0.024	0.033
-628.492	72.693	0.115	-0.120
-627.478	177.009	0.109	0.159
-626.463	111.925	0.123	0.149
-625.449	244.113	-0.078	-0.131
-624.434	-188.062	0.106	0.001
-623.419	-153.968	0.438	0.030
-622.405	-200.000	-0.015	-0.219
-621.390	-196.188	-0.377	-0.003
-620.376	-81.425	-0.216	-0.071
-619.361	-200.000	0.012	0.052
-618.346	-8.606	0.055	0.037
-617.332	-103.250	-0.414	0.098
-616.317	-28.081	0.258	-0.150
-615.303	-200.000	0.003	-0.063
-614.288	171.159	0.044	0.064
-613.273	-200.000	-0.014	-0.073
-612.259	-200.000	-0.056	-0.657
-611.244	161.308	0.121	0.169
-610.230	-81.750	-0.253	0.083
-609.215	70.536	0.055	-0.057
-608.201	49.620	-0.059	-0.056
-607.186	800.000	0.028	0.093
-606.171	-88.769	-0.332	0.099
-605.157	98.294	0.061	-0.071
-604.142	800.000	-0.051	0.205
-603.128	39.716	-0.070	0.063
-602.113	-102.889	-0.149	0.035
-601.098	-77.852	-0.349	0.121
-600.084	800.000	0.053	0.220
-599.069	-105.467	-0.096	0.022
-598.055	14.410	0.178	0.139
-597.040	304.103	-0.046	0.086
-596.025	-121.011	0.093	-0.016
-595.011	-107.099	0.141	0.031
-593.996	-112.980	-0.048	0.010
-592.982	800.000	-0.010	0.040
-591.967	-200.000	0.001	0.542
-590.952	800.000	0.100	0.335
-589.938	-57.786	-0.183	-0.080
-588.923	-167.813	0.142	-0.006
-587.909	349.531	-0.252	-0.497
-586.894	-22.919	-0.036	0.022
-585.879	172.477	-0.135	0.194
-584.865	-200.000	-0.005	-0.120
-583.850	-176.081	-0.254	0.007
-582.836	-82.986	-0.143	0.046
-581.821	240.830	0.104	-0.174
-580.806	337.738	0.292	-0.569
-579.792	-3.633	-0.099	0.068
-578.777	-200.000	0.009	0.178
-577.763	506.713	0.102	-0.236
-576.748	800.000	0.012	0.045
-575.733	800.000	-0.027	-0.085
-574.719	-200.000	0.013	-0.231
-573.704	-31.544	0.114	-0.064
-572.690	354.245	-0.104	-0.206
-571.675	-38.520	-0.083	0.044
-570.661	-200.000	-0.030	-0.199
-569.646	-59.026	0.232	-0.100
-568.631	800.000	-0.091	0.262
-567.617	800.000	-0.072	-0.269
-566.602	29.751	-0.196	-0.167
-565.588	207.010	0.142	-0.221
-564.573	321.691	-0.141	-0.268
-563.558	23.768	0.279	0.230
-562.544	67.317	0.055	-0.056
-561.529	-195.985	0.395	-0.003
-560.515	-146.812	0.180	0.015
-559.500	-67.659	0.187	-0.073
-558.485	-7.216	0.264	0.179
-557.471	-78.355	0.127	0.043
-556.456	382.683	0.089	-0.184
-555.442	-77.492	0.264	-0.092
-554.427	132.274	0.268	0.345
-553.412	402.571	-0.085	0.178
-552.398	-200.000	0.002	-0.122
-551.383	-19.917	-0.121	-0.075
-550.369	28.813	-0.273	0.231
-549.354	-200.000	-0.082	0.422
-548.339	512.911	-0.159	-0.369
-547.325	114.113	0.068	0.083
-546.310	-41.861	-0.127	-0.065
-545.296	28.887	-0.133	-0.113
-544.281	42.449	-0.373	0.339
-543.266	792.239	-0.042	-0.115
-542.252	-41.877	-0.048	-0.025
-541.237	795.348	-0.125	-0.342
-540.223	39.065	-0.028	0.025
-539.208	-200.000	0.036	0.312
-538.193	-77.009	0.168	-0.058
-537.179	155.954	0.114	-0.157
-536.164	-51.292	-0.265	0.124
-535.150	-200.000	-0.008	0.473
-534.135	50.509	-0.101	-0.095
-533.121	28.511	-0.045	0.038
-532.106	179.974	0.119	-0.174
-531.091	30.068	-0.141	0.120
-530.077	177.428	0.228	0.332
-529.062	-103.555	-0.264	-0.062
-528.048	202.077	0.119	-0.183
-527.033	269.554	0.076	-0.134
-526.018	-200.000	0.043	-0.197
-525.004	22.972	0.177	0.145
-523.989	290.453	-0.079	-0.143
-522.975	-173.181	0.339	-0.010
-521.960	-200.000	0.008	0.384
-520.945	-30.888	-0.360	-0.203
-519.931	-200.000	0.041	0.198
-518.916	800.000	-0.023	-0.087
-517.902	412.840	0.010	-0.020
-516.887	104.091	-0.044	-0.052
-515.872	25.166	-0.299	0.247
-514.858	261.001	0.155	0.268
-513.843	-200.000	0.019	-0.191
-512.829	533.477	0.111	-0.263
-511.814	35.664	0.107	0.094
-510.799	-55.229	-0.111	0.050
-509.785	-130.365	0.265	-0.036
-508.770	800.000	0.017	-0.064
-507.756	11.664	0.086	-0.066
-506.741	323.423	0.136	0.259
-505.726	800.000	-0.093	-0.356
-504.712	647.542	0.118	0.301
-503.697	-12.090	-0.112	0.073
-502.683	716.214	0.045	-0.118
-501.668	-129.073	-0.133	0.019
-500.653	95.187	-0.169	0.192
-499.639	-87.683	0.281	-0.085
-498.624	6.305	0.043	0.032
-497.610	307.661	-0.077	-0.144
-496.595	248.533	0.036	0.061
-495.581	320.693	-0.168	0.317
-494.566	461.602	-0.106	0.236
-493.551	-39.114	0.339	-0.178
-492.537	-68.643	0.042	-0.016
-491.522	-200.000	0.040	0.368
-490.508	145.040	0.079	0.106
-489.493	-127.864	0.168	0.024
-488.478	116.546	-0.195	-0.238
-487.464	628.529	0.126	-0.318
-486.449	800.000	-0.076	0.214
-485.435	-72.356	0.574	-0.212
-484.420	-155.543	0.502	0.032
-483.405	137.871	0.130	0.170
-482.391	723.306	-0.034	-0.090
-481.376	-138.156	0.578	0.064
-480.362	-109.393	0.258	-0.054
-479.347	-153.092	0.179	0.013
-478.332	-200.000	0.036	0.239
-477.318	-200.000	0.016	-0.142
-476.303	-81.293	0.406	0.134
-475.289	55.992	0.114	-0.110
-474.274	800.000	0.087	0.310
-473.259	-24.488	-0.164	-0.097
-472.245	61.617	-0.161	-0.159
-471.230	-9.843	-0.180	0.119
-470.216	17.808	0.123	0.098
-469.201	232.449	0.192	0.314
-468.186	-200.000	0.005	0.078
-467.172	-38.516	0.051	0.027
-466.157	-200.000	-0.015	-0.211
-465.143	47.373	-0.095	0.088
-464.128	10.948	-0.065	0.049
-463.113	543.760	-0.165	0.392
-462.099	800.000	0.043	-0.177
-461.084	-27.140	-0.232	0.135
-460.070	800.000	-0.049	0.174
-459.055	-190.222	0.437	0.005
-458.040	-75.717	0.299	0.105
-457.026	-200.000	0.006	-0.089
-456.011	-176.956	0.386	0.010
-454.997	454.538	0.137	0.301
-453.982	132.623	0.147	0.189
-452.968	-25.201	0.201	-0.118
-451.953	-126.940	-0.191	-0.028
-450.938	800.000	0.058	-0.222
-449.924	64.582	-0.035	0.035
-448.909	-38.341	-0.071	-0.038
-447.895	18.635	0.081	-0.065
-446.880	800.000	-0.021	-0.074
-445.865	151.367	-0.163	-0.221
-444.851	7.921	-0.155	0.116
-443.836	-97.106	0.072	-0.019
-442.822	-200.000	-0.030	-0.362
-441.807	-7.606	0.246	0.165
-440.792	36.677	-0.063	0.055
-439.778	-153.334	0.380	0.026
-438.763	-159.172	0.105	-0.006
-437.749	-111.287	-0.221	0.045
-436.734	-100.970	-0.330	0.081
-435.719	-105.541	-0.302	0.068
-434.705	-79.504	-0.398	-0.134
-433.690	152.338	-0.217	-0.295
-432.676	800.000	0.043	0.138
-431.661	334.378	0.028	-0.054
-430.646	363.763	-0.196	-0.392
-429.632	-13.999	0.099	0.064
-428.617	538.678	0.163	-0.385
-427.603	-19.737	-0.278	0.171
-426.588	800.000	0.063	-0.222
-425.573	-158.491	0.170	-0.010
-424.559	-200.000	0.004	-0.181
-423.544	-14.700	0.130	-0.083
-422.530	-200.000	-0.015	-0.194
-421.515	161.410	0.341	-0.475
-420.500	-41.020	0.059	-0.031
-419.486	525.337	-0.096	0.226
-418.471	-32.827	-0.152	0.084
-417.457	-11.533	0.059	-0.038
-416.442	668.054	0.050	0.130
-415.428	190.072	0.126	0.187
-414.413	-42.484	-0.054	-0.027
-413.398	97.673	0.021	-0.024
-412.384	-90.349	0.222	0.064
-411.369	-200.000	0.001	0.014
-410.355	60.342	0.191	-0.188
-409.340	-200.000	-0.017	-0.169
-408.325	-21.399	0.114	0.069
-407.311	78.901	-0.253	0.269
-406.296	800.000	0.029	0.082
-405.282	-200.000	0.016	-0.124
-404.267	-53.259	-0.134	0.061
-403.252	12.908	-0.091	-0.070
-402.238	-76.122	-0.113	-0.039
-401.223	-114.841	-0.275	0.052
-400.209	800.000	-0.112	0.372
-399.194	-134.545	0.054	0.007
-398.179	-200.000	-0.018	0.252
-397.165	-11.216	-0.114	0.075
-396.150	800.000	0.043	0.151
-395.136	89.387	-0.112	-0.124
-394.121	-59.295	0.351	-0.150
-393.106	-200.000	-0.007	-0.350
-392.092	-200.000	0.004	0.119
-391.077	-61.003	-0.213	0.089
-390.063	-88.995	0.431	-0.127
-389.048	123.852	0.313	-0.390
-388.033	-109.261	-0.097	-0.020
-387.019	-200.000	0.001	0.172
-386.004	4.257	0.066	-0.048
-384.990	55.120	-0.279	-0.267
-383.975	-200.000	-0.002	-0.125
-382.960	204.766	-0.231	-0.356
-381.946	-200.000	-0.026	-0.183
-380.931	-200.000	-0.035	-0.178
-379.917	83.764	-0.231	0.251
-378.902	-14.104	0.076	-0.049
-377.888	-200.000	-0.203	-0.001
-376.873	-200.000	0.057	-0.255
-375.858	-113.757	-0.130	-0.025
-374.844	800.000	-0.074	-0.254
-373.829	6.515	0.295	-0.218
-372.815	-52.004	0.200	-0.092
-371.800	42.367	-0.273	0.246
-370.785	-200.000	0.020	-0.162
-369.771	7.416	-0.261	-0.194
-368.756	-68.376	-0.331	-0.128
-367.742	148.910	0.027	-0.036
-366.727	-92.702	-0.238	0.066
-365.712	130.385	-0.088	0.111
-364.698	70.577	0.059	-0.061
-363.683	-158.140	-0.116	0.007
-362.669	800.000	-0.016	0.055
-361.654	432.991	-0.072	-0.155
-360.639	800.000	-0.091	-0.312
-359.625	-200.000	0.053	0.318
-358.610	-191.526	0.152	0.002
-357.596	800.000	-0.198	-0.543
-356.581	338.442	0.046	0.089
-355.566	120.318	0.148	-0.182
-354.552	437.050	-0.087	-0.188
-353.537	800.000	-0.122	-0.376
-352.523	-54.514	-0.276	-0.124
-351.508	-200.000	0.022	-0.102
-350.493	297.358	0.117	0.213
-349.479	-200.000	0.020	0.091
-348.464	-138.756	0.138	-0.015
-347.450	-173.177	-0.184	-0.006
-346.435	-137.655	0.283	0.032
-345.420	-200.000	-0.028	0.327
-344.406	612.394	0.115	-0.285
-343.391	667.358	-0.088	-0.227
-342.377	-96.289	-0.415	-0.109
-341.362	312.453	0.018	-0.034
-340.348	164.724	0.201	-0.280
-339.333	174.262	-0.207	0.297
-338.318	-78.115	-0.242	-0.082
-337.304	-137.854	-0.416	-0.046
-336.289	-42.132	-0.448	0.227
-335.275	564.367	-0.033	0.079
-334.260	-126.115	0.187	-0.028
-333.245	-200.000	-0.045	0.446
-332.231	256.635	0.124	0.211
-331.216	-200.000	0.043	-0.218
-330.202	-31.486	0.289	-0.161
-329.187	523.975	-0.051	-0.118
-328.172	132.677	0.146	-0.187
-327.158	68.394	0.182	-0.185
-326.143	193.733	0.154	0.231
-325.129	145.230	0.083	-0.110
-324.114	-70.073	0.140	-0.053
-323.099	88.193	0.115	-0.126
-322.085	-200.000	-0.040	0.260
-321.070	102.868	0.205	0.238
-320.056	49.744	-0.234	-0.218
-319.041	-75.994	-0.182	0.064
-318.026	-100.545	0.322	0.079
-317.012	217.720	0.110	0.174
-315.997	-130.623	-0.328	0.044
-314.983	71.367	0.209	-0.214
-313.968	-163.572	0.562	0.026
-312.953	331.815	-0.103	0.197
-311.939	800.000	-0.096	0.332
-310.924	-40.902	0.344	0.176
-309.910	329.064	-0.198	0.377
-308.895	152.717	-0.046	-0.063
-307.880	-200.000	-0.009	-0.139
-306.866	-200.000	0.034	0.208
-305.851	-59.579	0.150	0.064
-304.837	-200.000	-0.054	0.281
-303.822	800.000	-0.073	-0.263
-302.807	38.983	0.083	-0.073
-301.793	-200.000	-0.017	0.305
-300.778	437.794	-0.061	0.131
-299.764	-160.909	0.351	0.018
-298.749	59.059	0.331	-0.322
-297.735	325.984	-0.139	0.262
-296.720	-200.000	0.030	0.306
-295.705	-149.395	-0.131	0.010
-294.691	-11.598	-0.222	0.145
-293.676	800.000	-0.008	-0.028
-292.662	-43.518	0.113	-0.057
-291.647	-157.142	-0.208	0.013
-290.632	800.000	-0.084	0.243
-289.618	510.591	0.044	0.100
-288.603	-46.553	-0.179	-0.087
-287.589	800.000	-0.025	0.079
-286.574	-200.000	0.000	-0.416
-285.559	52.874	-0.153	0.145
-284.545	-56.864	-0.095	0.041
-283.530	-200.000	-0.004	-0.183
-282.516	39.165	0.096	-0.085
-281.501	95.659	0.054	-0.061
-280.486	55.153	0.116	-0.111
-279.472	-200.000	0.020	0.092
-278.457	-101.197	-0.242	0.059
-277.443	-200.000	-0.041	-0.274
-276.428	392.171	0.207	0.426
-275.413	-25.379	0.484	0.283
-274.399	800.000	-0.093	0.356
-273.384	12.108	0.112	0.085
-272.370	16.550	0.036	-0.028
-271.355	312.939	0.067	-0.124
-270.340	-84.892	0.121	0.037
-269.326	712.627	0.139	0.364
-268.311	188.404	-0.232	0.343
-267.297	-46.506	-0.233	-0.113
-266.282	273.638	-0.106	-0.185
-265.267	46.795	0.208	0.191
-264.253	-40.747	0.148	0.075
-263.238	800.000	-0.032	-0.098
-262.224	94.752	-0.250	0.281
-261.209	-148.971	0.205	-0.016
-260.195	-113.447	-0.364	0.070
-259.180	-200.000	-0.007	-0.255
-258.165	92.758	-0.248	0.276
-257.151	-137.585	-0.224	-0.025
-256.136	-122.692	0.210	-0.034
-255.122	-59.904	0.044	0.019
-254.107	-33.012	-0.298	0.163
-253.092	-47.237	0.306	-0.147
-252.078	113.257	-0.104	0.125
-251.063	800.000	-0.025	-0.077
-250.049	136.564	-0.186	-0.239
-249.034	49.532	-0.345	0.321
-248.019	-77.845	0.161	-0.055
-247.005	-200.000	-0.063	-0.316
-245.990	114.119	0.111	-0.133
-244.976	161.577	0.286	0.395
-243.961	134.030	0.140	-0.179
-242.946	800.000	-0.057	0.238
-241.932	-51.041	-0.318	0.147
-240.917	484.718	-0.166	0.372
-239.903	-102.899	-0.163	-0.038
-238.888	271.113	0.097	-0.168
-237.873	-200.000	-0.043	0.297
-236.859	-200.000	0.050	-0.371
-235.844	37.852	0.323	-0.283
-234.830	260.024	-0.116	-0.198
-233.815	44.437	0.104	-0.094
-232.800	-101.965	-0.123	-0.029
-231.786	800.000	-0.082	0.225
-230.771	485.602	0.093	0.209
-229.757	76.422	0.135	-0.141
-228.742	-200.000	-0.046	-0.449
-227.727	-74.729	0.280	0.099
-226.713	-32.301	-0.191	-0.105
-225.698	137.185	-0.235	0.303
-224.684	595.771	-0.166	-0.404
-223.669	-54.599	-0.183	0.082
-222.655	74.927	-0.163	-0.169
-221.640	361.599	-0.016	-0.032
-220.625	160.577	-0.241	0.331
-219.611	-200.000	0.013	0.125
-218.596	46.378	0.259	0.237
-217.582	-200.000	0.053	-0.524
-216.567	-72.724	-0.048	-0.017
-215.552	-200.000	-0.008	-0.186
-214.538	-80.346	-0.178	-0.058
-213.523	800.000	0.030	-0.116
-212.509	-100.061	-0.091	0.022
-211.494	-60.757	0.245	-0.102
-210.479	108.351	-0.186	-0.219
-209.465	-200.000	-0.011	-0.155
-208.450	800.000	-0.152	-0.426
-207.436	-167.881	0.275	-0.011
-206.421	-93.689	0.346	-0.094
-205.406	-60.248	0.179	0.075
-204.392	332.269	-0.035	-0.067
-203.377	800.000	-0.084	-0.293
-202.363	93.572	0.106	0.118
-201.348	100.406	0.069	-0.079
-200.333	24.977	-0.279	0.228
-199.319	-12.821	-0.010	-0.007
-198.304	266.857	0.164	0.282
-197.290	98.210	-0.140	0.159
-196.275	-86.318	0.400	0.121
-195.260	254.148	-0.146	0.246
-194.246	-200.000	-0.057	0.383
-193.231	800.000	0.198	-0.609
-192.217	-15.755	0.142	-0.089
-191.202	-82.766	0.292	-0.093
-190.187	-92.782	0.208	-0.057
-189.173	-67.114	-0.243	0.094
-188.158	-200.000	0.007	-0.046
-187.144	-25.306	0.134	-0.078
-186.129	-200.000	-0.026	0.261
-185.114	800.000	-0.070	-0.254
-184.100	-42.843	-0.245	0.123
-183.085	177.562	-0.139	0.199
-182.071	-27.208	0.116	0.066
-181.056	-200.000	-0.004	-0.285
-180.042	53.817	0.130	0.123
-179.027	48.524	0.396	0.366
-178.012	-141.464	-0.287	0.029
-176.998	-200.000	-0.001	-0.272
-175.983	106.994	-0.224	-0.262
-174.969	-45.899	0.153	-0.074
-173.954	-200.000	-0.013	-0.157
-172.939	-5.172	-0.302	0.205
-171.925	-74.101	-0.208	0.074
-170.910	-81.925	0.171	0.055
-169.896	49.958	0.192	0.178
-168.881	-109.932	-0.294	-0.061
-167.866	-200.000	0.031	0.252
-166.852	277.161	0.207	0.362
-165.837	232.717	-0.216	0.349
-164.823	430.785	0.167	0.355
-163.808	14.177	-0.117	0.090
-162.793	-11.172	-0.275	-0.178
-161.779	-92.125	-0.175	0.049
-160.764	-200.000	-0.043	-0.278
-159.750	-86.708	-0.262	0.079
-158.735	-166.208	0.301	0.013
-157.720	-26.421	0.241	0.139
-156.706	-33.559	0.065	-0.035
-155.691	-159.048	-0.334	0.019
-154.677	-112.055	-0.282	0.056
-153.662	-177.584	-0.156	0.004
-152.647	-154.002	-0.257	-0.017
-151.633	-62.205	-0.107	0.044
-150.618	-200.000	-0.038	0.272
-149.604	-200.000	-0.010	0.217
-148.589	138.972	-0.051	-0.066
-147.574	406.974	0.036	-0.075
-146.560	131.914	0.072	0.091
-145.545	-148.124	0.512	-0.042
-144.531	-34.166	0.124	0.067
-143.516	165.643	0.058	0.080
-142.502	288.013	0.039	0.069
-141.487	410.588	0.073	-0.152
-140.472	536.170	0.022	-0.052
-139.458	226.121	0.182	0.290
-138.443	-200.000	0.360	-0.001
-137.429	172.213	0.083	0.117
-136.414	-35.863	0.227	-0.121
-135.399	-123.168	-0.200	0.032
-134.385	21.072	0.185	-0.148
-133.370	800.000	0.088	-0.375
-132.356	-184.284	-0.208	-0.003
-131.341	27.554	-0.134	-0.111
-130.326	-68.363	-0.048	0.018
-129.312	59.863	0.111	0.108
-128.297	-172.448	0.055	-0.002
-127.283	705.749	-0.083	0.215
-126.268	445.812	0.071	0.154
-125.253	-200.000	0.010	0.131
-124.239	46.353	0.393	0.358
-123.224	-145.700	0.275	0.024
-122.210	25.311	0.163	-0.133
-121.195	82.818	0.119	-0.127
-120.180	501.148	0.152	0.344
-119.166	-200.000	-0.006	-0.130
-118.151	17.973	-0.213	0.167
-117.137	-68.064	0.211	0.081
-116.122	-12.490	0.138	-0.089
-115.107	-6.449	0.304	-0.204
-114.093	585.864	0.060	-0.145
-113.078	365.603	0.085	-0.169
-112.064	-200.000	-0.012	-0.148
-111.049	239.830	0.136	0.222
-110.034	-110.087	-0.168	0.035
-109.020	48.089	-0.119	-0.109
-108.005	-72.309	-0.113	-0.041
-106.991	800.000	0.016	-0.061
-105.976	60.822	0.113	0.110
-104.962	-88.534	-0.214	-0.063
-103.947	-12.187	-0.025	0.016
-102.932	153.098	-0.071	-0.096
-101.918	73.361	-0.059	0.061
-100.903	800.000	0.065	0.248
-99.889	-94.921	-0.249	-0.066
-98.874	93.021	-0.119	-0.132
-97.859	74.398	0.037	0.039
-96.845	-179.485	0.181	0.004
-95.830	55.854	-0.050	0.047
-94.816	-57.061	0.186	0.081
-93.801	-34.557	-0.156	0.084
-92.786	-5.221	-0.210	0.141
-91.772	-23.088	0.317	-0.187
-90.757	-98.328	0.181	-0.045
-89.743	104.792	-0.065	0.075
-88.728	347.944	0.073	0.142
-87.713	-101.517	-0.144	0.034
-86.699	25.594	0.175	0.143
-85.684	66.594	-0.182	-0.182
-84.670	-155.840	-0.225	-0.014
-83.655	22.634	0.118	-0.095
-82.640	800.000	0.063	-0.266
-81.626	216.370	-0.090	0.140
-80.611	-100.443	0.106	-0.026
-79.597	-93.227	0.165	0.045
-78.582	185.373	-0.101	0.147
-77.567	-21.519	0.023	0.014
-76.553	800.000	0.086	0.295
-75.538	-36.265	-0.167	0.089
-74.524	-68.342	-0.112	-0.043
-73.509	800.000	-0.029	0.096
-72.494	-133.317	0.352	-0.043
-71.480	301.947	-0.132	-0.239
-70.465	55.355	0.047	0.045
-69.451	800.000	-0.069	0.243
-68.436	-200.000	-0.011	-0.089
-67.422	-3.938	-0.309	-0.210
-66.407	2.768	-0.268	0.191
-65.392	-161.373	-0.090	-0.005
-64.378	-200.000	-0.042	0.256
-63.363	8.686	0.273	-0.201
-62.349	451.894	-0.118	-0.256
-61.334	28.526	-1.275	-1.057
-60.319	146.850	0.323	0.426
-59.305	-200.000	-0.148	-1.027
-58.290	235.458	0.732	1.185
-57.276	758.388	0.528	1.402
-56.261	-200.000	106.087	613.906
-55.246	502.870	1508.983	3417.762
-54.232	176.333	2700.791	3844.020
-53.217	112.087	2164.841	2562.983
-52.203	41.575	1598.729	1418.227
-51.188	33.121	1332.312	1131.510
-50.173	29.985	1291.104	1078.240
-49.159	54.319	1345.567	1269.031
-48.144	54.720	1361.098	1286.005
-47.130	33.298	1315.205	1117.849
-46.115	29.616	1297.953	1081.631
-45.100	29.426	1292.758	1076.153
-44.086	29.485	1290.416	1074.504
-43.071	29.398	1287.863	1071.827
-42.057	29.366	1285.774	1069.859
-41.042	29.497	1284.212	1069.278
-40.027	29.414	1282.593	1067.409
-39.013	29.377	1281.162	1065.961
-37.998	29.504	1278.936	1064.801
-36.984	29.614	1277.457	1064.160
-35.969	29.605	1275.211	1062.197
-34.954	29.501	1273.797	1060.376
-33.940	29.526	1272.686	1059.550
-32.925	29.565	1270.995	1058.328
-31.911	29.562	1270.134	1057.551
-30.896	29.572	1268.154	1055.918
-29.881	29.618	1267.038	1055.209
-28.867	29.678	1265.338	1054.090
-27.852	29.583	1264.378	1052.709
-26.838	29.761	1262.452	1052.077
-25.823	29.685	1261.439	1050.757
-24.809	29.587	1260.125	1049.065
-23.794	29.679	1258.477	1048.177
-22.779	29.723	1257.781	1047.800
-21.765	29.702	1256.009	1046.165
-20.750	29.734	1254.718	1045.229
-19.736	29.681	1253.265	1043.677
-18.721	29.611	1252.049	1042.229
-17.706	29.619	1251.038	1041.391
-16.692	29.554	1250.256	1040.336
-15.677	29.556	1249.347	1039.547
-14.663	29.556	1247.661	1038.101
-13.648	29.381	1247.787	1037.185
-12.633	29.409	1246.427	1036.171
-11.619	29.449	1245.215	1035.343
-10.604	29.504	1244.065	1034.658
-9.590	29.378	1243.621	1033.537
-8.575	29.543	1242.049	1033.114
-7.560	29.537	1241.309	1032.425
-6.546	29.504	1240.730	1031.717
-5.531	29.492	1239.346	1030.457
-4.517	29.417	1239.245	1029.916
-3.502	29.539	1237.911	1029.447
-2.487	29.454	1237.374	1028.488
-1.473	29.504	1232.997	1025.082
-0.458	28.066	1218.503	1005.098
0.556	22.251	1201.081	968.246
1.571	18.799	1206.321	953.259
2.586	17.990	1220.596	959.909
3.600	18.029	1209.906	951.636
4.615	13.424	1139.492	871.966
5.629	4.494	1065.257	770.935
6.644	0.079	1044.661	734.442
7.659	-0.312	1042.067	730.646
8.673	-0.405	1041.224	729.540
9.688	-0.560	1039.775	727.708
10.702	0.054	1038.454	729.699
11.717	6.006	1046.889	764.605
12.731	14.939	1059.417	817.529
13.746	19.453	1064.941	843.842
14.761	20.574	1065.802	849.935
15.775	20.537	1065.872	849.733
16.790	20.244	1065.027	847.554
17.804	20.252	1064.131	846.808
18.819	20.375	1063.974	847.205
19.834	20.449	1063.648	847.235
20.848	20.362	1063.301	846.457
21.863	20.419	1062.435	845.969
22.877	20.468	1061.512	845.400
23.892	20.272	1061.417	844.296
24.907	20.492	1060.194	844.316
25.921	20.315	1059.433	842.774
26.936	20.430	1058.002	842.120
27.950	20.310	1056.121	839.970
28.965	20.169	1054.736	838.113
29.980	20.380	1052.329	837.141
30.994	20.463	1051.737	836.996
32.009	20.451	1050.660	836.009
33.023	20.063	1049.895	833.461
34.038	20.332	1048.867	833.860
35.053	20.451	1048.570	834.121
36.067	20.491	1046.776	832.815
37.082	20.476	1046.322	832.306
38.096	20.743	1045.503	832.858
39.111	20.662	1045.063	832.047
40.126	20.502	1043.602	830.049
41.140	20.128	1042.357	827.200
42.155	20.052	1040.399	825.209
43.169	20.253	1039.312	825.233
44.184	20.112	1038.567	823.897
45.199	20.086	1037.380	822.761
46.213	20.154	1036.313	822.161
47.228	20.258	1035.720	822.113
48.242	20.273	1034.817	821.393
49.257	20.419	1034.082	821.428
50.271	20.568	1033.433	821.543
51.286	20.447	1032.590	820.232
52.301	20.512	1031.558	819.642
53.315	20.419	1031.095	818.767
54.330	20.343	1030.110	817.553
55.344	20.404	1029.252	817.087
56.359	20.392	1028.063	816.016
57.374	20.290	1026.998	814.619
58.388	20.286	1026.406	814.058
59.403	20.115	1025.276	812.288
60.417	19.996	1024.516	811.056
61.432	20.072	1024.155	811.054
62.447	20.171	1023.859	811.212
63.461	20.343	1022.615	810.960
64.476	20.285	1021.270	809.550
65.490	20.166	1020.588	808.383
66.505	20.229	1019.942	808.094
67.520	20.339	1019.002	807.789
68.534	20.055	1017.793	805.439
69.549	19.777	1016.942	803.399
70.563	19.691	1016.186	802.334
71.578	19.811	1015.516	802.288
72.593	19.716	1014.300	800.819
73.607	19.766	1014.102	800.821
74.622	20.139	1013.168	801.743
75.636	20.066	1012.772	801.019
76.651	19.996	1012.067	800.068
77.666	19.830	1011.276	798.606
78.680	19.918	1010.788	798.552
79.695	20.075	1009.491	798.182
80.709	20.116	1009.092	797.986
81.724	20.110	1008.004	797.025
82.739	20.101	1007.757	796.720
83.753	20.395	1006.765	797.212
84.768	20.677	1005.960	797.799
85.782	20.675	1005.246	797.152
86.797	20.636	1004.051	795.956
87.812	20.554	1002.802	794.521
88.826	20.634	1001.833	794.051
89.841	20.677	1001.166	793.646
90.855	20.671	1000.666	793.155
91.870	20.501	999.537	791.414
92.884	20.369	998.627	790.023
93.899	20.486	997.595	789.668
94.914	20.718	996.503	789.784
95.928	20.498	995.286	787.753
96.943	20.313	994.495	786.222
97.957	20.151	992.873	784.138
98.972	19.916	991.768	782.134
99.987	20.205	991.304	783.004
101.001	20.457	990.579	783.496
102.016	20.379	989.658	782.348
103.030	20.361	988.664	781.414
104.045	20.039	987.899	779.292
105.060	19.970	986.920	778.141
106.074	20.251	986.488	778.992
107.089	20.580	985.870	779.910
108.103	20.476	984.705	778.455
109.118	20.270	983.332	776.377
110.133	20.137	982.535	775.084
111.147	20.103	980.962	773.623
112.162	19.920	979.974	771.962
113.176	20.221	979.757	773.063
114.191	20.068	978.452	771.285
115.206	19.757	977.455	769.045
116.220	19.750	976.486	768.187
117.235	19.859	976.160	768.345
118.249	19.982	975.063	767.957
119.264	19.774	974.478	766.510
120.279	20.003	973.248	766.486
121.293	20.041	972.482	765.983
122.308	20.113	971.390	765.373
123.322	19.877	970.702	763.724
124.337	19.757	969.165	761.915
125.352	19.469	967.316	759.131
126.366	19.268	966.605	757.622
127.381	20.059	966.556	760.993
128.395	20.417	965.687	761.809
129.410	20.542	965.161	761.875
130.424	20.293	964.098	759.881
131.439	20.435	962.916	759.502
132.454	20.371	962.197	758.588
133.468	20.148	961.492	756.989
134.483	20.473	960.576	757.619
135.497	20.652	959.923	757.816
136.512	20.725	958.673	757.081
137.527	20.799	957.829	756.667
138.541	20.711	957.350	755.842
139.556	20.647	956.342	754.699
140.570	20.723	956.003	754.695
141.585	20.761	954.352	753.489
142.600	20.616	953.621	752.221
143.614	20.778	953.330	752.624
144.629	20.946	951.956	752.199
145.643	20.764	951.040	750.622
146.658	20.702	949.867	749.365
147.673	20.545	948.615	747.633
148.687	20.413	948.066	746.569
149.702	20.376	947.011	745.513
150.716	20.433	946.294	745.126
151.731	20.740	944.914	745.290
152.746	20.882	944.271	745.323
153.760	20.816	944.125	744.862
154.775	20.937	942.937	744.374
155.789	20.915	942.539	743.902
156.804	20.746	941.673	742.430
157.819	20.858	941.025	742.330
158.833	20.956	940.167	742.005
159.848	20.962	938.933	740.991
160.862	20.695	938.089	739.125
161.877	20.799	937.074	738.703
162.892	20.855	936.687	738.570
163.906	20.767	935.466	737.170
164.921	20.808	934.223	736.298
165.935	20.742	933.855	735.661
166.950	20.813	932.677	734.971
167.964	20.774	931.777	734.032
168.979	20.733	930.485	732.776
169.994	20.618	929.803	731.689
171.008	20.909	928.956	732.181
172.023	20.945	928.251	731.713
173.037	20.656	927.106	729.531
174.052	20.588	925.877	728.218
175.067	20.516	925.784	727.777
176.081	20.691	925.289	728.056
177.096	20.472	924.560	726.503
178.110	20.330	923.241	724.807
179.125	20.309	922.659	724.199
180.140	20.341	922.408	724.074
181.154	20.368	922.414	724.127
182.169	20.514	922.113	724.433
183.183	20.731	921.499	724.791
184.198	20.755	920.388	723.954
185.213	20.671	919.825	723.096
186.227	20.731	919.013	722.644
187.242	20.782	918.202	722.154
188.256	20.775	917.834	721.770
189.271	20.817	917.317	721.474
190.286	20.612	915.667	719.267
191.300	20.032	914.450	715.852
192.315	19.353	912.714	711.625
193.329	19.333	912.639	711.423
194.344	20.268	912.909	715.427
195.359	20.610	912.874	716.745
196.373	20.764	911.969	716.606
197.388	20.588	911.349	715.333
198.402	20.584	910.801	714.820
199.417	20.543	910.145	714.074
200.432	20.391	908.894	712.406
201.446	20.209	908.472	711.268
202.461	20.241	907.936	710.915
203.475	19.311	906.080	705.595
204.490	18.690	904.765	701.968
205.504	19.834	904.821	706.625
206.519	20.176	905.500	708.490
207.534	20.505	904.338	708.861
208.548	20.707	904.621	709.847
209.563	20.458	903.553	707.931
210.577	20.543	902.936	707.728
211.592	20.856	902.503	708.599
212.607	20.767	901.340	707.262
213.621	20.805	901.168	707.221
214.636	20.859	900.309	706.705
215.650	20.762	899.610	705.700
216.665	20.920	898.726	705.583
217.680	20.733	898.241	704.384
218.694	20.448	896.775	702.017
219.709	20.314	896.160	700.933
220.723	20.666	895.737	701.964
221.738	20.677	894.975	701.345
222.753	20.702	894.210	700.788
223.767	20.729	894.164	700.797
224.782	21.027	893.873	701.707
225.796	20.922	893.149	700.655
226.811	20.353	891.532	697.040
227.826	19.745	890.534	693.758
228.840	19.898	890.446	694.242
229.855	19.942	889.492	693.611
230.869	19.722	888.010	691.516
231.884	19.936	888.546	692.729
232.899	20.849	888.318	696.142
233.913	20.711	887.431	694.832
234.928	20.625	887.157	694.215
235.942	20.573	886.627	693.528
236.957	20.310	885.754	691.738
237.972	20.329	884.906	691.091
238.986	20.367	884.493	690.859
240.001	20.429	883.659	690.389
241.015	20.531	883.323	690.472
242.030	20.520	882.857	690.003
243.045	20.898	882.340	691.038
244.059	20.964	881.420	690.518
245.074	20.668	880.670	688.698
246.088	20.233	879.592	686.075
247.103	20.595	879.277	687.200
248.117	21.071	879.530	689.216
249.132	21.328	878.785	689.584
250.147	21.295	878.662	689.297
251.161	21.495	877.654	689.233
252.176	21.360	877.349	688.400
253.190	21.701	876.156	688.747
254.205	21.694	876.269	688.746
255.220	21.699	875.169	687.838
256.234	21.435	874.733	686.399
257.249	21.363	874.133	685.587
258.263	21.475	873.119	685.168
259.278	21.533	872.725	685.028
260.293	21.610	871.741	684.493
261.307	21.502	871.563	683.870
262.322	21.336	870.184	682.083
263.336	20.358	868.538	676.921
264.351	19.390	866.913	671.823
265.366	19.654	866.528	672.494
266.380	20.741	867.153	677.153
267.395	21.203	866.905	678.694
268.409	20.977	866.523	677.457
269.424	21.283	865.532	677.810
270.439	21.308	865.063	677.478
271.453	21.406	864.585	677.424
272.468	21.594	864.000	677.634
273.482	21.567	863.738	677.263
274.497	21.287	862.174	674.898
275.512	20.918	861.382	672.792
276.526	21.299	861.685	674.441
277.541	21.399	861.184	674.373
278.555	21.170	860.083	672.572
279.570	20.906	859.195	670.801
280.585	21.308	858.278	671.572
281.599	21.122	857.740	670.376
282.614	20.813	855.856	667.661
283.628	20.640	856.350	667.322
284.643	21.156	855.982	668.954
285.657	20.462	855.140	665.577
286.672	20.268	853.960	663.861
287.687	20.971	853.705	666.292
288.701	20.985	852.895	665.653
289.716	20.643	852.438	663.933
290.730	20.609	851.824	663.266
291.745	20.291	850.710	661.130
292.760	20.674	850.581	662.427
293.774	21.539	851.103	666.069
294.789	21.884	850.696	667.004
295.803	21.895	850.324	666.697
296.818	21.944	849.507	666.182
297.833	21.450	848.300	663.302
298.847	21.515	847.176	662.610
299.862	21.793	847.529	663.881
300.876	21.839	847.361	663.867
301.891	21.720	846.337	662.556
302.906	21.358	845.699	660.628
303.920	21.510	844.902	660.523
304.935	21.866	844.928	661.828
305.949	21.835	844.286	661.149
306.964	21.598	843.821	659.835
307.979	21.555	843.436	659.312
308.993	21.978	842.755	660.313
310.008	22.067	842.302	660.232
311.022	21.757	841.564	658.431
312.037	21.788	840.477	657.642
313.052	21.476	839.781	655.869
314.066	20.521	838.661	651.356
315.081	20.236	837.945	649.678
316.095	21.052	838.398	653.027
317.110	21.715	837.696	654.903
318.125	20.900	836.183	650.617
319.139	19.753	835.003	645.365
320.154	19.802	834.972	645.467
321.168	20.673	835.059	648.726
322.183	21.325	834.987	651.040
323.197	21.463	834.694	651.268
324.212	21.623	834.323	651.519
325.227	21.682	833.642	651.148
326.241	21.705	832.600	650.361
327.256	21.583	832.025	649.402
328.270	21.418	831.470	648.300
329.285	21.127	830.895	646.714
330.300	21.099	830.168	645.991
331.314	21.330	830.153	646.775
332.329	21.738	829.631	647.821
333.343	21.848	829.334	647.936
334.358	21.848	828.630	647.328
335.373	21.765	828.770	647.077
336.387	22.120	828.485	648.106
337.402	22.228	828.015	648.080
338.416	22.061	827.771	647.215
339.431	22.051	827.603	646.989
340.446	22.444	826.875	647.810
341.460	22.154	826.599	646.471
342.475	21.941	826.143	645.271
343.489	21.940	826.096	645.173
344.504	22.326	825.229	645.858
345.519	22.463	825.229	646.303
346.533	22.649	824.452	646.321
347.548	22.544	824.195	645.675
348.562	22.570	823.390	645.085
349.577	22.449	822.753	644.086
350.592	22.626	821.831	643.951
351.606	22.411	821.537	642.881
352.621	22.383	820.626	642.009
353.635	22.271	819.685	640.808
354.650	21.617	818.434	637.392
355.665	20.767	817.068	633.183
356.679	21.172	816.673	634.294
357.694	21.549	816.421	635.412
358.708	21.527	815.930	634.892
359.723	21.913	815.996	636.288
360.738	22.233	815.280	636.833
361.752	22.263	815.147	636.780
362.767	22.560	814.588	637.362
363.781	22.783	814.311	637.894
364.796	22.876	813.786	637.763
365.810	22.858	813.524	637.434
366.825	22.950	813.137	637.406
367.840	22.501	812.409	635.163
368.854	22.095	811.299	632.776
369.869	22.306	810.952	633.210
370.883	22.369	810.625	633.125
371.898	22.136	810.109	631.826
372.913	22.320	809.764	632.162
373.927	22.335	809.184	631.710
374.942	22.483	808.972	632.018
375.956	22.638	808.400	632.070
376.971	22.648	808.368	632.026
377.986	22.847	807.787	632.229
379.000	22.932	806.822	631.720
380.015	22.705	806.464	630.575
381.029	22.655	806.161	630.101
382.044	23.023	805.079	630.513
383.059	22.853	804.758	629.600
384.073	22.825	804.586	629.312
385.088	22.987	803.521	628.997
386.102	22.744	802.999	627.669
387.117	22.607	802.361	626.627
388.132	22.302	801.259	624.629
389.146	21.902	800.135	622.279
390.161	22.172	800.432	623.413
391.175	22.657	800.019	624.755
392.190	22.264	799.300	622.746
393.205	20.983	797.153	616.492
394.219	19.527	795.438	609.970
395.234	19.629	795.572	610.382
396.248	21.049	797.081	616.506
397.263	22.506	797.628	622.024
398.278	22.446	797.218	621.436
399.292	22.124	796.790	619.913
400.307	22.203	795.898	619.442
401.321	22.323	795.497	619.500
402.336	22.873	795.052	621.033
403.350	23.147	794.935	621.850
404.365	23.324	795.121	622.562
405.380	23.530	794.705	622.904
406.394	23.589	794.244	622.696
407.409	23.494	793.737	621.910
408.423	23.473	793.322	621.453
409.438	23.542	793.308	621.631
410.453	23.518	792.959	621.218
411.467	23.404	792.132	620.117
412.482	23.494	791.694	620.033
413.496	23.576	791.266	619.931
414.511	23.480	790.968	619.305
415.526	23.417	790.632	618.768
416.540	23.400	789.853	618.045
417.555	23.111	789.012	616.325
418.569	23.117	788.645	616.005
419.584	23.154	788.004	615.578
420.599	22.996	787.301	614.425
421.613	157.617	1364.587	1797.660
422.628	136.396	1448.708	1797.738
