DTS Sentinel unit serial number:	SN413079Multiplexer serial number:	ORYXHardware model number:	OX4-SRSoftware version number:	ORYX F/W v4.00 Oryx Data Collector v3.7.2.0data status	okinstallation	princeton_trtdifferential loss correction	single-endedforward channel	channel 1reverse channel	N/Adate	2019/09/10time	21:44:11forward acquisition time	60.00reverse acquisition time	0.00gamma	496.2192k internal	0.2331k external	0.2331temperature offset calibration	0.9935default loss term (dB/km)	0.3790temperature slope calibration	1.0000multiplexer offset coefficient	1.0000multiplexer slope coefficient	1.0000fibre end	0.00T internal ref (°C)	30.94T ext. ref 1 (°C)	-0.31T ext. ref 2 (°C)	24.24length (m)	temperature (°C)	Stokes	anti-Stokes-747.200	800.000	0.078	-0.276
-746.185	7.645	0.216	0.163
-745.171	-200.000	-0.016	-0.140
-744.156	624.994	-0.101	0.258
-743.142	-200.000	0.017	0.180
-742.127	645.428	-0.139	0.358
-741.112	-63.358	0.175	-0.073
-740.098	49.337	0.280	0.265
-739.083	-67.112	-0.215	0.085
-738.069	79.848	-0.360	-0.389
-737.054	524.852	0.092	-0.217
-736.039	-104.010	-0.191	0.045
-735.025	-200.000	-0.041	-0.274
-734.010	-87.189	-0.469	0.144
-732.996	264.549	0.102	-0.178
-731.981	-103.601	-0.136	0.032
-730.966	530.769	-0.073	0.175
-729.952	800.000	0.084	-0.364
-728.937	110.637	0.213	0.258
-727.923	104.563	0.191	-0.226
-726.908	-80.468	-0.405	-0.136
-725.894	154.754	-0.146	0.201
-724.879	-1.563	0.224	-0.159
-723.864	-163.190	0.176	-0.009
-722.850	-99.373	-0.094	-0.024
-721.835	-87.034	0.126	-0.039
-720.821	-134.631	0.288	-0.035
-719.806	-200.000	-0.001	0.148
-718.791	-200.000	0.016	0.352
-717.777	-65.516	-0.103	0.042
-716.762	-83.536	-0.289	-0.093
-715.748	-36.408	-0.330	-0.179
-714.733	32.228	-0.136	-0.118
-713.718	-200.000	-0.041	0.334
-712.704	800.000	-0.115	-0.417
-711.689	-37.616	0.238	-0.127
-710.675	25.838	0.235	-0.197
-709.660	-104.399	-0.257	-0.060
-708.645	14.935	0.164	-0.129
-707.631	-200.000	-0.054	-0.238
-706.616	-107.828	0.209	0.046
-705.602	272.063	0.082	-0.146
-704.587	432.922	-0.035	0.075
-703.572	-18.190	0.141	0.089
-702.558	-176.611	0.174	0.004
-701.543	293.772	0.125	0.230
-700.529	-135.624	0.261	0.031
-699.514	-200.000	-0.069	-0.336
-698.499	42.444	0.072	0.066
-697.485	-130.010	-0.134	-0.018
-696.470	-200.000	-0.054	-0.355
-695.456	-148.032	0.373	-0.031
-694.441	59.581	0.092	0.091
-693.426	-200.000	0.000	-0.077
-692.412	-152.563	-0.059	-0.004
-691.397	-200.000	-0.008	0.119
-690.383	171.310	-0.170	0.245
-689.368	183.571	0.281	-0.418
-688.354	-200.000	-0.037	-0.272
-687.339	-136.444	0.124	-0.014
-686.324	800.000	0.026	0.086
-685.310	203.295	-0.120	0.187
-684.295	-72.899	0.186	-0.069
-683.281	86.990	0.175	0.194
-682.266	73.228	-0.249	0.261
-681.251	-200.000	0.026	0.124
-680.237	76.724	0.060	0.064
-679.222	206.341	-0.181	0.283
-678.208	-43.376	0.143	-0.073
-677.193	-200.000	0.047	0.343
-676.178	-108.003	-0.316	-0.069
-675.164	-143.339	0.459	-0.044
-674.149	-200.000	-0.025	-0.239
-673.135	286.110	0.034	-0.061
-672.120	-75.716	0.145	-0.052
-671.105	-121.493	0.101	-0.017
-670.091	-200.000	0.038	-0.273
-669.076	155.050	-0.221	-0.305
-668.062	59.742	0.089	0.088
-667.047	225.419	-0.103	0.167
-666.032	-50.763	-0.322	-0.152
-665.018	-85.370	-0.241	-0.075
-664.003	238.293	-0.095	0.158
-662.989	-24.027	0.121	-0.072
-661.974	68.527	-0.173	-0.178
-660.959	-192.427	-0.245	0.002
-659.945	-115.457	0.125	-0.024
-658.930	71.151	-0.180	0.187
-657.916	-200.000	-0.060	-0.400
-656.901	81.078	0.250	-0.271
-655.886	92.073	-0.174	-0.196
-654.872	800.000	0.098	-0.379
-653.857	-91.286	-0.189	-0.054
-652.843	13.986	0.201	-0.157
-651.828	289.975	0.172	-0.314
-650.814	-95.156	-0.089	-0.024
-649.799	65.445	-0.151	0.153
-648.784	60.638	-0.146	0.145
-647.770	693.920	-0.054	0.142
-646.755	-200.000	0.033	-0.177
-645.741	-109.248	0.031	0.007
-644.726	58.679	0.096	0.094
-643.711	800.000	-0.159	0.445
-642.697	179.117	-0.164	0.241
-641.682	311.887	-0.062	-0.116
-640.668	313.259	-0.156	0.293
-639.653	-200.000	-0.015	0.100
-638.638	-97.702	-0.109	0.028
-637.624	-104.360	-0.144	-0.033
-636.609	403.135	-0.123	-0.259
-635.595	-103.635	-0.223	-0.052
-634.580	800.000	0.052	0.202
-633.565	79.953	-0.109	-0.117
-632.551	-95.504	-0.176	-0.047
-631.536	800.000	0.132	-0.400
-630.522	800.000	0.021	-0.073
-629.507	-67.247	0.162	0.064
-628.492	-200.000	0.045	-0.209
-627.478	-200.000	0.054	-0.251
-626.463	740.671	-0.050	-0.135
-625.449	70.093	-0.103	-0.106
-624.434	-158.173	-0.153	-0.009
-623.419	260.416	-0.224	-0.388
-622.405	-181.585	-0.393	-0.008
-621.390	800.000	0.093	-0.310
-620.376	-139.846	-0.248	-0.026
-619.361	-59.178	0.241	0.104
-618.346	-90.375	0.173	0.050
-617.332	-200.000	0.010	0.342
-616.317	-200.000	-0.000	0.207
-615.303	1.267	0.088	-0.064
-614.288	97.589	-0.326	-0.376
-613.273	533.781	-0.016	0.037
-612.259	800.000	0.139	-0.455
-611.244	-28.090	0.300	-0.174
-610.230	-21.020	-0.201	-0.123
-609.215	-143.624	0.130	0.012
-608.201	-71.802	0.069	0.026
-607.186	-59.299	-0.364	-0.157
-606.171	-88.580	-0.193	0.058
-605.157	-154.014	0.097	-0.007
-604.142	800.000	0.051	0.168
-603.128	37.985	-0.115	0.102
-602.113	-77.475	-0.437	-0.152
-601.098	80.751	0.059	0.063
-600.084	77.562	0.120	-0.128
-599.069	-200.000	-0.001	-0.040
-598.055	23.798	0.327	0.270
-597.040	463.589	0.084	-0.188
-596.025	322.463	-0.164	-0.313
-595.011	800.000	0.097	-0.382
-593.996	-67.863	0.129	0.050
-592.982	-124.790	-0.207	-0.032
-591.967	-82.214	0.276	-0.090
-590.952	-200.000	0.007	0.262
-589.938	-113.633	0.147	-0.029
-588.923	-15.631	0.039	-0.025
-587.909	-200.000	0.004	-0.067
-586.894	499.618	-0.171	0.394
-585.879	-114.426	-0.195	-0.037
-584.865	-11.688	-0.281	-0.185
-583.850	10.414	-0.218	-0.166
-582.836	-200.000	-0.072	0.391
-581.821	-137.710	-0.116	-0.013
-580.806	45.805	-0.149	-0.138
-579.792	800.000	-0.045	-0.164
-578.777	-200.000	-0.026	0.207
-577.763	800.000	0.066	0.199
-576.748	743.492	-0.132	0.356
-575.733	68.270	0.050	0.051
-574.719	-168.987	-0.358	0.013
-573.704	-22.564	-0.220	0.133
-572.690	800.000	0.002	0.010
-571.675	67.307	-0.006	-0.006
-570.661	42.575	-0.123	0.112
-569.646	800.000	-0.033	0.120
-568.631	800.000	0.024	0.076
-567.617	-99.157	-0.287	0.073
-566.602	138.173	-0.075	-0.098
-565.588	15.410	-0.130	-0.102
-564.573	800.000	0.015	0.054
-563.558	-200.000	-0.016	-0.183
-562.544	-16.958	0.169	-0.106
-561.529	-200.000	0.017	-0.166
-560.515	-98.356	0.176	0.045
-559.500	-38.676	-0.103	-0.054
-558.485	-200.000	-0.001	-0.157
-557.471	37.787	-0.472	0.419
-556.456	-116.054	0.246	-0.046
-555.442	-28.370	-0.101	0.058
-554.427	-149.661	0.166	0.013
-553.412	71.011	-0.096	-0.099
-552.398	-188.352	0.027	0.000
-551.383	487.440	0.122	-0.279
-550.369	-110.505	-0.280	0.058
-549.354	-191.310	0.313	-0.003
-548.339	-84.423	0.238	-0.075
-547.325	-44.956	0.244	-0.121
-546.310	31.077	0.188	0.161
-545.296	712.953	0.033	-0.088
-544.281	-3.645	0.181	0.126
-543.266	-58.870	-0.143	0.062
-542.252	-24.591	0.114	0.068
-541.237	152.656	0.141	0.192
-540.223	-123.426	0.096	0.015
-539.208	-103.800	0.195	-0.046
-538.193	290.269	0.083	0.151
-537.179	-79.251	0.279	-0.095
-536.164	-200.000	0.003	0.182
-535.150	-149.466	0.286	0.023
-534.135	538.894	0.087	0.206
-533.121	-107.680	0.107	-0.023
-532.106	46.746	-0.112	0.104
-531.091	-200.000	-0.010	-0.073
-530.077	800.000	0.091	-0.262
-529.062	94.200	-0.256	-0.291
-528.048	117.426	0.184	-0.225
-527.033	-26.394	-0.085	0.049
-526.018	-10.843	-0.092	0.061
-525.004	-200.000	-0.020	0.322
-523.989	-66.895	-0.071	-0.028
-522.975	-12.015	-0.196	0.128
-521.960	-79.855	-0.048	-0.016
-520.945	-39.322	0.153	0.080
-519.931	-200.000	-0.023	0.125
-518.916	-2.046	-0.278	-0.195
-517.902	221.229	0.111	0.179
-516.887	-200.000	0.006	0.152
-515.872	483.760	-0.043	0.098
-514.858	-94.464	-0.028	0.007
-513.843	-14.880	-0.137	-0.088
-512.829	391.779	0.115	0.237
-511.814	-101.523	-0.346	0.084
-510.799	-106.259	-0.394	0.088
-509.785	-200.000	0.044	0.305
-508.770	240.046	0.111	0.185
-507.756	164.094	-0.098	0.138
-506.741	-85.938	0.163	0.050
-505.726	-42.078	-0.198	0.101
-504.712	201.347	0.123	-0.189
-503.697	87.271	0.197	-0.218
-502.683	-98.623	-0.169	-0.043
-501.668	-85.956	-0.180	-0.056
-500.653	-63.659	0.039	-0.016
-499.639	-84.857	0.254	0.079
-498.624	27.363	0.148	0.124
-497.610	-200.000	0.002	-0.066
-496.595	-56.911	-0.123	0.054
-495.581	-77.640	-0.256	-0.088
-494.566	-65.353	0.143	0.057
-493.551	800.000	0.055	-0.178
-492.537	-200.000	0.012	-0.208
-491.522	-106.301	0.131	0.029
-490.508	-154.142	0.236	-0.016
-489.493	800.000	0.074	-0.272
-488.478	-45.254	0.150	0.074
-487.464	-67.332	-0.362	0.142
-486.449	-99.959	-0.202	0.050
-485.435	-113.852	0.034	-0.007
-484.420	-138.911	-0.255	-0.028
-483.405	-64.245	0.303	-0.123
-482.391	-4.189	-0.219	0.151
-481.376	-88.505	0.186	0.055
-480.362	248.756	-0.063	0.107
-479.347	228.256	-0.021	0.034
-478.332	26.560	0.047	-0.039
-477.318	-42.486	0.034	-0.017
-476.303	205.929	-0.126	-0.196
-475.289	-125.544	0.307	0.046
-474.274	2.327	0.264	0.190
-473.259	-73.401	-0.387	0.141
-472.245	288.421	-0.244	0.440
-471.230	161.671	0.088	-0.122
-470.216	227.586	0.223	-0.361
-469.201	396.547	-0.012	-0.026
-468.186	7.019	0.242	0.180
-467.172	614.682	-0.174	0.434
-466.157	-2.692	0.299	-0.208
-465.143	-103.223	-0.209	0.049
-464.128	-146.316	-0.055	0.005
-463.113	-31.817	-0.165	0.092
-462.099	800.000	0.062	0.185
-461.084	-200.000	0.016	-0.156
-460.070	-66.595	0.193	0.076
-459.055	-200.000	-0.012	0.242
-458.040	-200.000	0.037	-0.194
-457.026	-154.056	-0.375	-0.025
-456.011	129.572	0.181	-0.230
-454.997	90.549	0.155	-0.173
-453.982	-10.634	0.229	0.151
-452.968	-200.000	-0.010	0.158
-451.953	-200.000	0.052	-0.264
-450.938	494.000	-0.030	0.069
-449.924	-20.735	0.142	-0.087
-448.909	-133.715	0.215	0.027
-447.895	-200.000	0.000	-0.060
-446.880	31.898	0.237	-0.203
-445.865	-93.983	0.065	0.018
-444.851	384.569	-0.119	0.244
-443.836	16.854	-0.087	-0.068
-442.822	-200.000	0.113	0.499
-441.807	150.325	0.018	0.025
-440.792	203.021	0.148	0.228
-439.778	473.914	0.102	-0.228
-438.763	-123.827	0.091	-0.014
-437.749	-200.000	-0.053	0.404
-436.734	-159.111	-0.220	0.012
-435.719	-66.575	-0.424	0.167
-434.705	346.165	-0.113	0.221
-433.690	238.267	-0.094	0.155
-432.676	-123.796	0.089	-0.014
-431.661	-7.235	-0.218	-0.147
-430.646	264.718	-0.031	0.054
-429.632	-21.200	0.183	0.112
-428.617	146.899	-0.098	-0.131
-427.603	-200.000	-0.024	0.227
-426.588	-95.589	-0.157	0.042
-425.573	287.639	0.124	0.223
-424.559	-6.959	0.019	-0.013
-423.544	-36.575	-0.202	0.108
-422.530	-146.872	-0.191	0.016
-421.515	-200.000	-0.051	0.244
-420.500	-200.000	-0.025	-0.232
-419.486	-61.202	0.094	0.039
-418.471	92.204	-0.143	0.160
-417.457	-200.000	-0.062	-0.334
-416.442	-128.396	-0.367	-0.052
-415.428	120.162	0.027	-0.034
-414.413	130.146	0.034	0.043
-413.398	-200.000	-0.003	-0.166
-412.384	800.000	0.044	0.172
-411.369	-200.000	0.002	0.145
-410.355	-200.000	0.038	0.184
-409.340	-38.082	0.200	0.106
-408.325	176.302	0.122	-0.176
-407.311	-26.823	-0.211	-0.122
-406.296	208.078	0.129	-0.200
-405.282	-200.000	-0.026	-0.238
-404.267	-113.056	-0.165	-0.032
-403.252	24.975	-0.100	-0.083
-402.238	9.332	0.239	-0.179
-401.223	-200.000	0.030	0.239
-400.209	-49.351	-0.084	-0.040
-399.194	-98.534	-0.042	0.011
-398.179	86.826	-0.205	0.225
-397.165	-118.800	0.253	0.044
-396.150	-22.930	-0.076	0.046
-395.136	80.306	0.128	-0.137
-394.121	65.112	-0.097	0.097
-393.106	496.802	0.089	-0.204
-392.092	115.732	0.155	-0.188
-391.077	-4.202	-0.058	0.040
-390.063	-105.332	-0.208	0.047
-389.048	-200.000	-0.013	-0.116
-388.033	800.000	-0.127	0.425
-387.019	116.587	0.162	-0.197
-386.004	112.539	0.068	-0.082
-384.990	194.116	-0.309	0.465
-383.975	-164.091	0.385	0.018
-382.960	-57.437	0.223	0.097
-381.946	800.000	-0.098	-0.300
-380.931	-200.000	0.041	-0.238
-379.917	223.435	-0.120	-0.192
-378.902	323.117	0.155	-0.293
-377.888	-112.485	-0.180	-0.036
-376.873	-88.329	0.269	0.080
-375.858	-100.983	0.091	-0.022
-374.844	-28.660	0.322	0.184
-373.829	-172.748	-0.169	0.005
-372.815	70.699	-0.160	-0.164
-371.800	75.518	-0.206	-0.216
-370.785	265.099	0.136	-0.235
-369.771	-15.253	0.205	-0.130
-368.756	800.000	0.088	0.267
-367.742	196.533	-0.170	0.257
-366.727	-200.000	-0.008	0.422
-365.712	-200.000	0.039	0.496
-364.698	800.000	0.074	-0.205
-363.683	529.595	-0.171	-0.401
-362.669	-38.020	0.342	0.180
-361.654	-9.640	0.279	0.184
-360.639	-70.953	0.056	0.021
-359.625	-180.090	0.111	-0.002
-358.610	180.364	0.069	-0.100
-357.596	-103.005	-0.205	-0.048
-356.581	-200.000	-0.013	-0.157
-355.566	800.000	-0.088	0.333
-354.552	-154.443	0.218	-0.014
-353.537	-3.963	0.233	-0.160
-352.523	157.791	0.092	-0.126
-351.508	-95.689	-0.125	0.033
-350.493	508.788	-0.099	0.227
-349.479	341.999	0.145	-0.281
-348.464	143.685	0.119	-0.158
-347.450	133.204	-0.093	-0.119
-346.435	-78.740	0.093	0.031
-345.420	394.745	0.096	0.198
-344.406	-110.320	-0.283	0.058
-343.391	-200.000	0.004	0.133
-342.377	-89.830	0.512	-0.148
-341.362	598.596	-0.081	0.199
-340.348	768.755	0.111	0.300
-339.333	59.307	0.124	-0.121
-338.318	-14.866	0.263	0.167
-337.304	-152.864	-0.203	-0.014
-336.289	-7.774	0.059	0.040
-335.275	702.644	0.066	0.172
-334.260	778.995	-0.115	-0.311
-333.245	-200.000	-0.059	0.404
-332.231	-51.463	0.033	-0.015
-331.216	-108.727	0.234	0.050
-330.202	167.251	-0.090	-0.126
-329.187	58.252	-0.142	0.138
-328.172	-108.019	0.139	-0.030
-327.158	-76.882	0.217	0.075
-326.143	176.007	-0.082	-0.118
-325.129	-200.000	0.009	0.124
-324.114	-118.211	-0.248	0.044
-323.099	175.977	0.054	-0.077
-322.085	443.065	0.092	-0.201
-321.070	184.539	-0.114	-0.168
-320.056	-139.021	-0.057	-0.006
-319.041	11.240	-0.317	0.240
-318.026	240.801	0.143	0.236
-317.012	800.000	0.046	0.129
-315.997	-200.000	0.015	0.118
-314.983	800.000	0.084	-0.350
-313.968	5.013	0.152	0.111
-312.953	-200.000	-0.018	-0.082
-311.939	398.093	0.103	0.213
-310.924	-82.935	0.200	-0.064
-309.910	47.212	0.115	-0.106
-308.895	-0.026	0.151	-0.106
-307.880	-191.622	-0.113	0.001
-306.866	89.406	-0.036	0.040
-305.851	-86.145	0.148	0.045
-304.837	-27.875	-0.239	0.137
-303.822	-119.479	-0.339	0.058
-302.807	-44.365	-0.125	0.062
-301.793	-177.744	-0.301	0.007
-300.778	-200.000	-0.019	-0.138
-299.764	-43.723	0.353	-0.176
-298.749	249.213	-0.107	-0.179
-297.735	800.000	-0.112	-0.324
-296.720	43.873	-0.099	0.090
-295.705	-200.000	0.011	0.145
-294.691	630.187	-0.115	-0.287
-293.676	-125.012	0.202	-0.031
-292.662	-143.128	-0.235	0.022
-291.647	-83.546	0.157	0.050
-290.632	23.449	-0.183	-0.149
-289.618	-106.250	-0.258	0.057
-288.603	-74.553	-0.252	-0.090
-287.589	-66.448	-0.288	-0.113
-286.574	-64.025	0.192	-0.077
-285.559	-65.036	0.263	0.105
-284.545	81.555	0.055	-0.059
-283.530	101.514	-0.078	-0.090
-282.516	130.911	0.252	-0.320
-281.501	800.000	-0.004	-0.011
-280.486	157.152	-0.105	0.143
-279.472	186.013	0.081	-0.119
-278.457	-200.000	-0.053	-0.462
-277.443	-31.615	0.235	-0.131
-276.428	111.719	0.153	0.182
-275.413	17.484	-0.324	0.254
-274.399	-100.312	0.424	0.104
-273.384	-105.601	-0.222	0.050
-272.370	-164.648	0.049	-0.002
-271.355	-8.022	-0.103	0.068
-270.340	-85.773	-0.086	-0.026
-269.326	0.540	0.091	0.064
-268.311	-200.000	-0.003	-0.052
-267.297	50.995	0.173	-0.162
-266.282	-19.289	0.139	-0.085
-265.267	174.560	0.195	-0.279
-264.253	-71.611	0.204	-0.075
-263.238	19.517	-0.183	0.146
-262.224	53.813	0.025	0.024
-261.209	-200.000	0.046	-0.235
-260.195	521.916	0.104	0.240
-259.180	124.385	0.162	0.201
-258.165	5.524	0.037	-0.027
-257.151	-65.136	-0.332	-0.132
-256.136	-88.093	-0.360	-0.107
-255.122	-32.690	-0.188	0.103
-254.107	-97.530	0.389	-0.100
-253.092	136.979	-0.161	-0.208
-252.078	42.250	0.109	0.098
-251.063	-118.555	-0.274	-0.048
-250.049	76.810	-0.238	-0.249
-249.034	28.338	0.237	0.198
-248.019	78.792	0.216	-0.228
-247.005	5.208	-0.154	0.112
-245.990	344.169	0.105	-0.203
-244.976	-200.000	0.008	0.058
-243.961	-14.070	0.229	0.146
-242.946	105.996	0.071	0.083
-241.932	262.005	0.133	-0.228
-240.917	-29.525	-0.300	-0.169
-239.903	19.261	0.189	0.150
-238.888	19.395	0.067	-0.053
-237.873	95.121	0.173	0.194
-236.859	-95.734	-0.319	0.084
-235.844	199.141	0.047	-0.071
-234.830	565.374	0.213	-0.509
-233.815	800.000	0.051	0.142
-232.800	664.964	-0.078	0.198
-231.786	-193.548	0.284	0.002
-230.771	-200.000	0.009	0.055
-229.757	-22.535	-0.192	-0.115
-228.742	553.251	0.033	-0.079
-227.727	54.632	0.359	-0.342
-226.713	73.842	0.144	0.149
-225.698	234.511	-0.108	-0.175
-224.684	-200.000	0.012	0.194
-223.669	97.631	0.103	-0.117
-222.655	800.000	-0.014	-0.044
-221.640	480.449	-0.064	0.143
-220.625	61.807	0.115	-0.113
-219.611	-84.744	0.483	0.150
-218.596	-142.261	-0.148	-0.014
-217.582	-133.670	0.232	-0.029
-216.567	104.931	-0.130	0.151
-215.552	183.304	0.068	-0.098
-214.538	192.438	-0.025	0.038
-213.523	-20.150	-0.288	-0.175
-212.509	242.818	0.099	-0.164
-211.494	84.403	-0.173	0.186
-210.479	-125.401	0.264	0.040
-209.465	-98.648	-0.357	-0.090
-208.450	470.502	0.127	0.281
-207.436	197.438	-0.149	0.224
-206.421	142.756	-0.343	-0.450
-205.406	800.000	0.006	0.021
-204.392	-200.000	0.032	-0.250
-203.377	-151.062	0.286	-0.021
-202.363	-200.000	-0.013	0.099
-201.348	-164.778	-0.315	0.014
-200.333	75.899	0.156	0.163
-199.319	118.720	0.268	0.326
-198.304	774.767	-0.084	-0.226
-197.290	-200.000	0.010	-0.172
-196.275	191.987	-0.067	-0.100
-195.260	-77.141	0.402	-0.138
-194.246	-21.402	0.058	0.035
-193.231	158.162	0.158	-0.215
-192.217	310.550	-0.101	0.187
-191.202	366.306	-0.059	-0.117
-190.187	53.149	0.203	0.192
-189.173	-4.957	0.450	-0.305
-188.158	-73.058	0.243	-0.088
-187.144	-200.000	-0.007	0.042
-186.129	664.647	-0.068	0.172
-185.114	-75.253	0.105	0.037
-184.100	-0.569	0.192	0.134
-183.085	306.105	-0.097	-0.177
-182.071	-49.743	-0.297	-0.139
-181.056	318.644	0.097	-0.181
-180.042	-57.799	0.272	0.117
-179.027	66.644	0.125	0.125
-178.012	-82.202	-0.155	-0.050
-176.998	-200.000	-0.002	0.086
-175.983	-1.073	-0.206	0.143
-174.969	-113.435	-0.035	-0.007
-173.954	-121.477	0.192	0.031
-172.939	3.460	-0.309	-0.221
-171.925	-200.000	0.034	0.164
-170.910	-52.877	-0.166	-0.075
-169.896	97.794	-0.089	-0.100
-168.881	-76.419	0.019	0.006
-167.866	-51.881	-0.396	0.181
-166.852	304.816	0.165	-0.302
-165.837	-5.400	0.151	-0.102
-164.823	800.000	0.104	0.327
-163.808	126.249	-0.122	0.152
-162.793	32.729	-0.172	0.147
-161.779	349.960	-0.098	0.191
-160.764	-200.000	-0.001	-0.235
-159.750	800.000	0.032	0.114
-158.735	-162.206	-0.406	-0.020
-157.720	-111.735	0.193	0.039
-156.706	153.196	-0.105	-0.142
-155.691	-147.210	-0.112	0.009
-154.677	-200.000	0.006	-0.042
-153.662	134.202	0.227	-0.289
-152.647	-200.000	-0.005	0.185
-151.633	-23.856	-0.251	-0.148
-150.618	-200.000	-0.069	-0.455
-149.604	-200.000	-0.038	0.226
-148.589	451.764	0.111	0.241
-147.574	-128.829	0.170	0.024
-146.560	-93.817	0.189	0.051
-145.545	41.366	-0.079	-0.071
-144.531	151.641	-0.141	-0.189
-143.516	-147.191	0.321	0.027
-142.502	-125.605	0.391	-0.058
-141.487	4.265	-0.249	-0.179
-140.472	-89.672	0.195	0.056
-139.458	-75.744	0.289	0.101
-138.443	91.832	-0.106	-0.117
-137.429	800.000	-0.017	-0.050
-136.414	-10.772	0.336	0.218
-135.399	-102.679	0.236	-0.055
-134.385	-70.664	0.329	-0.122
-133.370	-126.126	-0.179	0.026
-132.356	150.306	-0.165	0.220
-131.341	-50.396	-0.250	0.116
-130.326	800.000	-0.077	0.220
-129.312	271.562	-0.096	-0.166
-128.297	414.389	-0.049	0.102
-127.283	-200.000	-0.011	0.191
-126.268	-152.150	0.030	0.002
-125.253	800.000	0.047	0.197
-124.239	47.362	-0.194	0.178
-123.224	32.297	-0.018	0.015
-122.210	-200.000	-0.042	-0.221
-121.195	185.558	0.113	-0.164
-120.180	53.277	0.074	-0.069
-119.166	-200.000	-0.005	-0.057
-118.151	-151.328	-0.177	0.013
-117.137	471.455	0.065	0.143
-116.122	-200.000	0.005	0.466
-115.107	800.000	-0.065	-0.203
-114.093	35.166	-0.345	-0.297
-113.078	-200.000	-0.005	-0.136
-112.064	-58.372	0.223	0.095
-111.049	-200.000	-0.056	0.319
-110.034	-130.687	-0.197	-0.026
-109.020	-200.000	-0.010	-0.230
-108.005	-102.637	-0.308	0.072
-106.991	-148.624	-0.196	-0.016
-105.976	305.430	0.122	0.223
-104.962	-184.866	0.148	-0.002
-103.947	275.001	-0.063	0.109
-102.932	-1.566	-0.170	-0.118
-101.918	393.974	0.127	-0.259
-100.903	134.822	-0.075	0.096
-99.889	63.206	0.152	0.149
-98.874	800.000	0.009	-0.029
-97.859	-200.000	0.020	-0.147
-96.845	-200.000	0.116	0.534
-95.830	283.899	0.191	0.336
-94.816	178.416	0.046	0.066
-93.801	750.921	-0.062	0.164
-92.786	-76.567	0.284	-0.098
-91.772	371.203	0.104	0.206
-90.757	88.971	0.087	0.095
-89.743	171.879	-0.126	-0.178
-88.728	-200.000	0.057	0.273
-87.713	411.677	-0.144	-0.301
-86.699	-7.481	0.369	-0.245
-85.684	-73.956	0.221	-0.079
-84.670	250.428	0.082	0.136
-83.655	189.259	0.062	0.091
-82.640	385.743	0.080	-0.162
-81.626	225.309	0.031	0.049
-80.611	-200.000	-0.042	-0.344
-79.597	783.807	0.076	-0.204
-78.582	-110.160	-0.210	0.043
-77.567	-200.000	0.026	0.260
-76.553	-3.715	0.457	0.311
-75.538	-135.919	0.235	0.027
-74.524	75.438	-0.088	-0.091
-73.509	84.443	0.126	-0.135
-72.494	-41.510	0.233	0.118
-71.480	-189.738	0.076	-0.001
-70.465	-91.429	0.204	0.057
-69.451	-137.217	-0.075	0.008
-68.436	-78.101	0.270	-0.091
-67.422	-161.133	0.120	0.006
-66.407	188.324	-0.086	-0.126
-65.392	-70.072	0.351	-0.131
-64.378	-153.220	0.215	-0.015
-63.363	-200.000	-0.045	-0.272
-62.349	244.611	-0.116	0.190
-61.334	88.901	-0.879	-0.959
-60.319	83.339	0.594	0.634
-59.305	470.450	-0.383	-0.844
-58.290	358.375	0.750	1.468
-57.276	598.746	0.582	1.416
-56.261	-200.000	100.178	620.248
-55.246	561.518	1433.691	3396.707
-54.232	187.985	2627.140	3845.252
-53.217	117.404	2144.497	2584.004
-52.203	43.224	1590.940	1423.066
-51.188	34.455	1326.773	1134.834
-50.173	31.222	1285.389	1080.716
-49.159	55.772	1335.322	1267.919
-48.144	56.732	1351.425	1288.802
-47.130	34.676	1308.659	1120.458
-46.115	31.073	1290.929	1084.334
-45.100	30.867	1286.461	1079.346
-44.086	30.934	1283.816	1077.472
-43.071	30.794	1281.709	1074.849
-42.057	30.668	1279.635	1072.344
-41.042	30.788	1278.134	1071.734
-40.027	30.827	1276.710	1070.719
-39.013	30.906	1274.370	1069.171
-37.998	30.852	1272.984	1067.656
-36.984	30.804	1271.407	1066.014
-35.969	30.911	1269.578	1065.049
-34.954	30.977	1267.614	1063.738
-33.940	30.976	1267.035	1063.204
-32.925	30.949	1265.547	1061.760
-31.911	31.055	1263.821	1060.871
-30.896	31.067	1262.290	1059.613
-29.881	30.921	1261.259	1057.876
-28.867	31.136	1259.623	1057.683
-27.852	31.099	1257.989	1056.060
-26.838	31.050	1257.375	1055.224
-25.823	31.010	1255.723	1053.568
-24.809	31.058	1254.305	1052.609
-23.794	31.028	1253.125	1051.409
-22.779	31.099	1251.916	1050.750
-21.765	31.099	1250.658	1049.652
-20.750	31.111	1248.981	1048.270
-19.736	30.941	1247.851	1046.326
-18.721	30.904	1246.975	1045.346
-17.706	30.931	1245.572	1044.275
-16.692	30.832	1244.315	1042.628
-15.677	30.921	1243.573	1042.460
-14.663	30.888	1242.602	1041.424
-13.648	30.890	1241.505	1040.473
-12.633	30.737	1240.631	1038.848
-11.619	30.919	1239.200	1038.619
-10.604	30.868	1238.650	1037.835
-9.590	30.898	1237.811	1037.255
-8.575	30.861	1236.216	1035.676
-7.560	30.801	1235.609	1034.793
-6.546	30.861	1234.864	1034.459
-5.531	30.735	1234.402	1033.329
-4.517	30.861	1232.751	1032.605
-3.502	30.873	1231.874	1031.899
-2.487	30.914	1231.304	1031.606
-1.473	30.808	1227.011	1027.386
-0.458	29.151	1212.520	1006.165
0.556	23.454	1194.834	968.430
1.571	19.682	1199.719	951.572
2.586	18.868	1214.853	958.952
3.600	18.721	1203.480	949.076
4.615	13.623	1133.261	867.017
5.629	4.349	1058.608	764.331
6.644	-0.034	1038.678	728.660
7.659	-0.324	1036.236	725.480
8.673	-0.363	1035.446	724.676
9.688	-0.508	1033.744	722.717
10.702	-0.154	1031.912	723.078
11.717	5.604	1039.823	756.435
12.731	14.809	1052.799	810.647
13.746	18.837	1057.254	833.587
14.761	19.098	1057.835	835.240
15.775	19.127	1056.979	834.630
16.790	18.811	1056.137	832.358
17.804	18.810	1055.713	831.946
18.819	18.842	1055.538	831.889
19.834	18.943	1054.717	831.657
20.848	18.907	1054.471	831.218
21.863	18.872	1053.895	830.517
22.877	18.932	1052.701	829.794
23.892	18.955	1052.189	829.430
24.907	18.855	1051.899	828.645
25.921	18.815	1050.884	827.577
26.936	18.930	1049.362	826.859
27.950	18.812	1047.429	824.696
28.965	18.695	1045.783	822.769
29.980	18.773	1043.816	821.518
30.994	19.021	1042.970	821.965
32.009	19.008	1042.092	821.139
33.023	18.844	1040.318	818.888
34.038	18.835	1039.746	818.324
35.053	19.059	1038.985	818.718
36.067	18.999	1038.083	817.647
37.082	19.081	1037.483	817.495
38.096	19.249	1036.339	817.319
39.111	19.326	1035.498	816.947
40.126	19.114	1034.539	815.112
41.140	18.832	1032.652	812.224
42.155	18.686	1031.659	810.680
43.169	18.709	1030.366	809.699
44.184	18.770	1029.360	809.125
45.199	18.559	1028.395	807.301
46.213	18.661	1027.608	807.091
47.228	18.690	1026.294	806.124
48.242	18.809	1025.148	805.714
49.257	18.933	1024.490	805.704
50.271	18.927	1023.859	805.111
51.286	18.909	1022.895	804.197
52.301	19.179	1021.433	804.237
53.315	19.043	1020.330	802.661
54.330	19.022	1019.743	802.031
55.344	18.911	1019.055	800.902
56.359	19.060	1017.720	800.477
57.374	18.712	1016.892	798.137
58.388	19.011	1015.843	798.628
59.403	18.761	1015.044	796.772
60.417	18.727	1014.456	796.080
61.432	18.792	1013.706	795.723
62.447	18.879	1012.966	795.477
63.461	18.976	1012.235	795.282
64.476	18.878	1011.207	793.950
65.490	18.708	1010.518	792.551
66.505	18.974	1009.599	792.989
67.520	18.863	1008.955	791.902
68.534	18.688	1007.656	790.008
69.549	18.473	1006.292	787.880
70.563	18.470	1005.895	787.486
71.578	18.411	1005.440	786.789
72.593	18.375	1004.296	785.660
73.607	18.542	1003.890	786.036
74.622	18.756	1003.800	786.875
75.636	18.804	1002.894	786.317
76.651	18.543	1001.543	783.993
77.666	18.463	1000.654	782.864
78.680	18.581	1000.585	783.278
79.695	18.771	999.474	783.207
80.709	18.779	998.969	782.779
81.724	18.633	998.058	781.328
82.739	18.736	997.209	781.066
83.753	19.030	996.323	781.639
84.768	19.154	995.756	781.687
85.782	19.147	994.862	780.886
86.797	19.024	993.657	779.313
87.812	19.057	993.146	778.993
88.826	19.149	991.960	778.411
89.841	19.079	991.145	777.385
90.855	19.190	989.931	776.865
91.870	19.038	989.042	775.415
92.884	19.066	987.751	774.457
93.899	19.115	986.567	773.680
94.914	19.355	985.769	774.066
95.928	19.011	985.118	771.941
96.943	18.927	983.408	770.157
97.957	18.662	982.343	768.071
98.972	18.454	981.320	766.270
99.987	18.757	980.426	766.859
101.001	18.969	979.672	767.148
102.016	18.892	978.849	766.092
103.030	18.872	977.839	765.146
104.045	18.635	977.002	763.368
105.060	18.496	975.948	761.857
106.074	18.859	974.962	762.633
107.089	19.198	974.505	763.712
108.103	19.094	973.556	762.440
109.118	18.922	972.148	760.508
110.133	19.008	971.370	760.214
111.147	18.717	970.242	757.976
112.162	18.605	968.654	756.179
113.176	18.715	968.440	756.428
114.191	18.629	967.708	755.411
115.206	18.448	966.109	753.299
116.220	18.303	965.837	752.381
117.235	18.655	964.322	752.681
118.249	18.461	964.013	751.521
119.264	18.541	963.041	751.051
120.279	18.482	962.342	750.179
121.293	18.687	961.598	750.431
122.308	18.650	960.607	749.429
123.322	18.600	959.521	748.295
124.337	18.554	957.996	746.840
125.352	17.948	956.559	743.020
126.366	18.026	955.493	742.462
127.381	18.725	954.942	745.003
128.395	19.070	954.824	746.342
129.410	19.237	953.300	745.810
130.424	19.050	952.764	744.513
131.439	19.070	951.540	743.578
132.454	18.970	950.925	742.598
133.468	18.991	949.758	741.713
134.483	19.032	949.405	741.546
135.497	19.263	948.522	741.786
136.512	19.340	947.169	740.996
137.527	19.172	946.747	739.879
138.541	19.202	945.586	739.032
139.556	19.162	945.265	738.547
140.570	19.313	943.932	738.087
141.585	19.261	942.745	736.869
142.600	19.217	941.788	735.870
143.614	19.377	941.102	735.952
144.629	19.348	940.591	735.361
145.643	19.270	939.570	734.166
146.658	19.269	937.850	732.755
147.673	19.240	937.216	732.070
148.687	19.083	936.308	730.630
149.702	18.982	935.143	729.227
150.716	19.134	934.433	729.252
151.731	19.062	934.289	728.772
152.746	19.282	933.539	729.055
153.760	19.422	932.752	728.967
154.775	19.340	932.186	728.112
155.789	19.337	931.411	727.430
156.804	19.432	930.127	726.762
157.819	19.449	929.231	726.071
158.833	19.511	928.523	725.712
159.848	19.509	927.635	724.944
160.862	19.354	926.212	723.120
161.877	19.468	925.962	723.339
162.892	19.512	924.899	722.627
163.906	19.381	923.864	721.208
164.921	19.448	923.164	720.877
165.935	19.497	922.025	720.130
166.950	19.549	920.940	719.433
167.964	19.410	920.498	718.448
168.979	19.354	919.248	717.175
169.994	19.338	918.290	716.297
171.008	19.491	918.028	716.665
172.023	19.339	916.946	715.127
173.037	19.205	915.311	713.235
174.052	19.160	914.536	712.379
175.067	19.237	914.471	712.587
176.081	19.322	914.060	712.554
177.096	19.349	913.054	711.816
178.110	19.024	912.091	709.662
179.125	18.943	911.498	708.805
180.140	18.993	911.085	708.628
181.154	19.088	910.507	708.507
182.169	19.302	910.386	709.232
183.183	19.441	909.953	709.403
184.198	19.240	909.431	708.108
185.213	19.354	908.082	707.461
186.227	19.538	907.093	707.382
187.242	19.423	906.295	706.224
188.256	19.392	905.989	705.800
189.271	19.511	904.985	705.439
190.286	19.187	904.112	703.374
191.300	18.791	902.484	700.432
192.315	18.222	901.068	696.952
193.329	18.061	900.718	695.966
194.344	18.925	901.335	699.899
195.359	19.298	901.246	701.284
196.373	19.349	900.434	700.801
197.388	19.104	899.908	699.333
198.402	19.348	898.680	699.307
199.417	19.218	898.521	698.594
200.432	18.870	897.447	696.288
201.446	18.774	896.892	695.407
202.461	18.866	896.030	695.050
203.475	17.963	894.359	690.042
204.490	17.610	893.079	687.569
205.504	18.535	893.136	691.286
206.519	19.038	893.056	693.189
207.534	19.101	892.952	693.301
208.548	19.509	892.324	694.393
209.563	19.167	891.710	692.479
210.577	19.076	891.174	691.638
211.592	19.529	890.689	693.018
212.607	19.469	889.654	691.908
213.621	19.563	888.852	691.600
214.636	19.460	888.328	690.722
215.650	19.303	887.897	689.695
216.665	19.579	887.100	690.117
217.680	19.257	886.376	688.208
218.694	19.094	884.763	686.248
219.709	18.972	884.132	685.209
220.723	19.291	883.892	686.236
221.738	19.311	883.614	686.038
222.753	19.230	882.881	685.086
223.767	19.303	882.247	684.821
224.782	19.645	881.565	685.589
225.796	19.505	881.258	684.736
226.811	19.001	879.679	681.452
227.826	18.345	878.671	678.012
228.840	18.609	877.784	678.313
229.855	18.841	876.983	678.549
230.869	18.300	876.113	675.684
231.884	18.638	876.427	677.198
232.899	19.505	875.918	680.164
233.913	19.349	875.478	679.149
234.928	19.512	874.654	679.091
235.942	19.428	874.135	678.295
236.957	19.079	873.269	676.192
237.972	19.176	872.540	675.951
238.986	19.139	871.987	675.318
240.001	19.299	871.051	675.161
241.015	19.282	870.782	674.823
242.030	19.237	870.597	674.446
243.045	19.456	869.997	674.779
244.059	19.513	869.393	674.473
245.074	19.463	868.028	673.159
246.088	18.959	867.386	670.636
247.103	19.268	866.796	671.324
248.117	19.628	867.165	672.953
249.132	19.856	866.511	673.274
250.147	19.939	865.840	673.016
251.161	20.083	864.974	672.840
252.176	19.971	864.666	672.106
253.190	20.066	864.147	672.012
254.205	20.211	863.447	671.972
255.220	20.222	863.092	671.680
256.234	20.164	861.911	670.476
257.249	20.043	861.143	669.349
258.263	19.995	860.537	668.637
259.278	20.191	859.455	668.490
260.293	20.130	859.111	667.929
261.307	20.027	858.343	666.875
262.322	19.878	857.386	665.500
263.336	19.112	855.521	661.055
264.351	18.065	853.912	655.738
265.366	18.367	853.632	656.621
266.380	19.240	854.259	660.395
267.395	19.808	853.673	662.058
268.409	19.698	853.445	661.400
269.424	20.048	852.353	661.836
270.439	19.999	851.982	661.300
271.453	20.049	851.549	661.096
272.468	20.290	850.906	661.456
273.482	20.272	850.823	661.266
274.497	19.831	849.358	658.391
275.512	19.566	848.574	656.718
276.526	19.970	848.493	658.132
277.541	20.098	848.074	658.237
278.555	19.722	847.351	656.190
279.570	19.629	846.017	654.746
280.585	19.841	845.589	655.158
281.599	19.846	844.602	654.354
282.614	19.368	843.600	651.714
283.628	19.382	843.453	651.599
284.643	19.627	843.094	652.189
285.657	19.276	841.889	649.873
286.672	19.017	840.819	648.013
287.687	19.573	840.987	650.181
288.701	19.586	840.145	649.520
289.716	19.344	839.505	648.060
290.730	19.262	838.821	647.168
291.745	19.011	837.953	645.499
292.760	19.287	837.750	646.320
293.774	20.238	838.209	650.182
294.789	20.480	837.942	650.823
295.803	20.544	837.541	650.693
296.818	20.610	836.539	650.104
297.833	20.266	835.368	647.854
298.847	20.081	834.801	646.666
299.862	20.485	833.911	647.427
300.876	20.596	833.615	647.553
301.891	20.345	833.309	646.321
302.906	19.897	832.464	643.943
303.920	20.168	831.892	644.451
304.935	20.456	831.560	645.209
305.949	20.455	830.620	644.417
306.964	20.200	830.030	642.956
307.979	20.376	829.572	643.198
308.993	20.648	829.729	644.269
310.008	20.455	829.117	643.024
311.022	20.422	828.184	642.120
312.037	20.265	827.760	641.154
313.052	19.985	826.904	639.403
314.066	19.351	825.472	635.901
315.081	18.912	824.960	633.830
316.095	19.898	825.061	637.485
317.110	20.235	824.854	638.509
318.125	19.506	823.248	634.533
319.139	18.706	821.656	630.313
320.154	18.659	821.629	630.063
321.168	19.344	822.154	632.927
322.183	19.962	822.199	635.172
323.197	20.163	821.428	635.256
324.212	20.524	820.966	636.165
325.227	20.450	820.692	635.626
326.241	20.345	819.921	634.589
327.256	20.290	819.235	633.800
328.270	20.071	818.603	632.456
329.285	19.972	818.038	631.603
330.300	19.746	817.257	630.119
331.314	20.126	816.693	631.012
332.329	20.258	816.704	631.446
333.343	20.588	815.846	631.928
334.358	20.399	815.660	631.041
335.373	20.512	815.243	631.070
336.387	20.849	815.033	632.078
337.402	20.863	814.841	631.924
338.416	20.668	814.461	630.866
339.431	20.800	814.324	631.182
340.446	20.879	813.922	631.099
341.460	20.790	813.195	630.157
342.475	20.613	812.649	629.040
343.489	20.807	812.010	629.190
344.504	20.924	812.320	629.797
345.519	21.054	811.586	629.641
346.533	21.087	811.122	629.345
347.548	21.108	811.063	629.321
348.562	21.084	810.384	628.652
349.577	21.189	809.701	628.443
350.592	21.196	808.974	627.848
351.606	21.105	808.603	627.178
352.621	21.070	807.458	626.110
353.635	20.985	806.451	624.967
354.650	20.376	805.182	621.749
355.665	19.408	804.127	617.417
356.679	19.732	803.905	618.349
357.694	20.266	803.130	619.605
358.708	20.232	802.653	619.062
359.723	20.553	802.314	619.890
360.738	20.939	802.134	621.073
361.752	21.075	801.500	621.013
362.767	21.308	801.345	621.666
363.781	21.431	801.011	621.787
364.796	21.599	800.492	621.929
365.810	21.517	800.320	621.449
366.825	21.574	799.532	620.983
367.840	21.177	798.682	618.860
368.854	20.849	798.272	617.327
369.869	20.849	797.980	617.046
370.883	20.963	797.147	616.750
371.898	20.821	796.563	615.741
372.913	20.705	796.842	615.492
373.927	20.956	796.017	615.689
374.942	21.170	795.865	616.270
375.956	21.195	795.370	615.920
376.971	21.303	794.664	615.702
377.986	21.449	794.299	615.877
379.000	21.324	794.170	615.285
380.015	21.268	793.416	614.447
381.029	21.359	793.064	614.442
382.044	21.505	792.214	614.240
383.059	21.448	791.928	613.765
384.073	21.521	791.351	613.517
385.088	21.548	790.359	612.789
386.102	21.319	789.983	611.643
387.117	21.484	789.135	611.509
388.132	21.009	788.168	609.045
389.146	20.467	787.493	606.579
390.161	20.903	787.464	608.024
391.175	21.283	787.041	608.968
392.190	20.968	785.936	606.965
393.205	19.769	783.998	601.248
394.219	18.457	782.587	595.555
395.234	18.549	782.761	595.954
396.248	19.996	784.164	602.005
397.263	21.333	784.325	606.720
398.278	21.286	784.084	606.317
399.292	20.876	783.896	604.693
400.307	21.102	783.192	604.882
401.321	21.021	783.109	604.484
402.336	21.248	783.099	605.209
403.350	21.585	782.577	605.919
404.365	22.001	782.032	606.881
405.380	22.265	781.703	607.483
406.394	22.214	780.963	606.680
407.409	22.013	780.433	605.520
408.423	22.019	780.342	605.416
409.438	22.112	780.108	605.502
410.453	22.190	779.344	605.123
411.467	22.050	779.133	604.424
412.482	22.145	778.711	604.372
413.496	22.256	778.325	604.398
414.511	22.158	778.071	603.811
415.526	22.167	777.608	603.432
416.540	22.104	776.803	602.537
417.555	21.629	776.125	600.330
418.569	21.744	775.967	600.547
419.584	21.869	775.170	600.304
420.599	21.459	774.946	598.676
421.613	159.002	1361.977	1798.327
422.628	137.288	1447.492	1798.431
