DTS Sentinel unit serial number:	SN413079Multiplexer serial number:	ORYXHardware model number:	OX4-SRSoftware version number:	ORYX F/W v4.00 Oryx Data Collector v3.7.2.0data status	okinstallation	princeton_trtdifferential loss correction	single-endedforward channel	channel 1reverse channel	N/Adate	2019/09/11time	06:20:11forward acquisition time	60.00reverse acquisition time	0.00gamma	496.2192k internal	0.2331k external	0.2331temperature offset calibration	0.9920default loss term (dB/km)	0.3790temperature slope calibration	1.0000multiplexer offset coefficient	1.0000multiplexer slope coefficient	1.0000fibre end	0.00T internal ref (°C)	29.55T ext. ref 1 (°C)	-0.19T ext. ref 2 (°C)	23.96length (m)	temperature (°C)	Stokes	anti-Stokes-747.200	195.543	-0.164	0.251
-746.185	-200.000	-0.013	0.126
-745.171	99.763	-0.052	0.060
-744.156	800.000	-0.061	0.224
-743.142	20.828	0.126	0.103
-742.127	800.000	0.125	0.455
-741.112	184.296	0.183	0.273
-740.098	-179.509	0.193	0.004
-739.083	176.448	-0.031	0.045
-738.069	15.004	-0.300	0.237
-737.054	103.688	-0.143	-0.169
-736.039	-114.855	-0.155	0.030
-735.025	192.015	-0.263	0.399
-734.010	-144.323	-0.095	0.009
-732.996	-200.000	-0.001	-0.371
-731.981	-68.374	0.049	0.019
-730.966	-72.169	0.094	-0.035
-729.952	-88.111	-0.197	-0.059
-728.937	269.770	0.073	0.130
-727.923	80.824	0.104	-0.113
-726.908	-54.477	-0.040	-0.018
-725.894	-41.892	-0.336	0.173
-724.879	443.730	-0.092	-0.203
-723.864	-108.472	-0.133	-0.029
-722.850	182.662	-0.246	-0.364
-721.835	-179.213	0.157	0.004
-720.821	800.000	0.091	-0.318
-719.806	58.952	0.310	-0.307
-718.791	800.000	-0.066	0.240
-717.777	-9.472	-0.207	0.139
-716.762	-54.428	-0.399	0.182
-715.748	30.143	-0.218	-0.187
-714.733	33.120	0.268	0.233
-713.718	-69.530	-0.125	0.048
-712.704	-12.138	0.042	-0.027
-711.689	-200.000	-0.006	-0.100
-710.675	-159.727	0.405	-0.022
-709.660	-200.000	-0.000	-0.074
-708.645	800.000	-0.032	0.094
-707.631	-90.760	0.024	-0.007
-706.616	-171.604	0.042	0.001
-705.602	244.658	0.115	0.195
-704.587	-149.803	-0.152	0.012
-703.572	-200.000	-0.013	-0.175
-702.558	204.866	0.076	0.119
-701.543	471.235	0.046	0.103
-700.529	-200.000	0.036	-0.182
-699.514	118.783	0.133	-0.165
-698.499	495.713	0.040	-0.093
-697.485	-87.128	0.422	-0.129
-696.470	-117.146	0.175	0.032
-695.456	-200.000	0.001	-0.113
-694.441	750.854	-0.104	-0.283
-693.426	-34.633	0.062	0.034
-692.412	285.230	0.056	0.102
-691.397	-200.000	0.028	-0.185
-690.383	23.228	0.224	0.184
-689.368	-109.558	0.180	0.038
-688.354	103.981	-0.178	0.210
-687.339	228.501	0.084	0.137
-686.324	303.092	0.013	-0.024
-685.310	800.000	0.040	0.115
-684.295	81.432	-0.371	-0.403
-683.281	342.528	-0.155	0.304
-682.266	-55.524	-0.291	0.131
-681.251	95.405	0.238	-0.272
-680.237	105.535	-0.243	-0.289
-679.222	-7.093	-0.125	-0.085
-678.208	-37.647	0.268	-0.143
-677.193	-84.376	-0.122	-0.039
-676.178	-146.490	-0.098	0.009
-675.164	-55.038	-0.118	-0.053
-674.149	800.000	0.093	0.396
-673.135	609.863	0.106	0.265
-672.120	-128.560	-0.060	0.009
-671.105	-67.860	0.271	-0.106
-670.091	-6.824	-0.156	-0.106
-669.076	189.308	-0.191	-0.287
-668.062	71.538	0.124	-0.129
-667.047	-200.000	-0.050	-0.243
-666.032	-79.900	0.077	-0.026
-665.018	28.342	-0.306	-0.259
-664.003	-82.476	-0.416	-0.136
-662.989	-51.327	0.238	-0.112
-661.974	-200.000	-0.013	0.088
-660.959	59.266	0.101	0.099
-659.945	173.711	0.053	0.076
-658.930	653.122	-0.089	0.229
-657.916	800.000	-0.053	-0.178
-656.901	-200.000	-0.013	-0.186
-655.886	316.963	0.103	-0.194
-654.872	537.545	0.087	-0.208
-653.857	34.591	0.192	-0.168
-652.843	-200.000	-0.035	0.230
-651.828	607.507	0.078	0.195
-650.814	-60.159	-0.275	0.118
-649.799	112.232	-0.166	-0.201
-648.784	-160.324	-0.340	0.018
-647.770	76.728	0.124	-0.132
-646.755	42.323	0.106	-0.097
-645.741	169.971	-0.184	-0.264
-644.726	-200.000	-0.001	-0.025
-643.711	38.600	-0.051	-0.045
-642.697	-35.019	0.267	-0.146
-641.682	212.975	-0.093	0.147
-640.668	-200.000	-0.026	-0.306
-639.653	66.912	0.029	-0.030
-638.638	89.798	-0.078	0.087
-637.624	229.725	0.154	-0.253
-636.609	-113.461	-0.321	-0.063
-635.595	800.000	-0.048	-0.133
-634.580	86.550	0.146	-0.161
-633.565	163.446	0.033	0.046
-632.551	-66.737	0.293	0.116
-631.536	-200.000	-0.074	-0.354
-630.522	-118.963	0.063	0.011
-629.507	-138.378	0.305	-0.034
-628.492	-108.551	-0.161	-0.035
-627.478	312.710	-0.078	0.146
-626.463	250.185	0.168	0.286
-625.449	-125.843	0.100	-0.015
-624.434	-142.858	0.058	-0.006
-623.419	-200.000	0.000	-0.116
-622.405	-26.955	-0.282	-0.165
-621.390	152.621	0.136	-0.186
-620.376	-87.005	0.325	-0.099
-619.361	-74.350	-0.147	0.053
-618.346	-141.137	-0.138	-0.014
-617.332	412.720	-0.057	0.121
-616.317	54.022	0.169	0.162
-615.303	-27.387	0.231	0.134
-614.288	-109.709	-0.089	0.019
-613.273	292.477	0.149	-0.272
-612.259	-200.000	-0.001	0.227
-611.244	-34.634	-0.089	-0.049
-610.230	172.866	-0.065	0.094
-609.215	221.950	0.043	0.069
-608.201	366.502	0.176	0.356
-607.186	-200.000	0.004	-0.212
-606.171	-91.345	0.111	-0.032
-605.157	-84.224	-0.218	0.069
-604.142	800.000	0.038	0.146
-603.128	338.692	-0.150	-0.293
-602.113	34.333	0.245	-0.214
-601.098	-17.755	0.370	-0.233
-600.084	-66.351	-0.250	0.100
-599.069	149.772	-0.017	-0.023
-598.055	-94.419	0.341	-0.093
-597.040	75.049	-0.174	0.184
-596.025	-200.000	0.015	-0.189
-595.011	-148.128	-0.237	-0.020
-593.996	800.000	0.063	-0.261
-592.982	-144.973	0.266	-0.024
-591.967	-34.831	0.188	0.102
-590.952	-200.000	-0.009	0.114
-589.938	213.421	-0.102	0.161
-588.923	-198.349	0.322	0.002
-587.909	61.606	0.274	-0.273
-586.894	800.000	-0.056	0.185
-585.879	83.176	0.123	-0.134
-584.865	-12.465	-0.175	-0.114
-583.850	-200.000	-0.016	0.187
-582.836	266.460	0.094	0.164
-581.821	60.831	-0.068	-0.067
-580.806	-28.452	-0.170	0.098
-579.792	-78.753	0.051	0.017
-578.777	-131.373	0.231	0.030
-577.763	-114.498	0.124	0.024
-576.748	17.952	-0.079	0.063
-575.733	47.411	0.118	0.110
-574.719	503.971	0.069	0.160
-573.704	-200.000	-0.006	-0.477
-572.690	5.973	-0.153	0.113
-571.675	-200.000	-0.005	0.182
-570.661	115.472	0.072	-0.088
-569.646	442.913	0.142	-0.312
-568.631	800.000	-0.057	-0.224
-567.617	-130.410	-0.127	0.017
-566.602	44.002	0.228	-0.209
-565.588	28.294	0.013	0.011
-564.573	40.169	-0.098	0.088
-563.558	50.474	-0.128	0.121
-562.544	-200.000	0.009	-0.286
-561.529	-200.000	-0.030	0.165
-560.515	-22.575	-0.315	0.191
-559.500	-88.385	-0.329	-0.098
-558.485	-51.179	-0.255	0.120
-557.471	278.421	-0.135	0.240
-556.456	-200.000	0.044	0.236
-555.442	195.586	0.047	0.071
-554.427	52.622	0.058	0.055
-553.412	-129.196	-0.210	-0.029
-552.398	441.430	-0.129	-0.282
-551.383	-200.000	0.005	0.072
-550.369	695.403	0.058	0.152
-549.354	800.000	0.063	-0.210
-548.339	-200.000	0.046	-0.267
-547.325	-63.895	-0.066	0.027
-546.310	-200.000	0.008	-0.085
-545.296	-200.000	0.193	0.001
-544.281	-200.000	-0.030	-0.135
-543.266	59.182	-0.137	-0.135
-542.252	-157.959	-0.127	0.007
-541.237	785.971	-0.108	-0.297
-540.223	800.000	-0.057	-0.170
-539.208	-48.014	0.050	0.024
-538.193	-0.001	-0.380	0.270
-537.179	61.676	-0.302	-0.300
-536.164	-43.845	0.172	-0.086
-535.150	96.941	-0.261	-0.299
-534.135	161.522	0.078	0.108
-533.121	59.637	-0.296	-0.292
-532.106	94.324	-0.077	0.087
-531.091	7.940	-0.182	-0.136
-530.077	341.167	0.107	0.208
-529.062	-200.000	-0.011	0.211
-528.048	101.597	0.163	0.189
-527.033	69.594	-0.022	-0.023
-526.018	-200.000	-0.026	0.191
-525.004	800.000	0.056	0.204
-523.989	-200.000	-0.001	-0.683
-522.975	-200.000	0.004	0.072
-521.960	75.839	-0.092	0.097
-520.945	150.952	-0.126	-0.171
-519.931	55.505	0.160	0.154
-518.916	93.940	0.164	0.185
-517.902	724.715	-0.086	-0.229
-516.887	46.716	0.102	-0.094
-515.872	523.713	-0.096	0.225
-514.858	-144.975	-0.302	-0.028
-513.843	-62.422	-0.412	-0.171
-512.829	-97.409	-0.262	0.068
-511.814	-200.000	-0.016	0.251
-510.799	800.000	0.087	-0.259
-509.785	-164.225	-0.289	0.013
-508.770	51.109	-0.019	-0.018
-507.756	-103.908	-0.146	-0.034
-506.741	229.934	-0.054	0.088
-505.726	1.776	0.307	0.221
-504.712	85.094	-0.088	-0.096
-503.697	71.483	-0.113	0.117
-502.683	-4.354	-0.073	-0.050
-501.668	88.430	0.080	-0.089
-500.653	-41.468	0.096	-0.049
-499.639	36.309	-0.266	0.234
-498.624	-200.000	0.006	-0.036
-497.610	87.377	-0.110	0.121
-496.595	280.301	0.106	0.189
-495.581	-34.607	0.166	-0.090
-494.566	-200.000	-0.016	-0.168
-493.551	51.550	0.199	0.189
-492.537	-131.299	0.064	0.008
-491.522	-47.885	-0.518	-0.250
-490.508	321.921	0.199	0.378
-489.493	-200.000	-0.029	-0.255
-488.478	31.193	-0.311	-0.266
-487.464	69.507	0.161	-0.165
-486.449	-103.241	0.095	-0.022
-485.435	246.473	0.212	0.356
-484.420	89.892	-0.292	0.325
-483.405	792.541	0.093	0.256
-482.391	174.117	-0.161	0.232
-481.376	-200.000	-0.077	0.510
-480.362	-50.234	-0.073	-0.034
-479.347	-28.298	-0.165	-0.095
-478.332	458.111	0.013	-0.029
-477.318	800.000	-0.027	0.114
-476.303	-165.428	0.383	-0.017
-475.289	11.018	0.170	0.129
-474.274	800.000	-0.040	-0.155
-473.259	127.853	-0.231	0.292
-472.245	4.331	-0.205	-0.149
-471.230	-157.237	0.063	-0.004
-470.216	19.961	-0.155	0.124
-469.201	-49.074	-0.077	0.037
-468.186	418.380	0.218	-0.463
-467.172	-4.484	-0.103	0.071
-466.157	-200.000	-0.002	0.114
-465.143	391.195	0.042	0.086
-464.128	-200.000	0.010	-0.172
-463.113	-1.528	-0.238	-0.167
-462.099	146.741	-0.083	0.111
-461.084	365.586	0.075	-0.150
-460.070	-5.201	-0.122	-0.084
-459.055	-23.646	0.183	-0.109
-458.040	154.646	0.018	-0.025
-457.026	-112.144	0.239	-0.048
-456.011	-26.132	0.173	-0.101
-454.997	-97.494	0.097	-0.025
-453.982	-169.148	-0.324	0.012
-452.968	-40.829	-0.076	-0.039
-451.953	744.244	0.063	0.168
-450.938	84.786	-0.183	0.200
-449.924	11.438	-0.058	0.044
-448.909	-102.040	-0.459	-0.110
-447.895	-15.269	-0.183	-0.117
-446.880	16.831	0.061	-0.048
-445.865	26.566	0.109	-0.091
-444.851	278.929	-0.118	0.209
-443.836	30.552	-0.204	0.174
-442.822	10.872	0.109	0.083
-441.807	545.373	-0.040	0.095
-440.792	4.865	-0.218	-0.160
-439.778	-89.510	0.233	-0.068
-438.763	-105.228	-0.141	-0.032
-437.749	-200.000	0.054	0.408
-436.734	-200.000	0.010	-0.445
-435.719	800.000	0.009	-0.037
-434.705	-108.974	-0.179	-0.038
-433.690	319.786	-0.145	-0.274
-432.676	104.115	0.130	-0.152
-431.661	-77.020	-0.123	0.043
-430.646	106.404	0.096	0.113
-429.632	12.533	-0.119	0.092
-428.617	559.208	-0.088	-0.211
-427.603	-99.041	0.202	-0.051
-426.588	800.000	0.011	0.039
-425.573	91.680	-0.176	0.197
-424.559	-20.121	-0.090	-0.055
-423.544	-28.427	-0.103	-0.059
-422.530	-135.752	-0.319	-0.037
-421.515	252.200	0.200	0.339
-420.500	800.000	0.036	-0.154
-419.486	110.888	-0.272	0.326
-418.471	-74.810	-0.251	0.090
-417.457	93.212	-0.101	-0.114
-416.442	-200.000	0.063	-0.277
-415.428	385.755	0.056	0.115
-414.413	241.899	0.083	-0.138
-413.398	-200.000	-0.034	0.407
-412.384	121.722	-0.223	0.276
-411.369	-121.004	-0.265	-0.044
-410.355	291.184	-0.080	0.145
-409.340	-59.613	-0.169	0.072
-408.325	-200.000	-0.006	-0.214
-407.311	-68.937	0.252	-0.097
-406.296	-28.150	-0.037	-0.021
-405.282	-33.170	-0.201	-0.111
-404.267	-14.702	0.133	-0.085
-403.252	-200.000	0.032	-0.196
-402.238	-81.901	0.187	0.061
-401.223	-6.389	-0.187	-0.126
-400.209	-100.306	0.309	-0.076
-399.194	-132.279	0.126	0.016
-398.179	104.686	-0.194	0.227
-397.165	125.654	0.223	0.279
-396.150	59.491	0.083	-0.081
-395.136	-200.000	-0.016	0.089
-394.121	-28.158	0.235	0.135
-393.106	-200.000	0.005	-0.038
-392.092	601.552	-0.126	-0.311
-391.077	-14.902	0.046	0.029
-390.063	49.031	-0.013	-0.013
-389.048	-26.607	-0.140	0.081
-388.033	130.008	0.150	-0.191
-387.019	-65.585	0.345	-0.137
-386.004	370.984	-0.085	-0.171
-384.990	-200.000	0.000	-0.166
-383.975	-175.300	-0.258	0.007
-382.960	-19.282	0.250	0.154
-381.946	212.369	-0.104	-0.162
-380.931	-26.844	-0.144	0.084
-379.917	-200.000	-0.070	0.335
-378.902	-47.116	-0.110	0.053
-377.888	-166.134	-0.108	0.005
-376.873	15.793	-0.232	-0.181
-375.858	-200.000	0.022	-0.131
-374.844	-200.000	0.059	-0.402
-373.829	67.122	-0.226	-0.228
-372.815	13.674	0.322	-0.248
-371.800	-5.370	0.104	-0.071
-370.785	693.468	-0.123	0.319
-369.771	-116.393	0.132	0.024
-368.756	112.267	0.144	0.173
-367.742	7.953	0.171	-0.127
-366.727	61.865	-0.104	0.103
-365.712	241.311	0.189	0.312
-364.698	-47.099	-0.271	-0.131
-363.683	800.000	-0.081	0.322
-362.669	-133.188	0.371	0.047
-361.654	101.701	0.297	0.343
-360.639	-123.227	0.030	-0.005
-359.625	800.000	0.060	0.202
-358.610	55.039	0.163	-0.156
-357.596	493.736	-0.027	0.061
-356.581	-89.445	0.329	-0.096
-355.566	18.634	0.213	0.169
-354.552	-200.000	0.004	-0.131
-353.537	-200.000	0.031	0.137
-352.523	-76.691	-0.116	0.040
-351.508	0.830	0.245	0.174
-350.493	91.419	0.192	0.214
-349.479	800.000	0.027	0.102
-348.464	-104.223	-0.139	0.032
-347.450	-63.672	-0.109	0.044
-346.435	-9.914	-0.330	-0.217
-345.420	-200.000	-0.020	0.098
-344.406	7.632	-0.230	0.170
-343.391	80.592	-0.092	-0.098
-342.377	-84.046	0.231	-0.073
-341.362	-68.544	-0.203	0.078
-340.348	-93.761	0.462	0.126
-339.333	515.655	0.089	0.205
-338.318	412.019	0.089	0.186
-337.304	280.657	0.257	0.455
-336.289	-96.746	0.005	-0.001
-335.275	-200.000	0.031	-0.140
-334.260	-116.575	-0.213	-0.039
-333.245	-48.570	0.129	0.062
-332.231	-148.811	0.256	-0.021
-331.216	-25.691	-0.158	-0.092
-330.202	-142.325	-0.149	-0.015
-329.187	-71.416	0.075	-0.028
-328.172	-98.733	0.461	-0.116
-327.158	-154.621	-0.039	0.003
-326.143	133.828	0.108	-0.138
-325.129	-197.172	0.410	-0.003
-324.114	-200.000	0.015	-0.179
-323.099	-200.000	0.041	-0.247
-322.085	30.883	-0.122	0.103
-321.070	-12.440	0.210	-0.136
-320.056	800.000	0.109	0.411
-319.041	-200.000	-0.031	0.156
-318.026	-136.651	-0.321	0.037
-317.012	155.197	0.298	-0.405
-315.997	800.000	-0.084	0.275
-314.983	-110.205	-0.178	0.037
-313.968	-200.000	0.006	0.100
-312.953	377.823	-0.130	-0.262
-311.939	26.473	-0.201	0.166
-310.924	-87.510	-0.130	0.039
-309.910	91.488	0.204	-0.227
-308.895	800.000	-0.019	0.065
-307.880	-29.369	-0.183	0.104
-306.866	30.862	-0.158	0.134
-305.851	-117.188	-0.236	-0.042
-304.837	247.942	0.174	0.291
-303.822	29.513	-0.064	-0.054
-302.807	92.297	0.167	-0.186
-301.793	-66.231	0.129	0.051
-300.778	800.000	-0.079	-0.264
-299.764	-111.508	-0.225	0.045
-298.749	-200.000	0.072	0.339
-297.735	-113.200	-0.299	0.058
-296.720	-103.610	0.235	0.055
-295.705	789.791	-0.044	-0.118
-294.691	800.000	0.041	-0.122
-293.676	-200.000	-0.021	-0.167
-292.662	800.000	0.067	-0.187
-291.647	263.248	0.189	-0.326
-290.632	175.187	0.152	-0.218
-289.618	-200.000	0.052	-0.254
-288.603	-109.433	-0.108	0.022
-287.589	-73.999	-0.202	0.072
-286.574	8.613	0.191	0.143
-285.559	69.615	-0.134	0.136
-284.545	-102.477	-0.178	-0.042
-283.530	48.860	-0.194	-0.180
-282.516	-164.443	0.357	0.016
-281.501	-14.654	-0.149	0.095
-280.486	31.596	-0.179	0.152
-279.472	-48.249	-0.263	-0.125
-278.457	-184.410	-0.234	-0.004
-277.443	-200.000	0.043	-0.192
-276.428	-117.187	0.355	0.064
-275.413	-163.761	-0.271	0.013
-274.399	52.905	0.278	-0.263
-273.384	295.488	0.068	0.122
-272.370	-52.171	-0.119	-0.054
-271.355	-64.510	0.409	-0.164
-270.340	-140.142	0.214	-0.022
-269.326	710.846	-0.091	0.239
-268.311	58.380	-0.101	-0.098
-267.297	-200.000	-0.044	-0.246
-266.282	436.792	-0.096	0.207
-265.267	-83.399	0.171	-0.054
-264.253	78.974	0.135	0.143
-263.238	-170.265	-0.173	0.006
-262.224	-31.316	0.544	-0.302
-261.209	-6.060	0.296	0.200
-260.195	162.502	-0.297	0.411
-259.180	-16.146	0.079	0.050
-258.165	12.301	-0.307	0.234
-257.151	-47.646	-0.120	0.058
-256.136	-200.000	0.018	0.494
-255.122	-127.082	-0.641	-0.093
-254.107	800.000	-0.141	0.389
-253.092	-71.441	0.348	0.129
-252.078	-131.232	0.189	0.025
-251.063	-118.043	-0.270	-0.048
-250.049	-55.338	0.228	-0.101
-249.034	-58.985	-0.017	0.007
-248.019	-120.772	0.116	0.019
-247.005	-81.042	0.388	0.127
-245.990	-70.317	0.162	-0.061
-244.976	127.155	-0.096	0.121
-243.961	-200.000	-0.022	-0.236
-242.946	-200.000	0.009	0.078
-241.932	-200.000	0.047	-0.225
-240.917	56.290	0.077	-0.074
-239.903	-200.000	-0.007	-0.083
-238.888	-145.752	0.573	0.050
-237.873	-200.000	-0.023	0.122
-236.859	-165.115	0.259	-0.011
-235.844	15.345	-0.185	0.143
-234.830	-161.741	0.240	-0.012
-233.815	-200.000	-0.020	0.139
-232.800	-46.867	-0.205	0.099
-231.786	-10.710	0.227	-0.148
-230.771	-21.382	0.179	-0.108
-229.757	-119.754	0.398	0.068
-228.742	20.381	0.147	-0.117
-227.727	-36.626	-0.366	0.194
-226.713	-8.386	-0.147	-0.098
-225.698	42.413	-0.135	0.121
-224.684	-200.000	0.002	0.112
-223.669	-98.601	-0.181	0.046
-222.655	52.595	-0.158	-0.148
-221.640	-200.000	-0.018	0.402
-220.625	311.731	-0.175	-0.324
-219.611	-75.038	0.179	-0.063
-218.596	-125.020	-0.195	-0.030
-217.582	-200.000	0.067	-0.383
-216.567	-200.000	0.031	-0.216
-215.552	-25.444	-0.349	-0.203
-214.538	44.724	0.288	0.261
-213.523	-130.513	0.158	0.021
-212.509	-200.000	0.021	-0.099
-211.494	279.920	-0.092	0.161
-210.479	132.391	0.308	0.391
-209.465	49.438	-0.211	0.196
-208.450	-54.761	0.171	0.076
-207.436	-106.865	0.396	-0.087
-206.421	-24.861	-0.263	0.154
-205.406	-36.016	-0.276	0.147
-204.392	101.385	0.141	0.162
-203.377	500.341	-0.039	0.089
-202.363	274.414	0.076	0.132
-201.348	-63.044	-0.315	0.128
-200.333	-34.470	0.334	0.180
-199.319	229.156	-0.026	-0.041
-198.304	25.837	-0.322	-0.265
-197.290	800.000	0.019	0.063
-196.275	-96.739	0.479	0.124
-195.260	-98.874	0.178	-0.044
-194.246	-55.528	0.296	-0.131
-193.231	170.594	-0.191	-0.269
-192.217	800.000	0.120	0.336
-191.202	-97.582	0.197	0.050
-190.187	222.665	-0.107	0.169
-189.173	-152.977	0.255	-0.018
-188.158	-74.252	-0.183	0.065
-187.144	-200.000	0.024	-0.226
-186.129	-47.315	-0.102	-0.049
-185.114	-148.202	-0.143	0.012
-184.100	-81.941	-0.079	0.025
-183.085	-200.000	-0.040	-0.192
-182.071	800.000	0.025	-0.073
-181.056	-100.808	-0.177	0.043
-180.042	-136.487	0.350	0.040
-179.027	-200.000	-0.100	-0.604
-178.012	14.952	-0.038	-0.029
-176.998	-200.000	-0.017	-0.137
-175.983	-40.429	0.225	0.115
-174.969	-166.003	-0.348	0.015
-173.954	108.640	0.097	-0.114
-172.939	-200.000	0.004	0.089
-171.925	-146.549	-0.157	0.013
-170.910	199.308	0.236	-0.355
-169.896	108.708	-0.220	-0.258
-168.881	293.394	-0.043	0.077
-167.866	-82.978	0.076	-0.024
-166.852	-126.529	0.342	-0.050
-165.837	800.000	0.033	-0.093
-164.823	-118.082	0.138	-0.024
-163.808	118.863	0.157	0.191
-162.793	-200.000	0.018	0.147
-161.779	73.191	0.142	-0.146
-160.764	365.833	-0.117	-0.233
-159.750	-164.412	0.160	-0.007
-158.735	5.421	0.016	-0.011
-157.720	-66.496	0.247	-0.096
-156.706	800.000	0.044	0.136
-155.691	-200.000	0.002	0.276
-154.677	267.329	0.057	-0.099
-153.662	-167.220	-0.292	-0.012
-152.647	-200.000	0.006	0.213
-151.633	195.788	-0.165	0.247
-150.618	136.069	-0.111	-0.142
-149.604	87.290	-0.061	-0.067
-148.589	43.544	-0.140	0.126
-147.574	-200.000	0.416	0.001
-146.560	56.653	-0.141	0.135
-145.545	-125.586	0.289	0.043
-144.531	95.283	0.337	0.378
-143.516	-78.838	0.204	-0.068
-142.502	800.000	0.057	-0.178
-141.487	174.828	-0.082	-0.117
-140.472	702.589	-0.149	0.387
-139.458	185.843	-0.245	0.358
-138.443	-23.302	0.252	0.149
-137.429	-129.573	-0.341	0.046
-136.414	-142.493	-0.218	-0.021
-135.399	53.896	0.247	-0.233
-134.385	163.888	0.227	-0.314
-133.370	-70.509	0.365	-0.136
-132.356	-52.866	0.156	-0.070
-131.341	-84.629	0.152	0.047
-130.326	-200.000	0.007	-0.055
-129.312	546.922	-0.118	0.277
-128.297	-200.000	0.004	0.127
-127.283	-95.935	-0.039	0.010
-126.268	-200.000	-0.013	0.086
-125.253	-200.000	0.040	0.213
-124.239	-81.570	-0.175	-0.057
-123.224	-200.000	-0.010	-0.136
-122.210	-117.610	0.323	0.057
-121.195	-200.000	-0.044	-0.294
-120.180	784.446	-0.145	-0.389
-119.166	-200.000	0.046	-0.314
-118.151	15.870	0.086	-0.066
-117.137	309.154	0.020	-0.037
-116.122	-200.000	0.030	0.182
-115.107	-200.000	0.006	-0.419
-114.093	-101.560	0.067	-0.016
-113.078	-200.000	-0.027	-0.126
-112.064	375.655	0.052	0.104
-111.049	-141.975	-0.251	0.025
-110.034	-58.866	-0.176	0.075
-109.020	-200.000	-0.017	-0.277
-108.005	-79.400	-0.334	0.111
-106.991	-69.779	-0.118	-0.044
-105.976	313.050	-0.241	-0.444
-104.962	-200.000	0.031	-0.196
-103.947	800.000	-0.088	0.250
-102.932	114.843	-0.122	0.146
-101.918	-138.458	-0.076	-0.008
-100.903	-159.934	-0.389	0.021
-99.889	244.344	-0.056	-0.092
-98.874	-76.666	-0.276	-0.095
-97.859	-141.971	-0.239	0.023
-96.845	-164.706	-0.016	0.001
-95.830	264.564	-0.099	0.169
-94.816	530.495	0.037	-0.086
-93.801	-4.346	0.032	0.022
-92.786	702.407	-0.097	0.250
-91.772	228.650	-0.112	-0.180
-90.757	800.000	0.064	0.177
-89.743	158.159	0.126	-0.172
-88.728	-200.000	0.083	-0.448
-87.713	16.128	-0.104	-0.081
-86.699	-24.304	0.040	0.024
-85.684	144.690	-0.091	0.120
-84.670	800.000	0.056	0.157
-83.655	-168.745	0.234	0.009
-82.640	-200.000	0.001	-0.087
-81.626	131.481	0.127	-0.160
-80.611	-46.225	0.585	-0.282
-79.597	-200.000	0.035	-0.241
-78.582	18.715	-0.529	-0.415
-77.567	-200.000	-0.017	0.167
-76.553	-200.000	0.015	0.229
-75.538	800.000	0.011	-0.047
-74.524	-97.932	-0.118	0.030
-73.509	-200.000	-0.029	-0.212
-72.494	-200.000	-0.015	-0.093
-71.480	-200.000	0.054	-0.398
-70.465	-54.454	0.158	0.070
-69.451	-44.193	0.173	-0.085
-68.436	-60.520	-0.093	0.039
-67.422	800.000	-0.033	0.125
-66.407	241.743	0.049	0.081
-65.392	15.057	0.160	0.123
-64.378	-200.000	0.016	-0.245
-63.363	-31.435	-0.217	-0.119
-62.349	80.431	0.064	0.067
-61.334	113.849	-0.947	-1.128
-60.319	408.433	0.197	0.408
-59.305	800.000	-0.399	-1.148
-58.290	249.492	0.644	1.070
-57.276	219.616	0.829	1.300
-56.261	-200.000	105.869	608.838
-55.246	499.864	1509.297	3409.515
-54.232	176.162	2702.823	3844.769
-53.217	111.713	2165.697	2560.438
-52.203	41.628	1598.278	1418.007
-51.188	33.086	1331.773	1130.689
-50.173	30.029	1290.712	1078.024
-49.159	54.065	1345.051	1266.875
-48.144	54.591	1360.240	1284.256
-47.130	33.248	1314.656	1116.935
-46.115	29.740	1296.956	1081.377
-45.100	29.494	1292.371	1076.075
-44.086	29.468	1289.948	1073.864
-43.071	29.556	1287.330	1072.156
-42.057	29.395	1285.390	1069.564
-41.042	29.497	1283.690	1068.699
-40.027	29.489	1282.068	1067.259
-39.013	29.417	1280.456	1065.458
-37.998	29.575	1278.147	1064.405
-36.984	29.534	1276.642	1062.874
-35.969	29.614	1274.837	1061.790
-34.954	29.556	1273.120	1059.980
-33.940	29.588	1271.578	1058.840
-32.925	29.603	1270.771	1058.215
-31.911	29.613	1269.415	1057.098
-30.896	29.610	1268.034	1055.892
-29.881	29.673	1266.397	1054.846
-28.867	29.664	1264.765	1053.390
-27.852	29.721	1263.145	1052.324
-26.838	29.620	1262.260	1050.968
-25.823	29.653	1261.082	1050.138
-24.809	29.676	1259.280	1048.725
-23.794	29.653	1258.374	1047.796
-22.779	29.580	1257.256	1046.411
-21.765	29.627	1255.693	1045.333
-20.750	29.629	1254.450	1044.268
-19.736	29.634	1253.030	1043.074
-18.721	29.400	1252.105	1040.946
-17.706	29.522	1250.635	1040.369
-16.692	29.471	1249.961	1039.480
-15.677	29.574	1248.689	1038.956
-14.663	29.498	1247.531	1037.526
-13.648	29.517	1246.630	1036.843
-12.633	29.353	1245.833	1035.218
-11.619	29.491	1244.557	1034.892
-10.604	29.535	1243.459	1034.182
-9.590	29.439	1242.792	1033.050
-8.575	29.455	1241.681	1032.173
-7.560	29.349	1241.299	1031.222
-6.546	29.419	1240.284	1030.729
-5.531	29.551	1239.202	1030.530
-4.517	29.567	1238.272	1029.803
-3.502	29.619	1237.488	1029.400
-2.487	29.383	1236.812	1027.484
-1.473	29.465	1232.973	1024.707
-0.458	28.083	1218.285	1004.874
0.556	22.342	1201.315	968.875
1.571	18.950	1206.597	954.258
2.586	18.279	1221.326	962.050
3.600	18.198	1210.460	952.956
4.615	13.544	1140.192	873.083
5.629	4.685	1065.667	772.135
6.644	0.185	1045.197	735.294
7.659	-0.156	1042.488	731.663
8.673	-0.424	1041.651	729.703
9.688	-0.354	1039.591	728.539
10.702	0.167	1038.643	730.338
11.717	6.281	1046.985	765.967
12.731	15.128	1060.047	818.890
13.746	19.703	1065.274	845.281
14.761	20.745	1066.687	851.429
15.775	20.815	1066.201	851.308
16.790	20.611	1065.344	849.549
17.804	20.665	1064.617	849.157
18.819	20.496	1065.058	848.610
19.834	20.820	1063.852	849.155
20.848	20.801	1063.474	848.683
21.863	20.793	1062.870	848.086
22.877	20.666	1062.197	846.860
23.892	20.669	1061.710	846.412
24.907	20.710	1060.803	845.810
25.921	20.781	1059.695	845.196
26.936	20.710	1058.313	843.678
27.950	20.672	1056.805	842.215
28.965	20.446	1054.796	839.448
29.980	20.588	1053.006	838.633
30.994	20.693	1052.728	838.843
32.009	20.839	1051.233	838.283
33.023	20.451	1050.414	835.691
34.038	20.630	1049.357	835.634
35.053	20.747	1048.920	835.776
36.067	20.984	1047.057	835.351
37.082	20.878	1046.894	834.638
38.096	21.039	1046.358	834.909
39.111	21.102	1045.705	834.618
40.126	20.910	1044.034	832.293
41.140	20.481	1042.800	829.189
42.155	20.348	1041.081	827.115
43.169	20.441	1040.285	826.850
44.184	20.450	1039.402	826.118
45.199	20.407	1038.175	824.865
46.213	20.364	1037.362	823.941
47.228	20.555	1036.764	824.301
48.242	20.623	1035.465	823.518
49.257	20.819	1034.580	823.669
50.271	20.804	1034.138	823.170
51.286	20.870	1033.147	822.620
52.301	20.880	1032.435	822.029
53.315	20.671	1031.891	820.538
54.330	20.751	1030.871	820.031
55.344	20.828	1030.061	819.677
56.359	20.736	1029.201	818.488
57.374	20.584	1027.647	816.463
58.388	20.614	1026.915	815.952
59.403	20.424	1026.339	814.530
60.417	20.391	1025.413	813.571
61.432	20.510	1024.972	813.703
62.447	20.685	1024.001	813.683
63.461	20.615	1023.039	812.519
64.476	20.564	1022.551	811.818
65.490	20.542	1021.175	810.552
66.505	20.564	1020.867	810.340
67.520	20.615	1020.021	809.833
68.534	20.311	1019.197	807.694
69.549	20.141	1017.555	805.529
70.563	20.149	1016.721	804.837
71.578	20.088	1016.299	804.146
72.593	19.930	1015.146	802.430
73.607	20.057	1014.724	802.614
74.622	20.437	1014.591	804.198
75.636	20.428	1013.206	802.990
76.651	20.245	1012.728	801.691
77.666	20.189	1011.875	800.687
78.680	20.300	1011.422	800.773
79.695	20.344	1011.080	800.631
80.709	20.512	1009.984	800.468
81.724	20.376	1009.272	799.208
82.739	20.586	1008.217	799.268
83.753	20.916	1007.508	800.146
84.768	20.976	1007.267	800.161
85.782	21.064	1006.536	799.914
86.797	21.056	1005.046	798.623
87.812	20.859	1003.920	796.755
88.826	20.896	1003.230	796.305
89.841	20.940	1002.100	795.542
90.855	21.055	1001.708	795.683
91.870	20.954	1000.610	794.282
92.884	20.920	999.275	792.994
93.899	20.910	997.907	791.797
94.914	20.994	997.474	791.765
95.928	20.925	996.553	790.649
96.943	20.563	995.276	787.927
97.957	20.371	994.163	786.105
98.972	20.228	992.960	784.440
99.987	20.523	992.527	785.362
101.001	20.765	991.706	785.732
102.016	20.787	990.542	784.839
103.030	20.651	989.742	783.523
104.045	20.430	989.128	781.975
105.060	20.316	987.935	780.450
106.074	20.507	987.162	780.628
107.089	20.873	986.767	781.887
108.103	20.738	985.650	780.329
109.118	20.519	984.288	778.201
110.133	20.547	983.303	777.481
111.147	20.341	982.237	775.647
112.162	20.336	980.902	774.501
113.176	20.490	980.433	774.748
114.191	20.426	979.579	773.723
115.206	20.053	978.459	771.107
116.220	20.100	977.888	770.799
117.235	20.325	976.623	770.734
118.249	20.226	975.862	769.625
119.264	20.265	974.811	768.902
120.279	20.197	974.368	768.185
121.293	20.355	973.279	767.957
122.308	20.214	972.984	767.030
123.322	20.305	971.267	766.011
124.337	20.144	969.978	764.218
125.352	19.686	968.342	760.846
126.366	19.606	967.324	759.625
127.381	20.378	967.822	763.346
128.395	20.635	967.083	763.822
129.410	20.811	966.123	763.772
130.424	20.740	965.053	762.547
131.439	20.791	963.950	761.828
132.454	20.667	963.682	761.007
133.468	20.526	962.900	759.704
134.483	20.697	961.898	759.596
135.497	20.864	961.274	759.763
136.512	20.922	960.221	759.119
137.527	20.934	959.431	758.479
138.541	20.965	958.450	757.771
139.556	21.003	957.683	757.259
140.570	20.950	957.308	756.668
141.585	21.000	955.732	755.571
142.600	21.020	954.496	754.615
143.614	21.127	954.016	754.632
144.629	21.228	953.426	754.534
145.643	21.028	952.228	752.656
146.658	20.990	950.560	751.106
147.673	20.886	949.934	750.098
148.687	20.737	948.906	748.581
149.702	20.769	947.803	747.779
150.716	20.839	946.660	747.112
151.731	20.890	946.317	746.993
152.746	21.061	945.805	747.256
153.760	21.233	945.190	747.440
154.775	21.175	944.438	746.531
155.789	21.163	943.388	745.585
156.804	21.045	942.420	744.250
157.819	21.180	942.006	744.434
158.833	21.325	941.178	744.331
159.848	21.334	939.743	743.168
160.862	21.113	938.942	741.532
161.877	21.152	937.889	740.798
162.892	21.275	936.854	740.439
163.906	21.206	935.979	739.387
164.921	21.129	935.055	738.267
165.935	21.074	934.500	737.532
166.950	21.092	933.578	736.814
167.964	21.191	932.443	736.269
168.979	20.874	931.320	733.983
169.994	20.945	930.164	733.305
171.008	21.124	930.528	734.282
172.023	20.997	929.320	732.729
173.037	21.008	928.201	731.828
174.052	20.838	927.581	730.564
175.067	20.828	926.512	729.615
176.081	20.976	926.098	729.841
177.096	20.986	925.033	728.981
178.110	20.774	924.102	727.299
179.125	20.621	923.378	726.024
180.140	20.645	923.115	725.854
181.154	20.736	922.879	725.985
182.169	20.883	923.032	726.654
183.183	21.203	922.493	727.498
184.198	20.890	921.384	725.256
185.213	21.084	920.339	725.177
186.227	21.190	919.897	725.203
187.242	21.058	919.039	723.913
188.256	21.062	918.616	723.535
189.271	21.324	917.678	723.819
190.286	21.004	916.363	721.393
191.300	20.290	915.318	717.554
192.315	19.676	913.351	713.413
193.329	19.604	912.976	712.763
194.344	20.474	913.904	717.013
195.359	21.032	913.354	718.822
196.373	21.136	912.930	718.853
197.388	20.903	912.231	717.277
198.402	21.070	911.652	717.449
199.417	20.957	910.732	716.196
200.432	20.791	909.621	714.577
201.446	20.587	909.057	713.234
202.461	20.652	908.525	713.021
203.475	19.615	907.074	707.570
204.490	18.949	905.874	703.849
205.504	19.969	906.377	708.351
206.519	20.592	905.787	710.373
207.534	20.603	905.769	710.343
208.548	21.043	905.171	711.608
209.563	20.755	904.326	709.703
210.577	20.882	903.521	709.526
211.592	21.293	903.107	710.810
212.607	21.228	902.091	709.684
213.621	21.240	901.878	709.503
214.636	21.286	900.822	708.798
215.650	20.995	900.318	707.158
216.665	21.386	899.232	707.826
217.680	20.967	899.049	705.924
218.694	20.835	897.329	703.976
219.709	20.570	896.971	702.563
220.723	20.997	896.377	703.758
221.738	20.952	895.774	703.039
222.753	21.068	895.201	702.996
223.767	21.052	894.910	702.643
224.782	21.266	894.499	703.118
225.796	21.304	893.760	702.628
226.811	20.643	892.457	698.887
227.826	20.104	891.106	695.602
228.840	20.253	890.584	695.734
229.855	20.272	890.085	695.356
230.869	19.894	889.255	693.132
231.884	20.313	889.324	694.803
232.899	21.071	889.185	697.667
233.913	20.882	888.402	696.235
234.928	20.839	888.269	695.899
235.942	20.825	887.596	695.254
236.957	20.669	886.345	693.590
237.972	20.592	885.896	692.868
238.986	20.849	884.986	693.121
240.001	20.699	884.690	692.232
241.015	20.967	883.935	692.641
242.030	20.903	883.533	692.013
243.045	21.065	883.398	692.489
244.059	21.020	882.635	691.650
245.074	20.995	881.561	690.649
246.088	20.533	880.771	688.139
247.103	20.998	880.200	689.474
248.117	21.385	880.586	691.245
249.132	21.731	879.935	692.039
250.147	21.820	879.221	691.769
251.161	21.842	878.916	691.551
252.176	21.776	878.151	690.630
253.190	21.855	877.905	690.684
254.205	22.041	877.364	690.933
255.220	22.001	876.587	690.101
256.234	21.897	875.734	688.960
257.249	21.638	875.240	687.495
258.263	21.757	874.696	687.473
259.278	21.733	873.920	686.706
260.293	21.917	873.304	686.883
261.307	21.793	872.481	685.691
262.322	21.637	871.697	684.405
263.336	20.783	869.977	679.661
264.351	19.913	867.586	674.343
265.366	20.052	867.500	674.761
266.380	21.103	868.382	679.483
267.395	21.539	867.776	680.644
268.409	21.492	867.188	679.940
269.424	21.634	866.374	679.789
270.439	21.597	866.118	679.388
271.453	21.778	865.788	679.769
272.468	21.814	865.564	679.674
273.482	21.883	864.779	679.264
274.497	21.477	863.565	676.681
275.512	21.245	862.342	674.767
276.526	21.513	862.851	676.141
277.541	21.801	861.930	676.469
278.555	21.518	861.137	674.696
279.570	21.306	860.428	673.263
280.585	21.606	859.761	673.837
281.599	21.479	859.117	672.784
282.614	20.918	858.016	669.709
283.628	20.864	857.700	669.197
284.643	21.268	857.245	670.330
285.657	20.807	856.102	667.613
286.672	20.606	855.217	666.092
287.687	21.363	854.956	668.728
288.701	21.251	854.535	667.910
289.716	21.018	853.541	666.186
290.730	20.951	852.945	665.404
291.745	20.623	852.117	663.449
292.760	20.982	851.819	664.525
293.774	21.904	852.457	668.481
294.789	22.235	852.085	669.392
295.803	22.381	851.373	669.326
296.818	22.380	850.662	668.704
297.833	21.830	849.766	665.854
298.847	21.764	848.790	664.779
299.862	22.026	848.979	665.862
300.876	22.179	848.484	665.994
301.891	22.178	847.295	664.998
302.906	21.721	846.505	662.591
303.920	21.816	846.394	662.805
304.935	22.278	846.113	664.274
305.949	22.261	845.152	663.397
306.964	21.888	844.565	661.469
307.979	22.056	844.428	661.936
308.993	22.280	844.339	662.652
310.008	22.346	843.508	662.192
311.022	21.871	842.856	659.834
312.037	21.872	842.261	659.314
313.052	21.741	841.152	657.893
314.066	20.902	839.544	653.433
315.081	20.650	838.937	651.958
316.095	21.360	839.515	655.012
317.110	21.789	839.400	656.472
318.125	21.103	837.437	652.317
319.139	19.999	836.475	647.385
320.154	20.128	835.821	647.301
321.168	20.953	836.400	650.776
322.183	21.651	836.526	653.421
323.197	21.758	835.962	653.321
324.212	21.968	835.615	653.775
325.227	21.959	835.383	653.500
326.241	21.827	834.448	652.222
327.256	21.863	833.782	651.776
328.270	21.615	833.159	650.311
329.285	21.696	832.232	649.829
330.300	21.341	831.557	647.931
331.314	21.636	831.191	648.680
332.329	21.968	831.308	649.943
333.343	22.202	830.655	650.239
334.358	22.056	830.044	649.163
335.373	22.273	829.864	649.769
336.387	22.494	829.834	650.504
337.402	22.535	829.888	650.639
338.416	22.423	829.128	649.574
339.431	22.515	829.024	649.774
340.446	22.714	828.344	649.918
341.460	22.481	828.013	648.743
342.475	22.215	827.535	647.330
343.489	22.435	826.948	647.621
344.504	22.759	827.043	648.833
345.519	22.744	826.658	648.418
346.533	22.752	825.939	647.827
347.548	22.891	825.361	647.823
348.562	22.876	824.885	647.340
349.577	22.863	824.189	646.686
350.592	22.896	823.304	646.056
351.606	22.940	822.648	645.644
352.621	22.792	821.948	644.497
353.635	22.705	821.100	643.458
354.650	22.024	819.848	639.942
355.665	21.036	818.470	635.211
356.679	21.531	818.283	636.813
357.694	21.965	817.826	637.979
358.708	21.739	817.053	636.499
359.723	22.256	816.830	638.143
360.738	22.463	816.969	638.946
361.752	22.570	816.428	638.857
362.767	22.926	816.014	639.765
363.781	23.113	815.996	640.372
364.796	23.396	815.177	640.695
365.810	23.292	814.795	639.963
366.825	23.292	814.368	639.572
367.840	22.777	813.985	637.352
368.854	22.575	813.082	635.860
369.869	22.543	812.382	635.141
370.883	22.666	811.521	634.856
371.898	22.527	811.624	634.380
372.913	22.679	811.237	634.568
373.927	22.802	810.699	634.533
374.942	22.832	810.797	634.661
375.956	22.972	810.231	634.666
376.971	23.093	809.873	634.762
377.986	23.167	809.432	634.626
379.000	23.083	808.868	633.828
380.015	23.130	807.996	633.255
381.029	23.016	807.834	632.665
382.044	23.135	807.495	632.769
383.059	23.134	806.886	632.233
384.073	23.058	806.085	631.277
385.088	23.189	805.361	631.123
386.102	22.969	804.571	629.664
387.117	22.737	804.427	628.668
388.132	22.544	803.130	626.913
389.146	22.114	802.194	624.599
390.161	22.413	802.419	625.783
391.175	22.939	801.945	627.225
392.190	22.661	800.921	625.381
393.205	21.246	798.904	618.743
394.219	19.857	797.214	612.464
395.234	19.912	797.013	612.453
396.248	21.516	798.265	619.039
397.263	22.764	799.165	624.098
398.278	22.748	798.553	623.510
399.292	22.606	797.897	622.439
400.307	22.525	797.382	621.697
401.321	22.530	797.500	621.752
402.336	22.961	797.271	623.040
403.350	23.434	796.945	624.396
404.365	23.492	797.099	624.664
405.380	23.886	796.741	625.715
406.394	23.878	796.050	625.090
407.409	23.766	795.600	624.288
408.423	23.723	795.364	623.895
409.438	23.762	794.850	623.573
410.453	23.909	794.347	623.640
411.467	23.670	794.016	622.489
412.482	23.894	793.182	622.563
413.496	23.946	793.130	622.647
414.511	23.790	792.931	621.891
415.526	23.897	791.936	621.430
416.540	23.788	791.223	620.436
417.555	23.506	790.675	618.966
418.569	23.570	790.751	619.194
419.584	23.488	789.636	617.980
420.599	23.354	789.215	617.131
421.613	157.594	1365.399	1798.515
422.628	136.428	1449.345	1798.595
