DTS Sentinel unit serial number:	SN413079Multiplexer serial number:	ORYXHardware model number:	OX4-SRSoftware version number:	ORYX F/W v4.00 Oryx Data Collector v3.7.2.0data status	okinstallation	princeton_trtdifferential loss correction	single-endedforward channel	channel 1reverse channel	N/Adate	2019/09/12time	02:00:11forward acquisition time	60.00reverse acquisition time	0.00gamma	496.2192k internal	0.2320k external	0.2320temperature offset calibration	1.0077default loss term (dB/km)	0.3790temperature slope calibration	1.0000multiplexer offset coefficient	1.0000multiplexer slope coefficient	1.0000fibre end	0.00T internal ref (°C)	32.75T ext. ref 1 (°C)	2.05T ext. ref 2 (°C)	27.26length (m)	temperature (°C)	Stokes	anti-Stokes-747.200	630.884	-0.061	-0.156
-746.185	169.423	-0.191	-0.275
-745.171	245.066	-0.116	-0.197
-744.156	94.256	-0.131	-0.151
-743.142	-39.055	-0.128	-0.068
-742.127	-200.000	-0.009	0.235
-741.112	135.144	0.122	-0.161
-740.098	115.381	0.246	0.304
-739.083	6.543	-0.142	0.107
-738.069	603.778	0.105	0.265
-737.054	800.000	-0.018	0.056
-736.039	112.083	0.177	-0.216
-735.025	22.307	-0.235	0.194
-734.010	-200.000	-0.052	-0.231
-732.996	-200.000	-0.018	-0.169
-731.981	-75.733	-0.123	0.044
-730.966	-200.000	0.067	-0.375
-729.952	-200.000	0.030	-0.185
-728.937	-6.864	-0.139	-0.095
-727.923	416.339	-0.110	0.237
-726.908	-31.439	-0.140	0.079
-725.894	12.298	0.165	0.128
-724.879	299.036	-0.044	0.082
-723.864	63.396	0.202	0.204
-722.850	181.030	-0.204	0.303
-721.835	243.530	0.056	0.095
-720.821	800.000	-0.062	-0.269
-719.806	-90.328	-0.087	-0.026
-718.791	728.479	0.048	-0.130
-717.777	7.660	0.417	-0.315
-716.762	-200.000	-0.039	-0.424
-715.748	-117.648	-0.187	0.034
-714.733	66.718	-0.019	-0.020
-713.718	-55.462	-0.229	-0.104
-712.704	414.655	0.157	0.338
-711.689	-125.723	0.178	-0.027
-710.675	372.473	-0.041	0.084
-709.660	344.173	0.053	0.106
-708.645	22.653	0.145	0.120
-707.631	-187.243	-0.533	0.007
-706.616	293.701	0.104	-0.191
-705.602	17.992	0.307	0.247
-704.587	159.309	0.232	-0.326
-703.572	45.533	-0.175	-0.164
-702.558	-38.033	-0.276	0.148
-701.543	7.433	-0.166	-0.125
-700.529	242.597	-0.055	0.093
-699.514	-178.571	0.062	-0.001
-698.499	72.202	0.167	-0.176
-697.485	271.001	0.131	-0.233
-696.470	-141.244	0.337	0.035
-695.456	718.264	-0.074	0.200
-694.441	-200.000	0.009	-0.226
-693.426	-146.801	-0.308	-0.027
-692.412	-200.000	0.006	-0.051
-691.397	-146.446	-0.412	0.036
-690.383	80.338	0.020	0.021
-689.368	-37.029	0.191	0.103
-688.354	-141.048	0.369	-0.038
-687.339	-200.000	-0.065	-0.307
-686.324	-88.903	-0.314	-0.094
-685.310	800.000	-0.029	0.107
-684.295	106.707	-0.203	-0.243
-683.281	-28.960	-0.062	0.036
-682.266	319.808	-0.149	-0.286
-681.251	769.244	-0.068	0.188
-680.237	250.979	-0.115	-0.197
-679.222	-24.030	0.090	-0.054
-678.208	-159.657	0.007	-0.000
-677.193	-200.000	-0.021	0.193
-676.178	-158.017	-0.461	0.027
-675.164	147.963	-0.074	-0.100
-674.149	800.000	-0.049	0.195
-673.135	-31.613	0.250	-0.141
-672.120	159.867	-0.119	0.168
-671.105	-164.193	-0.127	-0.006
-670.091	38.787	0.217	-0.196
-669.076	-200.000	0.004	-0.066
-668.062	800.000	0.113	0.347
-667.047	-136.527	0.116	0.014
-666.032	263.184	0.032	-0.056
-665.018	237.281	-0.057	0.096
-664.003	45.543	0.138	-0.128
-662.989	-127.782	-0.227	0.033
-661.974	430.534	-0.091	0.198
-660.959	-200.000	-0.002	0.130
-659.945	-75.130	0.172	-0.062
-658.930	800.000	0.080	0.324
-657.916	119.437	-0.103	-0.129
-656.901	-29.076	-0.201	-0.116
-655.886	-32.804	-0.326	0.183
-654.872	225.730	-0.022	0.037
-653.857	-49.195	-0.128	-0.062
-652.843	-58.975	0.347	0.151
-651.828	42.664	0.083	-0.076
-650.814	-83.855	0.128	-0.041
-649.799	800.000	0.032	0.108
-648.784	-200.000	-0.123	-0.563
-647.770	-126.610	0.243	-0.036
-646.755	-200.000	0.064	0.326
-645.741	-169.201	-0.352	0.013
-644.726	114.639	-0.161	-0.198
-643.711	516.578	0.034	-0.080
-642.697	-42.408	0.281	-0.145
-641.682	135.022	-0.031	-0.040
-640.668	-200.000	-0.007	0.095
-639.653	-35.486	-0.072	0.040
-638.638	-98.718	-0.115	0.030
-637.624	-200.000	0.003	0.118
-636.609	800.000	0.055	-0.218
-635.595	211.387	-0.128	0.203
-634.580	174.168	-0.092	-0.134
-633.565	-200.000	-0.033	-0.309
-632.551	-200.000	0.009	0.193
-631.536	-70.603	-0.332	-0.126
-630.522	-200.000	0.034	0.384
-629.507	-86.638	-0.063	0.019
-628.492	-15.175	-0.405	0.261
-627.478	-200.000	0.020	0.145
-626.463	-127.525	-0.230	-0.034
-625.449	800.000	-0.089	-0.333
-624.434	-85.963	0.097	0.030
-623.419	-200.000	-0.027	0.163
-622.405	365.468	-0.139	0.282
-621.390	71.037	-0.164	0.171
-620.376	-44.323	-0.228	0.115
-619.361	402.221	-0.061	-0.130
-618.346	-163.804	-0.215	0.010
-617.332	-118.991	0.089	-0.016
-616.317	-31.794	0.240	0.135
-615.303	136.332	-0.241	-0.317
-614.288	-200.000	0.012	0.179
-613.273	800.000	-0.057	0.242
-612.259	386.913	0.125	0.260
-611.244	-76.470	-0.318	0.112
-610.230	-91.002	0.235	-0.068
-609.215	-94.815	0.306	-0.083
-608.201	-200.000	-0.005	-0.049
-607.186	218.660	-0.232	-0.373
-606.171	-200.000	0.001	-0.115
-605.157	-14.739	0.315	0.204
-604.142	-60.551	0.354	-0.151
-603.128	-119.635	-0.012	-0.002
-602.113	-61.279	0.041	-0.017
-601.098	-130.670	0.129	-0.017
-600.084	-59.888	-0.078	-0.033
-599.069	-103.119	-0.144	-0.034
-598.055	624.554	0.060	0.151
-597.040	-88.058	0.230	0.069
-596.025	-99.299	0.321	0.081
-595.011	-123.699	-0.339	-0.054
-593.996	57.247	-0.020	0.019
-592.982	-157.680	-0.147	0.009
-591.967	-127.033	0.161	-0.024
-590.952	800.000	0.022	-0.077
-589.938	326.983	-0.122	0.234
-588.923	-190.981	0.348	-0.004
-587.909	25.055	0.311	-0.260
-586.894	-200.000	-0.056	-0.600
-585.879	-68.646	-0.225	-0.087
-584.865	-32.386	-0.229	-0.128
-583.850	-200.000	0.030	0.145
-582.836	-135.519	-0.229	0.027
-581.821	-23.415	-0.255	0.154
-580.806	800.000	-0.046	0.172
-579.792	-56.818	-0.055	-0.024
-578.777	-87.028	0.446	-0.136
-577.763	-108.091	0.137	-0.030
-576.748	-200.000	-0.012	0.199
-575.733	-10.693	-0.153	0.102
-574.719	800.000	0.007	-0.028
-573.704	800.000	0.070	-0.278
-572.690	-120.759	0.317	0.054
-571.675	-200.000	-0.017	0.095
-570.661	-158.236	-0.118	-0.007
-569.646	44.691	-0.167	-0.154
-568.631	-200.000	-0.000	-0.232
-567.617	772.740	-0.073	0.200
-566.602	-26.076	0.040	-0.023
-565.588	155.998	0.039	-0.054
-564.573	-200.000	-0.010	-0.181
-563.558	476.246	-0.027	0.061
-562.544	-45.289	0.079	-0.040
-561.529	-38.810	0.281	-0.149
-560.515	-69.919	-0.126	0.048
-559.500	245.559	-0.217	-0.367
-558.485	-200.000	0.026	0.262
-557.471	115.622	0.124	-0.153
-556.456	434.309	0.101	-0.221
-555.442	-200.000	-0.042	-0.491
-554.427	162.536	-0.228	0.322
-553.412	-162.522	0.143	-0.007
-552.398	-92.585	0.178	0.050
-551.383	-200.000	-0.044	0.376
-550.369	800.000	0.133	-0.374
-549.354	18.064	-0.051	-0.040
-548.339	-200.000	-0.008	-0.124
-547.325	144.221	0.161	0.215
-546.310	-121.299	-0.132	0.022
-545.296	-200.000	0.007	-0.117
-544.281	-23.428	0.135	0.081
-543.266	-200.000	0.024	0.234
-542.252	-64.749	0.144	0.059
-541.237	-80.997	0.149	0.049
-540.223	274.099	-0.198	0.351
-539.208	131.957	-0.090	-0.116
-538.193	33.274	-0.387	0.337
-537.179	385.158	0.135	0.279
-536.164	-200.000	-0.008	-0.076
-535.150	-47.610	-0.093	-0.045
-534.135	-162.327	0.218	0.011
-533.121	-85.456	-0.259	-0.081
-532.106	-82.624	0.335	-0.109
-531.091	-5.521	0.113	0.077
-530.077	-200.000	-0.022	-0.174
-529.062	-35.058	-0.018	-0.010
-528.048	-178.084	0.065	0.002
-527.033	-172.541	0.130	-0.004
-526.018	-179.175	0.288	0.006
-525.004	-68.012	-0.037	-0.014
-523.989	-130.226	0.094	-0.013
-522.975	800.000	0.040	-0.131
-521.960	13.790	-0.167	-0.130
-520.945	-26.884	-0.105	0.061
-519.931	-200.000	0.004	-0.037
-518.916	-139.467	0.315	-0.034
-517.902	-111.894	-0.286	-0.058
-516.887	-37.060	-0.140	-0.075
-515.872	-200.000	0.036	-0.288
-514.858	239.755	-0.112	0.187
-513.843	4.485	0.117	0.086
-512.829	-115.912	0.114	0.021
-511.814	446.521	0.062	0.136
-510.799	93.531	-0.120	-0.136
-509.785	-99.332	-0.047	0.012
-508.770	257.109	-0.068	-0.117
-507.756	480.576	-0.077	-0.175
-506.741	-49.676	-0.174	0.083
-505.726	347.816	-0.151	-0.299
-504.712	-93.727	-0.496	-0.137
-503.697	84.006	0.328	-0.359
-502.683	-79.405	0.221	0.075
-501.668	-200.000	0.020	0.201
-500.653	-66.351	-0.021	-0.009
-499.639	-19.895	-0.187	-0.116
-498.624	-14.190	0.110	-0.071
-497.610	419.119	-0.095	-0.204
-496.595	509.608	0.106	-0.247
-495.581	-200.000	-0.012	0.058
-494.566	534.720	0.089	-0.211
-493.551	53.954	0.250	-0.241
-492.537	-200.000	0.023	0.172
-491.522	800.000	-0.073	-0.203
-490.508	-200.000	0.006	0.243
-489.493	152.358	-0.251	0.342
-488.478	-32.269	-0.236	-0.132
-487.464	428.107	0.070	-0.152
-486.449	7.275	-0.193	0.144
-485.435	800.000	-0.042	0.172
-484.420	-48.308	0.092	0.044
-483.405	-89.609	0.417	0.123
-482.391	800.000	0.058	-0.236
-481.376	-200.000	0.002	-0.141
-480.362	-192.165	0.073	-0.001
-479.347	-89.816	0.253	0.074
-478.332	-64.435	0.179	-0.073
-477.318	-6.669	0.193	0.131
-476.303	90.157	0.127	-0.142
-475.289	-27.197	0.197	-0.115
-474.274	291.646	-0.100	-0.183
-473.259	-163.315	-0.449	-0.021
-472.245	-102.400	0.146	-0.035
-471.230	-130.123	0.105	-0.014
-470.216	552.774	-0.092	-0.222
-469.201	-43.519	-0.269	-0.136
-468.186	20.526	0.056	0.045
-467.172	-58.599	0.315	0.137
-466.157	272.022	-0.071	0.126
-465.143	-70.377	0.167	0.063
-464.128	-7.421	-0.156	0.106
-463.113	-200.000	-0.015	0.221
-462.099	-200.000	-0.052	0.439
-461.084	50.581	-0.126	0.119
-460.070	-200.000	-0.085	-0.494
-459.055	-29.820	0.258	0.147
-458.040	-1.330	0.052	0.037
-457.026	-33.006	-0.345	-0.191
-456.011	-156.080	0.221	0.014
-454.997	212.422	-0.016	0.025
-453.982	113.442	0.067	0.081
-452.968	168.008	-0.153	0.218
-451.953	-200.000	0.009	-0.111
-450.938	346.687	0.047	0.092
-449.924	-60.977	-0.282	-0.119
-448.909	34.153	0.182	0.158
-447.895	277.018	-0.113	0.200
-446.880	48.378	-0.057	0.053
-445.865	-25.821	0.220	-0.129
-444.851	-200.000	-0.019	-0.113
-443.836	-75.431	-0.237	-0.084
-442.822	-47.919	0.359	0.173
-441.807	-200.000	-0.141	0.631
-440.792	-21.243	-0.183	0.112
-439.778	-81.868	0.294	0.096
-438.763	411.763	0.117	-0.248
-437.749	426.028	0.076	0.163
-436.734	800.000	-0.076	0.232
-435.719	-82.907	-0.180	-0.058
-434.705	5.030	0.201	-0.148
-433.690	-29.720	0.142	0.081
-432.676	30.088	-0.051	-0.043
-431.661	46.729	-0.034	0.031
-430.646	133.802	-0.158	-0.205
-429.632	534.983	0.068	-0.161
-428.617	511.430	-0.063	-0.146
-427.603	146.810	-0.192	0.257
-426.588	-200.000	0.073	0.323
-425.573	129.868	-0.054	0.069
-424.559	-109.372	-0.132	-0.028
-423.544	200.297	0.041	-0.063
-422.530	-200.000	-0.014	0.269
-421.515	-100.066	-0.333	0.083
-420.500	-14.199	0.143	-0.092
-419.486	-31.381	0.045	0.025
-418.471	79.320	-0.107	-0.114
-417.457	128.031	-0.055	-0.070
-416.442	74.733	-0.045	0.047
-415.428	-200.000	0.111	-0.487
-414.413	800.000	-0.123	0.351
-413.398	-200.000	0.028	0.208
-412.384	-124.596	0.149	0.023
-411.369	-200.000	-0.024	-0.133
-410.355	14.445	-0.424	-0.330
-409.340	18.406	-0.206	-0.164
-408.325	800.000	0.093	-0.267
-407.311	418.418	-0.134	-0.287
-406.296	-31.622	0.130	0.073
-405.282	800.000	-0.027	0.096
-404.267	800.000	-0.078	-0.238
-403.252	800.000	-0.097	-0.376
-402.238	279.668	0.131	0.234
-401.223	108.072	-0.172	-0.205
-400.209	29.108	0.091	0.077
-399.194	754.446	-0.019	-0.050
-398.179	-200.000	-0.019	-0.133
-397.165	-1.354	0.104	0.073
-396.150	221.606	0.091	0.145
-395.136	-122.045	0.458	-0.075
-394.121	329.573	-0.145	0.278
-393.106	28.509	0.249	-0.210
-392.092	83.262	-0.167	-0.181
-391.077	-171.731	-0.192	0.006
-390.063	307.803	0.040	-0.075
-389.048	407.036	-0.111	0.233
-388.033	80.788	0.181	-0.194
-387.019	148.611	0.184	-0.248
-386.004	44.676	-0.176	0.161
-384.990	-200.000	-0.000	0.023
-383.975	4.586	0.266	-0.194
-382.960	39.765	0.119	-0.106
-381.946	508.910	-0.027	-0.064
-380.931	-200.000	0.033	-0.199
-379.917	800.000	-0.063	-0.231
-378.902	148.853	0.271	0.365
-377.888	-7.190	0.155	0.105
-376.873	282.747	-0.089	0.160
-375.858	800.000	-0.068	0.273
-374.844	-164.919	-0.167	0.007
-373.829	337.537	-0.147	0.285
-372.815	28.052	-0.167	-0.140
-371.800	108.983	0.170	-0.203
-370.785	54.504	0.373	0.358
-369.771	529.187	-0.004	-0.008
-368.756	-200.000	-0.060	0.318
-367.742	13.857	-0.033	0.026
-366.727	259.993	-0.074	0.128
-365.712	800.000	-0.072	0.251
-364.698	800.000	-0.098	0.297
-363.683	-158.215	0.190	0.011
-362.669	11.274	-0.117	0.089
-361.654	-200.000	-0.063	-0.398
-360.639	171.937	0.187	0.267
-359.625	47.559	0.199	-0.185
-358.610	800.000	-0.141	-0.531
-357.596	-23.937	-0.059	0.035
-356.581	378.767	0.058	0.118
-355.566	160.337	-0.077	0.107
-354.552	22.243	-0.218	0.177
-353.537	-53.114	0.427	-0.195
-352.523	-116.852	-0.278	0.051
-351.508	-200.000	-0.029	0.155
-350.493	4.850	0.186	-0.136
-349.479	800.000	-0.050	0.158
-348.464	20.232	0.146	0.117
-347.450	92.516	0.039	0.044
-346.435	-200.000	0.024	0.124
-345.420	751.074	0.036	0.096
-344.406	-55.930	0.236	0.105
-343.391	220.880	-0.190	-0.304
-342.377	-200.000	0.040	-0.194
-341.362	-54.388	-0.099	-0.045
-340.348	-65.336	0.320	-0.128
-339.333	-74.146	0.205	-0.074
-338.318	-200.000	-0.057	0.266
-337.304	800.000	-0.025	-0.089
-336.289	465.451	-0.070	0.157
-335.275	-104.518	0.233	-0.054
-334.260	-137.068	-0.400	-0.046
-333.245	-200.000	-0.034	0.296
-332.231	317.411	-0.039	-0.073
-331.216	-47.687	0.142	0.068
-330.202	-110.072	-0.294	0.061
-329.187	-200.000	-0.018	-0.384
-328.172	800.000	0.099	0.396
-327.158	800.000	0.056	-0.207
-326.143	57.502	-0.017	-0.016
-325.129	238.275	-0.055	-0.090
-324.114	179.984	-0.307	-0.447
-323.099	800.000	0.081	0.232
-322.085	800.000	-0.064	-0.267
-321.070	-56.330	-0.096	0.042
-320.056	470.267	0.047	-0.106
-319.041	340.570	0.090	0.174
-318.026	-24.550	0.290	0.172
-317.012	-69.332	-0.242	0.092
-315.997	84.823	-0.109	0.118
-314.983	169.476	-0.240	-0.341
-313.968	-11.797	0.207	0.135
-312.953	-121.107	-0.195	-0.032
-311.939	113.338	-0.085	-0.102
-310.924	800.000	-0.043	-0.155
-309.910	-112.881	-0.278	0.055
-308.895	-76.283	-0.113	-0.040
-307.880	358.423	-0.044	0.087
-306.866	-200.000	0.018	0.088
-305.851	151.736	-0.081	0.109
-304.837	127.898	0.176	-0.222
-303.822	-200.000	0.019	-0.114
-302.807	577.950	0.082	-0.199
-301.793	-82.524	-0.090	-0.029
-300.778	-77.878	-0.219	-0.075
-299.764	105.013	0.186	-0.218
-298.749	-200.000	0.010	-0.096
-297.735	239.032	-0.170	0.282
-296.720	-4.947	0.109	0.075
-295.705	-22.970	0.207	0.124
-294.691	-124.954	-0.382	0.059
-293.676	-200.000	0.035	0.212
-292.662	-200.000	0.049	0.277
-291.647	102.585	-0.286	0.333
-290.632	57.121	-0.145	-0.140
-289.618	-21.149	-0.146	-0.089
-288.603	-7.596	-0.144	-0.097
-287.589	-52.840	0.011	0.005
-286.574	-200.000	0.019	-0.170
-285.559	-200.000	-0.017	0.401
-284.545	34.959	0.074	-0.064
-283.530	800.000	-0.118	-0.335
-282.516	-200.000	0.009	0.184
-281.501	800.000	0.100	-0.323
-280.486	-200.000	-0.004	-0.081
-279.472	-200.000	0.003	-0.378
-278.457	186.411	0.150	0.222
-277.443	-200.000	-0.020	-0.097
-276.428	800.000	-0.008	0.023
-275.413	-200.000	0.011	-0.182
-274.399	-12.327	0.226	-0.147
-273.384	179.457	-0.049	0.071
-272.370	-200.000	0.005	-0.103
-271.355	112.832	-0.124	0.149
-270.340	-200.000	0.025	0.371
-269.326	-13.613	0.197	0.127
-268.311	-200.000	0.039	0.414
-267.297	-25.090	-0.061	-0.036
-266.282	-23.489	-0.088	0.052
-265.267	-200.000	-0.011	-0.520
-264.253	2.846	-0.296	-0.213
-263.238	800.000	-0.023	-0.087
-262.224	-93.364	0.377	-0.104
-261.209	-42.315	-0.121	0.061
-260.195	101.979	0.167	-0.193
-259.180	-155.270	-0.064	-0.004
-258.165	-61.842	0.214	-0.089
-257.151	-104.799	0.138	-0.031
-256.136	178.651	-0.137	0.198
-255.122	-200.000	0.037	0.215
-254.107	21.450	0.084	-0.068
-253.092	-66.418	-0.046	0.018
-252.078	48.817	0.236	-0.219
-251.063	-200.000	0.014	-0.224
-250.049	-34.772	-0.220	0.119
-249.034	308.058	0.066	-0.122
-248.019	-173.712	-0.339	-0.010
-247.005	-200.000	-0.068	0.303
-245.990	-53.906	0.320	-0.145
-244.976	-200.000	0.008	-0.333
-243.961	-84.428	-0.052	0.016
-242.946	402.832	-0.012	0.024
-241.932	119.203	-0.045	0.056
-240.917	-102.544	-0.126	-0.030
-239.903	-94.372	-0.239	-0.065
-238.888	-76.763	0.583	-0.202
-237.873	-87.010	-0.019	0.006
-236.859	67.237	-0.047	0.048
-235.844	-45.887	0.188	0.092
-234.830	-110.746	0.177	-0.036
-233.815	-29.574	0.203	-0.115
-232.800	112.125	0.075	0.090
-231.786	-87.176	-0.253	0.076
-230.771	-78.406	-0.242	-0.082
-229.757	-19.483	-0.409	0.251
-228.742	-83.465	0.295	0.094
-227.727	-3.173	0.054	0.037
-226.713	-67.420	0.213	-0.083
-225.698	-200.000	-0.022	-0.112
-224.684	-165.373	0.398	-0.017
-223.669	22.369	0.347	0.281
-222.655	-200.000	-0.027	0.226
-221.640	-147.339	0.276	-0.023
-220.625	-59.204	-0.156	-0.066
-219.611	27.023	0.265	-0.220
-218.596	569.878	0.098	-0.235
-217.582	-200.000	0.001	0.270
-216.567	-122.459	-0.308	0.050
-215.552	395.269	-0.249	0.515
-214.538	-3.344	0.074	0.051
-213.523	-44.190	0.086	-0.043
-212.509	800.000	-0.003	0.013
-211.494	15.819	0.047	0.036
-210.479	800.000	-0.060	0.199
-209.465	-42.452	-0.282	0.142
-208.450	472.198	-0.161	-0.359
-207.436	115.726	0.106	0.128
-206.421	17.934	0.119	0.094
-205.406	777.752	0.076	0.206
-204.392	11.519	-0.114	0.087
-203.377	-90.813	-0.268	-0.076
-202.363	94.046	0.276	-0.310
-201.348	-148.714	-0.075	-0.006
-200.333	-0.623	-0.200	0.140
-199.319	-9.741	0.118	0.078
-198.304	552.266	0.052	0.122
-197.290	276.891	-0.063	-0.111
-196.275	-200.000	-0.006	-0.099
-195.260	8.581	0.152	0.113
-194.246	-128.254	0.118	-0.017
-193.231	78.752	0.113	0.119
-192.217	-35.268	0.081	-0.044
-191.202	72.409	-0.077	0.080
-190.187	703.837	0.078	-0.204
-189.173	50.654	-0.130	0.122
-188.158	800.000	-0.027	0.096
-187.144	-170.595	-0.201	-0.007
-186.129	-42.606	0.163	-0.082
-185.114	-87.142	0.230	-0.069
-184.100	37.028	0.210	0.184
-183.085	-200.000	-0.026	0.190
-182.071	44.485	-0.147	0.134
-181.056	37.475	-0.064	0.056
-180.042	271.750	0.060	0.105
-179.027	490.794	0.089	0.202
-178.012	278.549	0.028	-0.049
-176.998	552.183	-0.058	-0.139
-175.983	119.755	-0.150	0.183
-174.969	-55.020	0.206	0.092
-173.954	-200.000	0.026	-0.164
-172.939	-200.000	0.005	0.081
-171.925	-75.111	0.166	-0.059
-170.910	79.158	-0.099	-0.105
-169.896	-158.895	0.147	-0.008
-168.881	526.075	-0.052	0.121
-167.866	133.875	0.166	0.213
-166.852	800.000	-0.039	0.112
-165.837	-125.813	-0.380	-0.057
-164.823	247.479	0.148	0.247
-163.808	-200.000	-0.007	-0.084
-162.793	18.869	-0.062	0.049
-161.779	-200.000	0.022	-0.162
-160.764	114.811	-0.175	-0.211
-159.750	-46.446	-0.017	-0.008
-158.735	-200.000	0.016	-0.103
-157.720	800.000	0.069	0.275
-156.706	-78.771	-0.079	0.027
-155.691	-73.365	0.202	0.073
-154.677	100.144	-0.114	0.131
-153.662	-194.214	-0.116	0.001
-152.647	800.000	0.031	-0.085
-151.633	11.478	-0.065	0.049
-150.618	576.583	0.054	0.131
-149.604	-50.145	-0.092	0.043
-148.589	102.656	-0.193	-0.223
-147.574	415.649	0.152	-0.320
-146.560	-145.085	-0.194	-0.017
-145.545	-106.321	-0.290	-0.064
-144.531	8.738	-0.311	-0.232
-143.516	-86.395	0.311	-0.094
-142.502	-200.000	0.008	-0.196
-141.487	-200.000	0.059	0.369
-140.472	156.289	-0.113	0.154
-139.458	-200.000	-0.022	0.401
-138.443	800.000	0.088	0.296
-137.429	-13.457	-0.080	0.051
-136.414	-200.000	-0.005	-0.151
-135.399	37.248	0.223	-0.195
-134.385	-200.000	0.029	-0.204
-133.370	800.000	0.006	0.019
-132.356	60.568	0.096	-0.094
-131.341	-82.250	-0.091	-0.029
-130.326	-59.264	-0.070	0.030
-129.312	-122.964	-0.350	0.056
-128.297	-70.371	-0.270	0.101
-127.283	-7.007	-0.240	-0.161
-126.268	-102.845	0.365	0.086
-125.253	-200.000	-0.020	-0.254
-124.239	522.574	-0.023	0.054
-123.224	-5.700	-0.084	0.057
-122.210	255.512	-0.068	0.114
-121.195	27.642	-0.387	0.321
-120.180	125.537	0.243	-0.303
-119.166	-134.787	0.101	-0.012
-118.151	197.464	0.017	-0.026
-117.137	213.558	0.163	-0.254
-116.122	232.105	-0.080	-0.130
-115.107	-36.903	0.082	-0.043
-114.093	-20.473	0.237	0.144
-113.078	800.000	-0.019	0.052
-112.064	204.617	-0.015	-0.023
-111.049	-53.183	-0.231	-0.104
-110.034	-13.515	0.191	-0.122
-109.020	-90.531	-0.230	0.066
-108.005	800.000	0.064	0.205
-106.991	464.439	-0.036	0.079
-105.976	643.195	-0.018	0.044
-104.962	10.537	0.192	0.144
-103.947	524.633	0.061	-0.141
-102.932	-97.497	0.235	-0.060
-101.918	-98.926	-0.339	0.085
-100.903	-28.315	0.076	-0.043
-99.889	-110.226	-0.221	0.045
-98.874	102.400	-0.262	0.302
-97.859	3.558	0.111	0.080
-96.845	800.000	-0.070	-0.253
-95.830	-149.627	0.545	-0.042
-94.816	72.569	-0.136	-0.140
-93.801	136.588	-0.114	-0.146
-92.786	800.000	-0.112	0.313
-91.772	-155.179	0.474	-0.031
-90.757	201.193	-0.143	0.217
-89.743	-200.000	-0.023	-0.112
-88.728	323.113	-0.125	0.235
-87.713	-118.219	-0.171	0.030
-86.699	-91.526	0.065	-0.018
-85.684	-103.706	0.189	0.044
-84.670	48.193	0.177	-0.163
-83.655	-75.715	-0.296	0.104
-82.640	10.095	0.223	0.167
-81.626	135.449	0.255	-0.327
-80.611	-86.360	-0.091	-0.028
-79.597	262.362	0.161	0.275
-78.582	100.944	-0.046	-0.052
-77.567	-93.948	0.146	0.040
-76.553	21.663	0.185	-0.149
-75.538	167.378	0.179	0.250
-74.524	-45.275	0.173	0.085
-73.509	-200.000	0.020	0.221
-72.494	200.547	0.177	0.268
-71.480	800.000	0.026	0.093
-70.465	117.786	-0.244	0.296
-69.451	0.397	-0.152	0.107
-68.436	-171.444	-0.368	0.012
-67.422	-97.007	0.279	0.072
-66.407	-132.100	0.027	0.003
-65.392	-11.670	-0.065	-0.042
-64.378	333.644	0.048	0.092
-63.363	800.000	0.029	0.081
-62.349	-67.485	-0.515	0.199
-61.334	56.324	-0.898	-0.860
-60.319	9.352	0.520	0.387
-59.305	394.370	-0.371	-0.760
-58.290	-200.000	0.224	1.043
-57.276	800.000	0.435	1.409
-56.261	-200.000	96.019	575.915
-55.246	556.131	1374.835	3259.298
-54.232	160.780	2549.378	3503.684
-53.217	112.336	2140.817	2548.238
-52.203	44.262	1603.813	1448.437
-51.188	36.261	1342.195	1164.096
-50.173	33.055	1300.181	1108.835
-49.159	54.550	1346.992	1277.545
-48.144	56.938	1363.960	1307.835
-47.130	36.336	1322.716	1147.467
-46.115	32.994	1304.837	1112.272
-45.100	32.731	1300.400	1106.900
-44.086	32.574	1298.253	1104.108
-43.071	32.649	1295.851	1102.463
-42.057	32.666	1293.081	1100.161
-41.042	32.772	1291.534	1099.416
-40.027	32.823	1289.877	1098.259
-39.013	32.712	1288.602	1096.483
-37.998	32.590	1286.662	1094.085
-36.984	32.724	1285.051	1093.446
-35.969	32.726	1283.137	1091.788
-34.954	32.789	1281.642	1090.838
-33.940	32.773	1280.334	1089.587
-32.925	32.843	1279.020	1088.831
-31.911	32.849	1277.326	1087.376
-30.896	32.896	1275.821	1086.324
-29.881	32.892	1274.516	1085.149
-28.867	32.816	1273.169	1083.519
-27.852	32.807	1271.808	1082.267
-26.838	32.820	1270.476	1081.168
-25.823	33.018	1268.690	1080.739
-24.809	32.935	1267.486	1079.194
-23.794	32.837	1266.321	1077.599
-22.779	32.769	1265.293	1076.294
-21.765	32.863	1263.399	1075.175
-20.750	32.830	1262.490	1074.174
-19.736	32.716	1261.020	1072.230
-18.721	32.689	1260.357	1071.472
-17.706	32.683	1259.272	1070.472
-16.692	32.733	1257.639	1069.322
-15.677	32.736	1256.732	1068.525
-14.663	32.592	1255.999	1067.048
-13.648	32.725	1254.406	1066.404
-12.633	32.696	1253.782	1065.666
-11.619	32.614	1252.833	1064.356
-10.604	32.704	1252.033	1064.140
-9.590	32.676	1250.847	1062.929
-8.575	32.632	1250.117	1062.019
-7.560	32.644	1249.162	1061.235
-6.546	32.698	1247.821	1060.355
-5.531	32.712	1247.181	1059.852
-4.517	32.601	1246.571	1058.667
-3.502	32.669	1245.839	1058.383
-2.487	32.678	1245.043	1057.716
-1.473	32.582	1240.845	1053.572
-0.458	31.233	1226.099	1033.551
0.556	28.120	1209.069	995.990
1.571	24.582	1213.668	980.312
2.586	23.794	1228.840	988.097
3.600	23.251	1218.224	976.481
4.615	17.165	1145.519	886.459
5.629	6.850	1068.899	776.622
6.644	2.407	1047.989	739.911
7.659	2.078	1045.492	736.496
8.673	1.830	1044.286	734.389
9.688	1.896	1042.518	733.397
10.702	2.300	1042.083	734.968
11.717	9.079	1050.921	773.909
12.731	19.061	1065.294	832.979
13.746	24.186	1071.386	862.553
14.761	25.040	1072.791	867.745
15.775	25.039	1072.136	867.131
16.790	24.987	1071.476	866.272
17.804	24.909	1070.967	865.403
18.819	25.124	1070.083	865.652
19.834	25.223	1069.752	865.785
20.848	25.199	1069.569	865.442
21.863	25.160	1069.158	864.849
22.877	25.157	1068.100	863.901
23.892	25.029	1067.695	862.878
24.907	25.190	1066.910	862.942
25.921	25.181	1065.393	861.600
26.936	25.119	1064.376	860.403
27.950	25.069	1063.047	859.012
28.965	24.977	1060.998	856.841
29.980	25.132	1059.535	856.321
30.994	25.305	1058.891	856.552
32.009	25.330	1057.638	855.582
33.023	25.034	1056.397	853.090
34.038	25.013	1056.106	852.682
35.053	25.210	1055.297	852.890
36.067	25.214	1054.735	852.380
37.082	25.205	1054.142	851.783
38.096	25.378	1052.991	851.596
39.111	25.467	1052.747	851.748
40.126	25.233	1051.282	849.380
41.140	24.886	1049.212	845.990
42.155	24.781	1047.708	844.208
43.169	24.884	1047.079	844.114
44.184	24.771	1046.371	842.935
45.199	24.636	1045.317	841.377
46.213	24.875	1044.261	841.575
47.228	24.972	1043.696	841.500
48.242	25.094	1042.970	841.414
49.257	25.158	1042.307	841.104
50.271	25.352	1041.298	841.122
51.286	25.261	1040.487	839.967
52.301	25.324	1039.875	839.698
53.315	25.139	1039.017	838.064
54.330	25.067	1038.054	836.876
55.344	25.209	1037.303	836.860
56.359	25.099	1036.290	835.455
57.374	24.914	1035.483	833.872
58.388	25.011	1034.727	833.640
59.403	24.807	1033.665	831.761
60.417	24.776	1033.083	831.073
61.432	24.902	1032.326	830.976
62.447	24.915	1032.115	830.794
63.461	25.021	1030.644	830.027
64.476	24.827	1029.984	828.525
65.490	24.883	1028.894	827.834
66.505	24.966	1028.663	827.960
67.520	24.961	1027.659	827.054
68.534	24.671	1026.770	824.928
69.549	24.307	1025.626	822.256
70.563	24.356	1024.811	821.757
71.578	24.341	1024.038	820.994
72.593	24.322	1022.918	819.936
73.607	24.415	1022.281	819.781
74.622	24.856	1021.930	821.453
75.636	24.623	1021.785	820.193
76.651	24.478	1020.504	818.430
77.666	24.502	1019.669	817.794
78.680	24.645	1019.123	817.942
79.695	24.797	1017.965	817.632
80.709	24.729	1018.045	817.312
81.724	24.685	1017.413	816.533
82.739	24.874	1016.290	816.421
83.753	25.075	1015.837	816.901
84.768	25.484	1015.069	818.072
85.782	25.467	1014.231	817.251
86.797	25.444	1013.183	816.229
87.812	25.294	1012.434	814.869
88.826	25.396	1010.970	814.081
89.841	25.445	1010.682	814.001
90.855	25.488	1009.298	813.007
91.870	25.481	1008.369	812.158
92.884	25.292	1007.372	810.427
93.899	25.301	1006.456	809.661
94.914	25.363	1005.767	809.315
95.928	25.227	1004.517	807.627
96.943	25.070	1003.395	805.944
97.957	24.794	1002.647	804.032
98.972	24.650	1001.403	802.316
99.987	24.925	1000.687	802.909
101.001	25.266	999.550	803.448
102.016	25.069	999.159	802.183
103.030	24.932	998.665	801.105
104.045	24.917	997.391	799.942
105.060	24.719	996.587	798.344
106.074	24.975	995.813	798.794
107.089	25.210	995.475	799.500
108.103	25.231	994.096	798.415
109.118	24.845	992.995	795.743
110.133	24.791	992.537	795.069
111.147	24.673	990.877	793.146
112.162	24.489	990.262	791.768
113.176	24.802	989.768	792.686
114.191	24.799	988.466	791.563
115.206	24.451	987.671	789.314
116.220	24.531	986.334	788.533
117.235	24.473	986.673	788.478
118.249	24.717	984.971	788.121
119.264	24.560	983.855	786.470
120.279	24.438	983.451	785.538
121.293	24.610	982.636	785.576
122.308	24.540	982.014	784.699
123.322	24.603	980.720	783.871
124.337	24.426	979.375	781.955
125.352	23.896	977.944	778.423
126.366	23.832	977.147	777.439
127.381	24.639	977.084	780.849
128.395	25.042	976.688	782.220
129.410	25.134	975.872	781.901
130.424	24.993	974.956	780.483
131.439	25.019	973.993	779.755
132.454	25.047	973.194	779.169
133.468	25.095	972.092	778.427
134.483	25.187	971.530	778.308
135.497	25.327	970.900	778.340
136.512	25.414	969.758	777.731
137.527	25.363	969.077	776.896
138.541	25.428	968.170	776.381
139.556	25.493	967.513	776.069
140.570	25.411	966.809	775.081
141.585	25.445	965.844	774.382
142.600	25.491	964.799	773.676
143.614	25.652	963.870	773.555
144.629	25.694	963.214	773.138
145.643	25.504	962.374	771.583
146.658	25.367	960.732	769.608
147.673	25.228	959.915	768.291
148.687	25.234	958.792	767.353
149.702	25.105	958.033	766.124
150.716	25.060	957.100	765.121
151.731	25.280	956.437	765.459
152.746	25.576	955.753	766.107
153.760	25.573	955.195	765.577
154.775	25.713	954.760	765.758
155.789	25.489	954.026	764.150
156.804	25.485	952.952	763.205
157.819	25.619	952.179	763.087
158.833	25.641	951.785	762.796
159.848	25.701	950.663	762.081
160.862	25.363	949.618	759.748
161.877	25.505	948.225	759.167
162.892	25.630	947.351	758.928
163.906	25.452	946.305	757.272
164.921	25.346	945.797	756.351
165.935	25.383	944.846	755.682
166.950	25.634	943.211	755.360
167.964	25.455	942.863	754.263
168.979	25.419	941.578	753.017
169.994	25.278	940.618	751.592
171.008	25.455	940.634	752.279
172.023	25.464	939.643	751.457
173.037	25.444	938.071	750.050
174.052	25.251	937.384	748.632
175.067	25.042	937.198	747.543
176.081	25.235	936.493	747.720
177.096	25.305	935.489	747.144
178.110	25.032	934.493	745.147
179.125	24.969	933.622	744.123
180.140	24.890	933.391	743.547
181.154	25.115	933.208	744.270
182.169	25.374	933.144	745.226
183.183	25.683	932.444	745.882
184.198	25.429	932.024	744.426
185.213	25.355	931.087	743.306
186.227	25.341	930.948	743.074
187.242	25.472	929.648	742.509
188.256	25.596	929.062	742.488
189.271	25.696	928.533	742.411
190.286	25.416	927.021	739.987
191.300	24.608	925.660	735.511
192.315	23.883	924.251	731.342
193.329	23.852	923.909	730.881
194.344	24.791	924.704	735.307
195.359	25.337	924.447	737.279
196.373	25.408	923.722	736.928
197.388	25.381	923.336	736.446
198.402	25.382	922.527	735.739
199.417	25.537	921.896	735.805
200.432	25.214	920.951	733.664
201.446	25.106	920.250	732.598
202.461	25.060	919.943	732.104
203.475	24.148	917.929	726.717
204.490	23.385	916.294	722.250
205.504	24.354	917.103	726.771
206.519	24.980	916.851	729.058
207.534	25.143	916.429	729.321
208.548	25.484	916.290	730.532
209.563	25.398	915.022	729.108
210.577	25.392	914.575	728.661
211.592	25.654	914.614	729.691
212.607	25.720	912.808	728.452
213.621	25.662	912.886	728.217
214.636	25.597	912.218	727.354
215.650	25.527	911.225	726.215
216.665	25.646	910.610	726.143
217.680	25.641	909.601	725.254
218.694	25.117	908.793	722.436
219.709	25.100	907.973	721.649
220.723	25.206	907.783	721.862
221.738	25.325	907.152	721.773
222.753	25.352	906.719	721.475
223.767	25.503	906.398	721.763
224.782	25.667	906.117	722.133
225.796	25.775	905.401	721.929
226.811	24.964	903.517	717.121
227.826	24.330	902.592	713.785
228.840	24.708	901.884	714.672
229.855	24.696	901.352	714.139
230.869	24.307	900.268	711.665
231.884	24.667	900.568	713.276
232.899	25.420	900.654	716.287
233.913	25.353	899.755	715.241
234.928	25.265	899.351	714.507
235.942	25.083	899.172	713.576
236.957	24.938	897.739	711.800
237.972	24.876	897.466	711.275
238.986	25.098	896.596	711.404
240.001	25.138	896.121	711.120
241.015	25.317	895.269	711.091
242.030	25.313	895.352	711.078
243.045	25.460	894.625	711.018
244.059	25.627	894.051	711.162
245.074	25.399	893.232	709.545
246.088	25.072	892.037	707.244
247.103	25.395	892.056	708.470
248.117	25.786	892.407	710.230
249.132	26.046	891.880	710.773
250.147	26.131	891.256	710.546
251.161	26.355	890.686	710.909
252.176	26.153	890.263	709.713
253.190	26.322	889.632	709.813
254.205	26.522	889.334	710.296
255.220	26.632	888.228	709.783
256.234	26.285	887.761	707.987
257.249	26.255	886.808	707.048
258.263	26.313	886.228	706.747
259.278	26.306	885.252	705.880
260.293	26.499	884.928	706.313
261.307	26.258	884.257	704.773
262.322	26.128	883.576	703.663
263.336	25.205	881.430	698.300
264.351	24.324	879.698	693.444
265.366	24.567	879.530	694.195
266.380	25.531	880.572	698.703
267.395	25.902	880.032	699.652
268.409	25.923	879.248	699.049
269.424	26.168	878.862	699.632
270.439	26.061	878.361	698.756
271.453	26.253	877.491	698.742
272.468	26.235	877.750	698.820
273.482	26.402	877.032	698.830
274.497	26.035	875.449	696.092
275.512	25.639	874.538	693.780
276.526	26.164	874.890	696.020
277.541	26.064	874.988	695.654
278.555	25.927	873.572	693.937
279.570	25.760	873.259	692.984
280.585	25.980	872.260	692.974
281.599	25.957	871.520	692.239
282.614	25.236	870.378	688.504
283.628	25.281	870.314	688.565
284.643	25.590	869.750	689.245
285.657	25.318	868.515	687.164
286.672	25.157	867.582	685.746
287.687	25.604	867.621	687.428
288.701	25.799	866.694	687.374
289.716	25.330	866.182	685.122
290.730	25.355	865.725	684.793
291.745	25.106	864.387	682.727
292.760	25.415	864.653	684.052
293.774	26.452	864.987	688.203
294.789	26.647	864.645	688.610
295.803	26.636	863.993	687.989
296.818	26.630	863.109	687.202
297.833	26.195	862.249	684.807
298.847	26.125	861.528	683.908
299.862	26.316	861.624	684.648
300.876	26.724	861.215	685.808
301.891	26.481	860.593	684.334
302.906	26.161	859.089	681.869
303.920	26.230	859.215	682.167
304.935	26.630	858.780	683.274
305.949	26.569	858.178	682.501
306.964	26.227	857.775	680.832
307.979	26.377	857.377	681.020
308.993	26.921	856.690	682.463
310.008	26.855	855.894	681.519
311.022	26.472	855.448	679.665
312.037	26.449	854.918	679.097
313.052	26.170	853.955	677.227
314.066	25.383	851.839	672.543
315.081	24.815	851.571	670.146
316.095	25.681	852.362	673.955
317.110	26.411	851.332	675.809
318.125	25.500	850.095	671.366
319.139	24.400	848.801	666.181
320.154	24.497	848.192	666.006
321.168	25.336	848.829	669.576
322.183	26.006	848.889	672.062
323.197	26.135	848.710	672.342
324.212	26.424	848.420	673.128
325.227	26.335	847.843	672.279
326.241	26.307	846.672	671.188
327.256	26.134	846.643	670.461
328.270	26.018	845.536	669.097
329.285	25.920	844.601	667.934
330.300	25.679	844.154	666.628
331.314	25.989	843.529	667.222
332.329	26.228	843.905	668.347
333.343	26.430	843.613	668.804
334.358	26.461	842.804	668.216
335.373	26.540	842.720	668.382
336.387	26.875	842.576	669.446
337.402	26.965	842.589	669.729
338.416	26.796	841.647	668.297
339.431	26.968	841.831	669.018
340.446	27.257	841.058	669.409
341.460	26.961	840.883	668.123
342.475	26.858	840.335	667.247
343.489	26.871	839.822	666.830
344.504	27.131	839.498	667.469
345.519	27.397	839.437	668.340
346.533	27.295	838.612	667.246
347.548	27.363	838.556	667.393
348.562	27.367	837.939	666.859
349.577	27.208	837.345	665.745
350.592	27.100	836.698	664.775
351.606	27.260	835.380	664.253
352.621	27.012	834.691	662.741
353.635	27.058	834.236	662.490
354.650	26.375	832.633	658.670
355.665	25.378	831.156	653.816
356.679	25.785	830.998	655.118
357.694	26.191	830.868	656.432
358.708	26.244	830.189	656.030
359.723	26.601	830.081	657.183
360.738	26.902	829.677	657.897
361.752	27.021	829.442	658.084
362.767	27.358	829.291	659.127
363.781	27.688	828.606	659.715
364.796	27.809	828.071	659.668
365.810	27.802	827.712	659.300
366.825	27.553	827.466	658.146
367.840	27.457	826.455	656.940
368.854	27.010	825.819	654.763
369.869	27.103	825.221	654.567
370.883	26.938	824.933	653.685
371.898	26.844	824.526	652.965
372.913	27.054	823.959	653.214
373.927	27.241	823.471	653.443
374.942	27.369	823.244	653.664
375.956	27.330	822.977	653.255
376.971	27.382	822.658	653.130
377.986	27.785	821.998	653.994
379.000	27.517	821.565	652.629
380.015	27.455	820.920	651.836
381.029	27.471	820.800	651.743
382.044	27.745	819.667	651.762
383.059	27.520	819.418	650.706
384.073	27.840	818.379	650.964
385.088	27.712	818.174	650.287
386.102	27.510	817.491	648.966
387.117	27.448	816.480	647.887
388.132	26.956	815.567	645.354
389.146	26.570	814.610	643.170
390.161	27.019	814.890	644.930
391.175	27.354	814.849	646.029
392.190	26.946	813.906	643.778
393.205	25.574	811.422	636.902
394.219	24.186	809.516	630.440
395.234	24.219	809.333	630.360
396.248	25.691	810.982	636.800
397.263	27.250	811.814	642.912
398.278	27.279	811.183	642.459
399.292	26.919	810.781	640.813
400.307	26.911	810.162	640.239
401.321	27.173	809.676	640.722
402.336	27.369	809.832	641.478
403.350	27.832	809.701	642.949
404.365	28.154	809.669	643.999
405.380	28.335	808.929	643.991
406.394	28.436	808.611	644.038
407.409	28.218	808.278	642.950
408.423	28.214	807.752	642.460
409.438	28.391	807.143	642.538
410.453	28.481	806.902	642.607
411.467	28.321	806.203	641.431
412.482	28.400	806.098	641.569
413.496	28.428	805.482	641.119
414.511	28.600	804.799	641.118
415.526	28.497	804.824	640.723
416.540	28.121	804.356	638.981
417.555	28.034	803.483	637.928
418.569	28.032	802.978	637.461
419.584	27.875	802.566	636.533
420.599	27.828	802.148	635.980
421.613	110.875	1285.553	1455.734
422.628	95.700	1355.976	1455.855
