DTS Sentinel unit serial number:	SN413079Multiplexer serial number:	ORYXHardware model number:	OX4-SRSoftware version number:	ORYX F/W v4.00 Oryx Data Collector v3.7.2.0data status	okinstallation	princeton_trtdifferential loss correction	single-endedforward channel	channel 1reverse channel	N/Adate	2019/09/11time	11:16:12forward acquisition time	60.00reverse acquisition time	0.00gamma	496.2192k internal	0.2296k external	0.2296temperature offset calibration	0.9954default loss term (dB/km)	0.3790temperature slope calibration	1.0000multiplexer offset coefficient	1.0000multiplexer slope coefficient	1.0000fibre end	0.00T internal ref (°C)	37.62T ext. ref 1 (°C)	0.19T ext. ref 2 (°C)	34.15length (m)	temperature (°C)	Stokes	anti-Stokes-747.200	-149.518	0.385	0.031
-746.185	64.435	0.087	-0.089
-745.171	800.000	0.065	-0.191
-744.156	389.345	0.109	-0.230
-743.142	205.913	0.168	-0.267
-742.127	-27.044	-0.054	-0.032
-741.112	164.537	-0.045	0.064
-740.098	-80.508	0.304	-0.103
-739.083	558.008	0.043	-0.105
-738.069	-200.000	-0.029	0.449
-737.054	-200.000	0.036	0.333
-736.039	-156.893	-0.203	-0.013
-735.025	-84.293	0.247	-0.080
-734.010	-70.254	-0.462	-0.179
-732.996	19.445	-0.174	-0.143
-731.981	-177.848	0.098	0.002
-730.966	-158.755	0.124	-0.007
-729.952	-97.600	-0.234	0.062
-728.937	1.980	0.105	-0.077
-727.923	148.140	0.143	0.197
-726.908	487.219	0.139	-0.324
-725.894	-55.745	-0.377	-0.172
-724.879	-200.000	0.003	-0.125
-723.864	107.379	-0.064	-0.078
-722.850	-200.000	-0.038	0.193
-721.835	14.452	-0.174	0.139
-720.821	-200.000	0.033	-0.207
-719.806	532.290	-0.073	0.175
-718.791	-200.000	-0.005	0.125
-717.777	46.685	-0.257	0.244
-716.762	8.481	-0.080	0.061
-715.748	255.641	0.024	-0.043
-714.733	-200.000	0.027	-0.204
-713.718	-69.267	-0.063	-0.025
-712.704	162.094	0.230	-0.329
-711.689	42.478	-0.132	-0.123
-710.675	-11.320	-0.226	0.152
-709.660	100.712	0.093	0.110
-708.645	-38.611	0.126	0.068
-707.631	-200.000	0.005	-0.171
-706.616	-68.203	0.211	-0.084
-705.602	-200.000	-0.023	-0.234
-704.587	800.000	-0.048	-0.179
-703.572	-24.539	-0.068	-0.041
-702.558	-200.000	0.012	0.053
-701.543	-200.000	-0.039	-0.180
-700.529	-89.843	-0.294	-0.088
-699.514	800.000	-0.098	-0.303
-698.499	-200.000	0.013	-0.116
-697.485	-200.000	-0.005	-0.025
-696.470	-11.322	-0.237	-0.159
-695.456	40.373	-0.117	-0.108
-694.441	-28.161	-0.072	-0.042
-693.426	87.605	-0.203	-0.230
-692.412	6.806	0.194	-0.147
-691.397	-200.000	-0.043	-0.286
-690.383	-200.000	-0.001	0.069
-689.368	-200.000	-0.058	0.276
-688.354	-200.000	0.002	0.278
-687.339	48.984	0.034	-0.032
-686.324	-200.000	0.023	-0.145
-685.310	-3.551	0.122	0.087
-684.295	800.000	-0.084	0.333
-683.281	14.621	-0.177	-0.141
-682.266	41.557	-0.191	-0.176
-681.251	82.705	-0.195	-0.216
-680.237	245.883	-0.048	0.083
-679.222	800.000	-0.086	-0.261
-678.208	800.000	0.045	-0.145
-677.193	-200.000	-0.015	-0.249
-676.178	-183.400	-0.260	0.005
-675.164	258.338	-0.048	0.085
-674.149	-200.000	-0.005	0.077
-673.135	-200.000	-0.001	-0.019
-672.120	-23.404	0.246	0.151
-671.105	342.431	0.039	0.077
-670.091	-38.751	-0.070	0.038
-669.076	-70.722	-0.379	0.146
-668.062	800.000	-0.041	-0.160
-667.047	145.767	0.099	0.135
-666.032	-153.628	0.249	-0.017
-665.018	606.859	-0.145	0.368
-664.003	166.122	-0.038	0.055
-662.989	179.693	-0.103	0.154
-661.974	-57.470	-0.253	-0.113
-660.959	-200.000	-0.061	-0.304
-659.945	800.000	-0.051	-0.198
-658.930	175.157	-0.241	-0.355
-657.916	-98.658	-0.090	0.023
-656.901	241.199	0.147	0.251
-655.886	344.121	0.067	-0.133
-654.872	320.262	-0.129	0.250
-653.857	410.688	0.093	-0.200
-652.843	85.608	0.259	0.290
-651.828	-200.000	0.045	0.361
-650.814	71.182	-0.172	0.182
-649.799	166.425	-0.092	-0.133
-648.784	58.724	-0.206	-0.206
-647.770	-101.591	-0.129	-0.032
-646.755	-56.205	-0.040	-0.018
-645.741	272.418	-0.052	-0.094
-644.726	125.515	0.116	0.149
-643.711	-138.432	0.379	0.042
-642.697	800.000	0.021	0.082
-641.682	-105.881	0.226	-0.052
-640.668	-39.795	-0.284	0.151
-639.653	273.551	0.047	-0.084
-638.638	-63.209	0.249	0.104
-637.624	-64.203	-0.278	0.115
-636.609	-200.000	-0.146	0.000
-635.595	-183.670	-0.374	-0.007
-634.580	78.333	0.127	0.138
-633.565	-59.361	0.141	0.062
-632.551	-95.590	-0.476	-0.130
-631.536	-60.203	-0.223	0.097
-630.522	-106.686	-0.125	0.028
-629.507	-172.785	-0.177	-0.006
-628.492	-50.097	0.040	0.019
-627.478	800.000	-0.070	0.287
-626.463	267.256	0.191	0.340
-625.449	-92.284	-0.267	0.077
-624.434	113.696	-0.075	-0.093
-623.419	-200.000	0.046	-0.263
-622.405	221.082	0.104	-0.169
-621.390	384.485	-0.061	-0.127
-620.376	800.000	0.094	0.354
-619.361	800.000	-0.049	-0.169
-618.346	-119.527	0.354	-0.062
-617.332	-200.000	0.005	-0.184
-616.317	-14.094	0.204	-0.134
-615.303	59.031	-0.160	0.160
-614.288	-121.319	0.303	-0.051
-613.273	25.999	-0.161	-0.137
-612.259	-138.545	0.196	-0.022
-611.244	-111.734	-0.113	-0.023
-610.230	800.000	-0.032	0.135
-609.215	-200.000	0.052	-0.353
-608.201	-200.000	0.060	-0.470
-607.186	-200.000	-0.042	0.210
-606.171	-12.511	0.111	0.073
-605.157	-88.324	0.202	-0.061
-604.142	162.275	0.110	-0.157
-603.128	-54.562	-0.234	-0.108
-602.113	132.758	-0.089	0.116
-601.098	-200.000	0.052	0.287
-600.084	46.106	0.083	0.078
-599.069	-107.367	0.031	-0.007
-598.055	-200.000	-0.014	0.256
-597.040	12.404	-0.076	0.059
-596.025	77.109	-0.220	-0.238
-595.011	48.328	-0.114	0.109
-593.996	-200.000	0.032	-0.200
-592.982	800.000	0.047	-0.204
-591.967	-200.000	0.055	-0.337
-590.952	800.000	0.023	-0.073
-589.938	714.159	-0.123	-0.330
-588.923	8.714	-0.233	-0.178
-587.909	334.749	0.141	-0.278
-586.894	318.425	0.121	-0.232
-585.879	-57.469	-0.170	0.076
-584.865	-46.761	0.134	-0.066
-583.850	-200.000	0.053	-0.240
-582.836	-200.000	0.018	-0.289
-581.821	-200.000	0.040	0.339
-580.806	-14.411	0.074	-0.049
-579.792	-158.777	-0.306	-0.018
-578.777	225.833	0.155	0.256
-577.763	800.000	0.029	-0.098
-576.748	-16.464	0.139	0.090
-575.733	370.676	0.057	0.118
-574.719	-200.000	0.007	-0.181
-573.704	-43.435	-0.271	-0.139
-572.690	-42.568	-0.178	-0.092
-571.675	787.261	0.039	-0.109
-570.661	-22.369	0.125	0.077
-569.646	667.982	0.055	0.144
-568.631	-26.516	0.215	-0.128
-567.617	800.000	0.061	0.191
-566.602	800.000	-0.056	0.178
-565.588	-16.389	0.184	-0.119
-564.573	181.066	-0.172	0.256
-563.558	-200.000	0.051	-0.275
-562.544	800.000	0.026	-0.103
-561.529	-135.502	0.240	-0.029
-560.515	-152.892	-0.182	0.013
-559.500	-127.571	0.340	-0.050
-558.485	142.921	-0.138	-0.187
-557.471	-124.981	0.262	0.041
-556.456	-168.184	0.275	-0.011
-555.442	-96.518	0.229	0.061
-554.427	-47.132	0.110	0.054
-553.412	513.389	0.010	-0.023
-552.398	-41.334	-0.307	0.160
-551.383	-79.850	0.190	-0.065
-550.369	85.353	0.114	-0.127
-549.354	213.313	-0.083	-0.132
-548.339	-8.281	-0.212	0.144
-547.325	73.332	0.182	0.193
-546.310	-200.000	-0.065	-0.307
-545.296	-93.533	-0.044	-0.012
-544.281	124.053	-0.101	0.129
-543.266	-37.522	-0.353	0.191
-542.252	-116.656	-0.187	-0.035
-541.237	-20.208	-0.219	-0.136
-540.223	26.216	0.158	-0.134
-539.208	9.896	-0.105	-0.081
-538.193	800.000	-0.021	-0.068
-537.179	-200.000	-0.016	0.099
-536.164	-200.000	-0.054	0.497
-535.150	-88.362	-0.321	0.097
-534.135	0.971	-0.298	0.217
-533.121	-46.696	0.242	0.120
-532.106	120.030	-0.176	-0.221
-531.091	333.127	-0.080	-0.157
-530.077	-78.658	-0.244	0.084
-529.062	443.586	0.146	-0.324
-528.048	54.122	0.023	0.023
-527.033	159.140	0.074	-0.104
-526.018	45.211	0.207	0.194
-525.004	-200.000	-0.001	-0.153
-523.989	-200.000	0.073	0.350
-522.975	-200.000	-0.005	0.088
-521.960	-30.562	-0.038	-0.022
-520.945	139.973	0.250	0.334
-519.931	342.636	-0.128	-0.254
-518.916	39.618	0.125	0.113
-517.902	800.000	0.038	0.115
-516.887	-200.000	-0.022	0.099
-515.872	44.744	0.124	0.115
-514.858	-200.000	0.062	0.325
-513.843	-200.000	-0.023	0.142
-512.829	-200.000	0.038	-0.180
-511.814	25.073	-0.144	-0.121
-510.799	-75.811	-0.115	-0.041
-509.785	-30.253	-0.277	0.159
-508.770	26.561	0.085	0.072
-507.756	716.286	-0.021	-0.056
-506.741	151.593	-0.106	0.147
-505.726	41.789	0.124	0.114
-504.712	17.829	0.102	0.082
-503.697	-200.000	-0.005	-0.339
-502.683	-136.479	0.224	0.026
-501.668	-66.926	0.125	0.050
-500.653	-200.000	-0.011	0.214
-499.639	-95.690	-0.100	-0.027
-498.624	-55.308	-0.505	-0.229
-497.610	329.770	0.136	-0.264
-496.595	-98.712	-0.238	-0.061
-495.581	-183.325	-0.102	0.002
-494.566	407.977	0.076	0.162
-493.551	-200.000	-0.022	0.155
-492.537	-28.302	0.234	0.136
-491.522	-10.259	0.106	0.071
-490.508	-69.075	-0.303	-0.118
-489.493	89.367	-0.165	-0.186
-488.478	166.858	0.137	-0.197
-487.464	800.000	0.066	0.263
-486.449	-39.950	-0.242	-0.128
-485.435	-74.793	-0.343	0.125
-484.420	800.000	0.050	0.160
-483.405	800.000	-0.085	0.239
-482.391	34.656	0.272	-0.241
-481.376	-200.000	-0.204	0.001
-480.362	-14.921	0.283	0.183
-479.347	21.040	-0.101	0.083
-478.332	-100.856	0.242	0.060
-477.318	204.372	-0.074	-0.116
-476.303	-14.120	0.280	-0.182
-475.289	-200.000	0.029	0.177
-474.274	-200.000	0.040	0.622
-473.259	-54.698	-0.254	-0.116
-472.245	800.000	-0.078	0.243
-471.230	800.000	0.055	0.166
-470.216	-150.760	-0.268	-0.021
-469.201	-200.000	-0.256	-0.001
-468.186	-153.020	-0.167	0.012
-467.172	-163.200	0.437	0.021
-466.157	-36.188	0.052	-0.028
-465.143	710.507	-0.118	0.315
-464.128	233.765	0.181	-0.301
-463.113	41.929	-0.223	-0.204
-462.099	-200.000	-0.017	0.244
-461.084	-141.093	-0.227	0.023
-460.070	504.336	0.134	-0.313
-459.055	-148.790	0.116	-0.009
-458.040	26.495	0.197	0.166
-457.026	-87.428	0.075	-0.023
-456.011	-200.000	-0.003	-0.196
-454.997	-37.480	0.260	0.140
-453.982	5.685	-0.149	-0.112
-452.968	-6.711	-0.244	0.168
-451.953	-200.000	0.035	0.343
-450.938	-101.099	-0.224	0.056
-449.924	-108.113	0.250	0.055
-448.909	800.000	-0.076	0.244
-447.895	800.000	0.062	0.187
-446.880	-185.558	-0.328	-0.005
-445.865	-124.652	0.032	-0.005
-444.851	173.733	0.136	0.198
-443.836	-3.856	0.151	-0.106
-442.822	29.000	0.245	0.210
-441.807	25.002	-0.050	0.042
-440.792	-66.623	0.318	0.127
-439.778	-27.731	-0.205	-0.120
-438.763	-60.402	0.174	-0.075
-437.749	93.176	-0.135	0.154
-436.734	800.000	-0.070	0.198
-435.719	800.000	0.080	0.258
-434.705	130.599	0.173	-0.224
-433.690	51.210	-0.181	0.174
-432.676	-143.224	0.187	0.018
-431.661	-8.308	0.151	-0.103
-430.646	130.170	0.224	0.290
-429.632	-92.997	-0.292	0.082
-428.617	-81.156	0.112	-0.037
-427.603	-200.000	-0.018	0.212
-426.588	137.901	-0.087	0.115
-425.573	-121.761	-0.273	0.045
-424.559	-200.000	0.059	-0.321
-423.544	-32.126	0.031	-0.018
-422.530	-78.522	-0.244	0.084
-421.515	-88.579	0.244	0.073
-420.500	-118.138	-0.246	-0.044
-419.486	-192.154	0.327	0.003
-418.471	284.267	-0.013	0.023
-417.457	800.000	-0.033	0.112
-416.442	-200.000	-0.030	-0.225
-415.428	-180.570	-0.262	-0.005
-414.413	-140.874	0.136	-0.014
-413.398	-128.012	0.400	0.058
-412.384	70.478	0.118	0.123
-411.369	-200.000	-0.020	-0.188
-410.355	-200.000	0.029	-0.199
-409.340	210.469	-0.052	0.082
-408.325	70.893	0.057	0.059
-407.311	156.106	0.049	-0.069
-406.296	-121.881	0.075	0.012
-405.282	-125.524	-0.072	-0.011
-404.267	-200.000	0.012	-0.066
-403.252	31.692	-0.119	0.103
-402.238	141.281	-0.059	-0.079
-401.223	-200.000	0.011	-0.317
-400.209	-61.527	0.155	-0.065
-399.194	166.173	0.221	0.316
-398.179	-200.000	-0.037	0.391
-397.165	68.879	-0.083	0.086
-396.150	147.598	-0.165	0.225
-395.136	-4.977	-0.224	0.155
-394.121	17.168	0.249	-0.199
-393.106	-145.324	-0.182	-0.017
-392.092	28.586	0.132	-0.113
-391.077	-13.523	-0.200	-0.131
-390.063	-168.709	0.210	0.008
-389.048	-3.933	-0.306	-0.214
-388.033	-98.620	-0.195	-0.050
-387.019	-94.010	-0.042	-0.012
-386.004	235.477	-0.111	0.184
-384.990	50.788	0.091	0.087
-383.975	136.894	-0.084	-0.111
-382.960	470.460	-0.076	0.173
-381.946	-80.575	0.386	-0.130
-380.931	64.881	-0.111	0.113
-379.917	-200.000	-0.006	0.091
-378.902	41.682	-0.122	-0.111
-377.888	-143.414	-0.149	-0.014
-376.873	48.912	-0.231	-0.218
-375.858	-66.851	-0.023	-0.009
-374.844	-175.693	0.102	-0.003
-373.829	119.258	0.028	0.035
-372.815	22.675	0.121	-0.100
-371.800	-54.315	0.101	-0.046
-370.785	259.052	0.028	0.049
-369.771	-124.635	0.242	-0.038
-368.756	72.755	-0.102	-0.107
-367.742	371.099	-0.057	0.117
-366.727	-130.254	-0.280	-0.038
-365.712	243.240	-0.127	0.215
-364.698	301.242	-0.025	-0.046
-363.683	-109.221	-0.169	-0.036
-362.669	269.286	0.076	0.135
-361.654	-56.272	0.310	0.139
-360.639	-64.543	-0.172	-0.070
-359.625	-60.087	0.331	0.142
-358.610	-46.469	0.087	-0.043
-357.596	-137.563	0.199	-0.023
-356.581	148.644	0.082	0.111
-355.566	278.560	0.115	-0.206
-354.552	-149.856	0.159	0.013
-353.537	335.363	-0.014	0.028
-352.523	-200.000	-0.014	0.108
-351.508	-114.220	0.390	0.076
-350.493	-53.538	0.175	0.081
-349.479	-185.845	0.278	0.004
-348.464	-64.580	0.215	0.088
-347.450	61.330	-0.118	-0.118
-346.435	-100.613	-0.183	-0.045
-345.420	160.628	-0.204	0.287
-344.406	479.940	-0.162	-0.368
-343.391	-200.000	0.011	0.202
-342.377	-53.224	-0.126	-0.058
-341.362	-2.309	0.182	-0.128
-340.348	-129.409	0.193	0.027
-339.333	120.779	0.150	0.188
-338.318	-200.000	-0.042	0.259
-337.304	303.167	0.062	0.115
-336.289	557.163	0.072	-0.175
-335.275	171.319	0.167	-0.241
-334.260	-200.000	0.015	-0.107
-333.245	800.000	-0.017	0.053
-332.231	-19.886	-0.192	-0.119
-331.216	-122.067	-0.269	-0.044
-330.202	142.968	0.076	-0.101
-329.187	-12.682	0.420	-0.275
-328.172	173.200	-0.110	0.159
-327.158	-10.256	-0.093	-0.062
-326.143	-15.080	-0.011	-0.007
-325.129	-200.000	-0.010	-0.535
-324.114	44.690	-0.101	0.093
-323.099	123.641	-0.080	-0.101
-322.085	562.483	-0.046	-0.112
-321.070	10.858	-0.042	0.032
-320.056	-34.833	0.321	-0.176
-319.041	178.969	-0.148	-0.217
-318.026	2.187	0.086	0.063
-317.012	-200.000	0.012	-0.224
-315.997	-200.000	0.011	-0.107
-314.983	213.685	0.056	-0.090
-313.968	126.008	-0.065	-0.082
-312.953	-73.132	-0.287	0.106
-311.939	-141.802	-0.277	-0.028
-310.924	-59.129	0.207	0.090
-309.910	800.000	-0.052	0.200
-308.895	-102.821	0.296	0.071
-307.880	-72.184	-0.217	-0.081
-306.866	122.283	0.068	0.085
-305.851	-40.037	0.107	0.056
-304.837	-92.358	-0.212	-0.060
-303.822	-40.148	0.333	-0.174
-302.807	34.717	-0.250	0.220
-301.793	525.011	-0.060	-0.142
-300.778	-62.676	0.181	-0.075
-299.764	-72.793	-0.150	-0.056
-298.749	-200.000	0.035	-0.180
-297.735	-123.344	-0.148	-0.024
-296.720	-188.120	-0.359	0.005
-295.705	-134.711	-0.336	0.041
-294.691	-70.208	-0.146	0.056
-293.676	-200.000	-0.005	0.100
-292.662	156.426	0.019	-0.027
-291.647	-137.228	-0.163	-0.019
-290.632	207.129	-0.310	-0.485
-289.618	-42.043	-0.274	0.141
-288.603	-39.741	0.397	-0.208
-287.589	408.749	-0.054	-0.116
-286.574	175.173	-0.164	-0.239
-285.559	-64.571	-0.261	0.106
-284.545	410.610	-0.025	0.052
-283.530	-35.679	-0.287	-0.156
-282.516	191.858	-0.071	-0.107
-281.501	-200.000	0.023	-0.263
-280.486	183.387	0.123	-0.183
-279.472	187.566	-0.037	-0.055
-278.457	2.858	-0.135	-0.099
-277.443	-153.583	-0.148	0.010
-276.428	-28.174	-0.196	-0.114
-275.413	800.000	0.008	0.024
-274.399	-126.962	-0.236	0.035
-273.384	-200.000	-0.067	0.316
-272.370	800.000	-0.079	-0.266
-271.355	105.368	0.069	0.082
-270.340	309.276	0.159	0.298
-269.326	-161.668	-0.193	-0.010
-268.311	-200.000	-0.329	-0.001
-267.297	221.784	0.205	-0.330
-266.282	-172.097	0.169	-0.005
-265.267	113.544	-0.100	-0.122
-264.253	-200.000	0.029	0.370
-263.238	-14.736	-0.247	-0.159
-262.224	401.520	0.172	0.363
-261.209	323.705	0.116	0.221
-260.195	43.837	0.117	-0.107
-259.180	400.943	0.107	-0.224
-258.165	-96.685	0.179	-0.047
-257.151	-73.398	-0.373	-0.136
-256.136	800.000	-0.089	0.332
-255.122	99.637	0.029	0.034
-254.107	251.750	-0.114	0.194
-253.092	125.447	-0.163	0.207
-252.078	108.486	0.196	0.235
-251.063	48.946	0.186	0.175
-250.049	800.000	-0.067	-0.251
-249.034	693.581	0.026	-0.069
-248.019	-200.000	-0.019	-0.304
-247.005	-127.944	0.207	0.030
-245.990	-59.330	0.048	-0.021
-244.976	-8.222	0.160	0.108
-243.961	646.249	-0.074	-0.189
-242.946	-184.207	-0.132	-0.002
-241.932	-120.237	0.367	-0.063
-240.917	-14.243	0.086	0.055
-239.903	-171.361	-0.147	0.005
-238.888	-1.272	0.149	-0.105
-237.873	-136.681	0.166	0.019
-236.859	126.227	-0.198	0.251
-235.844	-22.818	-0.095	0.057
-234.830	800.000	0.087	-0.287
-233.815	270.257	-0.017	-0.031
-232.800	800.000	-0.065	-0.207
-231.786	68.080	0.141	-0.144
-230.771	-58.144	0.173	0.075
-229.757	408.472	-0.102	-0.217
-228.742	-130.338	0.227	-0.031
-227.727	-26.171	0.097	0.057
-226.713	163.150	0.104	-0.147
-225.698	800.000	-0.022	-0.082
-224.684	-42.660	-0.046	-0.023
-223.669	290.825	0.041	0.075
-222.655	266.781	-0.070	-0.122
-221.640	800.000	-0.062	-0.193
-220.625	-200.000	-0.031	-0.304
-219.611	140.575	0.096	0.127
-218.596	-110.859	0.425	-0.088
-217.582	-136.608	0.129	-0.015
-216.567	800.000	0.054	-0.150
-215.552	-86.840	-0.373	-0.114
-214.538	-96.343	-0.088	-0.023
-213.523	-32.666	0.140	-0.078
-212.509	37.543	-0.269	0.239
-211.494	-200.000	-0.005	0.274
-210.479	-76.463	0.122	0.043
-209.465	7.156	0.075	-0.056
-208.450	-53.152	0.099	0.045
-207.436	28.907	-0.155	-0.132
-206.421	-142.552	0.119	-0.012
-205.406	-200.000	-0.031	-0.200
-204.392	-98.658	-0.104	0.027
-203.377	244.185	0.023	-0.039
-202.363	296.180	-0.144	0.265
-201.348	9.584	0.124	0.094
-200.333	37.418	-0.084	0.075
-199.319	-78.437	-0.209	-0.072
-198.304	-200.000	-0.048	-0.229
-197.290	-135.932	-0.163	0.019
-196.275	117.232	0.230	0.283
-195.260	17.440	-0.066	-0.052
-194.246	-77.691	-0.305	0.105
-193.231	251.575	0.108	0.183
-192.217	-142.880	-0.170	0.017
-191.202	182.087	0.088	0.130
-190.187	238.769	0.164	0.272
-189.173	-200.000	-0.029	-0.424
-188.158	-73.105	-0.211	0.077
-187.144	-157.573	0.215	-0.013
-186.129	81.006	-0.057	-0.061
-185.114	-93.233	0.252	-0.070
-184.100	-200.000	-0.002	0.038
-183.085	484.471	0.096	-0.219
-182.071	95.965	-0.194	0.222
-181.056	-200.000	0.014	0.102
-180.042	-161.112	0.187	-0.010
-179.027	-15.748	0.125	0.080
-178.012	-99.039	-0.174	0.044
-176.998	30.699	0.126	0.108
-175.983	122.443	0.301	0.376
-174.969	-66.835	0.146	0.058
-173.954	800.000	-0.015	-0.048
-172.939	44.589	0.186	0.171
-171.925	-4.382	0.073	0.050
-170.910	81.649	0.076	-0.083
-169.896	193.457	0.078	-0.119
-168.881	139.193	0.059	0.078
-167.866	362.195	0.091	-0.183
-166.852	89.085	-0.219	0.244
-165.837	-70.989	0.288	-0.108
-164.823	302.911	0.077	0.142
-163.808	-47.414	0.183	0.089
-162.793	218.869	-0.180	0.287
-161.779	-184.754	0.114	0.002
-160.764	-45.505	-0.131	-0.065
-159.750	59.692	0.221	-0.218
-158.735	-167.574	0.329	0.013
-157.720	571.695	0.021	0.052
-156.706	151.752	0.256	0.348
-155.691	-151.747	-0.278	-0.020
-154.677	473.896	-0.130	-0.292
-153.662	14.971	-0.134	-0.105
-152.647	-6.104	0.141	-0.096
-151.633	-50.695	0.109	-0.051
-150.618	137.336	0.309	-0.403
-149.604	-200.000	0.036	0.166
-148.589	283.236	0.056	0.100
-147.574	-39.346	-0.284	-0.149
-146.560	-166.462	0.181	-0.008
-145.545	-139.120	-0.383	-0.041
-144.531	341.532	0.191	0.372
-143.516	-64.725	-0.209	0.084
-142.502	-5.419	0.158	-0.108
-141.487	800.000	0.064	0.230
-140.472	286.526	-0.052	-0.094
-139.458	-40.242	-0.168	-0.087
-138.443	369.193	-0.031	-0.063
-137.429	-200.000	-0.002	0.086
-136.414	-200.000	-0.012	-0.199
-135.399	800.000	-0.039	0.120
-134.385	380.578	-0.003	-0.007
-133.370	-122.568	-0.197	-0.032
-132.356	130.371	0.173	0.221
-131.341	-200.000	0.002	0.212
-130.326	800.000	-0.138	-0.392
-129.312	16.031	0.372	-0.292
-128.297	-6.441	-0.070	-0.047
-127.283	-200.000	-0.018	-0.311
-126.268	653.370	0.125	-0.321
-125.253	-200.000	-0.001	0.172
-124.239	-175.457	-0.312	0.008
-123.224	800.000	0.044	-0.154
-122.210	-67.406	-0.206	0.081
-121.195	-61.600	-0.164	-0.069
-120.180	-33.400	0.063	-0.035
-119.166	-200.000	0.027	-0.241
-118.151	245.325	0.063	-0.106
-117.137	323.372	0.050	-0.095
-116.122	-112.879	-0.189	-0.037
-115.107	10.316	0.063	0.048
-114.093	244.165	0.108	0.181
-113.078	-45.105	-0.300	0.149
-112.064	-200.000	-0.042	0.299
-111.049	-39.318	-0.074	0.038
-110.034	788.406	-0.080	-0.219
-109.020	-200.000	0.012	0.141
-108.005	-152.604	0.207	0.015
-106.991	35.131	0.298	0.260
-105.976	-89.063	0.138	-0.041
-104.962	-29.916	0.375	0.213
-103.947	-169.437	0.285	0.010
-102.932	269.877	0.081	0.143
-101.918	-65.845	0.316	-0.126
-100.903	-26.109	-0.036	0.021
-99.889	-143.496	0.129	-0.012
-98.874	-97.196	-0.115	0.030
-97.859	203.588	0.062	0.096
-96.845	412.886	0.130	0.276
-95.830	-154.626	-0.096	0.006
-94.816	337.431	-0.210	0.407
-93.801	800.000	0.020	-0.081
-92.786	-7.699	-0.196	0.132
-91.772	800.000	0.016	-0.058
-90.757	-2.778	0.125	0.087
-89.743	-39.434	0.268	0.140
-88.728	149.474	-0.085	0.114
-87.713	18.683	0.085	0.068
-86.699	-69.183	-0.136	-0.052
-85.684	201.971	0.281	-0.431
-84.670	459.452	-0.114	0.252
-83.655	263.087	0.125	0.216
-82.640	-30.805	0.171	-0.096
-81.626	14.532	0.171	-0.133
-80.611	-134.606	0.094	0.011
-79.597	146.680	0.261	0.349
-78.582	-97.769	-0.090	-0.023
-77.567	109.825	-0.166	0.198
-76.553	64.042	-0.080	0.080
-75.538	60.036	-0.244	0.240
-74.524	-78.404	0.315	0.108
-73.509	-199.692	-0.266	0.001
-72.494	-120.591	-0.134	-0.023
-71.480	-118.587	-0.105	-0.019
-70.465	13.628	0.267	-0.206
-69.451	433.259	-0.067	-0.144
-68.436	26.852	0.355	0.296
-67.422	223.633	0.049	-0.078
-66.407	-117.398	0.178	-0.032
-65.392	-115.019	-0.205	0.039
-64.378	306.842	0.103	-0.191
-63.363	115.420	-0.059	0.071
-62.349	-200.000	0.001	0.293
-61.334	-0.510	-1.032	-0.729
-60.319	-75.336	0.642	0.228
-59.305	800.000	-0.235	-0.812
-58.290	251.345	0.552	0.934
-57.276	560.177	0.558	1.340
-56.261	-200.000	85.422	509.580
-55.246	560.805	1376.291	3308.386
-54.232	182.705	2609.007	3828.492
-53.217	120.138	2245.741	2771.319
-52.203	48.723	1694.879	1580.780
-51.188	41.019	1425.750	1280.383
-50.173	37.677	1381.453	1219.663
-49.159	56.520	1421.803	1375.169
-48.144	61.024	1440.483	1421.730
-47.130	41.521	1400.279	1260.481
-46.115	37.824	1383.623	1222.308
-45.100	37.632	1378.931	1216.916
-44.086	37.368	1376.980	1213.494
-43.071	37.485	1374.262	1211.784
-42.057	37.429	1371.689	1209.118
-41.042	37.423	1370.500	1207.986
-40.027	37.516	1368.374	1206.641
-39.013	37.651	1366.647	1205.902
-37.998	37.670	1364.647	1204.210
-36.984	37.651	1362.987	1202.577
-35.969	37.545	1361.614	1200.667
-34.954	37.712	1359.342	1199.645
-33.940	37.606	1358.005	1197.763
-32.925	37.691	1356.622	1197.018
-31.911	37.709	1354.923	1195.585
-30.896	37.741	1354.161	1195.057
-29.881	37.766	1352.487	1193.686
-28.867	37.772	1350.870	1192.251
-27.852	37.644	1349.559	1190.263
-26.838	37.734	1347.680	1189.110
-25.823	37.632	1347.337	1188.135
-24.809	37.793	1345.119	1187.116
-23.794	37.748	1344.193	1185.978
-22.779	37.733	1342.393	1184.247
-21.765	37.698	1341.077	1182.827
-20.750	37.743	1339.962	1182.074
-19.736	37.573	1338.754	1179.931
-18.721	37.551	1337.341	1178.506
-17.706	37.483	1336.201	1177.037
-16.692	37.651	1334.605	1176.606
-15.677	37.639	1333.099	1175.159
-14.663	37.616	1332.358	1174.315
-13.648	37.467	1331.300	1172.440
-12.633	37.527	1330.048	1171.652
-11.619	37.548	1329.248	1171.030
-10.604	37.495	1329.161	1170.586
-9.590	37.564	1327.445	1169.440
-8.575	37.483	1326.953	1168.478
-7.560	37.562	1325.600	1167.712
-6.546	37.583	1324.661	1166.962
-5.531	37.514	1323.823	1165.767
-4.517	37.475	1322.904	1164.677
-3.502	37.521	1321.929	1164.046
-2.487	37.639	1320.785	1163.700
-1.473	37.652	1316.607	1160.051
-0.458	36.649	1302.080	1141.291
0.556	31.624	1283.494	1102.385
1.571	28.035	1288.039	1084.937
2.586	27.161	1303.327	1092.469
3.600	25.954	1292.273	1075.910
4.615	18.408	1212.108	966.664
5.629	5.990	1126.658	832.924
6.644	0.577	1102.463	786.815
7.659	0.069	1099.747	782.167
8.673	0.068	1098.169	780.967
9.688	0.048	1097.018	779.976
10.702	0.531	1095.838	781.574
11.717	7.854	1107.661	828.155
12.731	18.626	1123.610	896.594
13.746	22.375	1127.603	919.322
14.761	22.381	1126.920	918.713
15.775	22.141	1126.453	917.002
16.790	21.868	1125.717	914.895
17.804	21.754	1124.930	913.580
18.819	21.891	1124.209	913.628
19.834	22.029	1123.540	913.720
20.848	22.053	1123.323	913.590
21.863	22.009	1122.924	912.952
22.877	21.941	1121.641	911.480
23.892	21.851	1121.623	910.914
24.907	21.953	1120.616	910.546
25.921	21.899	1119.319	909.130
26.936	21.899	1117.968	907.952
27.950	21.753	1116.518	905.940
28.965	21.763	1114.129	903.974
29.980	21.824	1112.743	903.084
30.994	22.080	1111.735	903.502
32.009	22.026	1110.777	902.370
33.023	21.902	1109.438	900.562
34.038	21.823	1108.772	899.535
35.053	21.900	1108.051	899.269
36.067	22.026	1106.820	898.833
37.082	22.043	1106.412	898.508
38.096	22.232	1105.877	898.963
39.111	22.189	1105.125	898.053
40.126	22.062	1103.346	895.881
41.140	21.713	1101.745	892.720
42.155	21.671	1100.214	891.188
43.169	21.647	1099.204	890.172
44.184	21.646	1098.282	889.342
45.199	21.589	1096.882	887.839
46.213	21.470	1096.621	886.945
47.228	21.736	1095.521	887.323
48.242	21.730	1094.868	886.685
49.257	21.939	1093.689	886.708
50.271	22.049	1092.944	886.583
51.286	22.033	1092.194	885.817
52.301	22.079	1091.311	885.251
53.315	22.034	1090.248	884.086
54.330	21.921	1089.659	882.963
55.344	21.926	1088.465	881.940
56.359	21.835	1087.785	880.855
57.374	21.652	1086.897	879.139
58.388	21.695	1085.552	878.189
59.403	21.623	1084.476	876.880
60.417	21.413	1084.341	875.642
61.432	21.623	1083.031	875.555
62.447	21.767	1082.208	875.535
63.461	21.772	1082.030	875.334
64.476	21.693	1080.850	873.911
65.490	21.726	1079.345	872.782
66.505	21.773	1078.823	872.516
67.520	21.787	1078.062	871.893
68.534	21.523	1076.970	869.620
69.549	21.176	1075.766	866.846
70.563	21.234	1074.869	866.337
71.578	21.366	1073.746	866.009
72.593	21.067	1073.009	863.856
73.607	21.291	1072.652	864.600
74.622	21.568	1072.579	865.836
75.636	21.486	1071.580	864.548
76.651	21.411	1070.235	863.016
77.666	21.358	1069.271	861.903
78.680	21.446	1069.065	862.091
79.695	21.460	1068.332	861.497
80.709	21.566	1067.686	861.421
81.724	21.549	1066.751	860.507
82.739	21.587	1066.124	860.109
83.753	21.823	1065.614	860.782
84.768	22.193	1064.611	861.711
85.782	22.293	1063.640	861.336
86.797	22.189	1062.651	859.949
87.812	22.072	1061.593	858.448
88.826	22.185	1060.573	858.099
89.841	22.229	1059.419	857.302
90.855	22.180	1058.444	856.200
91.870	22.195	1057.584	855.499
92.884	21.979	1056.597	853.576
93.899	22.116	1055.417	853.212
94.914	22.187	1054.458	852.706
95.928	22.155	1053.288	851.532
96.943	21.848	1052.335	849.200
97.957	21.497	1051.183	846.495
98.972	21.392	1049.987	844.949
99.987	21.732	1049.413	846.055
101.001	22.009	1048.455	846.542
102.016	21.953	1047.645	845.545
103.030	21.740	1046.994	843.918
104.045	21.683	1045.575	842.426
105.060	21.627	1043.994	840.807
106.074	21.733	1043.796	841.085
107.089	22.114	1043.080	842.258
108.103	21.971	1041.885	840.535
109.118	21.728	1040.798	838.423
110.133	21.671	1039.769	837.247
111.147	21.501	1038.552	835.379
112.162	21.300	1037.628	833.605
113.176	21.558	1036.496	833.851
114.191	21.608	1035.920	833.553
115.206	21.285	1034.814	831.054
116.220	21.199	1034.004	829.921
117.235	21.417	1032.598	829.753
118.249	21.452	1032.319	829.617
119.264	21.227	1031.241	827.617
120.279	21.365	1030.588	827.672
121.293	21.567	1029.607	827.762
122.308	21.409	1029.117	826.549
123.322	21.413	1027.615	825.290
124.337	21.247	1026.020	823.156
125.352	20.825	1024.539	819.909
126.366	20.742	1023.587	818.680
127.381	21.526	1023.485	822.214
128.395	21.854	1023.082	823.358
129.410	22.027	1022.329	823.489
130.424	21.919	1020.887	821.748
131.439	21.909	1020.179	821.061
132.454	21.858	1019.325	820.059
133.468	21.845	1017.992	818.856
134.483	22.031	1017.530	819.278
135.497	22.255	1016.725	819.603
136.512	22.201	1016.167	818.830
137.527	22.293	1014.823	818.103
138.541	22.213	1014.065	817.044
139.556	22.161	1013.574	816.337
140.570	22.158	1012.903	815.710
141.585	22.303	1011.422	815.117
142.600	22.043	1010.987	813.490
143.614	22.326	1009.838	813.803
144.629	22.513	1008.879	813.822
145.643	22.422	1007.679	812.361
146.658	22.122	1006.185	809.704
147.673	22.143	1005.072	808.834
148.687	21.947	1003.983	806.986
149.702	21.983	1002.901	806.207
150.716	21.984	1002.003	805.422
151.731	22.086	1001.214	805.184
152.746	22.265	1001.075	805.820
153.760	22.374	1000.184	805.532
154.775	22.323	999.441	804.628
155.789	22.227	998.707	803.528
156.804	22.257	997.829	802.884
157.819	22.433	996.928	802.893
158.833	22.467	996.404	802.556
159.848	22.419	994.715	800.906
160.862	22.262	993.749	799.342
161.877	22.191	993.133	798.454
162.892	22.370	992.135	798.393
163.906	22.240	990.795	796.655
164.921	22.260	989.661	795.764
165.935	22.431	988.774	795.751
166.950	22.328	987.573	794.251
167.964	22.216	986.914	793.144
168.979	22.046	986.245	791.770
169.994	22.189	984.933	791.291
171.008	22.410	984.131	791.570
172.023	22.396	983.282	790.755
173.037	22.133	982.091	788.546
174.052	21.998	981.760	787.607
175.067	22.026	981.079	787.117
176.081	22.153	980.112	786.838
177.096	22.127	979.384	786.070
178.110	21.821	978.261	783.731
179.125	21.725	977.511	782.629
180.140	21.839	977.126	782.762
181.154	21.812	976.731	782.257
182.169	22.058	976.912	783.428
183.183	22.369	976.299	784.253
184.198	22.134	975.385	782.406
185.213	22.141	974.626	781.756
186.227	22.243	974.237	781.830
187.242	22.274	973.292	781.143
188.256	22.369	972.622	780.955
189.271	22.360	971.830	780.211
190.286	22.152	970.216	777.923
191.300	21.477	969.074	773.954
192.315	20.775	967.483	769.515
193.329	20.749	966.974	768.928
194.344	21.693	967.317	773.299
195.359	22.064	967.568	775.070
196.373	22.280	966.822	775.358
197.388	22.128	965.980	773.942
198.402	22.158	965.346	773.499
199.417	22.280	964.696	773.446
200.432	21.980	963.277	770.924
201.446	21.750	962.927	769.562
202.461	21.822	962.387	769.380
203.475	20.918	960.280	763.667
204.490	20.221	958.798	759.371
205.504	21.013	959.608	763.416
206.519	21.798	959.145	766.413
207.534	21.894	958.786	766.475
208.548	22.230	958.805	767.893
209.563	22.170	957.156	766.240
210.577	21.981	956.805	765.071
211.592	22.402	956.314	766.444
212.607	22.363	955.544	765.588
213.621	22.368	954.779	764.929
214.636	22.354	954.366	764.472
215.650	22.276	953.589	763.440
216.665	22.425	953.006	763.553
217.680	22.279	952.376	762.349
218.694	21.828	950.981	759.209
219.709	21.794	950.257	758.419
220.723	22.134	950.240	759.810
221.738	22.234	949.324	759.442
222.753	22.229	948.522	758.712
223.767	22.262	948.142	758.481
224.782	22.412	947.771	758.764
225.796	22.324	947.337	757.969
226.811	21.678	945.551	753.697
227.826	21.137	944.163	750.200
228.840	21.446	943.381	750.837
229.855	21.586	942.789	750.902
230.869	21.142	941.827	748.165
231.884	21.530	941.892	749.813
232.899	22.256	941.884	752.849
233.913	22.209	940.977	751.857
234.928	22.122	940.657	751.165
235.942	22.092	939.968	750.419
236.957	21.890	938.596	748.396
237.972	21.911	938.376	748.244
238.986	21.970	937.515	747.741
240.001	21.844	936.874	746.628
241.015	22.020	936.355	746.899
242.030	22.051	936.386	746.989
243.045	22.319	935.553	747.394
244.059	22.338	935.048	747.006
245.074	22.045	934.131	744.967
246.088	21.815	933.111	743.113
247.103	22.018	932.811	743.665
248.117	22.698	932.644	746.346
249.132	22.839	932.210	746.528
250.147	22.949	931.595	746.435
251.161	23.005	930.997	746.126
252.176	23.006	930.539	745.700
253.190	23.218	929.708	745.860
254.205	23.202	929.723	745.738
255.220	23.114	929.079	744.785
256.234	22.904	928.190	743.121
257.249	22.982	927.105	742.516
258.263	23.011	925.916	741.619
259.278	22.997	925.689	741.313
260.293	22.963	925.831	741.219
261.307	22.962	924.176	739.823
262.322	22.752	923.327	738.202
263.336	22.101	921.120	733.652
264.351	21.115	919.197	727.946
265.366	21.064	919.415	727.840
266.380	22.057	920.217	732.556
267.395	22.566	919.614	734.132
268.409	22.617	918.800	733.630
269.424	22.690	918.610	733.717
270.439	22.692	917.666	732.904
271.453	22.915	916.974	733.215
272.468	23.021	916.928	733.554
273.482	23.196	916.483	733.858
274.497	22.741	914.921	730.658
275.512	22.482	913.801	728.629
276.526	22.887	913.922	730.334
277.541	22.911	913.722	730.211
278.555	22.695	912.517	728.291
279.570	22.606	911.542	727.078
280.585	22.748	910.844	727.045
281.599	22.747	910.169	726.437
282.614	22.102	908.858	722.674
283.628	22.042	908.555	722.124
284.643	22.534	908.405	723.962
285.657	22.264	906.622	721.367
286.672	21.848	906.061	719.151
287.687	22.433	906.151	721.558
288.701	22.456	905.510	721.078
289.716	22.094	904.531	718.754
290.730	22.161	903.791	718.377
291.745	21.762	903.143	716.170
292.760	22.077	902.814	717.129
293.774	23.056	903.495	721.605
294.789	23.349	903.204	722.503
295.803	23.394	902.667	722.193
296.818	23.492	901.727	721.779
297.833	22.914	900.584	718.447
298.847	22.891	899.938	717.777
299.862	23.276	899.532	718.950
300.876	23.408	899.449	719.357
301.891	23.347	897.848	717.767
302.906	22.916	897.059	715.326
303.920	22.957	897.171	715.518
304.935	23.341	896.932	716.819
305.949	23.335	896.251	716.187
306.964	23.175	895.066	714.533
307.979	23.190	894.869	714.370
308.993	23.674	894.590	716.037
310.008	23.468	893.921	714.611
311.022	23.290	893.211	713.263
312.037	23.143	892.476	712.020
313.052	22.794	891.918	710.106
314.066	21.963	889.819	705.037
315.081	21.752	889.172	703.615
316.095	22.534	889.607	707.037
317.110	22.978	889.871	708.964
318.125	22.262	887.671	704.282
319.139	21.328	886.261	699.367
320.154	21.171	886.215	698.641
321.168	22.104	886.287	702.367
322.183	22.799	886.474	705.230
323.197	22.861	886.047	705.076
324.212	23.062	886.047	705.815
325.227	23.210	885.169	705.647
326.241	22.956	884.502	704.041
327.256	22.935	883.831	703.359
328.270	22.826	882.945	702.158
329.285	22.631	882.134	700.678
330.300	22.597	880.943	699.532
331.314	22.835	880.984	700.449
332.329	22.968	881.466	701.298
333.343	23.226	880.785	701.716
334.358	23.212	879.841	700.846
335.373	23.242	879.956	700.997
336.387	23.478	879.797	701.740
337.402	23.702	879.206	702.091
338.416	23.650	878.935	701.608
339.431	23.682	878.324	701.187
340.446	23.705	878.442	701.308
341.460	23.703	877.725	700.667
342.475	23.583	876.993	699.547
343.489	23.748	876.535	699.771
344.504	23.923	876.337	700.239
345.519	24.098	875.942	700.550
346.533	24.097	875.612	700.219
347.548	24.030	875.119	699.501
348.562	23.971	874.656	698.837
349.577	24.087	873.415	698.238
350.592	23.987	872.984	697.442
351.606	24.017	871.713	696.481
352.621	23.866	871.472	695.635
353.635	23.776	870.522	694.464
354.650	23.082	868.958	690.447
355.665	22.203	867.490	685.790
356.679	22.657	867.111	687.200
357.694	22.930	867.176	688.254
358.708	22.923	866.617	687.722
359.723	23.390	866.432	689.332
360.738	23.686	865.802	689.920
361.752	23.730	865.559	689.838
362.767	24.136	865.286	691.135
363.781	24.285	864.685	691.172
364.796	24.273	864.260	690.724
365.810	24.398	863.803	690.779
366.825	24.524	863.180	690.708
367.840	24.150	862.473	688.635
368.854	23.574	861.824	685.831
369.869	23.824	861.288	686.308
370.883	23.792	860.717	685.671
371.898	23.611	860.524	684.758
372.913	23.705	859.923	684.580
373.927	23.795	859.521	684.549
374.942	24.054	859.146	685.185
375.956	24.125	858.722	685.060
376.971	24.376	857.853	685.268
377.986	24.336	858.076	685.235
379.000	24.299	857.704	684.732
380.015	24.186	856.572	683.337
381.029	24.415	855.774	683.517
382.044	24.537	855.431	683.649
383.059	24.354	854.880	682.449
384.073	24.394	854.801	682.479
385.088	24.459	853.735	681.815
386.102	24.180	852.849	679.983
387.117	24.166	852.285	679.419
388.132	23.735	851.336	676.958
389.146	23.304	850.243	674.389
390.161	23.586	850.373	675.509
391.175	24.194	850.015	677.477
392.190	23.933	848.691	675.368
393.205	22.374	846.911	667.981
394.219	21.068	844.663	661.204
395.234	20.982	844.401	660.613
396.248	22.557	846.169	667.914
397.263	24.009	846.977	673.997
398.278	23.827	846.547	672.906
399.292	23.681	846.209	672.022
400.307	23.673	845.430	671.317
401.321	23.810	845.015	671.444
402.336	24.081	845.091	672.469
403.350	24.675	844.789	674.411
404.365	24.702	844.520	674.237
405.380	24.973	844.212	674.954
406.394	25.146	843.667	675.109
407.409	24.969	843.340	674.122
408.423	24.820	842.828	673.092
409.438	24.815	843.038	673.182
410.453	24.956	842.094	672.898
411.467	25.099	841.157	672.628
412.482	25.032	840.663	671.921
413.496	25.098	840.478	671.960
414.511	24.945	840.439	671.297
415.526	25.123	839.453	671.116
416.540	24.840	839.160	669.765
417.555	24.645	838.154	668.171
418.569	24.883	837.594	668.557
419.584	24.632	837.279	667.307
420.599	24.568	836.512	666.400
421.613	149.444	1366.252	1780.957
422.628	130.599	1443.449	1781.081
