DTS Sentinel unit serial number:	SN413079Multiplexer serial number:	ORYXHardware model number:	OX4-SRSoftware version number:	ORYX F/W v4.00 Oryx Data Collector v3.7.2.0data status	okinstallation	princeton_trtdifferential loss correction	single-endedforward channel	channel 1reverse channel	N/Adate	2019/09/10time	22:16:11forward acquisition time	60.00reverse acquisition time	0.00gamma	496.2192k internal	0.2331k external	0.2331temperature offset calibration	0.9936default loss term (dB/km)	0.3790temperature slope calibration	1.0000multiplexer offset coefficient	1.0000multiplexer slope coefficient	1.0000fibre end	0.00T internal ref (°C)	30.52T ext. ref 1 (°C)	-0.31T ext. ref 2 (°C)	23.87length (m)	temperature (°C)	Stokes	anti-Stokes-747.200	-105.563	-0.237	-0.054
-746.185	-169.515	-0.335	-0.012
-745.171	131.551	0.090	0.116
-744.156	-118.163	-0.245	-0.044
-743.142	-102.864	-0.257	0.062
-742.127	216.042	0.158	-0.253
-741.112	-200.000	0.057	-0.456
-740.098	455.984	-0.063	0.141
-739.083	-200.000	-0.036	-0.198
-738.069	-36.100	-0.115	0.062
-737.054	-111.233	-0.237	0.049
-736.039	237.320	0.013	-0.022
-735.025	233.910	0.134	0.222
-734.010	112.155	0.072	-0.087
-732.996	-85.525	-0.512	-0.160
-731.981	766.032	-0.184	-0.504
-730.966	-65.031	-0.134	0.054
-729.952	106.443	0.095	0.113
-728.937	-102.178	-0.409	-0.099
-727.923	-22.924	-0.288	-0.175
-726.908	697.728	-0.064	-0.169
-725.894	-191.375	0.420	-0.004
-724.879	540.437	0.167	0.399
-723.864	-12.274	0.169	-0.111
-722.850	128.944	-0.161	-0.206
-721.835	-200.000	-0.068	0.387
-720.821	-105.421	0.124	0.028
-719.806	-112.395	-0.152	0.031
-718.791	-24.420	-0.193	-0.115
-717.777	800.000	-0.029	-0.089
-716.762	-24.160	0.365	-0.219
-715.748	800.000	0.025	-0.069
-714.733	681.565	-0.067	0.175
-713.718	-98.272	0.344	0.089
-712.704	-87.761	-0.248	0.075
-711.689	183.296	-0.025	0.037
-710.675	-4.925	-0.160	0.111
-709.660	-115.227	-0.068	0.013
-708.645	344.974	-0.123	-0.243
-707.631	45.953	-0.132	-0.122
-706.616	-200.000	-0.046	-0.353
-705.602	109.020	0.124	-0.150
-704.587	-179.416	0.258	0.006
-703.572	187.382	-0.285	0.427
-702.558	625.836	0.144	0.364
-701.543	254.836	0.315	-0.541
-700.529	-50.506	-0.278	-0.132
-699.514	-74.642	-0.267	-0.097
-698.499	135.510	0.205	0.268
-697.485	15.848	-0.105	0.083
-696.470	-0.164	-0.167	0.119
-695.456	800.000	-0.085	-0.291
-694.441	-174.141	0.049	-0.001
-693.426	-105.086	-0.129	-0.030
-692.412	157.744	-0.116	-0.162
-691.397	300.887	0.258	-0.478
-690.383	-177.032	-0.181	-0.005
-689.368	800.000	-0.027	-0.114
-688.354	-84.537	-0.273	-0.087
-687.339	-8.996	0.175	-0.118
-686.324	120.466	-0.284	0.354
-685.310	-200.000	-0.114	-0.542
-684.295	35.663	-0.232	-0.205
-683.281	59.683	-0.112	-0.111
-682.266	-200.000	-0.013	0.079
-681.251	136.776	0.322	-0.421
-680.237	-59.049	-0.203	-0.088
-679.222	-174.267	0.040	-0.001
-678.208	46.050	0.137	-0.127
-677.193	800.000	-0.065	-0.213
-676.178	800.000	-0.084	-0.233
-675.164	-68.717	0.242	-0.094
-674.149	132.556	-0.085	0.110
-673.135	-200.000	0.024	-0.117
-672.120	-200.000	0.025	-0.166
-671.105	800.000	-0.022	0.093
-670.091	-200.000	0.008	0.055
-669.076	-88.354	-0.138	-0.041
-668.062	-200.000	0.001	-0.237
-667.047	-200.000	0.039	-0.232
-666.032	-200.000	-0.004	-0.068
-665.018	-200.000	0.046	0.254
-664.003	800.000	-0.042	0.136
-662.989	-4.283	0.205	0.142
-661.974	209.847	-0.143	0.224
-660.959	-200.000	0.048	-0.357
-659.945	-58.796	0.069	-0.030
-658.930	-200.000	0.008	-0.048
-657.916	-134.985	0.283	-0.034
-656.901	54.959	-0.133	-0.128
-655.886	-200.000	-0.024	0.263
-654.872	-200.000	-0.022	-0.324
-653.857	-82.732	-0.344	0.111
-652.843	-91.171	0.139	-0.040
-651.828	124.931	-0.206	-0.260
-650.814	800.000	-0.046	-0.193
-649.799	-200.000	-0.049	-0.276
-648.784	-73.423	0.369	-0.135
-647.770	288.006	-0.104	-0.189
-646.755	22.572	0.230	0.189
-645.741	-21.980	0.215	-0.131
-644.726	-0.287	0.247	-0.176
-643.711	-200.000	0.047	0.231
-642.697	800.000	-0.122	-0.348
-641.682	-115.928	0.145	0.027
-640.668	105.023	-0.222	0.262
-639.653	0.307	-0.103	0.073
-638.638	-180.464	-0.135	-0.003
-637.624	-200.000	-0.007	0.145
-636.609	800.000	-0.100	-0.350
-635.595	6.250	0.131	0.097
-634.580	308.550	-0.241	0.452
-633.565	-73.252	-0.105	0.039
-632.551	-200.000	-0.002	-0.210
-631.536	427.640	-0.136	-0.294
-630.522	475.761	0.114	-0.258
-629.507	800.000	0.059	-0.217
-628.492	-19.294	0.189	0.117
-627.478	-24.173	0.214	-0.128
-626.463	-200.000	-0.008	0.054
-625.449	-145.066	0.131	-0.012
-624.434	137.553	0.089	0.117
-623.419	-200.000	0.233	0.001
-622.405	-161.184	-0.250	-0.013
-621.390	266.121	0.025	0.044
-620.376	-200.000	-0.007	-0.235
-619.361	-126.540	0.234	0.035
-618.346	-200.000	-0.089	0.401
-617.332	467.995	0.027	0.062
-616.317	-73.358	-0.131	-0.048
-615.303	-200.000	-0.018	0.094
-614.288	55.954	-0.186	0.180
-613.273	-64.013	-0.115	0.047
-612.259	-57.619	0.382	0.167
-611.244	-200.000	0.002	0.201
-610.230	-171.117	-0.040	0.001
-609.215	65.484	0.095	0.097
-608.201	82.843	0.098	0.107
-607.186	-0.904	-0.283	0.200
-606.171	80.562	0.439	0.473
-605.157	-174.272	-0.090	-0.003
-604.142	-26.578	-0.313	0.184
-603.128	-200.000	0.045	0.286
-602.113	800.000	0.045	0.173
-601.098	-200.000	-0.015	-0.099
-600.084	800.000	0.011	0.036
-599.069	-78.930	-0.176	0.060
-598.055	-200.000	0.049	0.281
-597.040	517.610	-0.099	-0.232
-596.025	-41.779	-0.107	0.055
-595.011	-151.559	-0.160	-0.012
-593.996	-18.481	0.017	-0.010
-592.982	-187.821	-0.038	0.000
-591.967	-118.362	-0.309	0.055
-590.952	-90.247	-0.176	-0.051
-589.938	-6.084	-0.341	-0.233
-588.923	486.111	-0.182	0.415
-587.909	-143.144	0.274	0.026
-586.894	96.506	-0.124	0.142
-585.879	13.455	0.059	0.046
-584.865	419.077	0.153	-0.328
-583.850	-18.316	-0.095	-0.059
-582.836	361.728	-0.128	-0.258
-581.821	153.170	-0.257	-0.352
-580.806	-200.000	0.044	0.353
-579.792	31.933	-0.016	0.014
-578.777	-200.000	-0.005	0.093
-577.763	-11.000	-0.251	-0.166
-576.748	-48.874	-0.335	0.161
-575.733	-200.000	-0.042	-0.305
-574.719	330.914	0.079	-0.152
-573.704	-72.502	-0.204	0.075
-572.690	-200.000	-0.032	-0.186
-571.675	390.912	-0.056	0.116
-570.661	60.457	-0.237	0.234
-569.646	-45.681	0.300	-0.148
-568.631	-127.751	-0.128	-0.019
-567.617	-200.000	0.065	-0.319
-566.602	6.860	0.163	0.121
-565.588	-140.994	0.428	0.044
-564.573	152.667	-0.062	-0.084
-563.558	52.404	-0.157	-0.150
-562.544	-200.000	0.050	0.234
-561.529	283.141	-0.102	0.184
-560.515	579.265	0.101	0.247
-559.500	-200.000	-0.002	-0.315
-558.485	-99.691	0.260	0.065
-557.471	12.429	-0.058	-0.044
-556.456	660.924	0.119	0.306
-555.442	80.060	0.265	0.285
-554.427	322.538	-0.098	-0.187
-553.412	-200.000	-0.008	-0.300
-552.398	-200.000	0.006	0.379
-551.383	115.286	-0.054	0.066
-550.369	68.844	-0.225	-0.231
-549.354	464.321	0.035	-0.079
-548.339	-29.509	-0.138	0.079
-547.325	-28.829	0.092	0.053
-546.310	17.536	-0.172	-0.137
-545.296	-84.733	-0.293	-0.092
-544.281	-150.137	-0.284	0.022
-543.266	12.959	0.135	0.105
-542.252	35.718	0.155	-0.136
-541.237	-96.677	-0.241	0.063
-540.223	-96.397	-0.266	-0.070
-539.208	-200.000	-0.032	-0.142
-538.193	386.301	-0.113	-0.234
-537.179	-118.782	-0.061	-0.011
-536.164	-93.566	-0.091	0.025
-535.150	-38.440	0.110	0.058
-534.135	-200.000	-0.029	-0.256
-533.121	-76.181	-0.355	-0.125
-532.106	800.000	0.011	-0.032
-531.091	663.196	-0.075	-0.192
-530.077	-126.512	0.190	0.028
-529.062	29.010	-0.347	0.293
-528.048	-200.000	0.009	0.044
-527.033	-110.991	0.368	-0.075
-526.018	-50.411	0.330	0.155
-525.004	-125.056	-0.326	-0.050
-523.989	121.346	-0.050	0.063
-522.975	-200.000	0.029	-0.156
-521.960	800.000	0.069	-0.279
-520.945	-200.000	0.023	-0.189
-519.931	-200.000	-0.001	0.055
-518.916	800.000	-0.004	-0.014
-517.902	-47.369	0.163	0.079
-516.887	800.000	-0.084	-0.353
-515.872	100.918	0.062	-0.072
-514.858	51.554	0.120	-0.113
-513.843	734.440	0.009	-0.024
-512.829	-134.408	-0.334	-0.041
-511.814	-114.151	-0.080	0.015
-510.799	-113.721	0.346	-0.067
-509.785	-107.466	-0.252	0.055
-508.770	246.482	0.122	0.206
-507.756	-146.039	0.102	0.009
-506.741	-33.084	-0.070	0.039
-505.726	58.266	-0.062	-0.060
-504.712	800.000	-0.069	0.215
-503.697	-6.084	-0.193	-0.131
-502.683	-19.934	0.169	0.104
-501.668	-14.636	-0.274	0.175
-500.653	-104.355	0.277	0.064
-499.639	-169.876	0.043	0.002
-498.624	-200.000	0.034	-0.179
-497.610	-200.000	0.021	0.135
-496.595	-40.303	-0.084	-0.043
-495.581	53.394	-0.151	-0.144
-494.566	-9.745	0.288	0.191
-493.551	-116.302	-0.055	-0.010
-492.537	-200.000	0.008	0.200
-491.522	140.591	-0.145	-0.190
-490.508	-46.905	-0.247	-0.120
-489.493	800.000	-0.032	-0.113
-488.478	-200.000	-0.003	-0.032
-487.464	800.000	-0.050	0.200
-486.449	800.000	-0.031	0.116
-485.435	-51.331	-0.132	0.062
-484.420	10.813	0.434	-0.330
-483.405	-62.300	0.024	0.010
-482.391	-200.000	-0.202	0.001
-481.376	113.512	0.112	0.136
-480.362	-48.071	0.011	0.005
-479.347	767.938	-0.012	-0.033
-478.332	-68.662	0.252	-0.097
-477.318	668.311	0.064	-0.166
-476.303	800.000	0.100	-0.358
-475.289	-56.652	0.036	-0.016
-474.274	42.467	0.217	0.196
-473.259	92.563	-0.199	0.224
-472.245	-6.194	0.290	0.197
-471.230	-170.736	0.369	0.013
-470.216	33.887	0.232	-0.201
-469.201	442.458	-0.105	-0.229
-468.186	-80.376	-0.253	-0.084
-467.172	-27.797	0.403	0.233
-466.157	295.568	0.052	-0.094
-465.143	-55.029	0.388	0.174
-464.128	-200.000	-0.011	0.270
-463.113	-42.545	0.152	-0.077
-462.099	-82.147	0.424	-0.138
-461.084	-34.785	-0.229	-0.125
-460.070	80.915	-0.254	-0.272
-459.055	114.604	0.215	0.260
-458.040	364.689	0.116	-0.233
-457.026	-77.432	-0.106	-0.037
-456.011	-200.000	0.022	-0.138
-454.997	-87.785	0.153	-0.046
-453.982	800.000	-0.093	0.327
-452.968	-200.000	-0.001	0.053
-451.953	51.912	0.042	-0.040
-450.938	-200.000	0.043	-0.210
-449.924	61.198	0.084	0.083
-448.909	-191.309	0.225	0.002
-447.895	-176.640	0.087	-0.002
-446.880	231.856	-0.184	-0.301
-445.865	-111.757	-0.206	0.041
-444.851	800.000	0.068	0.272
-443.836	300.326	0.137	0.251
-442.822	340.475	0.136	-0.265
-441.807	18.335	-0.145	0.115
-440.792	800.000	0.058	0.232
-439.778	-200.000	-0.032	-0.177
-438.763	100.871	0.120	-0.138
-437.749	97.581	0.172	0.197
-436.734	453.136	0.099	0.218
-435.719	-135.933	-0.212	-0.025
-434.705	800.000	-0.017	-0.050
-433.690	-82.345	0.249	0.081
-432.676	-29.044	-0.129	0.074
-431.661	185.748	0.233	-0.345
-430.646	118.493	-0.179	0.220
-429.632	-7.072	0.148	-0.100
-428.617	345.508	0.115	0.224
-427.603	-200.000	-0.002	0.344
-426.588	-132.966	-0.152	-0.019
-425.573	0.012	0.239	-0.169
-424.559	318.303	0.118	-0.222
-423.544	-200.000	-0.000	-0.054
-422.530	-87.686	0.106	-0.032
-421.515	84.912	-0.109	0.118
-420.500	93.678	0.106	-0.120
-419.486	-87.031	-0.070	-0.021
-418.471	-146.586	-0.178	-0.015
-417.457	-200.000	-0.006	0.196
-416.442	-22.197	-0.176	0.106
-415.428	344.075	-0.057	0.112
-414.413	360.565	0.044	-0.087
-413.398	115.440	0.199	0.241
-412.384	259.674	-0.078	0.133
-411.369	800.000	-0.023	-0.072
-410.355	241.673	-0.090	-0.150
-409.340	689.876	0.149	0.388
-408.325	-86.765	-0.135	-0.041
-407.311	49.660	0.120	-0.112
-406.296	295.685	-0.118	0.214
-405.282	400.919	-0.084	-0.176
-404.267	-35.039	0.129	0.070
-403.252	34.241	-0.224	-0.194
-402.238	-114.435	-0.158	-0.030
-401.223	-135.859	-0.169	0.020
-400.209	-146.391	-0.064	-0.006
-399.194	-123.118	0.306	-0.049
-398.179	171.354	0.233	-0.332
-397.165	-153.155	-0.194	-0.013
-396.150	-131.383	0.361	0.047
-395.136	199.858	-0.114	0.174
-394.121	-77.604	0.161	-0.055
-393.106	237.132	0.038	0.063
-392.092	-200.000	0.024	-0.165
-391.077	-167.572	0.462	0.018
-390.063	800.000	-0.033	-0.129
-389.048	92.145	-0.240	0.268
-388.033	145.154	-0.064	0.086
-387.019	-20.366	-0.127	0.078
-386.004	27.966	-0.078	0.065
-384.990	800.000	-0.055	-0.154
-383.975	-43.810	0.038	0.019
-382.960	-200.000	0.003	0.109
-381.946	-27.056	-0.209	0.121
-380.931	50.944	-0.115	-0.108
-379.917	-200.000	-0.034	-0.150
-378.902	800.000	0.028	0.113
-377.888	-115.512	-0.280	-0.052
-376.873	800.000	-0.051	-0.184
-375.858	63.222	-0.085	-0.085
-374.844	-141.667	0.115	0.011
-373.829	112.877	-0.217	0.260
-372.815	44.349	0.091	0.083
-371.800	800.000	0.044	-0.188
-370.785	-3.007	-0.389	0.270
-369.771	126.460	0.174	-0.218
-368.756	-100.618	-0.084	0.021
-367.742	800.000	-0.012	-0.048
-366.727	800.000	-0.009	0.037
-365.712	364.846	-0.053	-0.107
-364.698	-200.000	0.030	-0.525
-363.683	-200.000	-0.018	-0.106
-362.669	-120.300	0.214	-0.036
-361.654	-125.731	-0.414	-0.062
-360.639	-40.832	0.050	-0.026
-359.625	175.190	-0.045	0.064
-358.610	-117.148	-0.059	0.011
-357.596	52.032	-0.103	0.097
-356.581	800.000	0.119	0.353
-355.566	210.946	-0.080	0.125
-354.552	-173.473	0.224	0.007
-353.537	169.661	-0.117	-0.166
-352.523	800.000	0.002	0.009
-351.508	-200.000	-0.015	0.107
-350.493	210.422	-0.056	-0.088
-349.479	-106.902	0.309	-0.068
-348.464	33.907	0.058	-0.050
-347.450	16.825	0.081	-0.064
-346.435	119.880	-0.121	-0.148
-345.420	-69.921	0.232	0.088
-344.406	317.978	-0.139	-0.261
-343.391	58.009	-0.454	0.441
-342.377	220.971	0.072	0.115
-341.362	58.561	0.062	0.060
-340.348	-88.121	-0.165	0.049
-339.333	-162.184	-0.248	-0.012
-338.318	-3.161	-0.221	0.153
-337.304	-56.760	0.192	-0.084
-336.289	-94.974	-0.236	0.063
-335.275	126.138	-0.117	0.147
-334.260	45.361	0.292	0.267
-333.245	505.194	-0.048	-0.110
-332.231	-200.000	-0.011	-0.174
-331.216	-116.670	-0.235	0.043
-330.202	337.724	0.220	0.424
-329.187	-25.210	0.187	-0.110
-328.172	375.380	-0.127	-0.257
-327.158	-200.000	-0.006	0.167
-326.143	-58.430	-0.200	0.086
-325.129	-200.000	-0.028	0.145
-324.114	68.327	0.147	-0.149
-323.099	800.000	-0.017	0.062
-322.085	800.000	0.043	0.166
-321.070	-135.733	0.272	0.032
-320.056	-42.213	-0.060	-0.030
-319.041	41.705	0.130	-0.116
-318.026	-142.650	0.179	-0.017
-317.012	667.794	0.024	0.062
-315.997	-200.000	0.009	0.166
-314.983	-200.000	0.079	-0.456
-313.968	-127.630	0.231	-0.033
-312.953	56.484	-0.096	-0.092
-311.939	-82.897	-0.090	-0.029
-310.924	1.854	-0.218	0.156
-309.910	800.000	-0.043	0.176
-308.895	-155.443	-0.104	-0.007
-307.880	-68.241	-0.273	0.105
-306.866	470.869	0.106	-0.237
-305.851	260.822	-0.059	0.100
-304.837	-200.000	-0.006	0.073
-303.822	-40.150	-0.106	-0.055
-302.807	-200.000	0.065	-0.306
-301.793	82.078	0.155	-0.166
-300.778	-113.217	0.249	-0.049
-299.764	237.694	0.229	0.376
-298.749	117.315	-0.158	0.193
-297.735	-129.397	-0.119	0.016
-296.720	33.734	-0.080	0.069
-295.705	109.621	0.095	-0.112
-294.691	117.501	0.157	0.191
-293.676	68.804	0.069	-0.070
-292.662	-82.515	-0.241	0.077
-291.647	-85.499	-0.171	-0.053
-290.632	76.650	0.148	0.156
-289.618	30.553	-0.176	0.149
-288.603	17.438	0.099	-0.078
-287.589	-122.764	0.132	-0.021
-286.574	800.000	-0.069	-0.261
-285.559	70.714	0.253	-0.259
-284.545	54.938	0.199	-0.190
-283.530	13.791	0.379	0.291
-282.516	-200.000	-0.035	0.293
-281.501	-197.890	0.448	-0.003
-280.486	32.148	0.130	-0.111
-279.472	800.000	-0.090	-0.337
-278.457	-200.000	0.021	-0.360
-277.443	60.448	-0.415	0.406
-276.428	-59.603	0.176	-0.075
-275.413	-9.277	-0.183	0.121
-274.399	0.914	-0.188	-0.133
-273.384	-118.155	-0.275	0.048
-272.370	800.000	0.047	-0.173
-271.355	-123.662	-0.203	-0.032
-270.340	205.004	0.122	-0.187
-269.326	-62.357	-0.060	0.025
-268.311	8.627	0.026	0.020
-267.297	800.000	0.025	-0.097
-266.282	-17.774	-0.239	-0.148
-265.267	-200.000	0.005	0.062
-264.253	18.881	0.170	0.135
-263.238	-111.369	0.288	0.058
-262.224	-16.456	-0.057	0.036
-261.209	133.544	0.099	-0.126
-260.195	2.900	-0.114	0.082
-259.180	-79.585	-0.231	-0.077
-258.165	-200.000	0.036	0.169
-257.151	96.906	-0.240	0.272
-256.136	-107.195	0.230	0.050
-255.122	308.700	0.039	0.071
-254.107	26.045	0.333	0.274
-253.092	-106.688	-0.254	-0.056
-252.078	32.861	0.171	-0.146
-251.063	-139.810	-0.179	0.019
-250.049	-120.621	-0.261	-0.044
-249.034	52.069	-0.080	-0.075
-248.019	396.438	0.077	0.158
-247.005	-200.000	-0.012	0.069
-245.990	121.434	0.038	0.047
-244.976	800.000	0.018	0.069
-243.961	-143.886	0.144	0.013
-242.946	7.562	0.210	0.155
-241.932	-146.467	-0.325	0.028
-240.917	-10.165	0.194	-0.127
-239.903	-114.148	0.318	0.061
-238.888	-125.792	0.326	0.049
-237.873	713.005	0.050	-0.130
-236.859	-138.638	-0.350	-0.038
-235.844	189.059	0.265	0.391
-234.830	19.066	0.256	-0.202
-233.815	-86.409	-0.095	0.029
-232.800	-74.949	-0.156	0.055
-231.786	-47.350	0.125	-0.060
-230.771	-2.866	0.352	0.243
-229.757	494.227	-0.140	0.317
-228.742	-160.692	-0.241	-0.013
-227.727	-200.000	0.004	0.044
-226.713	800.000	-0.043	-0.136
-225.698	-144.347	-0.191	-0.017
-224.684	800.000	0.049	0.183
-223.669	-200.000	-0.003	0.570
-222.655	800.000	-0.067	-0.218
-221.640	90.299	0.112	-0.124
-220.625	800.000	0.070	0.258
-219.611	200.207	0.073	0.111
-218.596	-32.425	-0.144	-0.079
-217.582	206.514	0.059	-0.090
-216.567	-33.723	-0.168	-0.091
-215.552	-200.000	0.006	0.197
-214.538	-24.025	-0.060	0.035
-213.523	800.000	-0.061	-0.194
-212.509	295.806	-0.031	-0.056
-211.494	-66.041	-0.176	0.069
-210.479	-200.000	-0.020	-0.254
-209.465	79.666	0.133	-0.140
-208.450	122.169	-0.061	0.075
-207.436	335.199	-0.137	-0.262
-206.421	-71.036	-0.168	0.062
-205.406	-6.177	-0.196	-0.132
-204.392	-124.940	-0.221	0.034
-203.377	-200.000	-0.013	0.215
-202.363	-128.696	0.392	-0.054
-201.348	-11.480	0.153	0.099
-200.333	602.657	-0.071	0.173
-199.319	118.769	0.158	0.192
-198.304	46.790	-0.385	-0.353
-197.290	-200.000	0.038	-0.293
-196.275	286.739	-0.169	0.300
-195.260	-30.915	-0.216	0.120
-194.246	90.103	-0.218	-0.240
-193.231	126.706	0.086	-0.108
-192.217	370.563	0.101	0.201
-191.202	-36.737	0.238	0.126
-190.187	-176.201	0.035	0.001
-189.173	-200.000	0.091	0.504
-188.158	552.784	-0.018	-0.043
-187.144	111.982	-0.095	-0.113
-186.129	-200.000	0.012	-0.168
-185.114	-200.000	-0.056	-0.462
-184.100	800.000	0.086	-0.343
-183.085	6.700	-0.370	-0.271
-182.071	-165.967	0.165	-0.007
-181.056	800.000	0.069	0.234
-180.042	-126.089	0.080	-0.012
-179.027	-200.000	0.029	-0.245
-178.012	111.847	-0.062	-0.074
-176.998	-147.789	0.349	0.029
-175.983	51.284	-0.077	-0.072
-174.969	800.000	0.043	-0.116
-173.954	62.478	0.315	-0.309
-172.939	-200.000	-0.009	-0.114
-171.925	210.227	-0.044	-0.068
-170.910	-121.326	-0.379	0.062
-169.896	68.954	-0.094	-0.095
-168.881	800.000	0.084	-0.296
-167.866	-200.000	0.042	-0.342
-166.852	800.000	-0.060	0.195
-165.837	-117.913	0.092	0.016
-164.823	175.632	0.165	-0.236
-163.808	135.996	-0.079	0.101
-162.793	-200.000	-0.004	0.047
-161.779	-75.108	0.257	-0.090
-160.764	-200.000	0.008	-0.076
-159.750	-200.000	0.013	0.104
-158.735	127.658	0.128	-0.160
-157.720	-59.925	-0.112	-0.047
-156.706	-11.871	0.185	-0.119
-155.691	575.196	-0.122	0.293
-154.677	-200.000	-0.018	-0.250
-153.662	-173.502	-0.101	0.003
-152.647	147.079	0.189	0.250
-151.633	-200.000	-0.026	0.150
-150.618	800.000	-0.014	0.050
-149.604	31.466	0.159	-0.134
-148.589	381.341	-0.070	-0.141
-147.574	-98.880	0.248	-0.062
-146.560	457.520	0.122	-0.266
-145.545	800.000	0.046	-0.177
-144.531	-37.876	0.195	-0.102
-143.516	800.000	-0.037	0.156
-142.502	53.875	0.135	0.127
-141.487	-11.865	0.244	0.157
-140.472	-200.000	-0.033	0.202
-139.458	-1.785	0.196	-0.135
-138.443	36.122	0.289	0.250
-137.429	-191.782	0.186	0.002
-136.414	-146.530	0.296	0.025
-135.399	-64.750	0.048	0.019
-134.385	-50.736	-0.041	-0.019
-133.370	-141.072	0.137	-0.014
-132.356	355.710	0.078	0.153
-131.341	-0.194	0.032	-0.022
-130.326	-127.289	0.367	-0.053
-129.312	-14.728	-0.215	-0.136
-128.297	-19.142	0.169	0.103
-127.283	-200.000	-0.031	-0.174
-126.268	100.343	0.054	-0.061
-125.253	62.828	0.103	-0.101
-124.239	-19.379	0.058	-0.035
-123.224	221.454	-0.015	0.024
-122.210	432.787	0.123	0.263
-121.195	-108.322	0.207	0.044
-120.180	-200.000	-0.029	0.165
-119.166	525.763	-0.114	0.264
-118.151	800.000	0.092	0.303
-117.137	156.316	-0.140	0.190
-116.122	-3.119	0.169	-0.116
-115.107	-200.000	0.062	-0.425
-114.093	106.655	0.031	0.036
-113.078	-44.380	-0.321	-0.158
-112.064	165.151	-0.127	0.176
-111.049	125.630	0.187	-0.232
-110.034	-189.294	0.248	0.003
-109.020	-83.853	0.034	-0.011
-108.005	33.512	-0.134	0.114
-106.991	-103.772	-0.299	0.069
-105.976	171.129	-0.528	0.742
-104.962	-25.743	-0.231	-0.134
-103.947	-200.000	0.104	0.557
-102.932	800.000	0.062	0.171
-101.918	64.623	-0.105	-0.104
-100.903	25.883	0.020	-0.016
-99.889	76.973	0.307	-0.319
-98.874	481.302	-0.122	-0.272
-97.859	583.203	0.060	0.144
-96.845	-200.000	0.002	0.092
-95.830	-23.570	-0.253	0.149
-94.816	25.912	0.229	0.187
-93.801	-39.677	0.166	-0.085
-92.786	-71.995	0.111	0.041
-91.772	225.123	-0.056	-0.089
-90.757	-64.893	-0.193	0.077
-89.743	-51.194	-0.229	-0.105
-88.728	215.160	-0.192	0.299
-87.713	64.534	-0.230	0.228
-86.699	8.575	-0.069	0.051
-85.684	-135.374	0.333	-0.039
-84.670	-200.000	0.005	0.028
-83.655	-141.898	-0.210	-0.021
-82.640	-172.359	0.194	-0.006
-81.626	32.161	-0.147	0.124
-80.611	232.454	-0.008	0.013
-79.597	800.000	0.042	0.134
-78.582	-152.684	0.110	-0.008
-77.567	-126.169	0.211	0.031
-76.553	-14.845	-0.135	-0.085
-75.538	-77.783	-0.163	0.055
-74.524	-11.183	0.251	-0.162
-73.509	558.897	-0.150	0.354
-72.494	-50.736	-0.201	0.093
-71.480	-5.470	-0.204	0.137
-70.465	164.216	-0.286	0.395
-69.451	40.073	0.017	0.015
-68.436	86.730	0.062	0.067
-67.422	0.340	-0.073	-0.051
-66.407	800.000	-0.134	-0.483
-65.392	281.960	-0.060	-0.105
-64.378	-6.931	0.177	0.118
-63.363	800.000	-0.030	0.116
-62.349	281.908	-0.175	0.307
-61.334	1.506	-1.129	-0.796
-60.319	16.854	0.327	0.253
-59.305	144.263	-0.490	-0.640
-58.290	780.067	0.334	0.895
-57.276	410.201	0.781	1.621
-56.261	-200.000	102.114	618.288
-55.246	531.388	1460.321	3382.361
-54.232	183.852	2653.872	3845.327
-53.217	115.152	2147.984	2568.240
-52.203	42.564	1589.766	1416.836
-51.188	34.097	1323.955	1129.874
-50.173	30.896	1282.588	1076.073
-49.159	55.421	1334.484	1264.610
-48.144	56.176	1350.713	1284.378
-47.130	34.224	1306.762	1115.768
-46.115	30.748	1289.046	1080.463
-45.100	30.499	1284.037	1074.782
-44.086	30.449	1281.881	1072.648
-43.071	30.456	1279.204	1070.406
-42.057	30.314	1277.707	1068.290
-41.042	30.474	1275.954	1067.704
-40.027	30.470	1274.876	1066.736
-39.013	30.379	1273.114	1064.699
-37.998	30.567	1270.681	1063.699
-36.984	30.543	1269.241	1062.314
-35.969	30.627	1267.270	1061.101
-34.954	30.632	1266.174	1060.169
-33.940	30.570	1264.625	1058.473
-32.925	30.592	1263.567	1057.672
-31.911	30.691	1261.948	1056.840
-30.896	30.694	1260.298	1055.431
-29.881	30.579	1259.522	1054.089
-28.867	30.740	1257.257	1053.064
-27.852	30.534	1256.633	1051.331
-26.838	30.608	1254.951	1050.301
-25.823	30.619	1253.353	1048.987
-24.809	30.681	1252.298	1048.412
-23.794	30.539	1251.304	1046.736
-22.779	30.625	1249.758	1045.887
-21.765	30.504	1248.980	1044.510
-20.750	30.463	1247.442	1042.952
-19.736	30.499	1245.861	1041.791
-18.721	30.377	1245.082	1040.417
-17.706	30.522	1243.406	1039.787
-16.692	30.503	1242.771	1039.106
-15.677	30.390	1241.500	1037.373
-14.663	30.342	1240.748	1036.435
-13.648	30.493	1239.745	1036.398
-12.633	30.523	1238.612	1035.579
-11.619	30.429	1237.543	1034.116
-10.604	30.433	1237.405	1033.985
-9.590	30.532	1236.051	1033.362
-8.575	30.457	1234.652	1031.733
-7.560	30.278	1234.227	1030.345
-6.546	30.321	1233.394	1029.848
-5.531	30.470	1232.279	1029.702
-4.517	30.566	1231.094	1029.202
-3.502	30.497	1230.451	1028.245
-2.487	30.576	1229.539	1027.875
-1.473	30.432	1225.420	1023.596
-0.458	28.885	1210.641	1002.782
0.556	23.006	1193.197	964.218
1.571	19.459	1197.822	948.408
2.586	18.639	1212.578	955.444
3.600	18.581	1201.882	946.613
4.615	13.401	1131.242	863.919
5.629	4.328	1057.175	762.843
6.644	0.049	1037.226	727.710
7.659	-0.321	1034.916	724.240
8.673	-0.522	1033.921	722.510
9.688	-0.465	1032.549	721.759
10.702	-0.144	1031.132	722.251
11.717	5.804	1038.683	756.221
12.731	14.616	1052.038	808.752
13.746	18.925	1056.117	832.734
14.761	19.394	1056.679	835.378
15.775	19.323	1056.361	834.706
16.790	19.163	1055.308	833.030
17.804	19.068	1054.905	832.175
18.819	19.232	1053.971	832.159
19.834	19.240	1053.755	831.955
20.848	19.307	1053.326	831.865
21.863	19.264	1052.547	830.968
22.877	19.172	1052.242	830.210
23.892	19.090	1051.196	828.914
24.907	19.164	1050.814	828.900
25.921	19.181	1049.592	827.943
26.936	19.143	1048.261	826.638
27.950	19.108	1046.816	825.255
28.965	18.968	1044.784	822.912
29.980	19.098	1042.866	821.947
30.994	19.368	1041.946	822.440
32.009	19.195	1040.983	820.780
33.023	18.935	1039.695	818.456
34.038	19.037	1039.075	818.383
35.053	19.179	1038.445	818.486
36.067	19.343	1037.069	818.108
37.082	19.346	1036.271	817.422
38.096	19.499	1035.850	817.743
39.111	19.440	1035.173	816.858
40.126	19.357	1033.355	814.957
41.140	19.075	1031.891	812.397
42.155	18.921	1030.636	810.612
43.169	19.026	1029.771	810.356
44.184	19.003	1028.288	809.009
45.199	18.857	1027.300	807.474
46.213	18.891	1026.325	806.796
47.228	19.010	1025.389	806.547
48.242	19.214	1023.865	806.230
49.257	19.223	1024.158	806.433
50.271	19.229	1023.283	805.700
51.286	19.327	1022.011	805.083
52.301	19.315	1021.016	804.174
53.315	19.226	1019.902	802.811
54.330	19.152	1019.778	802.295
55.344	19.196	1018.295	801.266
56.359	19.158	1017.535	800.419
57.374	19.005	1016.363	798.716
58.388	19.149	1015.351	798.520
59.403	18.990	1014.926	797.376
60.417	19.000	1013.667	796.362
61.432	18.930	1013.375	795.738
62.447	18.897	1012.731	795.010
63.461	19.075	1011.460	794.765
64.476	19.026	1010.886	794.016
65.490	18.968	1009.990	792.975
66.505	19.041	1008.910	792.394
67.520	18.939	1008.227	791.316
68.534	18.876	1006.937	789.948
69.549	18.715	1005.764	788.218
70.563	18.815	1004.741	787.804
71.578	18.753	1004.273	787.084
72.593	18.631	1003.063	785.504
73.607	18.749	1002.892	785.843
74.622	19.013	1001.872	786.182
75.636	18.934	1001.326	785.323
76.651	18.756	1000.553	783.833
77.666	18.721	999.660	782.906
78.680	18.854	999.107	783.009
79.695	18.950	998.211	782.674
80.709	18.932	997.452	781.927
81.724	18.877	997.081	781.319
82.739	18.961	995.812	780.637
83.753	19.359	995.614	782.219
84.768	19.427	994.736	781.767
85.782	19.495	993.872	781.326
86.797	19.457	992.618	780.097
87.812	19.409	991.427	778.876
88.826	19.453	990.612	778.367
89.841	19.471	989.794	777.736
90.855	19.444	989.062	776.969
91.870	19.497	987.629	776.016
92.884	19.265	987.158	774.532
93.899	19.191	986.347	773.496
94.914	19.437	985.075	773.535
95.928	19.312	983.750	771.863
96.943	19.104	982.723	770.058
97.957	18.951	981.434	768.297
98.972	18.759	980.405	766.566
99.987	18.908	979.612	766.546
101.001	19.109	979.025	766.913
102.016	19.142	978.087	766.260
103.030	18.957	977.380	764.815
104.045	18.870	975.973	763.259
105.060	18.757	975.280	762.148
106.074	18.972	974.520	762.441
107.089	19.228	974.283	763.319
108.103	19.302	972.552	762.223
109.118	19.198	971.625	760.970
110.133	19.075	970.451	759.439
111.147	18.860	969.396	757.601
112.162	18.710	968.644	756.284
113.176	18.973	967.792	756.713
114.191	18.969	966.816	755.863
115.206	18.675	965.899	753.787
116.220	18.686	965.093	753.141
117.235	18.906	964.084	753.250
118.249	18.807	963.389	752.206
119.264	18.781	962.574	751.391
120.279	18.839	961.463	750.709
121.293	18.762	960.929	749.893
122.308	18.746	960.074	749.086
123.322	18.824	959.040	748.556
124.337	18.704	957.567	746.816
125.352	18.258	956.136	743.696
126.366	18.187	954.808	742.290
127.381	18.985	954.437	745.395
128.395	19.330	954.134	746.587
129.410	19.526	953.068	746.536
130.424	19.343	952.426	745.175
131.439	19.234	951.397	743.834
132.454	19.306	950.130	743.087
133.468	19.211	949.519	742.136
134.483	19.315	948.623	741.817
135.497	19.484	947.943	741.948
136.512	19.645	946.507	741.448
137.527	19.530	945.835	740.363
138.541	19.528	945.511	740.033
139.556	19.509	944.719	739.269
140.570	19.550	943.923	738.754
141.585	19.468	942.786	737.450
142.600	19.419	941.919	736.495
143.614	19.678	941.000	736.817
144.629	19.574	940.938	736.258
145.643	19.654	939.092	735.092
146.658	19.477	938.061	733.465
147.673	19.318	937.059	731.943
148.687	19.411	935.894	731.361
149.702	19.263	935.108	730.059
150.716	19.343	934.057	729.511
151.731	19.329	933.575	729.012
152.746	19.564	932.684	729.244
153.760	19.654	932.451	729.376
154.775	19.716	931.927	729.165
155.789	19.692	930.774	728.094
156.804	19.613	930.140	727.204
157.819	19.611	929.730	726.811
158.833	19.713	928.321	726.073
159.848	19.670	927.604	725.268
160.862	19.529	926.300	723.590
161.877	19.686	925.265	723.377
162.892	19.723	924.658	722.992
163.906	19.680	923.448	721.804
164.921	19.674	922.507	720.978
165.935	19.587	921.935	720.106
166.950	19.608	920.800	719.243
167.964	19.648	919.689	718.477
168.979	19.481	918.722	716.967
169.994	19.518	917.749	716.294
171.008	19.787	917.194	716.915
172.023	19.670	916.596	715.898
173.037	19.331	915.371	713.474
174.052	19.326	914.433	712.662
175.067	19.507	913.678	712.756
176.081	19.666	913.377	713.114
177.096	19.585	912.501	712.036
178.110	19.222	911.862	709.976
179.125	19.096	910.992	708.718
180.140	19.339	910.126	708.979
181.154	19.336	909.942	708.762
182.169	19.455	910.193	709.383
183.183	19.631	909.078	709.176
184.198	19.608	908.159	708.299
185.213	19.632	907.553	707.865
186.227	19.646	907.005	707.430
187.242	19.736	906.302	707.189
188.256	19.781	905.186	706.440
189.271	19.856	904.606	706.231
190.286	19.564	903.491	704.108
191.300	19.050	902.305	701.026
192.315	18.378	900.764	697.035
193.329	18.286	900.655	696.515
194.344	19.088	900.681	699.736
195.359	19.494	900.930	701.515
196.373	19.665	900.065	701.476
197.388	19.408	899.540	699.959
198.402	19.560	898.321	699.566
199.417	19.497	898.080	699.061
200.432	19.262	896.888	697.122
201.446	19.044	896.303	695.725
202.461	19.085	895.660	695.329
203.475	18.236	894.018	690.568
204.490	17.661	892.971	687.377
205.504	18.646	893.128	691.411
206.519	19.286	892.863	693.720
207.534	19.226	892.484	693.122
208.548	19.772	892.422	695.208
209.563	19.451	891.353	693.025
210.577	19.317	890.837	692.025
211.592	19.692	890.345	693.087
212.607	19.597	889.376	691.890
213.621	19.831	888.293	691.921
214.636	19.740	888.062	691.318
215.650	19.770	887.207	690.710
216.665	19.805	886.796	690.468
217.680	19.664	886.114	689.315
218.694	19.234	884.875	686.575
219.709	19.129	883.755	685.229
220.723	19.419	883.157	685.859
221.738	19.589	882.532	685.987
222.753	19.569	881.960	685.402
223.767	19.540	881.828	685.123
224.782	19.868	881.487	686.099
225.796	19.796	880.939	685.325
226.811	19.201	879.514	681.802
227.826	18.562	878.147	678.159
228.840	18.867	877.586	678.869
229.855	18.977	876.614	678.491
230.869	18.535	875.444	675.785
231.884	18.877	875.990	677.493
232.899	19.693	875.844	680.537
233.913	19.587	874.845	679.283
234.928	19.556	874.836	679.095
235.942	19.468	873.990	678.032
236.957	19.321	872.795	676.468
237.972	19.347	872.690	676.429
238.986	19.345	871.835	675.696
240.001	19.378	871.492	675.499
241.015	19.480	870.551	675.112
242.030	19.735	869.798	675.463
243.045	19.614	869.640	674.809
244.059	19.726	869.211	674.855
245.074	19.582	868.127	673.390
246.088	19.305	867.100	671.457
247.103	19.353	866.979	671.488
248.117	19.937	866.680	673.469
249.132	20.129	865.900	673.552
250.147	20.152	865.317	673.129
251.161	20.289	864.940	673.305
252.176	20.403	864.057	673.001
253.190	20.322	863.862	672.474
254.205	20.304	863.283	671.896
255.220	20.417	862.527	671.684
256.234	20.473	861.608	671.128
257.249	20.234	860.982	669.657
258.263	20.473	860.131	669.856
259.278	20.291	859.644	668.717
260.293	20.454	858.887	668.697
261.307	20.432	857.806	667.711
262.322	20.052	857.092	665.637
263.336	19.328	855.238	661.363
264.351	18.268	853.172	655.649
265.366	18.346	853.616	656.229
266.380	19.483	854.021	660.840
267.395	20.092	853.516	662.719
268.409	20.015	853.032	661.991
269.424	20.187	852.374	662.077
270.439	20.211	851.666	661.561
271.453	20.501	850.806	661.939
272.468	20.610	850.550	662.097
273.482	20.606	850.437	661.937
274.497	20.010	849.067	658.543
275.512	19.767	848.118	656.828
276.526	20.046	848.152	657.853
277.541	20.326	847.456	658.319
278.555	20.105	846.555	656.726
279.570	19.871	845.880	655.255
280.585	20.106	845.087	655.475
281.599	20.128	844.186	654.798
282.614	19.576	843.084	651.805
283.628	19.571	842.939	651.613
284.643	19.816	842.753	652.336
285.657	19.439	841.449	649.852
286.672	19.292	840.609	648.592
287.687	19.866	840.207	650.381
288.701	20.067	839.341	650.407
289.716	19.505	839.051	648.018
290.730	19.459	838.411	647.293
291.745	19.288	837.327	645.760
292.760	19.495	837.279	646.441
293.774	20.474	837.679	650.358
294.789	20.907	836.856	651.279
295.803	20.917	836.619	651.076
296.818	20.734	836.421	650.178
297.833	20.391	834.855	647.625
298.847	20.292	833.909	646.467
299.862	20.482	834.307	647.425
300.876	20.678	833.858	647.748
301.891	20.468	833.165	646.371
302.906	20.222	831.475	644.091
303.920	20.315	831.691	644.545
304.935	20.756	831.118	645.680
305.949	20.627	830.559	644.713
306.964	20.447	830.097	643.628
307.979	20.624	829.695	643.917
308.993	20.895	829.207	644.484
310.008	20.869	828.847	644.048
311.022	20.647	827.811	642.370
312.037	20.443	827.399	641.240
313.052	20.285	826.400	639.824
314.066	19.472	825.088	635.760
315.081	19.197	824.484	634.226
316.095	20.203	824.514	637.895
317.110	20.558	824.543	639.167
318.125	19.628	822.800	634.343
319.139	18.899	821.498	630.610
320.154	18.870	821.168	630.195
321.168	19.649	821.556	633.296
322.183	20.245	821.407	635.306
323.197	20.357	821.261	635.548
324.212	20.568	821.201	636.218
325.227	20.479	820.378	635.196
326.241	20.574	819.562	634.855
327.256	20.407	818.768	633.577
328.270	20.539	818.115	633.495
329.285	20.238	817.326	631.733
330.300	20.093	816.436	630.460
331.314	20.290	816.528	631.196
332.329	20.523	816.463	631.934
333.343	20.644	815.957	631.927
334.358	20.833	815.061	631.862
335.373	20.839	814.921	631.719
336.387	20.981	814.882	632.150
337.402	21.026	814.570	632.015
338.416	20.899	814.164	631.182
339.431	21.009	813.676	631.147
340.446	21.361	813.086	631.905
341.460	20.868	812.951	629.963
342.475	20.864	812.165	629.284
343.489	20.963	811.855	629.346
344.504	21.106	811.804	629.766
345.519	21.446	810.907	630.242
346.533	21.405	811.236	630.291
347.548	21.436	810.582	629.839
348.562	21.311	810.100	628.960
349.577	21.296	809.416	628.317
350.592	21.447	808.693	628.244
351.606	21.498	807.827	627.700
352.621	21.193	807.147	626.020
353.635	21.212	806.446	625.490
354.650	20.731	804.833	622.463
355.665	19.797	803.372	617.945
356.679	20.021	803.376	618.694
357.694	20.547	802.811	620.079
358.708	20.459	802.415	619.406
359.723	20.803	802.108	620.338
360.738	21.138	801.942	621.350
361.752	21.234	801.546	621.329
362.767	21.589	800.878	622.018
363.781	21.555	800.793	621.777
364.796	21.676	800.298	621.765
365.810	21.949	799.495	622.056
366.825	21.685	799.312	620.921
367.840	21.499	798.445	619.533
368.854	21.211	797.724	617.903
369.869	21.129	797.556	617.426
370.883	21.121	796.978	616.896
371.898	20.995	796.195	615.792
372.913	21.277	795.951	616.541
373.927	21.289	795.619	616.273
374.942	21.339	795.424	616.243
375.956	21.385	794.830	615.891
376.971	21.665	794.580	616.630
377.986	21.628	794.634	616.486
379.000	21.717	793.303	615.711
380.015	21.472	793.156	614.682
381.029	21.592	792.725	614.717
382.044	21.659	792.464	614.692
383.059	21.684	791.520	613.994
384.073	21.679	790.732	613.313
385.088	21.607	790.780	613.041
386.102	21.623	789.505	612.056
387.117	21.645	788.824	611.550
388.132	21.310	787.895	609.608
389.146	20.773	787.296	607.219
390.161	21.049	787.201	608.054
391.175	21.433	787.112	609.267
392.190	21.269	785.768	607.602
393.205	19.947	783.948	601.554
394.219	18.604	782.763	595.926
395.234	18.609	782.791	595.914
396.248	20.292	783.717	602.412
397.263	21.323	784.648	606.657
398.278	21.347	783.828	606.052
399.292	21.151	783.267	604.884
400.307	21.273	782.755	604.859
401.321	21.437	782.401	605.101
402.336	21.734	782.406	606.076
403.350	21.976	782.324	606.798
404.365	22.045	782.269	606.940
405.380	22.343	781.534	607.342
406.394	22.521	780.882	607.397
407.409	22.300	780.521	606.302
408.423	22.258	780.134	605.802
409.438	22.397	779.692	605.885
410.453	22.395	779.391	605.590
411.467	22.383	778.983	605.177
412.482	22.469	778.402	604.966
413.496	22.369	778.267	604.466
414.511	22.358	777.728	603.957
415.526	22.547	777.126	604.083
416.540	22.336	776.618	602.912
417.555	22.080	775.840	601.378
418.569	22.090	775.660	601.220
419.584	22.043	775.009	600.500
420.599	21.848	774.646	599.499
421.613	159.212	1362.138	1798.719
422.628	137.458	1447.731	1798.807
