DTS Sentinel unit serial number:	SN413079Multiplexer serial number:	ORYXHardware model number:	OX4-SRSoftware version number:	ORYX F/W v4.00 Oryx Data Collector v3.7.2.0data status	okinstallation	princeton_trtdifferential loss correction	single-endedforward channel	channel 1reverse channel	N/Adate	2019/09/12time	04:52:11forward acquisition time	60.00reverse acquisition time	0.00gamma	496.2192k internal	0.2323k external	0.2323temperature offset calibration	1.0066default loss term (dB/km)	0.3790temperature slope calibration	1.0000multiplexer offset coefficient	1.0000multiplexer slope coefficient	1.0000fibre end	0.00T internal ref (°C)	31.69T ext. ref 1 (°C)	1.91T ext. ref 2 (°C)	27.21length (m)	temperature (°C)	Stokes	anti-Stokes-747.200	179.618	-0.061	-0.090
-746.185	-169.315	-0.183	-0.007
-745.171	-121.241	0.069	-0.012
-744.156	20.831	-0.140	0.114
-743.142	-200.000	0.034	0.306
-742.127	119.983	-0.198	0.248
-741.112	-123.101	-0.107	-0.017
-740.098	-50.496	-0.417	0.199
-739.083	349.858	-0.048	0.096
-738.069	521.570	0.069	0.164
-737.054	-169.628	-0.195	0.007
-736.039	-200.000	0.036	-0.283
-735.025	118.905	0.154	0.192
-734.010	90.718	0.202	-0.229
-732.996	-200.000	-0.012	-0.063
-731.981	-108.268	-0.308	-0.067
-730.966	170.678	-0.207	-0.299
-729.952	-200.000	-0.036	-0.243
-728.937	-55.220	-0.304	-0.138
-727.923	371.085	-0.104	-0.213
-726.908	349.162	0.090	0.180
-725.894	116.558	-0.165	-0.205
-724.879	-58.135	-0.066	-0.029
-723.864	-71.125	0.191	-0.072
-722.850	45.855	0.023	-0.021
-721.835	95.413	0.174	-0.201
-720.821	151.401	-0.120	-0.165
-719.806	62.668	0.177	-0.179
-718.791	800.000	0.106	-0.341
-717.777	-59.856	-0.228	0.098
-716.762	-6.193	-0.146	-0.101
-715.748	-200.000	-0.014	-0.123
-714.733	-26.141	-0.230	-0.137
-713.718	86.709	-0.029	0.032
-712.704	-128.509	0.163	0.023
-711.689	59.261	0.124	-0.123
-710.675	-200.000	0.003	0.358
-709.660	-200.000	-0.022	-0.114
-708.645	58.160	0.086	0.085
-707.631	800.000	0.137	-0.461
-706.616	587.018	0.135	0.335
-705.602	634.000	-0.097	-0.249
-704.587	800.000	0.021	0.088
-703.572	800.000	-0.070	-0.281
-702.558	104.793	-0.222	-0.263
-701.543	-13.548	-0.389	0.254
-700.529	-122.878	0.279	-0.045
-699.514	-200.000	0.038	0.197
-698.499	-166.065	-0.290	-0.012
-697.485	20.277	-0.172	-0.140
-696.470	304.133	0.093	0.174
-695.456	400.602	0.097	-0.205
-694.441	53.435	0.151	-0.146
-693.426	253.614	-0.194	-0.334
-692.412	-136.145	-0.404	-0.048
-691.397	-200.000	-0.023	0.201
-690.383	-1.713	0.165	-0.117
-689.368	-61.916	0.030	-0.013
-688.354	800.000	-0.163	-0.528
-687.339	-180.629	-0.142	-0.003
-686.324	-113.877	-0.162	-0.032
-685.310	-117.140	0.311	0.057
-684.295	-102.670	0.089	0.021
-683.281	-95.291	0.170	-0.046
-682.266	33.673	0.068	0.060
-681.251	800.000	-0.241	0.683
-680.237	-99.336	-0.168	-0.043
-679.222	557.106	-0.090	0.219
-678.208	557.807	0.043	0.104
-677.193	7.070	-0.127	-0.095
-676.178	800.000	-0.067	-0.225
-675.164	-200.000	0.016	0.256
-674.149	9.154	0.132	0.101
-673.135	6.653	0.478	-0.358
-672.120	11.276	-0.171	0.132
-671.105	305.792	-0.099	-0.186
-670.091	-200.000	-0.017	0.155
-669.076	-200.000	0.028	-0.166
-668.062	-6.521	-0.168	0.115
-667.047	-114.142	-0.063	0.012
-666.032	-150.819	0.132	-0.010
-665.018	-49.837	0.007	0.003
-664.003	62.927	-0.352	-0.354
-662.989	-115.845	0.167	-0.031
-661.974	-200.000	-0.052	0.374
-660.959	-22.541	-0.286	-0.174
-659.945	12.349	-0.392	-0.304
-658.930	-200.000	-0.040	0.398
-657.916	370.532	0.040	-0.082
-656.901	-115.988	-0.107	-0.020
-655.886	11.657	0.224	0.173
-654.872	158.434	-0.187	-0.261
-653.857	-152.090	-0.419	0.031
-652.843	-83.626	-0.461	0.148
-651.828	69.839	0.082	-0.085
-650.814	-147.883	0.304	-0.026
-649.799	5.774	0.541	-0.402
-648.784	68.367	0.117	-0.120
-647.770	160.593	0.212	-0.297
-646.755	5.213	-0.152	-0.113
-645.741	800.000	-0.128	-0.415
-644.726	408.790	-0.159	0.339
-643.711	738.460	-0.037	-0.100
-642.697	2.582	0.151	-0.110
-641.682	-200.000	0.019	-0.110
-640.668	119.873	-0.142	-0.177
-639.653	-200.000	0.014	0.324
-638.638	-114.169	0.108	-0.021
-637.624	-86.831	-0.234	-0.072
-636.609	433.552	0.110	0.241
-635.595	800.000	-0.135	0.476
-634.580	157.183	-0.071	0.098
-633.565	48.668	-0.054	0.051
-632.551	-82.929	-0.488	-0.158
-631.536	66.289	-0.206	0.210
-630.522	-200.000	-0.054	0.285
-629.507	139.093	-0.100	-0.132
-628.492	800.000	-0.029	0.097
-627.478	800.000	0.040	-0.112
-626.463	-200.000	0.011	0.301
-625.449	535.447	0.070	0.168
-624.434	-111.534	-0.127	0.026
-623.419	110.827	0.135	-0.164
-622.405	59.036	-0.127	-0.126
-621.390	-168.365	-0.028	0.001
-620.376	-89.146	0.214	0.064
-619.361	-200.000	-0.000	0.313
-618.346	-141.559	0.214	-0.022
-617.332	11.433	0.269	-0.207
-616.317	101.041	-0.035	-0.041
-615.303	101.527	-0.078	-0.091
-614.288	-11.923	0.294	0.194
-613.273	800.000	-0.077	0.314
-612.259	121.166	0.097	0.121
-611.244	-200.000	0.007	0.118
-610.230	-200.000	-0.002	0.296
-609.215	-156.631	-0.069	-0.004
-608.201	-20.650	0.288	0.177
-607.186	316.664	-0.235	-0.445
-606.171	-121.269	-0.207	0.035
-605.157	-200.000	-0.044	0.211
-604.142	800.000	-0.028	-0.100
-603.128	800.000	0.083	-0.268
-602.113	46.609	0.293	-0.273
-601.098	344.277	0.031	-0.061
-600.084	17.377	-0.180	-0.144
-599.069	-84.651	-0.231	-0.073
-598.055	-66.140	-0.023	0.009
-597.040	276.412	0.091	-0.163
-596.025	-120.502	0.098	0.017
-595.011	-200.000	-0.031	0.167
-593.996	540.246	-0.037	0.089
-592.982	71.363	-0.129	0.134
-591.967	-138.965	0.342	-0.037
-590.952	-18.094	-0.067	-0.042
-589.938	220.142	-0.200	-0.321
-588.923	-91.729	-0.367	0.105
-587.909	-57.590	-0.234	0.103
-586.894	800.000	0.022	0.075
-585.879	-200.000	-0.044	0.506
-584.865	598.186	-0.052	0.128
-583.850	6.689	-0.026	-0.019
-582.836	-80.507	0.349	0.117
-581.821	-59.019	-0.083	0.036
-580.806	85.039	-0.048	0.053
-579.792	316.269	0.196	0.372
-578.777	-25.869	0.218	0.129
-577.763	-67.870	0.320	0.126
-576.748	-71.423	0.105	0.039
-575.733	292.111	0.092	0.168
-574.719	4.796	-0.195	-0.143
-573.704	345.378	-0.172	-0.338
-572.690	122.035	-0.144	0.180
-571.675	307.639	-0.059	0.111
-570.661	-200.000	-0.007	0.217
-569.646	135.422	0.056	-0.073
-568.631	-200.000	0.043	-0.202
-567.617	-200.000	0.051	0.444
-566.602	-128.717	-0.136	0.019
-565.588	-200.000	-0.040	0.266
-564.573	-72.029	0.202	-0.075
-563.558	-193.958	-0.360	0.003
-562.544	338.984	-0.029	-0.056
-561.529	-200.000	-0.004	0.232
-560.515	800.000	-0.062	0.178
-559.500	-125.972	-0.083	0.013
-558.485	99.723	0.061	-0.071
-557.471	202.716	-0.026	0.041
-556.456	-200.000	0.006	-0.228
-555.442	204.197	0.155	-0.241
-554.427	-110.138	-0.164	0.034
-553.412	594.323	0.052	0.129
-552.398	-200.000	-0.037	-0.168
-551.383	303.789	-0.070	-0.131
-550.369	9.181	0.423	-0.320
-549.354	-84.160	-0.343	-0.109
-548.339	-84.644	-0.288	-0.091
-547.325	666.725	-0.140	0.363
-546.310	800.000	-0.114	0.355
-545.296	-54.999	-0.165	0.075
-544.281	-200.000	-0.062	-0.290
-543.266	-200.000	-0.003	-0.036
-542.252	408.169	-0.225	-0.476
-541.237	-1.372	-0.154	-0.109
-540.223	-12.668	-0.131	-0.085
-539.208	800.000	-0.091	-0.301
-538.193	-168.424	0.167	0.006
-537.179	-76.162	0.265	-0.094
-536.164	-61.435	0.191	0.080
-535.150	-38.954	-0.152	-0.080
-534.135	76.946	0.095	-0.101
-533.121	53.964	-0.019	-0.018
-532.106	-200.000	0.067	-0.411
-531.091	-200.000	0.040	-0.194
-530.077	-130.653	0.176	-0.024
-529.062	-200.000	0.010	-0.074
-528.048	-37.372	-0.097	0.052
-527.033	59.109	-0.083	0.082
-526.018	31.535	-0.196	-0.169
-525.004	387.025	-0.222	-0.460
-523.989	424.173	-0.056	0.120
-522.975	-94.750	0.321	0.087
-521.960	-49.881	-0.370	0.176
-520.945	-35.770	0.199	-0.108
-519.931	3.304	-0.081	-0.059
-518.916	3.112	-0.296	0.215
-517.902	-86.871	0.122	-0.037
-516.887	6.339	-0.091	-0.068
-515.872	-200.000	0.010	0.141
-514.858	39.539	0.190	-0.170
-513.843	31.098	-0.197	0.169
-512.829	-200.000	-0.030	0.153
-511.814	-70.765	-0.278	0.105
-510.799	131.198	-0.135	-0.174
-509.785	-200.000	-0.001	-0.348
-508.770	-34.012	0.091	0.050
-507.756	7.178	0.070	0.052
-506.741	38.598	0.250	-0.223
-505.726	431.198	0.134	0.291
-504.712	-18.105	0.239	-0.150
-503.697	35.709	0.264	-0.232
-502.683	41.400	-0.218	0.197
-501.668	671.526	0.120	0.310
-500.653	12.088	0.088	0.068
-499.639	-93.746	0.153	0.042
-498.624	86.294	-0.266	0.294
-497.610	-136.919	-0.298	0.034
-496.595	-200.000	-0.021	-0.108
-495.581	150.187	0.105	-0.143
-494.566	-23.492	0.291	0.175
-493.551	166.649	-0.310	0.440
-492.537	265.305	0.086	0.150
-491.522	-45.592	0.215	0.106
-490.508	-5.730	-0.271	-0.186
-489.493	-200.000	0.001	-0.063
-488.478	227.314	-0.049	0.079
-487.464	-200.000	-0.005	-0.110
-486.449	-146.903	0.011	0.001
-485.435	69.422	-0.083	0.086
-484.420	-130.500	0.341	-0.046
-483.405	261.674	0.145	-0.251
-482.391	-78.668	-0.191	0.065
-481.376	-173.143	0.164	-0.005
-480.362	-125.692	-0.453	-0.069
-479.347	483.743	-0.032	0.073
-478.332	69.446	0.278	0.286
-477.318	92.226	-0.118	-0.133
-476.303	-130.400	-0.122	0.017
-475.289	-137.904	0.233	0.026
-474.274	156.072	-0.209	-0.287
-473.259	20.430	-0.274	-0.222
-472.245	-189.859	-0.147	0.002
-471.230	112.404	0.079	-0.095
-470.216	36.538	-0.059	0.052
-469.201	-108.727	0.387	0.083
-468.186	-132.180	-0.271	0.035
-467.172	-109.288	0.211	-0.045
-466.157	-80.113	-0.131	-0.044
-465.143	-104.799	0.258	0.059
-464.128	-126.084	0.389	-0.058
-463.113	-80.359	-0.080	-0.027
-462.099	-200.000	-0.043	-0.201
-461.084	-124.411	0.104	-0.016
-460.070	-164.655	-0.197	-0.009
-459.055	135.168	0.173	0.224
-458.040	-72.636	0.260	-0.096
-457.026	-65.066	0.304	0.122
-456.011	-64.860	-0.167	0.067
-454.997	800.000	0.183	0.512
-453.982	87.048	-0.136	0.151
-452.968	-200.000	-0.032	0.303
-451.953	-110.501	0.253	-0.052
-450.938	363.129	-0.053	-0.106
-449.924	138.303	0.085	-0.111
-448.909	800.000	-0.016	0.051
-447.895	-147.731	0.174	-0.015
-446.880	110.903	-0.156	0.187
-445.865	-85.544	-0.142	-0.044
-444.851	31.066	-0.241	-0.206
-443.836	-200.000	-0.019	-0.201
-442.822	-200.000	0.024	-0.259
-441.807	192.935	-0.104	0.157
-440.792	-13.519	-0.028	0.018
-439.778	-199.505	0.165	-0.001
-438.763	51.672	0.193	-0.183
-437.749	-200.000	-0.066	-0.383
-436.734	251.034	-0.208	-0.353
-435.719	-67.867	-0.255	0.100
-434.705	263.798	-0.163	-0.282
-433.690	627.935	0.110	-0.278
-432.676	408.674	0.051	0.108
-431.661	-54.461	-0.158	-0.071
-430.646	-129.813	0.326	-0.045
-429.632	-92.789	-0.189	0.053
-428.617	33.479	-0.268	-0.232
-427.603	-152.540	0.073	0.005
-426.588	529.820	0.135	0.317
-425.573	-99.338	0.233	-0.059
-424.559	191.953	0.119	-0.179
-423.544	224.917	0.135	-0.218
-422.530	141.199	-0.036	-0.048
-421.515	313.213	0.133	-0.249
-420.500	166.192	0.120	-0.170
-419.486	350.783	0.122	0.240
-418.471	275.372	-0.045	-0.079
-417.457	-94.404	-0.078	0.021
-416.442	102.652	0.105	0.122
-415.428	43.820	-0.165	-0.150
-414.413	-121.694	-0.088	-0.015
-413.398	800.000	0.055	0.156
-412.384	-70.029	0.177	0.067
-411.369	-101.443	-0.120	-0.029
-410.355	-152.168	0.352	0.025
-409.340	46.730	0.035	0.032
-408.325	-200.000	-0.002	0.356
-407.311	-180.583	-0.114	-0.002
-406.296	261.014	0.099	0.170
-405.282	145.959	-0.046	0.061
-404.267	800.000	-0.145	-0.430
-403.252	63.702	0.053	-0.053
-402.238	-200.000	0.005	-0.289
-401.223	80.922	-0.185	-0.199
-400.209	-106.860	-0.121	0.027
-399.194	151.766	0.049	-0.067
-398.179	214.627	0.009	0.014
-397.165	-147.393	0.125	-0.011
-396.150	579.787	0.098	-0.238
-395.136	-55.235	0.085	-0.038
-394.121	485.761	-0.224	0.508
-393.106	536.217	0.058	0.138
-392.092	405.009	0.106	0.223
-391.077	-200.000	-0.010	-0.247
-390.063	56.192	-0.080	0.078
-389.048	800.000	0.038	0.161
-388.033	194.385	-0.089	0.134
-387.019	-66.628	-0.108	-0.043
-386.004	-16.461	0.131	-0.083
-384.990	30.200	-0.302	-0.256
-383.975	96.556	0.098	0.112
-382.960	130.651	0.107	-0.137
-381.946	-75.743	-0.036	-0.013
-380.931	24.103	-0.221	0.182
-379.917	293.071	-0.138	-0.251
-378.902	-71.226	-0.351	0.131
-377.888	5.195	-0.213	-0.156
-376.873	-30.868	0.233	-0.131
-375.858	649.244	-0.048	-0.121
-374.844	-130.168	0.170	0.023
-373.829	35.029	-0.114	-0.099
-372.815	-200.000	0.058	0.350
-371.800	-51.196	0.247	-0.115
-370.785	-200.000	0.020	-0.198
-369.771	15.220	0.056	-0.043
-368.756	-121.062	-0.205	-0.034
-367.742	-52.629	0.296	-0.136
-366.727	-164.439	0.174	0.008
-365.712	156.016	0.040	-0.055
-364.698	800.000	0.127	-0.365
-363.683	-105.368	-0.218	0.049
-362.669	106.239	0.154	-0.182
-361.654	59.403	-0.156	0.153
-360.639	277.633	-0.036	-0.063
-359.625	-148.479	0.115	0.009
-358.610	-36.874	0.086	-0.046
-357.596	-5.398	0.274	-0.187
-356.581	-168.976	-0.129	0.005
-355.566	16.349	0.198	0.156
-354.552	459.178	-0.006	0.014
-353.537	-200.000	-0.060	-0.303
-352.523	107.303	-0.076	0.089
-351.508	-60.893	0.176	0.074
-350.493	150.705	-0.099	0.134
-349.479	513.911	-0.022	0.050
-348.464	-105.113	0.410	-0.093
-347.450	-200.000	-0.054	-0.321
-346.435	-200.000	0.052	-0.276
-345.420	-78.759	-0.165	0.056
-344.406	590.682	-0.075	-0.183
-343.391	-200.000	-0.053	0.367
-342.377	527.795	-0.140	0.327
-341.362	-106.756	0.271	0.060
-340.348	-75.156	-0.165	0.059
-339.333	-16.598	0.101	-0.063
-338.318	-200.000	-0.074	0.598
-337.304	800.000	0.103	0.408
-336.289	43.486	-0.056	-0.051
-335.275	42.941	-0.129	0.117
-334.260	-76.867	-0.170	-0.059
-333.245	800.000	-0.072	-0.263
-332.231	79.282	-0.233	-0.249
-331.216	-200.000	0.014	0.134
-330.202	98.524	0.100	0.114
-329.187	800.000	-0.056	0.226
-328.172	-200.000	-0.019	0.289
-327.158	589.918	0.162	0.396
-326.143	120.551	0.170	-0.210
-325.129	-200.000	-0.042	0.188
-324.114	-200.000	-0.001	-0.309
-323.099	-18.322	-0.354	0.220
-322.085	-123.947	0.155	0.024
-321.070	507.292	-0.065	0.150
-320.056	-156.597	0.265	-0.016
-319.041	-24.641	0.169	0.100
-318.026	800.000	-0.035	-0.102
-317.012	-200.000	0.039	-0.250
-315.997	632.542	0.066	-0.167
-314.983	27.795	0.093	0.077
-313.968	14.592	0.143	0.111
-312.953	138.651	0.139	-0.181
-311.939	211.185	-0.055	0.087
-310.924	800.000	0.014	-0.051
-309.910	-200.000	-0.011	-0.533
-308.895	112.021	-0.033	-0.039
-307.880	-121.221	-0.107	0.018
-306.866	83.950	0.113	-0.123
-305.851	7.274	0.107	-0.079
-304.837	93.829	0.155	0.174
-303.822	800.000	-0.115	0.363
-302.807	-76.764	-0.211	0.073
-301.793	-78.436	0.178	0.061
-300.778	800.000	0.111	-0.390
-299.764	-86.182	0.346	-0.106
-298.749	21.061	0.200	0.161
-297.735	800.000	-0.029	0.120
-296.720	412.940	0.091	-0.191
-295.705	128.060	0.075	0.094
-294.691	92.194	-0.044	-0.049
-293.676	-166.700	-0.095	0.004
-292.662	414.703	-0.211	0.445
-291.647	-200.000	-0.012	0.247
-290.632	-54.279	-0.115	0.052
-289.618	-200.000	0.003	0.080
-288.603	-98.463	-0.190	-0.048
-287.589	800.000	0.014	-0.057
-286.574	-103.298	0.147	0.034
-285.559	-38.366	-0.160	-0.084
-284.545	-81.461	-0.039	0.013
-283.530	-200.000	0.031	0.440
-282.516	-12.096	-0.044	0.029
-281.501	379.250	-0.136	0.277
-280.486	-31.882	0.166	0.092
-279.472	800.000	0.097	-0.278
-278.457	106.222	-0.248	0.291
-277.443	3.546	0.243	-0.176
-276.428	-66.721	0.270	0.106
-275.413	80.320	-0.058	-0.062
-274.399	-91.052	-0.304	-0.087
-273.384	100.199	-0.095	-0.110
-272.370	53.332	0.160	0.152
-271.355	-200.000	-0.028	-0.188
-270.340	-21.452	-0.076	-0.046
-269.326	800.000	-0.040	-0.162
-268.311	-200.000	-0.016	-0.458
-267.297	-73.358	0.235	-0.085
-266.282	-200.000	0.091	-0.474
-265.267	800.000	-0.037	-0.143
-264.253	-200.000	-0.056	-0.305
-263.238	136.235	0.208	0.269
-262.224	-54.969	0.103	0.046
-261.209	-94.781	0.273	-0.074
-260.195	-55.774	-0.282	-0.125
-259.180	-200.000	0.009	0.136
-258.165	-71.256	0.251	-0.093
-257.151	-129.648	-0.177	-0.024
-256.136	-30.514	0.218	-0.122
-255.122	78.908	-0.216	0.229
-254.107	-104.486	0.114	0.026
-253.092	-64.364	0.404	0.163
-252.078	482.321	-0.079	-0.178
-251.063	9.299	-0.172	0.129
-250.049	-72.805	-0.261	0.095
-249.034	94.119	0.071	0.079
-248.019	800.000	-0.053	0.194
-247.005	224.959	-0.028	0.045
-245.990	-140.516	-0.166	0.017
-244.976	-70.513	0.226	0.085
-243.961	-200.000	0.003	0.238
-242.946	42.770	-0.113	0.102
-241.932	450.570	0.073	0.159
-240.917	670.754	0.051	0.130
-239.903	800.000	0.059	0.236
-238.888	-49.369	-0.075	0.036
-237.873	271.467	0.113	-0.197
-236.859	-200.000	-0.020	-0.210
-235.844	-114.789	-0.560	0.106
-234.830	-13.012	0.320	0.206
-233.815	-103.290	-0.261	0.061
-232.800	-92.140	0.125	-0.035
-231.786	2.257	0.155	-0.111
-230.771	800.000	-0.060	0.217
-229.757	800.000	0.044	0.172
-228.742	30.624	0.265	-0.224
-227.727	-15.295	-0.294	0.186
-226.713	-39.170	0.252	0.131
-225.698	138.990	0.052	0.068
-224.684	-7.819	0.186	-0.124
-223.669	-104.843	-0.320	-0.073
-222.655	424.061	-0.074	0.157
-221.640	-16.720	-0.161	-0.101
-220.625	-64.961	0.305	-0.122
-219.611	-200.000	-0.048	-0.275
-218.596	-28.115	-0.057	0.032
-217.582	-9.476	-0.116	-0.077
-216.567	800.000	0.025	0.085
-215.552	382.489	-0.122	0.248
-214.538	89.425	-0.305	0.336
-213.523	655.858	0.078	-0.199
-212.509	-62.870	-0.390	0.159
-211.494	-63.170	-0.281	-0.115
-210.479	-200.000	-0.009	-0.050
-209.465	-200.000	0.010	0.296
-208.450	-200.000	0.070	0.391
-207.436	-96.537	0.305	0.080
-206.421	6.830	0.109	-0.080
-205.406	-200.000	-0.029	-0.418
-204.392	37.062	0.220	-0.192
-203.377	-182.725	-0.101	0.002
-202.363	6.039	-0.085	-0.063
-201.348	68.267	-0.128	-0.130
-200.333	-200.000	-0.004	0.246
-199.319	-49.471	-0.104	0.049
-198.304	-58.996	0.036	0.015
-197.290	-200.000	-0.038	0.378
-196.275	316.413	0.087	0.162
-195.260	-169.498	0.157	0.006
-194.246	276.424	-0.093	-0.163
-193.231	800.000	0.017	0.059
-192.217	41.105	0.098	-0.087
-191.202	31.687	0.159	0.135
-190.187	61.602	-0.180	0.177
-189.173	-126.793	0.143	0.021
-188.158	241.472	0.192	-0.317
-187.144	95.305	0.183	0.206
-186.129	-91.391	-0.058	0.016
-185.114	111.661	0.164	-0.195
-184.100	-47.015	-0.118	-0.057
-183.085	-104.862	-0.305	0.069
-182.071	24.940	-0.254	-0.208
-181.056	800.000	0.067	0.195
-180.042	174.040	0.175	0.249
-179.027	106.520	-0.105	0.123
-178.012	-200.000	-0.017	-0.281
-176.998	11.678	-0.075	0.057
-175.983	-126.546	-0.198	0.029
-174.969	-200.000	-0.027	0.129
-173.954	47.410	-0.043	0.040
-172.939	-93.557	0.090	0.025
-171.925	303.490	-0.119	-0.218
-170.910	-200.000	-0.074	-0.453
-169.896	-183.016	0.247	0.004
-168.881	94.902	-0.122	0.137
-167.866	61.910	-0.208	-0.204
-166.852	-200.000	-0.004	0.136
-165.837	176.919	0.151	-0.217
-164.823	646.768	0.058	0.146
-163.808	3.274	-0.025	-0.018
-162.793	48.707	0.146	-0.135
-161.779	369.786	-0.027	-0.054
-160.764	-29.005	0.334	-0.189
-159.750	163.275	-0.196	-0.272
-158.735	-98.256	-0.409	0.104
-157.720	-200.000	0.009	-0.156
-156.706	-50.826	0.198	0.092
-155.691	-200.000	-0.002	0.180
-154.677	-152.088	0.089	0.006
-153.662	-28.398	0.184	-0.105
-152.647	130.534	-0.088	-0.111
-151.633	41.466	-0.111	0.099
-150.618	336.973	-0.161	-0.308
-149.604	800.000	0.056	0.228
-148.589	-200.000	0.016	0.153
-147.574	61.536	-0.185	0.182
-146.560	-94.966	-0.307	-0.082
-145.545	23.465	0.217	0.176
-144.531	800.000	-0.058	0.249
-143.516	-120.381	0.345	0.058
-142.502	2.107	-0.213	-0.152
-141.487	-117.724	-0.317	-0.056
-140.472	-147.948	-0.158	0.013
-139.458	29.194	-0.207	0.174
-138.443	-200.000	-0.018	-0.235
-137.429	-115.133	-0.140	-0.026
-136.414	558.740	-0.151	-0.360
-135.399	-104.371	0.190	-0.043
-134.385	-22.337	-0.103	0.061
-133.370	165.071	-0.181	0.251
-132.356	124.822	-0.035	0.044
-131.341	194.248	0.101	0.151
-130.326	260.159	-0.049	0.084
-129.312	-41.562	0.065	0.033
-128.297	-61.872	0.348	0.143
-127.283	-200.000	0.030	0.191
-126.268	-107.917	0.087	0.019
-125.253	587.672	-0.150	-0.363
-124.239	-200.000	0.048	0.502
-123.224	161.752	-0.283	-0.391
-122.210	87.200	0.265	-0.289
-121.195	70.549	-0.095	-0.097
-120.180	-120.220	0.286	-0.048
-119.166	415.493	-0.119	0.249
-118.151	-99.571	-0.087	-0.022
-117.137	-92.268	-0.172	-0.048
-116.122	800.000	0.094	-0.258
-115.107	-70.699	0.261	-0.097
-114.093	800.000	-0.015	-0.061
-113.078	232.230	0.288	-0.465
-112.064	800.000	0.058	0.201
-111.049	-200.000	0.042	0.221
-110.034	-31.209	-0.106	0.059
-109.020	-85.346	-0.085	0.026
-108.005	800.000	0.047	-0.141
-106.991	-200.000	0.047	-0.233
-105.976	58.283	0.156	-0.151
-104.962	-68.027	0.313	0.120
-103.947	-200.000	-0.040	0.308
-102.932	800.000	0.047	0.147
-101.918	363.860	-0.087	0.171
-100.903	-178.709	0.390	0.009
-99.889	800.000	-0.119	-0.334
-98.874	-141.197	-0.270	-0.027
-97.859	-200.000	0.012	-0.230
-96.845	-200.000	-0.054	0.248
-95.830	800.000	-0.024	-0.094
-94.816	180.147	-0.179	-0.258
-93.801	89.060	-0.171	-0.188
-92.786	-200.000	-0.045	0.259
-91.772	776.862	0.057	0.153
-90.757	-86.993	-0.157	0.047
-89.743	168.576	0.108	-0.152
-88.728	30.190	0.096	0.081
-87.713	61.725	-0.190	0.186
-86.699	-190.705	-0.294	-0.003
-85.684	32.280	0.174	0.148
-84.670	-117.039	-0.277	0.050
-83.655	181.387	-0.260	-0.377
-82.640	281.038	-0.138	-0.242
-81.626	-113.490	0.215	-0.041
-80.611	-200.000	0.023	0.120
-79.597	388.723	-0.064	-0.130
-78.582	-51.725	0.114	0.052
-77.567	-21.975	-0.093	0.056
-76.553	135.100	-0.083	-0.107
-75.538	36.705	0.150	-0.130
-74.524	-19.740	0.185	-0.113
-73.509	-73.500	-0.242	-0.087
-72.494	727.950	0.069	0.180
-71.480	-200.000	-0.023	0.253
-70.465	215.640	-0.034	-0.053
-69.451	-51.751	0.108	0.049
-68.436	-7.154	0.189	0.126
-67.422	-136.421	0.170	-0.019
-66.407	-17.247	-0.213	-0.132
-65.392	800.000	-0.103	-0.305
-64.378	115.635	-0.133	0.161
-63.363	-124.810	0.312	-0.047
-62.349	-119.752	-0.238	-0.040
-61.334	5.782	-0.962	-0.699
-60.319	274.288	0.345	0.600
-59.305	-200.000	-0.094	-0.632
-58.290	86.619	0.869	0.942
-57.276	800.000	0.534	1.474
-56.261	-200.000	96.360	598.199
-55.246	558.361	1369.066	3246.434
-54.232	162.158	2547.154	3508.566
-53.217	113.159	2133.871	2543.495
-52.203	43.509	1596.692	1434.715
-51.188	35.259	1333.385	1148.886
-50.173	31.899	1292.230	1093.822
-49.159	54.303	1339.773	1267.524
-48.144	56.533	1356.246	1296.281
-47.130	35.308	1315.382	1133.483
-46.115	31.869	1297.881	1098.258
-45.100	31.612	1292.659	1092.297
-44.086	31.656	1289.705	1090.014
-43.071	31.555	1287.813	1087.785
-42.057	31.466	1286.274	1085.923
-41.042	31.610	1284.156	1084.927
-40.027	31.727	1282.420	1084.094
-39.013	31.588	1281.272	1082.279
-37.998	31.718	1278.776	1080.874
-36.984	31.561	1277.561	1078.901
-35.969	31.637	1275.510	1077.566
-34.954	31.740	1273.627	1076.523
-33.940	31.857	1272.328	1076.054
-32.925	31.706	1271.384	1074.348
-31.911	31.681	1269.650	1072.697
-30.896	31.839	1268.154	1072.291
-29.881	31.878	1267.030	1071.521
-28.867	31.842	1265.128	1069.668
-27.852	31.841	1263.901	1068.579
-26.838	31.868	1262.707	1067.680
-25.823	31.923	1260.931	1066.449
-24.809	31.765	1260.223	1064.911
-23.794	31.850	1258.444	1063.850
-22.779	31.758	1257.588	1062.563
-21.765	31.828	1256.091	1061.650
-20.750	31.770	1255.166	1060.497
-19.736	31.677	1253.608	1058.615
-18.721	31.520	1252.860	1057.050
-17.706	31.720	1251.266	1056.792
-16.692	31.546	1250.249	1054.915
-15.677	31.514	1249.117	1053.735
-14.663	31.690	1247.659	1053.453
-13.648	31.538	1246.697	1051.746
-12.633	31.648	1245.810	1051.571
-11.619	31.601	1244.960	1050.552
-10.604	31.618	1244.485	1050.204
-9.590	31.481	1243.210	1048.318
-8.575	31.570	1242.123	1047.860
-7.560	31.667	1241.149	1047.537
-6.546	31.600	1240.566	1046.632
-5.531	31.551	1239.396	1045.327
-4.517	31.576	1238.638	1044.788
-3.502	31.491	1238.271	1043.958
-2.487	31.689	1236.830	1043.806
-1.473	31.606	1233.056	1040.117
-0.458	30.399	1218.263	1020.972
0.556	27.418	1201.124	985.377
1.571	24.140	1207.540	972.686
2.586	23.480	1222.779	981.220
3.600	22.937	1212.051	969.548
4.615	16.570	1138.908	878.017
5.629	6.491	1062.683	770.141
6.644	2.287	1042.871	735.521
7.659	1.864	1040.489	731.747
8.673	1.808	1039.407	730.655
9.688	1.672	1038.033	728.973
10.702	2.024	1036.401	729.444
11.717	8.085	1044.858	764.471
12.731	18.356	1059.586	824.898
13.746	23.959	1066.098	856.969
14.761	25.095	1067.650	863.614
15.775	25.151	1067.698	863.848
16.790	24.960	1066.373	861.783
17.804	25.143	1065.193	861.632
18.819	25.049	1065.381	861.253
19.834	25.166	1065.270	861.653
20.848	25.285	1064.560	861.570
21.863	25.232	1064.257	860.997
22.877	25.218	1063.592	860.314
23.892	25.206	1062.773	859.520
24.907	25.205	1062.314	859.065
25.921	25.133	1060.856	857.468
26.936	25.032	1059.929	856.160
27.950	24.997	1058.385	854.669
28.965	24.905	1056.744	852.830
29.980	25.180	1054.624	852.353
30.994	25.209	1053.994	851.904
32.009	25.210	1052.757	850.836
33.023	25.042	1051.764	849.160
34.038	25.061	1051.494	848.955
35.053	25.222	1050.867	849.139
36.067	25.203	1049.824	848.130
37.082	25.293	1049.292	848.049
38.096	25.511	1048.410	848.294
39.111	25.468	1047.818	847.533
40.126	25.343	1045.528	845.017
41.140	24.909	1044.437	842.020
42.155	24.648	1043.211	839.735
43.169	24.816	1042.641	839.987
44.184	24.758	1041.811	838.974
45.199	24.722	1040.668	837.811
46.213	24.840	1039.532	837.373
47.228	24.988	1039.247	837.761
48.242	25.089	1037.468	836.724
49.257	25.101	1037.674	836.875
50.271	25.225	1036.709	836.601
51.286	25.158	1036.209	835.808
52.301	25.411	1034.523	835.555
53.315	25.222	1033.758	833.983
54.330	25.065	1033.460	832.939
55.344	25.188	1032.389	832.571
56.359	25.125	1031.696	831.648
57.374	25.066	1030.081	829.997
58.388	25.083	1029.280	829.358
59.403	24.920	1028.734	828.092
60.417	24.747	1027.812	826.477
61.432	24.721	1027.736	826.223
62.447	24.941	1026.865	826.463
63.461	25.044	1025.976	826.150
64.476	24.946	1024.969	824.817
65.490	24.718	1024.186	823.065
66.505	24.849	1023.252	822.843
67.520	24.928	1022.973	822.908
68.534	24.582	1021.862	820.354
69.549	24.413	1020.350	818.292
70.563	24.423	1019.728	817.767
71.578	24.368	1019.120	816.958
72.593	24.238	1017.954	815.352
73.607	24.518	1017.291	816.031
74.622	24.708	1017.227	816.777
75.636	24.658	1016.635	815.998
76.651	24.661	1015.596	815.108
77.666	24.625	1014.604	814.073
78.680	24.508	1014.448	813.345
79.695	24.792	1013.391	813.715
80.709	24.794	1013.285	813.567
81.724	24.807	1012.408	812.853
82.739	24.798	1011.976	812.393
83.753	25.153	1010.908	813.072
84.768	25.381	1010.415	813.635
85.782	25.512	1009.337	813.288
86.797	25.312	1009.061	812.089
87.812	25.237	1007.780	810.648
88.826	25.413	1006.667	810.475
89.841	25.595	1005.762	810.495
90.855	25.490	1004.751	809.136
91.870	25.526	1004.088	808.692
92.884	25.344	1002.934	806.876
93.899	25.248	1002.048	805.660
94.914	25.448	1001.327	805.907
95.928	25.285	1000.029	804.060
96.943	25.040	999.336	802.334
97.957	24.859	998.042	800.418
98.972	24.642	996.810	798.388
99.987	24.929	996.000	798.949
101.001	25.125	995.623	799.450
102.016	25.144	994.513	798.573
103.030	25.084	993.815	797.674
104.045	24.876	993.149	796.145
105.060	24.807	991.973	794.822
106.074	24.983	991.571	795.215
107.089	25.256	990.867	795.788
108.103	25.060	990.000	794.154
109.118	24.977	987.991	792.104
110.133	24.906	987.351	791.207
111.147	24.714	986.241	789.400
112.162	24.591	985.328	788.056
113.176	24.958	984.786	789.173
114.191	24.740	984.205	787.678
115.206	24.486	982.643	785.241
116.220	24.445	982.109	784.562
117.235	24.625	981.385	784.704
118.249	24.696	980.488	784.230
119.264	24.565	979.701	782.958
120.279	24.633	978.873	782.524
121.293	24.781	978.270	782.619
122.308	24.648	977.272	781.173
123.322	24.485	976.404	779.697
124.337	24.428	975.108	778.343
125.352	23.914	973.305	774.598
126.366	23.753	972.753	773.388
127.381	24.494	972.710	776.512
128.395	25.105	971.994	778.524
129.410	25.218	971.078	778.213
130.424	25.038	970.229	776.682
131.439	25.029	969.451	775.953
132.454	25.026	968.251	774.912
133.468	25.064	967.475	774.387
134.483	25.133	966.751	774.035
135.497	25.306	966.292	774.347
136.512	25.292	965.505	773.588
137.527	25.412	964.674	773.369
138.541	25.272	963.983	772.145
139.556	25.316	963.226	771.657
140.570	25.397	962.841	771.630
141.585	25.496	961.178	770.655
142.600	25.341	960.516	769.389
143.614	25.521	960.339	769.953
144.629	25.677	958.907	769.401
145.643	25.522	957.666	767.677
146.658	25.477	955.794	765.915
147.673	25.217	955.222	764.282
148.687	25.170	954.405	763.364
149.702	25.197	952.843	762.161
150.716	25.102	952.149	761.134
151.731	25.215	951.815	761.279
152.746	25.440	951.410	761.843
153.760	25.512	950.705	761.513
154.775	25.642	949.936	761.381
155.789	25.581	949.270	760.525
156.804	25.545	948.207	759.450
157.819	25.557	947.048	758.509
158.833	25.706	947.044	759.063
159.848	25.762	945.643	758.111
160.862	25.432	944.690	755.892
161.877	25.531	943.443	755.244
162.892	25.497	942.970	754.654
163.906	25.631	941.347	753.850
164.921	25.553	940.843	753.052
165.935	25.560	940.147	752.458
166.950	25.617	938.896	751.629
167.964	25.392	938.672	750.445
168.979	25.465	937.119	749.439
169.994	25.267	936.168	747.788
171.008	25.503	936.017	748.586
172.023	25.604	935.163	748.256
173.037	25.395	934.316	746.642
174.052	25.305	933.194	745.308
175.067	25.168	932.455	744.083
176.081	25.331	932.182	744.472
177.096	25.381	931.302	743.913
178.110	25.048	930.250	741.631
179.125	24.921	929.465	740.414
180.140	24.891	929.525	740.272
181.154	25.029	929.168	740.493
182.169	25.575	928.747	742.343
183.183	25.628	928.045	741.935
184.198	25.496	927.196	740.649
185.213	25.343	926.637	739.507
186.227	25.536	926.027	739.749
187.242	25.388	925.841	738.926
188.256	25.497	925.206	738.803
189.271	25.659	924.043	738.474
190.286	25.409	922.629	736.251
191.300	24.512	921.790	731.842
192.315	23.883	919.623	727.486
193.329	23.790	919.634	727.049
194.344	24.832	919.970	731.513
195.359	25.331	920.401	733.832
196.373	25.425	919.391	733.345
197.388	25.346	919.070	732.700
198.402	25.400	918.361	732.290
199.417	25.521	917.465	732.004
200.432	25.135	916.604	729.683
201.446	25.087	916.094	729.016
202.461	25.073	915.216	728.198
203.475	24.204	913.583	723.308
204.490	23.461	912.311	719.224
205.504	24.329	912.820	723.081
206.519	25.049	912.363	725.571
207.534	25.022	912.021	725.127
208.548	25.514	911.527	726.659
209.563	25.255	910.595	724.806
210.577	25.326	910.107	724.639
211.592	25.667	909.969	725.842
212.607	25.642	908.968	724.876
213.621	25.820	908.188	724.909
214.636	25.647	907.702	723.759
215.650	25.540	906.802	722.549
216.665	25.719	906.412	722.895
217.680	25.569	905.519	721.516
218.694	25.156	904.721	719.161
219.709	25.103	903.998	718.309
220.723	25.192	903.610	718.294
221.738	25.504	902.750	718.793
222.753	25.390	902.541	718.109
223.767	25.446	902.189	717.986
224.782	25.744	901.648	718.685
225.796	25.657	900.956	717.723
226.811	24.904	899.350	713.380
227.826	24.360	898.389	710.389
228.840	24.565	897.807	710.681
229.855	24.798	897.162	711.033
230.869	24.227	895.934	707.732
231.884	24.742	896.088	709.836
232.899	25.348	896.260	712.313
233.913	25.343	895.286	711.456
234.928	25.288	895.056	710.994
235.942	25.222	894.342	710.103
236.957	25.019	893.302	708.410
237.972	24.968	893.004	707.909
238.986	25.095	892.222	707.730
240.001	25.171	891.599	707.473
241.015	25.267	890.881	707.219
242.030	25.339	890.579	707.200
243.045	25.371	890.223	706.977
244.059	25.539	889.907	707.328
245.074	25.332	888.923	705.668
246.088	25.098	887.858	703.844
247.103	25.380	887.630	704.707
248.117	25.819	887.893	706.573
249.132	26.027	887.518	707.029
250.147	26.271	886.632	707.216
251.161	26.378	886.331	707.334
252.176	26.225	885.896	706.323
253.190	26.331	885.090	706.032
254.205	26.509	884.851	706.475
255.220	26.607	884.262	706.326
256.234	26.324	883.450	704.511
257.249	26.395	882.427	703.909
258.263	26.267	881.758	702.814
259.278	26.225	881.273	702.203
260.293	26.268	880.985	702.078
261.307	26.343	880.068	701.575
262.322	26.127	879.252	700.026
263.336	25.290	877.471	695.304
264.351	24.281	875.696	689.934
265.366	24.424	875.470	690.250
266.380	25.558	876.121	695.089
267.395	26.000	875.506	696.245
268.409	25.803	874.870	694.917
269.424	26.189	874.158	695.779
270.439	26.161	873.931	695.428
271.453	26.181	873.550	695.140
272.468	26.388	873.108	695.526
273.482	26.324	872.549	694.769
274.497	25.891	871.300	692.053
275.512	25.636	870.158	690.106
276.526	26.027	870.687	691.966
277.541	26.174	870.168	692.056
278.555	25.860	869.108	689.946
279.570	25.720	868.917	689.199
280.585	25.961	867.896	689.250
281.599	25.987	867.353	688.857
282.614	25.221	866.163	684.927
283.628	25.254	865.498	684.466
284.643	25.658	865.445	685.906
285.657	25.283	864.061	683.321
286.672	25.010	863.596	681.852
287.687	25.569	863.042	683.482
288.701	25.718	862.754	683.759
289.716	25.379	861.510	681.425
290.730	25.372	861.132	681.041
291.745	25.161	859.864	679.177
292.760	25.364	860.195	680.150
293.774	26.301	860.710	684.042
294.789	26.707	860.418	685.288
295.803	26.833	859.741	685.164
296.818	26.748	859.025	684.211
297.833	26.186	858.114	681.306
298.847	26.036	857.454	680.156
299.862	26.417	857.282	681.396
300.876	26.714	856.969	682.202
301.891	26.674	856.153	681.345
302.906	26.169	855.142	678.583
303.920	26.166	855.144	678.512
304.935	26.627	854.910	679.997
305.949	26.561	854.270	679.182
306.964	26.353	853.075	677.393
307.979	26.423	852.912	677.465
308.993	26.807	852.685	678.662
310.008	26.914	851.817	678.310
311.022	26.459	851.492	676.292
312.037	26.246	850.962	675.015
313.052	26.168	849.572	673.562
314.066	25.225	848.018	668.755
315.081	24.859	847.884	667.228
316.095	25.689	847.914	670.286
317.110	26.271	847.435	672.011
318.125	25.439	845.846	667.602
319.139	24.415	844.389	662.595
320.154	24.375	843.986	662.072
321.168	25.296	845.043	666.263
322.183	25.946	845.184	668.725
323.197	26.099	844.906	669.012
324.212	26.289	844.361	669.228
325.227	26.318	843.545	668.627
326.241	26.189	843.009	667.666
327.256	26.160	842.252	666.899
328.270	26.021	841.706	665.898
329.285	25.817	840.625	664.229
330.300	25.621	840.109	663.043
331.314	25.907	840.065	664.001
332.329	26.439	839.640	665.565
333.343	26.506	839.285	665.471
334.358	26.536	838.901	665.218
335.373	26.499	838.615	664.798
336.387	26.786	838.457	665.667
337.402	26.964	838.229	666.082
338.416	26.955	837.825	665.666
339.431	27.058	837.425	665.667
340.446	27.099	837.261	665.629
341.460	26.960	836.736	664.644
342.475	26.718	836.313	663.364
343.489	26.929	835.892	663.743
344.504	27.160	835.965	664.588
345.519	27.399	835.178	664.775
346.533	27.366	834.494	664.050
347.548	27.427	833.866	663.713
348.562	27.390	833.695	663.384
349.577	27.218	833.504	662.547
350.592	27.206	832.637	661.756
351.606	27.267	831.552	661.059
352.621	27.015	831.152	659.764
353.635	26.908	830.305	658.647
354.650	26.395	828.700	655.457
355.665	25.470	827.275	650.920
356.679	25.867	827.249	652.282
357.694	26.461	826.559	653.827
358.708	26.356	826.161	653.074
359.723	26.736	825.610	653.953
360.738	27.078	825.689	655.193
361.752	27.044	825.163	654.595
362.767	27.236	825.029	655.123
363.781	27.559	824.874	656.104
364.796	27.641	824.439	655.995
365.810	27.883	823.552	656.101
366.825	27.767	823.255	655.388
367.840	27.413	822.566	653.513
368.854	26.890	821.807	650.974
369.869	26.951	821.308	650.743
370.883	26.814	821.372	650.243
371.898	26.970	820.456	650.020
372.913	27.047	820.308	650.121
373.927	27.181	819.746	650.098
374.942	27.309	819.262	650.113
375.956	27.382	819.121	650.204
376.971	27.472	818.660	650.101
377.986	27.726	818.354	650.707
379.000	27.658	817.486	649.719
380.015	27.360	817.110	648.298
381.029	27.527	816.804	648.593
382.044	27.887	815.740	648.969
383.059	27.785	815.562	648.411
384.073	27.704	814.968	647.591
385.088	27.578	814.343	646.590
386.102	27.418	813.696	645.454
387.117	27.410	812.792	644.652
388.132	27.013	811.512	642.173
389.146	26.427	811.400	639.957
390.161	26.991	811.390	641.886
391.175	27.274	810.913	642.453
392.190	26.829	809.992	640.095
393.205	25.681	807.437	633.978
394.219	24.045	805.981	627.023
395.234	24.026	805.905	626.838
396.248	25.748	807.202	633.862
397.263	27.286	807.613	639.542
398.278	27.278	807.319	639.223
399.292	26.920	806.792	637.493
400.307	26.694	806.730	636.593
401.321	26.969	806.107	637.009
402.336	27.445	805.901	638.459
403.350	27.826	805.770	639.636
404.365	27.974	805.912	640.211
405.380	28.444	805.197	641.231
406.394	28.450	804.691	640.789
407.409	28.218	804.424	639.710
408.423	28.344	804.018	639.771
409.438	28.392	803.900	639.787
410.453	28.309	803.497	639.121
411.467	28.265	802.693	638.273
412.482	28.349	802.129	638.060
413.496	28.571	802.061	638.722
414.511	28.276	801.717	637.365
415.526	28.221	801.349	636.823
416.540	28.300	800.207	636.136
417.555	28.136	799.237	634.738
418.569	27.987	799.296	634.214
419.584	28.081	798.817	634.102
420.599	27.884	798.183	632.860
421.613	111.578	1287.125	1460.565
422.628	96.201	1358.352	1460.677
