DTS Sentinel unit serial number:	SN413079Multiplexer serial number:	ORYXHardware model number:	OX4-SRSoftware version number:	ORYX F/W v4.00 Oryx Data Collector v3.7.2.0data status	okinstallation	princeton_trtdifferential loss correction	single-endedforward channel	channel 1reverse channel	N/Adate	2019/09/12time	02:12:11forward acquisition time	60.00reverse acquisition time	0.00gamma	496.2192k internal	0.2321k external	0.2321temperature offset calibration	1.0077default loss term (dB/km)	0.3790temperature slope calibration	1.0000multiplexer offset coefficient	1.0000multiplexer slope coefficient	1.0000fibre end	0.00T internal ref (°C)	32.69T ext. ref 1 (°C)	2.06T ext. ref 2 (°C)	27.43length (m)	temperature (°C)	Stokes	anti-Stokes-747.200	-146.268	0.193	0.017
-746.185	-200.000	0.021	0.121
-745.171	221.002	0.050	0.082
-744.156	539.305	-0.036	0.086
-743.142	103.464	-0.132	-0.156
-742.127	-200.000	0.004	-0.088
-741.112	278.625	-0.266	0.480
-740.098	-200.000	-0.045	0.366
-739.083	800.000	-0.119	0.369
-738.069	13.566	-0.260	0.204
-737.054	278.019	0.142	0.255
-736.039	356.300	0.088	-0.177
-735.025	144.662	-0.088	0.119
-734.010	-22.932	0.118	-0.072
-732.996	-82.078	-0.316	-0.104
-731.981	4.992	-0.067	0.050
-730.966	-30.375	-0.167	-0.096
-729.952	73.782	-0.309	-0.327
-728.937	118.293	-0.120	0.149
-727.923	-63.766	-0.087	-0.036
-726.908	-131.884	-0.279	-0.037
-725.894	-63.536	-0.418	-0.173
-724.879	-51.832	0.124	0.058
-723.864	309.357	-0.045	-0.084
-722.850	119.193	0.233	-0.291
-721.835	38.611	-0.127	0.115
-720.821	-200.000	-0.015	-0.349
-719.806	-46.453	0.112	0.056
-718.791	-75.527	-0.199	-0.072
-717.777	-200.000	-0.003	0.025
-716.762	800.000	0.063	-0.263
-715.748	-79.297	0.108	0.037
-714.733	3.351	0.150	0.110
-713.718	-141.343	-0.451	0.046
-712.704	-200.000	0.007	0.227
-711.689	74.003	0.083	0.088
-710.675	800.000	0.162	0.533
-709.660	-200.000	-0.047	-0.354
-708.645	-55.528	0.336	-0.152
-707.631	10.129	0.208	0.159
-706.616	-84.325	-0.184	0.059
-705.602	-106.249	-0.435	0.098
-704.587	-81.901	-0.104	-0.034
-703.572	130.636	0.061	-0.078
-702.558	246.503	-0.190	-0.323
-701.543	210.908	0.106	-0.169
-700.529	238.401	-0.135	-0.227
-699.514	174.673	-0.238	-0.348
-698.499	194.434	0.073	-0.112
-697.485	-200.000	-0.036	0.225
-696.470	800.000	0.067	0.213
-695.456	-158.833	0.184	-0.011
-694.441	20.373	0.131	-0.107
-693.426	161.457	-0.194	0.274
-692.412	302.177	-0.080	-0.150
-691.397	14.256	0.215	-0.169
-690.383	-90.493	-0.091	-0.026
-689.368	64.377	0.139	-0.142
-688.354	-200.000	-0.006	0.032
-687.339	255.958	-0.061	-0.106
-686.324	56.591	-0.226	-0.222
-685.310	-21.124	-0.342	0.211
-684.295	472.442	0.041	-0.093
-683.281	8.018	0.158	0.119
-682.266	-110.007	-0.330	-0.070
-681.251	-200.000	-0.012	0.146
-680.237	27.188	0.161	0.136
-679.222	-25.495	0.089	-0.053
-678.208	265.943	0.106	0.187
-677.193	-200.000	-0.057	0.254
-676.178	73.346	-0.052	-0.055
-675.164	-74.053	0.185	0.068
-674.149	343.068	0.047	-0.093
-673.135	43.745	-0.159	0.147
-672.120	32.692	-0.029	-0.025
-671.105	-72.961	-0.142	-0.052
-670.091	-200.000	-0.046	-0.334
-669.076	541.986	-0.078	-0.188
-668.062	-65.107	0.133	0.054
-667.047	329.351	0.111	-0.215
-666.032	800.000	0.030	-0.093
-665.018	110.959	-0.113	-0.137
-664.003	235.631	-0.060	-0.099
-662.989	-200.000	-0.016	-0.142
-661.974	424.355	-0.128	-0.277
-660.959	-110.144	-0.536	0.113
-659.945	-108.716	-0.420	-0.091
-658.930	-117.967	-0.230	-0.041
-657.916	527.865	0.090	-0.215
-656.901	800.000	-0.106	-0.389
-655.886	6.407	0.315	-0.236
-654.872	6.295	0.139	-0.104
-653.857	101.084	0.182	-0.213
-652.843	-68.235	-0.256	0.100
-651.828	800.000	-0.067	0.196
-650.814	702.080	0.062	-0.164
-649.799	90.988	0.084	-0.095
-648.784	21.879	0.192	-0.158
-647.770	86.993	-0.243	-0.271
-646.755	6.905	-0.290	-0.218
-645.741	-200.000	-0.019	0.098
-644.726	182.979	-0.202	-0.300
-643.711	-170.510	0.264	-0.009
-642.697	-200.000	-0.037	0.242
-641.682	-135.449	-0.240	0.029
-640.668	-153.669	-0.316	-0.022
-639.653	375.044	0.253	-0.519
-638.638	149.074	0.081	0.111
-637.624	-200.000	-0.026	-0.355
-636.609	-94.680	0.108	0.030
-635.595	90.303	0.113	0.127
-634.580	-39.319	0.272	-0.144
-633.565	-200.000	-0.035	-0.394
-632.551	-200.000	-0.007	-0.093
-631.536	54.856	-0.154	0.149
-630.522	-139.746	-0.160	0.017
-629.507	-107.561	-0.222	-0.049
-628.492	483.054	-0.130	-0.298
-627.478	-19.440	0.047	0.030
-626.463	-200.000	0.025	0.218
-625.449	-18.375	0.136	-0.085
-624.434	-137.518	0.180	0.020
-623.419	-28.216	0.113	0.066
-622.405	-116.885	-0.601	0.111
-621.390	-200.000	0.026	-0.230
-620.376	-128.292	-0.199	0.029
-619.361	24.220	0.092	0.077
-618.346	800.000	0.057	-0.180
-617.332	-40.390	-0.290	-0.152
-616.317	-122.344	0.110	0.018
-615.303	-123.734	-0.195	0.031
-614.288	-86.999	0.249	0.076
-613.273	-200.000	-0.009	-0.116
-612.259	259.232	0.064	0.111
-611.244	800.000	-0.039	-0.120
-610.230	591.508	0.058	0.145
-609.215	24.090	0.189	0.157
-608.201	-173.623	-0.416	0.013
-607.186	800.000	0.098	-0.353
-606.171	137.253	-0.032	-0.041
-605.157	162.333	-0.050	0.071
-604.142	-21.200	0.161	-0.099
-603.128	-34.431	-0.342	-0.188
-602.113	-152.560	-0.077	0.006
-601.098	501.856	-0.143	-0.332
-600.084	-200.000	-0.006	0.364
-599.069	-200.000	0.035	-0.178
-598.055	773.011	-0.127	-0.348
-597.040	-11.317	0.258	-0.171
-596.025	-200.000	-0.012	0.062
-595.011	-124.235	-0.290	0.046
-593.996	89.414	0.206	-0.231
-592.982	-70.698	-0.083	0.031
-591.967	128.139	-0.057	0.074
-590.952	41.424	0.097	0.088
-589.938	-47.845	-0.231	-0.112
-588.923	-113.634	0.368	-0.072
-587.909	-200.000	0.018	-0.202
-586.894	47.365	-0.233	-0.218
-585.879	184.473	0.104	-0.155
-584.865	127.974	-0.081	-0.104
-583.850	-31.306	0.303	-0.171
-582.836	147.867	-0.257	-0.348
-581.821	-200.000	-0.010	0.216
-580.806	800.000	-0.010	-0.028
-579.792	-67.370	0.394	-0.156
-578.777	-95.391	-0.134	0.036
-577.763	104.699	-0.193	0.229
-576.748	-60.792	-0.103	0.044
-575.733	212.934	0.056	0.089
-574.719	80.882	0.224	-0.243
-573.704	-95.357	-0.099	-0.027
-572.690	519.261	-0.067	0.158
-571.675	800.000	0.096	-0.324
-570.661	-148.476	0.143	0.012
-569.646	-76.160	-0.097	-0.034
-568.631	-78.822	0.248	-0.085
-567.617	73.628	0.158	0.166
-566.602	12.995	-0.164	-0.128
-565.588	-200.000	0.005	0.171
-564.573	83.136	-0.047	0.051
-563.558	-200.000	-0.076	-0.500
-562.544	-200.000	-0.000	-0.342
-561.529	25.150	-0.249	-0.208
-560.515	-200.000	-0.008	-0.424
-559.500	-169.800	-0.195	0.007
-558.485	-66.542	0.072	0.029
-557.471	-64.856	-0.244	0.099
-556.456	352.457	0.125	-0.248
-555.442	-7.745	-0.276	-0.187
-554.427	-82.746	0.323	0.105
-553.412	-38.948	-0.077	0.041
-552.398	194.858	0.103	0.157
-551.383	242.283	0.080	0.135
-550.369	266.401	-0.142	0.249
-549.354	232.192	0.141	0.232
-548.339	72.841	-0.135	0.142
-547.325	-52.578	0.505	0.234
-546.310	-114.249	0.340	-0.066
-545.296	23.389	-0.398	0.328
-544.281	79.806	-0.079	-0.086
-543.266	800.000	0.016	-0.059
-542.252	62.776	-0.204	0.204
-541.237	3.401	-0.260	-0.190
-540.223	270.572	0.096	-0.169
-539.208	0.286	0.051	-0.037
-538.193	9.166	-0.052	-0.039
-537.179	215.060	-0.071	-0.113
-536.164	-40.155	-0.310	0.162
-535.150	-104.314	-0.126	-0.029
-534.135	321.364	-0.066	-0.126
-533.121	-157.302	0.109	0.007
-532.106	249.597	0.051	0.086
-531.091	-143.179	-0.036	0.003
-530.077	-200.000	0.030	0.354
-529.062	92.467	-0.288	0.325
-528.048	85.144	0.125	0.137
-527.033	-47.738	-0.193	0.094
-526.018	450.167	-0.145	0.320
-525.004	8.238	-0.312	-0.235
-523.989	374.190	-0.071	0.144
-522.975	-49.615	-0.147	0.070
-521.960	176.952	0.029	0.043
-520.945	-200.000	-0.048	-0.267
-519.931	-3.490	-0.098	-0.068
-518.916	-119.679	0.237	0.041
-517.902	458.708	0.054	-0.121
-516.887	-101.368	0.068	0.017
-515.872	800.000	-0.052	-0.169
-514.858	35.636	0.117	0.103
-513.843	-56.936	-0.147	0.065
-512.829	800.000	0.078	0.264
-511.814	277.921	-0.036	0.065
-510.799	-200.000	0.005	0.294
-509.785	-6.190	0.133	-0.091
-508.770	800.000	-0.055	0.217
-507.756	-200.000	-0.008	0.376
-506.741	424.327	0.063	0.136
-505.726	83.306	-0.213	-0.233
-504.712	651.365	0.137	0.352
-503.697	-153.907	-0.086	0.006
-502.683	-200.000	0.026	0.264
-501.668	34.051	0.054	-0.047
-500.653	-31.986	-0.186	0.104
-499.639	267.876	-0.159	0.279
-498.624	-10.424	0.149	-0.099
-497.610	274.060	-0.095	0.169
-496.595	-155.726	0.270	-0.017
-495.581	800.000	-0.009	-0.030
-494.566	-125.982	0.440	-0.066
-493.551	9.632	-0.198	0.150
-492.537	2.332	-0.084	-0.061
-491.522	-200.000	0.001	-0.085
-490.508	-200.000	-0.027	-0.165
-489.493	-64.283	-0.227	0.093
-488.478	33.324	0.230	0.200
-487.464	-36.634	0.303	0.163
-486.449	-53.491	-0.308	-0.141
-485.435	32.422	-0.109	-0.094
-484.420	-200.000	-0.106	-0.001
-483.405	127.981	0.092	0.117
-482.391	800.000	0.090	-0.369
-481.376	-103.977	0.082	0.019
-480.362	-181.438	-0.079	-0.002
-479.347	800.000	0.011	0.033
-478.332	45.863	0.034	0.031
-477.318	-16.865	-0.399	-0.252
-476.303	-94.346	-0.240	-0.066
-475.289	586.664	0.046	0.114
-474.274	-44.918	-0.245	-0.122
-473.259	-26.494	0.006	-0.004
-472.245	-200.000	-0.087	-0.451
-471.230	64.495	0.144	-0.145
-470.216	-200.000	0.012	-0.071
-469.201	800.000	0.061	0.239
-468.186	82.389	0.131	-0.142
-467.172	-72.349	-0.234	-0.087
-466.157	-200.000	-0.027	0.143
-465.143	-53.821	0.408	-0.186
-464.128	-35.389	0.061	0.033
-463.113	127.512	-0.135	-0.171
-462.099	30.642	-0.246	0.211
-461.084	800.000	-0.126	0.358
-460.070	-200.000	-0.021	0.273
-459.055	253.560	-0.124	0.211
-458.040	127.299	0.162	0.205
-457.026	-33.984	0.212	-0.117
-456.011	-7.202	0.118	-0.080
-454.997	-200.000	-0.001	0.111
-453.982	452.116	-0.103	-0.228
-452.968	-40.124	-0.244	-0.127
-451.953	-200.000	-0.029	0.415
-450.938	475.577	-0.019	0.043
-449.924	579.725	-0.064	0.157
-448.909	-145.118	0.213	0.019
-447.895	-72.864	-0.108	0.040
-446.880	-98.793	0.105	0.027
-445.865	800.000	-0.023	0.066
-444.851	35.089	0.212	0.186
-443.836	12.456	-0.306	-0.235
-442.822	169.473	-0.184	-0.263
-441.807	-105.014	-0.325	0.074
-440.792	67.101	-0.052	0.053
-439.778	-126.819	-0.338	0.050
-438.763	800.000	0.053	-0.213
-437.749	78.212	0.101	-0.108
-436.734	160.078	0.185	0.258
-435.719	-36.660	-0.299	-0.161
-434.705	-24.809	0.214	0.127
-433.690	-124.883	0.245	-0.038
-432.676	67.673	0.041	0.042
-431.661	-200.000	-0.078	0.483
-430.646	63.355	0.190	-0.190
-429.632	-200.000	-0.291	0.001
-428.617	-138.393	-0.474	-0.052
-427.603	-127.013	0.498	-0.073
-426.588	291.363	0.139	-0.252
-425.573	-200.000	0.017	-0.138
-424.559	-79.957	-0.236	0.079
-423.544	-200.000	0.034	-0.224
-422.530	28.251	0.180	0.152
-421.515	79.684	0.174	0.187
-420.500	6.714	0.180	0.134
-419.486	-200.000	0.024	-0.342
-418.471	-107.765	0.237	-0.052
-417.457	-200.000	0.044	0.203
-416.442	314.536	-0.058	-0.108
-415.428	467.880	-0.035	0.079
-414.413	126.828	0.148	-0.187
-413.398	800.000	0.009	0.038
-412.384	-200.000	0.016	0.248
-411.369	198.755	-0.063	-0.096
-410.355	-200.000	-0.005	-0.034
-409.340	143.538	0.121	-0.161
-408.325	-137.359	0.085	0.010
-407.311	-44.882	0.194	0.097
-406.296	377.645	0.015	-0.030
-405.282	186.872	0.050	0.074
-404.267	785.948	-0.131	0.359
-403.252	-124.824	-0.214	0.033
-402.238	-45.275	0.090	-0.044
-401.223	-200.000	0.025	0.252
-400.209	166.365	-0.156	-0.221
-399.194	33.194	0.343	0.296
-398.179	176.893	0.221	0.320
-397.165	-36.539	0.123	0.066
-396.150	-100.271	0.075	-0.018
-395.136	-33.239	-0.225	-0.124
-394.121	58.441	-0.366	-0.358
-393.106	800.000	0.026	0.097
-392.092	800.000	-0.064	-0.261
-391.077	420.504	-0.108	-0.231
-390.063	206.165	0.232	-0.360
-389.048	108.202	0.081	0.096
-388.033	686.063	-0.101	-0.263
-387.019	-200.000	-0.013	-0.128
-386.004	-200.000	-0.016	0.296
-384.990	121.799	-0.005	-0.006
-383.975	223.717	-0.091	-0.146
-382.960	800.000	0.058	-0.225
-381.946	73.210	0.086	0.090
-380.931	15.958	-0.068	0.053
-379.917	25.258	-0.160	-0.132
-378.902	32.092	0.194	-0.167
-377.888	-5.051	0.169	0.116
-376.873	-50.710	-0.162	0.076
-375.858	800.000	-0.022	0.093
-374.844	-75.088	0.212	-0.076
-373.829	-187.923	-0.407	0.005
-372.815	-200.000	0.012	0.136
-371.800	-200.000	0.000	0.032
-370.785	-200.000	-0.015	0.116
-369.771	-161.334	-0.108	0.006
-368.756	-200.000	-0.056	-0.277
-367.742	-109.676	0.293	-0.061
-366.727	-71.012	0.198	-0.074
-365.712	34.504	0.295	0.257
-364.698	-200.000	0.008	-0.213
-363.683	-200.000	-0.022	0.296
-362.669	23.214	0.139	-0.114
-361.654	800.000	0.086	0.292
-360.639	-38.932	0.029	-0.015
-359.625	-200.000	0.010	0.257
-358.610	-174.393	-0.085	0.002
-357.596	17.542	0.304	0.241
-356.581	543.688	-0.144	0.343
-355.566	-173.575	-0.340	-0.010
-354.552	-200.000	0.007	0.225
-353.537	115.489	0.094	-0.114
-352.523	800.000	0.074	0.228
-351.508	40.036	-0.181	-0.162
-350.493	-180.498	-0.292	-0.006
-349.479	800.000	-0.015	-0.051
-348.464	800.000	0.082	-0.340
-347.450	262.155	-0.117	0.202
-346.435	245.496	-0.173	-0.290
-345.420	-8.825	0.165	0.110
-344.406	-198.903	0.394	0.002
-343.391	137.019	0.173	0.225
-342.377	9.925	-0.132	-0.099
-341.362	37.162	0.071	-0.063
-340.348	-41.353	0.340	0.174
-339.333	-101.768	0.185	0.045
-338.318	800.000	-0.082	0.246
-337.304	-113.487	-0.066	-0.013
-336.289	82.068	-0.172	-0.186
-335.275	-131.064	0.278	-0.037
-334.260	-38.268	0.174	0.092
-333.245	-200.000	-0.007	0.207
-332.231	202.620	0.022	0.034
-331.216	-46.736	-0.189	0.092
-330.202	-23.858	-0.208	0.124
-329.187	800.000	-0.065	0.190
-328.172	254.681	0.041	-0.070
-327.158	-163.881	-0.078	-0.004
-326.143	132.705	-0.068	-0.087
-325.129	294.270	0.081	0.146
-324.114	-200.000	-0.004	-0.246
-323.099	-49.433	0.177	-0.084
-322.085	-117.864	0.151	-0.027
-321.070	30.208	0.067	0.057
-320.056	-8.548	0.157	0.105
-319.041	800.000	0.142	-0.560
-318.026	21.694	0.097	0.079
-317.012	-37.616	0.125	0.066
-315.997	351.881	0.169	0.333
-314.983	-200.000	0.001	-0.336
-313.968	6.563	0.061	0.045
-312.953	231.785	0.183	0.299
-311.939	-200.000	0.020	-0.100
-310.924	-6.446	0.071	0.048
-309.910	-108.764	0.081	-0.017
-308.895	800.000	0.048	0.206
-307.880	-102.827	-0.369	0.087
-306.866	-30.843	0.048	0.027
-305.851	154.354	-0.235	-0.321
-304.837	-165.931	-0.256	-0.011
-303.822	800.000	0.040	0.131
-302.807	-18.627	0.203	-0.126
-301.793	-174.629	-0.134	-0.004
-300.778	-151.925	-0.146	0.011
-299.764	800.000	0.030	-0.120
-298.749	-200.000	-0.021	-0.098
-297.735	-156.276	0.277	-0.017
-296.720	-200.000	-0.012	-0.180
-295.705	661.028	0.179	-0.459
-294.691	800.000	-0.110	-0.364
-293.676	23.179	0.216	0.176
-292.662	-92.902	0.313	0.087
-291.647	7.366	-0.202	-0.150
-290.632	-159.175	-0.110	0.006
-289.618	47.037	0.113	-0.104
-288.603	800.000	0.053	0.189
-287.589	-73.582	-0.147	-0.053
-286.574	12.913	-0.146	-0.112
-285.559	129.297	0.290	-0.367
-284.545	-7.394	-0.107	-0.072
-283.530	192.314	0.084	-0.126
-282.516	-200.000	0.061	-0.380
-281.501	163.814	-0.081	-0.113
-280.486	64.316	0.131	-0.131
-279.472	-30.910	-0.182	0.102
-278.457	-115.886	0.346	0.064
-277.443	-200.000	-0.007	0.240
-276.428	637.082	-0.085	0.213
-275.413	246.202	0.086	0.144
-274.399	85.193	0.090	0.098
-273.384	-52.168	-0.183	0.084
-272.370	-200.000	0.033	-0.174
-271.355	-200.000	0.030	-0.205
-270.340	800.000	-0.054	-0.236
-269.326	-64.029	0.263	-0.107
-268.311	-200.000	-0.058	0.370
-267.297	-200.000	0.008	0.196
-266.282	-84.030	0.168	0.053
-265.267	159.531	-0.267	-0.369
-264.253	800.000	-0.042	0.165
-263.238	-10.098	0.216	-0.142
-262.224	-200.000	-0.007	0.209
-261.209	-200.000	0.000	-0.090
-260.195	-89.576	-0.400	0.116
-259.180	143.216	-0.214	0.282
-258.165	-103.342	-0.349	-0.082
-257.151	-147.264	-0.187	0.016
-256.136	-200.000	0.042	-0.489
-255.122	314.852	0.254	-0.475
-254.107	-142.476	-0.084	0.008
-253.092	-200.000	0.001	0.160
-252.078	-158.560	0.063	0.004
-251.063	-200.000	-0.005	-0.647
-250.049	213.203	-0.111	-0.173
-249.034	204.642	-0.168	0.258
-248.019	-4.867	-0.289	-0.198
-247.005	800.000	-0.052	0.167
-245.990	-32.922	0.144	0.079
-244.976	247.910	0.227	0.381
-243.961	-162.537	-0.247	0.012
-242.946	-143.816	0.050	0.005
-241.932	486.924	0.164	-0.370
-240.917	-48.774	-0.194	-0.092
-239.903	-200.000	-0.070	0.321
-238.888	278.765	0.082	0.146
-237.873	-12.718	-0.305	-0.197
-236.859	-23.042	0.223	0.133
-235.844	164.108	-0.146	0.204
-234.830	483.768	-0.074	0.166
-233.815	176.054	-0.031	-0.044
-232.800	800.000	-0.030	0.090
-231.786	-44.480	-0.294	0.146
-230.771	-41.826	0.133	0.068
-229.757	-200.000	-0.022	0.156
-228.742	-83.681	-0.201	-0.064
-227.727	-123.742	0.298	-0.047
-226.713	-10.167	-0.120	-0.079
-225.698	-15.370	0.217	0.138
-224.684	-15.606	0.225	-0.142
-223.669	214.171	0.009	-0.015
-222.655	245.902	0.133	-0.223
-221.640	-6.602	0.132	0.089
-220.625	-130.963	0.311	-0.041
-219.611	87.554	-0.150	0.164
-218.596	-128.178	0.142	0.020
-217.582	396.843	-0.095	0.197
-216.567	566.044	-0.090	0.216
-215.552	-200.000	-0.072	0.324
-214.538	-134.109	0.050	0.006
-213.523	-198.076	0.394	-0.002
-212.509	-38.279	-0.222	0.117
-211.494	-142.405	-0.200	-0.020
-210.479	200.767	0.308	0.468
-209.465	-97.567	-0.288	-0.074
-208.450	-200.000	-0.004	-0.089
-207.436	505.293	-0.196	0.449
-206.421	-125.704	0.106	-0.016
-205.406	-200.000	0.000	0.017
-204.392	800.000	0.051	-0.143
-203.377	18.059	0.064	-0.051
-202.363	-200.000	-0.057	0.269
-201.348	310.721	0.078	-0.145
-200.333	-200.000	0.084	0.394
-199.319	-132.173	0.295	-0.038
-198.304	-73.784	-0.095	-0.034
-197.290	503.193	0.059	-0.135
-196.275	-70.872	-0.034	-0.013
-195.260	-94.240	-0.122	-0.033
-194.246	-127.925	0.203	0.029
-193.231	-131.080	0.257	0.034
-192.217	83.156	-0.093	-0.100
-191.202	-200.000	0.013	0.354
-190.187	800.000	0.090	-0.251
-189.173	-133.846	0.250	0.031
-188.158	-44.001	-0.443	0.220
-187.144	83.943	-0.157	-0.169
-186.129	-104.440	-0.221	0.051
-185.114	8.407	-0.252	0.187
-184.100	-200.000	-0.034	-0.220
-183.085	32.902	-0.184	-0.158
-182.071	-65.660	-0.335	0.133
-181.056	274.160	0.237	0.415
-180.042	28.963	0.198	0.166
-179.027	319.984	0.118	-0.222
-178.012	800.000	-0.074	0.221
-176.998	-22.558	0.107	0.064
-175.983	152.336	-0.154	-0.207
-174.969	-71.105	0.217	-0.081
-173.954	-60.212	-0.027	-0.011
-172.939	0.803	0.169	0.119
-171.925	69.209	0.144	0.147
-170.910	16.446	0.134	-0.105
-169.896	-200.000	0.053	-0.250
-168.881	118.495	0.235	-0.286
-167.866	-132.719	-0.109	0.014
-166.852	-36.964	-0.406	0.215
-165.837	-65.722	0.189	0.075
-164.823	-105.601	-0.264	-0.059
-163.808	-34.852	0.306	0.165
-162.793	357.508	0.171	0.337
-161.779	91.510	0.204	-0.227
-160.764	800.000	0.086	0.277
-159.750	143.397	-0.046	-0.061
-158.735	-3.578	0.153	-0.105
-157.720	600.266	0.055	-0.135
-156.706	-99.762	-0.244	-0.060
-155.691	2.337	0.168	-0.120
-154.677	193.286	0.114	0.170
-153.662	56.385	0.331	0.317
-152.647	-200.000	-0.042	0.241
-151.633	-101.886	0.169	0.040
-150.618	766.843	0.028	0.075
-149.604	-50.199	-0.360	0.168
-148.589	-200.000	-0.083	0.394
-147.574	800.000	0.042	0.130
-146.560	13.350	-0.224	-0.171
-145.545	-105.644	-0.005	0.001
-144.531	-61.157	0.106	-0.044
-143.516	-64.794	0.049	-0.020
-142.502	-29.059	-0.077	-0.044
-141.487	-200.000	-0.011	0.082
-140.472	-18.248	-0.103	0.064
-139.458	49.892	0.193	0.180
-138.443	114.307	0.194	-0.233
-137.429	-6.319	0.077	0.052
-136.414	-200.000	0.048	0.382
-135.399	522.979	-0.077	0.178
-134.385	436.704	-0.141	0.303
-133.370	169.385	-0.118	-0.167
-132.356	-200.000	-0.013	0.109
-131.341	-158.646	0.299	0.017
-130.326	82.702	0.197	-0.211
-129.312	95.932	0.218	-0.246
-128.297	131.085	-0.153	-0.193
-127.283	800.000	-0.122	-0.355
-126.268	78.597	-0.044	0.047
-125.253	99.668	-0.102	0.117
-124.239	5.781	0.056	0.041
-123.224	-19.077	-0.377	0.231
-122.210	-200.000	0.020	-0.287
-121.195	215.050	0.071	0.111
-120.180	480.290	0.109	0.243
-119.166	-136.107	-0.108	-0.013
-118.151	-44.070	-0.308	0.153
-117.137	272.546	0.137	-0.238
-116.122	-135.768	-0.209	-0.024
-115.107	-91.215	-0.192	0.054
-114.093	-129.053	0.292	-0.040
-113.078	702.630	-0.168	-0.436
-112.064	-132.171	0.275	-0.035
-111.049	-200.000	0.012	-0.238
-110.034	181.379	0.094	-0.137
-109.020	800.000	-0.087	-0.335
-108.005	31.287	0.150	-0.127
-106.991	-136.876	0.337	-0.038
-105.976	800.000	-0.054	-0.192
-104.962	-146.059	-0.374	0.033
-103.947	-112.601	-0.251	-0.049
-102.932	-25.675	-0.070	0.040
-101.918	129.303	0.293	-0.369
-100.903	-200.000	-0.041	-0.244
-99.889	688.103	-0.081	0.208
-98.874	800.000	0.104	0.315
-97.859	-15.103	-0.153	-0.097
-96.845	-200.000	0.035	0.244
-95.830	-150.797	-0.092	0.007
-94.816	-158.864	0.350	0.020
-93.801	40.496	-0.047	0.042
-92.786	105.951	-0.166	0.194
-91.772	33.383	0.123	0.105
-90.757	-27.826	0.174	0.099
-89.743	256.706	-0.131	-0.222
-88.728	597.417	0.022	-0.053
-87.713	-109.621	0.193	-0.040
-86.699	-126.689	-0.100	-0.015
-85.684	-200.000	-0.054	-0.253
-84.670	800.000	-0.026	0.088
-83.655	144.604	0.175	-0.231
-82.640	-200.000	-0.002	-0.124
-81.626	-14.083	0.163	0.104
-80.611	-30.594	0.339	0.189
-79.597	116.875	0.083	-0.100
-78.582	47.991	0.210	0.194
-77.567	188.716	0.153	-0.226
-76.553	54.139	0.276	0.261
-75.538	74.000	-0.167	-0.173
-74.524	-200.000	0.048	0.257
-73.509	-200.000	-0.040	-0.254
-72.494	113.068	-0.156	0.186
-71.480	-104.249	0.428	-0.098
-70.465	800.000	0.026	-0.082
-69.451	-152.083	-0.304	0.022
-68.436	298.481	-0.082	0.148
-67.422	4.794	0.046	0.033
-66.407	35.837	-0.214	-0.186
-65.392	437.026	-0.083	-0.179
-64.378	177.359	0.133	-0.191
-63.363	-162.755	-0.331	-0.016
-62.349	161.560	0.166	0.228
-61.334	151.314	-0.864	-1.158
-60.319	90.431	0.503	0.554
-59.305	-200.000	-0.071	-0.947
-58.290	84.167	0.711	0.765
-57.276	179.853	0.932	1.344
-56.261	-200.000	96.033	580.093
-55.246	562.092	1373.455	3268.959
-54.232	161.471	2546.860	3505.510
-53.217	113.182	2139.149	2552.658
-52.203	44.208	1603.874	1447.668
-51.188	36.187	1341.844	1162.988
-50.173	32.890	1299.903	1107.289
-49.159	54.571	1346.371	1276.684
-48.144	56.956	1363.550	1307.143
-47.130	36.338	1322.268	1146.736
-46.115	32.847	1305.107	1111.291
-45.100	32.767	1299.887	1106.336
-44.086	32.617	1297.712	1103.561
-43.071	32.587	1295.311	1101.298
-42.057	32.590	1293.368	1099.621
-41.042	32.617	1291.835	1098.433
-40.027	32.642	1289.755	1096.768
-39.013	32.618	1288.443	1095.469
-37.998	32.587	1286.340	1093.455
-36.984	32.753	1284.255	1092.603
-35.969	32.779	1282.774	1091.450
-34.954	32.728	1280.779	1089.415
-33.940	32.761	1279.772	1088.705
-32.925	32.849	1278.451	1088.047
-31.911	32.712	1277.012	1085.991
-30.896	32.809	1275.532	1085.245
-29.881	32.802	1274.024	1083.877
-28.867	32.895	1272.605	1083.164
-27.852	32.821	1271.602	1081.843
-26.838	32.954	1269.404	1080.689
-25.823	32.776	1268.596	1078.939
-24.809	32.730	1267.585	1077.775
-23.794	32.729	1266.151	1076.510
-22.779	32.735	1264.701	1075.264
-21.765	32.703	1263.814	1074.287
-20.750	32.756	1262.007	1073.010
-19.736	32.709	1260.767	1071.646
-18.721	32.643	1260.158	1070.711
-17.706	32.656	1258.789	1069.581
-16.692	32.668	1257.299	1068.337
-15.677	32.602	1256.531	1067.269
-14.663	32.689	1254.986	1066.407
-13.648	32.656	1254.238	1065.541
-12.633	32.461	1253.490	1063.760
-11.619	32.467	1252.379	1062.811
-10.604	32.630	1251.064	1062.571
-9.590	32.559	1250.586	1061.725
-8.575	32.506	1249.752	1060.676
-7.560	32.615	1248.506	1060.190
-6.546	32.601	1247.984	1059.625
-5.531	32.631	1247.202	1059.090
-4.517	32.548	1246.380	1057.881
-3.502	32.635	1245.322	1057.428
-2.487	32.657	1244.327	1056.668
-1.473	32.596	1240.329	1052.891
-0.458	31.173	1225.558	1032.443
0.556	28.097	1207.359	994.145
1.571	24.383	1212.745	978.171
2.586	23.654	1227.518	985.951
3.600	23.120	1216.588	974.150
4.615	17.006	1143.794	884.022
5.629	6.785	1067.572	775.095
6.644	2.310	1046.847	738.407
7.659	2.077	1044.082	735.272
8.673	1.876	1043.153	733.586
9.688	1.958	1041.092	732.463
10.702	2.245	1040.964	733.687
11.717	8.831	1049.307	771.288
12.731	19.042	1063.524	831.247
13.746	24.094	1069.847	860.602
14.761	25.229	1070.973	866.920
15.775	25.218	1070.412	866.335
16.790	25.159	1069.480	865.217
17.804	24.935	1069.205	863.839
18.819	25.097	1069.010	864.385
19.834	25.230	1068.318	864.392
20.848	25.218	1068.380	864.307
21.863	25.292	1067.500	863.874
22.877	25.067	1067.055	862.357
23.892	25.099	1065.859	861.467
24.907	25.259	1065.525	861.887
25.921	25.231	1063.688	860.192
26.936	25.176	1062.795	859.131
27.950	25.074	1061.500	857.521
28.965	24.921	1059.912	855.431
29.980	25.100	1057.906	854.590
30.994	25.213	1057.596	854.802
32.009	25.273	1056.227	853.906
33.023	25.058	1055.224	851.998
34.038	25.046	1054.879	851.585
35.053	25.238	1053.640	851.421
36.067	25.263	1053.047	850.985
37.082	25.274	1051.855	849.999
38.096	25.354	1051.912	850.348
39.111	25.500	1050.775	850.045
40.126	25.332	1049.514	848.154
41.140	24.970	1047.634	844.854
42.155	24.729	1046.550	842.770
43.169	24.820	1045.997	842.678
44.184	24.797	1044.827	841.551
45.199	24.896	1043.353	840.759
46.213	24.973	1042.765	840.570
47.228	24.987	1042.262	840.157
48.242	25.124	1041.454	840.071
49.257	25.093	1040.586	839.151
50.271	25.251	1040.018	839.359
51.286	25.320	1038.814	838.637
52.301	25.387	1037.972	838.195
53.315	25.203	1037.261	836.689
54.330	25.128	1036.663	835.781
55.344	25.197	1035.901	835.417
56.359	25.200	1034.681	834.370
57.374	24.860	1033.871	832.064
58.388	24.971	1033.452	832.170
59.403	24.890	1032.611	831.043
60.417	24.819	1031.409	829.672
61.432	24.915	1030.625	829.411
62.447	24.941	1030.368	829.251
63.461	25.006	1029.387	828.690
64.476	24.947	1028.062	827.276
65.490	24.838	1027.150	825.967
66.505	24.899	1026.877	825.957
67.520	24.926	1026.253	825.505
68.534	24.728	1024.905	823.439
69.549	24.462	1024.201	821.576
70.563	24.428	1023.283	820.611
71.578	24.407	1022.568	819.864
72.593	24.252	1021.198	817.984
73.607	24.337	1021.063	818.194
74.622	24.662	1020.806	819.407
75.636	24.699	1020.273	819.074
76.651	24.679	1018.781	817.714
77.666	24.494	1018.325	816.428
78.680	24.610	1017.744	816.420
79.695	24.736	1017.087	816.396
80.709	24.802	1016.274	815.974
81.724	24.752	1015.662	815.180
82.739	24.804	1014.997	814.814
83.753	25.208	1014.302	816.019
84.768	25.523	1013.412	816.663
85.782	25.474	1012.934	815.984
86.797	25.524	1011.608	815.068
87.812	25.273	1010.977	813.354
88.826	25.465	1009.329	812.825
89.841	25.531	1008.941	812.738
90.855	25.519	1007.709	811.621
91.870	25.425	1007.341	810.827
92.884	25.282	1006.106	809.117
93.899	25.131	1005.288	807.708
94.914	25.334	1004.302	807.755
95.928	25.390	1003.294	807.128
96.943	25.015	1001.644	804.045
97.957	24.912	1000.623	802.693
98.972	24.798	999.688	801.358
99.987	24.944	999.325	801.652
101.001	25.249	998.390	802.193
102.016	25.193	997.763	801.370
103.030	25.085	996.657	799.930
104.045	24.946	995.941	798.665
105.060	24.795	994.780	796.989
106.074	24.917	994.088	796.909
107.089	25.294	993.670	798.177
108.103	25.175	992.659	796.768
109.118	24.905	991.304	794.409
110.133	24.906	990.360	793.589
111.147	24.706	988.827	791.404
112.162	24.603	988.231	790.404
113.176	24.887	987.577	791.063
114.191	24.819	986.781	790.057
115.206	24.470	985.635	787.530
116.220	24.581	984.859	787.328
117.235	24.637	984.184	786.967
118.249	24.697	982.858	786.101
119.264	24.506	982.557	784.951
120.279	24.543	981.879	784.503
121.293	24.592	981.070	784.000
122.308	24.656	980.258	783.564
123.322	24.425	979.261	781.684
124.337	24.410	977.816	780.396
125.352	23.988	976.163	777.166
126.366	23.952	975.207	776.178
127.381	24.616	975.587	779.312
128.395	24.958	975.163	780.394
129.410	25.169	974.099	780.392
130.424	25.042	973.316	779.141
131.439	25.143	971.808	778.302
132.454	25.193	971.150	777.927
133.468	25.162	970.424	777.139
134.483	25.204	969.760	776.725
135.497	25.500	968.790	777.159
136.512	25.385	968.135	776.067
137.527	25.504	966.937	775.549
138.541	25.478	966.398	774.939
139.556	25.490	965.617	774.295
140.570	25.475	964.938	773.616
141.585	25.501	963.882	772.813
142.600	25.408	962.883	771.543
143.614	25.794	962.009	772.431
144.629	25.765	961.557	771.875
145.643	25.546	960.410	769.950
146.658	25.316	958.864	767.659
147.673	25.377	958.040	767.191
148.687	25.196	957.365	765.811
149.702	25.211	956.072	764.770
150.716	25.188	955.309	763.997
151.731	25.240	955.153	764.028
152.746	25.460	954.454	764.337
153.760	25.561	953.707	764.098
154.775	25.639	953.191	763.949
155.789	25.533	952.089	762.550
156.804	25.523	951.482	761.951
157.819	25.568	950.513	761.299
158.833	25.833	949.651	761.663
159.848	25.671	949.003	760.390
160.862	25.460	947.813	758.480
161.877	25.537	946.751	757.887
162.892	25.624	945.266	756.996
163.906	25.598	944.087	755.875
164.921	25.693	943.349	755.616
165.935	25.518	942.762	754.348
166.950	25.690	941.754	754.195
167.964	25.515	940.971	752.766
168.979	25.539	939.363	751.515
169.994	25.390	938.862	750.423
171.008	25.565	938.525	750.821
172.023	25.558	937.891	750.218
173.037	25.414	936.392	748.353
174.052	25.208	935.661	746.844
175.067	25.353	934.942	746.809
176.081	25.390	934.593	746.615
177.096	25.333	933.928	745.782
178.110	24.967	933.080	743.522
179.125	24.895	932.025	742.316
180.140	24.999	931.781	742.485
181.154	25.100	931.608	742.701
182.169	25.363	931.539	743.668
183.183	25.638	931.026	744.332
184.198	25.355	930.149	742.397
185.213	25.450	929.400	742.126
186.227	25.481	929.062	741.914
187.242	25.702	927.943	741.867
188.256	25.491	927.658	740.705
189.271	25.671	926.619	740.550
190.286	25.273	925.837	738.226
191.300	24.781	924.228	734.854
192.315	23.931	922.843	730.201
193.329	23.940	922.099	729.585
194.344	24.897	922.695	733.918
195.359	25.375	922.717	735.827
196.373	25.480	922.507	736.024
197.388	25.495	921.189	734.969
198.402	25.435	920.630	734.214
199.417	25.434	920.388	733.952
200.432	25.117	919.337	731.756
201.446	25.008	918.790	730.811
202.461	24.972	918.378	730.271
203.475	24.194	916.267	725.364
204.490	23.433	914.936	721.151
205.504	24.514	915.026	725.551
206.519	25.106	915.076	727.934
207.534	25.090	914.646	727.460
208.548	25.574	914.656	729.367
209.563	25.231	913.578	727.054
210.577	25.316	912.443	726.430
211.592	25.762	912.284	728.045
212.607	25.680	911.504	727.026
213.621	25.673	910.774	726.351
214.636	25.602	910.532	725.806
215.650	25.500	909.804	724.753
216.665	25.648	909.272	724.860
217.680	25.717	908.044	724.095
218.694	25.164	907.363	721.263
219.709	25.015	906.491	719.908
220.723	25.411	905.910	720.971
221.738	25.401	905.712	720.713
222.753	25.445	904.749	720.058
223.767	25.578	904.634	720.436
224.782	25.821	904.326	721.099
225.796	25.589	904.106	719.932
226.811	25.045	902.388	716.326
227.826	24.388	900.940	712.489
228.840	24.712	900.441	713.323
229.855	24.753	899.529	712.705
230.869	24.434	898.493	710.548
231.884	24.836	898.659	712.219
232.899	25.595	898.491	715.039
233.913	25.432	898.019	713.955
234.928	25.271	898.055	713.279
235.942	25.229	897.083	712.280
236.957	24.900	896.155	710.174
237.972	25.090	895.579	710.405
238.986	25.096	895.065	709.959
240.001	25.124	894.421	709.498
241.015	25.236	894.118	709.638
242.030	25.385	893.716	709.845
243.045	25.472	892.969	709.533
244.059	25.624	892.572	709.754
245.074	25.471	891.512	708.244
246.088	25.063	890.385	705.681
247.103	25.408	889.989	706.663
248.117	25.915	890.542	709.031
249.132	26.206	890.258	709.887
250.147	26.295	889.218	709.346
251.161	26.391	889.143	709.600
252.176	26.088	888.477	707.815
253.190	26.421	887.990	708.671
254.205	26.622	887.361	708.892
255.220	26.283	887.312	707.466
256.234	26.385	885.974	706.734
257.249	26.303	885.155	705.700
258.263	26.285	884.653	705.166
259.278	26.252	883.910	704.381
260.293	26.357	883.470	704.378
261.307	26.380	882.582	703.699
262.322	26.024	882.140	701.896
263.336	25.443	880.106	697.962
264.351	24.303	878.094	691.883
265.366	24.605	877.842	692.795
266.380	25.555	878.797	697.172
267.395	25.967	878.276	698.295
268.409	25.978	877.235	697.448
269.424	26.083	877.332	697.867
270.439	26.018	877.223	697.470
271.453	26.295	876.013	697.513
272.468	26.457	875.876	697.969
273.482	26.443	875.244	697.347
274.497	26.039	874.174	694.879
275.512	25.794	873.089	693.010
276.526	26.107	873.120	694.177
277.541	26.381	872.849	694.954
278.555	26.024	872.168	692.982
279.570	25.832	871.583	691.718
280.585	26.023	870.545	691.563
281.599	25.970	870.004	690.870
282.614	25.467	868.824	687.948
283.628	25.576	868.008	687.659
284.643	25.883	867.988	688.752
285.657	25.383	867.026	686.021
286.672	25.100	865.952	684.030
287.687	25.655	866.092	686.198
288.701	25.799	865.560	686.266
289.716	25.413	864.473	683.873
290.730	25.378	863.876	683.205
291.745	25.204	862.956	681.756
292.760	25.382	863.007	682.415
293.774	26.500	863.126	686.692
294.789	26.654	862.967	687.092
295.803	26.792	862.400	687.100
296.818	26.841	861.668	686.643
297.833	26.207	860.690	683.405
298.847	26.249	859.835	682.826
299.862	26.503	859.778	683.676
300.876	26.732	860.006	684.663
301.891	26.702	858.234	683.080
302.906	26.097	858.077	680.612
303.920	26.341	857.291	680.848
304.935	26.776	857.604	682.677
305.949	26.682	856.741	681.573
306.964	26.344	856.134	679.760
307.979	26.485	855.385	679.636
308.993	26.836	855.428	680.928
310.008	26.758	855.086	680.301
311.022	26.524	854.200	678.659
312.037	26.400	853.223	677.360
313.052	26.102	852.228	675.395
314.066	25.391	850.471	671.286
315.081	24.918	850.373	669.381
316.095	25.865	850.649	673.079
317.110	26.245	850.369	674.216
318.125	25.479	848.652	669.940
319.139	24.367	847.071	664.492
320.154	24.480	846.784	664.630
321.168	25.274	847.397	668.010
322.183	26.073	847.425	670.945
323.197	26.224	847.115	671.203
324.212	26.385	847.080	671.711
325.227	26.452	846.382	671.348
326.241	26.250	845.481	669.824
327.256	26.120	844.715	668.679
328.270	26.229	843.876	668.358
329.285	26.039	843.123	666.999
330.300	25.804	842.443	665.536
331.314	26.074	842.195	666.275
332.329	26.390	842.644	667.740
333.343	26.539	841.942	667.674
334.358	26.528	841.435	667.174
335.373	26.620	841.231	667.292
336.387	26.748	841.144	667.634
337.402	27.053	840.883	668.492
338.416	26.927	840.854	667.943
339.431	26.961	840.602	667.810
340.446	27.173	839.865	667.945
341.460	27.021	839.088	666.710
342.475	26.844	838.599	665.614
343.489	26.983	838.430	665.929
344.504	27.318	837.961	666.725
345.519	27.504	837.672	667.118
346.533	27.279	837.438	666.048
347.548	27.423	836.960	666.136
348.562	27.416	836.124	665.387
349.577	27.235	835.359	664.059
350.592	27.163	835.043	663.487
351.606	27.329	833.987	663.192
352.621	27.210	833.271	662.130
353.635	27.187	832.726	661.557
354.650	26.431	831.253	657.579
355.665	25.465	829.518	652.642
356.679	25.897	829.671	654.274
357.694	26.332	829.343	655.534
358.708	26.386	828.242	654.802
359.723	26.865	828.242	656.480
360.738	27.146	827.584	656.916
361.752	27.232	827.398	657.021
362.767	27.512	827.450	658.015
363.781	27.661	827.166	658.269
364.796	27.769	826.614	658.163
365.810	27.741	826.504	657.916
366.825	27.827	825.853	657.648
367.840	27.426	824.925	655.407
368.854	27.080	824.009	653.377
369.869	27.117	823.653	653.172
370.883	27.079	823.271	652.674
371.898	26.935	823.120	651.980
372.913	27.005	822.606	651.764
373.927	27.310	822.192	652.475
374.942	27.308	821.968	652.232
375.956	27.442	821.425	652.223
376.971	27.598	821.066	652.437
377.986	27.639	820.649	652.194
379.000	27.572	820.396	651.698
380.015	27.507	819.498	650.693
381.029	27.642	818.827	650.584
382.044	27.605	818.547	650.174
383.059	27.547	818.226	649.654
384.073	27.785	817.371	649.764
385.088	27.723	816.586	648.862
386.102	27.528	815.895	647.564
387.117	27.628	815.116	647.241
388.132	27.056	814.182	644.415
389.146	26.509	813.303	641.724
390.161	27.120	813.188	643.740
391.175	27.465	813.419	645.090
392.190	27.057	812.295	642.697
393.205	25.603	810.077	635.752
394.219	24.211	808.109	629.239
395.234	24.076	807.994	628.617
396.248	25.843	809.087	635.652
397.263	27.195	810.115	641.175
398.278	27.191	809.781	640.840
399.292	26.911	808.961	639.148
400.307	27.084	808.310	639.186
401.321	27.095	808.040	638.956
402.336	27.431	808.056	640.092
403.350	27.962	808.002	641.860
404.365	28.113	807.629	642.038
405.380	28.376	807.572	642.859
406.394	28.483	807.030	642.745
407.409	28.330	806.600	641.808
408.423	28.295	806.104	641.233
409.438	28.475	805.615	641.420
410.453	28.557	805.483	641.545
411.467	28.281	805.077	640.199
412.482	28.435	804.596	640.298
413.496	28.528	804.271	640.307
414.511	28.397	804.023	639.594
415.526	28.258	803.143	638.356
416.540	28.214	802.540	637.666
417.555	28.175	801.737	636.833
418.569	28.136	801.697	636.610
419.584	28.233	800.846	636.216
420.599	27.875	800.410	634.569
421.613	111.546	1284.667	1457.565
422.628	96.277	1355.224	1457.660
