DTS Sentinel unit serial number:	SN413079Multiplexer serial number:	ORYXHardware model number:	OX4-SRSoftware version number:	ORYX F/W v4.00 Oryx Data Collector v3.7.2.0data status	okinstallation	princeton_trtdifferential loss correction	single-endedforward channel	channel 1reverse channel	N/Adate	2019/09/11time	05:08:11forward acquisition time	60.00reverse acquisition time	0.00gamma	496.2192k internal	0.2330k external	0.2330temperature offset calibration	0.9927default loss term (dB/km)	0.3790temperature slope calibration	1.0000multiplexer offset coefficient	1.0000multiplexer slope coefficient	1.0000fibre end	0.00T internal ref (°C)	29.44T ext. ref 1 (°C)	-0.24T ext. ref 2 (°C)	23.43length (m)	temperature (°C)	Stokes	anti-Stokes-747.200	76.976	-0.227	0.243
-746.185	800.000	0.026	-0.100
-745.171	415.442	0.082	0.177
-744.156	3.270	-0.228	0.167
-743.142	355.033	0.139	0.278
-742.127	-87.829	-0.543	0.165
-741.112	358.343	0.159	0.319
-740.098	23.106	-0.334	0.276
-739.083	-148.712	0.320	-0.026
-738.069	-160.227	0.081	-0.004
-737.054	139.350	0.138	0.183
-736.039	452.840	-0.056	0.124
-735.025	-122.959	0.325	-0.053
-734.010	800.000	-0.037	-0.135
-732.996	112.069	-0.220	0.268
-731.981	-200.000	-0.008	0.357
-730.966	13.389	-0.386	0.301
-729.952	-98.315	-0.094	0.024
-728.937	33.697	-0.100	0.087
-727.923	800.000	0.124	0.364
-726.908	73.152	-0.114	-0.120
-725.894	188.348	-0.131	0.198
-724.879	187.208	0.024	-0.036
-723.864	88.656	0.101	0.113
-722.850	83.411	-0.258	-0.283
-721.835	-200.000	-0.017	0.133
-720.821	-70.012	-0.337	0.129
-719.806	104.211	-0.053	0.063
-718.791	-200.000	-0.023	-0.168
-717.777	215.595	0.036	0.058
-716.762	-18.653	-0.106	0.067
-715.748	551.045	-0.101	-0.245
-714.733	-72.783	-0.016	-0.006
-713.718	800.000	0.033	0.101
-712.704	62.127	-0.150	-0.151
-711.689	326.568	-0.154	-0.297
-710.675	800.000	-0.029	0.097
-709.660	800.000	-0.049	0.204
-708.645	298.534	-0.071	0.131
-707.631	-86.891	-0.253	-0.078
-706.616	211.382	-0.036	0.057
-705.602	-105.454	-0.067	0.015
-704.587	-200.000	-0.009	-0.168
-703.572	171.421	0.061	-0.088
-702.558	13.847	-0.229	-0.179
-701.543	-85.850	0.111	-0.034
-700.529	673.738	-0.073	-0.191
-699.514	800.000	-0.070	-0.284
-698.499	-200.000	-0.056	0.316
-697.485	800.000	0.116	0.331
-696.470	37.126	-0.241	-0.214
-695.456	127.243	0.114	-0.146
-694.441	225.278	0.021	-0.034
-693.426	-122.670	-0.092	-0.015
-692.412	197.056	0.160	-0.246
-691.397	-65.526	-0.183	-0.074
-690.383	-56.261	0.188	0.084
-689.368	286.189	-0.148	0.267
-688.354	407.720	0.137	0.291
-687.339	74.550	-0.091	-0.096
-686.324	-133.158	0.053	-0.007
-685.310	200.363	-0.135	-0.209
-684.295	304.654	-0.119	-0.221
-683.281	-95.529	-0.147	0.040
-682.266	687.027	0.048	-0.127
-681.251	-60.644	-0.211	0.090
-680.237	-112.786	-0.095	-0.019
-679.222	-53.346	0.131	0.060
-678.208	217.504	0.078	0.124
-677.193	-139.706	0.116	0.012
-676.178	102.912	-0.021	-0.025
-675.164	-154.801	0.142	0.009
-674.149	-135.994	0.187	0.022
-673.135	295.677	-0.138	0.254
-672.120	32.324	-0.146	-0.127
-671.105	161.695	-0.098	-0.138
-670.091	-62.272	-0.211	0.088
-669.076	-20.236	-0.269	-0.166
-668.062	10.203	-0.139	-0.106
-667.047	-150.017	-0.263	-0.021
-666.032	800.000	-0.086	-0.256
-665.018	-104.567	0.041	0.010
-664.003	452.888	0.121	-0.268
-662.989	-200.000	0.004	-0.065
-661.974	-96.892	0.050	0.013
-660.959	-200.000	0.124	0.000
-659.945	800.000	0.057	-0.202
-658.930	46.417	0.234	0.218
-657.916	-200.000	-0.043	0.378
-656.901	-174.264	-0.478	-0.014
-655.886	-110.048	-0.085	0.018
-654.872	-105.071	-0.306	0.070
-653.857	493.497	-0.111	-0.255
-652.843	-200.000	0.049	0.234
-651.828	-200.000	0.045	0.198
-650.814	800.000	-0.027	0.107
-649.799	-200.000	-0.027	0.276
-648.784	-141.621	0.142	0.014
-647.770	-200.000	-0.030	0.247
-646.755	612.532	0.034	0.085
-645.741	643.686	-0.050	-0.128
-644.726	137.144	0.167	-0.218
-643.711	-17.118	0.112	0.071
-642.697	-94.179	0.254	0.070
-641.682	-8.684	-0.103	0.069
-640.668	-200.000	0.033	-0.243
-639.653	-200.000	-0.343	0.001
-638.638	13.737	-0.267	0.208
-637.624	-200.000	0.065	-0.395
-636.609	-21.798	-0.081	0.050
-635.595	6.253	-0.101	-0.075
-634.580	327.937	0.092	-0.177
-633.565	-73.559	-0.293	0.107
-632.551	114.560	-0.166	-0.203
-631.536	-188.555	-0.358	0.004
-630.522	-165.968	-0.082	-0.004
-629.507	-136.412	-0.317	-0.037
-628.492	-37.801	0.095	-0.050
-627.478	70.511	-0.310	0.322
-626.463	312.531	-0.162	0.305
-625.449	-102.393	0.109	-0.026
-624.434	-200.000	0.012	0.137
-623.419	-200.000	-0.023	-0.170
-622.405	-5.347	0.428	-0.294
-621.390	-200.000	0.081	-0.386
-620.376	59.018	-0.046	-0.046
-619.361	-168.486	0.198	0.008
-618.346	214.013	0.154	0.245
-617.332	800.000	-0.047	-0.204
-616.317	374.191	0.082	-0.168
-615.303	-3.562	-0.150	0.105
-614.288	138.847	-0.134	-0.177
-613.273	-200.000	0.020	0.162
-612.259	-145.424	0.167	-0.015
-611.244	-67.080	-0.200	-0.079
-610.230	333.650	0.100	0.194
-609.215	-173.273	-0.273	0.008
-608.201	800.000	0.069	-0.254
-607.186	409.534	0.179	-0.380
-606.171	19.528	0.071	0.057
-605.157	-200.000	0.009	0.065
-604.142	-100.897	0.118	-0.029
-603.128	28.685	-0.085	0.072
-602.113	800.000	0.021	0.060
-601.098	-63.088	0.233	0.096
-600.084	-200.000	0.011	0.088
-599.069	-106.371	-0.101	-0.023
-598.055	-76.500	-0.153	0.054
-597.040	-81.721	0.208	-0.068
-596.025	83.286	-0.226	0.247
-595.011	-60.075	-0.126	-0.054
-593.996	-200.000	-0.024	-0.118
-592.982	-200.000	0.043	0.261
-591.967	-54.355	0.287	0.130
-590.952	119.930	0.268	0.333
-589.938	-200.000	0.038	-0.249
-588.923	556.121	-0.040	-0.096
-587.909	141.422	0.084	-0.111
-586.894	-102.503	0.227	0.054
-585.879	318.717	0.187	-0.354
-584.865	432.824	0.062	0.134
-583.850	-200.000	-0.044	0.220
-582.836	-195.456	0.463	-0.003
-581.821	800.000	-0.018	-0.067
-580.806	249.138	-0.019	-0.032
-579.792	-17.040	0.102	-0.065
-578.777	-94.869	-0.509	0.138
-577.763	66.011	-0.154	0.156
-576.748	175.761	0.194	0.282
-575.733	-200.000	-0.012	-0.206
-574.719	-200.000	0.021	-0.281
-573.704	-45.006	0.330	-0.164
-572.690	85.068	-0.058	-0.064
-571.675	76.969	-0.135	-0.144
-570.661	505.614	0.063	0.146
-569.646	-22.733	-0.065	-0.039
-568.631	-4.435	0.145	-0.100
-567.617	-101.377	0.348	-0.085
-566.602	-21.638	0.205	0.125
-565.588	53.449	0.290	0.278
-564.573	403.946	-0.133	-0.280
-563.558	-200.000	-0.028	-0.147
-562.544	-84.892	0.270	-0.085
-561.529	-200.000	-0.026	0.180
-560.515	631.647	0.137	-0.347
-559.500	349.058	-0.069	-0.136
-558.485	728.514	0.056	0.149
-557.471	372.382	-0.100	-0.203
-556.456	-200.000	-0.129	-0.001
-555.442	174.698	-0.083	0.121
-554.427	182.506	0.211	0.312
-553.412	20.197	-0.020	0.016
-552.398	-90.473	0.073	-0.021
-551.383	-71.060	0.321	-0.121
-550.369	-112.649	0.369	0.073
-549.354	154.518	0.023	-0.032
-548.339	24.385	0.124	-0.102
-547.325	-75.672	-0.238	0.084
-546.310	3.588	-0.090	-0.066
-545.296	-200.000	-0.076	-0.403
-544.281	-8.641	-0.342	-0.229
-543.266	205.911	-0.179	-0.278
-542.252	-200.000	-0.049	0.323
-541.237	-43.092	-0.345	-0.175
-540.223	-91.956	0.426	0.120
-539.208	-200.000	0.004	0.155
-538.193	-120.863	-0.187	-0.031
-537.179	1.413	0.007	0.005
-536.164	177.559	0.055	0.079
-535.150	399.237	-0.068	0.143
-534.135	-161.179	-0.331	0.017
-533.121	-157.984	-0.135	-0.008
-532.106	-200.000	0.006	0.190
-531.091	-84.061	0.167	0.053
-530.077	-71.348	-0.197	-0.074
-529.062	-96.730	-0.251	0.066
-528.048	-41.289	0.265	-0.136
-527.033	-200.000	-0.071	0.397
-526.018	-60.418	-0.124	0.053
-525.004	800.000	-0.060	-0.241
-523.989	800.000	0.017	0.055
-522.975	212.461	0.076	-0.119
-521.960	-13.703	-0.177	-0.114
-520.945	24.665	0.025	0.021
-519.931	-81.548	-0.076	-0.025
-518.916	18.988	-0.293	-0.234
-517.902	-200.000	0.056	-0.434
-516.887	-64.764	-0.106	-0.043
-515.872	-200.000	0.149	0.001
-514.858	-200.000	0.023	0.325
-513.843	-147.844	0.257	0.021
-512.829	225.801	0.050	0.081
-511.814	32.271	-0.027	0.023
-510.799	800.000	-0.023	0.069
-509.785	-156.718	-0.188	0.012
-508.770	-200.000	-0.007	-0.095
-507.756	800.000	0.039	-0.141
-506.741	-154.140	0.603	0.041
-505.726	-200.000	0.015	0.317
-504.712	74.759	-0.031	-0.033
-503.697	-146.816	-0.216	0.019
-502.683	201.975	0.149	-0.228
-501.668	655.150	-0.104	0.267
-500.653	127.382	0.063	0.080
-499.639	112.033	-0.079	0.095
-498.624	-98.471	-0.302	-0.077
-497.610	-74.279	-0.223	-0.081
-496.595	-52.898	-0.291	0.134
-495.581	225.262	0.027	-0.044
-494.566	466.688	0.054	-0.120
-493.551	779.021	-0.033	0.089
-492.537	-54.344	0.078	0.035
-491.522	205.236	-0.120	-0.186
-490.508	-167.988	0.399	-0.016
-489.493	219.549	0.146	0.232
-488.478	171.921	-0.226	0.323
-487.464	-200.000	-0.033	-0.161
-486.449	-200.000	-0.014	0.287
-485.435	-59.522	-0.309	0.132
-484.420	336.017	-0.122	-0.237
-483.405	190.007	-0.157	-0.235
-482.391	-72.113	-0.319	-0.118
-481.376	323.295	-0.051	-0.096
-480.362	-200.000	-0.059	-0.265
-479.347	75.368	0.070	-0.073
-478.332	-33.800	-0.170	0.094
-477.318	-7.327	-0.106	-0.072
-476.303	-44.988	0.161	-0.080
-475.289	-37.113	-0.149	0.080
-474.274	800.000	-0.020	-0.076
-473.259	-101.644	-0.353	0.085
-472.245	-200.000	-0.037	-0.234
-471.230	-48.267	-0.171	-0.082
-470.216	-41.624	-0.070	-0.036
-469.201	273.122	0.043	0.076
-468.186	123.266	0.078	-0.097
-467.172	69.893	0.087	0.090
-466.157	9.702	0.096	0.072
-465.143	-107.807	-0.332	-0.072
-464.128	-29.905	0.046	0.026
-463.113	-135.521	0.410	0.049
-462.099	-34.452	0.333	0.182
-461.084	-114.862	0.198	-0.038
-460.070	237.401	-0.128	0.211
-459.055	269.615	0.152	0.267
-458.040	85.974	0.040	0.043
-457.026	737.769	-0.159	0.423
-456.011	-200.000	-0.039	0.183
-454.997	79.606	-0.156	0.167
-453.982	580.414	-0.216	0.526
-452.968	704.772	-0.015	-0.039
-451.953	-200.000	0.002	-0.405
-450.938	-8.186	0.123	-0.083
-449.924	800.000	0.073	0.266
-448.909	800.000	0.062	-0.270
-447.895	-80.393	-0.061	-0.020
-446.880	103.908	0.214	-0.250
-445.865	94.581	0.136	-0.154
-444.851	800.000	0.051	-0.144
-443.836	-133.768	0.125	-0.016
-442.822	800.000	0.074	0.287
-441.807	-67.184	0.302	0.118
-440.792	-136.908	0.187	-0.021
-439.778	69.986	-0.143	-0.147
-438.763	800.000	-0.053	0.215
-437.749	800.000	-0.074	0.202
-436.734	800.000	0.061	-0.233
-435.719	-57.215	0.236	0.103
-434.705	46.562	0.062	0.057
-433.690	-200.000	0.023	0.155
-432.676	800.000	-0.064	-0.206
-431.661	800.000	0.066	0.226
-430.646	-149.741	-0.352	0.027
-429.632	-200.000	0.006	0.261
-428.617	-77.354	-0.230	0.080
-427.603	-200.000	0.018	0.282
-426.588	-200.000	-0.004	0.083
-425.573	-200.000	0.072	0.336
-424.559	-200.000	-0.082	0.362
-423.544	73.170	-0.121	0.126
-422.530	204.293	0.190	0.292
-421.515	-200.000	0.018	-0.307
-420.500	-200.000	0.016	-0.354
-419.486	800.000	0.064	-0.271
-418.471	191.630	0.088	0.132
-417.457	261.941	0.192	-0.331
-416.442	-137.577	-0.227	-0.025
-415.428	12.871	0.207	-0.159
-414.413	7.743	0.163	-0.122
-413.398	-88.255	0.142	-0.042
-412.384	528.105	-0.082	-0.192
-411.369	743.440	-0.118	0.316
-410.355	-141.552	0.098	-0.010
-409.340	344.080	-0.005	0.010
-408.325	-139.936	-0.253	0.027
-407.311	-125.515	-0.316	-0.048
-406.296	119.652	0.217	0.267
-405.282	369.913	0.119	-0.239
-404.267	253.536	0.077	0.131
-403.252	538.502	-0.087	0.206
-402.238	-23.922	-0.133	-0.079
-401.223	119.324	0.156	-0.192
-400.209	-156.873	-0.168	-0.010
-399.194	-153.827	0.499	-0.034
-398.179	227.946	0.262	-0.423
-397.165	27.229	-0.207	0.172
-396.150	-200.000	-0.009	-0.225
-395.136	203.353	0.090	-0.138
-394.121	235.277	0.200	0.328
-393.106	219.113	0.091	-0.144
-392.092	-76.491	-0.079	-0.028
-391.077	56.382	-0.033	0.032
-390.063	-200.000	0.034	0.180
-389.048	248.441	0.247	0.415
-388.033	-33.739	-0.119	0.065
-387.019	-18.707	0.423	-0.262
-386.004	-200.000	-0.041	-0.340
-384.990	-2.039	-0.028	-0.020
-383.975	-200.000	0.017	0.348
-382.960	187.911	-0.184	-0.273
-381.946	-45.566	0.035	-0.017
-380.931	-36.976	-0.230	-0.122
-379.917	-117.074	-0.145	-0.026
-378.902	11.943	0.201	-0.154
-377.888	-46.396	0.006	0.003
-376.873	471.901	-0.062	-0.138
-375.858	-48.647	0.334	-0.159
-374.844	-17.482	0.304	-0.190
-373.829	-200.000	0.009	-0.082
-372.815	94.611	-0.172	0.194
-371.800	800.000	-0.024	-0.068
-370.785	800.000	0.090	0.266
-369.771	78.362	0.152	-0.161
-368.756	-54.343	-0.123	-0.056
-367.742	-200.000	0.030	0.300
-366.727	-94.865	-0.189	0.051
-365.712	-200.000	-0.029	-0.239
-364.698	35.126	0.120	0.104
-363.683	800.000	0.015	0.046
-362.669	-136.268	0.210	0.024
-361.654	-60.968	0.172	0.072
-360.639	-200.000	-0.017	-0.243
-359.625	-103.713	-0.137	0.032
-358.610	-75.563	-0.125	-0.044
-357.596	184.668	-0.042	0.062
-356.581	94.528	0.222	0.250
-355.566	498.126	-0.055	0.124
-354.552	264.953	0.129	-0.224
-353.537	-7.519	-0.117	0.079
-352.523	-200.000	0.040	0.422
-351.508	467.562	0.061	-0.135
-350.493	396.554	-0.091	0.188
-349.479	-32.531	-0.099	0.055
-348.464	20.590	-0.184	-0.148
-347.450	-74.807	-0.288	-0.102
-346.435	65.967	-0.007	0.007
-345.420	492.599	-0.093	0.212
-344.406	-75.313	-0.205	-0.072
-343.391	-31.329	-0.269	0.150
-342.377	-83.461	0.052	0.017
-341.362	431.331	-0.159	0.341
-340.348	-200.000	0.025	0.275
-339.333	-200.000	-0.006	0.227
-338.318	800.000	-0.040	-0.169
-337.304	70.060	-0.118	0.120
-336.289	215.011	0.107	0.168
-335.275	800.000	0.067	-0.188
-334.260	-136.499	0.118	0.014
-333.245	66.694	-0.055	0.056
-332.231	213.514	-0.094	0.147
-331.216	-63.250	0.073	0.030
-330.202	342.456	-0.157	0.304
-329.187	629.141	-0.068	0.170
-328.172	-200.000	-0.035	-0.221
-327.158	800.000	-0.033	-0.106
-326.143	98.874	0.168	-0.192
-325.129	-200.000	-0.005	0.334
-324.114	-200.000	0.167	-0.001
-323.099	-56.324	0.196	-0.086
-322.085	-37.587	0.211	-0.112
-321.070	342.740	-0.152	-0.295
-320.056	76.964	-0.235	-0.247
-319.041	223.345	0.186	-0.297
-318.026	218.856	-0.052	-0.083
-317.012	210.491	-0.124	0.193
-315.997	33.437	0.250	-0.215
-314.983	-83.322	0.098	-0.031
-313.968	-34.703	-0.210	-0.114
-312.953	73.775	0.245	0.254
-311.939	59.035	0.132	-0.129
-310.924	-200.000	0.044	0.282
-309.910	54.126	0.194	0.185
-308.895	-200.000	-0.090	-0.471
-307.880	98.172	-0.284	0.324
-306.866	10.044	0.117	-0.088
-305.851	-125.518	0.328	-0.049
-304.837	-37.889	-0.327	0.172
-303.822	-200.000	-0.036	-0.219
-302.807	-3.518	-0.148	0.102
-301.793	374.585	-0.098	0.198
-300.778	520.441	-0.030	-0.070
-299.764	-170.383	-0.371	-0.013
-298.749	-200.000	-0.077	-0.544
-297.735	-200.000	0.040	0.386
-296.720	16.342	0.229	0.179
-295.705	556.071	-0.057	-0.136
-294.691	0.500	-0.053	-0.037
-293.676	-200.000	0.018	0.244
-292.662	-44.022	-0.298	0.148
-291.647	-72.127	-0.167	-0.061
-290.632	-97.663	0.246	-0.063
-289.618	800.000	0.025	0.089
-288.603	-87.836	0.121	-0.036
-287.589	23.858	0.294	-0.239
-286.574	-200.000	-0.003	0.198
-285.559	76.569	0.210	0.220
-284.545	-178.234	0.294	-0.007
-283.530	800.000	-0.166	-0.503
-282.516	-200.000	-0.041	-0.212
-281.501	-93.870	-0.132	-0.036
-280.486	-200.000	-0.019	-0.136
-279.472	-200.000	0.007	0.120
-278.457	-32.846	0.208	0.114
-277.443	-200.000	-0.011	0.338
-276.428	-200.000	-0.024	0.213
-275.413	-200.000	0.096	0.489
-274.399	-72.263	0.219	0.080
-273.384	67.149	0.146	0.147
-272.370	-58.952	0.246	0.105
-271.355	800.000	-0.118	0.339
-270.340	-200.000	-0.004	-0.023
-269.326	-16.239	0.154	-0.097
-268.311	800.000	0.052	0.168
-267.297	-200.000	0.053	0.371
-266.282	-200.000	-0.034	-0.280
-265.267	-200.000	-0.009	-0.198
-264.253	73.743	-0.121	0.125
-263.238	800.000	-0.021	0.088
-262.224	5.623	0.314	-0.229
-261.209	-103.288	-0.361	0.084
-260.195	235.806	0.134	0.219
-259.180	79.276	0.100	-0.106
-258.165	-30.152	-0.184	0.104
-257.151	-200.000	0.030	-0.192
-256.136	-17.289	-0.208	0.129
-255.122	131.146	-0.156	-0.198
-254.107	-103.355	0.266	-0.062
-253.092	9.225	-0.180	0.134
-252.078	81.112	0.110	0.117
-251.063	-70.285	0.107	-0.040
-250.049	-200.000	-0.010	-0.372
-249.034	-109.539	-0.151	0.031
-248.019	-200.000	-0.016	-0.127
-247.005	-133.065	0.317	-0.040
-245.990	800.000	0.069	0.207
-244.976	-4.871	-0.211	0.144
-243.961	241.930	-0.081	-0.134
-242.946	-200.000	-0.007	0.168
-241.932	-132.518	-0.371	-0.047
-240.917	228.135	-0.052	0.084
-239.903	-54.553	0.056	0.025
-238.888	18.530	0.034	-0.027
-237.873	518.388	0.134	-0.311
-236.859	-116.831	-0.365	0.066
-235.844	-32.454	0.326	-0.180
-234.830	187.913	0.097	0.143
-233.815	-200.000	0.008	0.146
-232.800	40.187	-0.015	-0.013
-231.786	-200.000	0.010	0.122
-230.771	59.191	0.194	-0.188
-229.757	92.183	-0.262	-0.291
-228.742	-200.000	0.007	-0.142
-227.727	-141.740	0.141	-0.014
-226.713	-200.000	-0.010	-0.180
-225.698	13.595	0.168	-0.128
-224.684	236.715	-0.228	0.372
-223.669	84.019	0.060	0.064
-222.655	-200.000	-0.030	-0.189
-221.640	-58.666	-0.279	-0.119
-220.625	-200.000	-0.027	-0.150
-219.611	800.000	-0.131	0.402
-218.596	-65.187	-0.185	0.074
-217.582	800.000	-0.054	0.190
-216.567	-140.473	0.264	0.027
-215.552	-161.398	0.125	0.006
-214.538	-200.000	0.001	0.102
-213.523	-88.613	-0.100	0.029
-212.509	-78.070	-0.137	0.046
-211.494	-171.076	-0.191	0.006
-210.479	34.355	0.048	0.042
-209.465	-200.000	-0.000	-0.035
-208.450	800.000	-0.117	-0.351
-207.436	135.128	-0.165	-0.212
-206.421	265.409	0.090	0.154
-205.406	50.299	-0.204	0.190
-204.392	-111.255	-0.394	0.079
-203.377	-87.074	0.195	-0.059
-202.363	10.127	-0.138	-0.104
-201.348	9.164	0.148	-0.110
-200.333	-156.164	-0.121	0.007
-199.319	-151.621	0.525	-0.038
-198.304	258.223	0.129	0.219
-197.290	-125.223	0.264	-0.040
-196.275	-51.967	-0.276	-0.127
-195.260	-200.000	0.003	0.049
-194.246	-29.707	-0.290	-0.163
-193.231	18.988	0.312	-0.247
-192.217	-200.000	-0.011	-0.136
-191.202	202.906	0.164	-0.249
-190.187	-136.615	-0.170	-0.019
-189.173	-48.125	0.172	0.082
-188.158	-18.725	-0.138	-0.085
-187.144	-200.000	-0.083	-0.359
-186.129	41.076	-0.048	0.043
-185.114	321.615	0.145	-0.271
-184.100	-83.399	-0.231	0.073
-183.085	383.481	-0.132	-0.268
-182.071	97.941	-0.211	-0.240
-181.056	-119.420	0.208	0.036
-180.042	233.689	-0.134	-0.218
-179.027	-112.659	0.236	-0.046
-178.012	800.000	-0.047	-0.175
-176.998	2.764	0.185	0.132
-175.983	800.000	-0.045	0.154
-174.969	-4.045	-0.113	0.077
-173.954	-182.746	-0.328	0.006
-172.939	-6.217	-0.345	-0.232
-171.925	64.213	-0.144	0.142
-170.910	-141.594	0.256	-0.025
-169.896	800.000	-0.085	0.304
-168.881	800.000	0.072	0.287
-167.866	-51.815	0.253	0.116
-166.852	-123.543	0.164	-0.026
-165.837	-19.202	0.129	0.079
-164.823	318.535	-0.056	-0.104
-163.808	-69.328	0.270	0.102
-162.793	-112.512	-0.264	0.052
-161.779	145.001	0.192	-0.253
-160.764	-200.000	-0.003	0.069
-159.750	-3.572	-0.093	0.063
-158.735	800.000	-0.045	0.152
-157.720	-200.000	0.002	-0.076
-156.706	4.836	0.124	-0.090
-155.691	800.000	-0.047	-0.198
-154.677	-82.093	-0.388	-0.124
-153.662	-13.909	0.190	-0.121
-152.647	-37.802	-0.057	-0.030
-151.633	33.316	-0.139	-0.118
-150.618	-151.163	0.232	0.017
-149.604	-82.701	0.251	-0.080
-148.589	-51.928	0.138	0.063
-147.574	125.661	0.123	0.152
-146.560	327.974	-0.082	0.155
-145.545	800.000	0.128	0.486
-144.531	-200.000	-0.009	0.170
-143.516	800.000	0.115	0.381
-142.502	18.752	-0.246	0.193
-141.487	13.921	0.037	0.028
-140.472	470.107	-0.096	-0.211
-139.458	43.439	0.056	0.051
-138.443	50.496	-0.106	0.098
-137.429	-85.214	-0.164	0.050
-136.414	800.000	0.017	-0.049
-135.399	718.359	0.134	0.349
-134.385	-97.909	-0.305	0.077
-133.370	259.809	0.186	-0.316
-132.356	-200.000	0.005	0.030
-131.341	182.078	-0.122	-0.176
-130.326	-12.416	-0.087	0.056
-129.312	1.121	0.112	-0.079
-128.297	665.500	-0.062	-0.158
-127.283	800.000	0.087	-0.293
-126.268	22.745	-0.235	0.189
-125.253	412.830	-0.101	0.210
-124.239	-200.000	0.005	-0.210
-123.224	693.058	-0.113	0.292
-122.210	41.121	-0.187	-0.166
-121.195	52.010	-0.125	0.117
-120.180	-28.779	-0.047	0.026
-119.166	800.000	-0.096	0.263
-118.151	-200.000	0.018	0.082
-117.137	-177.493	-0.208	-0.005
-116.122	54.320	-0.219	0.208
-115.107	-89.347	0.263	0.076
-114.093	-45.148	-0.178	0.087
-113.078	371.539	-0.103	-0.204
-112.064	-38.874	-0.047	0.024
-111.049	-154.910	0.233	0.015
-110.034	144.475	-0.050	0.066
-109.020	205.037	-0.181	0.275
-108.005	239.509	-0.099	0.161
-106.991	165.604	0.305	0.424
-105.976	-187.082	0.397	0.005
-104.962	-85.593	-0.069	0.021
-103.947	50.460	0.156	-0.145
-102.932	-36.635	-0.266	0.140
-101.918	346.178	-0.034	0.066
-100.903	-200.000	0.074	-0.568
-99.889	44.984	-0.068	0.062
-98.874	-85.157	0.407	0.125
-97.859	-66.262	0.174	-0.068
-96.845	-62.879	0.102	0.042
-95.830	-200.000	-0.020	-0.138
-94.816	800.000	0.071	0.220
-93.801	-1.581	0.126	0.087
-92.786	800.000	-0.055	-0.223
-91.772	-91.778	-0.289	-0.081
-90.757	324.244	0.130	0.244
-89.743	218.686	-0.211	0.331
-88.728	120.726	0.202	0.246
-87.713	-18.477	-0.315	0.193
-86.699	-156.240	0.312	-0.019
-85.684	94.948	0.187	0.209
-84.670	27.018	-0.181	0.149
-83.655	258.417	-0.050	0.085
-82.640	121.354	-0.269	0.329
-81.626	15.041	0.071	0.055
-80.611	31.602	0.152	-0.128
-79.597	584.227	-0.065	-0.156
-78.582	71.612	0.254	0.259
-77.567	216.533	0.037	0.058
-76.553	-43.025	-0.274	0.136
-75.538	535.208	-0.041	0.096
-74.524	800.000	0.043	0.135
-73.509	30.624	0.132	0.111
-72.494	-152.509	0.390	-0.027
-71.480	196.054	0.086	-0.128
-70.465	1.417	0.098	0.069
-69.451	71.023	-0.202	-0.205
-68.436	-200.000	0.049	-0.366
-67.422	-20.797	-0.136	0.082
-66.407	-39.622	0.138	-0.071
-65.392	-60.366	-0.052	-0.022
-64.378	-92.067	0.230	0.064
-63.363	800.000	0.011	0.037
-62.349	-61.059	-0.171	-0.071
-61.334	55.685	-1.124	-1.067
-60.319	30.986	0.495	0.416
-59.305	800.000	-0.263	-1.073
-58.290	606.314	0.448	1.096
-57.276	461.679	0.765	1.672
-56.261	-200.000	106.142	615.891
-55.246	508.465	1509.000	3434.319
-54.232	176.221	2701.136	3844.394
-53.217	112.078	2165.379	2564.163
-52.203	41.493	1599.605	1418.761
-51.188	32.948	1333.812	1132.021
-50.173	29.801	1292.580	1078.668
-49.159	54.317	1346.595	1270.298
-48.144	54.562	1362.453	1286.662
-47.130	32.977	1317.026	1117.768
-46.115	29.558	1299.216	1082.607
-45.100	29.455	1294.195	1077.780
-44.086	29.352	1291.744	1075.093
-43.071	29.330	1289.432	1072.999
-42.057	29.343	1286.832	1070.868
-41.042	29.354	1285.977	1070.180
-40.027	29.304	1284.215	1068.382
-39.013	29.329	1282.317	1066.905
-37.998	29.417	1280.066	1065.494
-36.984	29.343	1279.182	1064.292
-35.969	29.520	1276.726	1063.226
-34.954	29.416	1274.969	1061.124
-33.940	29.506	1273.930	1060.735
-32.925	29.549	1272.432	1059.691
-31.911	29.592	1270.846	1058.575
-30.896	29.566	1269.868	1057.570
-29.881	29.492	1268.372	1055.854
-28.867	29.589	1266.454	1054.773
-27.852	29.571	1265.353	1053.711
-26.838	29.511	1263.983	1052.186
-25.823	29.600	1262.565	1051.468
-24.809	29.494	1261.409	1049.862
-23.794	29.413	1260.355	1048.483
-22.779	29.460	1258.659	1047.300
-21.765	29.583	1257.211	1046.751
-20.750	29.563	1256.126	1045.692
-19.736	29.491	1254.648	1044.010
-18.721	29.400	1253.659	1042.633
-17.706	29.445	1251.929	1041.407
-16.692	29.386	1251.400	1040.591
-15.677	29.463	1250.482	1040.219
-14.663	29.253	1249.715	1038.359
-13.648	29.333	1248.227	1037.533
-12.633	29.316	1247.374	1036.689
-11.619	29.330	1246.271	1035.809
-10.604	29.338	1245.722	1035.357
-9.590	29.315	1244.749	1034.377
-8.575	29.314	1243.768	1033.517
-7.560	29.313	1243.076	1032.890
-6.546	29.417	1241.954	1032.502
-5.531	29.460	1240.867	1031.799
-4.517	29.428	1239.997	1030.853
-3.502	29.505	1239.351	1030.708
-2.487	29.438	1238.324	1029.437
-1.473	29.380	1233.947	1025.434
-0.458	28.004	1219.608	1005.911
0.556	22.232	1202.685	969.004
1.571	18.643	1208.706	953.856
2.586	17.871	1222.732	960.496
3.600	17.949	1212.300	952.651
4.615	13.471	1141.622	873.457
5.629	4.627	1067.461	772.851
6.644	0.145	1046.940	736.039
7.659	-0.331	1044.564	731.982
8.673	-0.390	1043.472	730.865
9.688	-0.392	1041.529	729.432
10.702	0.008	1040.819	730.813
11.717	6.085	1048.780	766.032
12.731	15.081	1061.581	819.532
13.746	19.678	1067.192	846.355
14.761	20.696	1068.363	852.197
15.775	20.750	1067.992	852.089
16.790	20.550	1067.089	850.317
17.804	20.496	1066.643	849.623
18.819	20.626	1066.151	849.792
19.834	20.657	1065.723	849.524
20.848	20.565	1065.787	849.053
21.863	20.619	1065.013	848.624
22.877	20.597	1064.152	847.754
23.892	20.498	1063.610	846.766
24.907	20.630	1062.713	846.618
25.921	20.677	1061.457	845.771
26.936	20.572	1060.101	844.107
27.950	20.610	1058.306	842.791
28.965	20.373	1057.218	840.702
29.980	20.505	1054.843	839.376
30.994	20.670	1054.217	839.601
32.009	20.702	1052.700	838.469
33.023	20.424	1051.906	836.427
34.038	20.578	1050.595	836.052
35.053	20.698	1050.264	836.288
36.067	20.682	1049.355	835.414
37.082	20.830	1048.463	835.339
38.096	20.859	1048.427	835.376
39.111	20.998	1047.349	835.110
40.126	20.787	1045.472	832.532
41.140	20.392	1044.114	829.490
42.155	20.194	1042.858	827.475
43.169	20.262	1041.966	827.017
44.184	20.424	1040.142	826.265
45.199	20.257	1039.755	825.093
46.213	20.352	1038.779	824.697
47.228	20.456	1037.994	824.491
48.242	20.678	1036.605	824.368
49.257	20.542	1036.691	823.721
50.271	20.631	1035.419	823.059
51.286	20.764	1034.207	822.651
52.301	20.790	1033.011	821.747
53.315	20.599	1032.455	820.330
54.330	20.604	1031.613	819.613
55.344	20.670	1031.259	819.573
56.359	20.638	1029.690	818.102
57.374	20.464	1028.947	816.623
58.388	20.444	1028.483	816.084
59.403	20.420	1027.397	815.040
60.417	20.105	1026.613	812.868
61.432	20.365	1025.773	813.349
62.447	20.364	1025.164	812.789
63.461	20.529	1024.138	812.676
64.476	20.474	1023.222	811.621
65.490	20.395	1022.006	810.215
66.505	20.453	1021.392	809.927
67.520	20.546	1020.773	809.798
68.534	20.261	1019.580	807.452
69.549	20.087	1018.527	805.738
70.563	20.008	1017.950	804.844
71.578	19.954	1017.094	803.847
72.593	19.860	1016.076	802.537
73.607	19.970	1015.845	802.792
74.622	20.298	1015.402	803.891
75.636	20.457	1013.897	803.364
76.651	20.150	1013.286	801.386
77.666	20.105	1012.612	800.576
78.680	20.110	1012.102	800.124
79.695	20.255	1011.241	800.042
80.709	20.419	1011.086	800.604
81.724	20.312	1009.832	799.051
82.739	20.410	1009.319	799.023
83.753	20.704	1008.634	799.760
84.768	20.936	1008.171	800.388
85.782	20.916	1007.130	799.400
86.797	20.909	1005.985	798.387
87.812	20.776	1004.935	796.875
88.826	20.816	1004.302	796.485
89.841	20.956	1003.021	796.038
90.855	20.880	1002.018	794.826
91.870	20.861	1001.229	794.046
92.884	20.679	1000.232	792.357
93.899	20.689	998.991	791.345
94.914	20.816	998.181	791.211
95.928	20.665	996.996	789.517
96.943	20.410	996.228	787.682
97.957	20.188	995.151	785.754
98.972	20.205	993.349	784.340
99.987	20.397	993.002	784.865
101.001	20.497	992.616	784.942
102.016	20.478	991.629	784.008
103.030	20.395	990.678	782.812
104.045	20.294	989.486	781.348
105.060	20.192	988.390	779.953
106.074	20.431	987.891	780.564
107.089	20.875	987.328	782.045
108.103	20.636	986.182	779.995
109.118	20.377	985.071	777.886
110.133	20.469	984.019	777.399
111.147	20.207	982.668	775.090
112.162	20.182	981.661	774.116
113.176	20.353	981.262	774.498
114.191	20.272	980.103	773.152
115.206	19.962	978.885	770.743
116.220	19.921	978.620	770.284
117.235	20.242	977.387	770.673
118.249	20.112	976.596	769.403
119.264	20.016	975.561	768.096
120.279	20.201	974.928	768.350
121.293	20.235	974.111	767.785
122.308	20.285	973.249	767.261
123.322	20.218	971.703	765.678
124.337	20.059	970.708	764.123
125.352	19.468	969.127	760.211
126.366	19.489	968.190	759.500
127.381	20.361	967.787	762.950
128.395	20.656	967.529	763.975
129.410	20.652	966.699	763.234
130.424	20.648	965.063	761.858
131.439	20.585	964.641	761.182
132.454	20.502	963.931	760.192
133.468	20.503	962.670	759.136
134.483	20.386	962.676	758.560
135.497	20.853	961.767	759.816
136.512	20.807	960.546	758.583
137.527	20.774	959.743	757.737
138.541	20.820	958.920	757.220
139.556	20.852	957.813	756.420
140.570	20.857	957.708	756.291
141.585	20.824	956.166	754.862
142.600	20.837	954.993	753.928
143.614	21.062	954.324	754.305
144.629	21.151	953.667	754.102
145.643	21.028	952.194	752.341
146.658	20.837	950.998	750.508
147.673	20.632	950.205	748.930
148.687	20.623	949.784	748.494
149.702	20.603	948.015	746.949
150.716	20.608	947.328	746.365
151.731	20.713	946.928	746.430
152.746	21.011	946.183	747.056
153.760	20.996	945.552	746.429
154.775	21.159	944.386	746.135
155.789	20.953	943.827	744.750
156.804	20.886	942.914	743.678
157.819	21.067	942.094	743.736
158.833	20.955	941.613	742.815
159.848	21.006	940.908	742.409
160.862	20.964	939.414	740.986
161.877	20.756	938.839	739.583
162.892	21.056	937.635	739.842
163.906	20.982	936.216	738.345
164.921	21.064	935.308	737.908
165.935	20.971	934.792	737.043
166.950	21.066	933.684	736.508
167.964	20.947	932.852	735.283
168.979	20.895	931.595	734.006
169.994	20.695	930.617	732.330
171.008	21.032	930.489	733.585
172.023	20.971	929.277	732.306
173.037	20.923	927.984	731.020
174.052	20.799	926.949	729.622
175.067	20.711	926.869	729.123
176.081	20.966	925.971	729.423
177.096	20.776	925.743	728.383
178.110	20.582	924.185	726.284
179.125	20.448	923.708	725.282
180.140	20.541	923.540	725.474
181.154	20.686	923.099	725.669
182.169	20.784	923.208	726.099
183.183	20.920	922.854	726.324
184.198	20.987	921.291	725.308
185.213	20.855	920.746	724.268
186.227	20.986	920.045	724.196
187.242	21.105	919.291	724.030
188.256	21.121	918.716	723.583
189.271	21.132	917.518	722.618
190.286	20.737	916.419	720.055
191.300	20.211	915.313	716.947
192.315	19.622	913.691	713.182
193.329	19.480	913.649	712.503
194.344	20.393	913.773	716.303
195.359	20.938	913.617	718.366
196.373	20.949	913.226	718.039
197.388	20.812	912.607	716.926
198.402	20.851	911.658	716.275
199.417	20.817	911.080	715.618
200.432	20.746	909.914	714.350
201.446	20.335	909.643	712.388
202.461	20.435	908.753	712.035
203.475	19.676	906.890	707.406
204.490	18.879	905.731	703.183
205.504	19.868	906.489	707.757
206.519	20.529	905.890	709.925
207.534	20.562	905.532	709.716
208.548	20.851	905.216	710.586
209.563	20.801	904.271	709.577
210.577	20.717	903.739	708.756
211.592	21.060	903.768	710.113
212.607	21.084	902.538	709.180
213.621	21.140	902.170	709.055
214.636	21.000	901.095	707.580
215.650	20.892	900.565	706.664
216.665	20.911	900.577	706.688
217.680	20.980	899.483	706.044
218.694	20.662	897.718	703.311
219.709	20.468	897.396	702.213
220.723	20.740	897.455	703.296
221.738	20.765	896.610	702.673
222.753	20.854	895.773	702.316
223.767	20.899	895.406	702.146
224.782	21.062	895.135	702.527
225.796	21.208	894.389	702.467
226.811	20.414	893.012	698.131
227.826	19.826	892.072	694.974
228.840	20.049	891.608	695.448
229.855	20.100	890.475	694.706
230.869	19.797	889.361	692.564
231.884	20.202	889.447	694.190
232.899	20.930	889.575	697.140
233.913	20.845	888.679	696.037
234.928	20.801	888.066	695.321
235.942	20.806	887.290	694.672
236.957	20.564	886.605	693.107
237.972	20.408	886.568	692.398
238.986	20.531	885.672	692.124
240.001	20.710	884.630	691.963
241.015	20.792	883.935	691.682
242.030	20.805	883.810	691.574
243.045	20.833	883.431	691.328
244.059	21.062	882.906	691.763
245.074	20.739	882.245	689.905
246.088	20.406	881.188	687.701
247.103	20.719	880.886	688.641
248.117	21.371	880.494	690.853
249.132	21.429	879.851	690.515
250.147	21.502	879.545	690.502
251.161	21.595	878.949	690.341
252.176	21.591	878.455	689.877
253.190	21.748	877.475	689.663
254.205	21.939	877.479	690.356
255.220	21.869	876.952	689.606
256.234	21.686	876.136	688.186
257.249	21.591	875.102	686.939
258.263	21.774	874.218	686.901
259.278	21.763	873.740	686.419
260.293	21.749	873.464	686.088
261.307	21.471	872.519	684.199
262.322	21.488	871.276	683.228
263.336	20.599	869.948	678.660
264.351	19.592	867.735	672.953
265.366	19.746	867.776	673.523
266.380	20.962	867.892	678.290
267.395	21.364	867.433	679.433
268.409	21.247	866.812	678.433
269.424	21.427	867.123	679.313
270.439	21.463	866.147	678.630
271.453	21.691	865.039	678.585
272.468	21.762	865.306	679.009
273.482	21.922	864.401	678.857
274.497	21.431	863.268	676.013
275.512	21.029	862.347	673.679
276.526	21.468	862.703	675.592
277.541	21.531	862.033	675.251
278.555	21.362	861.159	673.854
279.570	21.182	860.485	672.574
280.585	21.399	860.259	673.175
281.599	21.282	859.211	671.845
282.614	20.866	857.626	668.947
283.628	20.787	857.405	668.412
284.643	20.974	857.401	669.068
285.657	20.748	856.157	667.174
286.672	20.539	855.102	665.492
287.687	21.227	854.724	667.770
288.701	21.287	854.181	667.517
289.716	20.919	853.572	665.575
290.730	20.704	852.687	664.007
291.745	20.565	851.830	662.752
292.760	20.842	852.005	663.885
293.774	21.788	852.399	667.738
294.789	22.063	851.687	668.167
295.803	22.085	851.493	668.039
296.818	22.111	850.630	667.401
297.833	21.739	849.529	665.066
298.847	21.626	848.871	664.065
299.862	21.989	848.353	664.974
300.876	22.199	848.014	665.449
301.891	22.036	847.543	664.401
302.906	21.546	846.559	661.720
303.920	21.694	846.120	661.877
304.935	22.029	845.953	662.954
305.949	22.016	845.197	662.252
306.964	21.700	844.958	660.815
307.979	21.724	844.331	660.356
308.993	22.236	843.800	661.810
310.008	22.116	843.187	660.819
311.022	21.774	842.721	659.111
312.037	21.806	841.695	658.372
313.052	21.522	840.898	656.622
314.066	20.675	839.449	652.258
315.081	20.440	838.573	650.642
316.095	21.362	839.134	654.473
317.110	21.632	838.833	655.190
318.125	20.879	837.045	650.924
319.139	19.966	835.918	646.581
320.154	20.033	835.654	646.571
321.168	20.866	836.466	650.252
322.183	21.491	835.885	652.075
323.197	21.642	835.508	652.282
324.212	21.946	835.078	653.021
325.227	21.810	834.895	652.313
326.241	21.709	833.757	650.991
327.256	21.780	832.824	650.472
328.270	21.728	832.419	649.905
329.285	21.305	832.148	648.067
330.300	21.327	830.805	647.042
331.314	21.376	830.838	647.194
332.329	21.812	830.755	648.685
333.343	21.986	829.565	648.343
334.358	22.012	829.638	648.438
335.373	22.178	829.146	648.608
336.387	22.214	829.529	648.983
337.402	22.283	829.136	648.873
338.416	22.125	828.893	648.041
339.431	22.362	828.025	648.180
340.446	22.512	827.908	648.581
341.460	22.405	827.391	647.726
342.475	22.099	827.092	646.308
343.489	22.429	826.180	646.753
344.504	22.613	826.053	647.272
345.519	22.859	825.645	647.796
346.533	22.671	825.473	646.913
347.548	22.752	825.140	646.894
348.562	22.709	824.466	646.151
349.577	22.775	823.651	645.698
350.592	22.723	823.045	644.972
351.606	22.761	822.083	644.300
352.621	22.486	821.468	642.761
353.635	22.498	820.907	642.306
354.650	21.843	819.245	638.564
355.665	20.964	817.701	634.108
356.679	21.436	817.667	635.744
357.694	21.891	817.133	636.927
358.708	21.740	816.458	635.795
359.723	22.071	816.800	637.206
360.738	22.164	816.700	637.407
361.752	22.252	816.316	637.373
362.767	22.728	815.444	638.357
363.781	22.856	815.474	638.786
364.796	22.969	814.865	638.660
365.810	23.245	814.034	638.949
366.825	23.136	813.854	638.360
367.840	22.834	812.821	636.403
368.854	22.438	812.254	634.475
369.869	22.390	811.930	633.995
370.883	22.457	811.669	633.975
371.898	22.458	811.156	633.523
372.913	22.469	810.689	633.141
373.927	22.583	810.132	633.060
374.942	22.661	809.988	633.171
375.956	22.746	809.707	633.202
376.971	22.960	809.110	633.445
377.986	23.129	808.574	633.573
379.000	22.975	807.901	632.440
380.015	22.790	807.889	631.714
381.029	22.878	806.957	631.245
382.044	22.869	806.730	630.979
383.059	22.962	805.968	630.659
384.073	23.077	805.822	630.899
385.088	23.092	804.581	629.926
386.102	22.817	804.371	628.726
387.117	22.803	803.510	627.947
388.132	22.423	802.504	625.754
389.146	21.884	801.885	623.301
390.161	22.335	801.464	624.520
391.175	22.690	801.215	625.531
392.190	22.339	800.170	623.414
393.205	21.064	798.312	617.404
394.219	19.756	796.471	611.305
395.234	19.647	796.551	610.926
396.248	21.325	798.205	618.079
397.263	22.837	798.371	623.499
398.278	22.372	798.452	621.861
399.292	22.380	797.461	621.063
400.307	22.368	797.201	620.765
401.321	22.352	797.009	620.504
402.336	22.926	796.649	622.192
403.350	23.261	796.434	623.147
404.365	23.334	796.354	623.286
405.380	23.689	795.677	623.949
406.394	23.671	795.221	623.472
407.409	23.638	794.790	622.965
408.423	23.524	794.474	622.261
409.438	23.671	794.092	622.423
410.453	23.647	794.041	622.245
411.467	23.676	792.871	621.371
412.482	23.641	792.885	621.205
413.496	23.730	792.760	621.366
414.511	23.795	792.087	621.010
415.526	23.763	791.542	620.415
416.540	23.456	790.989	618.855
417.555	23.314	790.028	617.555
418.569	23.257	789.904	617.203
419.584	23.340	789.395	617.041
420.599	23.090	788.834	615.678
421.613	157.671	1365.287	1798.049
422.628	136.498	1449.257	1798.168
