DTS Sentinel unit serial number:	SN413079Multiplexer serial number:	ORYXHardware model number:	OX4-SRSoftware version number:	ORYX F/W v4.00 Oryx Data Collector v3.7.2.0data status	okinstallation	princeton_trtdifferential loss correction	single-endedforward channel	channel 1reverse channel	N/Adate	2019/09/11time	10:20:11forward acquisition time	60.00reverse acquisition time	0.00gamma	496.2192k internal	0.2299k external	0.2299temperature offset calibration	0.9952default loss term (dB/km)	0.3790temperature slope calibration	1.0000multiplexer offset coefficient	1.0000multiplexer slope coefficient	1.0000fibre end	0.00T internal ref (°C)	36.08T ext. ref 1 (°C)	0.14T ext. ref 2 (°C)	33.03length (m)	temperature (°C)	Stokes	anti-Stokes-747.200	-20.187	0.182	0.115
-746.185	313.104	-0.104	0.200
-745.171	-89.321	-0.226	0.068
-744.156	95.863	0.158	0.184
-743.142	16.922	0.242	-0.195
-742.127	19.056	0.168	0.137
-741.112	127.910	0.176	-0.229
-740.098	463.151	0.024	-0.055
-739.083	-25.244	-0.282	0.170
-738.069	-89.380	0.203	0.061
-737.054	23.531	0.208	0.175
-736.039	180.115	-0.247	-0.369
-735.025	-200.000	0.011	-0.156
-734.010	60.640	-0.111	0.113
-732.996	100.378	-0.079	-0.093
-731.981	-133.750	-0.223	0.028
-730.966	16.362	0.249	0.201
-729.952	-200.000	0.035	0.204
-728.937	399.452	-0.127	-0.272
-727.923	-96.300	-0.197	0.053
-726.908	-200.000	-0.017	0.139
-725.894	-200.000	0.015	-0.575
-724.879	-200.000	0.012	0.068
-723.864	-172.916	-0.411	-0.013
-722.850	800.000	-0.068	-0.232
-721.835	151.588	-0.133	-0.185
-720.821	-128.836	-0.255	-0.037
-719.806	-200.000	-0.013	-0.101
-718.791	308.071	-0.098	0.185
-717.777	-200.000	-0.008	-0.114
-716.762	371.482	-0.212	0.439
-715.748	-38.355	0.269	-0.145
-714.733	64.080	0.323	-0.331
-713.718	-191.152	0.247	0.003
-712.704	-200.000	-0.022	0.264
-711.689	-200.000	0.018	0.113
-710.675	-200.000	-0.006	0.313
-709.660	-200.000	0.005	-0.058
-708.645	118.944	-0.042	0.053
-707.631	-200.000	0.001	0.143
-706.616	92.892	-0.245	-0.283
-705.602	426.483	0.083	-0.182
-704.587	-140.994	-0.080	0.008
-703.572	-200.000	0.034	0.195
-702.558	-8.356	-0.195	-0.134
-701.543	216.342	-0.176	0.285
-700.529	-93.286	0.174	-0.049
-699.514	81.423	-0.153	-0.168
-698.499	17.901	-0.237	0.192
-697.485	-70.675	0.122	0.047
-696.470	-43.056	0.077	0.040
-695.456	-156.734	0.143	0.009
-694.441	-108.030	0.294	-0.065
-693.426	485.761	-0.147	-0.341
-692.412	197.114	-0.165	-0.256
-691.397	800.000	0.077	-0.296
-690.383	-106.503	0.109	-0.025
-689.368	90.652	-0.134	-0.153
-688.354	518.983	0.042	0.100
-687.339	94.515	0.046	0.054
-686.324	-56.864	-0.251	0.113
-685.310	-30.291	0.075	0.043
-684.295	-200.000	-0.001	0.069
-683.281	800.000	0.037	0.131
-682.266	13.270	-0.073	0.058
-681.251	177.826	0.110	-0.163
-680.237	800.000	-0.031	0.106
-679.222	-200.000	0.027	-0.257
-678.208	42.132	-0.291	-0.269
-677.193	-156.684	-0.348	-0.022
-676.178	-171.742	-0.367	-0.012
-675.164	-155.806	0.431	0.028
-674.149	-101.140	0.172	0.043
-673.135	-74.539	0.373	-0.137
-672.120	290.709	0.187	-0.346
-671.105	800.000	-0.064	0.196
-670.091	-31.912	-0.141	0.080
-669.076	102.339	-0.078	-0.092
-668.062	14.296	-0.251	-0.199
-667.047	124.925	-0.082	0.105
-666.032	800.000	0.133	0.381
-665.018	241.135	0.011	-0.019
-664.003	-175.827	0.249	-0.007
-662.989	-69.470	0.087	0.034
-661.974	-94.821	-0.374	-0.103
-660.959	86.915	0.013	0.015
-659.945	-40.707	0.095	-0.050
-658.930	-200.000	-0.003	-0.469
-657.916	4.046	-0.148	-0.110
-656.901	-200.000	0.011	0.193
-655.886	-200.000	0.026	-0.158
-654.872	165.546	-0.127	-0.183
-653.857	614.334	0.099	-0.253
-652.843	59.807	0.081	0.081
-651.828	-45.937	-0.155	0.078
-650.814	800.000	-0.024	-0.084
-649.799	72.182	-0.122	-0.129
-648.784	-127.336	0.318	0.047
-647.770	800.000	-0.047	-0.158
-646.755	-200.000	0.003	-0.292
-645.741	-133.848	-0.314	0.040
-644.726	800.000	-0.050	-0.173
-643.711	800.000	-0.074	0.213
-642.697	-200.000	0.028	-0.213
-641.682	-89.882	0.384	0.114
-640.668	-22.815	0.066	0.041
-639.653	-200.000	-0.030	-0.211
-638.638	800.000	0.109	-0.477
-637.624	-200.000	0.010	0.141
-636.609	-50.568	-0.140	0.067
-635.595	-75.749	0.432	0.156
-634.580	-80.935	-0.328	-0.110
-633.565	-200.000	0.009	-0.200
-632.551	-44.346	-0.221	-0.112
-631.536	200.071	-0.095	-0.147
-630.522	-106.427	0.315	0.071
-629.507	18.482	0.107	-0.087
-628.492	71.221	0.197	-0.208
-627.478	-58.755	0.203	0.089
-626.463	-113.977	-0.230	-0.045
-625.449	-89.805	-0.170	-0.051
-624.434	49.899	0.084	-0.081
-623.419	100.483	-0.318	-0.375
-622.405	-157.891	0.296	-0.018
-621.390	-80.233	0.447	0.152
-620.376	-65.641	0.081	0.033
-619.361	-200.000	0.041	-0.208
-618.346	360.200	-0.089	-0.181
-617.332	100.749	-0.161	0.190
-616.317	-95.483	-0.145	-0.039
-615.303	-200.000	0.028	0.328
-614.288	-77.734	0.059	-0.021
-613.273	-181.954	0.165	0.003
-612.259	800.000	0.070	0.258
-611.244	-99.337	0.381	0.098
-610.230	12.868	-0.221	0.174
-609.215	185.458	0.095	-0.143
-608.201	-56.106	-0.038	0.017
-607.186	131.586	-0.256	-0.335
-606.171	146.634	-0.230	-0.313
-605.157	-64.570	-0.167	0.069
-604.142	73.114	-0.146	-0.155
-603.128	17.049	0.176	0.141
-602.113	-80.104	0.161	0.055
-601.098	-173.532	-0.128	0.004
-600.084	-183.395	0.332	0.006
-599.069	800.000	0.096	-0.287
-598.055	117.685	0.080	0.100
-597.040	-200.000	-0.004	-0.051
-596.025	-30.577	0.253	-0.145
-595.011	-67.015	0.175	-0.070
-593.996	263.423	-0.102	-0.180
-592.982	-200.000	0.005	-0.050
-591.967	-200.000	0.017	-0.308
-590.952	-123.611	-0.122	0.020
-589.938	43.107	0.076	0.070
-588.923	800.000	-0.085	0.300
-587.909	118.221	0.229	-0.287
-586.894	-130.671	0.275	-0.038
-585.879	92.067	0.192	0.219
-584.865	-72.818	-0.176	-0.066
-583.850	160.568	-0.088	0.125
-582.836	-22.122	0.080	-0.049
-581.821	800.000	-0.029	0.096
-580.806	121.735	-0.066	-0.084
-579.792	-9.497	-0.124	0.084
-578.777	723.161	0.167	-0.450
-577.763	-28.086	-0.308	0.181
-576.748	-87.368	0.385	0.118
-575.733	-47.775	0.106	0.052
-574.719	800.000	0.097	-0.378
-573.704	800.000	0.064	-0.223
-572.690	-53.729	0.263	0.122
-571.675	-73.420	-0.252	0.093
-570.661	364.102	0.067	-0.137
-569.646	-134.185	-0.147	-0.018
-568.631	800.000	-0.032	0.099
-567.617	345.089	0.021	0.042
-566.602	-200.000	0.065	0.301
-565.588	468.234	0.099	0.225
-564.573	114.334	-0.178	-0.219
-563.558	-130.515	-0.032	0.004
-562.544	-200.000	0.034	0.305
-561.529	-200.000	0.002	0.028
-560.515	19.893	-0.408	-0.333
-559.500	-200.000	-0.036	-0.431
-558.485	25.141	-0.111	0.094
-557.471	700.053	-0.032	-0.085
-556.456	14.695	-0.107	-0.085
-555.442	80.710	-0.069	-0.076
-554.427	-200.000	-0.015	-0.208
-553.412	214.610	-0.069	0.110
-552.398	20.470	-0.226	0.185
-551.383	-104.284	0.151	0.036
-550.369	151.239	0.134	-0.185
-549.354	800.000	-0.055	-0.178
-548.339	800.000	-0.023	-0.093
-547.325	-27.438	0.388	0.229
-546.310	800.000	-0.033	0.123
-545.296	-200.000	-0.005	-0.085
-544.281	345.869	0.069	-0.138
-543.266	111.105	-0.207	0.253
-542.252	124.182	0.029	-0.037
-541.237	65.090	-0.091	0.093
-540.223	-200.000	-0.033	-0.258
-539.208	-200.000	-0.014	-0.162
-538.193	-200.000	-0.016	-0.172
-537.179	-49.698	-0.121	0.058
-536.164	-103.923	0.381	-0.090
-535.150	800.000	0.090	-0.304
-534.135	95.936	-0.135	0.156
-533.121	96.936	0.104	-0.121
-532.106	-200.000	0.011	-0.112
-531.091	48.593	-0.023	-0.022
-530.077	-171.718	-0.332	0.011
-529.062	-200.000	-0.008	0.058
-528.048	-200.000	0.034	0.306
-527.033	-7.385	0.127	0.087
-526.018	51.149	0.016	0.015
-525.004	-56.258	-0.133	0.060
-523.989	-42.137	0.441	0.228
-522.975	271.175	0.201	0.359
-521.960	800.000	0.036	0.100
-520.945	800.000	0.110	0.391
-519.931	800.000	0.085	-0.286
-518.916	-131.106	0.328	0.044
-517.902	-40.414	-0.257	0.135
-516.887	-200.000	-0.021	-0.491
-515.872	800.000	-0.048	0.173
-514.858	-79.325	-0.287	0.098
-513.843	588.110	-0.047	0.117
-512.829	-96.392	0.431	0.115
-511.814	-42.330	0.145	-0.075
-510.799	-200.000	0.033	-0.256
-509.785	800.000	0.014	-0.049
-508.770	-78.104	0.210	0.073
-507.756	314.238	0.105	-0.201
-506.741	-78.720	-0.302	0.104
-505.726	-133.811	0.187	0.024
-504.712	-19.682	-0.353	-0.221
-503.697	-10.652	-0.230	-0.154
-502.683	43.781	-0.263	0.243
-501.668	160.195	-0.109	-0.153
-500.653	-200.000	-0.019	0.208
-499.639	6.785	0.278	0.209
-498.624	-83.494	0.106	-0.034
-497.610	-53.638	0.072	0.033
-496.595	-200.000	-0.068	0.437
-495.581	-110.307	0.103	-0.022
-494.566	-35.029	-0.377	-0.207
-493.551	235.776	0.119	0.199
-492.537	61.895	0.353	0.356
-491.522	80.153	-0.351	0.381
-490.508	-138.792	-0.285	0.031
-489.493	-109.586	0.096	0.020
-488.478	800.000	0.089	0.257
-487.464	144.786	-0.113	-0.153
-486.449	88.649	-0.312	0.350
-485.435	-200.000	0.147	-0.000
-484.420	-200.000	-0.038	-0.403
-483.405	437.137	-0.113	0.249
-482.391	306.886	-0.124	-0.234
-481.376	332.157	0.043	-0.084
-480.362	-166.374	0.299	0.013
-479.347	-136.532	0.266	-0.031
-478.332	141.859	0.198	-0.265
-477.318	-146.360	-0.159	-0.014
-476.303	-141.254	-0.147	0.015
-475.289	40.169	-0.140	0.127
-474.274	-200.000	0.001	-0.009
-473.259	-200.000	-0.031	0.174
-472.245	250.577	-0.079	-0.135
-471.230	56.347	0.087	-0.085
-470.216	-200.000	0.094	-0.451
-469.201	-200.000	-0.057	-0.333
-468.186	193.169	0.138	0.211
-467.172	123.033	0.189	0.239
-466.157	-64.859	0.215	0.088
-465.143	188.654	0.153	0.231
-464.128	-200.000	0.038	0.198
-463.113	-124.603	-0.262	0.041
-462.099	-138.643	0.334	-0.037
-461.084	-38.526	0.111	0.059
-460.070	98.603	-0.126	0.147
-459.055	-150.835	0.245	0.019
-458.040	21.793	-0.194	0.159
-457.026	69.212	0.074	0.077
-456.011	-81.855	-0.115	0.038
-454.997	44.076	0.076	0.070
-453.982	-22.873	0.307	-0.187
-452.968	-171.743	0.057	-0.002
-451.953	603.417	-0.065	-0.164
-450.938	180.573	-0.151	0.224
-449.924	-42.279	0.213	0.110
-448.909	530.195	-0.019	-0.046
-447.895	15.170	0.328	0.259
-446.880	-75.692	-0.153	-0.055
-445.865	-50.322	0.177	-0.084
-444.851	-200.000	-0.040	-0.201
-443.836	147.242	-0.071	-0.096
-442.822	-114.021	0.234	0.046
-441.807	-30.585	0.277	0.158
-440.792	136.497	0.086	0.113
-439.778	66.702	0.143	-0.147
-438.763	-163.551	-0.459	0.022
-437.749	-42.205	-0.221	0.114
-436.734	-52.775	0.058	-0.027
-435.719	-67.516	-0.394	0.156
-434.705	-76.228	0.164	-0.058
-433.690	17.951	0.042	-0.034
-432.676	-119.793	0.194	-0.034
-431.661	-1.282	0.194	-0.138
-430.646	-70.754	0.123	-0.047
-429.632	-83.275	-0.256	-0.083
-428.617	-85.506	0.244	0.077
-427.603	-26.094	-0.180	-0.107
-426.588	-44.462	0.308	-0.155
-425.573	-200.000	0.047	0.304
-424.559	-91.526	0.196	0.056
-423.544	246.464	-0.244	-0.415
-422.530	32.747	-0.308	-0.269
-421.515	800.000	-0.019	-0.074
-420.500	93.953	0.164	-0.187
-419.486	148.830	0.115	0.157
-418.471	60.671	-0.158	-0.158
-417.457	-66.096	0.480	-0.193
-416.442	13.922	-0.198	0.155
-415.428	48.658	-0.147	-0.139
-414.413	-121.593	-0.224	-0.037
-413.398	23.714	0.200	-0.166
-412.384	800.000	-0.093	0.292
-411.369	-30.432	-0.111	-0.063
-410.355	-200.000	-0.057	-0.346
-409.340	-200.000	0.014	0.085
-408.325	-63.458	0.184	0.076
-407.311	-76.280	-0.495	-0.176
-406.296	-200.000	-0.041	0.201
-405.282	-70.958	-0.168	-0.064
-404.267	-200.000	-0.017	-0.266
-403.252	-200.000	-0.002	-0.202
-402.238	800.000	-0.080	0.280
-401.223	-53.537	0.227	-0.105
-400.209	8.951	-0.185	0.141
-399.194	-88.519	0.266	-0.080
-398.179	-59.058	0.103	-0.045
-397.165	-200.000	-0.044	-0.223
-396.150	127.255	-0.122	0.156
-395.136	800.000	-0.046	0.156
-394.121	-134.623	-0.228	0.028
-393.106	-98.396	-0.217	-0.056
-392.092	-26.600	0.078	0.046
-391.077	800.000	0.074	-0.207
-390.063	-161.425	-0.256	0.013
-389.048	-42.889	-0.266	-0.136
-388.033	390.281	-0.148	-0.310
-387.019	-121.947	-0.174	0.029
-386.004	-113.098	-0.023	-0.005
-384.990	210.511	0.171	-0.270
-383.975	-200.000	0.167	0.001
-382.960	800.000	0.098	0.322
-381.946	-154.757	-0.258	-0.017
-380.931	800.000	0.071	-0.244
-379.917	-56.678	-0.137	-0.061
-378.902	42.431	-0.169	-0.155
-377.888	-167.752	0.248	0.010
-376.873	-200.000	-0.003	0.062
-375.858	-172.338	0.168	0.005
-374.844	-194.121	0.314	-0.003
-373.829	-151.297	-0.429	-0.032
-372.815	-113.358	-0.210	-0.041
-371.800	358.210	0.189	0.380
-370.785	800.000	-0.076	0.280
-369.771	27.765	-0.020	-0.017
-368.756	-90.145	0.199	-0.058
-367.742	698.507	-0.119	-0.314
-366.727	-200.000	-0.003	0.096
-365.712	27.159	0.111	0.094
-364.698	32.862	0.167	-0.146
-363.683	800.000	-0.038	0.151
-362.669	105.635	-0.321	0.381
-361.654	-70.094	-0.236	0.090
-360.639	-200.000	0.035	0.157
-359.625	585.011	0.057	-0.142
-358.610	-73.304	0.138	0.051
-357.596	-76.024	-0.258	-0.092
-356.581	-31.223	0.307	0.174
-355.566	-200.000	-0.021	0.151
-354.552	-20.734	0.061	-0.038
-353.537	-200.000	0.013	-0.077
-352.523	15.451	0.063	0.049
-351.508	557.941	-0.044	0.106
-350.493	-36.434	-0.297	0.161
-349.479	-48.673	-0.305	-0.147
-348.464	-75.117	0.362	-0.130
-347.450	-200.000	0.015	-0.259
-346.435	35.878	0.285	0.252
-345.420	229.648	-0.228	0.374
-344.406	-200.000	-0.017	-0.168
-343.391	-200.000	0.035	0.298
-342.377	642.359	0.134	-0.343
-341.362	170.121	-0.150	0.215
-340.348	14.066	0.044	0.034
-339.333	380.882	-0.066	-0.136
-338.318	-20.150	-0.167	-0.103
-337.304	800.000	0.045	-0.158
-336.289	800.000	-0.054	-0.213
-335.275	15.735	0.233	0.184
-334.260	-200.000	-0.007	0.047
-333.245	-33.422	-0.178	0.099
-332.231	-18.748	-0.320	0.200
-331.216	-200.000	0.003	0.048
-330.202	-151.497	0.366	-0.027
-329.187	80.272	-0.287	-0.310
-328.172	-36.814	-0.137	-0.074
-327.158	-100.703	0.257	-0.064
-326.143	-31.027	0.350	-0.198
-325.129	307.502	0.099	0.186
-324.114	-200.000	-0.037	0.268
-323.099	-110.834	0.201	0.042
-322.085	-17.409	0.221	-0.139
-321.070	130.689	-0.071	0.091
-320.056	-200.000	-0.045	-0.313
-319.041	132.388	-0.221	-0.286
-318.026	-110.275	0.120	0.025
-317.012	-180.282	-0.379	-0.008
-315.997	-200.000	-0.002	0.040
-314.983	104.211	0.118	0.140
-313.968	126.305	-0.263	-0.334
-312.953	533.535	0.059	0.141
-311.939	300.368	-0.062	-0.115
-310.924	-71.740	0.113	0.042
-309.910	-200.000	-0.013	-0.072
-308.895	83.719	0.106	-0.116
-307.880	724.486	0.029	0.079
-306.866	375.009	0.055	-0.113
-305.851	-200.000	0.064	-0.293
-304.837	-31.292	0.071	-0.040
-303.822	-200.000	-0.006	0.098
-302.807	-159.624	0.172	0.010
-301.793	3.118	-0.145	0.106
-300.778	172.763	0.132	0.190
-299.764	-200.000	0.041	0.350
-298.749	800.000	-0.045	0.139
-297.735	-102.366	-0.238	0.057
-296.720	-68.398	0.199	0.077
-295.705	800.000	0.035	0.141
-294.691	-175.217	0.259	0.007
-293.676	-69.236	0.135	0.052
-292.662	-21.828	-0.219	0.133
-291.647	-182.265	-0.362	-0.007
-290.632	-90.884	-0.159	0.046
-289.618	-200.000	-0.015	-0.147
-288.603	174.961	0.173	-0.251
-287.589	-200.000	0.032	0.141
-286.574	-148.197	-0.261	-0.022
-285.559	-200.000	-0.039	0.246
-284.545	787.974	0.115	0.316
-283.530	-200.000	0.002	0.229
-282.516	124.629	-0.221	0.278
-281.501	-55.658	-0.276	-0.124
-280.486	800.000	0.071	-0.304
-279.472	211.858	-0.055	0.088
-278.457	77.815	0.042	-0.045
-277.443	16.989	0.017	-0.013
-276.428	-200.000	0.019	-0.145
-275.413	-48.959	-0.231	0.111
-274.399	-19.262	0.341	-0.212
-273.384	-84.356	0.250	-0.079
-272.370	162.003	-0.286	-0.402
-271.355	83.487	0.152	0.166
-270.340	29.175	0.212	-0.180
-269.326	-108.574	-0.129	-0.028
-268.311	-48.009	-0.330	0.160
-267.297	-83.130	0.214	0.069
-266.282	639.468	-0.090	0.230
-265.267	334.855	-0.068	0.132
-264.253	-90.735	-0.305	0.088
-263.238	265.466	-0.097	0.169
-262.224	-153.758	-0.202	-0.014
-261.209	200.126	-0.096	-0.147
-260.195	-200.000	0.022	0.188
-259.180	11.367	0.054	0.042
-258.165	113.702	0.258	-0.314
-257.151	-200.000	-0.011	0.222
-256.136	336.536	0.074	0.143
-255.122	521.834	-0.109	0.255
-254.107	-53.136	0.061	0.028
-253.092	-200.000	-0.041	-0.192
-252.078	800.000	0.023	-0.094
-251.063	-123.474	-0.351	0.056
-250.049	245.378	0.138	0.232
-249.034	-48.932	-0.289	-0.139
-248.019	-159.652	-0.160	-0.009
-247.005	800.000	-0.091	-0.369
-245.990	-119.261	-0.178	-0.031
-244.976	-166.277	0.019	0.001
-243.961	-137.068	-0.421	0.048
-242.946	-94.699	-0.205	-0.056
-241.932	79.555	-0.051	-0.055
-240.917	142.260	0.099	0.131
-239.903	-200.000	0.030	-0.312
-238.888	-111.397	-0.369	-0.075
-237.873	70.670	-0.183	-0.189
-236.859	-62.483	0.246	-0.102
-235.844	-200.000	-0.037	-0.473
-234.830	-200.000	0.011	0.417
-233.815	424.858	-0.086	0.186
-232.800	800.000	0.032	0.106
-231.786	-7.158	-0.026	-0.018
-230.771	-109.572	-0.149	0.031
-229.757	107.917	0.259	0.308
-228.742	327.999	0.097	0.185
-227.727	566.643	0.105	-0.255
-226.713	142.571	-0.081	-0.108
-225.698	-27.560	-0.379	-0.220
-224.684	93.057	-0.071	-0.080
-223.669	72.647	0.243	0.254
-222.655	-200.000	0.020	0.327
-221.640	800.000	-0.101	0.380
-220.625	800.000	-0.142	-0.405
-219.611	202.299	0.110	0.169
-218.596	-200.000	0.009	0.143
-217.582	19.884	-0.292	0.235
-216.567	-108.163	-0.092	-0.020
-215.552	-176.591	0.160	-0.004
-214.538	16.746	-0.043	0.034
-213.523	261.987	-0.153	-0.265
-212.509	-128.810	-0.049	0.007
-211.494	-200.000	0.030	0.477
-210.479	33.289	0.269	0.234
-209.465	-200.000	0.015	-0.271
-208.450	-200.000	-0.039	0.256
-207.436	-200.000	0.268	-0.001
-206.421	-87.034	-0.272	-0.083
-205.406	800.000	-0.045	-0.138
-204.392	-200.000	0.036	-0.220
-203.377	8.479	-0.076	0.057
-202.363	282.971	0.284	0.509
-201.348	148.447	-0.087	0.118
-200.333	-39.513	-0.132	0.069
-199.319	-76.703	0.208	-0.073
-198.304	555.934	-0.072	-0.173
-197.290	-134.325	0.046	0.006
-196.275	-13.458	-0.076	0.049
-195.260	-72.413	-0.172	-0.064
-194.246	-5.933	0.151	0.103
-193.231	187.752	0.203	-0.302
-192.217	800.000	0.064	0.279
-191.202	253.070	-0.072	0.123
-190.187	233.861	0.173	0.285
-189.173	-50.809	0.159	0.074
-188.158	-116.396	0.287	-0.053
-187.144	757.917	0.149	0.403
-186.129	406.613	0.190	-0.401
-185.114	70.800	-0.085	-0.088
-184.100	-48.195	0.206	-0.099
-183.085	23.085	-0.198	-0.162
-182.071	759.139	-0.053	0.143
-181.056	-66.402	0.403	0.160
-180.042	-200.000	0.045	0.216
-179.027	-148.672	-0.070	0.006
-178.012	325.601	0.048	0.092
-176.998	290.661	-0.174	0.316
-175.983	-200.000	-0.053	0.252
-174.969	-101.321	-0.069	0.017
-173.954	657.517	0.085	0.217
-172.939	-18.683	-0.068	0.043
-171.925	1.612	0.052	-0.038
-170.910	-200.000	-0.008	0.153
-169.896	-26.388	-0.199	-0.117
-168.881	-59.804	-0.364	-0.155
-167.866	60.230	0.145	0.143
-166.852	30.776	0.185	-0.158
-165.837	130.601	0.039	0.050
-164.823	-49.932	0.381	0.180
-163.808	800.000	-0.100	-0.378
-162.793	-100.582	0.220	-0.054
-161.779	348.948	-0.026	0.051
-160.764	-200.000	-0.041	-0.349
-159.750	-9.604	-0.184	-0.123
-158.735	-200.000	-0.065	-0.302
-157.720	-140.838	-0.144	-0.015
-156.706	57.517	0.169	0.165
-155.691	-105.084	-0.293	-0.067
-154.677	-200.000	-0.014	0.125
-153.662	-169.025	0.070	0.003
-152.647	-199.095	-0.046	-0.000
-151.633	365.412	0.098	0.197
-150.618	33.344	-0.242	0.209
-149.604	-21.904	-0.238	-0.144
-148.589	-120.880	-0.357	-0.060
-147.574	83.492	0.191	0.207
-146.560	142.583	0.082	0.109
-145.545	-200.000	-0.014	-0.191
-144.531	49.345	0.338	0.317
-143.516	800.000	0.071	0.211
-142.502	533.784	-0.178	0.419
-141.487	-108.878	-0.133	-0.028
-140.472	137.134	-0.067	-0.088
-139.458	61.356	0.220	0.218
-138.443	800.000	-0.024	-0.080
-137.429	343.137	-0.079	0.153
-136.414	-135.274	-0.224	0.027
-135.399	-114.313	0.222	0.043
-134.385	-200.000	0.010	0.110
-133.370	-200.000	0.034	-0.224
-132.356	-91.771	0.062	-0.017
-131.341	800.000	-0.041	0.136
-130.326	104.741	-0.055	-0.064
-129.312	-86.524	0.236	0.072
-128.297	148.496	0.125	-0.168
-127.283	-76.308	-0.368	0.129
-126.268	46.427	0.199	0.184
-125.253	-173.584	-0.261	-0.008
-124.239	-140.152	-0.285	-0.030
-123.224	412.420	-0.199	-0.421
-122.210	-16.575	0.128	-0.080
-121.195	-64.189	-0.320	-0.130
-120.180	-31.873	-0.091	0.051
-119.166	-85.723	-0.228	-0.070
-118.151	56.546	-0.277	-0.269
-117.137	-61.606	-0.222	-0.093
-116.122	633.617	0.039	0.098
-115.107	-23.100	-0.234	-0.140
-114.093	-60.746	-0.136	0.058
-113.078	147.764	0.191	0.256
-112.064	167.897	-0.165	0.233
-111.049	-200.000	0.010	-0.129
-110.034	129.833	-0.161	-0.205
-109.020	236.804	-0.180	-0.297
-108.005	-34.601	0.185	-0.101
-106.991	800.000	0.061	-0.246
-105.976	515.065	0.089	-0.206
-104.962	-89.775	-0.040	0.012
-103.947	-1.284	-0.455	0.320
-102.932	-47.979	0.268	-0.129
-101.918	147.629	0.251	-0.337
-100.903	-32.212	0.135	0.075
-99.889	-194.159	0.048	-0.000
-98.874	546.589	-0.008	0.020
-97.859	210.387	0.084	-0.131
-96.845	6.018	0.181	0.133
-95.830	-200.000	-0.065	0.439
-94.816	123.579	0.094	-0.117
-93.801	-92.640	-0.151	-0.042
-92.786	270.687	-0.123	0.215
-91.772	187.939	0.032	0.048
-90.757	-92.587	-0.304	-0.085
-89.743	115.162	-0.228	-0.276
-88.728	22.800	0.191	-0.156
-87.713	201.750	-0.275	-0.422
-86.699	27.872	-0.130	-0.109
-85.684	-129.756	0.288	0.039
-84.670	350.732	-0.123	0.243
-83.655	31.224	-0.321	-0.274
-82.640	-34.763	0.191	-0.104
-81.626	-200.000	-0.084	-0.367
-80.611	-45.706	-0.297	0.146
-79.597	-118.412	-0.084	0.015
-78.582	-160.790	0.371	0.020
-77.567	54.817	0.173	0.166
-76.553	19.336	-0.184	0.147
-75.538	69.161	-0.211	-0.215
-74.524	144.936	0.158	-0.211
-73.509	800.000	0.063	0.188
-72.494	-105.434	-0.107	-0.024
-71.480	-38.013	0.145	0.076
-70.465	61.697	0.252	-0.249
-69.451	-92.287	-0.127	0.036
-68.436	-0.737	0.204	-0.144
-67.422	-200.000	0.035	0.221
-66.407	-200.000	0.080	0.349
-65.392	-67.447	0.371	-0.145
-64.378	260.531	-0.068	-0.117
-63.363	-200.000	0.027	-0.411
-62.349	173.110	0.159	-0.227
-61.334	43.493	-0.846	-0.769
-60.319	-200.000	0.066	0.571
-59.305	-200.000	-0.007	-0.936
-58.290	102.751	0.648	0.753
-57.276	290.217	0.903	1.628
-56.261	-200.000	87.898	498.237
-55.246	538.108	1370.601	3235.673
-54.232	183.719	2609.946	3833.636
-53.217	115.152	2225.721	2698.605
-52.203	46.883	1671.165	1542.693
-51.188	39.349	1400.893	1245.703
-50.173	36.258	1356.812	1187.469
-49.159	55.665	1400.838	1347.663
-48.144	59.785	1419.415	1391.225
-47.130	39.872	1377.661	1228.102
-46.115	36.270	1359.364	1189.585
-45.100	36.128	1354.663	1184.552
-44.086	36.006	1352.012	1181.440
-43.071	35.970	1349.874	1179.307
-42.057	35.859	1347.761	1176.735
-41.042	35.880	1346.389	1175.616
-40.027	36.006	1344.394	1174.598
-39.013	36.006	1342.369	1172.781
-37.998	36.021	1340.626	1171.303
-36.984	36.122	1338.496	1170.010
-35.969	36.187	1336.611	1168.708
-34.954	36.123	1334.942	1166.817
-33.940	36.046	1333.947	1165.436
-32.925	36.144	1332.340	1164.576
-31.911	36.182	1330.911	1163.509
-30.896	36.204	1329.281	1162.169
-29.881	36.193	1327.648	1160.628
-28.867	36.214	1326.582	1159.781
-27.852	36.260	1324.805	1158.456
-26.838	36.264	1323.586	1157.366
-25.823	36.172	1322.204	1155.563
-24.809	36.142	1320.783	1154.097
-23.794	36.197	1319.137	1152.940
-22.779	36.162	1317.359	1151.134
-21.765	36.080	1316.379	1149.740
-20.750	36.189	1315.027	1149.165
-19.736	36.165	1313.725	1147.836
-18.721	35.986	1312.686	1145.820
-17.706	36.181	1310.943	1145.411
-16.692	35.958	1310.303	1143.481
-15.677	36.042	1308.523	1142.379
-14.663	36.075	1307.622	1141.745
-13.648	35.938	1306.783	1140.157
-12.633	35.852	1306.384	1139.252
-11.619	36.011	1304.800	1138.769
-10.604	35.939	1303.875	1137.487
-9.590	35.957	1302.905	1136.704
-8.575	35.943	1301.989	1135.778
-7.560	35.929	1300.668	1134.494
-6.546	35.967	1300.402	1134.445
-5.531	36.029	1299.262	1133.766
-4.517	36.063	1298.009	1132.830
-3.502	36.092	1297.519	1132.527
-2.487	36.067	1296.308	1131.277
-1.473	36.122	1292.539	1128.268
-0.458	35.127	1278.161	1109.910
0.556	30.140	1259.282	1071.659
1.571	26.717	1263.907	1055.600
2.586	25.731	1279.194	1062.459
3.600	24.566	1267.962	1046.217
4.615	17.268	1189.838	941.403
5.629	5.598	1106.523	814.970
6.644	0.451	1083.782	771.866
7.659	0.142	1080.930	768.189
8.673	-0.026	1079.523	766.267
9.688	-0.006	1078.109	765.293
10.702	0.492	1077.092	767.038
11.717	7.774	1088.342	812.278
12.731	18.079	1103.680	876.779
13.746	21.939	1108.007	899.974
14.761	21.989	1107.665	899.870
15.775	22.024	1107.055	899.474
16.790	21.772	1106.108	897.338
17.804	21.767	1105.328	896.601
18.819	21.769	1105.406	896.595
19.834	21.870	1104.729	896.484
20.848	21.959	1104.021	896.281
21.863	21.882	1103.635	895.493
22.877	21.747	1102.771	894.028
23.892	21.869	1101.498	893.538
24.907	21.767	1101.922	893.283
25.921	21.901	1099.968	892.304
26.936	21.777	1098.838	890.678
27.950	21.810	1097.263	889.487
28.965	21.554	1095.530	886.709
29.980	21.645	1093.947	885.811
30.994	21.939	1092.763	886.257
32.009	21.802	1091.712	884.633
33.023	21.680	1090.630	883.065
34.038	21.839	1089.440	882.824
35.053	21.867	1088.855	882.414
36.067	21.797	1088.427	881.634
37.082	21.957	1087.374	881.508
38.096	22.069	1086.685	881.435
39.111	22.166	1085.793	881.117
40.126	21.959	1084.507	878.962
41.140	21.719	1082.210	875.821
42.155	21.391	1081.065	873.179
43.169	21.551	1080.043	873.072
44.184	21.507	1079.124	872.033
45.199	21.243	1078.876	870.441
46.213	21.347	1077.433	869.719
47.228	21.559	1076.847	870.224
48.242	21.721	1075.462	869.829
49.257	21.757	1075.190	869.714
50.271	21.853	1073.824	869.007
51.286	21.867	1073.624	868.835
52.301	21.972	1071.984	867.953
53.315	21.891	1071.201	866.843
54.330	21.936	1070.042	866.049
55.344	21.782	1069.316	864.627
56.359	21.713	1068.901	863.873
57.374	21.620	1067.650	862.327
58.388	21.582	1066.858	861.422
59.403	21.641	1065.990	860.937
60.417	21.478	1065.066	859.316
61.432	21.537	1064.742	859.265
62.447	21.658	1063.397	858.700
63.461	21.754	1062.394	858.280
64.476	21.687	1061.670	857.295
65.490	21.541	1060.539	855.590
66.505	21.549	1059.953	855.081
67.520	21.699	1059.264	855.184
68.534	21.331	1058.195	852.447
69.549	21.041	1057.275	850.218
70.563	20.999	1056.844	849.590
71.578	21.231	1055.895	849.882
72.593	20.993	1054.886	847.839
73.607	21.195	1054.015	848.047
74.622	21.341	1053.924	848.604
75.636	21.422	1052.843	848.053
76.651	21.292	1051.771	846.483
77.666	21.225	1051.224	845.644
78.680	21.343	1050.671	845.699
79.695	21.354	1050.019	845.151
80.709	21.448	1048.973	844.686
81.724	21.404	1048.291	843.852
82.739	21.551	1047.474	843.830
83.753	21.809	1046.880	844.515
84.768	22.208	1045.866	845.545
85.782	22.106	1045.177	844.424
86.797	21.948	1043.969	842.613
87.812	21.748	1043.005	840.802
88.826	22.049	1042.249	841.561
89.841	22.051	1041.337	840.759
90.855	22.172	1040.186	840.336
91.870	22.061	1039.259	838.982
92.884	21.896	1037.965	837.073
93.899	21.839	1037.578	836.417
94.914	22.136	1036.436	836.835
95.928	21.953	1035.393	835.047
96.943	21.650	1034.385	832.720
97.957	21.532	1032.714	830.745
98.972	21.360	1031.742	829.072
99.987	21.570	1031.063	829.449
101.001	21.710	1030.614	829.678
102.016	21.809	1029.634	829.282
103.030	21.565	1028.695	827.298
104.045	21.557	1027.254	826.032
105.060	21.402	1026.130	824.323
106.074	21.618	1025.768	824.975
107.089	21.958	1025.078	825.948
108.103	21.873	1023.960	824.576
109.118	21.680	1022.416	822.353
110.133	21.640	1021.739	821.548
111.147	21.458	1020.228	819.410
112.162	21.203	1019.723	817.737
113.176	21.497	1019.292	818.695
114.191	21.453	1017.872	817.277
115.206	21.204	1016.580	815.002
116.220	21.260	1015.747	814.525
117.235	21.311	1014.942	814.044
118.249	21.230	1014.215	813.013
119.264	21.181	1013.403	812.061
120.279	21.281	1013.002	812.133
121.293	21.298	1011.861	811.226
122.308	21.298	1010.877	810.365
123.322	21.232	1009.843	809.158
124.337	21.180	1008.124	807.468
125.352	20.779	1006.341	804.117
126.366	20.620	1005.615	802.734
127.381	21.385	1005.300	805.939
128.395	21.811	1004.902	807.511
129.410	21.867	1004.026	806.993
130.424	21.844	1003.404	806.318
131.439	21.880	1001.959	805.247
132.454	21.733	1001.356	804.021
133.468	21.740	999.989	802.884
134.483	22.025	999.200	803.482
135.497	22.087	998.693	803.288
136.512	22.041	997.963	802.419
137.527	22.012	996.838	801.310
138.541	22.151	996.556	801.645
139.556	22.106	995.947	800.883
140.570	22.161	994.722	800.077
141.585	22.135	993.682	799.051
142.600	22.031	992.510	797.564
143.614	22.318	991.709	798.151
144.629	22.232	991.263	797.333
145.643	22.269	989.856	796.297
146.658	22.084	988.525	794.318
147.673	22.100	986.971	793.073
148.687	21.892	986.261	791.493
149.702	21.776	985.227	790.072
150.716	21.781	984.303	789.285
151.731	22.059	983.402	789.740
152.746	22.215	983.116	790.143
153.760	22.275	982.239	789.640
154.775	22.363	981.486	789.357
155.789	22.158	981.078	788.041
156.804	22.004	980.228	786.599
157.819	22.218	979.130	786.605
158.833	22.322	978.553	786.536
159.848	22.263	977.417	785.291
160.862	22.052	976.522	783.561
161.877	22.128	975.615	783.103
162.892	22.300	974.171	782.638
163.906	22.275	972.847	781.396
164.921	22.182	972.115	780.324
165.935	22.231	971.332	779.847
166.950	22.095	970.562	778.556
167.964	22.076	969.641	777.666
168.979	21.953	968.424	776.075
169.994	21.891	967.661	775.121
171.008	22.109	967.066	775.538
172.023	22.173	966.139	775.010
173.037	21.928	964.959	772.915
174.052	21.863	963.751	771.593
175.067	21.987	963.175	771.609
176.081	21.989	962.980	771.391
177.096	22.020	961.948	770.633
178.110	21.671	960.659	768.002
179.125	21.322	960.154	766.001
180.140	21.526	959.999	766.704
181.154	21.887	958.956	767.383
182.169	22.046	959.344	768.322
183.183	22.124	958.946	768.277
184.198	22.219	957.786	767.692
185.213	22.089	957.160	766.555
186.227	22.123	956.447	766.065
187.242	22.128	955.715	765.433
188.256	22.177	955.284	765.235
189.271	22.287	954.803	765.258
190.286	21.994	953.227	762.658
191.300	21.548	950.993	758.869
192.315	20.709	950.107	754.457
193.329	20.644	950.028	754.046
194.344	21.559	950.481	758.305
195.359	21.895	950.405	759.633
196.373	22.172	949.338	759.909
197.388	21.981	948.588	758.418
198.402	22.048	948.263	758.381
199.417	22.124	947.506	758.034
200.432	21.814	946.342	755.701
201.446	21.503	946.006	754.025
202.461	21.497	945.296	753.369
203.475	20.815	943.378	748.841
204.490	20.024	942.166	744.416
205.504	21.086	942.232	748.965
206.519	21.585	942.401	751.173
207.534	21.691	941.551	750.881
208.548	22.126	941.255	752.442
209.563	21.992	940.390	751.114
210.577	21.926	939.615	750.142
211.592	22.355	939.207	751.583
212.607	22.135	938.565	750.064
213.621	22.168	938.361	749.977
214.636	22.305	937.112	749.496
215.650	22.149	936.464	748.247
216.665	22.269	936.002	748.322
217.680	22.166	935.465	747.391
218.694	21.818	933.975	744.657
219.709	21.646	932.875	742.985
220.723	22.044	932.325	744.166
221.738	21.972	932.194	743.691
222.753	22.047	931.565	743.442
223.767	22.236	930.669	743.457
224.782	22.327	930.539	743.673
225.796	22.267	930.072	742.982
226.811	21.792	928.368	739.550
227.826	21.075	927.216	735.545
228.840	21.216	926.645	735.622
229.855	21.262	926.248	735.434
230.869	20.966	925.084	733.202
231.884	21.375	924.996	734.787
232.899	22.042	924.825	737.389
233.913	22.010	924.300	736.769
234.928	22.092	923.564	736.462
235.942	21.951	922.909	735.283
236.957	21.630	922.026	733.169
237.972	21.720	921.494	733.057
238.986	21.791	920.959	732.866
240.001	21.801	920.306	732.322
241.015	22.030	919.667	732.707
242.030	22.045	919.093	732.245
243.045	22.096	918.664	732.052
244.059	22.297	918.051	732.336
245.074	22.111	917.151	730.778
246.088	21.704	916.255	728.307
247.103	21.931	915.963	728.954
248.117	22.453	915.982	731.075
249.132	22.725	915.708	731.918
250.147	22.707	915.439	731.566
251.161	22.969	914.857	732.120
252.176	22.906	913.617	730.801
253.190	22.923	913.662	730.843
254.205	23.069	912.929	730.796
255.220	23.002	912.178	729.855
256.234	23.049	911.298	729.278
257.249	22.825	910.417	727.588
258.263	22.916	909.596	727.242
259.278	23.084	908.842	727.263
260.293	22.968	908.842	726.724
261.307	22.830	907.932	725.366
262.322	22.667	906.980	723.869
263.336	22.051	904.808	719.549
264.351	20.770	903.369	713.097
265.366	21.010	902.850	713.609
266.380	22.147	903.493	718.706
267.395	22.653	903.247	720.516
268.409	22.422	902.245	718.707
269.424	22.714	901.757	719.449
270.439	22.667	901.343	718.861
271.453	22.741	900.658	718.552
272.468	22.950	900.297	719.054
273.482	23.069	900.126	719.336
274.497	22.583	898.650	716.120
275.512	22.169	897.932	713.801
276.526	22.588	897.905	715.421
277.541	22.922	897.002	715.991
278.555	22.516	896.480	713.865
279.570	22.461	895.187	712.550
280.585	22.564	895.174	712.893
281.599	22.446	894.263	711.629
282.614	22.109	892.513	708.815
283.628	22.114	892.073	708.423
284.643	22.399	891.748	709.249
285.657	21.984	890.654	706.647
286.672	21.695	889.953	704.864
287.687	22.254	890.086	707.158
288.701	22.357	889.252	706.845
289.716	22.017	888.673	704.957
290.730	21.986	887.802	704.078
291.745	21.723	886.765	702.140
292.760	22.049	886.791	703.406
293.774	22.916	887.533	707.404
294.789	23.170	887.101	708.015
295.803	23.151	886.490	707.390
296.818	23.416	885.495	707.590
297.833	22.830	884.382	704.301
298.847	22.750	883.151	702.940
299.862	23.160	883.175	704.528
300.876	23.245	883.069	704.722
301.891	23.194	882.329	703.865
302.906	22.743	881.310	701.197
303.920	22.919	880.610	701.279
304.935	23.095	881.009	702.233
305.949	23.139	880.187	701.688
306.964	22.852	879.406	699.868
307.979	22.909	879.107	699.795
308.993	23.406	878.857	701.502
310.008	23.362	877.989	700.572
311.022	23.148	876.942	698.830
312.037	22.835	876.932	697.522
313.052	22.671	875.766	695.888
314.066	21.888	874.098	691.414
315.081	21.531	873.392	689.390
316.095	22.449	873.651	693.147
317.110	22.930	873.333	694.728
318.125	22.254	871.511	690.561
319.139	21.080	870.333	684.962
320.154	21.016	869.965	684.359
321.168	22.062	870.207	688.595
322.183	22.585	870.424	690.754
323.197	22.766	870.150	691.185
324.212	23.068	869.709	691.953
325.227	22.972	869.666	691.482
326.241	22.986	868.330	690.415
327.256	22.897	867.641	689.460
328.270	22.727	867.174	688.365
329.285	22.644	866.418	687.379
330.300	22.307	865.574	685.336
331.314	22.652	865.224	686.339
332.329	23.013	864.897	687.425
333.343	23.186	864.505	687.727
334.358	23.006	864.317	686.814
335.373	23.215	863.682	687.062
336.387	23.528	863.675	688.211
337.402	23.588	863.656	688.367
338.416	23.501	863.271	687.663
339.431	23.532	863.117	687.599
340.446	23.732	862.355	687.703
341.460	23.749	861.658	687.155
342.475	23.482	861.190	685.687
343.489	23.455	861.372	685.668
344.504	23.700	860.844	686.132
345.519	23.968	859.625	686.135
346.533	23.857	860.141	686.057
347.548	23.985	859.380	685.882
348.562	24.022	858.374	685.161
349.577	23.873	857.989	684.219
350.592	23.936	857.049	683.652
351.606	23.905	856.393	682.950
352.621	23.689	855.738	681.538
353.635	23.687	855.035	680.910
354.650	22.973	853.624	676.990
355.665	22.191	851.614	672.350
356.679	22.422	851.872	673.377
357.694	22.898	851.231	674.628
358.708	22.971	850.529	674.291
359.723	23.259	850.620	675.402
360.738	23.587	849.977	676.083
361.752	23.616	849.765	675.966
362.767	23.817	849.536	676.488
363.781	24.178	849.035	677.401
364.796	24.314	848.303	677.272
365.810	24.170	848.477	676.807
366.825	24.207	847.642	676.221
367.840	23.889	847.120	674.539
368.854	23.578	846.032	672.432
369.869	23.605	845.573	672.112
370.883	23.557	845.045	671.449
371.898	23.507	845.171	671.303
372.913	23.594	844.503	671.043
373.927	23.750	844.172	671.306
374.942	23.983	843.272	671.412
375.956	23.995	843.228	671.364
376.971	24.189	842.479	671.440
377.986	24.243	842.422	671.536
379.000	24.195	841.920	670.897
380.015	23.964	841.210	669.403
381.029	24.179	840.631	669.692
382.044	24.234	840.149	669.455
383.059	24.125	839.606	668.554
384.073	24.231	839.127	668.511
385.088	24.156	838.390	667.581
386.102	24.008	837.548	666.298
387.117	23.907	837.022	665.444
388.132	23.629	835.980	663.516
389.146	23.141	834.859	660.746
390.161	23.475	834.803	661.892
391.175	24.054	834.546	663.790
392.190	23.694	833.284	661.388
393.205	22.389	831.476	655.037
394.219	20.856	829.857	648.007
395.234	20.869	829.508	647.725
396.248	22.495	831.151	655.002
397.263	23.734	832.002	660.223
398.278	23.642	831.690	659.575
399.292	23.575	831.009	658.729
400.307	23.535	830.454	658.082
401.321	23.713	829.918	658.261
402.336	23.947	829.872	659.031
403.350	24.437	829.868	660.785
404.365	24.710	829.351	661.326
405.380	24.772	829.342	661.488
406.394	25.075	828.646	661.993
407.409	24.814	828.095	660.532
408.423	24.762	827.512	659.815
409.438	24.880	827.326	660.044
410.453	24.952	826.719	659.767
411.467	24.804	826.402	658.911
412.482	24.850	825.783	658.528
413.496	24.959	825.584	658.713
414.511	25.036	825.045	658.509
415.526	24.907	824.644	657.654
416.540	24.768	823.938	656.522
417.555	24.614	823.118	655.247
418.569	24.570	823.022	654.951
419.584	24.592	822.264	654.370
420.599	24.386	821.724	653.131
421.613	150.782	1367.681	1787.191
422.628	131.296	1447.224	1787.277
