DTS Sentinel unit serial number:	SN413079Multiplexer serial number:	ORYXHardware model number:	OX4-SRSoftware version number:	ORYX F/W v4.00 Oryx Data Collector v3.7.2.0data status	okinstallation	princeton_trtdifferential loss correction	single-endedforward channel	channel 1reverse channel	N/Adate	2019/09/11time	23:24:11forward acquisition time	60.00reverse acquisition time	0.00gamma	496.2192k internal	0.2318k external	0.2318temperature offset calibration	1.0063default loss term (dB/km)	0.3790temperature slope calibration	1.0000multiplexer offset coefficient	1.0000multiplexer slope coefficient	1.0000fibre end	0.00T internal ref (°C)	34.31T ext. ref 1 (°C)	1.87T ext. ref 2 (°C)	28.94length (m)	temperature (°C)	Stokes	anti-Stokes-747.200	-88.574	-0.056	-0.017
-746.185	-200.000	0.022	0.400
-745.171	800.000	-0.008	-0.029
-744.156	-109.740	-0.265	0.056
-743.142	-200.000	-0.013	-0.410
-742.127	-5.746	0.200	-0.139
-741.112	800.000	-0.008	0.024
-740.098	-68.725	-0.194	-0.076
-739.083	-88.650	0.207	-0.062
-738.069	58.780	0.091	0.090
-737.054	163.265	0.101	0.144
-736.039	-86.450	-0.309	-0.096
-735.025	-133.978	0.284	-0.036
-734.010	-200.000	0.034	-0.156
-732.996	-127.007	-0.351	0.052
-731.981	800.000	-0.100	0.308
-730.966	269.166	0.114	0.202
-729.952	800.000	-0.051	-0.208
-728.937	-82.767	-0.163	0.053
-727.923	-200.000	0.071	0.323
-726.908	-129.682	-0.149	0.021
-725.894	259.522	-0.067	-0.118
-724.879	200.317	0.151	-0.234
-723.864	4.874	-0.190	-0.142
-722.850	-64.475	0.258	0.106
-721.835	114.638	-0.147	0.181
-720.821	-200.000	-0.036	-0.342
-719.806	429.589	-0.042	-0.092
-718.791	-200.000	0.015	0.265
-717.777	800.000	0.146	-0.412
-716.762	-200.000	-0.004	-0.367
-715.748	-89.812	0.069	0.020
-714.733	800.000	0.071	-0.206
-713.718	145.169	-0.032	-0.044
-712.704	-138.829	-0.214	-0.024
-711.689	-200.000	-0.036	0.389
-710.675	287.978	-0.123	-0.225
-709.660	-123.125	-0.326	-0.053
-708.645	15.189	0.167	-0.132
-707.631	-37.758	-0.197	-0.106
-706.616	-139.822	0.341	0.037
-705.602	-9.020	-0.341	-0.231
-704.587	-200.000	-0.066	0.291
-703.572	46.452	-0.143	0.134
-702.558	-104.917	-0.291	0.068
-701.543	-39.368	0.164	0.087
-700.529	3.669	-0.225	0.166
-699.514	-200.000	-0.006	0.361
-698.499	-38.853	-0.283	-0.151
-697.485	-85.428	-0.262	0.082
-696.470	-200.000	0.027	-0.244
-695.456	34.874	-0.249	-0.220
-694.441	-124.319	0.249	-0.039
-693.426	151.705	-0.079	0.109
-692.412	-200.000	-0.001	-0.058
-691.397	-90.574	0.141	-0.041
-690.383	35.770	-0.163	0.145
-689.368	-200.000	-0.007	-0.133
-688.354	-48.350	0.104	-0.051
-687.339	57.980	0.059	0.058
-686.324	263.758	-0.173	0.303
-685.310	-26.536	-0.297	-0.175
-684.295	-200.000	0.017	0.147
-683.281	295.012	0.168	-0.311
-682.266	-40.582	0.187	0.098
-681.251	-21.281	-0.111	-0.069
-680.237	800.000	-0.072	-0.234
-679.222	382.584	0.085	-0.175
-678.208	186.144	-0.141	0.211
-677.193	-200.000	-0.100	-0.451
-676.178	-61.361	-0.142	-0.060
-675.164	-125.992	0.280	-0.043
-674.149	67.779	0.109	-0.113
-673.135	38.724	-0.360	-0.325
-672.120	-83.315	0.349	-0.113
-671.105	800.000	-0.075	-0.291
-670.091	181.890	-0.090	0.134
-669.076	40.881	-0.107	0.097
-668.062	433.297	0.041	0.090
-667.047	-16.255	-0.106	-0.068
-666.032	480.155	-0.116	-0.265
-665.018	347.835	0.059	0.118
-664.003	10.355	0.077	-0.059
-662.989	126.664	-0.125	-0.160
-661.974	295.491	0.197	-0.363
-660.959	800.000	-0.111	0.379
-659.945	751.581	0.107	0.291
-658.930	84.711	-0.060	-0.067
-657.916	-138.987	0.079	-0.009
-656.901	3.108	-0.140	0.103
-655.886	-67.182	0.160	0.064
-654.872	-2.364	-0.119	-0.084
-653.857	-200.000	-0.034	0.167
-652.843	800.000	0.048	0.146
-651.828	110.219	0.057	-0.068
-650.814	99.998	-0.094	0.110
-649.799	26.974	-0.080	0.068
-648.784	-91.510	-0.080	0.023
-647.770	258.043	-0.187	-0.325
-646.755	629.236	-0.037	0.093
-645.741	77.114	-0.068	0.073
-644.726	800.000	-0.058	0.186
-643.711	80.812	-0.180	-0.196
-642.697	800.000	0.078	0.251
-641.682	75.158	-0.272	-0.289
-640.668	800.000	-0.103	-0.311
-639.653	800.000	-0.017	-0.048
-638.638	66.291	0.428	0.438
-637.624	800.000	-0.017	-0.054
-636.609	12.000	0.235	0.182
-635.595	525.418	-0.082	-0.194
-634.580	202.529	0.109	0.169
-633.565	-47.366	-0.094	-0.046
-632.551	-200.000	0.069	-0.461
-631.536	-78.687	-0.265	-0.091
-630.522	-80.716	-0.269	-0.090
-629.507	388.755	0.132	-0.276
-628.492	-200.000	0.029	-0.245
-627.478	-33.853	-0.151	-0.084
-626.463	-104.289	-0.361	-0.084
-625.449	-73.389	-0.234	-0.086
-624.434	206.450	-0.170	-0.267
-623.419	360.983	-0.150	-0.303
-622.405	-12.052	-0.236	0.156
-621.390	431.789	0.103	0.224
-620.376	-200.000	-0.025	0.376
-619.361	-168.167	0.103	-0.004
-618.346	-39.355	0.150	-0.079
-617.332	-200.000	0.022	-0.408
-616.317	505.546	0.085	-0.199
-615.303	8.032	-0.059	0.045
-614.288	-24.578	-0.287	0.172
-613.273	73.879	0.340	0.359
-612.259	-65.430	-0.351	0.142
-611.244	-104.656	-0.089	-0.021
-610.230	-200.000	-0.023	-0.123
-609.215	-57.542	-0.202	-0.089
-608.201	-60.370	0.295	0.126
-607.186	144.285	0.170	-0.228
-606.171	495.608	0.113	-0.262
-605.157	-176.008	0.400	0.011
-604.142	-200.000	0.005	0.032
-603.128	49.609	-0.289	0.274
-602.113	428.522	-0.072	0.156
-601.098	-200.000	-0.022	-0.331
-600.084	79.845	-0.098	0.106
-599.069	-79.889	-0.194	0.066
-598.055	-200.000	-0.009	-0.241
-597.040	68.207	-0.300	0.309
-596.025	-12.094	0.252	-0.166
-595.011	-200.000	0.012	0.237
-593.996	-16.371	-0.344	0.219
-592.982	800.000	0.015	-0.042
-591.967	-50.548	0.101	0.048
-590.952	-151.796	-0.277	0.020
-589.938	337.031	0.043	-0.083
-588.923	423.425	0.095	-0.205
-587.909	-10.083	0.133	-0.089
-586.894	800.000	-0.084	0.263
-585.879	586.222	0.193	-0.477
-584.865	179.497	0.147	0.216
-583.850	38.595	0.185	-0.166
-582.836	-21.164	0.295	0.181
-581.821	-139.035	0.179	-0.019
-580.806	22.303	0.149	-0.122
-579.792	251.770	0.099	0.170
-578.777	302.443	-0.102	-0.189
-577.763	160.153	-0.058	0.082
-576.748	-82.442	-0.422	0.138
-575.733	-9.354	0.108	-0.072
-574.719	-200.000	-0.005	-0.166
-573.704	665.456	-0.078	-0.203
-572.690	-136.772	-0.240	-0.028
-571.675	-200.000	0.028	-0.173
-570.661	-200.000	0.028	0.263
-569.646	-90.737	0.188	0.054
-568.631	-8.471	0.207	0.140
-567.617	-200.000	0.025	-0.265
-566.602	-74.953	-0.162	-0.058
-565.588	-138.899	0.199	0.022
-564.573	554.595	-0.134	-0.325
-563.558	800.000	0.048	-0.135
-562.544	31.741	0.187	0.161
-561.529	48.714	0.247	-0.233
-560.515	-131.679	-0.075	-0.010
-559.500	-103.488	-0.208	-0.049
-558.485	-200.000	-0.061	-0.297
-557.471	-22.389	0.111	0.068
-556.456	-175.748	0.303	-0.008
-555.442	169.966	0.027	0.039
-554.427	25.977	-0.356	-0.298
-553.412	243.065	-0.112	-0.189
-552.398	592.727	-0.122	-0.303
-551.383	-200.000	0.006	0.182
-550.369	315.442	0.127	-0.240
-549.354	800.000	-0.073	-0.282
-548.339	30.990	0.113	-0.097
-547.325	-104.454	0.168	-0.039
-546.310	7.056	0.028	-0.021
-545.296	-69.629	-0.163	0.062
-544.281	-32.229	-0.217	0.122
-543.266	372.930	0.075	-0.154
-542.252	800.000	-0.050	-0.159
-541.237	-23.012	0.138	-0.084
-540.223	-200.000	0.042	0.256
-539.208	-200.000	0.000	-0.044
-538.193	-52.588	0.157	-0.073
-537.179	265.546	-0.148	-0.259
-536.164	800.000	0.060	0.213
-535.150	665.438	-0.017	-0.045
-534.135	800.000	-0.108	0.442
-533.121	154.227	0.292	-0.402
-532.106	95.046	0.089	0.101
-531.091	-45.094	0.074	0.037
-530.077	600.845	-0.064	-0.159
-529.062	-99.770	0.141	-0.035
-528.048	800.000	-0.045	0.191
-527.033	800.000	0.019	0.062
-526.018	-193.621	0.157	-0.001
-525.004	292.886	-0.195	0.356
-523.989	134.107	-0.085	0.111
-522.975	-35.001	-0.384	0.210
-521.960	-200.000	0.021	0.189
-520.945	-140.944	-0.284	-0.029
-519.931	-117.414	-0.434	-0.079
-518.916	-57.516	0.089	-0.039
-517.902	52.447	0.195	0.187
-516.887	134.953	-0.054	0.071
-515.872	-13.657	-0.237	0.154
-514.858	-200.000	-0.046	0.316
-513.843	-200.000	-0.060	0.436
-512.829	-200.000	0.001	-0.026
-511.814	-200.000	-0.022	-0.269
-510.799	84.453	0.219	-0.240
-509.785	153.751	-0.148	-0.203
-508.770	-98.639	-0.301	-0.077
-507.756	26.945	0.069	0.058
-506.741	-93.015	0.109	0.030
-505.726	-200.000	-0.010	0.082
-504.712	237.612	0.090	0.149
-503.697	-36.414	0.077	-0.041
-502.683	-40.395	0.322	0.168
-501.668	-200.000	-0.021	-0.445
-500.653	-60.511	-0.135	-0.058
-499.639	-131.929	-0.268	0.035
-498.624	218.492	-0.155	0.248
-497.610	-15.319	-0.190	0.122
-496.595	-66.993	-0.248	0.098
-495.581	120.343	0.109	-0.136
-494.566	800.000	-0.062	-0.230
-493.551	-151.854	-0.257	-0.019
-492.537	-200.000	0.018	0.242
-491.522	70.396	-0.032	-0.033
-490.508	-121.657	0.082	-0.014
-489.493	250.849	-0.088	0.151
-488.478	48.483	-0.037	0.034
-487.464	16.391	-0.075	0.059
-486.449	-200.000	-0.073	0.342
-485.435	-40.530	-0.203	-0.106
-484.420	800.000	0.037	-0.103
-483.405	145.235	-0.164	0.219
-482.391	147.116	-0.169	0.228
-481.376	-73.874	-0.141	-0.051
-480.362	242.598	-0.128	0.215
-479.347	-194.820	0.288	-0.002
-478.332	753.372	-0.071	-0.192
-477.318	548.783	-0.095	-0.228
-476.303	197.968	0.196	-0.300
-475.289	-110.246	0.113	0.024
-474.274	3.369	-0.129	0.094
-473.259	-45.824	0.408	-0.202
-472.245	800.000	-0.089	0.303
-471.230	326.051	-0.183	0.351
-470.216	-200.000	-0.014	-0.116
-469.201	38.831	0.263	-0.236
-468.186	119.776	-0.160	0.199
-467.172	800.000	-0.038	0.133
-466.157	-1.249	-0.133	0.094
-465.143	-200.000	0.029	-0.136
-464.128	800.000	0.070	-0.236
-463.113	-84.949	0.140	-0.044
-462.099	120.556	-0.149	0.186
-461.084	-1.901	0.101	0.071
-460.070	-64.386	0.175	0.071
-459.055	-141.350	-0.133	-0.014
-458.040	206.707	-0.108	-0.168
-457.026	-154.065	0.070	0.005
-456.011	-69.518	0.227	0.087
-454.997	165.957	0.099	-0.140
-453.982	17.800	0.037	0.029
-452.968	-15.864	-0.363	0.232
-451.953	800.000	0.079	-0.256
-450.938	-200.000	0.026	-0.135
-449.924	95.262	-0.067	0.076
-448.909	709.465	0.044	-0.115
-447.895	-200.000	-0.020	-0.155
-446.880	-200.000	-0.015	-0.140
-445.865	89.797	-0.164	-0.184
-444.851	164.606	-0.077	-0.109
-443.836	-200.000	0.034	-0.177
-442.822	800.000	0.101	-0.327
-441.807	-76.385	-0.069	-0.024
-440.792	-144.938	0.440	0.040
-439.778	-37.803	-0.371	0.197
-438.763	249.253	0.010	-0.017
-437.749	-86.571	0.410	-0.126
-436.734	-161.389	0.026	0.001
-435.719	97.503	0.226	0.260
-434.705	-54.451	-0.273	-0.124
-433.690	800.000	0.047	0.192
-432.676	-200.000	0.019	0.121
-431.661	101.830	-0.101	-0.118
-430.646	-200.000	0.041	0.199
-429.632	207.511	-0.121	-0.189
-428.617	-200.000	-0.066	0.316
-427.603	800.000	-0.071	0.251
-426.588	-200.000	0.060	0.274
-425.573	160.351	0.173	0.242
-424.559	-200.000	-0.014	-0.170
-423.544	-200.000	0.036	0.415
-422.530	-200.000	0.004	-0.112
-421.515	205.642	0.299	-0.464
-420.500	143.809	0.120	0.160
-419.486	103.945	0.239	0.280
-418.471	-59.514	-0.061	0.026
-417.457	-10.144	0.137	-0.091
-416.442	-91.425	0.059	0.017
-415.428	-168.283	-0.221	-0.009
-414.413	115.469	-0.091	-0.111
-413.398	-49.227	-0.526	-0.251
-412.384	133.152	-0.050	0.065
-411.369	-200.000	-0.121	-0.579
-410.355	-160.250	0.575	-0.031
-409.340	686.335	0.057	-0.148
-408.325	436.583	0.078	-0.169
-407.311	112.984	-0.107	-0.129
-406.296	-200.000	0.002	0.116
-405.282	800.000	-0.074	0.208
-404.267	-200.000	-0.022	-0.118
-403.252	-146.434	0.202	-0.018
-402.238	-73.310	0.080	-0.029
-401.223	-5.304	0.172	0.118
-400.209	48.058	-0.182	0.170
-399.194	-183.127	0.048	0.001
-398.179	-28.589	-0.279	0.161
-397.165	351.358	-0.126	0.250
-396.150	140.130	0.163	-0.215
-395.136	183.413	-0.112	-0.165
-394.121	-105.731	0.205	-0.046
-393.106	-43.856	-0.272	-0.137
-392.092	-107.269	0.347	0.076
-391.077	363.173	-0.072	-0.145
-390.063	-10.184	-0.130	-0.086
-389.048	-67.232	0.355	-0.139
-388.033	341.525	-0.089	-0.174
-387.019	220.543	-0.277	-0.443
-386.004	58.767	0.152	0.149
-384.990	-60.922	0.112	0.047
-383.975	-106.617	0.331	0.073
-382.960	-174.868	0.115	0.003
-381.946	12.358	0.089	0.069
-380.931	-32.252	-0.214	0.119
-379.917	262.634	0.115	-0.199
-378.902	-14.961	0.135	0.086
-377.888	270.828	0.220	0.387
-376.873	139.408	-0.257	-0.337
-375.858	190.404	-0.232	0.348
-374.844	-200.000	-0.001	-0.239
-373.829	-113.976	0.160	0.031
-372.815	-83.394	0.388	-0.124
-371.800	147.188	0.085	-0.114
-370.785	800.000	0.044	0.131
-369.771	622.678	-0.028	0.071
-368.756	800.000	-0.115	0.384
-367.742	43.783	0.131	-0.120
-366.727	615.882	0.088	-0.220
-365.712	-15.696	0.090	-0.057
-364.698	110.742	0.213	-0.255
-363.683	768.910	0.065	-0.178
-362.669	36.239	0.082	-0.072
-361.654	-200.000	0.018	0.311
-360.639	553.586	-0.098	-0.235
-359.625	-62.814	-0.262	0.108
-358.610	-200.000	-0.075	-0.335
-357.596	258.586	-0.046	-0.079
-356.581	387.005	-0.045	0.092
-355.566	-200.000	0.013	0.359
-354.552	612.281	-0.046	0.114
-353.537	414.665	-0.116	0.247
-352.523	-53.790	-0.203	0.092
-351.508	-100.166	-0.211	0.052
-350.493	-200.000	0.028	0.126
-349.479	-140.890	-0.272	0.028
-348.464	-60.293	0.142	-0.060
-347.450	-71.827	0.152	-0.056
-346.435	-38.270	0.083	0.044
-345.420	-34.110	0.131	0.072
-344.406	-79.947	0.246	-0.082
-343.391	-200.000	-0.029	-0.217
-342.377	118.859	-0.115	0.141
-341.362	-200.000	-0.114	0.533
-340.348	-200.000	-0.003	-0.221
-339.333	127.036	0.137	-0.173
-338.318	86.414	0.082	-0.090
-337.304	-15.301	-0.383	-0.244
-336.289	-200.000	-0.025	0.223
-335.275	-117.888	0.294	-0.052
-334.260	63.824	0.195	-0.195
-333.245	122.005	0.175	-0.217
-332.231	36.592	-0.207	-0.182
-331.216	800.000	0.064	0.278
-330.202	550.660	0.078	-0.186
-329.187	800.000	0.007	-0.023
-328.172	-6.430	-0.086	-0.058
-327.158	-13.403	-0.481	-0.310
-326.143	-200.000	-0.003	0.345
-325.129	-200.000	0.003	0.053
-324.114	-163.357	0.342	-0.016
-323.099	-200.000	-0.024	-0.199
-322.085	367.733	-0.054	0.108
-321.070	-39.140	-0.210	-0.110
-320.056	-42.345	-0.254	-0.129
-319.041	-35.803	-0.087	-0.047
-318.026	-32.773	-0.183	0.101
-317.012	-56.254	-0.122	-0.054
-315.997	-122.111	0.225	-0.037
-314.983	52.136	-0.229	0.217
-313.968	105.365	0.202	0.237
-312.953	800.000	0.061	-0.203
-311.939	800.000	-0.058	0.217
-310.924	-85.405	-0.063	0.020
-309.910	-200.000	0.048	-0.221
-308.895	24.881	0.015	-0.012
-307.880	204.486	-0.066	0.102
-306.866	34.212	0.076	-0.066
-305.851	112.806	-0.243	-0.293
-304.837	800.000	-0.013	0.037
-303.822	-92.542	0.004	-0.001
-302.807	-147.544	0.055	0.005
-301.793	620.579	0.070	0.176
-300.778	-85.107	0.028	-0.009
-299.764	-75.641	0.133	-0.047
-298.749	41.952	0.219	0.197
-297.735	347.310	-0.158	0.309
-296.720	446.969	-0.174	0.381
-295.705	95.589	0.088	0.100
-294.691	36.150	-0.181	0.159
-293.676	27.443	-0.149	0.124
-292.662	-137.544	-0.172	-0.019
-291.647	800.000	-0.026	0.084
-290.632	-200.000	0.031	-0.184
-289.618	-200.000	0.024	0.284
-288.603	-93.428	-0.209	-0.057
-287.589	-87.621	-0.232	-0.070
-286.574	-129.965	0.456	-0.062
-285.559	-178.392	-0.246	-0.006
-284.545	-58.498	0.240	0.103
-283.530	116.535	-0.068	0.083
-282.516	12.523	0.111	-0.085
-281.501	-200.000	-0.027	-0.184
-280.486	-200.000	0.002	-0.093
-279.472	800.000	-0.065	-0.260
-278.457	15.415	-0.112	-0.087
-277.443	-32.627	-0.113	-0.062
-276.428	-106.327	0.225	-0.050
-275.413	196.322	0.056	0.085
-274.399	800.000	0.073	0.262
-273.384	-135.965	-0.222	0.026
-272.370	-99.891	0.453	-0.113
-271.355	-148.091	0.061	0.005
-270.340	-136.613	-0.178	-0.021
-269.326	-200.000	-0.082	-0.510
-268.311	316.153	-0.151	-0.283
-267.297	14.268	-0.138	-0.107
-266.282	800.000	0.053	0.176
-265.267	-200.000	0.000	0.269
-264.253	800.000	-0.109	-0.426
-263.238	511.420	0.059	0.136
-262.224	-200.000	0.015	0.363
-261.209	-102.913	0.170	0.040
-260.195	-89.277	0.036	-0.011
-259.180	-16.341	0.214	-0.135
-258.165	-42.974	0.274	-0.138
-257.151	-154.830	-0.148	-0.010
-256.136	-200.000	0.048	0.216
-255.122	31.801	-0.102	0.088
-254.107	40.086	0.165	-0.147
-253.092	221.816	-0.083	-0.133
-252.078	-118.059	0.249	0.044
-251.063	-200.000	0.068	0.366
-250.049	-22.365	0.203	0.122
-249.034	135.007	0.132	0.170
-248.019	126.262	0.307	0.385
-247.005	547.337	0.203	0.481
-245.990	345.024	0.077	0.150
-244.976	39.179	0.235	0.209
-243.961	151.818	-0.086	-0.117
-242.946	245.480	-0.130	0.217
-241.932	11.483	0.023	0.017
-240.917	-55.286	-0.168	0.075
-239.903	94.792	-0.113	0.127
-238.888	176.372	-0.028	0.041
-237.873	5.140	0.120	0.087
-236.859	-200.000	0.075	0.459
-235.844	-49.850	-0.175	-0.083
-234.830	-200.000	-0.017	0.187
-233.815	60.042	-0.131	-0.128
-232.800	-61.702	0.334	0.139
-231.786	-35.816	-0.027	0.015
-230.771	72.007	-0.067	-0.069
-229.757	720.438	0.059	-0.156
-228.742	119.740	-0.094	-0.116
-227.727	56.750	0.120	0.116
-226.713	-150.724	-0.109	-0.008
-225.698	316.767	-0.119	0.222
-224.684	-200.000	-0.003	-0.117
-223.669	-192.701	0.230	-0.002
-222.655	289.628	-0.075	-0.135
-221.640	-62.063	0.254	0.105
-220.625	409.541	-0.046	0.096
-219.611	-155.278	0.380	-0.025
-218.596	-200.000	0.030	-0.153
-217.582	-200.000	0.002	0.085
-216.567	346.098	0.123	-0.240
-215.552	718.393	-0.159	-0.418
-214.538	-200.000	0.027	0.120
-213.523	800.000	-0.059	-0.169
-212.509	-55.461	0.171	0.076
-211.494	-142.652	0.202	-0.020
-210.479	-200.000	0.044	0.264
-209.465	-200.000	-0.005	0.280
-208.450	-200.000	-0.047	-0.270
-207.436	-128.380	0.138	0.019
-206.421	-200.000	0.028	0.371
-205.406	348.002	-0.117	0.228
-204.392	215.487	-0.125	-0.196
-203.377	-146.273	0.149	-0.013
-202.363	165.697	0.106	-0.149
-201.348	145.705	0.167	-0.222
-200.333	800.000	0.109	-0.299
-199.319	-129.625	-0.346	0.047
-198.304	-167.579	0.005	-0.000
-197.290	309.682	0.038	0.070
-196.275	-200.000	-0.050	0.257
-195.260	-200.000	0.010	-0.534
-194.246	476.754	0.034	0.077
-193.231	2.435	-0.164	0.118
-192.217	284.926	0.075	-0.134
-191.202	-72.762	-0.266	-0.097
-190.187	9.850	-0.197	0.148
-189.173	-2.660	0.094	-0.065
-188.158	28.495	0.095	-0.079
-187.144	171.402	-0.144	0.205
-186.129	33.875	0.282	0.243
-185.114	-47.434	0.111	-0.053
-184.100	-137.394	0.140	0.016
-183.085	159.209	-0.230	-0.316
-182.071	114.718	-0.082	0.099
-181.056	80.809	0.088	0.094
-180.042	-168.418	-0.214	0.008
-179.027	167.397	-0.193	-0.272
-178.012	-72.601	0.144	0.053
-176.998	-200.000	0.051	0.495
-175.983	138.131	0.351	0.456
-174.969	-200.000	-0.021	0.115
-173.954	-43.914	0.087	-0.043
-172.939	-95.557	0.232	-0.062
-171.925	-6.405	-0.195	0.131
-170.910	-200.000	0.003	0.393
-169.896	-200.000	-0.035	0.251
-168.881	443.219	-0.049	-0.106
-167.866	10.462	-0.151	0.114
-166.852	800.000	-0.019	0.057
-165.837	-200.000	0.012	-0.061
-164.823	202.279	-0.112	-0.171
-163.808	-90.327	-0.294	0.084
-162.793	301.582	0.219	0.401
-161.779	-80.210	0.209	-0.069
-160.764	4.291	0.267	0.193
-159.750	-155.815	-0.164	0.010
-158.735	-56.137	0.153	-0.067
-157.720	189.214	0.229	-0.339
-156.706	165.668	-0.065	0.090
-155.691	-200.000	0.027	-0.165
-154.677	-96.126	0.387	-0.102
-153.662	774.457	0.054	-0.145
-152.647	-78.560	-0.376	-0.127
-151.633	-68.944	-0.117	0.045
-150.618	451.999	-0.214	0.467
-149.604	-200.000	0.014	0.158
-148.589	-122.478	-0.204	-0.033
-147.574	273.000	-0.182	-0.318
-146.560	38.502	0.175	0.154
-145.545	-129.317	-0.299	0.041
-144.531	357.894	-0.126	0.248
-143.516	306.144	-0.007	-0.013
-142.502	464.478	-0.157	0.347
-141.487	-75.470	0.223	-0.078
-140.472	-134.850	0.167	-0.020
-139.458	-37.343	-0.158	-0.084
-138.443	-189.739	-0.172	-0.002
-137.429	-77.008	-0.492	-0.170
-136.414	208.017	0.116	0.179
-135.399	119.160	0.104	-0.127
-134.385	-169.145	-0.267	0.010
-133.370	-200.000	-0.029	0.211
-132.356	222.832	0.193	-0.308
-131.341	-200.000	-0.001	-0.064
-130.326	-200.000	-0.004	-0.191
-129.312	-200.000	-0.021	0.260
-128.297	-166.969	0.330	0.013
-127.283	-53.428	-0.089	-0.040
-126.268	713.002	-0.119	0.311
-125.253	800.000	-0.074	0.279
-124.239	66.761	0.175	-0.176
-123.224	-91.761	-0.012	0.003
-122.210	382.378	0.169	0.344
-121.195	201.035	-0.197	0.300
-120.180	54.064	-0.116	-0.110
-119.166	157.288	0.126	0.173
-118.151	-200.000	-0.048	0.251
-117.137	-123.450	0.129	0.020
-116.122	-67.370	0.034	0.013
-115.107	800.000	-0.038	0.117
-114.093	-200.000	-0.011	0.283
-113.078	152.287	-0.112	-0.151
-112.064	800.000	0.005	0.018
-111.049	-200.000	-0.104	-0.486
-110.034	125.882	0.106	-0.133
-109.020	562.989	-0.016	-0.038
-108.005	800.000	0.043	0.152
-106.991	12.142	0.196	0.149
-105.976	-146.107	0.148	0.013
-104.962	-36.072	0.288	-0.154
-103.947	125.663	0.190	0.237
-102.932	25.022	0.099	0.081
-101.918	-33.687	0.159	0.086
-100.903	800.000	-0.095	-0.300
-99.889	-200.000	-0.001	-0.108
-98.874	70.481	0.176	-0.179
-97.859	106.341	0.160	0.188
-96.845	-200.000	0.019	0.177
-95.830	-200.000	0.030	-0.259
-94.816	-58.129	-0.215	-0.092
-93.801	-200.000	0.017	-0.179
-92.786	35.581	0.148	-0.128
-91.772	-42.426	0.172	-0.087
-90.757	-9.833	0.130	0.085
-89.743	79.796	0.105	0.111
-88.728	771.615	-0.065	0.175
-87.713	-200.000	0.042	0.228
-86.699	-26.047	-0.156	0.091
-85.684	800.000	0.120	-0.433
-84.670	-110.091	0.281	-0.058
-83.655	228.390	0.047	-0.075
-82.640	215.296	-0.098	-0.153
-81.626	52.721	-0.066	0.062
-80.611	26.780	-0.206	-0.170
-79.597	-91.321	0.420	0.118
-78.582	289.738	-0.143	0.256
-77.567	61.734	-0.255	-0.250
-76.553	49.744	0.144	0.133
-75.538	-162.676	0.200	-0.010
-74.524	538.668	0.088	-0.207
-73.509	286.613	0.126	0.224
-72.494	-200.000	-0.013	0.208
-71.480	417.151	0.032	-0.067
-70.465	800.000	0.024	-0.069
-69.451	440.491	-0.032	0.069
-68.436	800.000	-0.064	0.219
-67.422	-81.435	0.084	0.027
-66.407	402.492	0.089	0.185
-65.392	-60.100	-0.138	-0.058
-64.378	-200.000	0.006	-0.240
-63.363	-200.000	0.018	0.350
-62.349	-47.030	-0.264	-0.127
-61.334	81.095	-0.861	-0.916
-60.319	43.492	0.646	0.582
-59.305	800.000	-0.298	-1.056
-58.290	156.948	0.627	0.854
-57.276	709.943	0.455	1.186
-56.261	-200.000	98.131	586.593
-55.246	548.181	1393.118	3286.773
-54.232	153.542	2590.244	3494.862
-53.217	114.243	2157.312	2586.724
-52.203	45.933	1613.421	1470.532
-51.188	37.896	1350.321	1182.209
-50.173	34.606	1307.162	1125.026
-49.159	57.732	1357.715	1307.874
-48.144	61.541	1375.323	1347.588
-47.130	38.244	1329.025	1165.459
-46.115	34.495	1311.779	1128.165
-45.100	34.287	1307.034	1122.816
-44.086	34.277	1304.899	1120.874
-43.071	34.151	1302.593	1118.111
-42.057	34.098	1300.516	1115.975
-41.042	34.252	1298.794	1115.356
-40.027	34.355	1296.934	1114.313
-39.013	34.216	1295.540	1112.261
-37.998	34.148	1293.658	1110.206
-36.984	34.294	1291.675	1109.305
-35.969	34.338	1290.196	1108.248
-34.954	34.344	1288.420	1106.712
-33.940	34.338	1287.210	1105.596
-32.925	34.397	1285.953	1104.814
-31.911	34.466	1283.973	1103.471
-30.896	34.281	1283.317	1101.792
-29.881	34.455	1281.688	1101.352
-28.867	34.497	1280.294	1100.354
-27.852	34.457	1278.887	1098.872
-26.838	34.492	1277.247	1097.618
-25.823	34.407	1276.390	1096.352
-24.809	34.366	1274.690	1094.611
-23.794	34.406	1273.493	1093.773
-22.779	34.420	1272.083	1092.596
-21.765	34.386	1270.887	1091.332
-20.750	34.441	1269.459	1090.379
-19.736	34.286	1268.269	1088.423
-18.721	34.205	1267.322	1087.106
-17.706	34.293	1265.955	1086.395
-16.692	34.213	1264.619	1084.750
-15.677	34.236	1263.454	1083.835
-14.663	34.185	1262.810	1082.949
-13.648	34.288	1261.711	1082.553
-12.633	34.261	1260.768	1081.545
-11.619	34.244	1260.235	1080.951
-10.604	34.236	1259.107	1079.896
-9.590	34.289	1257.984	1079.188
-8.575	34.329	1256.654	1078.230
-7.560	34.204	1256.154	1077.051
-6.546	34.196	1255.078	1076.038
-5.531	34.238	1254.152	1075.442
-4.517	34.202	1253.671	1074.783
-3.502	34.222	1252.986	1074.267
-2.487	34.226	1251.707	1073.146
-1.473	34.240	1247.900	1069.919
-0.458	32.718	1233.067	1048.706
0.556	29.474	1215.923	1011.401
1.571	25.959	1221.477	996.543
2.586	25.021	1237.233	1004.056
3.600	24.211	1226.012	990.359
4.615	17.458	1152.976	895.855
5.629	6.860	1074.475	782.543
6.644	2.257	1052.851	744.351
7.659	1.863	1050.426	740.659
8.673	1.656	1049.583	738.990
9.688	1.696	1047.333	737.536
10.702	2.150	1046.459	739.054
11.717	8.835	1056.209	778.436
12.731	19.162	1070.998	839.891
13.746	24.103	1076.525	868.307
14.761	24.838	1077.312	872.454
15.775	24.839	1076.985	872.113
16.790	24.574	1076.092	870.023
17.804	24.747	1075.331	870.174
18.819	24.674	1075.319	869.731
19.834	24.920	1074.819	870.445
20.848	24.802	1074.672	869.675
21.863	24.904	1074.115	869.645
22.877	24.935	1072.946	868.772
23.892	24.817	1072.092	867.433
24.907	24.854	1071.867	867.354
25.921	24.801	1070.435	865.857
26.936	24.704	1069.604	864.641
27.950	24.767	1067.261	862.977
28.965	24.549	1066.239	861.021
29.980	24.731	1064.709	860.587
30.994	24.901	1063.705	860.514
32.009	24.924	1063.023	859.997
33.023	24.654	1061.525	857.415
34.038	24.900	1060.396	857.608
35.053	24.868	1059.994	857.053
36.067	24.838	1059.169	856.166
37.082	24.963	1058.568	856.203
38.096	25.181	1057.911	856.635
39.111	25.080	1057.418	855.677
40.126	24.932	1056.180	853.897
41.140	24.662	1053.955	850.735
42.155	24.432	1052.821	848.650
43.169	24.377	1051.970	847.631
44.184	24.438	1051.227	847.244
45.199	24.461	1049.763	846.098
46.213	24.412	1049.351	845.459
47.228	24.740	1048.451	846.213
48.242	24.609	1047.401	844.671
49.257	24.855	1046.527	845.052
50.271	24.935	1045.763	844.741
51.286	24.951	1045.282	844.351
52.301	24.872	1044.899	843.596
53.315	24.828	1043.593	842.261
54.330	24.774	1042.822	841.307
55.344	24.781	1042.330	840.871
56.359	24.798	1040.771	839.618
57.374	24.618	1039.857	837.963
58.388	24.580	1039.800	837.664
59.403	24.595	1038.607	836.701
60.417	24.358	1037.619	834.719
61.432	24.481	1037.251	834.927
62.447	24.658	1036.067	834.724
63.461	24.594	1035.801	834.139
64.476	24.423	1034.896	832.540
65.490	24.490	1033.714	831.824
66.505	24.488	1032.978	831.149
67.520	24.721	1032.172	831.511
68.534	24.348	1031.525	829.182
69.549	24.074	1030.058	826.659
70.563	24.248	1029.084	826.612
71.578	24.168	1028.224	825.474
72.593	23.979	1027.097	823.625
73.607	23.986	1027.173	823.646
74.622	24.306	1026.643	824.625
75.636	24.268	1026.397	824.180
76.651	24.288	1024.653	822.798
77.666	24.190	1024.130	821.853
78.680	24.198	1023.896	821.632
79.695	24.381	1023.023	821.700
80.709	24.482	1022.068	821.327
81.724	24.475	1021.354	820.646
82.739	24.635	1020.401	820.544
83.753	24.932	1020.191	821.665
84.768	25.191	1019.209	821.990
85.782	25.227	1018.483	821.495
86.797	25.150	1017.635	820.387
87.812	25.073	1016.906	819.372
88.826	25.102	1015.909	818.630
89.841	25.195	1014.736	818.039
90.855	25.127	1013.907	816.988
91.870	25.064	1013.330	816.164
92.884	24.987	1011.924	814.607
93.899	25.092	1010.481	813.850
94.914	24.999	1010.452	813.332
95.928	24.937	1009.162	811.943
96.943	24.717	1007.864	809.830
97.957	24.559	1006.378	807.847
98.972	24.245	1006.157	806.181
99.987	24.621	1005.647	807.400
101.001	24.754	1004.497	807.005
102.016	24.796	1003.667	806.454
103.030	24.695	1002.745	805.188
104.045	24.526	1001.906	803.684
105.060	24.425	1000.936	802.382
106.074	24.593	1000.443	802.668
107.089	24.904	999.643	803.354
108.103	24.811	998.493	801.938
109.118	24.682	997.205	800.259
110.133	24.557	996.648	799.179
111.147	24.470	994.847	797.277
112.162	24.286	994.423	796.044
113.176	24.525	993.630	796.407
114.191	24.385	993.148	795.324
115.206	24.101	991.996	793.068
116.220	24.207	990.996	792.668
117.235	24.389	990.212	792.780
118.249	24.306	989.873	792.070
119.264	24.227	988.889	790.862
120.279	24.321	988.291	790.731
121.293	24.288	987.627	789.982
122.308	24.270	987.057	789.376
123.322	24.208	985.577	787.851
124.337	24.110	984.098	786.164
125.352	23.618	982.640	782.762
126.366	23.523	982.178	781.904
127.381	24.355	981.685	785.107
128.395	24.729	981.361	786.427
129.410	24.831	980.310	785.962
130.424	24.752	979.563	784.947
131.439	24.817	978.641	784.424
132.454	24.791	977.390	783.237
133.468	24.751	976.521	782.296
134.483	24.831	976.366	782.455
135.497	24.916	975.873	782.362
136.512	25.031	974.717	781.867
137.527	25.158	973.608	781.460
138.541	25.215	973.053	781.196
139.556	25.217	972.477	780.670
140.570	25.092	972.044	779.712
141.585	25.069	971.033	778.733
142.600	25.058	969.789	777.616
143.614	25.206	969.269	777.773
144.629	25.304	968.368	777.406
145.643	25.220	967.041	775.907
146.658	25.144	965.408	774.200
147.673	24.997	964.531	772.796
148.687	24.800	964.015	771.465
149.702	24.736	962.612	769.996
150.716	24.929	961.383	769.777
151.731	24.936	961.445	769.786
152.746	25.154	960.678	770.044
153.760	25.138	960.074	769.422
154.775	25.265	959.502	769.437
155.789	25.135	959.101	768.490
156.804	25.133	957.018	766.746
157.819	25.227	957.043	767.100
158.833	25.426	956.008	767.054
159.848	25.339	955.156	765.931
160.862	25.329	953.401	764.414
161.877	25.148	952.818	763.109
162.892	25.112	952.162	762.360
163.906	25.183	950.760	761.471
164.921	25.156	949.830	760.548
165.935	25.181	949.101	760.001
166.950	25.160	948.474	759.343
167.964	25.015	947.925	758.224
168.979	25.076	946.199	757.031
169.994	25.046	945.734	756.466
171.008	25.137	945.205	756.360
172.023	25.217	944.478	756.049
173.037	25.056	943.190	754.275
174.052	24.852	941.894	752.316
175.067	25.171	941.139	752.982
176.081	24.942	941.123	751.943
177.096	24.929	940.345	751.199
178.110	24.565	939.857	749.218
179.125	24.553	938.599	748.098
180.140	24.682	937.897	748.014
181.154	24.836	937.966	748.643
182.169	25.140	937.836	749.745
183.183	25.221	937.307	749.593
184.198	25.121	936.549	748.504
185.213	25.149	935.778	747.940
186.227	25.160	935.611	747.787
187.242	25.055	934.692	746.548
188.256	25.220	933.704	746.377
189.271	25.407	932.745	746.324
190.286	24.852	931.797	743.196
191.300	24.329	930.456	739.891
192.315	23.561	928.842	735.358
193.329	23.604	928.381	735.106
194.344	24.316	929.189	738.634
195.359	25.100	928.703	741.427
196.373	25.131	928.401	741.247
197.388	25.018	927.826	740.257
198.402	25.040	927.036	739.649
199.417	25.093	926.457	739.342
200.432	24.867	925.159	737.307
201.446	24.796	924.457	736.394
202.461	24.865	923.674	735.989
203.475	23.986	921.922	730.918
204.490	23.136	920.296	726.078
205.504	23.958	921.092	730.016
206.519	24.562	921.142	732.468
207.534	24.605	920.929	732.411
208.548	25.219	920.109	734.205
209.563	25.045	919.482	732.927
210.577	24.937	918.574	731.699
211.592	25.435	918.408	733.536
212.607	25.407	917.436	732.581
213.621	25.323	916.705	731.589
214.636	25.299	916.430	731.209
215.650	25.231	915.642	730.240
216.665	25.367	915.077	730.276
217.680	25.419	913.777	729.385
218.694	24.828	912.955	726.267
219.709	24.600	912.869	725.210
220.723	25.081	911.782	726.230
221.738	25.168	911.214	726.067
222.753	24.997	911.090	725.212
223.767	25.211	910.282	725.368
224.782	25.522	909.843	726.212
225.796	25.380	909.490	725.293
226.811	24.787	907.832	721.515
227.826	23.954	906.909	717.361
228.840	24.410	906.201	718.574
229.855	24.427	905.656	718.147
230.869	24.113	904.306	715.748
231.884	24.397	904.497	716.977
232.899	25.226	904.405	720.173
233.913	24.961	903.993	718.718
234.928	25.034	903.452	718.515
235.942	24.933	902.909	717.617
236.957	24.580	902.203	715.576
237.972	24.732	901.209	715.334
238.986	24.846	900.835	715.427
240.001	24.799	900.474	714.891
241.015	24.857	899.518	714.301
242.030	25.093	899.293	715.001
243.045	25.158	899.116	715.054
244.059	25.178	898.399	714.500
245.074	24.970	897.541	712.928
246.088	24.741	896.186	710.877
247.103	25.035	895.962	711.806
248.117	25.690	895.970	714.352
249.132	25.812	895.620	714.494
250.147	25.767	895.459	714.120
251.161	25.936	894.971	714.339
252.176	25.869	894.215	713.408
253.190	26.102	893.323	713.554
254.205	26.089	893.409	713.508
255.220	26.231	892.151	713.000
256.234	25.924	891.853	711.487
257.249	25.944	891.011	710.830
258.263	25.917	890.036	709.887
259.278	25.933	889.653	709.580
260.293	26.087	889.337	709.869
261.307	25.945	888.586	708.649
262.322	25.879	887.482	707.447
263.336	25.022	885.578	702.510
264.351	24.091	883.823	697.409
265.366	24.071	883.811	697.261
266.380	25.165	884.366	701.923
267.395	25.618	884.130	703.442
268.409	25.659	883.369	702.937
269.424	25.763	882.906	702.914
270.439	25.706	882.230	702.089
271.453	25.887	881.675	702.290
272.468	26.022	881.347	702.493
273.482	26.054	881.299	702.515
274.497	25.587	879.490	699.198
275.512	25.388	878.629	697.681
276.526	25.755	878.703	699.100
277.541	25.874	878.552	699.382
278.555	25.664	877.784	697.894
279.570	25.546	876.634	696.461
280.585	25.693	876.379	696.766
281.599	25.503	875.209	695.041
282.614	24.898	874.321	691.933
283.628	24.983	873.964	691.919
284.643	25.540	873.078	693.305
285.657	25.052	871.740	690.302
286.672	24.660	871.400	688.462
287.687	25.304	871.649	691.077
288.701	25.311	871.016	690.542
289.716	25.077	869.798	688.615
290.730	25.002	869.365	687.922
291.745	24.788	868.412	686.288
292.760	25.067	868.612	687.456
293.774	26.146	868.565	691.494
294.789	26.485	868.822	692.937
295.803	26.432	867.984	692.003
296.818	26.452	867.155	691.357
297.833	25.896	866.121	688.350
298.847	25.738	865.326	687.055
299.862	26.157	865.483	688.717
300.876	26.292	865.030	688.810
301.891	26.330	864.264	688.283
302.906	25.866	863.319	685.706
303.920	25.915	862.980	685.561
304.935	26.345	862.853	687.036
305.949	26.240	862.040	685.928
306.964	25.956	861.320	684.217
307.979	26.157	860.789	684.497
308.993	26.436	860.744	685.458
310.008	26.358	860.209	684.673
311.022	26.350	858.765	683.435
312.037	26.011	858.418	681.816
313.052	25.819	857.880	680.604
314.066	24.914	856.015	675.649
315.081	24.633	855.383	674.030
316.095	25.413	855.802	677.243
317.110	25.986	855.674	679.242
318.125	25.064	853.900	674.306
319.139	24.072	852.273	669.237
320.154	24.187	851.829	669.259
321.168	24.954	852.664	672.738
322.183	25.806	852.388	675.659
323.197	25.780	852.459	675.559
324.212	26.042	852.084	676.183
325.227	25.916	851.644	675.302
326.241	26.061	850.606	674.963
327.256	25.863	850.340	673.950
328.270	25.861	849.102	672.901
329.285	25.655	848.359	671.484
330.300	25.488	847.619	670.216
331.314	25.584	847.631	670.526
332.329	26.089	847.351	672.128
333.343	26.324	847.009	672.671
334.358	26.111	847.013	671.823
335.373	26.140	846.443	671.416
336.387	26.493	846.646	672.834
337.402	26.651	846.457	673.209
338.416	26.632	845.744	672.512
339.431	26.731	845.491	672.617
340.446	26.878	845.059	672.763
341.460	26.650	844.812	671.659
342.475	26.495	844.291	670.610
343.489	26.632	843.391	670.346
344.504	26.974	843.019	671.255
345.519	27.107	842.854	671.553
346.533	27.018	842.529	670.909
347.548	26.940	842.062	670.187
348.562	27.036	841.169	669.774
349.577	26.856	840.946	668.872
350.592	26.943	840.138	668.489
351.606	26.930	839.542	667.910
352.621	26.825	838.346	666.514
353.635	26.875	837.571	666.021
354.650	26.074	836.278	661.997
355.665	25.180	834.875	657.554
356.679	25.538	834.690	658.662
357.694	25.971	834.517	660.052
358.708	25.756	834.066	658.849
359.723	26.184	834.034	660.329
360.738	26.510	833.468	661.015
361.752	26.845	832.550	661.449
362.767	26.874	832.769	661.672
363.781	27.379	832.118	662.937
364.796	27.338	832.243	662.829
365.810	27.306	831.928	662.403
366.825	27.518	831.102	662.455
367.840	26.948	830.311	659.697
368.854	26.720	829.130	657.873
369.869	26.583	829.190	657.364
370.883	26.813	828.239	657.385
371.898	26.589	828.377	656.625
372.913	26.732	827.794	656.622
373.927	26.968	827.603	657.269
374.942	26.942	826.839	656.508
375.956	27.064	826.464	656.593
376.971	27.178	826.181	656.724
377.986	27.229	826.072	656.762
379.000	27.380	825.019	656.413
380.015	27.192	824.050	654.907
381.029	27.215	823.879	654.794
382.044	27.338	823.347	654.755
383.059	27.289	823.109	654.333
384.073	27.359	822.323	653.902
385.088	27.371	821.744	653.425
386.102	27.117	821.063	651.916
387.117	26.908	820.268	650.478
388.132	26.776	819.066	648.995
389.146	26.266	818.036	646.297
390.161	26.596	818.599	647.865
391.175	27.126	818.272	649.443
392.190	26.723	817.201	647.098
393.205	25.411	814.801	640.467
394.219	23.984	813.276	634.129
395.234	23.802	813.355	633.486
396.248	25.348	814.527	639.858
397.263	26.896	815.532	646.108
398.278	26.739	814.970	645.046
399.292	26.523	814.664	643.978
400.307	26.556	814.146	643.629
401.321	26.729	813.432	643.622
402.336	27.203	813.172	645.040
403.350	27.474	813.439	646.156
404.365	27.855	813.007	647.109
405.380	27.966	812.930	647.382
406.394	27.990	812.283	646.894
407.409	28.077	811.637	646.632
408.423	28.079	811.316	646.326
409.438	28.053	811.226	646.104
410.453	28.052	810.783	645.691
411.467	27.906	810.216	644.667
412.482	28.061	809.641	644.699
413.496	28.142	809.516	644.829
414.511	27.964	809.211	643.901
415.526	28.119	808.235	643.612
416.540	27.982	807.707	642.656
417.555	27.637	807.431	641.162
418.569	27.816	806.709	641.161
419.584	27.772	806.088	640.459
420.599	27.603	805.396	639.258
421.613	109.114	1282.361	1446.876
422.628	94.226	1351.852	1446.987
