DTS Sentinel unit serial number:	SN413079Multiplexer serial number:	ORYXHardware model number:	OX4-SRSoftware version number:	ORYX F/W v4.00 Oryx Data Collector v3.7.2.0data status	okinstallation	princeton_trtdifferential loss correction	single-endedforward channel	channel 1reverse channel	N/Adate	2019/09/11time	03:00:11forward acquisition time	60.00reverse acquisition time	0.00gamma	496.2192k internal	0.2331k external	0.2331temperature offset calibration	0.9927default loss term (dB/km)	0.3790temperature slope calibration	1.0000multiplexer offset coefficient	1.0000multiplexer slope coefficient	1.0000fibre end	0.00T internal ref (°C)	29.28T ext. ref 1 (°C)	-0.29T ext. ref 2 (°C)	23.80length (m)	temperature (°C)	Stokes	anti-Stokes-747.200	-119.248	-0.482	-0.085
-746.185	29.583	0.338	-0.290
-745.171	-32.942	0.178	-0.100
-744.156	191.541	-0.297	0.450
-743.142	-48.829	-0.465	-0.225
-742.127	-200.000	0.124	0.687
-741.112	13.757	0.257	0.201
-740.098	-102.501	-0.343	0.083
-739.083	41.054	-0.029	0.026
-738.069	334.790	0.106	0.206
-737.054	800.000	0.071	-0.223
-736.039	-158.254	-0.343	-0.020
-735.025	-12.287	0.130	-0.086
-734.010	-185.201	0.127	0.002
-732.996	462.796	-0.217	-0.488
-731.981	-93.109	-0.263	0.074
-730.966	-146.741	-0.257	-0.022
-729.952	-200.000	0.020	0.232
-728.937	120.549	0.089	0.111
-727.923	560.847	0.145	0.353
-726.908	-200.000	0.036	0.203
-725.894	800.000	0.031	0.108
-724.879	36.230	0.251	-0.222
-723.864	800.000	-0.005	0.020
-722.850	-200.000	-0.021	-0.200
-721.835	-200.000	0.003	0.047
-720.821	242.482	0.089	0.150
-719.806	-143.980	-0.203	0.019
-718.791	800.000	0.062	0.256
-717.777	148.674	-0.265	-0.359
-716.762	525.941	0.104	-0.246
-715.748	-200.000	-0.029	-0.493
-714.733	800.000	0.047	-0.147
-713.718	296.158	-0.078	-0.143
-712.704	580.740	0.198	-0.489
-711.689	772.897	-0.068	-0.185
-710.675	-149.915	0.263	-0.021
-709.660	81.248	0.062	0.068
-708.645	-200.000	-0.022	0.156
-707.631	-27.907	0.143	0.083
-706.616	-106.179	-0.092	0.021
-705.602	675.770	0.094	0.245
-704.587	287.808	-0.046	0.084
-703.572	-124.884	-0.256	0.040
-702.558	165.592	-0.196	0.278
-701.543	800.000	0.053	0.149
-700.529	-52.613	-0.145	-0.067
-699.514	202.966	-0.085	0.132
-698.499	-200.000	0.015	0.277
-697.485	99.842	0.205	0.239
-696.470	-161.010	-0.168	0.009
-695.456	64.449	-0.111	-0.112
-694.441	-200.000	0.006	-0.065
-693.426	-200.000	0.002	-0.018
-692.412	-103.546	0.379	-0.089
-691.397	-149.684	-0.113	0.009
-690.383	-0.333	-0.116	0.083
-689.368	-123.635	0.214	0.034
-688.354	-200.000	0.021	-0.149
-687.339	328.110	-0.067	0.130
-686.324	-200.000	-0.040	0.314
-685.310	-200.000	-0.011	0.115
-684.295	-89.145	0.358	0.106
-683.281	-22.438	0.083	0.050
-682.266	-86.962	0.409	0.125
-681.251	328.926	0.045	0.086
-680.237	-63.991	0.417	0.171
-679.222	150.325	0.057	0.078
-678.208	104.484	0.227	-0.269
-677.193	-7.228	-0.309	-0.211
-676.178	66.869	0.135	0.138
-675.164	-140.997	0.135	0.014
-674.149	-111.981	-0.264	-0.053
-673.135	800.000	0.015	0.056
-672.120	486.466	-0.051	-0.117
-671.105	111.323	-0.157	-0.189
-670.091	-111.921	-0.127	0.026
-669.076	-170.113	-0.402	0.014
-668.062	514.385	-0.044	0.103
-667.047	-98.768	0.357	-0.091
-666.032	-54.327	-0.180	-0.082
-665.018	-53.808	-0.351	-0.161
-664.003	-117.639	-0.353	-0.064
-662.989	121.839	0.148	-0.186
-661.974	-200.000	-0.023	-0.104
-660.959	-132.754	0.171	0.022
-659.945	83.543	0.038	0.042
-658.930	-115.650	-0.342	0.064
-657.916	-184.060	0.041	0.001
-656.901	240.388	0.331	-0.554
-655.886	-130.778	-0.250	-0.034
-654.872	477.323	-0.054	0.123
-653.857	4.928	0.141	-0.104
-652.843	-182.036	0.269	0.005
-651.828	177.996	-0.139	-0.203
-650.814	-9.573	0.257	-0.172
-649.799	508.586	-0.060	-0.140
-648.784	-64.274	-0.255	0.104
-647.770	-200.000	0.022	-0.249
-646.755	-200.000	0.031	0.142
-645.741	85.497	0.273	0.301
-644.726	153.088	-0.169	0.232
-643.711	438.051	-0.102	-0.223
-642.697	800.000	0.007	-0.021
-641.682	103.009	0.061	0.072
-640.668	-28.986	-0.091	0.052
-639.653	18.428	-0.072	-0.058
-638.638	800.000	-0.062	0.248
-637.624	106.808	-0.252	-0.300
-636.609	-98.621	0.325	-0.083
-635.595	135.299	-0.157	0.204
-634.580	58.377	0.257	-0.253
-633.565	-72.601	0.309	-0.114
-632.551	183.049	0.100	-0.149
-631.536	141.051	0.123	0.163
-630.522	33.666	-0.390	-0.340
-629.507	-3.099	-0.108	-0.076
-628.492	-200.000	0.007	0.075
-627.478	-62.041	0.151	-0.063
-626.463	800.000	0.083	0.259
-625.449	17.847	0.048	0.038
-624.434	205.364	0.162	0.251
-623.419	508.187	0.069	-0.161
-622.405	800.000	0.035	0.123
-621.390	-44.522	-0.087	0.044
-620.376	29.952	0.072	-0.061
-619.361	-109.527	-0.191	-0.040
-618.346	800.000	0.057	-0.173
-617.332	336.788	-0.151	-0.294
-616.317	141.012	0.202	0.267
-615.303	-13.200	0.175	0.114
-614.288	162.655	-0.223	0.313
-613.273	52.939	-0.108	0.103
-612.259	-96.287	-0.211	-0.056
-611.244	-172.449	-0.133	-0.004
-610.230	-122.643	0.324	-0.053
-609.215	89.297	-0.150	-0.168
-608.201	-200.000	-0.008	-0.116
-607.186	-121.579	-0.079	-0.013
-606.171	479.631	0.013	0.028
-605.157	458.642	0.056	0.124
-604.142	-50.771	0.197	-0.093
-603.128	37.620	0.238	-0.212
-602.113	800.000	-0.038	-0.120
-601.098	800.000	-0.006	0.026
-600.084	89.023	0.078	0.087
-599.069	316.962	0.132	-0.250
-598.055	-59.798	-0.256	-0.110
-597.040	-200.000	0.005	-0.174
-596.025	-158.964	0.148	-0.008
-595.011	-4.538	-0.090	-0.062
-593.996	476.265	-0.095	-0.215
-592.982	800.000	-0.077	0.305
-591.967	-119.404	0.183	0.032
-590.952	284.516	0.034	-0.060
-589.938	45.451	0.280	-0.259
-588.923	359.064	-0.029	-0.058
-587.909	-200.000	0.275	0.000
-586.894	-126.313	0.051	0.008
-585.879	337.742	0.139	0.269
-584.865	-200.000	0.002	-0.069
-583.850	-175.288	0.203	-0.006
-582.836	-200.000	0.052	-0.400
-581.821	800.000	-0.023	0.073
-580.806	-104.681	-0.190	-0.044
-579.792	-24.343	-0.206	0.123
-578.777	228.320	0.110	-0.179
-577.763	8.307	-0.148	0.111
-576.748	-200.000	-0.026	-0.233
-575.733	-70.448	0.257	-0.097
-574.719	-29.206	0.155	-0.089
-573.704	-18.257	-0.276	-0.173
-572.690	-68.679	0.370	-0.143
-571.675	-83.830	-0.263	-0.084
-570.661	-89.906	-0.151	0.044
-569.646	362.485	0.112	0.224
-568.631	197.994	-0.159	-0.243
-567.617	8.449	0.155	0.117
-566.602	-200.000	-0.065	0.297
-565.588	25.389	0.223	-0.185
-564.573	-153.447	-0.157	-0.011
-563.558	15.386	-0.157	0.123
-562.544	155.420	-0.165	0.228
-561.529	-200.000	-0.048	0.384
-560.515	-74.854	-0.153	0.055
-559.500	51.996	-0.068	0.065
-558.485	107.241	0.306	0.364
-557.471	-66.914	-0.097	0.038
-556.456	-57.404	0.284	-0.125
-555.442	434.221	0.100	0.217
-554.427	800.000	-0.070	-0.208
-553.412	-172.895	-0.352	-0.011
-552.398	66.242	0.176	0.178
-551.383	103.188	-0.005	0.006
-550.369	800.000	-0.057	-0.158
-549.354	-101.615	-0.025	0.006
-548.339	130.226	0.049	-0.062
-547.325	-99.076	-0.351	-0.089
-546.310	493.769	-0.118	0.270
-545.296	100.133	0.125	0.145
-544.281	-200.000	-0.038	-0.284
-543.266	29.800	-0.135	0.115
-542.252	23.253	-0.200	-0.164
-541.237	-64.446	-0.100	0.041
-540.223	800.000	0.067	0.237
-539.208	123.522	0.086	-0.107
-538.193	-51.459	0.118	0.055
-537.179	-200.000	0.000	0.203
-536.164	610.453	-0.086	-0.213
-535.150	77.110	-0.157	-0.166
-534.135	-121.902	0.177	0.029
-533.121	800.000	-0.096	0.324
-532.106	800.000	0.032	0.114
-531.091	-200.000	-0.022	-0.123
-530.077	174.606	-0.055	0.079
-529.062	13.206	-0.147	0.113
-528.048	-1.209	-0.159	0.112
-527.033	-158.988	-0.143	-0.008
-526.018	-200.000	-0.013	0.216
-525.004	800.000	-0.063	-0.193
-523.989	-200.000	-0.024	-0.129
-522.975	-33.165	-0.115	-0.063
-521.960	-4.191	-0.311	-0.215
-520.945	122.436	0.368	-0.459
-519.931	-200.000	-0.028	0.257
-518.916	-115.272	0.167	-0.032
-517.902	-177.537	-0.167	-0.004
-516.887	-87.860	0.248	0.075
-515.872	-77.296	-0.134	0.046
-514.858	-61.670	-0.273	-0.114
-513.843	-176.869	0.190	-0.005
-512.829	800.000	0.046	-0.135
-511.814	74.360	0.062	0.065
-510.799	174.164	-0.251	0.362
-509.785	93.585	0.241	0.272
-508.770	-2.618	-0.058	-0.040
-507.756	300.844	0.025	-0.046
-506.741	741.971	0.086	0.230
-505.726	62.486	0.225	0.224
-504.712	-200.000	-0.048	-0.280
-503.697	44.282	-0.267	-0.244
-502.683	-5.666	0.341	0.233
-501.668	-26.293	-0.113	0.066
-500.653	-123.784	0.462	0.073
-499.639	1.000	-0.097	0.069
-498.624	-163.322	-0.398	-0.019
-497.610	-126.054	0.414	-0.062
-496.595	-200.000	0.053	0.256
-495.581	368.673	0.085	-0.172
-494.566	3.923	-0.133	-0.097
-493.551	-200.000	-0.022	0.242
-492.537	-200.000	0.064	-0.373
-491.522	-55.080	0.368	-0.165
-490.508	-56.884	0.111	-0.049
-489.493	-172.356	-0.063	-0.002
-488.478	-30.773	-0.185	-0.104
-487.464	683.821	-0.142	0.368
-486.449	-92.433	-0.273	0.076
-485.435	-109.959	0.121	0.025
-484.420	-200.000	0.015	-0.302
-483.405	47.422	-0.290	-0.269
-482.391	111.533	0.176	0.212
-481.376	36.669	0.241	-0.212
-480.362	-200.000	0.012	-0.083
-479.347	8.134	0.108	-0.081
-478.332	800.000	0.079	-0.220
-477.318	-48.373	-0.169	0.081
-476.303	800.000	-0.070	-0.290
-475.289	659.250	-0.104	0.267
-474.274	-50.127	-0.144	-0.068
-473.259	800.000	0.104	0.335
-472.245	-46.141	-0.308	-0.151
-471.230	-98.273	-0.176	0.045
-470.216	800.000	-0.074	0.292
-469.201	-131.776	0.176	-0.023
-468.186	800.000	0.081	-0.301
-467.172	62.461	-0.070	0.069
-466.157	286.146	-0.106	0.191
-465.143	-200.000	0.001	-0.053
-464.128	160.989	-0.043	-0.059
-463.113	-17.118	0.104	0.065
-462.099	800.000	-0.071	-0.237
-461.084	157.067	-0.120	0.165
-460.070	137.334	-0.237	-0.308
-459.055	800.000	0.045	0.190
-458.040	393.111	-0.009	-0.019
-457.026	121.744	0.087	0.108
-456.011	180.462	-0.075	0.109
-454.997	-30.993	-0.254	-0.143
-453.982	-96.374	0.390	0.103
-452.968	173.736	-0.089	0.128
-451.953	-73.600	-0.258	0.093
-450.938	178.462	0.266	-0.387
-449.924	-200.000	0.016	0.193
-448.909	272.645	0.120	0.211
-447.895	-170.603	0.166	-0.006
-446.880	-163.556	-0.084	0.004
-445.865	285.712	-0.040	0.072
-444.851	-46.523	-0.145	-0.071
-443.836	-148.686	-0.253	-0.020
-442.822	-58.955	0.047	-0.020
-441.807	33.529	0.109	0.094
-440.792	262.758	-0.079	0.136
-439.778	123.794	-0.161	0.201
-438.763	-111.873	0.347	0.070
-437.749	229.883	-0.171	0.278
-436.734	148.190	0.129	0.172
-435.719	-150.161	-0.105	-0.008
-434.705	-200.000	0.100	-0.440
-433.690	104.267	0.157	0.184
-432.676	213.247	0.252	0.396
-431.661	-200.000	0.011	0.077
-430.646	-108.773	0.228	0.048
-429.632	-112.579	0.196	0.039
-428.617	800.000	0.056	-0.183
-427.603	-132.190	-0.290	0.037
-426.588	-36.636	-0.165	-0.088
-425.573	-121.965	0.185	-0.030
-424.559	-54.588	-0.380	-0.171
-423.544	-153.008	-0.092	0.006
-422.530	-200.000	-0.002	-0.120
-421.515	5.455	0.174	-0.128
-420.500	-102.695	-0.067	-0.016
-419.486	800.000	-0.095	0.301
-418.471	-200.000	0.004	0.032
-417.457	-141.099	0.298	-0.030
-416.442	800.000	-0.071	-0.207
-415.428	-200.000	-0.005	-0.050
-414.413	-123.686	0.118	-0.019
-413.398	-166.386	0.209	-0.009
-412.384	-10.231	-0.179	0.118
-411.369	-25.548	0.286	-0.168
-410.355	157.918	-0.064	-0.089
-409.340	-200.000	-0.017	-0.187
-408.325	-110.532	0.432	0.089
-407.311	-200.000	-0.034	0.150
-406.296	110.197	0.160	0.191
-405.282	-23.334	-0.215	-0.128
-404.267	-42.889	0.164	0.083
-403.252	-11.812	0.131	-0.085
-402.238	-65.145	-0.473	0.189
-401.223	-38.517	0.183	0.096
-400.209	-114.831	-0.174	0.033
-399.194	161.192	-0.096	-0.134
-398.179	116.606	-0.117	-0.143
-397.165	800.000	0.047	-0.169
-396.150	-111.979	-0.170	0.034
-395.136	-200.000	-0.006	0.048
-394.121	-22.546	-0.147	0.088
-393.106	800.000	-0.042	-0.154
-392.092	4.700	0.372	0.271
-391.077	672.857	-0.070	-0.181
-390.063	180.577	0.151	0.220
-389.048	-200.000	-0.050	0.300
-388.033	-70.013	0.068	-0.026
-387.019	800.000	-0.025	0.089
-386.004	225.239	-0.045	-0.072
-384.990	-200.000	-0.005	0.054
-383.975	-32.833	0.105	-0.058
-382.960	393.619	-0.061	0.127
-381.946	480.307	-0.037	0.084
-380.931	70.918	0.189	-0.194
-379.917	-52.979	-0.196	0.089
-378.902	-16.675	-0.176	0.111
-377.888	-200.000	0.012	-0.059
-376.873	-126.998	0.120	0.017
-375.858	-100.853	-0.085	0.021
-374.844	-55.988	-0.186	-0.082
-373.829	45.675	-0.046	0.042
-372.815	-66.990	-0.131	0.051
-371.800	-13.094	-0.265	0.171
-370.785	226.781	-0.073	-0.118
-369.771	-83.838	0.284	-0.090
-368.756	-22.706	0.106	0.063
-367.742	95.983	0.174	-0.197
-366.727	-200.000	-0.010	0.079
-365.712	-200.000	-0.010	-0.161
-364.698	-200.000	0.023	-0.226
-363.683	-43.167	-0.119	-0.060
-362.669	-200.000	-0.052	-0.303
-361.654	599.428	0.070	-0.172
-360.639	298.809	-0.137	-0.249
-359.625	-200.000	0.033	0.258
-358.610	-200.000	0.014	-0.236
-357.596	-44.850	-0.178	0.088
-356.581	-200.000	0.053	0.384
-355.566	-200.000	-0.021	0.288
-354.552	-124.646	-0.084	0.013
-353.537	-131.836	-0.239	0.031
-352.523	-157.967	-0.141	-0.008
-351.508	-200.000	-0.023	0.214
-350.493	9.913	0.190	0.143
-349.479	-122.351	-0.350	-0.057
-348.464	-148.382	0.213	-0.017
-347.450	-200.000	0.021	0.291
-346.435	-184.920	0.108	0.002
-345.420	-200.000	-0.040	-0.410
-344.406	9.230	0.086	-0.065
-343.391	-22.324	-0.286	-0.172
-342.377	2.514	0.192	-0.138
-341.362	-40.192	-0.162	-0.084
-340.348	-107.086	-0.190	0.041
-339.333	-68.659	-0.040	-0.015
-338.318	-87.202	0.133	0.040
-337.304	173.317	0.235	-0.336
-336.289	99.895	0.127	0.146
-335.275	800.000	-0.082	0.307
-334.260	-67.736	-0.260	-0.101
-333.245	-170.538	-0.191	-0.007
-332.231	-29.757	0.143	-0.081
-331.216	88.176	0.126	0.138
-330.202	-166.214	0.126	-0.005
-329.187	332.498	-0.103	-0.197
-328.172	-200.000	0.051	-0.224
-327.158	-97.623	0.366	0.094
-326.143	186.679	0.181	0.266
-325.129	800.000	0.057	-0.217
-324.114	-10.710	-0.347	-0.227
-323.099	-9.163	0.302	-0.200
-322.085	1.946	-0.135	0.097
-321.070	-155.408	-0.201	0.013
-320.056	-86.476	0.374	-0.114
-319.041	-49.004	-0.297	-0.141
-318.026	-84.029	0.209	-0.066
-317.012	-25.826	0.036	-0.021
-315.997	777.861	0.017	0.047
-314.983	-200.000	-0.008	0.219
-313.968	-9.933	-0.053	0.035
-312.953	-144.945	-0.090	0.008
-311.939	36.103	-0.164	-0.143
-310.924	-37.832	0.106	0.056
-309.910	-3.243	0.092	0.063
-308.895	-200.000	0.001	0.108
-307.880	21.635	0.038	-0.031
-306.866	326.764	-0.102	-0.194
-305.851	-200.000	-0.013	-0.073
-304.837	800.000	0.159	-0.486
-303.822	-81.640	0.181	0.059
-302.807	800.000	0.040	0.144
-301.793	30.374	0.214	-0.181
-300.778	-75.517	0.316	-0.111
-299.764	-123.213	-0.332	-0.052
-298.749	391.024	-0.250	-0.513
-297.735	5.521	-0.085	-0.062
-296.720	800.000	0.041	0.147
-295.705	70.576	0.197	-0.202
-294.691	437.208	0.161	0.348
-293.676	100.279	0.125	-0.144
-292.662	132.863	0.114	0.146
-291.647	69.341	0.079	-0.081
-290.632	-86.146	0.084	0.025
-289.618	444.697	-0.107	0.231
-288.603	-200.000	0.020	-0.123
-287.589	415.320	0.098	0.207
-286.574	-200.000	-0.022	0.212
-285.559	-200.000	-0.018	0.135
-284.545	-95.297	-0.237	-0.063
-283.530	-94.373	0.172	0.047
-282.516	38.710	-0.106	-0.093
-281.501	420.502	-0.129	0.273
-280.486	-29.825	0.084	0.047
-279.472	-41.170	-0.154	-0.079
-278.457	-94.736	0.067	-0.018
-277.443	-86.726	-0.143	-0.043
-276.428	-200.000	-0.007	-0.075
-275.413	-132.354	0.091	0.012
-274.399	90.090	-0.088	-0.098
-273.384	-62.153	-0.358	-0.147
-272.370	201.988	-0.052	0.080
-271.355	-96.652	0.142	0.037
-270.340	-200.000	-0.037	-0.386
-269.326	105.591	-0.006	-0.007
-268.311	-58.822	0.121	0.052
-267.297	-92.500	0.174	0.048
-266.282	800.000	0.126	-0.405
-265.267	7.123	-0.211	-0.156
-264.253	-46.741	0.126	-0.061
-263.238	-200.000	-0.002	-0.180
-262.224	48.486	-0.051	-0.047
-261.209	103.616	-0.146	-0.170
-260.195	712.335	-0.029	0.076
-259.180	-200.000	0.035	0.247
-258.165	-17.199	-0.099	0.062
-257.151	-200.000	0.011	0.057
-256.136	-200.000	0.008	-0.059
-255.122	273.993	0.076	0.133
-254.107	604.800	0.044	-0.108
-253.092	-106.388	-0.177	-0.039
-252.078	168.766	-0.162	0.228
-251.063	367.314	0.135	0.269
-250.049	800.000	0.085	0.336
-249.034	-200.000	-0.019	0.331
-248.019	-200.000	-0.045	-0.367
-247.005	395.651	0.130	0.267
-245.990	-154.538	0.080	-0.005
-244.976	213.448	-0.227	-0.354
-243.961	46.043	0.085	-0.077
-242.946	-31.085	0.162	-0.090
-241.932	6.807	0.217	0.159
-240.917	62.231	0.221	0.218
-239.903	288.071	-0.061	0.109
-238.888	17.673	0.206	-0.162
-237.873	77.021	-0.335	0.351
-236.859	-200.000	0.023	0.236
-235.844	-200.000	0.010	-0.201
-234.830	383.629	-0.070	-0.142
-233.815	-101.878	-0.051	-0.012
-232.800	135.252	0.151	-0.194
-231.786	-68.874	-0.100	0.038
-230.771	800.000	-0.055	-0.168
-229.757	189.546	-0.141	0.209
-228.742	145.232	0.056	0.074
-227.727	13.611	-0.084	-0.064
-226.713	48.767	0.146	0.135
-225.698	780.713	-0.058	0.156
-224.684	-165.707	-0.141	-0.006
-223.669	-200.000	0.002	0.276
-222.655	591.548	-0.080	0.195
-221.640	617.727	0.015	-0.036
-220.625	-81.872	0.231	-0.074
-219.611	191.400	-0.124	-0.184
-218.596	97.156	0.220	-0.249
-217.582	75.896	0.034	-0.035
-216.567	800.000	0.049	0.188
-215.552	-2.174	0.167	0.115
-214.538	-67.915	0.094	-0.036
-213.523	-21.212	0.150	-0.090
-212.509	-102.513	0.104	0.024
-211.494	-200.000	-0.004	0.313
-210.479	-200.000	0.028	-0.236
-209.465	178.127	0.209	-0.300
-208.450	-200.000	0.032	-0.320
-207.436	-107.234	0.147	-0.032
-206.421	800.000	0.042	-0.135
-205.406	-200.000	0.042	0.309
-204.392	-200.000	0.012	0.126
-203.377	390.834	0.169	-0.346
-202.363	-161.672	0.154	0.008
-201.348	108.362	-0.514	0.604
-200.333	-105.451	-0.276	0.062
-199.319	77.604	-0.128	-0.134
-198.304	-48.409	-0.364	-0.173
-197.290	-111.998	-0.264	0.052
-196.275	494.242	-0.131	-0.297
-195.260	60.796	-0.137	0.134
-194.246	-133.439	-0.201	0.025
-193.231	304.329	0.024	-0.044
-192.217	-70.695	0.013	0.005
-191.202	-98.019	0.273	0.069
-190.187	-149.687	-0.290	-0.023
-189.173	-61.429	-0.241	-0.100
-188.158	64.622	-0.131	0.130
-187.144	-43.753	0.203	-0.101
-186.129	-20.318	0.097	0.059
-185.114	260.788	0.129	0.220
-184.100	-75.790	0.178	-0.062
-183.085	-200.000	0.015	0.347
-182.071	800.000	-0.020	-0.072
-181.056	800.000	-0.056	-0.228
-180.042	182.245	0.135	-0.196
-179.027	-31.237	-0.031	-0.017
-178.012	-32.863	-0.151	-0.083
-176.998	60.499	0.014	-0.013
-175.983	-65.905	-0.277	0.109
-174.969	6.850	0.086	0.063
-173.954	168.404	-0.267	0.374
-172.939	5.594	0.137	-0.099
-171.925	-133.191	-0.118	-0.015
-170.910	800.000	0.047	0.176
-169.896	-200.000	-0.009	0.409
-168.881	-37.314	0.251	-0.132
-167.866	-89.859	-0.160	0.046
-166.852	800.000	0.032	-0.135
-165.837	-200.000	0.012	0.099
-164.823	800.000	-0.001	-0.003
-163.808	134.007	0.130	-0.166
-162.793	-88.588	0.140	0.041
-161.779	153.929	0.048	0.064
-160.764	-92.049	0.089	0.025
-159.750	255.102	-0.041	0.070
-158.735	605.865	-0.089	0.217
-157.720	43.433	0.066	-0.059
-156.706	459.868	-0.090	-0.197
-155.691	-200.000	-0.025	-0.179
-154.677	60.199	-0.042	-0.041
-153.662	-130.499	0.343	0.046
-152.647	-27.724	0.081	0.046
-151.633	-200.000	0.020	0.155
-150.618	9.915	-0.198	-0.148
-149.604	-200.000	-0.027	0.000
-148.589	-200.000	-0.013	0.237
-147.574	13.472	0.346	0.264
-146.560	-105.797	-0.218	0.048
-145.545	241.475	-0.072	-0.118
-144.531	128.427	-0.086	-0.108
-143.516	-161.863	0.236	0.012
-142.502	-128.271	0.217	0.030
-141.487	15.454	0.153	-0.118
-140.472	37.068	-0.193	-0.168
-139.458	-100.222	0.181	-0.044
-138.443	-94.677	0.087	0.023
-137.429	-50.507	0.234	0.108
-136.414	198.957	-0.151	0.228
-135.399	-141.603	0.055	0.005
-134.385	-200.000	-0.015	-0.234
-133.370	800.000	-0.133	0.389
-132.356	-156.427	0.173	0.011
-131.341	-117.755	0.297	0.052
-130.326	90.120	-0.238	0.261
-129.312	-74.532	0.056	-0.020
-128.297	109.116	-0.081	-0.096
-127.283	-185.236	0.208	0.003
-126.268	-97.984	0.440	-0.112
-125.253	41.845	0.099	0.088
-124.239	800.000	-0.019	-0.057
-123.224	-61.040	-0.385	-0.160
-122.210	157.572	-0.069	-0.094
-121.195	-70.855	0.402	0.149
-120.180	-107.136	0.167	0.036
-119.166	-83.623	-0.362	-0.114
-118.151	-53.288	0.373	0.168
-117.137	100.001	-0.154	0.176
-116.122	-63.838	-0.131	-0.053
-115.107	-200.000	-0.021	0.102
-114.093	84.252	0.214	-0.230
-113.078	-100.235	0.283	-0.069
-112.064	291.310	0.100	0.178
-111.049	-200.000	0.005	-0.119
-110.034	17.978	-0.300	0.234
-109.020	233.318	0.041	0.066
-108.005	14.162	0.152	0.116
-106.991	108.209	0.127	0.149
-105.976	-200.000	-0.081	-0.376
-104.962	-200.000	-0.006	0.045
-103.947	-200.000	0.004	0.107
-102.932	-124.706	-0.237	-0.036
-101.918	189.962	-0.180	-0.265
-100.903	-200.000	-0.008	0.337
-99.889	-164.470	0.377	0.017
-98.874	-91.113	-0.100	0.028
-97.859	563.804	-0.069	0.164
-96.845	-200.000	-0.048	0.222
-95.830	-37.683	0.035	0.018
-94.816	800.000	-0.062	0.185
-93.801	117.101	0.210	0.254
-92.786	-49.918	-0.052	-0.024
-91.772	-149.673	-0.193	0.015
-90.757	-55.069	-0.077	-0.034
-89.743	112.841	0.199	0.237
-88.728	-99.741	-0.158	0.039
-87.713	695.373	-0.090	0.233
-86.699	745.030	0.073	0.192
-85.684	60.197	-0.131	0.127
-84.670	302.626	-0.054	0.097
-83.655	-77.990	0.097	0.033
-82.640	-83.764	-0.375	-0.117
-81.626	-74.604	-0.267	-0.094
-80.611	197.253	0.045	0.067
-79.597	-55.411	0.237	-0.104
-78.582	47.646	-0.369	0.338
-77.567	-121.483	-0.158	0.026
-76.553	-91.948	0.183	-0.051
-75.538	800.000	0.065	0.230
-74.524	800.000	0.051	0.169
-73.509	-40.969	0.187	-0.095
-72.494	148.889	0.202	-0.268
-71.480	86.915	-0.148	0.160
-70.465	-35.586	0.210	-0.111
-69.451	4.542	-0.135	-0.097
-68.436	422.849	-0.143	0.301
-67.422	-200.000	0.022	-0.167
-66.407	-200.000	0.001	-0.037
-65.392	-90.571	0.105	0.030
-64.378	239.088	-0.149	0.242
-63.363	-64.689	0.123	-0.049
-62.349	800.000	0.077	0.235
-61.334	173.889	-0.694	-0.981
-60.319	144.926	0.485	0.635
-59.305	-200.000	-0.213	-0.961
-58.290	662.671	0.571	1.441
-57.276	485.871	0.590	1.316
-56.261	-200.000	106.474	617.576
-55.246	512.110	1510.404	3446.064
-54.232	176.098	2703.607	3844.972
-53.217	111.258	2164.070	2554.405
-52.203	41.362	1600.147	1417.656
-51.188	32.774	1335.521	1131.903
-50.173	29.693	1293.803	1078.556
-49.159	54.296	1348.474	1271.355
-48.144	54.294	1363.650	1285.600
-47.130	32.845	1318.554	1117.769
-46.115	29.339	1300.590	1081.966
-45.100	29.210	1295.643	1077.052
-44.086	29.208	1293.277	1075.032
-43.071	29.187	1291.096	1073.057
-42.057	29.129	1288.914	1070.862
-41.042	29.103	1287.302	1069.326
-40.027	29.170	1285.382	1068.082
-39.013	29.156	1283.742	1066.594
-37.998	29.248	1281.876	1065.531
-36.984	29.215	1280.439	1064.109
-35.969	29.235	1278.116	1062.248
-34.954	29.313	1276.140	1061.012
-33.940	29.243	1275.144	1059.741
-32.925	29.209	1274.067	1058.606
-31.911	29.326	1272.771	1058.159
-30.896	29.383	1271.150	1057.097
-29.881	29.391	1269.795	1055.975
-28.867	29.437	1268.264	1054.921
-27.852	29.409	1266.926	1053.610
-26.838	29.401	1265.892	1052.658
-25.823	29.305	1264.447	1050.869
-24.809	29.353	1263.175	1050.047
-23.794	29.414	1261.609	1049.050
-22.779	29.317	1260.546	1047.569
-21.765	29.384	1259.059	1046.674
-20.750	29.435	1257.586	1045.699
-19.736	29.310	1256.331	1043.904
-18.721	29.192	1255.585	1042.573
-17.706	29.222	1254.743	1042.003
-16.692	29.248	1252.821	1040.512
-15.677	29.184	1251.974	1039.407
-14.663	29.332	1250.259	1038.778
-13.648	29.260	1249.886	1038.019
-12.633	29.307	1248.525	1037.114
-11.619	29.162	1247.852	1035.699
-10.604	29.266	1246.694	1035.282
-9.590	29.192	1246.408	1034.585
-8.575	29.198	1245.401	1033.740
-7.560	29.306	1244.214	1033.320
-6.546	29.226	1243.918	1032.586
-5.531	29.216	1242.795	1031.559
-4.517	29.323	1241.656	1031.167
-3.502	29.252	1241.503	1030.603
-2.487	29.257	1240.231	1029.536
-1.473	29.208	1236.320	1025.972
-0.458	27.825	1221.538	1006.052
0.556	22.194	1204.536	969.875
1.571	18.892	1210.613	956.343
2.586	18.170	1225.413	963.878
3.600	18.013	1215.028	954.746
4.615	13.394	1143.657	874.236
5.629	4.480	1069.067	772.950
6.644	0.005	1048.724	736.297
7.659	-0.322	1046.162	732.838
8.673	-0.388	1045.277	731.829
9.688	-0.464	1044.101	730.570
10.702	0.063	1042.161	731.714
11.717	6.060	1050.515	766.851
12.731	14.999	1063.766	820.467
13.746	19.430	1069.068	846.268
14.761	20.382	1070.290	851.833
15.775	20.483	1069.233	851.412
16.790	20.257	1068.417	849.579
17.804	20.249	1067.521	848.756
18.819	20.302	1067.718	849.097
19.834	20.375	1067.393	849.116
20.848	20.297	1067.149	848.466
21.863	20.183	1066.011	846.931
22.877	20.226	1065.354	846.541
23.892	20.211	1064.840	845.985
24.907	20.248	1064.169	845.559
25.921	20.299	1063.040	844.838
26.936	20.218	1061.454	843.107
27.950	20.175	1060.543	842.102
28.965	20.160	1058.262	840.143
29.980	20.152	1056.894	838.944
30.994	20.357	1055.982	839.135
32.009	20.224	1054.869	837.532
33.023	20.255	1053.377	836.427
34.038	20.198	1052.823	835.635
35.053	20.287	1052.339	835.609
36.067	20.262	1051.515	834.759
37.082	20.269	1050.177	833.655
38.096	20.481	1050.170	834.595
39.111	20.595	1048.777	833.960
40.126	20.321	1047.513	831.572
41.140	20.061	1045.849	828.933
42.155	20.106	1043.710	827.378
43.169	19.992	1043.346	826.472
44.184	19.947	1042.256	825.320
45.199	19.921	1041.236	824.316
46.213	20.034	1040.446	824.157
47.228	20.056	1039.824	823.695
48.242	20.189	1038.347	823.085
49.257	20.226	1037.915	822.844
50.271	20.267	1036.605	821.926
51.286	20.399	1035.951	821.959
52.301	20.414	1035.525	821.620
53.315	20.293	1034.142	819.877
54.330	20.234	1033.499	819.018
55.344	20.275	1032.740	818.535
56.359	20.274	1031.355	817.364
57.374	20.115	1030.692	816.014
58.388	20.049	1030.364	815.375
59.403	19.959	1029.137	813.905
60.417	19.891	1028.305	812.857
61.432	20.057	1027.270	812.746
62.447	20.092	1027.281	812.850
63.461	20.092	1026.624	812.257
64.476	20.073	1025.408	811.134
65.490	20.037	1024.117	809.871
66.505	20.111	1023.609	809.743
67.520	20.228	1022.860	809.627
68.534	19.790	1022.347	807.106
69.549	19.682	1020.777	805.291
70.563	19.722	1020.118	804.887
71.578	19.714	1019.453	804.253
72.593	19.544	1018.034	802.273
73.607	19.599	1018.226	802.609
74.622	19.882	1017.579	803.341
75.636	20.069	1016.536	803.314
76.651	19.870	1015.941	801.853
77.666	19.763	1014.852	800.426
78.680	19.770	1014.647	800.225
79.695	19.909	1013.901	800.210
80.709	20.079	1012.931	800.155
81.724	19.975	1012.192	799.021
82.739	19.939	1011.703	798.397
83.753	20.416	1010.969	799.949
84.768	20.466	1010.360	799.627
85.782	20.570	1009.335	799.220
86.797	20.467	1008.589	798.085
87.812	20.330	1007.215	796.300
88.826	20.541	1006.316	796.484
89.841	20.757	1005.221	796.536
90.855	20.598	1004.391	795.081
91.870	20.418	1004.211	794.048
92.884	20.449	1002.251	792.565
93.899	20.345	1001.771	791.644
94.914	20.572	1001.121	792.096
95.928	20.252	999.640	789.399
96.943	20.166	998.443	787.992
97.957	19.894	997.261	785.753
98.972	19.795	996.213	784.409
99.987	19.943	995.610	784.535
101.001	20.215	994.680	784.966
102.016	20.395	993.702	784.939
103.030	20.123	992.980	783.070
104.045	20.024	991.804	781.626
105.060	19.870	990.813	780.081
106.074	20.005	990.647	780.492
107.089	20.444	990.192	782.039
108.103	20.394	988.190	780.164
109.118	20.131	987.184	778.122
110.133	20.024	986.507	777.039
111.147	20.009	984.878	775.618
112.162	19.804	984.096	774.020
113.176	20.097	983.668	774.921
114.191	19.883	983.149	773.491
115.206	19.765	981.361	771.489
116.220	19.721	980.542	770.580
117.235	20.006	979.449	770.923
118.249	19.837	979.106	769.830
119.264	19.683	978.332	768.468
120.279	19.721	977.852	768.192
121.293	19.957	976.593	768.184
122.308	19.845	976.316	767.401
123.322	19.751	974.882	765.787
124.337	19.703	973.425	764.367
125.352	19.194	971.758	760.740
126.366	19.137	970.863	759.723
127.381	19.929	970.563	762.910
128.395	20.364	969.990	764.309
129.410	20.427	969.264	763.946
130.424	20.261	968.411	762.478
131.439	20.378	967.046	761.850
132.454	20.132	966.453	760.234
133.468	20.372	964.765	759.889
134.483	20.308	964.483	759.319
135.497	20.480	963.792	759.460
136.512	20.538	962.702	758.788
137.527	20.620	961.715	758.300
138.541	20.503	961.234	757.346
139.556	20.538	960.367	756.747
140.570	20.593	959.551	756.275
141.585	20.620	958.344	755.375
142.600	20.308	957.694	753.441
143.614	20.674	956.850	754.298
144.629	20.825	955.972	754.194
145.643	20.619	955.172	752.606
146.658	20.466	953.723	750.736
147.673	20.508	952.181	749.638
148.687	20.435	951.342	748.593
149.702	20.247	950.459	747.023
150.716	20.334	949.848	746.850
151.731	20.357	949.091	746.290
152.746	20.608	948.639	746.945
153.760	20.891	947.638	747.305
154.775	20.756	947.059	746.203
155.789	20.705	946.218	745.258
156.804	20.715	945.202	744.432
157.819	20.784	944.758	744.313
158.833	20.864	943.790	743.826
159.848	20.887	942.557	742.889
160.862	20.604	942.019	741.192
161.877	20.696	940.795	740.553
162.892	20.777	940.069	740.262
163.906	20.793	938.815	739.278
164.921	20.615	938.080	737.879
165.935	20.766	936.994	737.598
166.950	20.617	936.593	736.588
167.964	20.712	935.296	735.904
168.979	20.549	934.106	734.214
169.994	20.460	933.284	733.127
171.008	20.723	932.909	733.876
172.023	20.732	931.590	732.812
173.037	20.446	930.831	730.947
174.052	20.410	929.589	729.755
175.067	20.462	929.439	729.793
176.081	20.590	928.517	729.539
177.096	20.392	928.230	728.418
178.110	20.267	926.936	726.818
179.125	20.127	926.038	725.462
180.140	20.139	926.052	725.456
181.154	20.280	925.271	725.371
182.169	20.428	925.715	726.273
183.183	20.738	924.800	726.786
184.198	20.620	923.729	725.388
185.213	20.610	923.249	724.906
186.227	20.725	922.536	724.762
187.242	20.647	922.057	723.997
188.256	20.704	921.009	723.348
189.271	20.869	919.747	722.977
190.286	20.644	918.686	721.144
191.300	19.982	917.944	717.755
192.315	19.295	915.946	713.287
193.329	19.155	916.383	712.984
194.344	20.026	916.475	716.600
195.359	20.654	915.924	718.700
196.373	20.704	915.629	718.612
197.388	20.579	914.615	717.236
198.402	20.514	914.376	716.716
199.417	20.542	913.766	716.293
200.432	20.279	912.498	714.153
201.446	20.242	911.631	713.259
202.461	20.174	911.062	712.469
203.475	19.376	909.059	707.569
204.490	18.571	908.106	703.461
205.504	19.617	908.577	708.056
206.519	20.207	908.009	709.968
207.534	20.280	907.825	710.059
208.548	20.596	908.075	711.485
209.563	20.455	906.572	709.670
210.577	20.307	906.101	708.631
211.592	20.869	905.761	710.595
212.607	20.734	904.902	709.309
213.621	20.825	903.688	708.664
214.636	20.843	903.458	708.497
215.650	20.646	902.546	706.919
216.665	20.873	902.090	707.417
217.680	20.753	901.185	706.160
218.694	20.302	899.991	703.337
219.709	20.142	899.609	702.326
220.723	20.485	898.795	703.017
221.738	20.552	898.296	702.834
222.753	20.553	897.744	702.343
223.767	20.571	897.544	702.198
224.782	20.841	897.099	702.880
225.796	20.864	896.595	702.514
226.811	20.182	894.700	698.221
227.826	19.702	893.916	695.615
228.840	19.843	893.216	695.577
229.855	19.737	892.911	694.852
230.869	19.575	891.562	693.089
231.884	20.124	891.237	694.980
232.899	20.743	891.388	697.514
233.913	20.594	890.818	696.411
234.928	20.704	889.639	695.871
235.942	20.515	889.573	695.000
236.957	20.168	888.836	692.974
237.972	20.336	888.227	693.111
238.986	20.324	887.683	692.577
240.001	20.291	886.810	691.701
241.015	20.306	886.584	691.527
242.030	20.531	885.825	691.767
243.045	20.704	885.330	692.009
244.059	20.828	884.759	691.995
245.074	20.486	883.516	689.601
246.088	20.202	882.746	687.815
247.103	20.492	882.383	688.619
248.117	21.056	882.671	691.020
249.132	21.056	882.470	690.802
250.147	21.308	881.411	690.908
251.161	21.415	880.672	690.688
252.176	21.355	880.007	689.870
253.190	21.487	879.784	690.154
254.205	21.625	879.286	690.245
255.220	21.563	878.853	689.601
256.234	21.526	877.671	688.470
257.249	21.212	877.151	686.765
258.263	21.353	876.503	686.750
259.278	21.536	875.585	686.686
260.293	21.388	875.279	685.809
261.307	21.260	874.533	684.661
262.322	21.212	873.253	683.410
263.336	20.428	871.201	678.680
264.351	19.317	869.506	672.968
265.366	19.504	869.245	673.432
266.380	20.591	870.047	678.239
267.395	21.112	869.380	679.687
268.409	21.009	868.891	678.844
269.424	21.177	868.412	679.065
270.439	21.133	867.822	678.370
271.453	21.458	866.856	678.817
272.468	21.558	866.800	679.100
273.482	21.649	866.275	678.984
274.497	21.242	864.902	676.273
275.512	20.893	864.267	674.366
276.526	21.307	864.338	675.963
277.541	21.336	863.948	675.707
278.555	21.086	862.920	673.882
279.570	20.842	862.465	672.522
280.585	21.162	861.225	672.729
281.599	21.128	860.356	671.862
282.614	20.481	859.446	668.603
283.628	20.461	859.179	668.259
284.643	20.976	858.866	669.934
285.657	20.498	857.652	667.094
286.672	20.026	857.342	664.983
287.687	20.836	856.688	667.523
288.701	20.797	856.418	667.103
289.716	20.536	855.289	665.168
290.730	20.571	854.422	664.567
291.745	20.185	853.736	662.501
292.760	20.546	853.746	663.828
293.774	21.650	853.717	667.962
294.789	21.780	853.483	668.213
295.803	21.818	853.093	667.994
296.818	21.751	852.448	667.174
297.833	21.471	851.290	665.144
298.847	21.329	850.325	663.794
299.862	21.618	850.391	664.882
300.876	21.711	850.220	665.045
301.891	21.644	849.364	664.061
302.906	21.219	848.458	661.685
303.920	21.479	847.726	662.037
304.935	21.686	847.793	662.814
305.949	21.558	847.008	661.661
306.964	21.461	846.543	660.872
307.979	21.652	845.768	660.929
308.993	21.974	845.638	661.983
310.008	21.708	845.262	660.629
311.022	21.678	844.208	659.633
312.037	21.461	843.359	658.092
313.052	21.165	842.701	656.411
314.066	20.492	840.911	652.429
315.081	20.309	840.349	651.252
316.095	21.094	841.019	654.658
317.110	21.428	840.851	655.723
318.125	20.508	839.408	651.093
319.139	19.661	837.626	646.488
320.154	19.777	837.247	646.572
321.168	20.596	837.781	649.989
322.183	21.287	837.709	652.456
323.197	21.393	837.221	652.413
324.212	21.462	836.900	652.365
325.227	21.669	836.410	652.695
326.241	21.617	835.702	651.891
327.256	21.357	835.438	650.659
328.270	21.324	834.486	649.740
329.285	21.172	833.418	648.287
330.300	21.131	832.304	647.211
331.314	21.116	832.960	647.608
332.329	21.662	832.464	649.189
333.343	21.623	832.057	648.670
334.358	21.633	831.367	648.111
335.373	21.663	831.358	648.158
336.387	21.936	831.437	649.172
337.402	22.191	830.966	649.690
338.416	22.132	830.157	648.781
339.431	22.005	829.865	648.026
340.446	22.229	829.623	648.608
341.460	21.925	829.395	647.248
342.475	21.810	828.954	646.425
343.489	21.888	828.388	646.215
344.504	22.227	828.117	647.193
345.519	22.347	828.009	647.492
346.533	22.455	826.965	647.017
347.548	22.359	827.011	646.640
348.562	22.418	826.185	646.155
349.577	22.440	825.570	645.699
350.592	22.466	824.971	645.267
351.606	22.406	824.210	644.396
352.621	22.118	823.634	642.834
353.635	22.182	822.490	642.119
354.650	21.590	820.848	638.620
355.665	20.602	819.579	633.977
356.679	21.070	819.422	635.506
357.694	21.564	819.166	637.050
358.708	21.369	818.860	636.043
359.723	21.954	818.201	637.602
360.738	22.053	818.112	637.837
361.752	21.969	817.893	637.306
362.767	22.459	817.131	638.433
363.781	22.693	816.627	638.828
364.796	22.758	816.344	638.785
365.810	22.876	815.792	638.725
366.825	22.646	815.768	637.817
367.840	22.469	814.822	636.382
368.854	22.039	813.770	633.952
369.869	22.061	813.891	634.070
370.883	22.195	813.260	634.006
371.898	22.076	812.732	633.107
372.913	22.093	812.610	633.018
373.927	22.225	812.376	633.255
374.942	22.427	811.699	633.397
375.956	22.335	811.583	632.921
376.971	22.634	810.767	633.304
377.986	22.783	810.681	633.716
379.000	22.496	810.672	632.620
380.015	22.516	809.554	631.764
381.029	22.593	808.682	631.304
382.044	22.803	808.266	631.675
383.059	22.508	808.040	630.387
384.073	22.676	807.271	630.332
385.088	22.792	806.612	630.174
386.102	22.566	805.982	628.823
387.117	22.561	805.005	627.987
388.132	22.228	804.083	626.025
389.146	21.757	803.101	623.532
390.161	22.020	803.060	624.377
391.175	22.472	803.033	625.909
392.190	22.122	802.050	623.846
393.205	20.866	799.911	617.676
394.219	19.428	798.287	611.275
395.234	19.349	798.437	611.057
396.248	21.128	799.558	618.166
397.263	22.422	800.165	623.164
398.278	22.217	800.015	622.267
399.292	22.209	799.399	621.705
400.307	22.187	798.467	620.847
401.321	22.397	798.109	621.254
402.336	22.633	798.164	622.077
403.350	23.025	798.181	623.416
404.365	23.290	798.060	624.201
405.380	23.535	797.263	624.384
406.394	23.386	797.245	623.791
407.409	23.393	796.620	623.273
408.423	23.370	796.136	622.759
409.438	23.536	795.591	622.859
410.453	23.501	795.018	622.233
411.467	23.401	794.764	621.627
412.482	23.345	794.444	621.127
413.496	23.472	794.149	621.284
414.511	23.530	793.652	621.044
415.526	23.467	793.285	620.481
416.540	23.217	792.454	618.902
417.555	23.071	791.476	617.575
418.569	23.108	791.616	617.759
419.584	23.140	790.726	617.121
420.599	22.925	790.415	616.073
421.613	158.184	1364.557	1798.789
422.628	137.024	1448.193	1798.877
