DTS Sentinel unit serial number:	SN413079Multiplexer serial number:	ORYXHardware model number:	OX4-SRSoftware version number:	ORYX F/W v4.00 Oryx Data Collector v3.7.2.0data status	okinstallation	princeton_trtdifferential loss correction	single-endedforward channel	channel 1reverse channel	N/Adate	2019/09/12time	00:56:11forward acquisition time	60.00reverse acquisition time	0.00gamma	496.2192k internal	0.2320k external	0.2320temperature offset calibration	1.0075default loss term (dB/km)	0.3790temperature slope calibration	1.0000multiplexer offset coefficient	1.0000multiplexer slope coefficient	1.0000fibre end	0.00T internal ref (°C)	33.23T ext. ref 1 (°C)	2.09T ext. ref 2 (°C)	27.97length (m)	temperature (°C)	Stokes	anti-Stokes-747.200	-200.000	-0.059	0.365
-746.185	800.000	-0.088	0.365
-745.171	-56.652	-0.073	0.033
-744.156	-200.000	0.033	0.342
-743.142	333.233	-0.119	0.233
-742.127	-31.675	0.325	0.184
-741.112	242.128	-0.102	0.172
-740.098	69.628	0.120	0.125
-739.083	-200.000	-0.027	0.184
-738.069	2.431	-0.430	0.314
-737.054	374.555	-0.054	-0.111
-736.039	182.676	-0.140	0.209
-735.025	206.325	0.048	-0.075
-734.010	331.768	0.074	-0.144
-732.996	800.000	-0.072	-0.266
-731.981	-200.000	0.021	0.162
-730.966	197.118	0.055	0.085
-729.952	-136.389	0.132	-0.016
-728.937	-134.820	-0.381	0.047
-727.923	-84.157	-0.168	0.054
-726.908	33.605	0.224	0.197
-725.894	-200.000	-0.030	-0.333
-724.879	80.507	-0.139	-0.152
-723.864	-89.818	0.181	-0.053
-722.850	-171.750	-0.255	0.008
-721.835	32.238	-0.236	-0.206
-720.821	2.978	0.108	-0.079
-719.806	800.000	0.023	0.066
-718.791	-18.132	-0.353	-0.223
-717.777	-200.000	-0.033	-0.182
-716.762	-142.770	0.175	-0.017
-715.748	33.280	-0.036	0.031
-714.733	186.427	-0.202	-0.303
-713.718	63.614	0.320	-0.324
-712.704	240.679	-0.183	0.308
-711.689	-22.832	0.267	0.163
-710.675	800.000	-0.084	-0.239
-709.660	800.000	-0.035	0.144
-708.645	23.221	-0.255	0.212
-707.631	31.398	0.210	0.182
-706.616	-19.321	0.205	-0.129
-705.602	411.971	-0.045	-0.098
-704.587	-159.595	0.191	-0.011
-703.572	-79.182	-0.381	-0.131
-702.558	-102.664	-0.094	-0.023
-701.543	427.119	-0.153	-0.334
-700.529	179.626	0.168	-0.248
-699.514	255.118	-0.152	-0.262
-698.499	-200.000	-0.018	-0.279
-697.485	-85.509	0.409	-0.128
-696.470	-88.739	-0.023	0.007
-695.456	-129.851	0.077	-0.011
-694.441	-166.402	0.259	0.011
-693.426	189.402	0.043	0.066
-692.412	-57.466	-0.104	-0.046
-691.397	-200.000	-0.011	-0.175
-690.383	259.945	-0.022	-0.038
-689.368	-99.160	-0.103	-0.026
-688.354	800.000	-0.049	-0.161
-687.339	-200.000	0.002	0.142
-686.324	-96.938	0.397	-0.105
-685.310	37.964	-0.168	0.151
-684.295	-33.705	0.070	-0.039
-683.281	211.171	-0.106	-0.168
-682.266	-200.000	-0.011	0.125
-681.251	-142.540	0.300	-0.030
-680.237	-200.000	0.101	-0.632
-679.222	-109.478	-0.214	0.046
-678.208	-156.001	0.065	-0.004
-677.193	-58.627	-0.551	0.241
-676.178	42.820	-0.188	0.173
-675.164	685.307	0.070	-0.183
-674.149	280.838	-0.037	0.067
-673.135	114.229	-0.060	0.073
-672.120	-27.029	0.238	-0.140
-671.105	97.239	-0.166	0.192
-670.091	-89.398	0.225	0.067
-669.076	-148.581	-0.116	0.010
-668.062	-106.095	0.166	0.038
-667.047	79.365	0.086	0.093
-666.032	-200.000	-0.001	-0.022
-665.018	-101.793	-0.481	-0.117
-664.003	-108.396	-0.203	-0.044
-662.989	44.693	-0.112	-0.104
-661.974	-200.000	-0.013	-0.384
-660.959	25.733	0.326	-0.274
-659.945	108.358	-0.206	0.247
-658.930	60.426	0.216	0.215
-657.916	-64.396	-0.366	-0.150
-656.901	423.153	-0.157	0.341
-655.886	139.078	0.199	-0.264
-654.872	116.532	-0.011	-0.014
-653.857	133.373	-0.269	-0.351
-652.843	85.777	0.196	0.217
-651.828	154.364	-0.248	0.343
-650.814	-66.692	0.134	0.053
-649.799	-200.000	0.025	-0.194
-648.784	-41.145	0.281	0.146
-647.770	800.000	-0.023	0.084
-646.755	96.528	0.111	0.128
-645.741	491.041	0.071	0.165
-644.726	51.407	0.076	0.073
-643.711	-200.000	-0.029	-0.203
-642.697	121.474	0.190	-0.239
-641.682	63.375	0.155	0.157
-640.668	-61.159	-0.229	-0.097
-639.653	-200.000	0.017	-0.302
-638.638	-145.404	0.232	-0.021
-637.624	-200.000	0.040	-0.311
-636.609	9.449	-0.181	0.138
-635.595	-200.000	-0.008	-0.047
-634.580	-30.293	-0.175	-0.100
-633.565	-200.000	-0.005	-0.218
-632.551	800.000	0.028	0.113
-631.536	800.000	0.050	-0.177
-630.522	-159.087	0.232	0.013
-629.507	22.974	0.292	-0.241
-628.492	143.995	-0.114	0.153
-627.478	-145.121	-0.220	-0.020
-626.463	-200.000	-0.055	0.291
-625.449	132.532	0.272	-0.354
-624.434	-148.570	0.202	-0.017
-623.419	220.103	0.139	0.225
-622.405	-49.677	0.187	-0.090
-621.390	800.000	0.053	-0.233
-620.376	800.000	-0.057	0.248
-619.361	-3.921	-0.088	0.061
-618.346	-200.000	0.008	-0.457
-617.332	800.000	-0.020	-0.078
-616.317	133.118	-0.210	-0.273
-615.303	394.977	-0.057	-0.119
-614.288	-7.880	0.071	-0.048
-613.273	-200.000	-0.008	0.209
-612.259	800.000	0.099	0.326
-611.244	2.519	-0.206	0.150
-610.230	-48.541	-0.368	0.178
-609.215	238.952	-0.165	-0.276
-608.201	335.072	-0.046	-0.090
-607.186	52.364	0.211	0.203
-606.171	-200.000	0.027	-0.357
-605.157	90.242	-0.318	-0.358
-604.142	-200.000	0.022	0.098
-603.128	800.000	-0.057	-0.199
-602.113	514.636	0.093	0.219
-601.098	-70.669	0.181	-0.069
-600.084	303.284	-0.117	0.219
-599.069	-69.835	-0.196	-0.075
-598.055	-89.450	-0.094	-0.028
-597.040	15.680	-0.138	0.109
-596.025	-84.657	-0.093	-0.029
-595.011	219.811	-0.212	0.341
-593.996	-7.685	0.134	0.091
-592.982	-200.000	0.041	-0.311
-591.967	-121.868	0.221	-0.037
-590.952	-200.000	-0.055	-0.344
-589.938	-8.776	0.085	-0.058
-588.923	126.633	0.235	0.299
-587.909	47.757	-0.215	0.202
-586.894	-21.356	-0.251	-0.154
-585.879	800.000	0.014	-0.059
-584.865	-200.000	0.031	0.161
-583.850	800.000	-0.039	0.142
-582.836	-123.834	0.253	0.040
-581.821	156.528	0.221	-0.307
-580.806	150.822	-0.138	0.189
-579.792	-122.904	-0.178	0.029
-578.777	-200.000	0.004	-0.209
-577.763	150.372	-0.006	-0.008
-576.748	-84.817	0.247	-0.078
-575.733	227.122	0.182	-0.297
-574.719	786.109	0.095	-0.261
-573.704	-200.000	-0.012	0.314
-572.690	52.071	-0.297	-0.284
-571.675	-113.149	-0.369	-0.073
-570.661	371.973	-0.092	-0.188
-569.646	800.000	-0.075	-0.296
-568.631	380.586	0.124	0.255
-567.617	129.951	-0.092	0.118
-566.602	800.000	0.118	-0.509
-565.588	-67.784	0.018	-0.007
-564.573	87.193	0.202	-0.225
-563.558	-13.201	-0.058	-0.038
-562.544	237.437	-0.055	0.092
-561.529	39.898	0.266	-0.240
-560.515	480.886	-0.043	0.097
-559.500	-60.799	-0.076	0.032
-558.485	-62.720	0.128	-0.053
-557.471	-34.642	-0.135	-0.074
-556.456	455.941	0.085	0.189
-555.442	-72.956	-0.187	0.069
-554.427	-106.241	-0.312	0.070
-553.412	800.000	0.017	-0.060
-552.398	-82.755	-0.182	-0.059
-551.383	1.816	-0.161	0.117
-550.369	-26.866	-0.290	0.170
-549.354	-200.000	0.020	0.232
-548.339	-200.000	0.075	-0.330
-547.325	-9.189	-0.212	-0.143
-546.310	-200.000	0.017	-0.274
-545.296	70.765	-0.016	-0.016
-544.281	-200.000	-0.029	0.133
-543.266	-200.000	0.057	0.383
-542.252	800.000	0.063	0.203
-541.237	-200.000	0.058	-0.328
-540.223	-200.000	-0.073	0.374
-539.208	800.000	-0.009	-0.039
-538.193	198.880	0.192	0.294
-537.179	800.000	0.042	0.185
-536.164	79.361	0.160	-0.172
-535.150	800.000	0.017	-0.071
-534.135	-200.000	0.020	0.128
-533.121	103.871	0.348	-0.410
-532.106	28.820	0.346	0.294
-531.091	600.569	0.110	0.273
-530.077	-3.238	0.115	-0.080
-529.062	-200.000	0.038	-0.219
-528.048	72.737	-0.300	0.314
-527.033	-200.000	-0.023	-0.205
-526.018	-126.188	0.222	0.033
-525.004	73.809	-0.050	0.053
-523.989	-200.000	-0.035	0.404
-522.975	-137.622	0.178	-0.020
-521.960	-15.536	0.175	-0.112
-520.945	-200.000	-0.010	-0.047
-519.931	70.658	-0.124	-0.129
-518.916	800.000	-0.062	0.172
-517.902	319.400	-0.096	0.183
-516.887	124.436	0.120	0.152
-515.872	662.401	-0.032	0.082
-514.858	9.232	0.152	-0.115
-513.843	800.000	0.153	0.471
-512.829	92.818	0.173	-0.196
-511.814	-129.456	0.054	-0.008
-510.799	-138.586	-0.182	-0.020
-509.785	-62.441	-0.319	-0.133
-508.770	-5.724	0.288	-0.197
-507.756	-41.143	0.028	-0.014
-506.741	-167.863	-0.139	-0.005
-505.726	17.184	-0.046	0.037
-504.712	800.000	0.028	0.121
-503.697	152.766	0.102	0.139
-502.683	-117.609	0.171	-0.031
-501.668	-24.531	-0.295	0.176
-500.653	800.000	0.026	-0.081
-499.639	-200.000	-0.052	-0.234
-498.624	-36.364	-0.140	-0.075
-497.610	-76.888	0.120	0.042
-496.595	104.013	0.199	-0.234
-495.581	-109.060	0.192	0.041
-494.566	592.596	-0.088	-0.219
-493.551	-32.081	-0.049	-0.028
-492.537	-141.399	-0.308	0.031
-491.522	-12.610	0.070	-0.046
-490.508	357.524	0.112	-0.224
-489.493	800.000	-0.080	0.294
-488.478	86.933	0.064	-0.071
-487.464	23.104	0.159	0.131
-486.449	-27.696	0.038	0.022
-485.435	800.000	0.089	-0.315
-484.420	267.225	0.144	0.252
-483.405	-151.837	-0.398	-0.029
-482.391	17.984	0.118	-0.094
-481.376	-200.000	-0.041	0.000
-480.362	-39.638	0.250	-0.131
-479.347	38.589	0.205	0.183
-478.332	-56.496	-0.054	0.024
-477.318	287.605	0.158	0.287
-476.303	-200.000	-0.015	-0.092
-475.289	441.183	0.071	0.155
-474.274	-200.000	0.021	-0.210
-473.259	634.396	-0.080	0.203
-472.245	-65.051	-0.103	-0.042
-471.230	-106.265	-0.092	-0.021
-470.216	86.964	-0.201	0.222
-469.201	-200.000	0.032	-0.154
-468.186	-123.666	0.120	-0.019
-467.172	-63.345	0.014	0.006
-466.157	800.000	-0.105	-0.420
-465.143	-59.845	-0.232	-0.099
-464.128	209.336	0.087	-0.136
-463.113	-121.228	0.192	0.032
-462.099	-200.000	-0.018	-0.108
-461.084	46.782	0.379	-0.352
-460.070	12.430	-0.315	-0.243
-459.055	260.985	0.031	-0.053
-458.040	800.000	-0.066	0.217
-457.026	800.000	0.076	0.224
-456.011	-76.688	0.277	-0.097
-454.997	-85.992	-0.308	0.095
-453.982	86.042	0.124	0.136
-452.968	-18.176	0.059	-0.037
-451.953	-61.859	0.364	-0.152
-450.938	-128.304	0.152	0.022
-449.924	39.891	0.038	0.034
-448.909	119.894	-0.077	0.096
-447.895	-41.186	0.176	-0.091
-446.880	800.000	0.045	0.134
-445.865	-65.043	-0.287	-0.116
-444.851	310.013	-0.225	0.420
-443.836	-153.636	0.372	-0.026
-442.822	-200.000	0.050	-0.226
-441.807	-3.688	-0.206	0.143
-440.792	-200.000	0.026	0.442
-439.778	73.628	0.129	0.135
-438.763	20.632	-0.210	-0.170
-437.749	-116.172	-0.162	0.030
-436.734	67.802	-0.105	-0.107
-435.719	66.489	-0.389	0.395
-434.705	154.489	0.120	0.165
-433.690	800.000	0.136	0.403
-432.676	-113.405	0.132	-0.026
-431.661	-117.760	-0.178	0.032
-430.646	800.000	-0.061	0.239
-429.632	532.008	0.024	0.057
-428.617	156.783	0.072	-0.099
-427.603	99.596	-0.097	0.112
-426.588	44.945	-0.140	0.128
-425.573	-12.035	-0.060	0.039
-424.559	-200.000	-0.047	0.449
-423.544	313.918	0.045	-0.085
-422.530	-27.377	0.036	0.021
-421.515	-142.806	-0.241	-0.023
-420.500	-114.550	-0.049	-0.009
-419.486	112.633	0.129	0.156
-418.471	-62.383	0.343	-0.142
-417.457	-1.584	-0.294	-0.207
-416.442	-200.000	0.018	-0.341
-415.428	-14.409	-0.091	0.059
-414.413	517.041	0.098	0.229
-413.398	-200.000	-0.019	-0.089
-412.384	-170.340	-0.300	-0.011
-411.369	-15.918	-0.282	-0.179
-410.355	-85.467	-0.433	0.135
-409.340	102.953	-0.078	-0.091
-408.325	374.201	-0.091	0.186
-407.311	557.719	-0.083	-0.199
-406.296	-200.000	0.044	0.310
-405.282	-47.408	0.181	-0.088
-404.267	-119.526	-0.156	-0.027
-403.252	45.415	0.282	0.260
-402.238	251.595	0.060	-0.103
-401.223	169.038	-0.057	-0.081
-400.209	167.149	0.119	0.169
-399.194	-200.000	-0.034	0.231
-398.179	800.000	0.049	0.155
-397.165	-79.278	-0.090	0.030
-396.150	800.000	0.048	-0.166
-395.136	-141.970	0.171	-0.017
-394.121	-92.052	0.074	0.021
-393.106	12.452	-0.090	0.069
-392.092	-165.232	-0.229	-0.010
-391.077	800.000	-0.069	0.291
-390.063	-138.211	0.462	-0.051
-389.048	-29.314	-0.057	0.033
-388.033	-118.257	0.190	-0.034
-387.019	235.083	-0.085	0.140
-386.004	-80.780	0.172	0.057
-384.990	-147.896	-0.063	0.005
-383.975	-136.404	0.304	0.035
-382.960	-3.914	-0.271	0.188
-381.946	303.145	0.142	-0.263
-380.931	-200.000	0.034	-0.391
-379.917	-200.000	0.005	0.085
-378.902	800.000	0.086	0.259
-377.888	129.995	-0.238	-0.303
-376.873	239.674	-0.097	0.161
-375.858	-71.048	0.152	0.057
-374.844	-28.164	-0.114	-0.066
-373.829	-51.630	0.240	0.111
-372.815	-200.000	-0.014	0.266
-371.800	-92.880	-0.090	0.025
-370.785	800.000	0.019	-0.080
-369.771	-52.073	-0.053	-0.025
-368.756	76.946	-0.033	-0.035
-367.742	-193.026	-0.500	0.004
-366.727	284.498	-0.168	0.301
-365.712	-200.000	0.094	0.618
-364.698	800.000	-0.110	-0.392
-363.683	-23.352	-0.124	0.074
-362.669	-54.105	0.218	0.099
-361.654	800.000	-0.042	-0.167
-360.639	33.383	-0.113	0.097
-359.625	-117.424	0.443	0.080
-358.610	-200.000	-0.014	0.116
-357.596	6.416	-0.191	-0.141
-356.581	-103.369	-0.056	0.013
-355.566	-71.116	-0.177	0.066
-354.552	-11.052	-0.199	-0.131
-353.537	-90.650	0.272	-0.078
-352.523	800.000	-0.037	-0.131
-351.508	-13.017	0.135	0.087
-350.493	476.740	0.070	-0.157
-349.479	-73.719	0.040	-0.014
-348.464	-200.000	0.021	-0.263
-347.450	45.744	0.301	-0.277
-346.435	-96.666	-0.099	-0.026
-345.420	223.140	-0.187	-0.301
-344.406	-83.631	-0.242	-0.077
-343.391	-34.656	0.212	0.116
-342.377	337.494	0.117	-0.226
-341.362	-200.000	0.012	0.134
-340.348	-60.897	-0.239	-0.101
-339.333	-64.386	0.197	-0.080
-338.318	-35.177	0.170	-0.092
-337.304	18.845	-0.369	-0.294
-336.289	233.249	-0.104	0.170
-335.275	170.731	0.116	-0.166
-334.260	-139.417	-0.336	-0.036
-333.245	-162.391	-0.454	0.022
-332.231	722.224	0.038	0.100
-331.216	241.904	-0.080	-0.134
-330.202	272.145	0.120	0.211
-329.187	67.757	-0.290	0.295
-328.172	800.000	-0.059	-0.222
-327.158	242.808	0.132	0.220
-326.143	-86.190	0.133	-0.041
-325.129	-200.000	-0.007	0.099
-324.114	-90.402	0.201	0.058
-323.099	800.000	-0.055	-0.212
-322.085	-176.369	-0.315	-0.008
-321.070	-0.694	0.176	-0.124
-320.056	14.909	0.236	0.184
-319.041	-200.000	-0.006	-0.126
-318.026	520.737	0.032	0.074
-317.012	-200.000	-0.029	0.343
-315.997	800.000	-0.077	-0.229
-314.983	-142.047	0.235	0.023
-313.968	-77.944	-0.245	-0.084
-312.953	-173.017	-0.314	-0.010
-311.939	252.750	-0.082	0.139
-310.924	10.471	0.216	-0.164
-309.910	-2.230	0.257	0.180
-308.895	-200.000	0.003	-0.169
-307.880	477.060	-0.073	0.165
-306.866	-200.000	0.002	-0.179
-305.851	-140.354	-0.279	0.029
-304.837	198.286	-0.098	-0.148
-303.822	-200.000	-0.039	0.254
-302.807	-192.057	-0.107	-0.001
-301.793	-15.343	-0.119	0.076
-300.778	109.910	0.136	-0.162
-299.764	4.089	0.251	0.183
-298.749	-200.000	0.018	0.180
-297.735	314.684	0.022	-0.041
-296.720	-131.252	-0.115	-0.015
-295.705	-200.000	0.010	-0.115
-294.691	700.528	0.128	0.334
-293.676	-118.604	-0.064	0.011
-292.662	39.731	0.330	0.294
-291.647	800.000	0.055	0.172
-290.632	-200.000	0.063	0.376
-289.618	-73.457	-0.282	-0.102
-288.603	-3.956	0.210	-0.144
-287.589	-35.168	0.373	-0.202
-286.574	-200.000	-0.031	-0.209
-285.559	-29.123	-0.416	0.237
-284.545	-90.113	-0.203	0.059
-283.530	372.443	-0.052	-0.106
-282.516	-17.271	0.113	-0.071
-281.501	124.802	-0.098	0.122
-280.486	-200.000	-0.012	0.388
-279.472	-158.891	0.220	-0.012
-278.457	84.616	-0.138	-0.150
-277.443	188.180	-0.159	0.236
-276.428	127.878	-0.037	-0.047
-275.413	-200.000	0.012	0.101
-274.399	101.331	-0.151	0.175
-273.384	-8.761	0.218	0.145
-272.370	-200.000	-0.002	-0.099
-271.355	390.541	0.202	-0.416
-270.340	418.852	-0.022	-0.047
-269.326	168.324	-0.211	-0.298
-268.311	-22.153	-0.230	0.139
-267.297	147.199	0.238	0.318
-266.282	-53.109	0.263	-0.120
-265.267	364.952	0.066	-0.132
-264.253	237.313	-0.031	-0.051
-263.238	-7.029	0.041	-0.028
-262.224	-77.833	-0.124	0.042
-261.209	86.256	0.138	0.151
-260.195	-200.000	-0.034	0.204
-259.180	187.720	0.050	0.074
-258.165	-188.881	-0.173	0.002
-257.151	173.802	0.112	-0.161
-256.136	800.000	0.080	-0.229
-255.122	253.054	0.054	0.092
-254.107	-123.724	0.241	0.038
-253.092	-95.599	0.217	-0.058
-252.078	-133.765	-0.307	0.038
-251.063	171.571	-0.051	0.072
-250.049	86.285	-0.134	-0.147
-249.034	-81.953	0.263	0.085
-248.019	-200.000	-0.050	-0.361
-247.005	800.000	0.020	0.078
-245.990	21.869	-0.166	-0.134
-244.976	764.454	0.041	-0.110
-243.961	-103.698	-0.247	-0.057
-242.946	-127.190	0.265	-0.038
-241.932	-167.616	0.064	0.003
-240.917	21.748	-0.092	0.074
-239.903	732.689	0.037	-0.098
-238.888	-54.010	-0.340	-0.154
-237.873	-130.036	0.101	0.014
-236.859	85.569	0.096	-0.104
-235.844	-200.000	-0.002	-0.053
-234.830	-37.697	-0.240	0.127
-233.815	-200.000	-0.017	-0.193
-232.800	-200.000	-0.054	0.267
-231.786	222.221	-0.078	-0.124
-230.771	123.852	0.120	0.149
-229.757	-133.682	-0.210	0.026
-228.742	-200.000	-0.031	0.156
-227.727	-102.222	-0.149	0.035
-226.713	800.000	-0.074	0.205
-225.698	127.448	-0.207	-0.260
-224.684	307.967	-0.088	-0.163
-223.669	-200.000	-0.017	-0.075
-222.655	-200.000	0.050	-0.221
-221.640	800.000	-0.081	0.254
-220.625	155.180	-0.115	0.157
-219.611	-137.874	0.245	0.027
-218.596	360.182	-0.129	-0.256
-217.582	372.451	0.129	-0.260
-216.567	172.973	-0.022	0.032
-215.552	-60.700	-0.409	-0.172
-214.538	800.000	-0.085	0.330
-213.523	8.599	-0.083	-0.062
-212.509	-128.307	-0.184	-0.026
-211.494	125.250	0.214	0.268
-210.479	482.358	0.137	0.308
-209.465	-70.109	0.127	-0.048
-208.450	-200.000	-0.037	-0.221
-207.436	800.000	-0.015	-0.048
-206.421	642.304	0.067	-0.170
-205.406	-72.901	-0.100	-0.036
-204.392	-200.000	-0.008	0.038
-203.377	612.023	0.050	0.124
-202.363	438.129	-0.009	-0.019
-201.348	160.517	0.196	-0.270
-200.333	-129.787	0.305	0.042
-199.319	-51.087	-0.344	0.160
-198.304	85.436	0.146	0.159
-197.290	261.220	-0.121	-0.207
-196.275	-54.096	-0.186	-0.084
-195.260	-140.531	0.154	-0.016
-194.246	-20.023	0.184	-0.112
-193.231	800.000	0.016	0.049
-192.217	-33.226	0.217	-0.119
-191.202	-34.847	0.374	-0.202
-190.187	-157.977	0.267	0.016
-189.173	113.133	0.070	-0.084
-188.158	289.553	0.089	-0.160
-187.144	28.548	-0.230	-0.193
-186.129	800.000	0.154	0.460
-185.114	784.728	0.145	0.394
-184.100	8.340	0.115	0.085
-183.085	-111.959	0.123	-0.024
-182.071	-67.824	-0.092	-0.036
-181.056	14.229	-0.142	0.109
-180.042	21.017	0.201	-0.162
-179.027	-74.976	0.525	0.186
-178.012	-106.898	0.276	-0.060
-176.998	254.152	-0.068	0.116
-175.983	-89.740	0.056	0.016
-174.969	175.187	-0.041	0.058
-173.954	-200.000	0.041	-0.209
-172.939	14.259	0.142	0.109
-171.925	108.424	0.088	0.104
-170.910	-200.000	0.003	0.187
-169.896	-134.560	-0.121	-0.015
-168.881	-200.000	0.002	0.017
-167.866	-200.000	-0.072	-0.444
-166.852	-41.140	0.132	-0.067
-165.837	236.991	0.026	0.042
-164.823	-200.000	-0.053	-0.229
-163.808	-5.933	-0.243	0.165
-162.793	-27.975	-0.396	0.227
-161.779	-28.929	-0.219	0.124
-160.764	189.613	0.068	-0.101
-159.750	86.065	0.196	-0.213
-158.735	14.424	0.100	-0.077
-157.720	136.729	0.110	0.142
-156.706	204.168	-0.119	0.182
-155.691	424.266	-0.129	0.275
-154.677	400.113	-0.051	-0.105
-153.662	-146.406	-0.083	0.007
-152.647	116.360	-0.155	-0.187
-151.633	-200.000	-0.012	-0.329
-150.618	800.000	-0.049	-0.210
-149.604	140.965	0.115	-0.150
-148.589	230.617	0.067	-0.108
-147.574	-167.814	-0.236	-0.009
-146.560	102.374	-0.172	-0.198
-145.545	-200.000	0.021	-0.180
-144.531	2.079	-0.099	-0.070
-143.516	-121.837	-0.253	0.041
-142.502	270.395	0.067	-0.116
-141.487	-77.955	0.280	0.095
-140.472	13.165	0.118	0.090
-139.458	800.000	-0.044	0.124
-138.443	-200.000	0.006	-0.218
-137.429	-189.503	-0.450	-0.005
-136.414	49.398	-0.198	-0.184
-135.399	-15.277	-0.205	-0.129
-134.385	64.459	0.099	0.099
-133.370	421.039	0.062	0.130
-132.356	-50.415	0.051	0.024
-131.341	-122.609	0.158	0.025
-130.326	-150.138	-0.101	-0.008
-129.312	-71.604	0.237	0.087
-128.297	-120.146	-0.322	0.054
-127.283	-86.439	-0.456	-0.138
-126.268	-152.486	0.199	-0.014
-125.253	-86.833	-0.201	-0.061
-124.239	174.494	0.049	-0.071
-123.224	64.344	-0.150	-0.149
-122.210	-105.724	-0.182	0.041
-121.195	411.653	0.052	0.109
-120.180	-94.397	0.398	0.107
-119.166	404.770	-0.183	-0.380
-118.151	-200.000	0.003	-0.425
-117.137	0.165	-0.021	0.015
-116.122	197.409	-0.180	0.271
-115.107	-80.312	-0.216	-0.071
-114.093	-200.000	0.063	-0.316
-113.078	-200.000	-0.025	0.154
-112.064	-200.000	-0.013	0.240
-111.049	-200.000	-0.016	-0.140
-110.034	-97.991	-0.204	-0.052
-109.020	103.070	0.102	0.118
-108.005	800.000	0.065	0.214
-106.991	-200.000	0.006	-0.462
-105.976	227.135	-0.120	0.192
-104.962	-110.398	-0.384	-0.079
-103.947	34.242	-0.185	0.159
-102.932	118.404	-0.049	-0.059
-101.918	724.337	0.047	0.123
-100.903	286.392	0.042	-0.075
-99.889	-27.204	0.178	-0.102
-98.874	-57.329	-0.351	-0.152
-97.859	-43.232	0.142	-0.071
-96.845	-36.801	-0.210	-0.111
-95.830	-58.761	0.197	0.084
-94.816	-112.589	0.118	-0.023
-93.801	67.398	0.299	-0.301
-92.786	-200.000	0.020	-0.296
-91.772	-51.478	-0.302	0.139
-90.757	230.804	-0.037	-0.060
-89.743	164.080	0.039	-0.054
-88.728	244.558	0.081	0.134
-87.713	-200.000	-0.015	0.317
-86.699	159.182	0.075	0.103
-85.684	372.219	-0.141	0.282
-84.670	79.806	-0.140	0.148
-83.655	-62.279	-0.372	-0.153
-82.640	-8.277	-0.218	-0.145
-81.626	-160.256	-0.326	0.017
-80.611	539.229	-0.070	-0.163
-79.597	-59.868	0.125	0.053
-78.582	25.269	-0.208	0.170
-77.567	-71.267	-0.168	-0.062
-76.553	-14.845	-0.213	0.135
-75.538	38.283	-0.108	0.095
-74.524	-141.215	-0.102	0.010
-73.509	73.503	-0.247	0.254
-72.494	-86.295	0.335	0.102
-71.480	800.000	0.055	0.188
-70.465	-200.000	0.036	-0.411
-69.451	-55.441	0.400	-0.176
-68.436	-28.136	0.102	-0.058
-67.422	-23.025	0.150	-0.089
-66.407	12.098	0.117	-0.089
-65.392	-18.153	0.320	-0.197
-64.378	-200.000	-0.118	0.556
-63.363	59.243	-0.263	-0.255
-62.349	-69.313	-0.179	0.068
-61.334	-28.640	-1.067	-0.605
-60.319	382.682	0.347	0.703
-59.305	-200.000	-0.165	-1.020
-58.290	156.847	0.572	0.778
-57.276	435.361	0.662	1.417
-56.261	-200.000	95.797	577.332
-55.246	548.152	1384.172	3263.244
-54.232	158.062	2566.084	3502.206
-53.217	113.150	2146.739	2562.882
-52.203	44.781	1607.522	1455.869
-51.188	36.846	1344.853	1170.236
-50.173	33.648	1302.468	1114.553
-49.159	55.554	1349.424	1286.110
-48.144	58.026	1366.549	1317.138
-47.130	36.955	1324.697	1153.162
-46.115	33.414	1307.874	1117.624
-45.100	33.260	1302.880	1112.407
-44.086	33.231	1299.972	1109.710
-43.071	33.166	1298.128	1107.707
-42.057	33.194	1295.728	1105.779
-41.042	33.120	1294.494	1104.249
-40.027	33.170	1292.667	1102.943
-39.013	33.079	1291.415	1101.297
-37.998	33.063	1289.834	1099.817
-36.984	33.113	1287.951	1098.456
-35.969	33.277	1286.302	1097.954
-34.954	33.152	1284.718	1095.834
-33.940	33.262	1283.158	1095.102
-32.925	33.316	1281.958	1094.345
-31.911	33.227	1280.597	1092.626
-30.896	33.343	1278.723	1091.651
-29.881	33.270	1277.636	1090.258
-28.867	33.306	1276.174	1089.177
-27.852	33.448	1274.532	1088.546
-26.838	33.352	1273.025	1086.665
-25.823	33.369	1271.803	1085.677
-24.809	33.348	1270.258	1084.193
-23.794	33.289	1269.157	1082.875
-22.779	33.395	1267.733	1082.220
-21.765	33.310	1266.466	1080.612
-20.750	33.258	1265.251	1079.239
-19.736	33.277	1263.952	1078.191
-18.721	33.295	1263.080	1077.509
-17.706	33.191	1262.123	1076.057
-16.692	33.212	1260.441	1074.700
-15.677	33.179	1259.791	1073.918
-14.663	33.114	1258.753	1072.622
-13.648	33.198	1257.578	1072.051
-12.633	33.276	1256.272	1071.341
-11.619	33.164	1255.762	1070.229
-10.604	33.224	1254.870	1069.767
-9.590	33.170	1253.672	1068.394
-8.575	33.250	1252.384	1067.706
-7.560	33.150	1252.174	1066.920
-6.546	33.223	1251.330	1066.571
-5.531	33.114	1250.952	1065.591
-4.517	33.174	1249.156	1064.358
-3.502	33.247	1248.660	1064.301
-2.487	33.200	1247.963	1063.405
-1.473	33.266	1243.389	1059.831
-0.458	31.765	1229.363	1039.514
0.556	28.801	1212.632	1003.131
1.571	25.305	1217.894	988.184
2.586	24.468	1233.939	996.446
3.600	24.155	1223.357	986.082
4.615	17.860	1150.500	894.391
5.629	7.164	1072.962	781.500
6.644	2.386	1051.107	742.375
7.659	2.052	1048.698	738.991
8.673	1.899	1047.564	737.386
9.688	2.004	1045.709	736.519
10.702	2.388	1045.190	737.945
11.717	9.119	1054.347	777.006
12.731	19.382	1069.054	837.891
13.746	24.166	1074.909	865.713
14.761	25.144	1075.711	871.033
15.775	25.230	1075.367	871.098
16.790	25.020	1074.833	869.568
17.804	24.934	1074.105	868.484
18.819	25.159	1073.698	869.170
19.834	25.167	1073.284	868.795
20.848	25.244	1072.795	868.694
21.863	25.154	1072.441	867.897
22.877	25.150	1071.213	866.807
23.892	25.044	1070.596	865.721
24.907	25.148	1070.201	865.824
25.921	25.138	1068.911	864.655
26.936	25.190	1067.593	863.763
27.950	24.909	1066.393	861.365
28.965	24.829	1064.551	859.419
29.980	25.103	1062.668	859.137
30.994	25.227	1062.277	859.335
32.009	25.119	1061.094	857.787
33.023	24.974	1059.830	855.996
34.038	25.134	1059.098	856.093
35.053	25.126	1058.675	855.636
36.067	25.208	1057.571	855.062
37.082	25.246	1057.123	854.805
38.096	25.395	1056.660	855.063
39.111	25.466	1055.894	854.704
40.126	25.342	1054.148	852.628
41.140	25.014	1052.467	849.638
42.155	24.728	1051.348	847.305
43.169	24.891	1050.295	847.153
44.184	24.848	1049.408	846.161
45.199	24.755	1048.343	844.786
46.213	24.740	1047.921	844.302
47.228	25.040	1047.183	845.045
48.242	25.018	1046.195	844.069
49.257	25.163	1045.667	844.252
50.271	25.239	1044.690	843.744
51.286	25.195	1044.151	843.029
52.301	25.311	1043.342	842.844
53.315	25.228	1042.252	841.500
54.330	25.046	1041.381	839.870
55.344	25.076	1040.426	839.165
56.359	24.974	1039.741	838.064
57.374	24.963	1038.639	837.050
58.388	25.017	1037.798	836.548
59.403	24.877	1036.952	835.140
60.417	24.819	1035.974	834.007
61.432	24.808	1035.567	833.556
62.447	24.870	1035.514	833.730
63.461	24.967	1033.784	832.713
64.476	24.894	1033.097	831.744
65.490	24.805	1031.945	830.332
66.505	24.907	1031.426	830.315
67.520	24.923	1031.184	830.122
68.534	24.736	1029.620	827.923
69.549	24.387	1028.671	825.470
70.563	24.511	1027.600	825.114
71.578	24.467	1027.033	824.380
72.593	24.195	1026.370	822.520
73.607	24.373	1025.864	822.862
74.622	24.783	1025.380	824.292
75.636	24.821	1024.359	823.572
76.651	24.671	1023.758	822.327
77.666	24.555	1022.742	820.904
78.680	24.710	1022.188	821.099
79.695	24.791	1021.373	820.743
80.709	24.731	1021.083	820.162
81.724	24.840	1020.298	819.957
82.739	24.763	1020.140	819.407
83.753	25.218	1019.071	820.559
84.768	25.475	1018.430	821.143
85.782	25.582	1017.582	820.876
86.797	25.523	1016.141	819.372
87.812	25.282	1015.584	817.750
88.826	25.428	1014.629	817.575
89.841	25.509	1013.535	816.991
90.855	25.455	1012.968	816.214
91.870	25.240	1012.490	814.782
92.884	25.240	1010.589	813.178
93.899	25.267	1010.287	812.988
94.914	25.372	1009.060	812.403
95.928	25.342	1008.126	811.444
96.943	25.111	1006.677	809.163
97.957	24.840	1005.658	807.049
98.972	24.650	1004.763	805.404
99.987	25.088	1003.922	806.632
101.001	25.135	1003.294	806.264
102.016	25.060	1002.662	805.348
103.030	25.150	1001.251	804.549
104.045	25.021	1000.461	803.264
105.060	24.790	999.440	801.339
106.074	24.882	999.098	801.404
107.089	25.247	998.832	802.755
108.103	25.045	997.584	800.779
109.118	24.951	995.967	798.990
110.133	24.925	994.653	797.746
111.147	24.718	993.465	795.804
112.162	24.486	992.852	794.210
113.176	24.901	992.206	795.470
114.191	24.847	991.520	794.607
115.206	24.416	990.530	791.831
116.220	24.403	989.980	791.265
117.235	24.492	989.323	791.064
118.249	24.582	988.108	790.421
119.264	24.457	987.443	789.268
120.279	24.429	986.644	788.436
121.293	24.655	986.010	788.855
122.308	24.601	985.153	787.863
123.322	24.500	983.879	786.327
124.337	24.583	982.155	785.246
125.352	23.908	981.009	781.294
126.366	23.735	980.065	779.714
127.381	24.543	980.260	783.347
128.395	25.033	979.834	785.087
129.410	25.062	978.841	784.348
130.424	25.165	977.767	783.868
131.439	25.082	977.057	782.866
132.454	25.038	976.358	782.047
133.468	24.949	975.402	780.821
134.483	25.231	974.018	780.873
135.497	25.308	974.062	781.174
136.512	25.501	972.627	780.793
137.527	25.403	971.937	779.743
138.541	25.531	970.919	779.413
139.556	25.372	970.477	778.301
140.570	25.403	969.777	777.804
141.585	25.407	968.705	776.893
142.600	25.415	967.572	775.950
143.614	25.477	967.054	775.736
144.629	25.690	966.723	776.319
145.643	25.489	965.122	774.100
146.658	25.317	963.680	772.132
147.673	25.218	962.797	770.935
148.687	25.120	961.971	769.783
149.702	25.225	960.769	769.204
150.716	25.252	959.350	768.114
151.731	25.386	958.981	768.326
152.746	25.530	958.475	768.464
153.760	25.386	958.390	767.715
154.775	25.618	957.569	767.978
155.789	25.688	956.047	766.990
156.804	25.444	955.561	765.492
157.819	25.540	954.635	765.093
158.833	25.764	954.228	765.649
159.848	25.679	953.293	764.472
160.862	25.437	951.714	762.111
161.877	25.558	950.684	761.732
162.892	25.504	950.295	761.123
163.906	25.468	949.062	759.916
164.921	25.490	948.510	759.499
165.935	25.531	947.432	758.743
166.950	25.644	946.286	758.235
167.964	25.574	945.417	757.175
168.979	25.351	944.425	755.375
169.994	25.328	943.829	754.737
171.008	25.603	943.124	755.263
172.023	25.760	942.212	755.123
173.037	25.492	941.195	753.117
174.052	25.210	939.995	750.912
175.067	25.322	939.748	751.114
176.081	25.367	939.103	750.720
177.096	25.264	938.652	749.862
178.110	24.924	937.563	747.508
179.125	24.931	936.644	746.741
180.140	25.026	935.907	746.483
181.154	25.114	935.835	746.724
182.169	25.486	935.906	748.265
183.183	25.526	935.333	747.906
184.198	25.546	934.408	747.184
185.213	25.419	933.546	745.901
186.227	25.478	933.372	745.942
187.242	25.583	932.496	745.610
188.256	25.582	932.051	745.183
189.271	25.525	931.279	744.266
190.286	25.217	929.908	741.832
191.300	24.752	928.350	738.600
192.315	23.947	926.914	734.073
193.329	23.863	926.578	733.395
194.344	24.787	927.069	737.531
195.359	25.360	927.606	740.256
196.373	25.494	926.490	739.850
197.388	25.441	925.955	739.141
198.402	25.390	925.327	738.363
199.417	25.449	924.492	737.874
200.432	25.198	923.663	736.120
201.446	24.986	923.202	734.818
202.461	25.024	922.612	734.439
203.475	24.154	920.911	729.457
204.490	23.382	919.618	725.209
205.504	24.303	920.149	729.334
206.519	25.039	919.555	731.806
207.534	25.128	919.199	731.820
208.548	25.529	919.161	733.363
209.563	25.102	918.507	731.033
210.577	25.065	917.779	730.238
211.592	25.661	917.534	732.407
212.607	25.621	916.349	731.234
213.621	25.712	915.558	730.906
214.636	25.599	915.464	730.310
215.650	25.510	914.410	729.043
216.665	25.734	913.495	729.156
217.680	25.615	912.991	728.207
218.694	25.250	911.723	725.655
219.709	25.005	911.432	724.371
220.723	25.375	910.943	725.410
221.738	25.456	910.102	725.002
222.753	25.475	909.535	724.565
223.767	25.598	909.175	724.710
224.782	25.689	909.189	725.022
225.796	25.623	908.496	724.141
226.811	24.950	906.727	719.962
227.826	24.519	905.510	717.202
228.840	24.551	905.288	717.092
229.855	24.722	904.337	716.961
230.869	24.290	903.750	714.699
231.884	24.812	903.176	716.273
232.899	25.492	903.409	719.115
233.913	25.211	902.775	717.424
234.928	25.252	902.361	717.195
235.942	25.243	901.310	716.259
236.957	24.933	900.685	714.463
237.972	25.036	900.208	714.434
238.986	25.091	899.516	714.040
240.001	25.129	899.020	713.734
241.015	25.202	898.414	713.478
242.030	25.349	898.025	713.691
243.045	25.519	897.452	713.849
244.059	25.478	897.584	713.727
245.074	25.391	896.416	712.391
246.088	24.964	895.140	709.623
247.103	25.331	894.569	710.559
248.117	26.019	894.632	713.268
249.132	26.147	894.639	713.717
250.147	26.150	894.254	713.358
251.161	26.368	893.250	713.357
252.176	26.362	892.824	712.926
253.190	26.487	892.196	712.858
254.205	26.483	892.138	712.730
255.220	26.485	891.219	711.940
256.234	26.308	890.618	710.703
257.249	26.105	890.147	709.466
258.263	26.340	888.951	709.372
259.278	26.197	888.698	708.548
260.293	26.355	887.771	708.365
261.307	26.361	887.452	708.070
262.322	25.941	886.646	705.721
263.336	25.373	884.190	701.487
264.351	24.342	882.924	696.396
265.366	24.402	882.503	696.237
266.380	25.428	883.293	700.804
267.395	26.020	882.734	702.605
268.409	25.884	882.153	701.551
269.424	26.120	881.501	701.887
270.439	26.046	881.314	701.387
271.453	26.164	880.684	701.282
272.468	26.456	879.964	701.780
273.482	26.374	879.856	701.314
274.497	25.990	878.235	698.474
275.512	25.749	877.503	696.897
276.526	26.093	877.548	698.202
277.541	26.103	877.350	698.021
278.555	26.069	876.345	697.030
279.570	25.776	875.639	695.275
280.585	25.999	875.302	695.805
281.599	25.851	874.155	694.263
282.614	25.429	872.745	691.457
283.628	25.335	872.564	690.890
284.643	25.679	872.357	691.988
285.657	25.301	871.223	689.578
286.672	25.024	870.335	687.749
287.687	25.671	870.670	690.435
288.701	25.670	869.589	689.516
289.716	25.336	869.167	687.840
290.730	25.357	868.328	687.196
291.745	24.960	867.385	684.870
292.760	25.490	866.907	686.456
293.774	26.382	867.581	690.336
294.789	26.670	867.444	691.266
295.803	26.768	866.970	691.199
296.818	26.704	866.055	690.166
297.833	26.196	865.402	687.651
298.847	26.222	863.887	686.486
299.862	26.441	864.144	687.463
300.876	26.578	863.950	687.767
301.891	26.524	863.144	686.861
302.906	26.214	862.106	684.799
303.920	26.280	861.643	684.620
304.935	26.651	861.290	685.682
305.949	26.726	860.746	685.471
306.964	26.286	860.202	683.317
307.979	26.561	859.766	683.948
308.993	26.692	859.906	684.493
310.008	26.732	859.046	683.901
311.022	26.486	858.284	682.304
312.037	26.339	857.139	680.782
313.052	26.099	856.407	679.234
314.066	25.300	854.678	674.802
315.081	24.994	854.167	673.189
316.095	25.823	854.672	676.644
317.110	26.355	854.737	678.631
318.125	25.281	853.173	673.304
319.139	24.372	851.518	668.533
320.154	24.340	851.238	668.136
321.168	25.348	851.489	672.049
322.183	26.043	851.834	674.861
323.197	26.124	851.477	674.821
324.212	26.414	850.738	675.258
325.227	26.323	850.497	674.670
326.241	26.297	849.807	673.965
327.256	26.150	849.051	672.757
328.270	26.155	848.190	672.036
329.285	26.032	847.439	670.922
330.300	25.828	846.343	669.236
331.314	26.009	846.607	670.060
332.329	26.313	846.622	671.143
333.343	26.534	845.903	671.333
334.358	26.543	845.583	671.053
335.373	26.665	844.961	670.952
336.387	26.791	845.173	671.525
337.402	26.953	845.245	672.123
338.416	26.727	845.127	671.132
339.431	27.044	844.289	671.582
340.446	27.117	844.317	671.814
341.460	27.002	843.293	670.513
342.475	26.831	842.525	669.215
343.489	26.950	842.061	669.224
344.504	27.165	842.385	670.218
345.519	27.380	841.875	670.542
346.533	27.308	841.530	669.945
347.548	27.407	840.934	669.776
348.562	27.325	840.313	668.920
349.577	27.309	839.581	668.218
350.592	27.182	839.122	667.329
351.606	27.240	838.316	666.842
352.621	27.092	837.261	665.402
353.635	27.053	836.824	664.850
354.650	26.498	834.866	661.212
355.665	25.502	833.171	656.176
356.679	25.723	833.482	657.168
357.694	26.308	833.277	659.084
358.708	26.263	832.298	658.085
359.723	26.773	832.527	660.067
360.738	27.045	832.007	660.585
361.752	27.022	832.025	660.456
362.767	27.424	831.095	661.122
363.781	27.566	831.213	661.674
364.796	27.628	830.801	661.511
365.810	27.742	830.469	661.600
366.825	27.666	829.969	660.869
367.840	27.307	829.079	658.801
368.854	26.932	828.579	656.990
369.869	26.973	827.795	656.458
370.883	26.906	827.489	655.917
371.898	26.886	827.128	655.498
372.913	26.936	826.911	655.448
373.927	27.186	826.422	655.904
374.942	27.335	825.981	656.036
375.956	27.415	825.847	656.157
376.971	27.683	825.000	656.391
377.986	27.792	824.690	656.479
379.000	27.663	824.173	655.548
380.015	27.551	823.598	654.629
381.029	27.609	822.715	654.077
382.044	27.727	822.516	654.285
383.059	27.630	821.987	653.459
384.073	27.695	821.338	653.119
385.088	27.588	820.750	652.208
386.102	27.374	820.253	650.992
387.117	27.432	819.412	650.471
388.132	26.930	818.276	647.722
389.146	26.480	817.514	645.458
390.161	26.824	817.391	646.531
391.175	27.364	817.106	648.172
392.190	27.008	816.006	645.973
393.205	25.570	813.865	639.117
394.219	24.011	812.345	632.330
395.234	24.208	812.046	632.741
396.248	25.866	813.526	639.730
397.263	27.341	814.328	645.541
398.278	27.105	814.130	644.492
399.292	26.932	813.148	643.046
400.307	26.843	813.026	642.574
401.321	26.909	812.573	642.394
402.336	27.361	812.506	643.882
403.350	27.974	812.235	645.778
404.365	28.229	812.027	646.455
405.380	28.335	811.898	646.672
406.394	28.523	811.115	646.654
407.409	28.325	810.420	645.343
408.423	28.318	810.397	645.245
409.438	28.435	810.002	645.287
410.453	28.333	809.595	644.545
411.467	28.441	808.752	644.195
412.482	28.421	808.553	643.912
413.496	28.522	808.516	644.177
414.511	28.391	808.180	643.393
415.526	28.575	807.144	643.158
416.540	28.236	806.471	641.375
417.555	27.955	806.041	639.993
418.569	27.985	805.837	639.882
419.584	28.023	805.001	639.294
420.599	27.856	804.620	638.349
421.613	110.637	1284.628	1454.233
422.628	95.573	1354.553	1454.366
