DTS Sentinel unit serial number:	SN413079Multiplexer serial number:	ORYXHardware model number:	OX4-SRSoftware version number:	ORYX F/W v4.00 Oryx Data Collector v3.7.2.0data status	okinstallation	princeton_trtdifferential loss correction	single-endedforward channel	channel 1reverse channel	N/Adate	2019/09/11time	06:40:11forward acquisition time	60.00reverse acquisition time	0.00gamma	496.2192k internal	0.2331k external	0.2331temperature offset calibration	0.9922default loss term (dB/km)	0.3790temperature slope calibration	1.0000multiplexer offset coefficient	1.0000multiplexer slope coefficient	1.0000fibre end	0.00T internal ref (°C)	29.75T ext. ref 1 (°C)	-0.15T ext. ref 2 (°C)	24.67length (m)	temperature (°C)	Stokes	anti-Stokes-747.200	-6.841	-0.068	0.046
-746.185	334.284	-0.082	0.160
-745.171	-81.700	0.097	0.032
-744.156	147.783	-0.181	-0.245
-743.142	-200.000	-0.041	-0.349
-742.127	48.727	-0.353	0.333
-741.112	-31.115	0.042	0.024
-740.098	-92.389	0.250	0.071
-739.083	800.000	0.062	-0.233
-738.069	-62.492	0.450	0.188
-737.054	-72.228	0.284	0.106
-736.039	-200.000	-0.039	-0.246
-735.025	-50.473	-0.131	0.062
-734.010	622.712	0.128	-0.324
-732.996	469.701	-0.191	-0.431
-731.981	-113.223	0.143	-0.028
-730.966	-200.000	0.014	-0.168
-729.952	318.294	0.039	0.075
-728.937	382.053	0.074	0.154
-727.923	-42.251	-0.125	0.064
-726.908	-200.000	0.083	0.498
-725.894	-200.000	0.010	0.136
-724.879	157.060	-0.100	-0.140
-723.864	-131.356	0.218	-0.029
-722.850	-82.112	-0.330	0.108
-721.835	-122.898	0.090	0.015
-720.821	-91.803	0.150	-0.043
-719.806	-200.000	0.016	-0.245
-718.791	-200.000	-0.061	-0.412
-717.777	-29.523	-0.108	-0.062
-716.762	800.000	0.088	-0.289
-715.748	328.008	0.038	0.074
-714.733	15.720	0.144	-0.114
-713.718	-200.000	-0.052	-0.232
-712.704	43.192	-0.114	0.105
-711.689	284.823	-0.168	0.303
-710.675	-41.963	0.142	-0.073
-709.660	-74.650	0.315	0.114
-708.645	-88.925	0.334	-0.099
-707.631	-67.969	-0.224	-0.088
-706.616	-47.173	-0.217	-0.106
-705.602	-101.159	-0.136	-0.033
-704.587	-35.026	0.158	0.087
-703.572	513.347	-0.078	-0.183
-702.558	40.463	-0.146	-0.132
-701.543	-200.000	-0.031	-0.432
-700.529	-88.528	0.167	-0.050
-699.514	-131.338	-0.167	0.022
-698.499	-99.092	0.194	-0.049
-697.485	214.536	-0.111	0.177
-696.470	-87.022	0.251	0.077
-695.456	238.094	0.114	-0.190
-694.441	-88.353	-0.140	0.042
-693.426	-200.000	-0.022	0.186
-692.412	348.441	0.015	-0.029
-691.397	-67.547	0.309	-0.122
-690.383	-7.946	0.222	0.150
-689.368	257.859	-0.166	-0.286
-688.354	-33.473	-0.097	-0.054
-687.339	-101.473	-0.234	-0.057
-686.324	800.000	0.073	0.223
-685.310	-144.760	-0.320	0.029
-684.295	-32.431	-0.149	-0.084
-683.281	590.771	0.029	-0.073
-682.266	20.298	0.027	-0.022
-681.251	-3.995	0.247	0.172
-680.237	-166.957	-0.117	-0.005
-679.222	-90.759	0.317	0.092
-678.208	-200.000	-0.012	-0.124
-677.193	-77.351	-0.212	-0.074
-676.178	-200.000	-0.007	-0.096
-675.164	-13.296	0.124	0.081
-674.149	43.049	-0.258	-0.236
-673.135	800.000	0.045	-0.179
-672.120	274.571	-0.158	-0.281
-671.105	568.961	-0.032	-0.078
-670.091	-83.586	-0.242	-0.078
-669.076	125.446	0.024	-0.031
-668.062	-33.715	0.255	-0.141
-667.047	655.096	-0.141	-0.364
-666.032	-200.000	0.013	-0.090
-665.018	-116.341	-0.221	0.041
-664.003	285.804	-0.108	-0.195
-662.989	-35.667	-0.381	0.207
-661.974	388.400	0.067	0.139
-660.959	-17.518	-0.211	0.133
-659.945	222.543	-0.103	-0.166
-658.930	-16.995	-0.314	0.199
-657.916	109.399	0.107	0.128
-656.901	-148.211	0.295	0.024
-655.886	-166.759	-0.306	-0.013
-654.872	-200.000	0.015	-0.345
-653.857	193.693	0.206	-0.312
-652.843	62.069	-0.321	-0.321
-651.828	-94.653	0.104	0.028
-650.814	245.991	-0.155	0.262
-649.799	-200.000	-0.050	-0.302
-648.784	-43.150	0.014	0.007
-647.770	-11.977	0.147	0.097
-646.755	-62.183	-0.366	0.153
-645.741	-75.197	-0.259	-0.093
-644.726	-200.000	-0.093	0.000
-643.711	162.718	-0.072	-0.101
-642.697	-153.729	0.091	-0.006
-641.682	-200.000	-0.023	-0.163
-640.668	-37.921	0.090	-0.048
-639.653	-17.477	-0.288	0.182
-638.638	-118.244	0.325	-0.058
-637.624	-88.873	0.332	0.099
-636.609	261.440	-0.020	0.036
-635.595	-200.000	-0.006	-0.032
-634.580	-200.000	0.004	-0.064
-633.565	800.000	-0.095	-0.289
-632.551	-33.414	-0.192	0.107
-631.536	-81.054	0.153	-0.051
-630.522	-191.252	0.048	-0.000
-629.507	104.435	-0.001	-0.001
-628.492	151.514	-0.198	0.271
-627.478	768.353	-0.058	0.158
-626.463	-200.000	0.019	0.088
-625.449	-6.051	0.263	-0.180
-624.434	-200.000	-0.022	-0.176
-623.419	-200.000	-0.018	0.151
-622.405	-21.593	0.222	0.135
-621.390	-66.924	-0.252	0.100
-620.376	-21.154	0.329	-0.202
-619.361	-38.464	0.186	-0.098
-618.346	-60.945	-0.236	-0.100
-617.332	-200.000	0.034	0.206
-616.317	-29.162	-0.190	0.109
-615.303	-122.534	-0.093	0.015
-614.288	368.864	0.147	-0.297
-613.273	-200.000	-0.015	0.186
-612.259	717.646	0.020	0.054
-611.244	219.830	0.082	0.131
-610.230	-69.534	-0.309	0.119
-609.215	-126.222	0.447	0.067
-608.201	342.813	0.038	0.074
-607.186	505.881	0.051	0.119
-606.171	-5.417	0.272	-0.187
-605.157	-111.175	0.153	-0.031
-604.142	134.952	-0.108	-0.141
-603.128	519.186	0.123	-0.288
-602.113	-138.007	0.067	-0.007
-601.098	-191.455	0.025	0.000
-600.084	41.710	-0.217	-0.196
-599.069	-150.330	-0.051	0.004
-598.055	72.466	-0.142	0.149
-597.040	120.745	0.115	-0.143
-596.025	-200.000	-0.018	-0.094
-595.011	-18.461	0.140	0.087
-593.996	-121.318	0.122	0.020
-592.982	68.739	0.262	0.269
-591.967	800.000	0.069	0.218
-590.952	800.000	0.117	-0.510
-589.938	-189.897	-0.141	0.002
-588.923	-5.159	-0.074	-0.051
-587.909	136.811	0.034	0.045
-586.894	-145.779	0.139	-0.012
-585.879	-107.739	0.374	-0.082
-584.865	-15.560	0.081	-0.052
-583.850	288.338	0.044	-0.079
-582.836	7.860	-0.182	0.136
-581.821	800.000	0.118	0.409
-580.806	-79.070	-0.076	-0.026
-579.792	34.165	0.082	-0.071
-578.777	-147.956	0.105	0.009
-577.763	128.876	-0.190	0.242
-576.748	199.174	-0.164	0.252
-575.733	800.000	-0.079	0.243
-574.719	495.741	0.103	-0.236
-573.704	30.578	-0.228	-0.195
-572.690	-200.000	-0.027	-0.148
-571.675	384.264	-0.063	-0.129
-570.661	-70.358	-0.320	0.121
-569.646	-28.599	-0.187	-0.108
-568.631	82.059	0.075	-0.081
-567.617	800.000	-0.010	-0.037
-566.602	52.788	-0.079	-0.075
-565.588	-200.000	-0.049	0.341
-564.573	-56.412	-0.122	0.054
-563.558	800.000	-0.065	-0.247
-562.544	2.409	0.252	0.182
-561.529	76.694	0.156	-0.166
-560.515	38.379	-0.263	0.234
-559.500	-53.823	-0.080	0.036
-558.485	-168.605	0.284	0.011
-557.471	-74.201	-0.410	0.148
-556.456	800.000	-0.014	-0.057
-555.442	-152.369	0.230	-0.017
-554.427	-78.828	-0.076	0.026
-553.412	-24.054	-0.184	0.110
-552.398	-148.383	-0.399	-0.033
-551.383	738.748	0.123	-0.331
-550.369	-200.000	-0.029	-0.188
-549.354	-71.447	0.288	-0.108
-548.339	-101.924	-0.356	-0.086
-547.325	-31.125	0.105	-0.059
-546.310	632.654	0.198	-0.501
-545.296	-96.061	-0.026	-0.007
-544.281	-43.133	-0.280	-0.142
-543.266	340.355	-0.125	-0.243
-542.252	245.568	0.077	0.130
-541.237	-79.371	0.087	0.029
-540.223	-73.170	0.279	-0.102
-539.208	800.000	-0.028	-0.103
-538.193	206.618	-0.150	0.234
-537.179	140.077	0.206	-0.271
-536.164	-103.390	-0.206	0.048
-535.150	-7.797	-0.059	0.040
-534.135	-46.305	-0.421	-0.206
-533.121	103.547	-0.043	0.050
-532.106	143.754	0.038	0.051
-531.091	388.829	-0.040	-0.083
-530.077	-45.454	-0.088	-0.044
-529.062	6.743	-0.192	0.143
-528.048	-54.439	-0.195	-0.088
-527.033	117.209	0.031	0.038
-526.018	-159.243	0.181	-0.010
-525.004	-29.170	-0.186	-0.106
-523.989	-85.330	-0.139	0.043
-522.975	51.049	0.112	-0.106
-521.960	-165.882	0.382	-0.016
-520.945	800.000	0.160	-0.477
-519.931	73.286	-0.199	0.208
-518.916	-14.690	0.164	-0.105
-517.902	90.911	-0.034	0.037
-516.887	157.680	0.210	-0.290
-515.872	-200.000	-0.020	0.178
-514.858	-27.197	-0.286	-0.166
-513.843	-100.306	-0.218	0.054
-512.829	128.100	0.241	0.306
-511.814	-58.633	0.181	-0.078
-510.799	-94.263	-0.151	0.041
-509.785	1.363	-0.093	0.067
-508.770	-64.257	-0.096	0.039
-507.756	99.072	0.069	0.079
-506.741	-155.096	-0.083	0.005
-505.726	-50.638	0.343	0.161
-504.712	-0.953	0.084	0.059
-503.697	126.224	-0.124	0.156
-502.683	-101.721	-0.031	-0.007
-501.668	42.845	0.042	-0.038
-500.653	-15.891	-0.271	-0.172
-499.639	2.173	-0.396	0.285
-498.624	7.456	0.327	0.244
-497.610	-174.300	-0.245	0.007
-496.595	-138.982	0.142	0.015
-495.581	197.989	-0.205	-0.313
-494.566	-83.421	-0.118	-0.038
-493.551	-42.605	0.062	0.031
-492.537	254.714	0.067	-0.115
-491.522	369.625	0.112	0.225
-490.508	43.870	-0.149	0.136
-489.493	-78.553	-0.240	-0.082
-488.478	800.000	-0.026	-0.101
-487.464	63.000	-0.013	0.013
-486.449	-30.498	-0.166	-0.094
-485.435	131.482	-0.057	0.073
-484.420	-200.000	0.032	-0.381
-483.405	-200.000	-0.007	-0.061
-482.391	-134.356	0.242	-0.030
-481.376	800.000	-0.060	0.197
-480.362	800.000	-0.125	-0.500
-479.347	-130.070	-0.388	0.053
-478.332	-49.714	-0.221	-0.105
-477.318	445.656	0.055	-0.121
-476.303	-99.873	-0.147	-0.037
-475.289	800.000	0.171	0.490
-474.274	800.000	0.055	0.157
-473.259	110.845	-0.056	-0.068
-472.245	57.036	-0.203	-0.197
-471.230	-47.655	0.290	0.140
-470.216	-62.968	0.191	-0.079
-469.201	-200.000	0.009	-0.327
-468.186	58.981	-0.099	-0.097
-467.172	71.017	0.197	-0.203
-466.157	800.000	-0.041	-0.151
-465.143	800.000	0.077	-0.261
-464.128	-200.000	0.073	0.401
-463.113	-200.000	0.013	-0.095
-462.099	-200.000	-0.022	0.178
-461.084	-200.000	0.029	-0.212
-460.070	-88.666	-0.124	0.037
-459.055	-200.000	-0.001	-0.132
-458.040	-200.000	0.061	-0.302
-457.026	28.865	-0.173	-0.146
-456.011	177.191	0.010	-0.015
-454.997	219.588	0.269	-0.429
-453.982	-200.000	-0.013	-0.569
-452.968	-200.000	-0.026	-0.413
-451.953	-200.000	-0.056	0.358
-450.938	51.672	0.388	0.367
-449.924	273.932	-0.140	0.246
-448.909	800.000	0.044	-0.169
-447.895	-2.191	-0.097	0.067
-446.880	190.948	0.104	0.155
-445.865	124.658	-0.097	-0.122
-444.851	-158.001	-0.463	0.027
-443.836	798.338	-0.069	-0.189
-442.822	-105.799	-0.193	-0.043
-441.807	-27.657	-0.257	0.149
-440.792	-39.923	0.044	0.023
-439.778	800.000	0.092	0.335
-438.763	15.127	-0.027	-0.021
-437.749	48.800	-0.119	-0.111
-436.734	38.012	0.110	0.097
-435.719	519.641	-0.040	0.093
-434.705	85.309	-0.257	-0.281
-433.690	-54.331	-0.045	-0.020
-432.676	-48.265	0.307	-0.147
-431.661	-65.371	0.104	0.042
-430.646	-200.000	-0.007	0.222
-429.632	-179.108	0.362	-0.008
-428.617	-133.773	-0.119	0.015
-427.603	-185.494	-0.130	-0.002
-426.588	-200.000	-0.039	0.233
-425.573	-200.000	0.058	0.262
-424.559	87.523	0.030	0.033
-423.544	-200.000	0.032	0.353
-422.530	227.695	0.046	0.075
-421.515	-96.019	-0.266	0.070
-420.500	800.000	0.031	-0.103
-419.486	-7.678	0.101	0.068
-418.471	566.012	0.110	0.264
-417.457	-142.525	0.167	0.016
-416.442	-200.000	0.074	-0.359
-415.428	-200.000	0.004	0.079
-414.413	-16.228	-0.340	-0.215
-413.398	-200.000	-0.034	-0.351
-412.384	30.151	0.095	0.081
-411.369	800.000	-0.039	0.109
-410.355	-200.000	0.025	-0.115
-409.340	-87.873	0.226	0.067
-408.325	-113.532	0.193	-0.037
-407.311	800.000	-0.081	-0.242
-406.296	150.671	0.071	-0.096
-405.282	129.546	0.076	-0.097
-404.267	800.000	0.119	-0.506
-403.252	238.525	0.100	-0.166
-402.238	233.755	-0.126	-0.206
-401.223	-91.657	0.157	-0.044
-400.209	292.811	-0.196	-0.354
-399.194	32.394	0.022	0.019
-398.179	-141.632	-0.325	0.032
-397.165	-200.000	-0.005	0.055
-396.150	-104.952	-0.183	0.042
-395.136	800.000	-0.084	0.240
-394.121	800.000	-0.097	0.311
-393.106	-59.522	0.119	0.051
-392.092	-107.272	-0.233	0.051
-391.077	120.963	0.196	-0.242
-390.063	800.000	0.008	-0.026
-389.048	800.000	0.045	0.185
-388.033	-29.352	-0.333	-0.189
-387.019	15.166	0.221	0.172
-386.004	-78.309	-0.264	0.090
-384.990	-200.000	-0.005	-0.226
-383.975	-200.000	-0.003	0.170
-382.960	28.561	-0.116	-0.098
-381.946	623.828	-0.100	0.249
-380.931	-111.252	0.568	0.115
-379.917	-76.690	-0.127	0.044
-378.902	800.000	0.032	-0.119
-377.888	800.000	-0.111	0.357
-376.873	333.005	-0.027	-0.051
-375.858	-200.000	0.003	0.102
-374.844	113.715	-0.175	0.211
-373.829	800.000	0.066	-0.231
-372.815	-200.000	-0.065	-0.403
-371.800	14.361	0.224	-0.173
-370.785	-138.299	0.074	0.008
-369.771	47.711	-0.128	0.119
-368.756	90.195	-0.093	-0.103
-367.742	-24.158	-0.245	0.145
-366.727	-45.996	0.206	0.101
-365.712	800.000	-0.062	0.263
-364.698	63.046	-0.052	0.051
-363.683	-76.399	0.407	0.142
-362.669	800.000	0.087	-0.243
-361.654	-200.000	-0.019	0.289
-360.639	-200.000	0.001	0.334
-359.625	160.658	-0.234	0.325
-358.610	-189.657	-0.257	0.003
-357.596	800.000	0.080	0.313
-356.581	149.812	0.127	-0.171
-355.566	15.895	-0.115	0.090
-354.552	420.550	-0.085	0.182
-353.537	-116.994	0.099	-0.018
-352.523	-156.560	0.457	0.028
-351.508	80.389	0.052	0.056
-350.493	160.779	0.126	-0.175
-349.479	-18.267	0.132	-0.082
-348.464	55.560	-0.226	0.217
-347.450	-200.000	0.016	0.290
-346.435	465.284	-0.148	-0.328
-345.420	175.959	-0.101	-0.145
-344.406	-12.750	-0.197	-0.127
-343.391	144.576	-0.247	0.326
-342.377	303.320	0.013	0.023
-341.362	59.265	0.090	-0.088
-340.348	-200.000	-0.021	0.102
-339.333	-21.046	0.320	0.194
-338.318	-59.897	0.223	-0.094
-337.304	800.000	-0.110	-0.393
-336.289	-145.522	0.340	0.030
-335.275	-200.000	0.001	-0.024
-334.260	-16.710	-0.084	0.053
-333.245	-59.828	0.315	0.133
-332.231	800.000	0.053	-0.212
-331.216	800.000	-0.055	0.184
-330.202	68.296	-0.200	0.203
-329.187	-37.328	0.052	-0.028
-328.172	28.914	-0.177	-0.149
-327.158	-53.831	0.157	-0.071
-326.143	-200.000	-0.007	-0.258
-325.129	271.659	0.074	0.128
-324.114	188.023	-0.035	0.052
-323.099	422.050	0.031	-0.066
-322.085	190.069	0.200	0.297
-321.070	288.357	-0.054	-0.097
-320.056	15.682	0.131	0.102
-319.041	-37.571	0.239	-0.126
-318.026	-21.315	-0.098	-0.059
-317.012	29.500	0.381	0.321
-315.997	55.073	0.114	-0.109
-314.983	-161.499	-0.285	0.014
-313.968	-164.513	0.133	-0.006
-312.953	36.591	0.327	0.286
-311.939	91.583	-0.098	-0.109
-310.924	-102.656	-0.159	-0.038
-309.910	376.735	0.104	-0.210
-308.895	209.487	0.088	0.136
-307.880	14.369	-0.225	0.174
-306.866	-41.268	-0.130	-0.066
-305.851	-166.061	-0.026	-0.001
-304.837	-200.000	-0.001	0.345
-303.822	-200.000	-0.062	-0.281
-302.807	800.000	-0.022	0.076
-301.793	-119.236	0.300	-0.052
-300.778	-28.412	0.200	-0.114
-299.764	-28.740	-0.184	-0.105
-298.749	38.895	0.021	0.019
-297.735	-14.405	-0.209	-0.133
-296.720	800.000	-0.057	-0.236
-295.705	-27.432	-0.190	0.109
-294.691	-126.725	-0.075	0.011
-293.676	800.000	-0.042	-0.115
-292.662	374.541	-0.094	0.189
-291.647	800.000	0.027	-0.077
-290.632	-170.511	-0.372	-0.013
-289.618	-14.807	-0.124	-0.079
-288.603	-200.000	-0.000	0.073
-287.589	-27.541	0.148	0.085
-286.574	-200.000	0.015	-0.426
-285.559	800.000	-0.064	0.238
-284.545	-68.158	-0.166	0.064
-283.530	51.110	-0.023	-0.022
-282.516	46.355	-0.111	0.101
-281.501	-133.428	0.102	0.013
-280.486	-6.178	0.023	0.015
-279.472	-134.750	0.206	-0.025
-278.457	-200.000	-0.004	0.210
-277.443	637.640	-0.020	-0.051
-276.428	-97.064	-0.279	0.072
-275.413	-64.965	0.325	0.130
-274.399	-200.000	-0.035	-0.238
-273.384	573.555	-0.088	-0.211
-272.370	-142.931	-0.210	0.020
-271.355	-174.588	-0.302	-0.009
-270.340	800.000	0.029	-0.094
-269.326	-34.916	-0.235	0.127
-268.311	-155.373	0.195	-0.013
-267.297	29.491	0.149	-0.125
-266.282	57.004	0.118	0.113
-265.267	503.259	0.024	-0.054
-264.253	37.683	0.379	-0.332
-263.238	166.602	-0.158	-0.221
-262.224	-200.000	-0.033	0.194
-261.209	673.671	-0.046	0.119
-260.195	-161.367	-0.132	-0.007
-259.180	-114.747	0.169	0.032
-258.165	14.326	-0.040	-0.031
-257.151	-53.077	0.232	-0.105
-256.136	22.963	0.363	-0.294
-255.122	-147.753	-0.410	0.034
-254.107	38.402	0.265	0.233
-253.092	-200.000	-0.081	0.495
-252.078	-200.000	-0.012	0.172
-251.063	800.000	-0.066	-0.209
-250.049	-88.815	-0.243	-0.071
-249.034	524.785	-0.090	0.209
-248.019	255.352	-0.065	-0.109
-247.005	168.098	-0.086	0.120
-245.990	-161.717	-0.350	0.018
-244.976	276.946	-0.151	-0.265
-243.961	-114.654	-0.191	0.036
-242.946	-125.241	0.206	0.031
-241.932	-200.000	0.082	-0.382
-240.917	-148.973	0.063	0.005
-239.903	-15.476	0.217	-0.137
-238.888	-97.509	0.162	0.042
-237.873	800.000	0.012	-0.039
-236.859	-200.000	0.021	0.342
-235.844	-200.000	0.039	-0.254
-234.830	800.000	-0.036	-0.132
-233.815	-83.001	0.268	0.085
-232.800	216.373	-0.102	0.159
-231.786	-5.263	-0.122	0.083
-230.771	-200.000	0.025	-0.151
-229.757	-93.402	-0.297	-0.081
-228.742	-105.760	0.476	-0.106
-227.727	-200.000	0.071	-0.417
-226.713	-68.966	-0.183	-0.069
-225.698	-200.000	0.444	0.002
-224.684	-200.000	0.076	0.355
-223.669	137.380	-0.089	-0.115
-222.655	-133.392	0.181	0.023
-221.640	147.774	-0.140	0.186
-220.625	-43.738	0.151	0.075
-219.611	1.542	0.323	-0.229
-218.596	-61.095	-0.245	0.102
-217.582	224.671	-0.046	-0.074
-216.567	134.433	0.058	-0.074
-215.552	-200.000	-0.038	0.410
-214.538	553.248	-0.150	0.356
-213.523	-118.660	-0.243	-0.042
-212.509	-64.037	-0.106	-0.043
-211.494	-57.750	-0.252	0.109
-210.479	-62.311	0.076	0.031
-209.465	3.119	0.227	-0.163
-208.450	-34.231	0.132	0.072
-207.436	-166.086	0.176	0.007
-206.421	-54.443	-0.299	0.133
-205.406	-200.000	-0.019	-0.185
-204.392	49.112	0.199	0.184
-203.377	-135.225	0.167	0.020
-202.363	-48.406	0.116	0.055
-201.348	-153.491	0.401	0.027
-200.333	19.032	-0.137	0.108
-199.319	800.000	0.095	0.328
-198.304	557.829	0.072	-0.172
-197.290	-200.000	0.020	0.163
-196.275	-200.000	0.317	0.001
-195.260	66.467	-0.265	-0.266
-194.246	-11.885	-0.157	-0.101
-193.231	-200.000	0.012	-0.330
-192.217	800.000	-0.078	0.314
-191.202	313.644	-0.124	0.230
-190.187	-54.083	-0.142	0.064
-189.173	-165.791	-0.134	-0.006
-188.158	-200.000	-0.007	0.241
-187.144	-200.000	0.033	0.319
-186.129	288.662	-0.225	0.401
-185.114	93.182	-0.112	0.125
-184.100	-11.492	0.044	-0.029
-183.085	162.605	0.060	0.083
-182.071	-162.636	0.278	0.013
-181.056	-167.431	-0.185	-0.007
-180.042	-200.000	0.020	-0.097
-179.027	-200.000	-0.013	0.144
-178.012	-56.520	0.226	0.099
-176.998	19.938	0.478	-0.379
-175.983	-117.286	-0.345	0.062
-174.969	-168.291	0.286	-0.011
-173.954	57.963	0.144	0.139
-172.939	36.288	0.169	0.146
-171.925	189.313	-0.194	-0.286
-170.910	800.000	-0.067	0.201
-169.896	-200.000	-0.035	0.200
-168.881	-134.233	0.158	0.019
-167.866	800.000	-0.054	0.186
-166.852	59.059	0.283	-0.274
-165.837	-200.000	-0.001	0.196
-164.823	51.810	-0.110	0.103
-163.808	-152.254	-0.211	-0.015
-162.793	-200.000	0.020	0.280
-161.779	-200.000	-0.002	-0.113
-160.764	-62.568	0.201	-0.082
-159.750	23.060	0.131	0.106
-158.735	800.000	0.102	-0.387
-157.720	-200.000	0.030	0.219
-156.706	0.573	0.195	0.137
-155.691	105.677	0.069	0.080
-154.677	195.586	-0.078	-0.116
-153.662	137.089	0.038	-0.049
-152.647	398.299	-0.030	0.063
-151.633	-21.927	0.194	0.116
-150.618	14.314	0.177	0.136
-149.604	400.700	-0.177	0.366
-148.589	76.912	0.191	0.199
-147.574	-27.907	-0.086	-0.049
-146.560	-22.792	-0.216	0.128
-145.545	-7.648	-0.032	-0.021
-144.531	561.473	0.037	-0.089
-143.516	145.396	-0.339	0.446
-142.502	205.795	0.222	-0.339
-141.487	-200.000	0.046	0.234
-140.472	35.411	-0.162	0.140
-139.458	-200.000	0.034	-0.349
-138.443	-200.000	-0.016	-0.140
-137.429	-88.272	-0.232	0.068
-136.414	-11.681	-0.030	0.019
-135.399	-55.720	0.314	-0.138
-134.385	22.766	0.059	-0.048
-133.370	800.000	0.100	0.353
-132.356	800.000	-0.063	-0.200
-131.341	-120.513	0.066	0.011
-130.326	800.000	-0.102	0.404
-129.312	800.000	-0.157	0.480
-128.297	95.149	0.071	0.079
-127.283	-108.593	-0.033	-0.007
-126.268	800.000	0.052	0.146
-125.253	-41.784	-0.263	-0.133
-124.239	117.864	0.127	-0.154
-123.224	49.019	0.047	-0.044
-122.210	53.771	0.049	-0.046
-121.195	800.000	0.064	-0.270
-120.180	-89.714	0.268	-0.077
-119.166	-90.981	0.344	0.097
-118.151	-71.969	-0.147	0.054
-117.137	-51.000	0.094	0.043
-116.122	61.942	0.103	-0.101
-115.107	-153.684	-0.218	-0.015
-114.093	-200.000	-0.037	0.403
-113.078	-45.998	-0.219	0.106
-112.064	40.487	-0.124	-0.110
-111.049	-148.480	-0.328	0.026
-110.034	-101.802	0.252	-0.060
-109.020	161.850	0.092	-0.126
-108.005	-110.308	-0.266	0.054
-106.991	8.308	-0.352	0.260
-105.976	-200.000	-0.030	-0.309
-104.962	-200.000	0.003	-0.338
-103.947	43.118	0.203	0.182
-102.932	-200.000	-0.022	0.254
-101.918	-18.506	0.238	0.146
-100.903	-13.401	0.217	-0.138
-99.889	-48.272	-0.171	0.081
-98.874	-200.000	-0.029	0.235
-97.859	-200.000	0.030	0.325
-96.845	-200.000	0.051	0.229
-95.830	-81.316	0.469	0.152
-94.816	-72.324	-0.105	-0.038
-93.801	-72.273	0.183	0.067
-92.786	-200.000	0.084	0.494
-91.772	296.319	0.034	0.060
-90.757	-200.000	-0.012	-0.124
-89.743	1.230	-0.418	0.295
-88.728	92.906	0.031	-0.034
-87.713	-200.000	-0.035	0.182
-86.699	389.727	0.017	0.035
-85.684	728.290	0.158	-0.413
-84.670	50.881	0.028	0.026
-83.655	410.688	0.074	-0.154
-82.640	-86.445	0.281	-0.085
-81.626	160.739	0.058	-0.080
-80.611	296.025	-0.115	-0.206
-79.597	-18.873	-0.119	0.072
-78.582	-142.341	0.174	-0.017
-77.567	194.162	-0.179	-0.266
-76.553	-200.000	-0.012	-0.279
-75.538	-93.035	0.220	-0.060
-74.524	-99.669	0.184	0.045
-73.509	144.809	0.073	-0.095
-72.494	350.916	0.070	-0.136
-71.480	-133.002	-0.222	-0.028
-70.465	-123.304	0.123	-0.019
-69.451	522.380	0.107	0.246
-68.436	46.920	-0.200	-0.183
-67.422	316.844	-0.025	0.047
-66.407	511.849	-0.104	0.237
-65.392	159.570	-0.044	0.060
-64.378	-111.875	0.243	0.048
-63.363	-55.145	0.193	0.085
-62.349	800.000	0.052	0.159
-61.334	137.786	-0.739	-0.949
-60.319	481.652	0.237	0.527
-59.305	-200.000	-0.254	-1.138
-58.290	75.190	1.034	1.069
-57.276	800.000	0.380	1.548
-56.261	-200.000	104.303	605.300
-55.246	502.640	1495.073	3385.589
-54.232	177.530	2692.724	3843.765
-53.217	113.059	2165.965	2572.618
-52.203	41.911	1598.019	1419.967
-51.188	33.182	1330.945	1130.702
-50.173	30.146	1289.129	1077.523
-49.159	54.013	1342.661	1264.488
-48.144	54.901	1358.951	1285.041
-47.130	33.390	1314.077	1117.421
-46.115	29.903	1296.278	1081.901
-45.100	29.817	1291.097	1077.034
-44.086	29.729	1288.614	1074.410
-43.071	29.613	1286.902	1072.270
-42.057	29.637	1284.097	1070.025
-41.042	29.623	1282.593	1068.649
-40.027	29.625	1281.558	1067.760
-39.013	29.692	1279.477	1066.365
-37.998	29.659	1277.720	1064.668
-36.984	29.652	1276.146	1063.279
-35.969	29.858	1274.175	1062.776
-34.954	29.758	1272.485	1060.753
-33.940	29.815	1271.206	1059.970
-32.925	29.698	1270.059	1058.298
-31.911	29.910	1268.228	1057.942
-30.896	29.789	1267.030	1056.212
-29.881	29.879	1265.672	1055.554
-28.867	29.941	1264.092	1054.548
-27.852	29.943	1262.505	1053.190
-26.838	29.787	1261.237	1051.203
-25.823	29.831	1260.393	1050.707
-24.809	29.799	1259.051	1049.367
-23.794	29.798	1257.748	1048.237
-22.779	29.791	1256.402	1047.029
-21.765	29.822	1254.751	1045.789
-20.750	29.861	1253.462	1044.892
-19.736	29.680	1252.444	1042.979
-18.721	29.732	1251.522	1042.466
-17.706	29.717	1250.015	1041.084
-16.692	29.701	1249.088	1040.180
-15.677	29.784	1247.638	1039.401
-14.663	29.768	1246.825	1038.592
-13.648	29.615	1246.116	1037.098
-12.633	29.696	1244.958	1036.550
-11.619	29.746	1243.789	1035.818
-10.604	29.663	1243.124	1034.754
-9.590	29.699	1242.125	1034.085
-8.575	29.655	1241.482	1033.262
-7.560	29.676	1240.583	1032.589
-6.546	29.658	1239.774	1031.777
-5.531	29.664	1238.886	1031.028
-4.517	29.728	1237.581	1030.259
-3.502	29.780	1236.889	1029.931
-2.487	29.651	1236.150	1028.555
-1.473	29.708	1232.281	1025.614
-0.458	28.489	1218.074	1007.059
0.556	22.921	1200.844	971.586
1.571	19.495	1206.236	956.900
2.586	18.873	1220.505	964.644
3.600	18.539	1210.098	954.473
4.615	13.921	1139.244	874.254
5.629	4.868	1064.432	772.064
6.644	0.209	1043.688	734.274
7.659	-0.167	1041.152	730.594
8.673	-0.310	1039.546	728.709
9.688	-0.321	1038.704	728.002
10.702	0.267	1037.083	729.648
11.717	6.365	1045.532	765.235
12.731	15.371	1058.594	818.867
13.746	19.947	1063.548	845.018
14.761	20.875	1065.108	850.714
15.775	20.989	1064.586	850.778
16.790	20.736	1063.677	848.743
17.804	20.739	1063.196	848.301
18.819	20.736	1062.900	847.974
19.834	20.891	1062.461	848.305
20.848	20.842	1062.291	847.854
21.863	20.966	1061.330	847.614
22.877	20.935	1060.341	846.597
23.892	20.850	1059.720	845.618
24.907	20.867	1059.006	845.054
25.921	20.887	1058.179	844.414
26.936	20.890	1056.891	843.326
27.950	20.931	1054.830	841.809
28.965	20.737	1052.943	839.290
29.980	20.766	1051.911	838.535
30.994	21.074	1050.741	839.007
32.009	20.998	1049.371	837.478
33.023	20.747	1048.500	835.501
34.038	20.808	1047.551	834.964
35.053	20.867	1046.991	834.727
36.067	20.903	1046.744	834.629
37.082	21.052	1045.377	834.175
38.096	21.114	1044.991	834.091
39.111	21.138	1044.457	833.708
40.126	20.984	1042.929	831.676
41.140	20.763	1040.639	828.728
42.155	20.671	1039.129	827.012
43.169	20.521	1039.240	826.315
44.184	20.568	1037.977	825.463
45.199	20.480	1036.889	824.108
46.213	20.545	1035.574	823.294
47.228	20.694	1034.741	823.267
48.242	20.714	1033.955	822.664
49.257	20.725	1033.591	822.351
50.271	20.990	1032.805	822.905
51.286	20.983	1032.012	822.168
52.301	20.971	1031.214	821.400
53.315	20.854	1030.197	819.970
54.330	20.830	1029.459	819.196
55.344	20.803	1028.756	818.435
56.359	20.892	1027.339	817.656
57.374	20.625	1026.653	815.785
58.388	20.700	1025.995	815.539
59.403	20.547	1025.147	814.080
60.417	20.505	1024.067	812.952
61.432	20.664	1023.504	813.175
62.447	20.756	1022.776	812.955
63.461	20.806	1022.122	812.596
64.476	20.619	1021.125	810.861
65.490	20.609	1020.038	809.880
66.505	20.732	1018.846	809.435
67.520	20.712	1018.591	809.065
68.534	20.454	1017.404	806.854
69.549	20.218	1016.364	804.862
70.563	20.290	1015.463	804.410
71.578	20.249	1014.791	803.618
72.593	20.056	1014.033	802.053
73.607	20.305	1013.365	802.607
74.622	20.588	1013.066	803.604
75.636	20.634	1011.746	802.700
76.651	20.391	1011.330	801.179
77.666	20.298	1010.598	800.100
78.680	20.270	1010.182	799.567
79.695	20.436	1009.182	799.470
80.709	20.450	1008.755	799.127
81.724	20.469	1007.842	798.419
82.739	20.549	1006.714	797.822
83.753	20.879	1006.255	798.902
84.768	21.104	1004.949	798.825
85.782	21.104	1004.281	798.223
86.797	21.061	1003.739	797.525
87.812	21.000	1002.332	796.056
88.826	21.098	1001.396	795.693
89.841	21.119	1000.832	795.268
90.855	21.197	999.856	794.775
91.870	21.061	998.912	793.337
92.884	21.043	997.479	792.050
93.899	20.957	996.831	791.075
94.914	21.082	995.629	790.615
95.928	21.009	994.439	789.273
96.943	20.654	993.368	786.747
97.957	20.570	992.151	785.331
98.972	20.330	991.470	783.641
99.987	20.753	990.441	784.666
101.001	20.714	989.616	783.768
102.016	20.842	988.809	783.635
103.030	20.653	987.768	781.891
104.045	20.434	987.249	780.425
105.060	20.479	986.043	779.608
106.074	20.672	985.608	780.058
107.089	20.965	985.122	780.917
108.103	20.751	984.243	779.193
109.118	20.546	982.491	776.821
110.133	20.680	981.179	776.313
111.147	20.343	980.406	774.129
112.162	20.444	978.835	773.272
113.176	20.575	978.785	773.747
114.191	20.518	977.539	772.442
115.206	20.100	976.581	769.760
116.220	20.149	975.951	769.413
117.235	20.429	974.478	769.422
118.249	20.265	973.962	768.220
119.264	20.293	973.304	767.758
120.279	20.315	972.105	766.841
121.293	20.429	971.405	766.726
122.308	20.445	970.322	765.874
123.322	20.337	969.507	764.687
124.337	20.203	967.684	762.592
125.352	19.758	966.131	759.345
126.366	19.567	965.631	758.048
127.381	20.417	965.325	761.467
128.395	20.868	964.661	762.853
129.410	20.933	963.713	762.321
130.424	20.797	962.681	760.841
131.439	20.816	962.054	760.360
132.454	20.822	961.161	759.614
133.468	20.802	960.150	758.662
134.483	20.896	959.440	758.441
135.497	21.057	958.711	758.502
136.512	21.062	957.933	757.838
137.527	21.077	956.805	756.946
138.541	21.082	956.449	756.617
139.556	21.028	955.334	755.435
140.570	21.103	954.903	755.350
141.585	21.092	954.130	754.628
142.600	21.025	952.753	753.180
143.614	21.193	952.491	753.632
144.629	21.373	951.313	753.408
145.643	21.196	950.042	751.577
146.658	21.002	948.863	749.742
147.673	21.067	947.871	749.171
148.687	20.908	946.771	747.551
149.702	20.873	946.016	746.738
150.716	20.874	944.820	745.736
151.731	20.922	944.379	745.526
152.746	21.231	943.582	746.149
153.760	21.486	942.477	746.299
154.775	21.310	942.281	745.326
155.789	21.270	941.435	744.420
156.804	21.218	940.052	743.040
157.819	21.172	939.739	742.532
158.833	21.442	938.874	742.928
159.848	21.326	937.953	741.644
160.862	21.134	936.818	739.867
161.877	21.192	936.234	739.586
162.892	21.248	934.762	738.595
163.906	21.258	933.845	737.847
164.921	21.088	933.757	736.992
165.935	21.231	932.566	736.591
166.950	21.130	931.557	735.305
167.964	21.291	930.557	735.125
168.979	21.132	929.405	733.485
169.994	20.991	928.762	732.321
171.008	21.325	927.939	733.006
172.023	21.300	927.185	732.240
173.037	20.925	925.871	729.570
174.052	20.939	925.182	729.019
175.067	20.870	924.522	728.146
176.081	21.033	923.942	728.309
177.096	21.150	923.073	728.047
178.110	20.799	922.503	726.067
179.125	20.583	921.700	724.472
180.140	20.723	921.411	724.765
181.154	20.767	921.102	724.639
182.169	21.044	921.126	725.746
183.183	21.368	919.980	726.125
184.198	21.181	919.351	724.792
185.213	21.060	919.115	724.039
186.227	21.159	918.200	723.662
187.242	21.129	917.451	722.884
188.256	21.304	916.736	722.981
189.271	21.307	915.675	722.093
190.286	21.035	914.444	719.938
191.300	20.436	913.186	716.412
192.315	19.699	911.820	712.241
193.329	19.781	911.349	712.150
194.344	20.656	911.728	715.984
195.359	21.105	911.458	717.554
196.373	21.242	910.882	717.601
197.388	20.938	910.493	715.981
198.402	21.034	909.935	715.875
199.417	21.125	909.117	715.542
200.432	20.746	907.971	713.024
201.446	20.638	907.349	712.031
202.461	20.708	906.642	711.699
203.475	19.733	905.009	706.369
204.490	19.148	903.903	703.059
205.504	20.010	904.539	707.008
206.519	20.675	903.797	709.079
207.534	20.917	903.737	709.956
208.548	21.319	903.364	711.235
209.563	20.923	902.429	708.828
210.577	20.880	902.135	708.359
211.592	21.240	901.898	709.572
212.607	21.195	900.959	708.589
213.621	21.217	900.202	708.021
214.636	21.384	899.409	708.010
215.650	21.167	898.901	706.667
216.665	21.547	898.132	707.538
217.680	21.284	897.173	705.657
218.694	20.970	895.797	703.247
219.709	20.733	895.157	701.726
220.723	21.032	894.970	702.721
221.738	21.236	893.825	702.582
222.753	20.991	893.865	701.566
223.767	21.219	893.517	702.148
224.782	21.465	892.806	702.513
225.796	21.362	892.128	701.505
226.811	20.687	891.037	697.879
227.826	20.263	889.442	694.871
228.840	20.453	889.288	695.451
229.855	20.463	888.473	694.790
230.869	20.024	887.231	692.006
231.884	20.598	887.132	694.159
232.899	21.057	887.670	696.351
233.913	21.094	886.735	695.702
234.928	21.145	886.292	695.497
235.942	21.004	885.694	694.407
236.957	20.744	884.477	692.357
237.972	20.665	884.244	691.798
238.986	20.763	884.118	692.029
240.001	20.954	883.010	691.855
241.015	20.923	882.763	691.481
242.030	21.053	882.267	691.543
243.045	21.017	881.933	691.080
244.059	21.352	881.273	691.828
245.074	21.026	880.311	689.720
246.088	20.762	879.429	687.926
247.103	21.143	878.447	688.600
248.117	21.691	878.781	690.964
249.132	21.655	878.430	690.486
250.147	21.714	877.633	690.029
251.161	21.941	877.387	690.668
252.176	21.883	876.549	689.721
253.190	22.030	875.958	689.770
254.205	22.132	875.427	689.691
255.220	22.068	874.565	688.699
256.234	21.903	874.112	687.635
257.249	21.830	873.680	686.949
258.263	21.907	872.462	686.234
259.278	21.871	872.068	685.723
260.293	21.970	871.507	685.606
261.307	21.979	870.567	684.841
262.322	21.606	870.008	682.889
263.336	20.927	868.416	678.933
264.351	19.879	866.370	673.196
265.366	20.051	865.841	673.397
266.380	21.225	866.690	678.560
267.395	21.525	866.343	679.395
268.409	21.558	865.219	678.582
269.424	21.779	865.142	679.316
270.439	21.724	864.736	678.725
271.453	22.054	863.410	678.900
272.468	21.922	864.144	678.907
273.482	22.073	863.316	678.779
274.497	21.591	862.326	676.080
275.512	21.272	861.232	673.932
276.526	21.631	861.354	675.353
277.541	21.860	860.620	675.599
278.555	21.732	859.478	674.153
279.570	21.542	858.808	672.834
280.585	21.723	858.176	672.977
281.599	21.635	857.615	672.140
282.614	21.269	855.752	669.218
283.628	21.145	855.881	668.784
284.643	21.379	855.655	669.444
285.657	21.092	854.390	667.299
286.672	20.842	853.861	665.871
287.687	21.361	853.918	667.840
288.701	21.361	853.291	667.290
289.716	21.137	851.731	665.159
290.730	20.999	851.359	664.282
291.745	20.684	850.850	662.627
292.760	21.131	850.612	664.086
293.774	22.062	851.259	668.075
294.789	22.332	850.825	668.701
295.803	22.305	850.364	668.175
296.818	22.290	849.516	667.396
297.833	22.041	847.925	665.144
298.847	21.863	847.663	664.205
299.862	22.253	847.265	665.309
300.876	22.343	847.050	665.421
301.891	22.211	846.239	664.226
302.906	21.857	845.198	662.016
303.920	21.937	844.635	661.816
304.935	22.259	844.933	663.209
305.949	22.252	843.978	662.371
306.964	21.922	843.793	660.923
307.979	22.021	843.341	660.887
308.993	22.447	842.786	661.995
310.008	22.378	842.377	661.355
311.022	22.210	841.293	659.816
312.037	21.963	841.106	658.683
313.052	21.748	840.192	657.102
314.066	20.923	838.504	652.637
315.081	20.597	837.982	650.951
316.095	21.656	838.425	655.203
317.110	22.102	837.742	656.279
318.125	21.218	836.289	651.784
319.139	20.168	834.690	646.565
320.154	20.241	834.395	646.553
321.168	21.266	834.672	650.530
322.183	21.823	834.602	652.492
323.197	21.909	834.522	652.691
324.212	22.183	834.391	653.549
325.227	22.101	833.391	652.402
326.241	21.913	833.179	651.481
327.256	22.013	832.388	651.175
328.270	21.776	831.801	649.779
329.285	21.638	830.745	648.388
330.300	21.451	830.178	647.195
331.314	21.674	829.898	647.744
332.329	22.046	829.766	648.959
333.343	22.280	829.097	649.241
334.358	22.163	828.933	648.625
335.373	22.320	828.496	648.806
336.387	22.545	828.563	649.630
337.402	22.646	828.298	649.737
338.416	22.541	827.972	649.035
339.431	22.777	827.235	649.269
340.446	22.723	827.049	648.865
341.460	22.602	826.588	648.004
342.475	22.466	826.083	647.052
343.489	22.562	825.775	647.103
344.504	22.777	826.044	648.046
345.519	22.884	825.708	648.120
346.533	23.041	824.858	647.972
347.548	23.036	824.120	647.316
348.562	22.916	823.632	646.435
349.577	22.983	822.799	645.970
350.592	22.981	822.341	645.544
351.606	22.925	821.657	644.748
352.621	22.795	821.040	643.732
353.635	22.730	820.064	642.671
354.650	22.144	818.811	639.501
355.665	21.089	817.149	634.316
356.679	21.513	816.698	635.450
357.694	21.921	816.692	636.867
358.708	22.040	815.915	636.637
359.723	22.332	815.948	637.664
360.738	22.644	815.596	638.465
361.752	22.739	814.988	638.275
362.767	23.061	814.305	638.848
363.781	23.438	813.849	639.792
364.796	23.419	814.005	639.791
365.810	23.187	813.745	638.692
366.825	23.306	813.077	638.540
367.840	23.069	812.281	637.006
368.854	22.654	811.405	634.768
369.869	22.770	811.251	635.010
370.883	22.715	810.477	634.149
371.898	22.505	810.408	633.287
372.913	22.551	810.381	633.372
373.927	22.764	809.673	633.530
374.942	22.849	809.313	633.497
375.956	23.011	809.119	633.870
376.971	23.088	808.623	633.700
377.986	23.259	808.240	633.956
379.000	23.262	807.643	633.441
380.015	23.083	806.940	632.196
381.029	23.200	806.056	631.865
382.044	23.251	805.458	631.522
383.059	23.187	805.313	631.124
384.073	23.442	804.618	631.431
385.088	23.220	804.021	630.116
386.102	23.176	803.288	629.333
387.117	23.106	802.687	628.556
388.132	22.726	801.660	626.347
389.146	22.268	800.601	623.841
390.161	22.671	800.813	625.380
391.175	23.097	800.734	626.774
392.190	22.639	799.507	624.135
393.205	21.389	797.177	617.848
394.219	19.970	795.771	611.692
395.234	19.956	795.954	611.732
396.248	21.702	797.143	618.764
397.263	23.071	797.412	623.747
398.278	22.796	797.405	622.720
399.292	22.583	796.633	621.308
400.307	22.576	796.395	621.045
401.321	22.665	795.791	620.831
402.336	23.016	796.229	622.355
403.350	23.449	795.755	623.454
404.365	23.747	795.441	624.197
405.380	23.921	795.258	624.610
406.394	23.999	794.884	624.536
407.409	23.985	793.886	623.648
408.423	23.760	794.069	622.945
409.438	23.980	793.494	623.212
410.453	24.031	793.047	622.982
411.467	23.842	792.511	621.845
412.482	24.017	791.963	621.972
413.496	24.027	791.604	621.670
414.511	23.968	791.602	621.409
415.526	24.012	790.967	621.006
416.540	23.906	789.821	619.683
417.555	23.661	789.493	618.519
418.569	23.639	789.227	618.178
419.584	23.653	788.353	617.489
420.599	23.523	788.049	616.743
421.613	157.289	1365.601	1797.131
422.628	136.118	1449.718	1797.220
