DTS Sentinel unit serial number:	SN413079Multiplexer serial number:	ORYXHardware model number:	OX4-SRSoftware version number:	ORYX F/W v4.00 Oryx Data Collector v3.7.2.0data status	okinstallation	princeton_trtdifferential loss correction	single-endedforward channel	channel 1reverse channel	N/Adate	2019/09/11time	08:56:12forward acquisition time	60.00reverse acquisition time	0.00gamma	496.2192k internal	0.2310k external	0.2310temperature offset calibration	0.9951default loss term (dB/km)	0.3790temperature slope calibration	1.0000multiplexer offset coefficient	1.0000multiplexer slope coefficient	1.0000fibre end	0.00T internal ref (°C)	34.00T ext. ref 1 (°C)	0.08T ext. ref 2 (°C)	30.47length (m)	temperature (°C)	Stokes	anti-Stokes-747.200	-200.000	0.027	0.164
-746.185	258.431	0.074	0.129
-745.171	25.227	0.249	0.210
-744.156	-136.903	-0.027	-0.003
-743.142	50.528	0.156	-0.150
-742.127	-200.000	0.082	0.367
-741.112	-8.579	0.301	0.205
-740.098	-200.000	-0.028	0.257
-739.083	-38.632	-0.302	-0.162
-738.069	318.147	-0.096	-0.185
-737.054	-41.512	-0.014	0.007
-736.039	48.248	-0.115	0.109
-735.025	-47.654	-0.108	0.053
-734.010	-147.236	0.035	-0.003
-732.996	-139.811	0.103	-0.011
-731.981	-48.868	0.145	-0.070
-730.966	205.958	0.076	0.120
-729.952	-200.000	0.002	-0.252
-728.937	800.000	0.038	-0.139
-727.923	-182.939	-0.337	-0.006
-726.908	-65.879	-0.111	-0.045
-725.894	565.534	-0.047	-0.114
-724.879	-130.972	-0.550	-0.075
-723.864	-34.771	-0.342	0.189
-722.850	-23.010	0.207	-0.127
-721.835	-200.000	-0.057	0.442
-720.821	-17.660	-0.090	-0.058
-719.806	-80.369	-0.150	0.051
-718.791	216.892	-0.087	-0.140
-717.777	588.246	-0.035	-0.087
-716.762	-2.296	0.189	0.135
-715.748	427.678	0.079	0.173
-714.733	-120.408	-0.224	0.039
-713.718	-200.000	-0.020	0.354
-712.704	-81.067	-0.079	0.027
-711.689	-200.000	0.023	-0.194
-710.675	89.978	-0.054	-0.061
-709.660	478.426	0.066	-0.152
-708.645	123.877	-0.111	0.142
-707.631	227.697	0.095	0.156
-706.616	-72.483	0.231	-0.087
-705.602	-63.304	-0.189	-0.079
-704.587	-137.997	0.290	-0.033
-703.572	-32.611	-0.186	0.105
-702.558	-3.205	-0.113	-0.080
-701.543	-129.320	0.214	-0.030
-700.529	-155.677	-0.259	0.017
-699.514	90.813	-0.068	0.077
-698.499	59.825	0.083	-0.083
-697.485	800.000	-0.049	0.182
-696.470	-44.162	-0.139	0.071
-695.456	-37.250	-0.329	0.179
-694.441	85.682	-0.382	0.426
-693.426	447.855	0.045	0.101
-692.412	-170.398	0.086	-0.003
-691.397	193.750	-0.136	-0.208
-690.383	162.987	0.191	-0.271
-689.368	-200.000	-0.003	-0.311
-688.354	-77.959	0.128	-0.045
-687.339	321.189	0.286	-0.551
-686.324	-89.839	-0.290	-0.086
-685.310	-78.943	0.078	-0.027
-684.295	37.531	-0.040	-0.036
-683.281	52.216	0.208	0.201
-682.266	-200.000	-0.008	-0.121
-681.251	-200.000	-0.029	0.360
-680.237	20.511	0.199	0.163
-679.222	70.839	-0.031	0.033
-678.208	-200.000	-0.021	0.179
-677.193	-76.112	0.153	-0.055
-676.178	58.341	-0.074	0.074
-675.164	71.236	-0.275	0.288
-674.149	-91.734	0.064	0.018
-673.135	-52.433	0.028	-0.013
-672.120	10.666	-0.187	0.145
-671.105	484.897	-0.032	0.074
-670.091	-200.000	0.015	-0.407
-669.076	179.944	0.180	-0.267
-668.062	121.506	0.215	0.272
-667.047	106.140	0.169	-0.203
-666.032	-80.598	0.018	-0.006
-665.018	63.305	-0.137	-0.139
-664.003	-200.000	-0.015	0.088
-662.989	-4.273	-0.091	0.064
-661.974	596.783	-0.171	-0.428
-660.959	260.391	0.115	0.202
-659.945	244.891	0.095	-0.161
-658.930	800.000	-0.107	0.351
-657.916	111.771	0.174	-0.212
-656.901	21.065	0.097	0.080
-655.886	800.000	-0.105	0.355
-654.872	-131.541	-0.203	0.027
-653.857	-85.136	0.165	-0.052
-652.843	-103.173	-0.344	-0.082
-651.828	-90.405	-0.228	0.067
-650.814	-75.932	0.107	0.038
-649.799	49.497	-0.088	-0.084
-648.784	-122.109	-0.354	-0.059
-647.770	-200.000	0.079	0.533
-646.755	135.663	-0.047	0.061
-645.741	563.724	-0.111	0.273
-644.726	-108.382	-0.215	-0.047
-643.711	-105.821	-0.120	0.027
-642.697	-36.301	-0.260	0.142
-641.682	144.095	-0.203	0.274
-640.668	-50.735	-0.034	-0.016
-639.653	366.800	0.063	0.129
-638.638	-200.000	0.032	0.297
-637.624	800.000	-0.028	-0.091
-636.609	-176.741	-0.148	0.004
-635.595	-181.900	-0.012	0.000
-634.580	-69.962	-0.053	0.020
-633.565	800.000	-0.069	-0.208
-632.551	-1.444	-0.132	-0.094
-631.536	129.907	-0.262	-0.339
-630.522	133.325	-0.156	-0.204
-629.507	730.359	-0.066	0.178
-628.492	-120.808	-0.264	0.045
-627.478	-58.950	0.265	-0.116
-626.463	-93.890	0.257	-0.072
-625.449	134.902	-0.218	-0.286
-624.434	-200.000	0.005	-0.044
-623.419	26.831	-0.061	-0.051
-622.405	-13.030	0.096	-0.063
-621.390	295.930	-0.163	-0.302
-620.376	-96.443	-0.249	-0.067
-619.361	800.000	-0.014	0.041
-618.346	647.110	-0.102	-0.264
-617.332	-168.373	0.170	0.007
-616.317	-28.890	0.169	0.098
-615.303	49.516	-0.116	0.111
-614.288	-36.108	-0.354	-0.193
-613.273	105.289	-0.139	-0.166
-612.259	187.912	0.108	0.162
-611.244	-200.000	0.012	0.079
-610.230	8.530	0.234	-0.178
-609.215	-38.241	0.283	-0.152
-608.201	-200.000	0.004	-0.121
-607.186	-165.621	0.035	-0.002
-606.171	-200.000	-0.013	-0.253
-605.157	55.570	-0.070	0.069
-604.142	-33.756	-0.133	-0.074
-603.128	-55.696	-0.335	-0.151
-602.113	800.000	0.066	0.214
-601.098	15.668	0.175	0.139
-600.084	753.065	0.047	-0.129
-599.069	-25.154	-0.167	0.100
-598.055	-30.926	-0.262	0.149
-597.040	77.012	-0.298	-0.320
-596.025	-63.878	0.039	-0.016
-595.011	11.900	-0.157	-0.122
-593.996	663.745	-0.078	0.202
-592.982	24.531	0.046	-0.039
-591.967	800.000	0.062	0.258
-590.952	3.530	0.336	0.247
-589.938	-97.157	-0.158	0.042
-588.923	800.000	0.034	-0.116
-587.909	-200.000	-0.009	-0.084
-586.894	508.383	-0.063	-0.147
-585.879	-200.000	-0.032	0.307
-584.865	296.638	0.136	0.252
-583.850	-100.045	0.391	0.098
-582.836	66.072	-0.165	-0.169
-581.821	398.702	0.078	-0.165
-580.806	45.532	0.136	0.127
-579.792	415.054	0.040	-0.086
-578.777	29.529	-0.101	0.086
-577.763	-155.608	-0.195	-0.013
-576.748	800.000	0.019	-0.073
-575.733	-200.000	0.010	-0.270
-574.719	-141.766	0.121	-0.012
-573.704	25.968	-0.225	0.189
-572.690	-200.000	-0.051	-0.288
-571.675	-30.704	-0.167	-0.095
-570.661	48.249	0.073	-0.069
-569.646	149.821	-0.118	-0.162
-568.631	800.000	0.065	0.220
-567.617	-165.876	-0.500	0.022
-566.602	90.176	-0.165	-0.186
-565.588	102.331	-0.076	-0.090
-564.573	184.192	0.139	-0.207
-563.558	-86.705	-0.202	0.062
-562.544	-13.054	-0.167	-0.110
-561.529	-131.827	-0.270	-0.036
-560.515	314.184	-0.083	0.158
-559.500	60.458	-0.171	-0.171
-558.485	-69.936	0.111	-0.043
-557.471	495.141	-0.041	0.096
-556.456	221.331	0.023	-0.037
-555.442	501.347	-0.146	0.339
-554.427	-114.883	-0.357	-0.068
-553.412	226.131	0.179	-0.293
-552.398	1.326	0.153	-0.111
-551.383	-53.765	0.256	0.118
-550.369	-200.000	-0.187	0.001
-549.354	-200.000	0.003	0.124
-548.339	-146.269	0.369	0.033
-547.325	-200.000	-0.007	-0.143
-546.310	800.000	0.069	-0.281
-545.296	-113.174	0.285	-0.057
-544.281	-38.365	0.260	-0.139
-543.266	800.000	-0.033	0.106
-542.252	-155.289	0.051	-0.003
-541.237	-47.562	-0.290	0.142
-540.223	-162.910	-0.141	0.007
-539.208	-200.000	-0.021	-0.323
-538.193	85.989	0.211	-0.234
-537.179	-200.000	0.044	0.215
-536.164	73.916	0.177	-0.187
-535.150	-117.878	-0.205	0.037
-534.135	343.371	-0.107	-0.212
-533.121	-200.000	0.096	-0.432
-532.106	-200.000	0.007	0.397
-531.091	-200.000	-0.014	0.136
-530.077	-12.618	0.049	-0.032
-529.062	800.000	-0.036	0.148
-528.048	800.000	0.018	0.066
-527.033	-200.000	0.012	-0.130
-526.018	131.549	-0.080	-0.104
-525.004	362.770	-0.051	-0.102
-523.989	-147.462	-0.229	-0.020
-522.975	800.000	0.050	-0.139
-521.960	-200.000	0.008	-0.078
-520.945	222.582	0.088	-0.142
-519.931	231.653	-0.091	-0.151
-518.916	122.273	0.112	-0.141
-517.902	-88.519	-0.090	0.027
-516.887	-200.000	0.024	0.142
-515.872	262.059	0.034	-0.059
-514.858	-200.000	0.003	-0.108
-513.843	-52.981	0.144	0.067
-512.829	-130.387	0.074	0.010
-511.814	-75.803	-0.084	0.030
-510.799	800.000	-0.026	-0.080
-509.785	257.675	-0.081	0.141
-508.770	-200.000	-0.019	-0.163
-507.756	-200.000	0.000	0.220
-506.741	800.000	-0.040	0.118
-505.726	452.892	-0.106	-0.237
-504.712	800.000	0.011	0.032
-503.697	7.927	0.111	-0.084
-502.683	34.326	-0.155	-0.136
-501.668	-200.000	0.038	0.255
-500.653	75.926	-0.411	0.437
-499.639	124.898	0.124	-0.157
-498.624	365.598	0.153	-0.309
-497.610	-59.795	0.165	0.071
-496.595	384.758	-0.152	-0.315
-495.581	399.462	0.149	0.314
-494.566	-200.000	0.013	0.061
-493.551	-21.669	-0.166	-0.101
-492.537	-200.000	-0.037	-0.195
-491.522	41.107	-0.087	-0.079
-490.508	85.050	-0.142	0.157
-489.493	800.000	0.107	0.368
-488.478	236.222	-0.112	-0.186
-487.464	-135.196	0.105	-0.013
-486.449	289.239	0.102	0.185
-485.435	-90.135	-0.137	0.040
-484.420	-99.906	-0.305	0.077
-483.405	-54.541	-0.323	0.147
-482.391	800.000	0.016	-0.046
-481.376	-200.000	-0.031	-0.210
-480.362	800.000	-0.081	-0.311
-479.347	-15.039	0.095	-0.061
-478.332	-200.000	-0.114	0.001
-477.318	-77.433	0.332	-0.116
-476.303	800.000	-0.040	-0.114
-475.289	15.444	-0.179	-0.141
-474.274	14.253	0.294	0.230
-473.259	-140.297	0.327	0.034
-472.245	146.263	0.080	-0.108
-471.230	-200.000	-0.002	0.153
-470.216	67.429	-0.242	0.248
-469.201	679.746	-0.093	0.242
-468.186	-108.906	-0.121	0.026
-467.172	-44.391	0.399	-0.201
-466.157	-200.000	0.040	0.205
-465.143	354.298	0.056	0.113
-464.128	64.700	0.268	-0.272
-463.113	-84.764	0.223	0.070
-462.099	-200.000	-0.004	-0.295
-461.084	-200.000	0.002	-0.235
-460.070	61.278	0.056	0.056
-459.055	800.000	0.105	-0.362
-458.040	29.322	-0.127	-0.109
-457.026	326.668	0.042	-0.081
-456.011	6.637	-0.082	-0.061
-454.997	800.000	0.028	0.121
-453.982	-35.980	0.138	-0.075
-452.968	-74.605	-0.480	-0.173
-451.953	-32.826	0.259	-0.144
-450.938	3.680	-0.180	0.132
-449.924	-200.000	-0.043	0.378
-448.909	82.493	0.168	-0.183
-447.895	-200.000	0.023	0.311
-446.880	-74.861	0.140	0.050
-445.865	27.872	0.064	0.054
-444.851	-141.880	0.073	-0.007
-443.836	-200.000	0.015	-0.178
-442.822	-200.000	0.003	0.017
-441.807	707.827	-0.119	-0.316
-440.792	-62.451	0.223	-0.093
-439.778	800.000	0.031	-0.087
-438.763	82.993	0.085	-0.093
-437.749	-86.826	0.095	0.029
-436.734	800.000	0.004	-0.016
-435.719	-117.047	0.155	0.028
-434.705	172.785	0.163	-0.235
-433.690	-200.000	0.081	0.481
-432.676	-108.652	-0.173	0.037
-431.661	-142.329	0.102	-0.010
-430.646	77.673	-0.327	0.350
-429.632	18.721	0.045	-0.036
-428.617	520.348	-0.066	0.155
-427.603	74.917	0.022	0.023
-426.588	-58.370	-0.216	0.094
-425.573	15.375	0.141	-0.111
-424.559	104.893	0.032	0.038
-423.544	-129.923	0.320	0.044
-422.530	-0.225	0.060	-0.043
-421.515	643.705	0.071	0.182
-420.500	105.285	-0.059	-0.070
-419.486	94.242	0.055	0.063
-418.471	-200.000	-0.005	0.081
-417.457	-200.000	-0.009	-0.262
-416.442	33.403	-0.050	0.043
-415.428	-200.000	0.033	-0.179
-414.413	0.447	0.078	-0.056
-413.398	-35.574	-0.160	0.087
-412.384	-200.000	0.029	-0.157
-411.369	-200.000	0.006	-0.212
-410.355	231.652	-0.104	0.170
-409.340	34.540	0.154	-0.135
-408.325	800.000	-0.128	-0.453
-407.311	-72.446	-0.125	-0.046
-406.296	-82.993	-0.083	0.027
-405.282	-200.000	0.018	-0.081
-404.267	163.446	0.085	-0.120
-403.252	-47.770	0.093	0.045
-402.238	133.220	-0.161	0.209
-401.223	147.694	-0.148	0.200
-400.209	55.482	-0.223	-0.217
-399.194	79.444	0.044	0.047
-398.179	19.928	-0.163	-0.132
-397.165	229.163	0.041	-0.068
-396.150	540.416	0.064	0.153
-395.136	-63.221	-0.179	-0.074
-394.121	-74.604	-0.008	0.003
-393.106	-73.653	0.328	0.120
-392.092	46.845	-0.415	0.386
-391.077	-15.579	0.117	0.075
-390.063	606.130	-0.112	0.279
-389.048	-69.242	0.353	0.136
-388.033	732.442	0.065	0.174
-387.019	-200.000	-0.026	-0.330
-386.004	-77.391	0.230	-0.080
-384.990	800.000	0.092	-0.262
-383.975	-67.506	0.127	0.050
-382.960	-43.467	-0.197	-0.099
-381.946	39.816	-0.026	-0.023
-380.931	-200.000	-0.002	0.151
-379.917	-43.365	-0.232	0.117
-378.902	-112.397	-0.124	-0.025
-377.888	800.000	0.037	-0.124
-376.873	-39.869	0.304	0.159
-375.858	-110.830	-0.355	0.073
-374.844	258.454	-0.022	-0.038
-373.829	-200.000	-0.030	0.415
-372.815	-35.072	0.194	-0.106
-371.800	-43.765	0.108	-0.054
-370.785	-200.000	0.007	-0.074
-369.771	-66.795	0.236	0.093
-368.756	-200.000	-0.006	-0.095
-367.742	338.258	-0.136	-0.265
-366.727	59.438	-0.183	-0.181
-365.712	-117.634	0.197	0.036
-364.698	89.793	0.117	0.131
-363.683	-24.167	0.091	-0.054
-362.669	-124.081	0.442	0.069
-361.654	-51.737	0.309	0.144
-360.639	800.000	-0.107	0.357
-359.625	-200.000	-0.097	-0.000
-358.610	800.000	-0.062	0.192
-357.596	-155.800	0.180	-0.011
-356.581	-165.334	-0.163	-0.007
-355.566	138.569	0.131	-0.172
-354.552	-46.307	0.187	-0.092
-353.537	34.276	-0.120	-0.105
-352.523	681.094	0.085	-0.223
-351.508	33.717	0.103	-0.090
-350.493	62.800	-0.142	0.142
-349.479	122.660	-0.091	0.114
-348.464	-100.410	-0.269	-0.067
-347.450	-200.000	-0.042	-0.313
-346.435	282.873	0.143	0.256
-345.420	-113.482	0.182	-0.036
-344.406	166.685	-0.129	0.184
-343.391	75.852	-0.252	-0.267
-342.377	-200.000	0.004	-0.046
-341.362	7.054	0.193	-0.144
-340.348	762.265	0.090	-0.244
-339.333	800.000	0.097	0.391
-338.318	-200.000	0.042	0.193
-337.304	512.248	0.067	-0.155
-336.289	-168.418	0.218	-0.008
-335.275	337.814	-0.159	-0.309
-334.260	465.463	0.074	0.165
-333.245	800.000	-0.012	-0.043
-332.231	800.000	-0.022	0.093
-331.216	-38.766	0.316	-0.166
-330.202	14.055	-0.402	-0.312
-329.187	63.308	-0.230	0.230
-328.172	-200.000	-0.058	0.514
-327.158	604.107	0.024	0.059
-326.143	109.353	0.253	-0.303
-325.129	-118.931	-0.072	-0.013
-324.114	414.650	0.181	0.386
-323.099	63.545	-0.215	0.215
-322.085	-93.273	0.292	0.081
-321.070	-19.330	0.402	-0.249
-320.056	-33.299	0.232	-0.128
-319.041	-200.000	-0.012	-0.227
-318.026	244.219	-0.029	0.048
-317.012	-200.000	0.020	-0.124
-315.997	800.000	0.037	0.115
-314.983	800.000	0.063	-0.207
-313.968	-46.107	0.082	0.040
-312.953	127.652	-0.240	-0.304
-311.939	800.000	-0.013	-0.037
-310.924	-200.000	-0.046	-0.454
-309.910	79.500	0.170	0.182
-308.895	-77.751	0.312	-0.108
-307.880	735.187	0.148	0.396
-306.866	96.249	0.251	-0.287
-305.851	-200.000	0.002	0.125
-304.837	-81.189	-0.239	0.079
-303.822	800.000	-0.110	-0.327
-302.807	-81.517	-0.169	0.056
-301.793	-200.000	-0.027	0.176
-300.778	83.236	-0.382	0.415
-299.764	18.774	0.128	0.102
-298.749	-200.000	0.038	0.212
-297.735	60.886	0.230	0.228
-296.720	34.332	-0.129	-0.112
-295.705	-63.503	0.362	-0.148
-294.691	-200.000	0.019	0.279
-293.676	-137.976	0.329	0.037
-292.662	-197.572	-0.181	0.001
-291.647	168.018	0.138	-0.196
-290.632	-165.158	0.123	-0.005
-289.618	-107.295	-0.060	0.013
-288.603	727.396	-0.049	-0.131
-287.589	-200.000	-0.382	-0.001
-286.574	-10.037	0.206	0.136
-285.559	52.720	-0.265	0.253
-284.545	-200.000	0.061	0.298
-283.530	-29.543	0.213	0.122
-282.516	800.000	-0.127	0.379
-281.501	144.950	0.191	-0.254
-280.486	-63.909	0.145	-0.059
-279.472	-200.000	-0.052	-0.348
-278.457	-108.924	-0.121	-0.026
-277.443	318.004	0.027	-0.052
-276.428	800.000	0.026	0.089
-275.413	-44.853	0.322	-0.160
-274.399	-31.261	0.195	-0.110
-273.384	-131.373	-0.249	-0.033
-272.370	108.554	0.173	0.205
-271.355	-178.662	0.203	-0.005
-270.340	-52.442	-0.309	-0.143
-269.326	800.000	-0.090	0.289
-268.311	-5.197	-0.184	0.126
-267.297	28.964	-0.166	-0.140
-266.282	-12.113	0.342	0.223
-265.267	77.977	-0.254	0.270
-264.253	121.431	0.301	0.374
-263.238	-200.000	-0.007	0.176
-262.224	800.000	0.092	-0.383
-261.209	67.329	0.252	0.257
-260.195	166.419	0.314	0.444
-259.180	-78.494	-0.188	0.064
-258.165	-200.000	0.015	0.314
-257.151	12.516	-0.164	0.126
-256.136	-147.679	0.246	0.021
-255.122	-101.898	-0.134	-0.032
-254.107	-101.319	-0.312	-0.076
-253.092	276.934	0.198	0.350
-252.078	646.510	-0.098	0.248
-251.063	406.168	-0.052	0.109
-250.049	114.168	-0.119	-0.144
-249.034	-42.834	-0.270	0.137
-248.019	48.942	-0.218	-0.204
-247.005	-153.102	0.226	-0.016
-245.990	800.000	0.017	0.068
-244.976	-50.957	0.174	0.082
-243.961	82.991	0.019	-0.020
-242.946	302.893	0.185	-0.341
-241.932	34.058	-0.196	-0.170
-240.917	-200.000	-0.006	0.114
-239.903	-123.007	0.159	-0.025
-238.888	137.885	0.214	0.279
-237.873	-65.618	0.391	0.156
-236.859	-42.297	0.427	-0.217
-235.844	-122.954	0.243	0.039
-234.830	-138.378	-0.250	0.027
-233.815	144.309	0.124	-0.165
-232.800	99.793	-0.058	-0.067
-231.786	800.000	0.019	0.081
-230.771	-76.731	-0.429	0.149
-229.757	319.404	0.034	-0.064
-228.742	-200.000	-0.013	-0.179
-227.727	608.773	0.156	-0.386
-226.713	-78.371	-0.335	0.114
-225.698	17.141	-0.161	-0.127
-224.684	-200.000	0.026	-0.283
-223.669	-46.556	0.062	0.030
-222.655	-28.030	-0.212	0.122
-221.640	51.804	-0.205	0.194
-220.625	-116.052	-0.181	-0.033
-219.611	109.283	0.244	0.290
-218.596	800.000	0.011	-0.034
-217.582	8.190	-0.096	0.072
-216.567	570.217	0.103	0.249
-215.552	-78.811	0.114	-0.039
-214.538	800.000	0.104	-0.363
-213.523	-53.746	0.221	-0.100
-212.509	-127.156	-0.129	0.019
-211.494	-192.274	0.181	-0.002
-210.479	-200.000	-0.033	0.176
-209.465	-132.562	0.197	0.025
-208.450	-200.000	0.044	-0.302
-207.436	31.503	0.061	-0.052
-206.421	-200.000	-0.002	0.320
-205.406	766.911	-0.035	0.095
-204.392	12.966	-0.222	0.171
-203.377	-200.000	-0.043	0.230
-202.363	441.857	-0.035	0.077
-201.348	-26.599	-0.081	0.047
-200.333	-151.621	0.215	-0.016
-199.319	115.600	-0.107	-0.129
-198.304	159.329	-0.121	0.167
-197.290	-46.729	-0.305	0.148
-196.275	-200.000	0.023	-0.334
-195.260	214.802	-0.061	0.095
-194.246	-44.481	0.371	0.184
-193.231	11.826	0.247	0.189
-192.217	800.000	0.113	-0.417
-191.202	-3.673	-0.109	-0.075
-190.187	-29.045	0.124	0.070
-189.173	22.178	-0.200	-0.162
-188.158	-59.886	0.143	0.061
-187.144	175.106	0.132	0.189
-186.129	-74.081	-0.296	-0.107
-185.114	-200.000	-0.069	-0.331
-184.100	338.168	-0.086	-0.166
-183.085	-200.000	-0.005	0.211
-182.071	270.076	0.217	-0.378
-181.056	140.586	-0.085	0.112
-180.042	51.080	0.237	0.224
-179.027	324.798	-0.124	0.235
-178.012	800.000	-0.093	-0.300
-176.998	-200.000	0.088	-0.387
-175.983	-120.739	0.161	-0.027
-174.969	132.649	0.101	-0.129
-173.954	152.610	-0.070	-0.095
-172.939	58.908	-0.215	0.210
-171.925	800.000	0.120	0.424
-170.910	-200.000	0.049	0.318
-169.896	800.000	0.076	0.232
-168.881	61.559	-0.005	-0.005
-167.866	-200.000	-0.010	-0.121
-166.852	-86.550	0.106	0.032
-165.837	-200.000	0.016	-0.114
-164.823	663.048	0.050	0.128
-163.808	531.981	0.041	0.096
-162.793	-16.609	-0.104	-0.066
-161.779	-154.313	0.154	-0.010
-160.764	137.849	0.227	0.295
-159.750	80.551	-0.226	0.241
-158.735	40.976	-0.159	0.142
-157.720	-68.105	-0.266	-0.103
-156.706	-1.848	-0.273	0.190
-155.691	264.578	0.159	-0.275
-154.677	290.061	-0.159	-0.286
-153.662	165.514	0.070	-0.099
-152.647	800.000	0.054	0.162
-151.633	106.953	-0.130	0.153
-150.618	800.000	-0.055	0.226
-149.604	353.545	-0.124	-0.244
-148.589	71.931	-0.319	0.329
-147.574	34.580	0.079	-0.069
-146.560	769.814	0.098	0.265
-145.545	-200.000	-0.057	0.277
-144.531	800.000	-0.068	0.272
-143.516	-200.000	0.045	-0.334
-142.502	-54.975	-0.088	-0.039
-141.487	97.068	0.026	-0.029
-140.472	-54.226	-0.153	-0.069
-139.458	-13.871	0.357	-0.229
-138.443	-153.556	-0.047	0.003
-137.429	119.209	0.031	-0.038
-136.414	89.343	-0.059	-0.065
-135.399	-200.000	0.084	-0.387
-134.385	-200.000	-0.033	0.284
-133.370	43.893	-0.039	-0.036
-132.356	72.389	0.082	0.085
-131.341	-47.022	-0.167	0.081
-130.326	2.555	0.148	-0.106
-129.312	20.674	-0.097	0.078
-128.297	178.527	0.161	0.233
-127.283	-78.559	-0.212	0.072
-126.268	800.000	-0.068	-0.202
-125.253	61.022	0.227	0.223
-124.239	561.020	0.103	0.247
-123.224	-85.424	0.130	0.040
-122.210	129.490	0.047	-0.060
-121.195	-131.650	0.421	-0.055
-120.180	-131.804	0.038	-0.005
-119.166	51.402	0.143	0.135
-118.151	68.956	-0.137	0.140
-117.137	-136.838	-0.222	0.025
-116.122	-176.764	0.180	0.005
-115.107	800.000	0.064	-0.189
-114.093	-200.000	-0.018	0.096
-113.078	174.282	0.124	0.178
-112.064	800.000	-0.077	-0.274
-111.049	-124.305	0.079	0.012
-110.034	-22.331	-0.087	-0.052
-109.020	-113.300	-0.055	0.011
-108.005	119.189	0.108	-0.133
-106.991	-96.187	0.183	0.048
-105.976	459.077	0.021	-0.045
-104.962	330.361	0.111	-0.212
-103.947	-46.095	0.294	-0.143
-102.932	200.979	0.191	0.292
-101.918	24.582	-0.187	0.153
-100.903	65.156	-0.051	0.051
-99.889	-60.214	0.053	0.022
-98.874	-131.486	0.192	0.025
-97.859	-123.359	0.357	-0.056
-96.845	-200.000	0.013	0.136
-95.830	-200.000	0.006	-0.059
-94.816	15.599	-0.182	-0.141
-93.801	-200.000	-0.023	0.165
-92.786	376.844	0.122	0.246
-91.772	-156.426	-0.362	0.022
-90.757	-48.172	-0.140	-0.067
-89.743	183.570	-0.139	-0.203
-88.728	365.259	0.254	0.507
-87.713	414.593	0.043	-0.091
-86.699	-189.112	0.393	-0.005
-85.684	278.120	0.027	-0.048
-84.670	479.117	0.091	0.204
-83.655	-74.494	-0.173	-0.062
-82.640	0.195	0.064	-0.045
-81.626	800.000	-0.081	0.252
-80.611	84.759	0.118	-0.128
-79.597	57.738	-0.336	0.326
-78.582	237.635	0.193	0.316
-77.567	-39.789	-0.114	0.059
-76.553	21.387	0.188	0.151
-75.538	-139.933	0.117	-0.012
-74.524	226.578	0.126	0.203
-73.509	-15.382	0.192	-0.121
-72.494	-76.724	0.107	0.037
-71.480	-187.537	-0.085	0.001
-70.465	-200.000	-0.035	0.165
-69.451	263.828	-0.120	0.206
-68.436	-200.000	-0.018	0.223
-67.422	14.388	0.401	0.309
-66.407	154.376	0.156	-0.211
-65.392	-101.767	-0.208	0.050
-64.378	-114.916	0.211	-0.040
-63.363	94.868	-0.059	0.066
-62.349	-200.000	-0.036	0.156
-61.334	68.828	-0.762	-0.773
-60.319	-16.923	0.727	0.454
-59.305	571.367	-0.461	-1.109
-58.290	272.154	0.374	0.651
-57.276	295.145	0.786	1.422
-56.261	-200.000	98.731	561.290
-55.246	594.182	1403.152	3429.424
-54.232	182.226	2637.157	3841.111
-53.217	118.552	2202.135	2686.692
-52.203	45.785	1646.428	1504.435
-51.188	37.608	1378.708	1209.222
-50.173	34.099	1335.934	1150.485
-49.159	55.663	1386.535	1327.425
-48.144	59.467	1403.585	1367.087
-47.130	37.764	1357.412	1191.308
-46.115	34.149	1339.393	1153.583
-45.100	34.123	1334.079	1148.804
-44.086	33.871	1332.179	1145.603
-43.071	33.840	1329.926	1143.435
-42.057	33.811	1327.721	1141.318
-41.042	33.833	1325.936	1139.873
-40.027	33.926	1324.053	1138.764
-39.013	33.966	1322.237	1137.401
-37.998	33.813	1320.801	1135.203
-36.984	34.016	1318.658	1134.527
-35.969	33.977	1316.792	1132.643
-34.954	34.032	1315.155	1131.522
-33.940	33.913	1313.902	1129.686
-32.925	34.083	1312.437	1129.395
-31.911	34.141	1310.899	1128.371
-30.896	34.086	1309.717	1126.982
-29.881	34.146	1308.123	1125.917
-28.867	33.993	1306.876	1123.899
-27.852	34.115	1305.179	1123.114
-26.838	34.123	1303.962	1122.067
-25.823	34.141	1302.259	1120.666
-24.809	34.104	1301.086	1119.393
-23.794	34.099	1299.738	1118.160
-22.779	34.143	1298.067	1116.938
-21.765	34.046	1297.532	1115.863
-20.750	34.067	1295.523	1114.214
-19.736	34.113	1294.095	1113.208
-18.721	33.913	1292.928	1110.993
-17.706	33.968	1292.070	1110.533
-16.692	33.884	1290.574	1108.710
-15.677	33.958	1289.531	1108.201
-14.663	34.010	1288.264	1107.376
-13.648	34.011	1287.136	1106.364
-12.633	33.941	1286.222	1105.130
-11.619	33.886	1285.662	1104.288
-10.604	34.046	1284.173	1103.888
-9.590	33.943	1283.222	1102.434
-8.575	33.956	1282.438	1101.790
-7.560	33.906	1281.827	1100.933
-6.546	33.846	1281.080	1099.901
-5.531	33.858	1279.804	1098.827
-4.517	33.838	1279.442	1098.360
-3.502	33.938	1278.079	1097.723
-2.487	33.916	1277.443	1097.005
-1.473	33.965	1272.930	1093.369
-0.458	32.913	1258.599	1075.028
0.556	27.723	1240.870	1037.266
1.571	24.258	1246.341	1021.919
2.586	23.606	1261.902	1030.801
3.600	22.394	1250.869	1014.718
4.615	15.599	1174.286	915.605
5.629	4.869	1094.255	798.383
6.644	0.407	1073.022	760.357
7.659	0.110	1070.286	756.857
8.673	0.027	1068.621	755.197
9.688	-0.222	1067.992	753.440
10.702	0.339	1066.162	754.890
11.717	6.956	1076.234	795.321
12.731	16.978	1090.927	856.980
13.746	21.374	1095.565	882.798
14.761	21.916	1096.250	886.007
15.775	21.807	1095.686	884.927
16.790	21.641	1094.719	883.227
17.804	21.579	1094.126	882.360
18.819	21.592	1094.096	882.325
19.834	21.792	1093.338	882.642
20.848	21.675	1093.142	881.813
21.863	21.803	1092.147	881.578
22.877	21.585	1092.182	880.435
23.892	21.739	1090.781	879.997
24.907	21.719	1090.354	879.477
25.921	21.700	1088.923	878.149
26.936	21.625	1087.940	876.904
27.950	21.683	1086.069	875.609
28.965	21.594	1084.320	873.673
29.980	21.750	1082.184	872.652
30.994	21.863	1081.470	872.565
32.009	21.839	1080.238	871.371
33.023	21.642	1079.327	869.582
34.038	21.682	1078.716	869.210
35.053	21.720	1078.236	868.936
36.067	21.718	1077.542	868.289
37.082	21.857	1076.336	867.929
38.096	21.993	1075.573	867.911
39.111	22.068	1074.614	867.431
40.126	21.866	1073.511	865.464
41.140	21.515	1071.717	862.213
42.155	21.339	1069.957	859.858
43.169	21.456	1068.970	859.560
44.184	21.448	1068.308	858.913
45.199	21.378	1067.034	857.471
46.213	21.510	1066.019	857.228
47.228	21.535	1065.574	856.913
48.242	21.654	1064.381	856.459
49.257	21.722	1063.703	856.175
50.271	21.755	1062.931	855.637
51.286	21.847	1061.997	855.256
52.301	21.818	1061.201	854.400
53.315	21.749	1060.477	853.403
54.330	21.834	1059.098	852.631
55.344	21.754	1058.445	851.646
56.359	21.639	1057.549	850.291
57.374	21.565	1056.272	848.829
58.388	21.504	1056.003	848.242
59.403	21.564	1055.138	847.760
60.417	21.419	1054.010	846.077
61.432	21.500	1053.239	845.778
62.447	21.467	1053.019	845.368
63.461	21.609	1052.060	845.207
64.476	21.555	1051.023	844.037
65.490	21.386	1049.667	842.062
66.505	21.531	1048.985	842.135
67.520	21.455	1048.662	841.439
68.534	21.398	1047.623	840.257
69.549	21.089	1046.289	837.628
70.563	21.194	1045.068	837.081
71.578	21.092	1044.704	836.224
72.593	20.965	1043.331	834.444
73.607	21.105	1043.084	834.845
74.622	21.361	1042.600	835.605
75.636	21.534	1041.511	835.486
76.651	21.215	1041.181	833.623
77.666	21.190	1040.444	832.840
78.680	21.258	1039.829	832.598
79.695	21.406	1038.848	832.446
80.709	21.386	1038.372	831.895
81.724	21.461	1037.533	831.505
82.739	21.518	1036.462	830.844
83.753	21.777	1036.413	831.962
84.768	21.993	1035.724	832.358
85.782	22.102	1034.188	831.564
86.797	21.948	1033.279	830.031
87.812	21.802	1032.293	828.476
88.826	21.930	1031.398	828.292
89.841	21.976	1030.676	827.852
90.855	22.117	1029.472	827.479
91.870	22.043	1028.642	826.391
92.884	21.829	1027.136	824.101
93.899	21.836	1026.385	823.458
94.914	21.958	1025.782	823.475
95.928	21.756	1024.824	821.687
96.943	21.506	1023.761	819.589
97.957	21.479	1021.946	817.937
98.972	21.250	1020.669	815.775
99.987	21.445	1020.602	816.559
101.001	21.700	1019.742	816.988
102.016	21.642	1018.640	815.761
103.030	21.716	1017.580	815.185
104.045	21.441	1016.539	813.001
105.060	21.321	1015.851	811.821
106.074	21.567	1015.278	812.433
107.089	22.045	1014.153	813.680
108.103	21.733	1013.571	811.694
109.118	21.540	1012.202	809.634
110.133	21.461	1011.334	808.500
111.147	21.478	1009.486	807.031
112.162	21.220	1009.215	805.554
113.176	21.387	1008.445	805.638
114.191	21.522	1007.358	805.317
115.206	21.086	1006.575	802.617
116.220	21.017	1005.599	801.449
117.235	21.316	1004.647	801.992
118.249	21.177	1003.667	800.504
119.264	21.215	1002.887	799.982
120.279	21.178	1002.430	799.378
121.293	21.297	1001.468	799.086
122.308	21.262	1000.424	798.019
123.322	21.344	999.034	797.215
124.337	21.132	997.643	795.069
125.352	20.682	996.023	791.661
126.366	20.640	994.918	790.522
127.381	21.308	995.315	793.801
128.395	21.791	994.600	795.355
129.410	21.878	993.516	794.810
130.424	21.865	992.450	793.831
131.439	21.848	991.502	792.927
132.454	21.661	990.916	791.540
133.468	21.571	990.128	790.435
134.483	21.810	989.312	790.794
135.497	21.964	988.487	790.755
136.512	22.133	987.143	790.371
137.527	22.108	986.307	789.522
138.541	22.064	985.585	788.676
139.556	22.127	984.939	788.373
140.570	21.972	984.204	787.017
141.585	22.168	982.709	786.627
142.600	21.874	982.179	784.821
143.614	22.173	981.555	785.587
144.629	22.282	980.656	785.285
145.643	22.155	979.666	783.860
146.658	21.992	978.174	781.869
147.673	21.906	976.895	780.396
148.687	21.814	975.845	779.077
149.702	21.817	974.686	778.098
150.716	21.753	974.137	777.307
151.731	22.001	972.982	777.417
152.746	22.113	972.746	777.651
153.760	22.162	972.173	777.343
154.775	22.061	971.389	776.202
155.789	22.191	970.255	775.802
156.804	22.200	969.054	774.813
157.819	22.072	968.760	773.944
158.833	22.319	967.821	774.213
159.848	22.196	966.853	772.830
160.862	22.143	965.511	771.455
161.877	22.198	964.730	771.002
162.892	22.176	963.817	770.107
163.906	22.092	962.415	768.552
164.921	21.946	961.780	767.339
165.935	22.065	961.172	767.309
166.950	22.180	959.588	766.474
167.964	22.234	959.015	766.186
168.979	21.991	958.046	764.286
169.994	21.986	956.593	763.037
171.008	22.277	956.217	763.934
172.023	22.207	955.529	763.013
173.037	21.885	954.577	760.791
174.052	21.647	953.707	758.999
175.067	21.828	953.078	759.213
176.081	21.912	952.590	759.123
177.096	21.866	951.587	758.055
178.110	21.681	950.822	756.581
179.125	21.535	949.958	755.195
180.140	21.649	949.709	755.422
181.154	21.563	949.432	754.764
182.169	21.876	949.402	756.025
183.183	22.137	948.367	756.256
184.198	21.997	947.559	754.944
185.213	22.093	946.260	754.253
186.227	22.175	945.758	754.139
187.242	22.310	944.934	753.993
188.256	22.076	944.445	752.532
189.271	22.196	943.940	752.580
190.286	21.970	942.757	750.603
191.300	21.350	941.734	747.072
192.315	20.618	939.870	742.402
193.329	20.576	939.763	742.073
194.344	21.374	939.995	745.599
195.359	22.040	939.510	747.984
196.373	22.000	939.539	747.771
197.388	21.896	938.586	746.505
198.402	21.991	937.875	746.274
199.417	21.944	937.235	745.501
200.432	21.570	936.271	743.081
201.446	21.524	935.382	742.116
202.461	21.703	934.815	742.359
203.475	20.739	933.159	736.897
204.490	20.136	931.325	732.834
205.504	20.965	932.134	736.911
206.519	21.503	931.951	738.976
207.534	21.549	931.772	738.964
208.548	22.057	931.297	740.663
209.563	21.900	930.130	739.008
210.577	21.800	930.123	738.516
211.592	22.203	929.491	739.645
212.607	22.234	928.276	738.745
213.621	22.197	927.607	737.990
214.636	22.249	927.203	737.822
215.650	22.097	926.144	736.275
216.665	22.308	925.182	736.331
217.680	22.223	924.630	735.470
218.694	21.851	923.200	732.714
219.709	21.697	922.466	731.423
220.723	21.870	922.820	732.362
221.738	21.944	921.900	731.878
222.753	21.894	921.132	730.991
223.767	22.154	920.754	731.709
224.782	22.358	920.415	732.224
225.796	22.351	919.616	731.495
226.811	21.473	918.449	726.859
227.826	21.050	916.899	723.810
228.840	21.425	916.028	724.615
229.855	21.342	915.653	723.910
230.869	20.978	914.750	721.625
231.884	21.390	914.571	723.123
232.899	22.015	914.617	725.682
233.913	22.088	913.377	724.933
234.928	22.023	913.190	724.455
235.942	21.996	912.678	723.873
236.957	21.633	911.599	721.455
237.972	21.589	911.451	721.096
238.986	21.695	910.873	721.009
240.001	21.727	910.176	720.526
241.015	21.851	909.565	720.487
242.030	21.934	908.988	720.307
243.045	22.111	908.791	720.815
244.059	22.144	908.235	720.446
245.074	21.905	907.169	718.558
246.088	21.667	905.787	716.424
247.103	22.026	905.643	717.714
248.117	22.497	905.501	719.464
249.132	22.726	905.645	720.448
250.147	22.874	904.435	720.026
251.161	23.035	903.947	720.229
252.176	22.785	903.889	719.102
253.190	22.916	903.365	719.154
254.205	22.976	902.932	718.991
255.220	22.988	902.051	718.276
256.234	22.913	901.113	717.159
257.249	22.767	900.159	715.746
258.263	22.852	899.696	715.658
259.278	22.866	898.984	715.087
260.293	22.906	898.691	714.952
261.307	22.853	897.784	713.951
262.322	22.700	896.190	712.003
263.336	21.890	894.875	707.628
264.351	20.788	892.960	701.615
265.366	21.060	892.363	702.181
266.380	22.006	893.384	706.731
267.395	22.475	893.020	708.268
268.409	22.540	891.979	707.640
269.424	22.763	891.350	707.969
270.439	22.684	890.925	707.255
271.453	22.760	890.725	707.338
272.468	22.909	890.173	707.432
273.482	23.031	889.482	707.310
274.497	22.479	888.468	704.234
275.512	22.138	887.397	701.962
276.526	22.577	887.848	704.010
277.541	22.888	886.684	704.265
278.555	22.554	885.740	702.122
279.570	22.353	885.261	700.879
280.585	22.574	884.811	701.340
281.599	22.576	883.509	700.255
282.614	21.828	882.718	696.596
283.628	21.921	882.208	696.501
284.643	22.406	882.125	698.298
285.657	21.965	880.645	695.317
286.672	21.649	879.755	693.306
287.687	22.270	880.113	695.982
288.701	22.223	879.357	695.140
289.716	22.124	877.963	693.581
290.730	21.844	877.955	692.411
291.745	21.717	876.663	690.831
292.760	21.843	877.026	691.553
293.774	22.967	876.955	695.863
294.789	23.333	876.448	696.840
295.803	23.186	876.216	696.015
296.818	23.231	875.357	695.447
297.833	22.895	874.185	693.138
298.847	22.642	873.749	691.739
299.862	22.994	873.529	692.884
300.876	23.336	873.036	693.770
301.891	23.127	872.410	692.392
302.906	22.636	871.558	689.735
303.920	22.831	871.057	690.038
304.935	23.252	870.796	691.415
305.949	23.308	869.730	690.728
306.964	22.867	869.483	688.751
307.979	22.888	868.979	688.373
308.993	23.441	868.653	690.208
310.008	23.172	868.292	688.812
311.022	23.036	867.286	687.425
312.037	22.925	866.659	686.435
313.052	22.643	865.861	684.649
314.066	21.715	864.615	680.003
315.081	21.586	863.525	678.585
316.095	22.490	863.640	682.119
317.110	22.893	863.692	683.656
318.125	22.013	862.102	678.938
319.139	21.148	860.478	674.260
320.154	21.047	859.915	673.368
321.168	21.893	860.738	677.221
322.183	22.572	861.168	680.122
323.197	22.757	860.369	680.144
324.212	23.010	860.367	681.054
325.227	22.995	859.448	680.209
326.241	22.871	858.782	679.146
327.256	22.872	857.901	678.394
328.270	22.739	857.454	677.469
329.285	22.500	856.676	675.875
330.300	22.369	855.457	674.355
331.314	22.588	855.601	675.245
332.329	23.072	855.337	676.830
333.343	23.204	854.996	677.008
334.358	23.060	854.641	676.114
335.373	23.201	853.946	676.045
336.387	23.437	854.193	677.081
337.402	23.442	853.988	676.877
338.416	23.437	853.507	676.416
339.431	23.477	853.245	676.302
340.446	23.716	852.669	676.697
341.460	23.652	851.792	675.698
342.475	23.302	851.325	673.935
343.489	23.402	851.342	674.270
344.504	23.745	850.990	675.234
345.519	23.957	850.659	675.718
346.533	23.796	850.276	674.744
347.548	23.987	849.507	674.796
348.562	23.985	849.217	674.499
349.577	23.705	848.448	672.769
350.592	23.832	847.561	672.486
351.606	23.673	847.043	671.414
352.621	23.772	845.895	670.820
353.635	23.569	845.307	669.526
354.650	22.985	843.623	665.934
355.665	22.091	842.359	661.515
356.679	22.503	842.258	662.926
357.694	22.945	841.702	664.092
358.708	22.850	841.268	663.332
359.723	23.237	841.102	664.599
360.738	23.408	841.079	665.161
361.752	23.618	840.294	665.269
362.767	24.006	840.031	666.457
363.781	24.105	839.631	666.449
364.796	24.228	839.088	666.420
365.810	24.221	838.831	666.132
366.825	24.183	838.435	665.615
367.840	24.018	837.190	663.952
368.854	23.553	836.807	661.855
369.869	23.736	836.030	661.867
370.883	23.518	835.822	660.830
371.898	23.574	835.070	660.384
372.913	23.548	835.004	660.179
373.927	23.701	834.385	660.197
374.942	24.008	833.933	660.925
375.956	23.824	834.142	660.347
376.971	23.948	833.497	660.239
377.986	24.233	832.756	660.647
379.000	24.061	832.497	659.748
380.015	24.002	831.541	658.715
381.029	24.002	831.268	658.439
382.044	24.245	830.699	658.830
383.059	24.286	829.750	658.170
384.073	24.069	829.942	657.463
385.088	24.263	828.754	657.176
386.102	24.014	828.099	655.683
387.117	23.962	827.639	655.068
388.132	23.683	826.535	653.109
389.146	23.166	825.446	650.295
390.161	23.482	825.354	651.323
391.175	24.001	825.231	653.075
392.190	23.501	824.096	650.288
393.205	22.241	822.138	644.073
394.219	20.742	820.390	637.161
395.234	20.850	820.257	637.397
396.248	22.479	821.734	644.456
397.263	23.870	822.627	650.190
398.278	23.787	822.111	649.423
399.292	23.440	821.234	647.404
400.307	23.503	820.529	647.019
401.321	23.628	820.648	647.513
402.336	24.125	820.520	649.166
403.350	24.482	819.999	649.999
404.365	24.596	820.106	650.440
405.380	24.973	819.684	651.418
406.394	24.894	819.121	650.626
407.409	24.888	818.720	650.228
408.423	24.892	818.162	649.744
409.438	24.728	818.223	649.136
410.453	24.987	817.420	649.382
411.467	24.736	817.017	648.095
412.482	24.872	816.738	648.310
413.496	24.902	816.195	647.929
414.511	24.846	815.934	647.464
415.526	24.808	815.379	646.826
416.540	24.797	814.719	646.205
417.555	24.597	813.641	644.573
418.569	24.635	813.819	644.795
419.584	24.655	812.686	643.912
420.599	24.361	812.306	642.496
421.613	154.526	1365.355	1793.985
422.628	134.432	1445.937	1794.080
