DTS Sentinel unit serial number:	SN413079Multiplexer serial number:	ORYXHardware model number:	OX4-SRSoftware version number:	ORYX F/W v4.00 Oryx Data Collector v3.7.2.0data status	okinstallation	princeton_trtdifferential loss correction	single-endedforward channel	channel 1reverse channel	N/Adate	2019/09/10time	22:00:11forward acquisition time	60.00reverse acquisition time	0.00gamma	496.2192k internal	0.2331k external	0.2331temperature offset calibration	0.9941default loss term (dB/km)	0.3790temperature slope calibration	1.0000multiplexer offset coefficient	1.0000multiplexer slope coefficient	1.0000fibre end	0.00T internal ref (°C)	30.69T ext. ref 1 (°C)	-0.31T ext. ref 2 (°C)	23.95length (m)	temperature (°C)	Stokes	anti-Stokes-747.200	21.338	0.227	0.186
-746.185	-167.472	-0.203	-0.008
-745.171	409.577	-0.047	0.099
-744.156	68.620	-0.350	0.362
-743.142	-80.664	-0.234	0.078
-742.127	412.669	-0.227	0.486
-741.112	126.125	-0.104	-0.133
-740.098	11.818	0.124	0.096
-739.083	-200.000	0.007	-0.108
-738.069	-136.258	0.152	-0.018
-737.054	-200.000	0.014	-0.263
-736.039	-34.511	-0.354	0.195
-735.025	43.366	0.371	0.341
-734.010	199.829	0.091	-0.140
-732.996	604.180	0.079	0.198
-731.981	-110.655	-0.196	-0.041
-730.966	-120.827	0.280	-0.047
-729.952	-200.000	0.026	-0.134
-728.937	800.000	-0.037	-0.114
-727.923	-200.000	-0.096	-0.459
-726.908	-44.551	-0.363	-0.183
-725.894	800.000	-0.016	-0.058
-724.879	-135.621	-0.208	-0.025
-723.864	-200.000	-0.041	-0.244
-722.850	-29.942	-0.199	-0.114
-721.835	37.650	0.184	-0.164
-720.821	-15.008	-0.110	-0.071
-719.806	-45.686	0.220	-0.110
-718.791	167.770	0.086	-0.123
-717.777	174.962	-0.035	0.051
-716.762	-200.000	-0.003	0.341
-715.748	-109.142	-0.199	-0.043
-714.733	96.459	0.222	-0.256
-713.718	210.523	-0.072	-0.113
-712.704	187.640	-0.157	-0.235
-711.689	-61.599	-0.483	-0.204
-710.675	-126.361	-0.105	0.016
-709.660	-200.000	-0.000	0.006
-708.645	-200.000	0.009	-0.188
-707.631	-69.730	-0.182	-0.070
-706.616	-120.402	0.368	0.063
-705.602	-200.000	0.015	-0.163
-704.587	-200.000	-0.032	-0.146
-703.572	-155.217	-0.471	-0.031
-702.558	156.833	0.192	0.267
-701.543	-200.000	-0.051	0.273
-700.529	-200.000	-0.057	-0.419
-699.514	35.407	-0.238	0.210
-698.499	27.679	0.133	-0.113
-697.485	-200.000	-0.023	-0.319
-696.470	-0.205	0.226	0.161
-695.456	593.856	0.056	-0.140
-694.441	-95.485	0.007	0.002
-693.426	-200.000	0.000	0.061
-692.412	-88.057	-0.363	-0.109
-691.397	18.102	-0.216	0.173
-690.383	800.000	0.014	-0.047
-689.368	-145.311	-0.100	0.009
-688.354	800.000	0.085	-0.263
-687.339	-133.378	-0.309	-0.039
-686.324	357.043	0.089	-0.179
-685.310	156.952	0.274	-0.381
-684.295	-72.677	-0.122	-0.045
-683.281	604.656	0.103	0.259
-682.266	-101.457	-0.321	-0.078
-681.251	-34.553	-0.277	0.152
-680.237	-200.000	0.040	-0.217
-679.222	800.000	0.102	0.347
-678.208	-76.860	0.124	-0.044
-677.193	130.046	0.109	-0.141
-676.178	-196.894	0.194	-0.001
-675.164	53.174	-0.073	0.070
-674.149	12.201	-0.239	0.185
-673.135	398.352	0.102	-0.213
-672.120	728.562	-0.025	0.068
-671.105	-103.553	0.075	0.018
-670.091	109.504	-0.104	0.126
-669.076	800.000	0.006	-0.020
-668.062	-200.000	0.033	0.155
-667.047	759.484	-0.103	0.279
-666.032	-124.409	0.294	-0.046
-665.018	-72.454	0.173	0.064
-664.003	-140.490	-0.257	-0.027
-662.989	-116.916	0.355	0.065
-661.974	62.073	-0.181	-0.181
-660.959	-64.380	0.118	-0.048
-659.945	-167.318	-0.321	-0.013
-658.930	34.759	0.250	-0.220
-657.916	72.709	0.181	0.190
-656.901	-39.487	0.110	-0.058
-655.886	300.215	-0.152	-0.280
-654.872	-1.179	-0.242	0.172
-653.857	800.000	-0.033	-0.102
-652.843	130.469	0.067	-0.086
-651.828	745.242	-0.100	0.270
-650.814	221.677	-0.182	0.294
-649.799	-20.877	0.129	0.079
-648.784	-200.000	-0.021	-0.280
-647.770	-176.490	-0.312	0.008
-646.755	272.549	0.130	0.231
-645.741	-155.608	-0.107	0.007
-644.726	-200.000	-0.037	-0.270
-643.711	-13.595	0.286	0.186
-642.697	-122.124	-0.142	-0.023
-641.682	800.000	0.018	-0.052
-640.668	152.595	0.041	0.057
-639.653	123.797	-0.053	0.067
-638.638	21.401	-0.130	0.106
-637.624	-112.480	-0.172	-0.035
-636.609	200.517	-0.051	0.079
-635.595	-120.260	0.341	0.058
-634.580	-7.637	-0.156	-0.106
-633.565	-123.464	-0.203	0.032
-632.551	552.989	0.141	-0.339
-631.536	-150.105	0.495	0.039
-630.522	-130.752	0.364	0.049
-629.507	-84.478	-0.257	0.081
-628.492	315.680	0.057	-0.108
-627.478	800.000	-0.079	-0.297
-626.463	800.000	-0.025	0.109
-625.449	89.548	-0.164	-0.183
-624.434	305.655	-0.083	0.155
-623.419	35.267	0.184	0.162
-622.405	-41.358	-0.205	-0.106
-621.390	36.924	-0.068	-0.060
-620.376	11.856	-0.256	-0.197
-619.361	71.695	0.106	0.111
-618.346	-108.155	0.285	0.062
-617.332	800.000	-0.031	-0.095
-616.317	6.613	-0.100	0.074
-615.303	422.374	-0.020	0.044
-614.288	-4.475	-0.493	0.341
-613.273	-13.233	-0.182	-0.119
-612.259	-81.923	-0.105	0.034
-611.244	474.979	0.079	0.178
-610.230	-196.190	0.232	0.002
-609.215	-28.807	-0.262	0.151
-608.201	-32.983	-0.130	0.072
-607.186	800.000	0.126	-0.438
-606.171	18.716	-0.164	-0.132
-605.157	800.000	0.042	0.119
-604.142	16.976	0.069	0.055
-603.128	10.756	0.139	-0.106
-602.113	-200.000	0.002	0.031
-601.098	34.025	-0.024	-0.021
-600.084	-102.295	-0.059	-0.014
-599.069	-200.000	-0.038	0.433
-598.055	-200.000	0.014	0.248
-597.040	-109.494	-0.096	0.020
-596.025	800.000	0.082	0.344
-595.011	585.070	-0.031	0.076
-593.996	-124.835	0.319	0.049
-592.982	131.814	0.062	-0.080
-591.967	-59.987	-0.186	0.080
-590.952	-33.552	0.088	0.049
-589.938	-42.623	-0.221	0.112
-588.923	-33.882	-0.377	-0.208
-587.909	29.036	0.086	0.073
-586.894	-74.425	-0.277	0.100
-585.879	-200.000	0.005	0.043
-584.865	73.588	0.187	0.196
-583.850	143.538	-0.100	-0.133
-582.836	16.344	-0.140	0.110
-581.821	338.616	-0.118	-0.229
-580.806	-200.000	-0.021	-0.175
-579.792	324.674	0.092	-0.175
-578.777	247.232	-0.080	0.135
-577.763	-200.000	0.050	0.487
-576.748	-18.211	0.171	0.107
-575.733	-63.673	0.407	0.167
-574.719	477.598	0.141	0.319
-573.704	-178.965	-0.111	0.003
-572.690	-17.116	-0.179	0.113
-571.675	-22.102	-0.089	0.054
-570.661	-102.645	-0.134	0.032
-569.646	800.000	0.048	0.139
-568.631	-117.002	0.432	0.079
-567.617	-78.742	-0.218	-0.074
-566.602	-70.632	-0.076	-0.029
-565.588	383.224	0.107	-0.221
-564.573	-200.000	0.013	-0.206
-563.558	471.289	0.046	0.104
-562.544	-47.115	0.055	0.027
-561.529	-165.958	-0.257	-0.011
-560.515	108.735	0.331	0.396
-559.500	185.940	-0.150	0.223
-558.485	-200.000	-0.005	-0.029
-557.471	-200.000	0.025	0.237
-556.456	-200.000	0.014	-0.169
-555.442	-13.464	-0.113	0.073
-554.427	-134.006	-0.170	0.021
-553.412	55.462	0.163	0.158
-552.398	77.779	0.049	0.052
-551.383	-68.217	-0.209	0.081
-550.369	-166.056	-0.225	0.010
-549.354	-200.000	0.003	-0.231
-548.339	-11.017	0.203	-0.134
-547.325	195.949	-0.138	-0.210
-546.310	-149.086	0.271	-0.022
-545.296	-104.302	0.120	0.028
-544.281	137.489	-0.135	0.176
-543.266	-134.896	-0.139	-0.017
-542.252	-83.743	0.302	0.096
-541.237	42.783	0.003	-0.003
-540.223	800.000	-0.024	-0.082
-539.208	-62.977	-0.340	0.140
-538.193	40.471	-0.076	0.068
-537.179	-120.161	-0.211	-0.036
-536.164	32.608	-0.296	0.255
-535.150	800.000	0.151	0.472
-534.135	-200.000	0.000	-0.006
-533.121	800.000	0.060	0.191
-532.106	27.734	0.318	0.268
-531.091	-68.525	-0.178	-0.069
-530.077	-200.000	0.015	-0.303
-529.062	800.000	-0.002	-0.009
-528.048	-200.000	-0.150	0.000
-527.033	9.232	-0.265	-0.200
-526.018	64.620	0.380	0.382
-525.004	-112.909	0.098	0.019
-523.989	379.667	-0.165	-0.337
-522.975	376.633	0.039	-0.080
-521.960	107.607	0.103	-0.123
-520.945	71.146	-0.124	0.129
-519.931	421.745	-0.059	-0.126
-518.916	291.135	0.085	-0.154
-517.902	293.210	0.084	0.153
-516.887	303.932	0.074	-0.138
-515.872	-152.452	0.055	-0.004
-514.858	-31.688	0.189	-0.106
-513.843	86.825	0.112	-0.123
-512.829	-82.960	-0.316	0.102
-511.814	-6.678	0.386	-0.262
-510.799	-200.000	-0.069	0.358
-509.785	-40.697	0.163	-0.084
-508.770	289.814	0.067	-0.120
-507.756	-200.000	0.002	-0.117
-506.741	343.397	0.146	-0.285
-505.726	327.454	-0.149	0.284
-504.712	-200.000	-0.031	-0.494
-503.697	368.932	0.047	-0.094
-502.683	-200.000	-0.017	-0.222
-501.668	-200.000	0.048	0.279
-500.653	39.114	0.095	-0.084
-499.639	800.000	-0.038	0.146
-498.624	-200.000	0.011	0.089
-497.610	800.000	0.056	-0.217
-496.595	581.466	0.133	-0.326
-495.581	800.000	-0.065	-0.245
-494.566	-45.460	0.148	-0.073
-493.551	-200.000	-0.056	0.343
-492.537	-123.740	0.167	-0.026
-491.522	109.816	-0.143	-0.171
-490.508	138.571	0.038	-0.050
-489.493	-176.104	0.387	0.010
-488.478	116.670	-0.013	-0.016
-487.464	237.244	-0.119	0.197
-486.449	-83.341	0.155	-0.050
-485.435	249.475	-0.040	0.068
-484.420	800.000	0.013	0.045
-483.405	246.188	-0.178	-0.299
-482.391	-200.000	-0.022	-0.258
-481.376	-200.000	-0.021	-0.229
-480.362	-26.008	-0.220	0.129
-479.347	30.511	0.143	-0.121
-478.332	-80.357	0.136	0.045
-477.318	-72.537	-0.234	0.086
-476.303	-78.184	0.408	-0.140
-475.289	474.099	-0.074	0.166
-474.274	800.000	-0.081	-0.241
-473.259	53.986	-0.148	0.142
-472.245	258.309	0.243	-0.417
-471.230	627.958	0.069	-0.173
-470.216	800.000	-0.097	-0.276
-469.201	385.720	0.151	-0.309
-468.186	1.610	-0.133	-0.095
-467.172	167.887	-0.099	-0.140
-466.157	-23.287	0.167	-0.100
-465.143	-95.473	-0.018	-0.005
-464.128	106.244	0.090	-0.106
-463.113	0.572	-0.155	-0.111
-462.099	-200.000	0.014	0.067
-461.084	-200.000	0.005	-0.082
-460.070	-200.000	-0.045	-0.209
-459.055	800.000	0.002	0.007
-458.040	-103.987	0.464	-0.108
-457.026	-200.000	-0.086	-0.509
-456.011	-120.366	-0.578	0.098
-454.997	-118.918	0.337	0.059
-453.982	536.615	0.142	0.336
-452.968	-136.843	0.133	0.015
-451.953	-200.000	0.022	-0.333
-450.938	-43.308	-0.159	-0.080
-449.924	111.125	0.285	-0.342
-448.909	357.474	0.153	-0.304
-447.895	368.219	0.012	-0.024
-446.880	-200.000	-0.072	-0.371
-445.865	-53.924	-0.243	-0.110
-444.851	-78.392	-0.397	0.135
-443.836	-51.124	0.100	0.047
-442.822	-82.108	-0.363	-0.118
-441.807	-149.761	-0.224	-0.018
-440.792	-77.731	-0.157	-0.054
-439.778	222.618	-0.192	0.308
-438.763	9.685	-0.070	-0.053
-437.749	-22.049	0.170	0.103
-436.734	-130.133	-0.350	-0.047
-435.719	25.113	0.045	0.037
-434.705	-127.338	0.281	-0.041
-433.690	179.063	-0.094	0.137
-432.676	-130.870	0.198	-0.026
-431.661	46.601	0.154	-0.142
-430.646	-184.051	0.148	-0.002
-429.632	-39.200	0.272	-0.142
-428.617	296.344	-0.065	-0.118
-427.603	324.907	0.146	-0.277
-426.588	-81.238	0.443	0.146
-425.573	-125.214	0.482	-0.073
-424.559	34.916	-0.141	-0.123
-423.544	362.311	-0.200	0.399
-422.530	800.000	-0.134	0.384
-421.515	353.761	-0.078	0.154
-420.500	800.000	0.057	-0.243
-419.486	55.828	0.237	-0.228
-418.471	167.276	-0.152	0.215
-417.457	-73.222	0.096	0.035
-416.442	373.218	0.110	-0.223
-415.428	208.218	-0.092	-0.142
-414.413	159.792	0.258	-0.358
-413.398	-94.071	-0.164	0.045
-412.384	800.000	0.089	-0.311
-411.369	601.499	0.079	-0.195
-410.355	-163.020	-0.338	-0.016
-409.340	-200.000	-0.042	0.200
-408.325	-200.000	-0.037	0.186
-407.311	-200.000	0.010	0.065
-406.296	800.000	0.029	-0.123
-405.282	800.000	0.057	0.205
-404.267	-43.091	0.336	0.169
-403.252	-42.760	-0.397	0.201
-402.238	-200.000	-0.035	-0.301
-401.223	-200.000	-0.031	-0.142
-400.209	17.186	-0.336	0.265
-399.194	72.578	-0.153	0.159
-398.179	27.222	0.271	-0.226
-397.165	54.095	0.155	-0.148
-396.150	-18.202	-0.240	-0.149
-395.136	-15.743	0.095	0.060
-394.121	800.000	0.103	-0.290
-393.106	61.439	0.096	0.095
-392.092	800.000	0.094	0.319
-391.077	181.777	0.105	0.154
-390.063	-27.659	-0.316	0.182
-389.048	-46.841	-0.195	0.095
-388.033	-140.885	-0.188	-0.019
-387.019	800.000	-0.013	0.038
-386.004	-71.940	-0.157	0.058
-384.990	275.997	-0.076	-0.135
-383.975	-89.967	-0.252	-0.073
-382.960	417.525	-0.141	-0.300
-381.946	-65.403	0.281	-0.112
-380.931	669.159	0.074	-0.189
-379.917	414.408	-0.061	-0.130
-378.902	800.000	0.049	0.167
-377.888	800.000	0.049	0.197
-376.873	-200.000	-0.011	-0.244
-375.858	24.737	-0.074	-0.060
-374.844	153.619	0.219	-0.297
-373.829	50.379	-0.115	-0.108
-372.815	28.432	0.088	-0.074
-371.800	-200.000	-0.056	0.265
-370.785	800.000	0.025	0.072
-369.771	-59.784	-0.231	0.098
-368.756	-8.566	0.174	0.116
-367.742	-192.980	-0.393	-0.004
-366.727	226.999	-0.134	-0.216
-365.712	-71.266	0.156	0.058
-364.698	-73.894	0.474	-0.171
-363.683	176.369	0.056	0.080
-362.669	16.566	0.203	0.159
-361.654	-76.656	0.275	0.096
-360.639	-181.378	0.365	0.007
-359.625	361.347	0.116	0.230
-358.610	418.226	-0.126	0.266
-357.596	800.000	-0.038	-0.141
-356.581	-87.065	0.047	-0.014
-355.566	800.000	-0.033	0.117
-354.552	800.000	-0.076	0.279
-353.537	147.932	-0.178	0.238
-352.523	-200.000	0.025	0.114
-351.508	-185.024	0.635	-0.010
-350.493	-103.657	-0.352	-0.082
-349.479	264.227	-0.046	0.079
-348.464	-179.671	-0.270	-0.006
-347.450	-88.670	-0.161	-0.047
-346.435	-183.057	0.159	0.003
-345.420	800.000	-0.051	-0.211
-344.406	800.000	-0.036	0.111
-343.391	-200.000	-0.030	0.353
-342.377	108.471	0.305	0.361
-341.362	119.877	0.094	0.115
-340.348	-70.797	0.068	-0.025
-339.333	25.450	0.108	0.089
-338.318	-54.921	0.237	0.106
-337.304	-200.000	-0.051	-0.357
-336.289	800.000	-0.049	-0.159
-335.275	-114.157	0.202	0.039
-334.260	214.923	0.123	-0.194
-333.245	-138.705	0.534	0.058
-332.231	186.371	0.101	-0.148
-331.216	-17.368	-0.069	-0.043
-330.202	-117.928	0.272	-0.048
-329.187	-200.000	-0.065	0.000
-328.172	-200.000	0.025	-0.230
-327.158	-200.000	-0.017	-0.126
-326.143	188.452	-0.126	-0.187
-325.129	800.000	0.065	-0.234
-324.114	371.684	0.029	-0.057
-323.099	77.339	-0.122	-0.128
-322.085	-200.000	0.030	-0.210
-321.070	-101.747	-0.320	0.077
-320.056	-200.000	-0.041	-0.384
-319.041	146.204	-0.196	-0.260
-318.026	364.013	-0.010	-0.021
-317.012	53.203	-0.288	0.273
-315.997	-59.357	-0.474	-0.202
-314.983	800.000	0.010	-0.038
-313.968	23.311	0.187	0.152
-312.953	-59.238	-0.072	-0.031
-311.939	-125.896	0.229	0.034
-310.924	-160.223	-0.179	0.010
-309.910	372.365	0.185	-0.372
-308.895	783.763	-0.073	0.197
-307.880	-135.264	-0.102	-0.012
-306.866	-3.802	-0.248	-0.170
-305.851	-84.148	-0.121	-0.038
-304.837	-74.254	-0.235	-0.084
-303.822	-40.309	-0.340	0.175
-302.807	-92.900	0.411	0.114
-301.793	-19.492	0.177	0.109
-300.778	12.246	-0.234	-0.178
-299.764	-135.084	0.175	-0.021
-298.749	16.364	0.115	0.090
-297.735	690.311	0.018	0.045
-296.720	-88.855	-0.126	0.037
-295.705	98.545	0.090	-0.102
-294.691	-81.417	-0.109	0.035
-293.676	-200.000	0.037	0.227
-292.662	156.807	0.107	0.147
-291.647	793.673	-0.086	-0.234
-290.632	-131.543	0.260	0.034
-289.618	-108.752	-0.057	0.012
-288.603	-52.951	0.423	0.193
-287.589	-6.905	-0.166	-0.111
-286.574	800.000	0.163	0.457
-285.559	672.752	-0.104	0.267
-284.545	75.002	0.177	-0.184
-283.530	-67.470	-0.239	-0.093
-282.516	-15.315	0.096	0.061
-281.501	370.159	0.087	0.174
-280.486	-16.757	0.262	-0.164
-279.472	145.670	-0.106	0.140
-278.457	122.426	0.083	0.102
-277.443	-152.830	-0.167	0.012
-276.428	-30.170	0.213	0.120
-275.413	-61.579	-0.460	-0.191
-274.399	51.307	-0.136	0.127
-273.384	626.286	-0.020	0.051
-272.370	-200.000	0.025	0.116
-271.355	-17.830	0.241	-0.149
-270.340	52.095	-0.138	0.130
-269.326	-106.959	-0.228	-0.050
-268.311	-200.000	-0.002	-0.162
-267.297	800.000	-0.080	-0.242
-266.282	144.877	0.267	-0.353
-265.267	-108.921	-0.151	-0.032
-264.253	-200.000	-0.088	0.581
-263.238	-137.608	0.292	0.032
-262.224	395.821	-0.076	0.157
-261.209	-200.000	0.002	0.532
-260.195	-54.495	-0.394	0.176
-259.180	-89.663	0.130	-0.038
-258.165	96.314	0.227	-0.257
-257.151	336.525	-0.088	0.169
-256.136	-96.066	-0.114	0.030
-255.122	351.001	-0.025	-0.048
-254.107	55.737	-0.025	-0.024
-253.092	93.004	-0.113	0.126
-252.078	-34.126	-0.223	-0.121
-251.063	248.810	0.222	0.372
-250.049	-162.420	-0.183	0.009
-249.034	-200.000	-0.035	-0.227
-248.019	499.389	0.150	-0.341
-247.005	-76.288	-0.152	-0.053
-245.990	360.934	-0.050	0.098
-244.976	118.986	-0.088	-0.108
-243.961	-200.000	-0.069	0.306
-242.946	-200.000	0.003	-0.080
-241.932	-200.000	-0.032	0.264
-240.917	68.980	0.167	0.169
-239.903	194.296	-0.108	0.161
-238.888	-35.149	-0.239	0.128
-237.873	800.000	-0.108	-0.322
-236.859	68.690	-0.282	0.286
-235.844	-90.990	0.323	0.091
-234.830	1.283	0.346	0.245
-233.815	170.946	0.092	-0.130
-232.800	128.880	-0.144	-0.182
-231.786	84.841	0.280	-0.302
-230.771	20.427	0.115	-0.092
-229.757	461.378	-0.112	0.246
-228.742	800.000	-0.041	-0.132
-227.727	119.429	0.133	-0.162
-226.713	800.000	-0.036	0.132
-225.698	-80.492	0.178	0.058
-224.684	-125.653	0.026	0.004
-223.669	39.822	0.186	0.165
-222.655	456.038	-0.155	0.338
-221.640	325.668	0.136	-0.256
-220.625	-200.000	-0.015	0.076
-219.611	800.000	-0.028	0.106
-218.596	-26.567	-0.115	-0.067
-217.582	-2.156	-0.049	0.034
-216.567	181.886	-0.063	0.092
-215.552	-121.854	-0.173	-0.028
-214.538	800.000	0.062	0.252
-213.523	13.564	-0.172	0.131
-212.509	800.000	0.049	0.188
-211.494	-28.784	0.243	-0.138
-210.479	39.081	-0.102	-0.090
-209.465	591.894	0.113	0.274
-208.450	-200.000	0.038	0.301
-207.436	-75.128	-0.204	-0.072
-206.421	-84.731	-0.221	-0.069
-205.406	337.416	0.044	0.084
-204.392	-66.835	-0.145	-0.057
-203.377	256.569	0.104	0.176
-202.363	800.000	0.050	0.202
-201.348	112.987	-0.067	0.080
-200.333	800.000	0.060	0.236
-199.319	57.557	0.055	0.053
-198.304	-56.336	0.300	-0.132
-197.290	24.826	0.188	0.154
-196.275	152.868	-0.190	0.256
-195.260	112.265	-0.039	0.047
-194.246	-106.870	0.276	-0.060
-193.231	445.933	0.076	0.164
-192.217	-39.194	0.100	0.052
-191.202	98.493	0.014	0.015
-190.187	-200.000	0.069	-0.353
-189.173	411.279	-0.057	0.119
-188.158	131.694	0.193	0.245
-187.144	-10.699	-0.053	-0.034
-186.129	-200.000	0.028	0.498
-185.114	-114.682	0.171	0.032
-184.100	-200.000	0.032	-0.311
-183.085	-200.000	0.010	0.065
-182.071	129.928	0.223	-0.281
-181.056	72.001	-0.239	-0.245
-180.042	-49.071	0.091	0.043
-179.027	-76.673	-0.056	0.019
-178.012	-131.364	0.245	0.032
-176.998	278.232	-0.338	-0.593
-175.983	-85.557	-0.079	0.024
-174.969	-78.739	0.199	-0.067
-173.954	-51.097	-0.138	0.064
-172.939	-200.000	0.027	-0.131
-171.925	57.726	-0.170	-0.163
-170.910	-57.544	0.038	0.017
-169.896	-67.091	0.179	0.069
-168.881	-200.000	-0.013	-0.133
-167.866	-200.000	0.015	0.181
-166.852	-42.657	-0.281	-0.141
-165.837	-200.000	0.020	-0.166
-164.823	800.000	0.079	0.265
-163.808	-54.720	-0.107	0.048
-162.793	105.721	0.049	-0.056
-161.779	800.000	-0.026	0.084
-160.764	166.115	-0.114	-0.159
-159.750	144.756	0.177	-0.233
-158.735	-87.504	-0.082	-0.024
-157.720	-155.993	-0.312	-0.019
-156.706	-165.609	-0.283	-0.012
-155.691	256.612	-0.064	0.108
-154.677	94.093	-0.020	-0.022
-153.662	-110.496	-0.396	-0.081
-152.647	-86.865	0.138	0.041
-151.633	800.000	0.089	0.307
-150.618	632.766	-0.087	-0.216
-149.604	-0.920	0.210	0.146
-148.589	-200.000	0.013	0.193
-147.574	188.918	-0.168	0.247
-146.560	-200.000	-0.009	-0.183
-145.545	39.641	-0.313	0.276
-144.531	187.687	0.102	0.150
-143.516	350.168	-0.076	0.147
-142.502	762.710	0.162	-0.432
-141.487	-108.002	-0.160	0.034
-140.472	-193.021	-0.108	0.001
-139.458	-96.885	0.266	-0.069
-138.443	-93.234	-0.091	0.025
-137.429	34.224	0.295	0.253
-136.414	-105.858	0.252	0.056
-135.399	-200.000	-0.076	0.447
-134.385	-53.814	0.201	0.090
-133.370	-27.532	0.152	0.087
-132.356	6.202	0.133	-0.097
-131.341	-32.956	0.092	0.050
-130.326	-200.000	0.027	0.208
-129.312	53.863	-0.103	-0.097
-128.297	-56.824	0.389	0.169
-127.283	-9.909	0.148	-0.097
-126.268	257.461	0.019	0.032
-125.253	-69.567	0.149	0.056
-124.239	88.839	0.076	0.083
-123.224	166.583	0.226	0.315
-122.210	-200.000	-0.021	0.261
-121.195	-200.000	-0.300	0.001
-120.180	444.746	-0.044	0.095
-119.166	-31.250	0.100	-0.056
-118.151	188.979	0.173	0.255
-117.137	-30.937	0.239	-0.132
-116.122	73.736	-0.028	0.029
-115.107	41.997	0.120	0.107
-114.093	-11.761	-0.034	-0.022
-113.078	714.960	-0.065	-0.168
-112.064	-134.303	0.454	0.055
-111.049	118.431	0.235	0.285
-110.034	-137.412	-0.178	0.020
-109.020	-9.979	0.308	-0.201
-108.005	-106.003	0.139	0.031
-106.991	61.648	0.060	0.059
-105.976	-118.331	0.160	0.028
-104.962	-165.328	0.230	0.010
-103.947	-132.414	0.156	0.020
-102.932	-200.000	-0.039	-0.185
-101.918	89.001	0.213	0.233
-100.903	-29.813	-0.358	0.200
-99.889	-26.521	-0.031	-0.018
-98.874	-200.000	-0.008	-0.182
-97.859	-105.898	0.179	-0.040
-96.845	115.207	0.203	0.243
-95.830	800.000	-0.063	0.231
-94.816	-11.746	0.063	0.041
-93.801	-53.899	0.195	-0.087
-92.786	-49.025	-0.312	0.147
-91.772	-200.000	0.018	0.217
-90.757	756.598	-0.106	0.282
-89.743	154.061	0.191	-0.257
-88.728	63.811	-0.136	0.134
-87.713	147.051	-0.127	-0.168
-86.699	-139.411	0.148	0.016
-85.684	1.904	-0.104	-0.073
-84.670	53.634	0.089	-0.084
-83.655	91.330	-0.220	0.242
-82.640	-200.000	-0.020	-0.124
-81.626	-200.000	-0.021	0.232
-80.611	93.850	-0.129	0.143
-79.597	42.773	0.401	0.358
-78.582	-200.000	0.023	0.114
-77.567	222.008	0.203	0.320
-76.553	-200.000	0.047	0.292
-75.538	-130.291	0.086	0.011
-74.524	-200.000	0.011	-0.171
-73.509	-73.418	-0.145	-0.052
-72.494	-166.766	0.338	-0.014
-71.480	31.038	-0.084	0.071
-70.465	22.246	0.193	0.155
-69.451	441.724	-0.075	-0.161
-68.436	-200.000	-0.038	-0.231
-67.422	-200.000	0.009	0.242
-66.407	-133.202	0.256	-0.032
-65.392	204.365	-0.108	0.163
-64.378	800.000	0.017	0.072
-63.363	-200.000	0.002	0.103
-62.349	-200.000	0.020	0.319
-61.334	29.387	-1.022	-0.851
-60.319	67.715	0.376	0.377
-59.305	492.131	-0.464	-1.042
-58.290	214.270	0.644	0.999
-57.276	570.768	0.705	1.681
-56.261	-200.000	101.236	608.926
-55.246	531.876	1447.259	3354.559
-54.232	185.523	2642.400	3845.252
-53.217	115.178	2146.540	2567.650
-52.203	42.847	1590.022	1419.565
-51.188	34.344	1324.312	1132.049
-50.173	30.989	1283.364	1077.649
-49.159	54.874	1333.952	1261.380
-48.144	56.111	1350.062	1283.834
-47.130	34.340	1307.167	1117.196
-46.115	30.841	1289.091	1081.427
-45.100	30.678	1284.172	1076.315
-44.086	30.608	1281.425	1073.563
-43.071	30.596	1279.420	1071.772
-42.057	30.555	1277.761	1070.104
-41.042	30.548	1276.325	1068.817
-40.027	30.518	1274.981	1067.481
-39.013	30.628	1272.839	1066.277
-37.998	30.570	1271.353	1064.654
-36.984	30.630	1269.334	1063.266
-35.969	30.716	1267.196	1061.922
-34.954	30.757	1265.753	1060.905
-33.940	30.643	1265.271	1059.808
-32.925	30.667	1263.935	1058.784
-31.911	30.740	1262.452	1057.916
-30.896	30.831	1260.349	1056.631
-29.881	30.699	1259.442	1055.076
-28.867	30.807	1257.761	1054.236
-27.852	30.866	1256.788	1053.714
-26.838	30.854	1255.332	1052.385
-25.823	30.881	1253.633	1051.069
-24.809	30.789	1252.578	1049.627
-23.794	30.661	1251.704	1048.131
-22.779	30.739	1250.182	1047.257
-21.765	30.790	1248.602	1046.178
-20.750	30.869	1247.339	1045.519
-19.736	30.747	1245.997	1043.672
-18.721	30.736	1244.786	1042.555
-17.706	30.625	1243.679	1040.960
-16.692	30.748	1242.507	1040.628
-15.677	30.612	1241.489	1038.974
-14.663	30.677	1240.285	1038.286
-13.648	30.705	1239.409	1037.667
-12.633	30.559	1239.120	1036.570
-11.619	30.655	1237.581	1035.781
-10.604	30.636	1236.926	1035.082
-9.590	30.655	1235.929	1034.313
-8.575	30.456	1235.262	1032.610
-7.560	30.523	1234.515	1032.316
-6.546	30.587	1232.974	1031.341
-5.531	30.538	1232.132	1030.324
-4.517	30.452	1231.876	1029.592
-3.502	30.676	1230.734	1029.835
-2.487	30.619	1230.163	1029.001
-1.473	30.542	1225.800	1024.887
-0.458	28.942	1211.325	1004.017
0.556	23.316	1193.135	965.751
1.571	19.592	1198.511	949.583
2.586	18.799	1212.803	956.404
3.600	18.656	1202.492	947.401
4.615	13.564	1131.840	865.133
5.629	4.342	1057.291	762.911
6.644	0.037	1036.757	727.245
7.659	-0.342	1034.605	723.842
8.673	-0.442	1033.460	722.492
9.688	-0.472	1032.018	721.274
10.702	-0.132	1030.482	721.775
11.717	5.665	1038.217	755.128
12.731	14.712	1051.426	808.660
13.746	18.728	1056.270	831.812
14.761	19.296	1056.503	834.669
15.775	19.204	1055.756	833.564
16.790	19.064	1054.433	831.765
17.804	18.923	1054.177	830.810
18.819	19.040	1053.796	831.001
19.834	19.104	1053.507	831.010
20.848	19.020	1053.104	830.214
21.863	19.018	1052.607	829.739
22.877	19.002	1052.207	829.272
23.892	18.951	1051.147	828.119
24.907	19.056	1050.330	827.904
25.921	19.204	1048.712	827.267
26.936	19.124	1047.426	825.797
27.950	19.036	1046.198	824.335
28.965	18.933	1043.726	821.823
29.980	19.133	1041.947	821.302
30.994	19.322	1041.126	821.483
32.009	19.219	1040.243	820.223
33.023	18.911	1039.228	817.886
34.038	18.993	1038.616	817.721
35.053	19.234	1038.010	818.313
36.067	19.181	1036.841	817.071
37.082	19.210	1035.850	816.357
38.096	19.377	1035.278	816.621
39.111	19.420	1034.477	816.122
40.126	19.465	1032.706	814.864
41.140	18.969	1031.525	811.519
42.155	18.831	1029.950	809.562
43.169	18.851	1029.031	808.858
44.184	18.978	1027.888	808.487
45.199	18.770	1027.009	806.749
46.213	18.855	1025.827	806.148
47.228	18.980	1024.526	805.640
48.242	18.993	1023.907	805.140
49.257	18.962	1023.261	804.417
50.271	19.239	1021.970	804.625
51.286	19.292	1020.595	803.716
52.301	19.254	1019.697	802.763
53.315	19.078	1019.019	801.340
54.330	18.909	1018.587	800.143
55.344	19.196	1017.650	800.671
56.359	19.104	1016.453	799.227
57.374	18.907	1016.057	797.932
58.388	19.055	1014.889	797.629
59.403	18.956	1013.891	796.317
60.417	18.843	1012.584	794.699
61.432	18.983	1012.240	795.005
62.447	19.062	1011.658	794.844
63.461	19.026	1011.179	794.230
64.476	19.007	1009.806	792.994
65.490	18.993	1008.815	792.079
66.505	18.939	1007.883	791.029
67.520	18.983	1007.990	791.246
68.534	18.837	1006.732	789.520
69.549	18.574	1005.429	787.220
70.563	18.613	1004.596	786.677
71.578	18.622	1003.672	785.925
72.593	18.614	1002.456	784.867
73.607	18.701	1002.079	784.899
74.622	18.903	1001.794	785.529
75.636	18.830	1001.058	784.548
76.651	18.861	999.705	783.564
77.666	18.531	999.695	781.978
78.680	18.687	998.817	781.935
79.695	18.850	997.851	781.853
80.709	18.917	997.466	781.784
81.724	18.746	996.671	780.314
82.739	18.899	995.682	780.169
83.753	19.085	995.442	780.752
84.768	19.338	994.381	780.998
85.782	19.433	993.437	780.618
86.797	19.319	992.109	778.990
87.812	19.274	991.200	778.004
88.826	19.462	990.178	777.981
89.841	19.361	989.316	776.779
90.855	19.335	988.466	775.928
91.870	19.437	987.315	775.413
92.884	19.399	986.050	774.182
93.899	19.242	985.201	772.741
94.914	19.317	984.582	772.523
95.928	19.234	983.413	771.164
96.943	19.025	982.087	769.123
97.957	18.883	980.886	767.481
98.972	18.603	979.850	765.352
99.987	18.902	979.360	766.237
101.001	19.215	978.323	766.751
102.016	19.007	977.801	765.349
103.030	19.005	976.475	764.234
104.045	18.671	975.701	762.077
105.060	18.770	974.297	761.354
106.074	18.926	973.962	761.717
107.089	19.254	973.365	762.634
108.103	19.144	972.125	761.107
109.118	19.139	970.771	759.957
110.133	19.127	969.976	759.213
111.147	18.892	968.624	757.057
112.162	18.763	967.593	755.615
113.176	18.978	967.013	756.041
114.191	18.764	966.305	754.478
115.206	18.666	964.780	752.792
116.220	18.564	964.271	751.880
117.235	18.722	963.182	751.656
118.249	18.741	962.555	751.186
119.264	18.840	961.309	750.580
120.279	18.890	960.528	750.120
121.293	18.804	959.996	749.264
122.308	18.800	959.478	748.775
123.322	18.826	957.907	747.596
124.337	18.583	956.826	745.630
125.352	18.225	954.788	742.423
126.366	18.072	954.306	741.319
127.381	18.981	953.762	744.771
128.395	19.186	953.411	745.318
129.410	19.285	952.290	744.801
130.424	19.180	951.276	743.492
131.439	19.219	950.258	742.795
132.454	19.119	949.110	741.404
133.468	19.103	948.636	740.898
134.483	19.343	947.686	741.122
135.497	19.596	946.923	741.547
136.512	19.497	946.063	740.381
137.527	19.342	945.602	739.294
138.541	19.349	944.547	738.432
139.556	19.532	943.528	738.353
140.570	19.552	942.597	737.644
141.585	19.423	941.583	736.236
142.600	19.383	940.891	735.457
143.614	19.535	940.350	735.618
144.629	19.638	939.203	735.095
145.643	19.445	937.998	733.265
146.658	19.342	937.074	732.044
147.673	19.243	935.888	730.629
148.687	19.345	934.399	729.835
149.702	19.209	933.707	728.654
150.716	19.240	932.796	728.009
151.731	19.471	932.120	728.395
152.746	19.643	931.567	728.625
153.760	19.528	931.365	727.913
154.775	19.640	930.316	727.502
155.789	19.576	929.422	726.468
156.804	19.619	928.235	725.659
157.819	19.551	927.617	724.827
158.833	19.654	926.893	724.628
159.848	19.617	925.913	723.642
160.862	19.474	924.796	722.108
161.877	19.607	924.116	722.070
162.892	19.616	923.163	721.297
163.906	19.516	922.111	719.994
164.921	19.584	920.898	719.265
165.935	19.680	920.079	718.962
166.950	19.592	919.118	717.784
167.964	19.542	918.237	716.824
168.979	19.376	917.472	715.473
169.994	19.411	916.454	714.761
171.008	19.596	916.208	715.272
172.023	19.612	914.771	714.154
173.037	19.414	913.560	712.330
174.052	19.287	912.683	711.057
175.067	19.287	912.292	710.691
176.081	19.478	911.809	711.036
177.096	19.422	911.451	710.464
178.110	19.114	910.114	708.095
179.125	19.053	909.208	707.075
180.140	19.030	909.293	706.983
181.154	19.114	908.722	706.822
182.169	19.394	908.512	707.747
183.183	19.504	908.017	707.747
184.198	19.510	906.770	706.737
185.213	19.551	906.158	706.367
186.227	19.652	905.484	706.192
187.242	19.506	904.955	705.121
188.256	19.522	904.465	704.740
189.271	19.734	903.085	704.468
190.286	19.405	902.089	702.288
191.300	18.958	901.062	699.609
192.315	18.215	899.719	695.484
193.329	18.155	899.078	694.687
194.344	18.981	899.191	698.064
195.359	19.624	899.185	700.608
196.373	19.541	898.366	699.572
197.388	19.465	897.906	698.844
198.402	19.362	897.128	697.757
199.417	19.386	896.562	697.352
200.432	19.069	895.369	695.084
201.446	18.796	894.956	693.599
202.461	18.948	893.906	693.337
203.475	18.219	892.254	689.059
204.490	17.399	891.367	685.013
205.504	18.477	891.663	689.518
206.519	19.132	891.236	691.761
207.534	19.157	890.854	691.506
208.548	19.535	890.549	692.725
209.563	19.348	889.730	691.277
210.577	19.316	889.191	690.666
211.592	19.632	888.714	691.502
212.607	19.572	887.991	690.635
213.621	19.572	887.277	690.022
214.636	19.765	886.358	690.013
215.650	19.545	885.767	688.618
216.665	19.682	885.087	688.571
217.680	19.425	884.591	687.102
218.694	19.135	883.080	684.714
219.709	19.104	882.788	684.305
220.723	19.449	882.139	685.112
221.738	19.369	881.668	684.369
222.753	19.397	881.008	683.906
223.767	19.581	880.398	684.099
224.782	19.780	879.834	684.389
225.796	19.661	879.289	683.433
226.811	19.080	877.896	679.996
227.826	18.551	876.693	676.916
228.840	18.801	876.222	677.479
229.855	18.873	875.333	677.014
230.869	18.371	874.388	674.248
231.884	18.906	874.437	676.333
232.899	19.533	874.386	678.698
233.913	19.536	873.853	678.238
234.928	19.486	873.331	677.576
235.942	19.422	872.222	676.403
236.957	19.249	871.980	675.479
237.972	19.405	870.834	675.141
238.986	19.471	870.428	675.024
240.001	19.304	870.063	674.028
241.015	19.508	869.062	673.990
242.030	19.648	868.459	674.009
243.045	19.590	868.486	673.744
244.059	19.606	867.956	673.337
245.074	19.484	866.545	671.707
246.088	19.212	865.619	669.872
247.103	19.545	865.663	671.142
248.117	19.914	865.509	672.397
249.132	19.999	864.818	672.132
250.147	20.016	864.362	671.784
251.161	20.183	863.709	671.864
252.176	20.197	862.765	671.124
253.190	20.276	862.496	671.159
254.205	20.342	862.019	670.987
255.220	20.442	861.021	670.534
256.234	20.332	860.275	669.470
257.249	20.157	859.707	668.295
258.263	20.284	858.722	667.961
259.278	20.244	858.101	667.264
260.293	20.231	857.656	666.809
261.307	20.063	857.355	665.870
262.322	19.976	855.748	664.227
263.336	19.270	853.517	659.738
264.351	18.231	851.791	654.372
265.366	18.501	851.624	655.217
266.380	19.467	852.414	659.460
267.395	19.893	852.107	660.792
268.409	19.839	851.838	660.321
269.424	20.016	851.398	660.594
270.439	20.070	850.315	659.900
271.453	20.071	850.236	659.788
272.468	20.425	849.615	660.594
273.482	20.409	848.821	659.855
274.497	19.974	847.558	657.165
275.512	19.629	846.956	655.332
276.526	20.111	846.886	657.046
277.541	20.253	846.421	657.165
278.555	20.042	845.400	655.516
279.570	19.570	844.886	653.274
280.585	19.780	844.062	653.373
281.599	20.024	843.489	653.793
282.614	19.535	842.220	650.910
283.628	19.488	842.007	650.511
284.643	19.790	841.415	651.132
285.657	19.353	840.230	648.513
286.672	19.095	839.659	647.046
287.687	19.624	839.628	648.953
288.701	19.749	838.933	648.827
289.716	19.273	838.287	646.487
290.730	19.363	837.387	646.072
291.745	19.065	836.415	644.148
292.760	19.387	836.250	645.169
293.774	20.317	836.726	648.959
294.789	20.642	835.986	649.543
295.803	20.881	835.391	649.915
296.818	20.874	834.955	649.491
297.833	20.378	833.783	646.675
298.847	20.259	833.313	645.811
299.862	20.478	833.197	646.476
300.876	20.593	832.948	646.653
301.891	20.571	831.799	645.623
302.906	19.961	830.949	642.646
303.920	20.295	830.546	643.515
304.935	20.448	830.138	643.707
305.949	20.530	829.519	643.476
306.964	20.247	828.908	641.898
307.979	20.461	828.420	642.251
308.993	20.901	828.293	643.724
310.008	20.823	827.478	642.745
311.022	20.575	826.852	641.286
312.037	20.451	826.353	640.387
313.052	20.231	825.476	638.841
314.066	19.464	823.938	634.775
315.081	19.145	823.279	633.038
316.095	19.990	823.494	636.253
317.110	20.484	823.080	637.690
318.125	19.625	821.885	633.559
319.139	18.655	820.687	629.024
320.154	18.698	820.347	628.864
321.168	19.610	820.313	632.122
322.183	20.118	820.665	634.197
323.197	20.282	820.392	634.531
324.212	20.506	819.767	634.811
325.227	20.485	818.971	634.060
326.241	20.417	818.312	633.245
327.256	20.298	817.488	632.119
328.270	20.323	816.878	631.683
329.285	20.080	816.386	630.362
330.300	19.958	815.265	628.997
331.314	20.204	815.033	629.657
332.329	20.514	814.835	630.571
333.343	20.515	814.569	630.314
334.358	20.537	814.264	630.102
335.373	20.580	813.775	629.823
336.387	20.937	813.532	630.875
337.402	21.054	813.279	631.043
338.416	20.988	812.980	630.518
339.431	21.039	812.402	630.198
340.446	21.080	812.263	630.182
341.460	20.906	811.695	629.059
342.475	20.860	811.249	628.489
343.489	20.828	810.953	628.091
344.504	21.168	810.539	628.939
345.519	21.236	810.496	629.094
346.533	21.293	809.527	628.492
347.548	21.270	809.373	628.235
348.562	21.332	808.614	627.812
349.577	21.203	808.506	627.208
350.592	21.301	807.302	626.573
351.606	21.266	806.877	626.062
352.621	21.170	806.133	625.086
353.635	21.092	805.171	624.004
354.650	20.308	803.900	620.165
355.665	19.692	802.093	616.517
356.679	20.089	801.950	617.768
357.694	20.390	801.806	618.677
358.708	20.538	800.986	618.516
359.723	20.733	801.092	619.236
360.738	20.941	800.904	619.776
361.752	21.186	800.224	620.066
362.767	21.497	799.711	620.715
363.781	21.515	799.581	620.625
364.796	21.679	799.405	621.014
365.810	21.515	798.982	620.050
366.825	21.565	798.475	619.780
367.840	21.305	797.719	618.215
368.854	20.936	796.952	616.262
369.869	20.897	796.739	615.906
370.883	21.109	796.222	616.200
371.898	20.838	795.602	614.709
372.913	21.091	794.778	614.910
373.927	21.226	794.766	615.323
374.942	21.334	794.413	615.374
375.956	21.416	794.028	615.311
376.971	21.499	793.724	615.313
377.986	21.715	793.384	615.755
379.000	21.501	793.025	614.670
380.015	21.386	792.134	613.522
381.029	21.441	791.471	613.144
382.044	21.682	790.570	613.236
383.059	21.569	790.408	612.661
384.073	21.704	790.145	612.877
385.088	21.781	789.278	612.417
386.102	21.355	789.019	610.674
387.117	21.342	788.614	610.264
388.132	21.022	787.472	608.210
389.146	20.660	786.329	606.011
390.161	20.876	786.464	606.814
391.175	21.248	786.263	607.900
392.190	21.161	784.938	606.519
393.205	19.870	783.091	600.560
394.219	18.481	781.568	594.525
395.234	18.513	781.652	594.648
396.248	20.050	783.043	600.991
397.263	21.362	783.279	605.666
398.278	21.529	782.735	605.772
399.292	21.210	782.316	604.288
400.307	21.218	781.928	603.963
401.321	21.137	781.845	603.564
402.336	21.499	781.788	604.720
403.350	21.792	781.401	605.379
404.365	22.060	781.002	605.942
405.380	22.226	780.646	606.184
406.394	22.259	780.345	606.012
407.409	22.220	779.522	605.182
408.423	22.104	779.315	604.571
409.438	22.221	778.932	604.622
410.453	22.210	778.790	604.419
411.467	22.107	777.765	603.217
412.482	22.238	777.173	603.155
413.496	22.298	777.359	603.449
414.511	22.246	777.002	602.943
415.526	22.231	776.805	602.684
416.540	22.207	775.803	601.772
417.555	21.977	775.041	600.342
418.569	21.984	774.560	599.940
419.584	22.010	774.112	599.627
420.599	21.784	773.613	598.416
421.613	159.390	1361.642	1798.714
422.628	137.593	1447.321	1798.812
