DTS Sentinel unit serial number:	SN413079Multiplexer serial number:	ORYXHardware model number:	OX4-SRSoftware version number:	ORYX F/W v4.00 Oryx Data Collector v3.7.2.0data status	okinstallation	princeton_trtdifferential loss correction	single-endedforward channel	channel 1reverse channel	N/Adate	2019/09/12time	01:20:11forward acquisition time	60.00reverse acquisition time	0.00gamma	496.2192k internal	0.2321k external	0.2321temperature offset calibration	1.0075default loss term (dB/km)	0.3790temperature slope calibration	1.0000multiplexer offset coefficient	1.0000multiplexer slope coefficient	1.0000fibre end	0.00T internal ref (°C)	33.00T ext. ref 1 (°C)	2.09T ext. ref 2 (°C)	27.89length (m)	temperature (°C)	Stokes	anti-Stokes-747.200	-96.298	-0.140	0.038
-746.185	655.447	0.038	0.098
-745.171	-126.949	0.077	-0.012
-744.156	-12.702	-0.171	0.113
-743.142	-104.534	0.075	-0.017
-742.127	800.000	0.092	0.363
-741.112	-86.384	0.169	-0.052
-740.098	-25.224	-0.201	0.121
-739.083	-26.104	0.211	0.125
-738.069	-141.886	-0.149	0.015
-737.054	-46.565	0.042	0.021
-736.039	-162.172	-0.298	0.015
-735.025	-200.000	-0.001	-0.223
-734.010	66.900	-0.389	-0.400
-732.996	34.729	0.059	0.052
-731.981	-200.000	0.019	0.120
-730.966	17.919	0.151	-0.122
-729.952	189.764	0.143	-0.217
-728.937	506.064	0.134	-0.313
-727.923	-200.000	0.002	-0.121
-726.908	-59.067	-0.285	-0.124
-725.894	800.000	-0.114	-0.386
-724.879	-92.338	-0.404	0.115
-723.864	455.258	-0.153	-0.343
-722.850	800.000	-0.033	-0.117
-721.835	17.637	-0.195	0.157
-720.821	110.425	-0.142	-0.173
-719.806	258.899	-0.090	-0.156
-718.791	125.610	0.302	-0.385
-717.777	-53.133	0.194	-0.090
-716.762	419.502	-0.052	-0.112
-715.748	-131.709	-0.245	0.032
-714.733	42.837	0.329	0.303
-713.718	29.279	0.169	0.145
-712.704	800.000	-0.081	-0.259
-711.689	168.026	0.142	-0.204
-710.675	-200.000	0.021	0.108
-709.660	-23.582	-0.194	-0.117
-708.645	45.811	0.179	0.167
-707.631	-200.000	-0.039	-0.358
-706.616	-200.000	0.000	0.199
-705.602	351.126	0.086	-0.172
-704.587	-200.000	0.068	-0.428
-703.572	800.000	0.097	0.318
-702.558	384.411	-0.055	0.114
-701.543	-200.000	0.022	0.144
-700.529	-102.187	-0.390	-0.095
-699.514	50.171	0.032	0.031
-698.499	-200.000	0.016	0.182
-697.485	103.681	0.100	0.119
-696.470	-1.930	-0.385	0.273
-695.456	-2.009	0.238	0.169
-694.441	-177.018	0.167	-0.004
-693.426	-200.000	-0.061	0.285
-692.412	-158.014	-0.279	0.017
-691.397	74.265	-0.238	0.252
-690.383	-133.217	-0.249	0.032
-689.368	800.000	0.060	0.222
-688.354	167.527	0.232	-0.333
-687.339	131.551	-0.021	-0.027
-686.324	-34.797	0.142	-0.078
-685.310	39.795	0.226	0.205
-684.295	65.364	-0.248	-0.253
-683.281	84.383	-0.050	0.055
-682.266	-129.858	-0.104	0.014
-681.251	18.423	-0.234	-0.188
-680.237	-200.000	-0.002	0.065
-679.222	-134.402	0.056	-0.007
-678.208	-104.981	0.175	-0.040
-677.193	64.279	-0.080	-0.081
-676.178	-30.099	-0.186	-0.107
-675.164	11.585	0.048	0.037
-674.149	800.000	-0.045	-0.131
-673.135	70.037	0.208	-0.216
-672.120	584.070	0.083	-0.206
-671.105	552.295	0.111	0.270
-670.091	800.000	-0.021	-0.081
-669.076	-36.248	-0.189	0.103
-668.062	37.342	0.305	-0.272
-667.047	-200.000	0.003	0.062
-666.032	12.453	-0.033	-0.026
-665.018	160.943	-0.114	0.160
-664.003	-143.857	-0.207	-0.020
-662.989	-88.508	-0.297	-0.089
-661.974	-108.908	-0.377	0.081
-660.959	-23.416	0.150	-0.091
-659.945	800.000	0.034	-0.114
-658.930	-200.000	-0.011	0.059
-657.916	-12.651	-0.174	-0.114
-656.901	-75.920	0.043	0.015
-655.886	22.873	0.091	-0.075
-654.872	154.618	0.111	-0.153
-653.857	800.000	0.059	-0.208
-652.843	-88.151	-0.308	0.093
-651.828	-22.543	0.106	-0.065
-650.814	25.738	-0.032	0.027
-649.799	-91.764	-0.309	0.088
-648.784	428.033	0.021	-0.046
-647.770	89.258	-0.156	-0.175
-646.755	450.106	-0.159	-0.354
-645.741	97.633	0.325	-0.376
-644.726	800.000	-0.113	-0.424
-643.711	87.949	-0.089	0.099
-642.697	104.364	0.076	0.090
-641.682	-145.520	0.220	-0.020
-640.668	-26.701	-0.185	0.109
-639.653	474.033	0.068	0.155
-638.638	-200.000	-0.038	-0.172
-637.624	-100.234	0.152	-0.038
-636.609	13.638	0.188	0.147
-635.595	-200.000	-0.001	-0.121
-634.580	-58.221	0.101	-0.044
-633.565	-200.000	0.156	0.000
-632.551	-200.000	0.026	0.231
-631.536	800.000	-0.078	0.272
-630.522	-124.411	0.184	0.029
-629.507	-200.000	-0.052	0.246
-628.492	1.325	-0.052	0.038
-627.478	-114.992	-0.142	0.027
-626.463	800.000	-0.006	0.020
-625.449	81.245	0.239	0.260
-624.434	-48.966	-0.266	-0.128
-623.419	395.581	-0.117	0.246
-622.405	800.000	0.044	-0.132
-621.390	-200.000	-0.036	-0.197
-620.376	-51.742	-0.441	-0.207
-619.361	46.083	0.266	-0.248
-618.346	-132.122	-0.342	0.045
-617.332	-4.521	0.095	0.066
-616.317	-200.000	0.020	-0.314
-615.303	253.235	0.127	0.218
-614.288	-108.884	-0.240	0.052
-613.273	-173.658	-0.333	0.010
-612.259	-11.224	0.327	0.216
-611.244	-200.000	-0.015	-0.130
-610.230	-32.973	0.208	-0.116
-609.215	458.837	0.179	-0.399
-608.201	-42.970	0.401	0.204
-607.186	-101.123	0.348	0.086
-606.171	-121.412	-0.362	0.061
-605.157	36.085	-0.135	-0.119
-604.142	-24.465	0.096	0.057
-603.128	351.583	-0.107	-0.213
-602.113	-75.124	0.133	-0.048
-601.098	-56.417	-0.268	0.120
-600.084	800.000	-0.048	0.165
-599.069	-200.000	-0.025	0.119
-598.055	-37.487	0.066	0.036
-597.040	-121.434	0.199	-0.033
-596.025	-200.000	0.026	-0.115
-595.011	-200.000	-0.034	0.154
-593.996	-79.863	0.429	0.145
-592.982	-24.961	-0.223	0.133
-591.967	62.868	0.285	0.287
-590.952	184.788	-0.094	-0.140
-589.938	-105.235	-0.053	-0.012
-588.923	-200.000	0.006	-0.358
-587.909	-200.000	0.017	0.174
-586.894	42.254	0.095	0.087
-585.879	-200.000	0.028	0.255
-584.865	-200.000	0.021	0.131
-583.850	19.646	0.104	-0.084
-582.836	-20.506	0.162	0.100
-581.821	-200.000	-0.011	0.360
-580.806	175.218	0.155	0.226
-579.792	12.028	0.116	0.089
-578.777	-136.310	-0.075	0.009
-577.763	-200.000	-0.002	0.305
-576.748	800.000	-0.016	0.061
-575.733	-181.955	0.169	0.003
-574.719	3.497	0.195	0.142
-573.704	765.827	0.045	-0.123
-572.690	265.813	-0.064	-0.112
-571.675	-149.450	-0.335	0.027
-570.661	120.028	-0.282	-0.351
-569.646	280.449	-0.154	-0.276
-568.631	178.530	-0.150	-0.220
-567.617	66.677	-0.105	-0.108
-566.602	671.803	-0.075	-0.195
-565.588	-6.295	-0.074	-0.051
-564.573	-23.998	-0.289	-0.174
-563.558	-40.490	0.400	0.209
-562.544	121.937	-0.082	0.103
-561.529	-200.000	-0.006	-0.199
-560.515	79.642	0.184	-0.199
-559.500	800.000	0.103	-0.322
-558.485	800.000	-0.018	0.061
-557.471	423.953	0.066	-0.143
-556.456	110.614	0.149	0.180
-555.442	800.000	0.114	-0.418
-554.427	73.043	-0.122	0.128
-553.412	233.410	-0.159	0.262
-552.398	-5.812	0.208	-0.143
-551.383	-180.159	0.255	-0.005
-550.369	-200.000	-0.005	-0.063
-549.354	460.348	0.054	0.121
-548.339	800.000	0.040	-0.118
-547.325	142.496	-0.145	-0.193
-546.310	55.811	-0.114	0.111
-545.296	168.130	0.148	-0.211
-544.281	56.241	-0.139	-0.136
-543.266	275.973	-0.101	0.180
-542.252	150.541	-0.032	0.044
-541.237	158.490	-0.103	0.144
-540.223	-150.874	0.410	-0.031
-539.208	-200.000	0.035	0.160
-538.193	129.554	-0.180	-0.231
-537.179	201.199	-0.144	-0.222
-536.164	-168.406	-0.060	0.002
-535.150	-200.000	-0.003	-0.130
-534.135	32.688	-0.192	0.166
-533.121	-188.583	0.207	-0.003
-532.106	800.000	0.098	-0.271
-531.091	268.744	-0.084	-0.147
-530.077	-184.553	-0.187	0.003
-529.062	-200.000	0.018	0.334
-528.048	182.326	0.107	0.158
-527.033	95.817	-0.086	0.098
-526.018	68.426	-0.102	0.105
-525.004	-200.000	-0.011	0.099
-523.989	25.263	-0.099	-0.083
-522.975	-200.000	-0.022	0.215
-521.960	800.000	0.024	-0.084
-520.945	-0.158	0.199	-0.142
-519.931	-200.000	0.024	-0.244
-518.916	707.092	0.022	-0.058
-517.902	-200.000	-0.012	-0.127
-516.887	-71.519	-0.176	-0.066
-515.872	171.081	0.081	0.117
-514.858	444.282	-0.139	-0.305
-513.843	-200.000	-0.063	0.384
-512.829	-115.413	-0.100	-0.019
-511.814	-14.467	0.129	-0.083
-510.799	89.222	-0.201	-0.225
-509.785	-27.835	-0.063	-0.037
-508.770	-152.445	-0.210	0.015
-507.756	-200.000	-0.014	0.212
-506.741	800.000	0.035	0.144
-505.726	-200.000	-0.009	-0.258
-504.712	800.000	0.069	-0.302
-503.697	-143.155	0.287	0.028
-502.683	101.973	0.133	0.155
-501.668	292.341	-0.155	0.282
-500.653	299.221	-0.062	0.115
-499.639	-70.572	0.428	0.162
-498.624	39.564	0.345	0.310
-497.610	-179.288	-0.030	-0.001
-496.595	-72.557	-0.147	0.054
-495.581	-122.426	-0.181	-0.029
-494.566	-165.889	0.185	-0.008
-493.551	-200.000	0.006	0.146
-492.537	508.531	-0.011	-0.027
-491.522	-168.897	-0.314	-0.012
-490.508	307.763	0.103	0.192
-489.493	-200.000	0.006	-0.169
-488.478	103.473	0.160	-0.188
-487.464	800.000	-0.131	-0.492
-486.449	-200.000	0.044	-0.296
-485.435	-155.371	-0.138	0.009
-484.420	800.000	0.014	-0.053
-483.405	582.524	-0.058	0.143
-482.391	-200.000	-0.021	0.102
-481.376	96.447	0.146	0.167
-480.362	-6.084	-0.025	0.017
-479.347	151.311	0.080	-0.109
-478.332	-200.000	0.035	-0.293
-477.318	-154.415	0.165	0.011
-476.303	403.704	0.108	0.227
-475.289	177.323	0.057	-0.083
-474.274	483.426	-0.038	0.087
-473.259	249.691	0.178	-0.302
-472.245	-200.000	0.068	-0.446
-471.230	-200.000	-0.019	-0.182
-470.216	-52.356	0.047	0.022
-469.201	1.948	-0.122	0.088
-468.186	55.796	-0.028	-0.027
-467.172	38.139	0.042	-0.037
-466.157	24.899	0.066	-0.054
-465.143	366.058	-0.123	0.248
-464.128	14.969	0.198	-0.155
-463.113	-30.473	-0.065	-0.037
-462.099	-90.660	-0.070	0.020
-461.084	-3.052	0.341	0.238
-460.070	800.000	0.070	-0.254
-459.055	-200.000	-0.028	-0.159
-458.040	-200.000	0.006	0.236
-457.026	84.012	-0.180	-0.196
-456.011	-200.000	0.020	-0.240
-454.997	-106.620	-0.037	-0.008
-453.982	-19.226	-0.396	-0.246
-452.968	54.943	0.174	-0.168
-451.953	-35.283	0.132	-0.072
-450.938	-77.166	-0.317	-0.110
-449.924	-42.287	0.464	-0.237
-448.909	-169.073	-0.209	0.008
-447.895	157.448	-0.298	-0.412
-446.880	363.289	-0.101	0.202
-445.865	-162.104	0.171	0.009
-444.851	513.680	-0.077	0.179
-443.836	33.968	-0.116	0.101
-442.822	-62.691	0.383	-0.159
-441.807	-73.944	0.087	-0.031
-440.792	177.246	-0.188	0.273
-439.778	13.671	0.273	-0.212
-438.763	509.660	-0.100	-0.232
-437.749	-51.472	0.070	-0.032
-436.734	-16.656	0.338	0.214
-435.719	30.959	-0.099	0.084
-434.705	102.712	0.074	-0.087
-433.690	475.915	-0.079	0.178
-432.676	23.095	-0.145	0.119
-431.661	168.493	-0.072	-0.102
-430.646	-200.000	0.039	-0.301
-429.632	-129.872	0.202	0.028
-428.617	-200.000	-0.007	-0.060
-427.603	410.014	0.107	0.227
-426.588	-200.000	0.071	0.317
-425.573	732.920	-0.030	-0.080
-424.559	-200.000	0.035	0.340
-423.544	-200.000	-0.003	0.179
-422.530	63.349	-0.265	-0.265
-421.515	343.785	0.073	0.142
-420.500	69.178	0.079	0.081
-419.486	324.974	-0.153	0.291
-418.471	35.259	0.219	-0.191
-417.457	800.000	0.067	-0.225
-416.442	-153.887	0.138	0.009
-415.428	-58.137	-0.311	0.135
-414.413	800.000	0.068	-0.231
-413.398	56.404	-0.138	-0.134
-412.384	-21.793	0.170	-0.103
-411.369	-49.589	0.129	-0.061
-410.355	-106.045	0.286	-0.064
-409.340	-148.194	-0.369	0.030
-408.325	46.301	0.245	0.227
-407.311	27.858	0.207	0.174
-406.296	27.787	0.145	0.122
-405.282	-200.000	-0.010	0.116
-404.267	124.216	0.208	0.261
-403.252	-32.184	0.049	-0.027
-402.238	-126.886	0.220	-0.032
-401.223	-118.346	-0.200	-0.035
-400.209	-68.855	0.187	-0.072
-399.194	453.994	-0.027	0.059
-398.179	800.000	-0.015	0.045
-397.165	-200.000	-0.010	0.147
-396.150	189.836	-0.017	0.026
-395.136	-200.000	-0.003	-0.140
-394.121	19.795	-0.133	0.107
-393.106	0.514	0.309	0.220
-392.092	-200.000	-0.020	-0.233
-391.077	548.493	-0.175	-0.418
-390.063	218.527	0.119	-0.189
-389.048	-145.460	-0.150	0.013
-388.033	18.091	0.023	-0.018
-387.019	-200.000	0.012	0.316
-386.004	-200.000	-0.033	-0.256
-384.990	-200.000	0.012	-0.227
-383.975	0.890	0.121	-0.086
-382.960	800.000	-0.095	-0.287
-381.946	-152.581	-0.368	-0.026
-380.931	-100.790	-0.198	0.049
-379.917	266.540	0.203	-0.353
-378.902	-8.003	-0.192	-0.129
-377.888	220.075	-0.049	0.079
-376.873	-163.065	0.220	-0.011
-375.858	67.283	0.019	0.019
-374.844	-74.842	-0.218	-0.078
-373.829	800.000	-0.062	0.229
-372.815	84.848	-0.091	-0.099
-371.800	-131.814	-0.217	0.028
-370.785	-123.051	0.224	0.036
-369.771	325.428	-0.053	0.101
-368.756	250.066	0.028	-0.047
-367.742	-200.000	-0.024	-0.195
-366.727	-85.551	0.156	-0.048
-365.712	83.141	-0.088	0.095
-364.698	39.379	0.070	-0.062
-363.683	-129.399	0.321	0.044
-362.669	-66.266	0.076	-0.030
-361.654	-91.170	0.114	-0.032
-360.639	108.453	-0.126	0.150
-359.625	-200.000	0.028	0.224
-358.610	800.000	0.069	-0.247
-357.596	-92.471	-0.148	-0.042
-356.581	-9.676	0.388	-0.257
-355.566	564.706	0.098	-0.237
-354.552	-120.957	0.139	0.023
-353.537	-200.000	-0.011	0.127
-352.523	-149.268	-0.269	0.021
-351.508	800.000	0.120	0.376
-350.493	-200.000	-0.019	-0.102
-349.479	232.127	0.159	-0.261
-348.464	40.395	0.143	0.128
-347.450	-91.643	0.341	-0.097
-346.435	800.000	0.038	-0.150
-345.420	-51.004	-0.151	-0.070
-344.406	235.026	0.089	-0.146
-343.391	800.000	0.102	0.347
-342.377	654.750	-0.032	0.082
-341.362	-62.431	-0.081	-0.033
-340.348	21.518	-0.290	0.235
-339.333	101.828	-0.272	-0.316
-338.318	-200.000	-0.032	0.161
-337.304	602.769	0.086	0.214
-336.289	15.974	-0.060	0.047
-335.275	-186.311	-0.388	-0.006
-334.260	-166.086	-0.367	0.016
-333.245	-56.753	-0.295	0.130
-332.231	-200.000	-0.013	-0.114
-331.216	119.891	-0.264	0.326
-330.202	11.630	-0.127	-0.097
-329.187	-200.000	-0.040	-0.436
-328.172	556.907	0.040	0.097
-327.158	673.768	-0.091	-0.236
-326.143	-73.469	0.391	-0.142
-325.129	-48.972	-0.137	-0.065
-324.114	2.696	0.260	-0.187
-323.099	-141.816	0.186	0.018
-322.085	66.506	-0.252	0.255
-321.070	552.211	-0.071	0.168
-320.056	-10.801	-0.233	0.153
-319.041	-24.106	-0.052	0.031
-318.026	800.000	-0.046	0.130
-317.012	64.346	-0.106	-0.106
-315.997	-127.440	-0.290	0.042
-314.983	108.539	0.121	-0.143
-313.968	759.882	0.041	-0.112
-312.953	-88.670	-0.098	0.029
-311.939	-121.427	-0.325	-0.054
-310.924	-200.000	-0.004	0.129
-309.910	-3.977	-0.368	0.254
-308.895	-200.000	0.102	0.486
-307.880	-127.140	0.170	-0.025
-306.866	800.000	-0.011	0.039
-305.851	-200.000	0.004	0.026
-304.837	738.500	-0.040	0.107
-303.822	-158.344	-0.271	-0.016
-302.807	800.000	-0.051	0.172
-301.793	176.631	-0.313	0.453
-300.778	323.712	0.136	-0.257
-299.764	-200.000	0.011	0.190
-298.749	-6.695	0.103	0.069
-297.735	-154.208	-0.275	-0.018
-296.720	4.876	-0.258	0.188
-295.705	19.062	-0.087	-0.069
-294.691	800.000	0.079	0.323
-293.676	-89.635	-0.133	0.039
-292.662	-200.000	0.025	-0.143
-291.647	100.818	0.088	-0.102
-290.632	151.902	-0.172	0.232
-289.618	90.024	0.251	0.279
-288.603	96.666	-0.054	-0.061
-287.589	58.695	0.128	0.125
-286.574	-200.000	-0.105	0.516
-285.559	45.243	-0.174	-0.159
-284.545	-200.000	0.029	0.259
-283.530	244.116	-0.054	0.090
-282.516	-182.514	0.127	-0.002
-281.501	-200.000	-0.016	-0.250
-280.486	-192.484	-0.184	0.002
-279.472	-200.000	-0.022	0.168
-278.457	-37.572	-0.232	-0.123
-277.443	-135.467	-0.232	0.027
-276.428	800.000	-0.037	0.157
-275.413	241.286	0.067	-0.112
-274.399	-33.191	-0.038	0.021
-273.384	191.145	0.141	0.210
-272.370	-79.502	0.197	0.066
-271.355	-109.605	0.198	0.041
-270.340	79.385	0.192	-0.205
-269.326	18.547	-0.245	0.194
-268.311	-200.000	0.041	0.240
-267.297	0.496	0.202	-0.143
-266.282	-200.000	-0.066	0.305
-265.267	192.778	-0.116	0.173
-264.253	-84.737	-0.232	0.073
-263.238	-95.066	0.273	0.073
-262.224	-200.000	0.010	-0.047
-261.209	-48.242	0.139	-0.067
-260.195	128.189	-0.070	-0.088
-259.180	91.497	-0.078	-0.087
-258.165	-66.122	-0.189	-0.075
-257.151	-90.261	-0.463	-0.133
-256.136	-28.408	0.101	0.058
-255.122	394.451	0.086	-0.178
-254.107	191.821	-0.137	-0.205
-253.092	800.000	0.054	-0.214
-252.078	-200.000	0.042	-0.273
-251.063	-95.413	-0.090	0.024
-250.049	-200.000	0.018	0.331
-249.034	11.422	-0.222	0.169
-248.019	-200.000	-0.015	-0.187
-247.005	239.433	-0.047	-0.077
-245.990	-110.303	-0.163	0.034
-244.976	-200.000	0.039	-0.260
-243.961	755.081	-0.034	-0.091
-242.946	-51.681	0.309	0.143
-241.932	398.121	-0.169	0.351
-240.917	-171.763	-0.327	0.011
-239.903	67.689	0.176	-0.178
-238.888	9.002	0.327	-0.245
-237.873	-27.917	0.184	-0.106
-236.859	74.925	-0.039	0.041
-235.844	-132.277	-0.283	0.036
-234.830	21.051	-0.173	0.139
-233.815	800.000	0.041	0.129
-232.800	117.333	0.101	-0.123
-231.786	800.000	0.169	-0.558
-230.771	399.335	-0.135	-0.281
-229.757	-25.296	-0.183	-0.107
-228.742	26.051	0.202	0.167
-227.727	102.762	0.266	0.309
-226.713	133.787	-0.143	-0.184
-225.698	-200.000	0.009	-0.220
-224.684	320.827	0.058	0.110
-223.669	800.000	0.060	0.197
-222.655	-200.000	0.054	0.313
-221.640	-81.870	0.071	0.023
-220.625	-200.000	0.050	0.302
-219.611	-153.882	-0.157	0.011
-218.596	-200.000	-0.025	-0.177
-217.582	362.073	0.094	0.187
-216.567	461.689	0.093	-0.205
-215.552	-200.000	-0.167	0.000
-214.538	-200.000	-0.055	-0.241
-213.523	137.050	0.096	-0.124
-212.509	437.000	0.096	0.208
-211.494	20.742	0.206	-0.165
-210.479	79.141	-0.085	0.090
-209.465	437.018	0.094	-0.202
-208.450	-104.708	0.119	-0.027
-207.436	75.462	-0.221	0.231
-206.421	-117.993	0.142	0.025
-205.406	-82.318	-0.254	-0.082
-204.392	-200.000	0.017	0.128
-203.377	-200.000	0.006	0.045
-202.363	75.418	0.122	-0.127
-201.348	800.000	-0.034	-0.106
-200.333	-65.357	-0.167	-0.067
-199.319	146.193	0.139	-0.185
-198.304	171.459	0.082	0.117
-197.290	705.061	0.076	-0.198
-196.275	800.000	0.015	-0.052
-195.260	63.947	0.084	0.084
-194.246	368.743	-0.131	-0.262
-193.231	-57.710	0.229	0.099
-192.217	-14.963	-0.189	0.120
-191.202	87.948	0.230	-0.253
-190.187	-12.391	-0.189	0.122
-189.173	9.075	-0.221	-0.165
-188.158	-3.234	0.253	0.174
-187.144	-122.430	-0.339	-0.055
-186.129	338.865	0.084	-0.161
-185.114	800.000	-0.171	0.479
-184.100	183.725	0.090	0.132
-183.085	-36.305	0.162	0.086
-182.071	443.808	0.043	-0.093
-181.056	94.259	0.126	0.142
-180.042	16.708	0.113	-0.088
-179.027	66.139	-0.115	0.116
-178.012	54.677	0.085	-0.081
-176.998	34.760	0.138	0.120
-175.983	44.180	0.111	0.100
-174.969	-200.000	0.013	0.153
-173.954	-79.420	0.144	0.048
-172.939	-200.000	-0.012	0.113
-171.925	90.979	0.113	-0.125
-170.910	-200.000	-0.038	-0.330
-169.896	-200.000	-0.015	0.151
-168.881	-200.000	-0.021	0.246
-167.866	780.973	-0.074	0.200
-166.852	-200.000	0.026	-0.120
-165.837	636.366	0.124	0.312
-164.823	-22.421	-0.077	-0.046
-163.808	45.383	0.204	0.186
-162.793	-200.000	-0.048	-0.210
-161.779	51.929	-0.108	-0.101
-160.764	-123.311	-0.151	0.024
-159.750	315.644	0.030	0.055
-158.735	-176.808	0.009	-0.000
-157.720	-200.000	0.020	0.119
-156.706	394.353	0.025	0.051
-155.691	-200.000	0.034	0.265
-154.677	-83.347	0.163	0.052
-153.662	-131.548	-0.081	-0.011
-152.647	413.086	0.158	-0.332
-151.633	800.000	-0.125	0.500
-150.618	21.727	-0.145	-0.117
-149.604	34.923	-0.182	0.158
-148.589	261.265	0.267	-0.457
-147.574	-10.082	0.235	0.154
-146.560	-22.359	-0.106	-0.064
-145.545	154.595	0.278	0.378
-144.531	-0.686	0.126	0.088
-143.516	81.464	-0.201	0.215
-142.502	228.405	0.103	0.166
-141.487	-51.592	0.110	-0.051
-140.472	-200.000	-0.046	-0.198
-139.458	64.240	0.306	-0.304
-138.443	800.000	-0.042	-0.157
-137.429	34.098	-0.057	-0.049
-136.414	-185.201	0.199	-0.003
-135.399	-200.000	0.007	0.044
-134.385	117.431	-0.044	0.053
-133.370	-4.909	-0.293	0.199
-132.356	247.737	-0.110	0.183
-131.341	-150.123	-0.100	-0.008
-130.326	0.297	0.177	-0.125
-129.312	-39.097	-0.091	0.047
-128.297	55.518	-0.241	0.230
-127.283	114.684	0.170	-0.205
-126.268	800.000	-0.094	0.272
-125.253	-200.000	-0.021	-0.133
-124.239	-49.475	-0.172	0.081
-123.224	356.330	-0.218	0.428
-122.210	352.546	-0.114	-0.223
-121.195	-200.000	-0.020	0.208
-120.180	-42.884	-0.321	-0.161
-119.166	-164.522	0.210	-0.009
-118.151	-102.332	-0.235	-0.056
-117.137	140.645	0.258	0.336
-116.122	-23.194	0.096	-0.057
-115.107	-200.000	-0.019	-0.362
-114.093	383.938	-0.151	-0.306
-113.078	33.278	-0.085	-0.073
-112.064	641.423	0.019	-0.049
-111.049	800.000	0.092	0.257
-110.034	-18.184	0.211	-0.130
-109.020	378.092	-0.154	0.310
-108.005	83.249	-0.090	0.097
-106.991	-101.150	0.271	0.065
-105.976	-200.000	0.005	-0.053
-104.962	116.591	0.208	-0.251
-103.947	-66.906	0.491	0.191
-102.932	154.368	0.088	0.119
-101.918	55.598	0.062	-0.059
-100.903	800.000	0.206	0.642
-99.889	192.283	-0.151	0.225
-98.874	85.415	-0.299	0.323
-97.859	-12.346	-0.225	-0.145
-96.845	721.846	0.012	-0.032
-95.830	6.407	-0.125	0.092
-94.816	-90.859	-0.111	0.032
-93.801	257.073	0.061	0.103
-92.786	-200.000	0.046	-0.243
-91.772	-200.000	-0.001	0.050
-90.757	800.000	-0.067	0.267
-89.743	-185.114	0.208	-0.003
-88.728	-200.000	-0.033	-0.301
-87.713	-135.203	0.072	-0.009
-86.699	393.587	-0.029	-0.060
-85.684	73.203	0.241	-0.248
-84.670	-97.080	-0.381	0.098
-83.655	800.000	0.066	-0.261
-82.640	293.053	0.057	-0.103
-81.626	-128.094	-0.235	-0.033
-80.611	800.000	0.089	-0.335
-79.597	-5.867	-0.192	0.129
-78.582	136.327	0.102	-0.131
-77.567	-73.925	-0.203	-0.072
-76.553	800.000	0.074	-0.226
-75.538	-147.804	0.483	-0.040
-74.524	-37.538	0.134	0.070
-73.509	573.807	-0.008	-0.020
-72.494	-188.693	-0.131	0.002
-71.480	800.000	0.071	-0.297
-70.465	-200.000	-0.615	0.001
-69.451	-2.833	-0.143	0.099
-68.436	-7.542	0.142	-0.095
-67.422	7.586	0.333	0.246
-66.407	625.838	0.051	0.126
-65.392	-54.626	0.161	-0.072
-64.378	134.025	0.188	0.240
-63.363	210.318	-0.123	0.190
-62.349	104.056	0.175	0.203
-61.334	-2.137	-0.803	-0.555
-60.319	60.787	0.599	0.585
-59.305	163.435	-0.382	-0.529
-58.290	45.572	0.727	0.661
-57.276	609.471	0.705	1.732
-56.261	-200.000	96.346	575.370
-55.246	553.045	1377.293	3257.225
-54.232	160.304	2552.939	3503.517
-53.217	112.585	2141.228	2550.369
-52.203	44.522	1605.086	1451.174
-51.188	36.605	1343.091	1166.728
-50.173	33.339	1301.597	1111.501
-49.159	55.439	1347.804	1283.322
-48.144	57.513	1364.915	1311.931
-47.130	36.709	1323.418	1150.075
-46.115	33.252	1305.828	1114.427
-45.100	33.139	1301.021	1109.614
-44.086	32.888	1298.946	1106.334
-43.071	32.747	1297.112	1103.899
-42.057	32.873	1294.548	1102.410
-41.042	32.912	1292.770	1101.079
-40.027	32.969	1291.926	1100.652
-39.013	32.930	1289.809	1098.578
-37.998	33.001	1287.902	1097.321
-36.984	32.877	1286.492	1095.354
-35.969	33.027	1284.657	1094.622
-34.954	32.969	1282.770	1092.634
-33.940	33.107	1281.687	1092.463
-32.925	33.096	1279.992	1090.910
-31.911	32.970	1278.826	1089.148
-30.896	32.996	1277.123	1087.803
-29.881	33.054	1275.648	1086.842
-28.867	33.132	1274.383	1086.166
-27.852	33.145	1272.618	1084.693
-26.838	33.158	1271.090	1083.421
-25.823	33.215	1270.495	1083.200
-24.809	33.008	1269.185	1080.852
-23.794	33.057	1267.697	1079.823
-22.779	33.151	1266.184	1079.028
-21.765	33.095	1264.668	1077.373
-20.750	33.100	1263.799	1076.622
-19.736	33.020	1262.277	1074.827
-18.721	32.965	1261.650	1073.936
-17.706	32.973	1260.263	1072.762
-16.692	33.010	1258.981	1071.838
-15.677	32.886	1258.352	1070.556
-14.663	32.946	1257.009	1069.706
-13.648	32.903	1255.907	1068.484
-12.633	32.977	1255.139	1068.210
-11.619	32.946	1254.314	1067.289
-10.604	32.910	1253.845	1066.643
-9.590	32.946	1252.503	1065.665
-8.575	32.894	1250.865	1063.935
-7.560	32.960	1250.711	1064.134
-6.546	32.913	1250.050	1063.266
-5.531	32.905	1248.800	1062.113
-4.517	32.978	1247.794	1061.624
-3.502	33.010	1247.245	1061.296
-2.487	32.923	1246.074	1059.768
-1.473	32.925	1242.437	1056.648
-0.458	31.611	1227.433	1036.575
0.556	28.752	1210.476	1000.636
1.571	25.147	1217.031	986.178
2.586	24.431	1232.503	994.636
3.600	24.053	1221.938	983.940
4.615	17.704	1148.738	891.810
5.629	7.063	1070.926	779.174
6.644	2.484	1049.981	741.724
7.659	2.089	1047.524	738.015
8.673	1.927	1046.308	736.309
9.688	1.862	1045.139	735.107
10.702	2.502	1043.592	737.037
11.717	9.138	1053.366	776.031
12.731	19.338	1068.246	836.669
13.746	24.291	1073.759	865.009
14.761	25.287	1074.525	870.380
15.775	25.219	1074.173	869.691
16.790	24.991	1073.263	867.773
17.804	24.901	1072.542	866.677
18.819	25.121	1072.371	867.528
19.834	25.146	1071.661	866.998
20.848	25.098	1071.730	866.744
21.863	25.241	1070.821	866.620
22.877	25.043	1070.675	865.470
23.892	25.068	1069.791	864.802
24.907	25.023	1069.512	864.282
25.921	25.202	1067.679	863.584
26.936	25.199	1066.393	862.456
27.950	25.027	1065.317	860.683
28.965	25.007	1063.354	858.923
29.980	24.991	1061.725	857.456
30.994	25.241	1061.083	858.058
32.009	25.189	1059.782	856.682
33.023	25.022	1058.644	854.888
34.038	25.155	1058.033	854.952
35.053	25.235	1057.368	854.721
36.067	25.254	1056.530	854.059
37.082	25.339	1055.623	853.652
38.096	25.470	1055.164	853.828
39.111	25.583	1054.513	853.767
40.126	25.284	1053.304	851.290
41.140	24.951	1051.402	848.101
42.155	24.743	1049.659	845.637
43.169	24.912	1048.913	845.763
44.184	24.824	1048.188	844.685
45.199	24.767	1047.411	843.717
46.213	24.917	1046.293	843.449
47.228	25.120	1045.226	843.468
48.242	25.048	1045.041	842.905
49.257	25.200	1044.403	843.029
50.271	25.245	1043.745	842.637
51.286	25.116	1042.863	841.245
52.301	25.161	1042.441	841.040
53.315	25.274	1040.597	840.007
54.330	25.022	1040.085	838.343
55.344	25.109	1039.508	838.208
56.359	25.021	1038.169	836.645
57.374	24.948	1036.817	835.142
58.388	24.922	1036.398	834.608
59.403	24.858	1035.681	833.658
60.417	24.778	1034.893	832.578
61.432	24.852	1034.567	832.584
62.447	24.844	1034.102	832.103
63.461	24.969	1032.865	831.610
64.476	24.816	1032.035	830.160
65.490	24.832	1030.803	829.168
66.505	24.763	1030.980	828.920
67.520	24.962	1029.580	828.640
68.534	24.693	1028.519	826.469
69.549	24.426	1027.279	824.166
70.563	24.471	1026.286	823.507
71.578	24.441	1025.848	822.945
72.593	24.239	1024.934	821.206
73.607	24.251	1024.783	821.070
74.622	24.625	1024.187	822.239
75.636	24.676	1023.406	821.777
76.651	24.491	1022.186	819.871
77.666	24.419	1021.721	819.094
78.680	24.583	1020.869	819.095
79.695	24.768	1020.362	819.463
80.709	24.823	1019.659	819.075
81.724	24.780	1018.810	818.125
82.739	24.841	1017.788	817.513
83.753	25.124	1017.935	818.850
84.768	25.446	1017.096	819.572
85.782	25.575	1015.802	819.042
86.797	25.347	1015.074	817.348
87.812	25.308	1013.629	815.932
88.826	25.353	1013.032	815.586
89.841	25.419	1012.378	815.288
90.855	25.465	1010.985	814.299
91.870	25.334	1010.380	813.146
92.884	25.159	1009.164	811.307
93.899	25.270	1008.237	810.992
94.914	25.439	1007.644	811.205
95.928	25.283	1006.256	809.313
96.943	24.995	1005.197	807.093
97.957	24.844	1003.871	805.276
98.972	24.561	1002.779	803.056
99.987	24.947	1002.217	804.271
101.001	25.144	1001.627	804.610
102.016	25.087	1000.811	803.625
103.030	25.058	999.777	802.594
104.045	24.912	998.832	801.114
105.060	24.741	998.278	799.833
106.074	24.916	997.231	799.705
107.089	25.176	997.060	800.659
108.103	25.051	995.974	799.158
109.118	24.793	994.458	796.722
110.133	24.879	993.381	796.173
111.147	24.622	992.439	794.201
112.162	24.592	991.270	793.063
113.176	24.783	990.519	793.239
114.191	24.626	990.542	792.492
115.206	24.432	988.533	789.956
116.220	24.439	988.276	789.713
117.235	24.656	987.108	789.666
118.249	24.561	986.468	788.665
119.264	24.529	985.704	787.845
120.279	24.464	985.195	787.082
121.293	24.614	984.550	787.158
122.308	24.574	983.343	785.947
123.322	24.414	982.198	784.260
124.337	24.315	981.125	782.900
125.352	23.873	979.517	779.607
126.366	23.877	978.455	778.712
127.381	24.573	978.945	782.083
128.395	25.141	978.004	783.744
129.410	25.046	977.356	782.738
130.424	25.040	976.551	782.002
131.439	25.062	975.286	781.015
132.454	25.099	974.328	780.337
133.468	25.025	973.762	779.495
134.483	25.189	972.945	779.483
135.497	25.413	972.424	779.972
136.512	25.303	971.856	778.967
137.527	25.420	970.594	778.396
138.541	25.238	970.072	777.120
139.556	25.352	969.293	776.919
140.570	25.484	968.548	776.824
141.585	25.449	967.354	775.648
142.600	25.323	966.382	774.256
143.614	25.701	965.578	775.171
144.629	25.752	964.941	774.810
145.643	25.416	963.629	772.246
146.658	25.370	962.134	770.779
147.673	25.245	961.332	769.534
148.687	25.179	960.828	768.782
149.702	25.149	959.689	767.673
150.716	25.018	959.295	766.726
151.731	25.221	958.275	766.711
152.746	25.489	957.771	767.385
153.760	25.407	957.381	766.657
154.775	25.574	956.515	766.607
155.789	25.534	955.861	765.843
156.804	25.441	954.983	764.678
157.819	25.546	953.995	764.263
158.833	25.623	953.403	764.048
159.848	25.635	952.298	763.147
160.862	25.511	951.222	761.691
161.877	25.477	950.184	760.648
162.892	25.651	949.172	760.508
163.906	25.557	947.966	759.077
164.921	25.496	947.159	758.106
165.935	25.393	946.640	757.190
166.950	25.678	945.252	757.213
167.964	25.465	944.569	755.702
168.979	25.451	943.171	754.460
169.994	25.422	942.504	753.739
171.008	25.612	942.342	754.335
172.023	25.654	941.499	753.774
173.037	25.363	940.235	751.477
174.052	25.281	939.196	750.236
175.067	25.354	938.454	749.883
176.081	25.265	938.201	749.242
177.096	25.184	937.644	748.391
178.110	25.099	936.343	746.936
179.125	24.859	935.705	745.358
180.140	25.004	935.655	745.858
181.154	25.094	934.839	745.517
182.169	25.316	935.414	746.830
183.183	25.503	935.056	747.257
184.198	25.457	933.528	745.779
185.213	25.369	933.065	744.976
186.227	25.423	932.427	744.628
187.242	25.567	931.851	744.696
188.256	25.566	930.987	743.936
189.271	25.553	930.268	743.243
190.286	25.287	929.304	741.307
191.300	24.621	927.914	737.388
192.315	23.897	926.381	733.119
193.329	23.928	925.806	732.727
194.344	24.765	926.302	736.501
195.359	25.291	926.183	738.509
196.373	25.460	925.523	738.612
197.388	25.402	924.790	737.721
198.402	25.349	924.689	737.358
199.417	25.261	924.069	736.439
200.432	25.117	923.051	734.973
201.446	25.047	922.194	733.937
202.461	25.091	921.434	733.449
203.475	24.190	919.403	728.086
204.490	23.410	918.478	724.104
205.504	24.304	918.627	727.807
206.519	24.936	918.800	730.460
207.534	25.060	918.382	730.569
208.548	25.449	917.892	731.700
209.563	25.331	916.858	730.329
210.577	25.287	916.127	729.505
211.592	25.642	915.999	730.780
212.607	25.624	915.084	729.914
213.621	25.688	914.783	729.868
214.636	25.543	914.055	728.634
215.650	25.542	912.799	727.565
216.665	25.641	912.406	727.587
217.680	25.594	911.723	726.786
218.694	25.217	910.790	724.457
219.709	25.111	909.805	723.184
220.723	25.344	910.023	724.233
221.738	25.543	908.963	724.125
222.753	25.327	908.613	722.914
223.767	25.479	908.329	723.233
224.782	25.655	908.035	723.646
225.796	25.859	907.440	723.927
226.811	25.070	905.770	719.365
227.826	24.411	904.514	715.659
228.840	24.589	903.856	715.792
229.855	24.851	902.952	716.060
230.869	24.357	902.240	713.457
231.884	24.790	902.172	715.071
232.899	25.370	902.424	717.524
233.913	25.404	901.605	716.945
234.928	25.332	901.348	716.392
235.942	25.215	900.459	715.157
236.957	24.995	899.507	713.459
237.972	25.024	899.245	713.306
238.986	25.131	898.335	712.944
240.001	25.112	898.022	712.558
241.015	25.277	897.245	712.532
242.030	25.257	897.040	712.228
243.045	25.388	896.723	712.432
244.059	25.664	895.971	712.866
245.074	25.455	894.836	711.075
246.088	24.983	894.151	708.599
247.103	25.389	893.944	709.978
248.117	25.927	894.109	712.171
249.132	26.199	893.316	712.550
250.147	26.163	893.373	712.390
251.161	26.394	892.763	712.753
252.176	26.297	891.710	711.466
253.190	26.338	891.642	711.512
254.205	26.521	890.865	711.546
255.220	26.477	890.110	710.709
256.234	26.376	889.493	709.756
257.249	26.211	888.805	708.499
258.263	26.203	888.090	707.834
259.278	26.354	887.584	707.959
260.293	26.401	887.052	707.656
261.307	26.144	887.083	706.611
262.322	26.131	885.492	705.231
263.336	25.161	883.592	699.875
264.351	24.217	881.721	694.650
265.366	24.355	881.923	695.286
266.380	25.663	882.061	700.427
267.395	26.069	881.668	701.633
268.409	25.846	880.996	700.170
269.424	26.166	880.583	701.023
270.439	26.123	880.608	700.813
271.453	26.205	879.558	700.233
272.468	26.183	879.454	700.003
273.482	26.446	879.058	700.646
274.497	25.964	877.610	697.564
275.512	25.619	876.592	695.360
276.526	25.967	877.245	697.165
277.541	26.276	876.164	697.435
278.555	25.801	875.598	695.092
279.570	25.831	874.595	694.349
280.585	26.084	874.066	694.843
281.599	25.906	873.279	693.472
282.614	25.342	871.950	690.186
283.628	25.412	871.530	690.063
284.643	25.830	871.067	691.239
285.657	25.342	869.990	688.452
286.672	25.134	869.352	687.090
287.687	25.626	869.279	688.857
288.701	25.680	868.896	688.696
289.716	25.474	867.865	687.033
290.730	25.399	867.644	686.509
291.745	25.143	866.271	684.386
292.760	25.408	866.451	685.476
293.774	26.408	866.969	689.645
294.789	26.663	866.316	690.036
295.803	26.656	865.837	689.565
296.818	26.756	865.156	689.341
297.833	26.369	863.741	686.684
298.847	26.158	863.210	685.402
299.862	26.335	863.380	686.147
300.876	26.669	863.022	687.070
301.891	26.558	862.161	685.902
302.906	26.118	861.433	683.597
303.920	26.317	860.848	683.824
304.935	26.688	860.679	685.032
305.949	26.561	859.854	683.835
306.964	26.420	859.197	682.722
307.979	26.517	858.676	682.610
308.993	26.794	858.950	683.815
310.008	26.802	857.781	682.852
311.022	26.525	857.296	681.364
312.037	26.416	856.144	679.979
313.052	26.159	855.302	678.284
314.066	25.250	854.269	673.992
315.081	24.968	853.516	672.279
316.095	25.927	853.458	675.770
317.110	26.302	853.534	677.180
318.125	25.503	852.169	673.046
319.139	24.515	850.453	667.938
320.154	24.524	849.954	667.520
321.168	25.356	850.341	670.872
322.183	26.086	850.667	673.800
323.197	26.140	850.156	673.537
324.212	26.406	850.151	674.463
325.227	26.327	849.862	673.879
326.241	26.254	848.589	672.538
327.256	26.067	848.398	671.632
328.270	26.096	847.512	670.980
329.285	25.831	846.702	669.294
330.300	25.842	845.560	668.373
331.314	25.940	845.667	668.761
332.329	26.414	845.732	670.514
333.343	26.597	845.119	670.645
334.358	26.536	844.730	670.051
335.373	26.598	844.077	669.705
336.387	26.961	844.256	671.128
337.402	26.919	843.992	670.704
338.416	26.791	843.685	669.929
339.431	26.956	843.670	670.468
340.446	27.042	843.431	670.533
341.460	27.019	842.304	669.494
342.475	26.890	841.866	668.610
343.489	27.030	841.690	668.930
344.504	27.317	841.311	669.625
345.519	27.321	841.195	669.488
346.533	27.400	840.271	668.981
347.548	27.422	839.870	668.686
348.562	27.363	839.343	667.990
349.577	27.188	839.274	667.233
350.592	27.188	838.055	666.206
351.606	27.269	837.127	665.707
352.621	27.231	836.429	664.951
353.635	27.160	835.612	663.985
354.650	26.442	834.003	660.031
355.665	25.479	832.650	655.392
356.679	25.770	832.870	656.564
357.694	26.193	832.477	657.739
358.708	26.256	831.756	657.343
359.723	26.562	831.885	658.496
360.738	26.764	831.739	659.060
361.752	27.015	831.179	659.467
362.767	27.537	830.448	660.725
363.781	27.674	830.245	661.002
364.796	27.679	829.837	660.636
365.810	27.727	829.477	660.462
366.825	27.719	828.760	659.805
367.840	27.517	828.051	658.453
368.854	27.078	826.966	655.948
369.869	27.098	826.804	655.830
370.883	26.943	826.688	655.122
371.898	26.970	826.300	654.853
372.913	26.999	826.165	654.795
373.927	27.042	825.395	654.281
374.942	27.350	824.833	654.887
375.956	27.354	824.205	654.344
376.971	27.632	823.872	655.021
377.986	27.750	823.720	655.265
379.000	27.577	823.065	654.066
380.015	27.492	822.270	653.073
381.029	27.523	822.039	652.943
382.044	27.622	821.541	652.842
383.059	27.757	821.097	652.915
384.073	27.740	820.445	652.278
385.088	27.563	819.924	651.174
386.102	27.549	818.610	650.024
387.117	27.388	818.350	649.183
388.132	27.030	817.047	646.818
389.146	26.601	816.087	644.474
390.161	26.840	816.490	645.587
391.175	27.451	816.272	647.531
392.190	27.058	814.911	644.998
393.205	25.650	812.924	638.376
394.219	24.148	811.206	631.651
395.234	24.096	811.080	631.310
396.248	25.754	812.424	638.183
397.263	27.398	813.390	644.715
398.278	27.169	812.957	643.503
399.292	26.904	812.436	642.095
400.307	27.010	811.699	641.833
401.321	27.033	811.216	641.476
402.336	27.361	811.338	642.673
403.350	27.784	811.632	644.344
404.365	28.173	811.059	645.201
405.380	28.336	811.053	645.715
406.394	28.535	810.260	645.726
407.409	28.279	809.824	644.424
408.423	28.213	809.378	643.778
409.438	28.378	809.272	644.216
410.453	28.330	808.550	643.418
411.467	28.383	807.686	642.859
412.482	28.366	807.616	642.684
413.496	28.401	807.174	642.401
414.511	28.429	806.990	642.296
415.526	28.388	806.585	641.773
416.540	28.276	805.520	640.475
417.555	28.117	804.841	639.325
418.569	28.233	804.273	639.220
419.584	28.087	803.872	638.336
420.599	27.964	803.306	637.402
421.613	111.045	1284.650	1455.610
422.628	95.905	1354.786	1455.731
