DTS Sentinel unit serial number:	SN413079Multiplexer serial number:	ORYXHardware model number:	OX4-SRSoftware version number:	ORYX F/W v4.00 Oryx Data Collector v3.7.2.0data status	okinstallation	princeton_trtdifferential loss correction	single-endedforward channel	channel 1reverse channel	N/Adate	2019/09/11time	08:48:11forward acquisition time	60.00reverse acquisition time	0.00gamma	496.2192k internal	0.2312k external	0.2312temperature offset calibration	0.9946default loss term (dB/km)	0.3790temperature slope calibration	1.0000multiplexer offset coefficient	1.0000multiplexer slope coefficient	1.0000fibre end	0.00T internal ref (°C)	33.75T ext. ref 1 (°C)	0.05T ext. ref 2 (°C)	30.99length (m)	temperature (°C)	Stokes	anti-Stokes-747.200	-30.541	0.065	-0.038
-746.185	65.164	-0.249	0.255
-745.171	154.727	0.069	-0.097
-744.156	205.583	-0.224	0.353
-743.142	221.464	0.133	0.217
-742.127	800.000	0.032	-0.093
-741.112	55.818	0.260	0.255
-740.098	-54.881	-0.170	0.078
-739.083	119.829	-0.162	-0.204
-738.069	72.983	-0.027	0.029
-737.054	-200.000	0.079	0.398
-736.039	239.883	-0.048	-0.080
-735.025	-140.584	0.328	0.035
-734.010	87.676	-0.124	0.139
-732.996	-57.840	-0.079	-0.035
-731.981	-200.000	0.022	-0.192
-730.966	-120.794	-0.272	0.047
-729.952	-115.649	-0.158	0.030
-728.937	-35.930	0.148	0.081
-727.923	-37.180	0.041	0.022
-726.908	414.440	-0.102	0.221
-725.894	-91.561	0.078	0.022
-724.879	-154.142	-0.452	-0.031
-723.864	113.085	-0.216	0.266
-722.850	-200.000	-0.020	0.132
-721.835	98.489	0.128	0.150
-720.821	-77.098	-0.218	0.077
-719.806	-200.000	-0.013	0.427
-718.791	-44.646	-0.283	-0.143
-717.777	-82.237	0.394	0.130
-716.762	-114.187	-0.255	-0.050
-715.748	-200.000	0.019	0.136
-714.733	104.757	0.191	-0.228
-713.718	-78.940	-0.271	0.094
-712.704	800.000	0.058	-0.218
-711.689	514.403	0.097	-0.230
-710.675	173.770	0.185	-0.271
-709.660	-6.680	-0.521	0.359
-708.645	-91.387	0.078	0.023
-707.631	149.744	-0.152	-0.209
-706.616	-105.891	0.125	0.029
-705.602	-200.000	-0.042	0.334
-704.587	217.546	0.085	0.137
-703.572	95.196	0.057	-0.066
-702.558	-69.790	-0.108	-0.042
-701.543	32.777	-0.046	0.040
-700.529	440.674	-0.071	-0.158
-699.514	289.251	0.217	-0.399
-698.499	-70.301	-0.132	0.051
-697.485	-200.000	0.003	0.153
-696.470	272.716	-0.033	-0.060
-695.456	182.660	0.087	-0.130
-694.441	800.000	-0.026	0.092
-693.426	-82.131	-0.183	0.060
-692.412	-3.627	0.271	-0.191
-691.397	-200.000	-0.010	0.098
-690.383	-101.191	0.197	0.049
-689.368	800.000	0.031	0.114
-688.354	-109.522	0.298	0.064
-687.339	-200.000	0.007	0.145
-686.324	-200.000	-0.003	-0.087
-685.310	106.018	0.112	-0.134
-684.295	-29.718	-0.368	0.213
-683.281	-195.037	0.248	0.002
-682.266	-86.367	-0.324	-0.101
-681.251	219.060	-0.068	-0.109
-680.237	-29.091	-0.240	-0.140
-679.222	122.306	0.100	-0.126
-678.208	135.907	-0.096	-0.127
-677.193	-200.000	-0.034	-0.280
-676.178	105.076	-0.268	0.320
-675.164	511.008	0.047	-0.111
-674.149	-200.000	-0.006	-0.187
-673.135	46.951	-0.170	-0.160
-672.120	-99.801	-0.484	0.123
-671.105	-200.000	-0.004	0.079
-670.091	-156.041	-0.409	-0.026
-669.076	33.688	0.052	0.046
-668.062	239.907	0.085	-0.143
-667.047	-83.346	0.193	0.063
-666.032	-200.000	0.075	-0.379
-665.018	-103.896	-0.246	-0.058
-664.003	-28.511	-0.130	0.076
-662.989	-200.000	-0.012	-0.076
-661.974	-111.356	0.187	-0.039
-660.959	800.000	-0.051	-0.212
-659.945	17.367	0.184	-0.148
-658.930	-200.000	-0.014	0.000
-657.916	-23.985	-0.161	-0.097
-656.901	-200.000	-0.024	-0.155
-655.886	150.107	-0.101	0.139
-654.872	-1.785	0.272	0.194
-653.857	-200.000	-0.023	-0.240
-652.843	-128.127	-0.342	0.049
-651.828	763.762	-0.060	-0.165
-650.814	-200.000	0.031	-0.137
-649.799	103.750	-0.302	-0.358
-648.784	42.788	-0.122	-0.112
-647.770	-65.633	-0.296	-0.120
-646.755	10.482	0.331	-0.254
-645.741	64.543	-0.210	-0.214
-644.726	366.726	0.025	0.051
-643.711	-8.339	0.192	0.130
-642.697	400.985	0.104	-0.221
-641.682	57.913	0.256	0.253
-640.668	-155.776	-0.179	0.012
-639.653	45.270	-0.015	0.014
-638.638	237.649	-0.076	0.127
-637.624	-17.953	-0.141	0.089
-636.609	-200.000	-0.045	0.245
-635.595	-179.298	-0.234	-0.005
-634.580	-200.000	0.005	-0.038
-633.565	508.328	-0.056	0.132
-632.551	-27.226	0.289	-0.170
-631.536	488.787	0.051	-0.117
-630.522	148.479	0.063	0.086
-629.507	135.728	0.027	-0.035
-628.492	-11.329	-0.265	-0.176
-627.478	39.437	0.202	0.183
-626.463	-152.384	-0.214	0.016
-625.449	-25.647	0.108	0.065
-624.434	-71.716	0.609	0.230
-623.419	-154.062	-0.451	-0.031
-622.405	66.100	0.162	-0.166
-621.390	114.489	-0.344	0.423
-620.376	-200.000	-0.002	-0.112
-619.361	-197.513	-0.254	0.002
-618.346	-77.915	-0.163	-0.057
-617.332	-20.172	0.257	-0.160
-616.317	181.699	0.295	-0.439
-615.303	-94.869	0.465	-0.127
-614.288	293.846	-0.140	-0.258
-613.273	139.177	0.146	-0.194
-612.259	-200.000	0.002	-0.119
-611.244	800.000	-0.091	-0.317
-610.230	-151.051	-0.318	0.024
-609.215	-54.308	-0.071	-0.032
-608.201	477.756	0.019	0.044
-607.186	-21.987	-0.202	-0.124
-606.171	-200.000	-0.004	0.150
-605.157	421.026	0.099	-0.215
-604.142	297.180	-0.181	0.335
-603.128	-73.094	-0.381	-0.141
-602.113	800.000	-0.079	-0.288
-601.098	-200.000	0.035	0.160
-600.084	-34.635	-0.152	0.084
-599.069	-143.030	-0.155	0.015
-598.055	-117.825	-0.221	0.040
-597.040	-111.817	-0.132	-0.027
-596.025	142.816	0.214	0.287
-595.011	416.433	-0.062	0.133
-593.996	78.062	0.383	0.412
-592.982	128.458	-0.138	-0.177
-591.967	-87.192	-0.256	-0.078
-590.952	69.311	-0.042	-0.044
-589.938	-200.000	0.055	0.338
-588.923	-155.082	-0.223	-0.015
-587.909	-200.000	-0.002	-0.092
-586.894	-135.178	-0.192	0.023
-585.879	-69.697	0.385	0.148
-584.865	-78.647	-0.170	0.059
-583.850	153.598	-0.083	0.115
-582.836	181.022	0.015	-0.022
-581.821	-64.278	-0.130	0.054
-580.806	-200.000	-0.011	-0.203
-579.792	123.925	0.160	0.203
-578.777	32.754	0.275	0.240
-577.763	33.076	-0.060	0.052
-576.748	79.404	0.082	-0.089
-575.733	-65.746	0.195	0.079
-574.719	800.000	0.054	0.181
-573.704	-146.372	0.402	0.035
-572.690	-70.846	0.160	-0.061
-571.675	26.443	0.297	-0.251
-570.661	-200.000	0.018	-0.326
-569.646	-179.982	0.167	-0.004
-568.631	800.000	-0.078	0.300
-567.617	800.000	0.037	0.139
-566.602	-146.570	-0.087	-0.008
-565.588	75.518	-0.270	0.287
-564.573	-72.199	-0.207	0.077
-563.558	-68.862	-0.303	-0.118
-562.544	800.000	0.047	-0.139
-561.529	26.140	0.259	-0.218
-560.515	-200.000	0.003	-0.389
-559.500	-200.000	-0.048	0.237
-558.485	-7.535	-0.033	0.023
-557.471	800.000	0.064	0.263
-556.456	1.160	0.206	-0.149
-555.442	125.404	0.257	-0.326
-554.427	-200.000	0.010	-0.091
-553.412	118.924	-0.146	-0.181
-552.398	31.938	0.370	0.321
-551.383	527.423	0.065	-0.154
-550.369	-165.609	0.317	-0.014
-549.354	-87.946	-0.211	-0.064
-548.339	158.823	-0.103	0.144
-547.325	11.282	-0.093	0.071
-546.310	82.030	-0.116	0.127
-545.296	54.316	-0.251	-0.243
-544.281	-200.000	-0.044	-0.255
-543.266	-151.282	0.063	-0.005
-542.252	174.655	-0.058	0.085
-541.237	-26.787	-0.132	-0.078
-540.223	2.524	-0.158	-0.116
-539.208	-200.000	-0.004	0.244
-538.193	-200.000	-0.013	0.177
-537.179	107.902	-0.168	-0.201
-536.164	51.884	-0.290	0.278
-535.150	-200.000	0.039	0.289
-534.135	-200.000	0.003	0.286
-533.121	-34.884	0.050	-0.027
-532.106	800.000	0.025	0.073
-531.091	-154.946	0.233	0.015
-530.077	-33.001	0.136	-0.076
-529.062	-50.641	0.054	-0.026
-528.048	133.284	0.316	0.410
-527.033	-162.723	0.129	0.006
-526.018	188.668	0.160	-0.241
-525.004	-200.000	-0.028	0.320
-523.989	-200.000	-0.013	0.194
-522.975	315.945	0.075	0.142
-521.960	116.965	0.136	-0.168
-520.945	800.000	-0.079	0.288
-519.931	-200.000	-0.034	0.172
-518.916	-184.818	0.057	-0.001
-517.902	-200.000	0.002	-0.149
-516.887	486.756	0.065	-0.150
-515.872	-200.000	-0.024	-0.289
-514.858	-96.926	0.423	-0.112
-513.843	43.500	0.079	0.072
-512.829	-72.326	0.335	-0.125
-511.814	-107.742	-0.348	0.076
-510.799	-53.146	-0.201	-0.093
-509.785	0.589	0.067	-0.048
-508.770	-82.654	0.201	0.065
-507.756	240.056	-0.067	0.113
-506.741	-122.544	-0.303	-0.049
-505.726	72.979	-0.272	0.286
-504.712	-116.526	0.159	0.030
-503.697	54.154	-0.152	0.147
-502.683	24.294	-0.136	-0.113
-501.668	-200.000	-0.048	0.389
-500.653	800.000	-0.017	0.060
-499.639	800.000	0.061	0.196
-498.624	-17.035	-0.172	0.109
-497.610	-200.000	-0.038	0.219
-496.595	-85.307	0.059	0.019
-495.581	-200.000	0.039	-0.498
-494.566	158.645	0.106	-0.147
-493.551	436.492	-0.082	0.179
-492.537	-200.000	-0.032	-0.284
-491.522	11.129	0.150	0.116
-490.508	-57.739	0.125	0.055
-489.493	775.622	0.077	-0.212
-488.478	-50.556	0.069	0.032
-487.464	6.220	-0.442	0.329
-486.449	-97.401	-0.417	-0.109
-485.435	-88.916	-0.332	-0.099
-484.420	-71.161	-0.194	0.073
-483.405	-149.060	0.370	-0.030
-482.391	-14.868	-0.138	0.089
-481.376	310.992	0.199	0.374
-480.362	-200.000	-0.025	-0.318
-479.347	429.833	-0.002	-0.004
-478.332	655.812	-0.042	-0.109
-477.318	800.000	0.112	0.453
-476.303	-29.581	-0.149	-0.085
-475.289	-137.706	0.147	0.017
-474.274	800.000	0.060	-0.178
-473.259	402.603	-0.056	0.118
-472.245	306.759	0.183	-0.343
-471.230	-71.883	-0.058	0.022
-470.216	-200.000	0.018	-0.171
-469.201	-200.000	-0.013	-0.064
-468.186	244.667	-0.027	-0.045
-467.172	24.425	0.279	-0.232
-466.157	472.229	-0.065	-0.148
-465.143	-1.903	-0.145	0.103
-464.128	-200.000	-0.009	0.052
-463.113	-200.000	0.002	-0.180
-462.099	-200.000	0.018	-0.151
-461.084	800.000	-0.099	0.425
-460.070	128.024	-0.103	-0.132
-459.055	123.760	0.385	-0.484
-458.040	137.546	0.099	-0.130
-457.026	-3.455	0.456	-0.319
-456.011	800.000	0.048	0.173
-454.997	-14.155	0.169	0.109
-453.982	348.793	0.080	-0.158
-452.968	-200.000	0.015	0.186
-451.953	394.622	0.059	-0.123
-450.938	-141.288	0.219	0.022
-449.924	248.666	0.134	0.227
-448.909	15.724	-0.478	-0.377
-447.895	552.682	0.046	-0.112
-446.880	-77.234	-0.411	0.143
-445.865	800.000	-0.008	0.024
-444.851	-82.389	0.198	-0.065
-443.836	-159.907	-0.076	-0.004
-442.822	203.085	0.096	-0.148
-441.807	-200.000	-0.067	-0.442
-440.792	-65.246	0.144	0.058
-439.778	-36.319	0.086	-0.047
-438.763	-30.197	-0.411	-0.234
-437.749	-55.578	-0.078	-0.035
-436.734	62.183	-0.150	0.150
-435.719	-200.000	0.019	-0.252
-434.705	646.204	-0.023	0.059
-433.690	-200.000	0.063	-0.379
-432.676	368.770	0.159	-0.323
-431.661	498.413	-0.143	-0.330
-430.646	-144.258	-0.271	0.025
-429.632	-131.834	0.100	-0.013
-428.617	800.000	-0.014	-0.058
-427.603	-38.285	-0.291	0.154
-426.588	343.032	0.060	0.118
-425.573	-122.899	0.139	0.022
-424.559	-107.569	0.154	0.034
-423.544	-39.338	0.116	-0.061
-422.530	-161.301	0.201	-0.010
-421.515	44.567	-0.021	0.019
-420.500	736.073	-0.151	-0.405
-419.486	-142.059	0.127	-0.013
-418.471	800.000	0.070	-0.230
-417.457	232.360	-0.043	-0.071
-416.442	-33.585	-0.279	0.155
-415.428	-200.000	0.009	0.266
-414.413	-29.389	-0.133	-0.076
-413.398	-112.574	0.308	0.061
-412.384	-148.013	0.083	0.007
-411.369	-200.000	-0.039	-0.184
-410.355	192.881	-0.085	-0.128
-409.340	187.474	0.225	0.336
-408.325	225.293	-0.142	0.230
-407.311	-200.000	-0.015	0.247
-406.296	-29.921	0.478	-0.272
-405.282	-65.256	-0.398	0.161
-404.267	338.127	0.119	-0.232
-403.252	28.397	0.153	0.129
-402.238	-41.650	-0.109	-0.056
-401.223	663.309	-0.018	0.047
-400.209	94.774	0.222	0.253
-399.194	40.520	-0.151	0.136
-398.179	-29.461	0.237	0.136
-397.165	-132.144	0.207	0.027
-396.150	-200.000	0.045	0.229
-395.136	304.132	0.125	0.231
-394.121	-200.000	-0.062	-0.321
-393.106	-164.434	-0.500	0.023
-392.092	35.656	0.352	-0.309
-391.077	800.000	-0.046	-0.146
-390.063	-90.888	0.411	0.118
-389.048	800.000	0.078	-0.235
-388.033	-34.933	-0.129	-0.070
-387.019	-200.000	0.016	0.098
-386.004	563.462	0.054	0.132
-384.990	-79.870	-0.121	-0.041
-383.975	800.000	-0.031	0.115
-382.960	-103.675	0.213	-0.050
-381.946	-200.000	-0.021	0.171
-380.931	59.191	-0.078	0.077
-379.917	-160.289	-0.397	-0.021
-378.902	-62.247	-0.314	0.131
-377.888	-0.282	0.190	0.135
-376.873	800.000	-0.072	0.268
-375.858	-85.673	0.120	0.037
-374.844	-200.000	-0.023	-0.322
-373.829	-160.780	0.248	-0.013
-372.815	-109.269	0.211	-0.045
-371.800	49.825	-0.013	0.012
-370.785	13.039	0.199	-0.154
-369.771	-134.442	0.208	0.025
-368.756	-42.236	-0.177	0.090
-367.742	-200.000	-0.012	0.185
-366.727	-200.000	-0.011	-0.174
-365.712	381.538	-0.078	0.159
-364.698	-28.956	0.185	-0.106
-363.683	63.732	0.082	0.083
-362.669	-36.116	-0.261	-0.141
-361.654	-200.000	0.040	-0.275
-360.639	800.000	-0.015	0.059
-359.625	199.742	0.189	-0.289
-358.610	60.231	0.132	0.131
-357.596	-200.000	0.091	-0.415
-356.581	-89.349	0.525	0.155
-355.566	-105.156	0.403	-0.092
-354.552	-72.709	-0.049	-0.018
-353.537	-93.068	-0.217	-0.060
-352.523	-146.305	-0.069	0.006
-351.508	31.316	-0.121	0.104
-350.493	143.765	0.281	-0.374
-349.479	-22.243	-0.102	0.062
-348.464	-200.000	-0.029	0.137
-347.450	-200.000	-0.006	0.149
-346.435	18.929	-0.243	-0.195
-345.420	56.283	0.205	0.199
-344.406	-157.591	-0.211	0.013
-343.391	-23.675	0.048	-0.029
-342.377	72.467	-0.194	0.202
-341.362	-200.000	-0.032	0.269
-340.348	322.280	0.072	0.136
-339.333	-33.046	-0.345	-0.191
-338.318	308.426	0.007	-0.012
-337.304	800.000	-0.038	0.130
-336.289	-133.723	-0.202	0.025
-335.275	40.306	0.036	0.032
-334.260	-200.000	-0.024	0.356
-333.245	-200.000	0.013	0.168
-332.231	-63.140	0.358	0.147
-331.216	-174.806	-0.057	0.002
-330.202	224.985	-0.018	-0.030
-329.187	245.382	-0.041	-0.069
-328.172	372.570	-0.159	-0.323
-327.158	-200.000	-0.016	-0.107
-326.143	72.090	-0.104	-0.108
-325.129	800.000	-0.069	-0.194
-324.114	361.752	0.150	0.300
-323.099	-200.000	-0.010	0.290
-322.085	73.020	0.187	-0.195
-321.070	-167.755	-0.370	-0.015
-320.056	-79.062	0.155	-0.053
-319.041	-65.887	-0.309	0.123
-318.026	-200.000	-0.021	0.136
-317.012	147.755	0.211	0.284
-315.997	189.982	-0.113	0.169
-314.983	85.346	0.226	-0.247
-313.968	-113.153	0.140	0.027
-312.953	192.039	-0.080	0.121
-311.939	123.350	-0.079	-0.099
-310.924	-179.220	-0.350	-0.008
-309.910	3.677	0.097	0.071
-308.895	-115.733	-0.120	-0.022
-307.880	18.136	-0.419	0.333
-306.866	-57.943	0.143	-0.062
-305.851	148.297	-0.096	0.129
-304.837	274.605	-0.108	-0.191
-303.822	472.084	0.166	-0.372
-302.807	45.575	-0.365	0.336
-301.793	-200.000	-0.000	0.200
-300.778	779.695	0.071	-0.195
-299.764	222.208	-0.107	0.172
-298.749	800.000	-0.116	-0.417
-297.735	2.265	-0.169	0.122
-296.720	-38.389	-0.372	0.197
-295.705	117.902	-0.239	0.293
-294.691	-69.006	0.207	0.079
-293.676	-68.727	0.195	-0.075
-292.662	-200.000	0.041	0.246
-291.647	21.113	0.123	0.099
-290.632	800.000	-0.032	0.115
-289.618	103.037	0.077	0.090
-288.603	-93.530	0.294	0.081
-287.589	569.099	0.040	0.098
-286.574	55.381	0.092	-0.089
-285.559	128.913	-0.272	-0.346
-284.545	-200.000	0.058	0.389
-283.530	-200.000	-0.031	0.185
-282.516	444.003	-0.087	0.190
-281.501	-200.000	-0.009	-0.223
-280.486	-175.369	0.134	0.004
-279.472	-6.969	0.123	-0.083
-278.457	8.085	-0.223	-0.167
-277.443	159.250	-0.020	0.028
-276.428	170.618	-0.130	0.186
-275.413	800.000	0.040	0.160
-274.399	-88.511	-0.219	-0.065
-273.384	276.768	0.167	0.296
-272.370	-94.131	0.140	0.038
-271.355	243.703	-0.073	0.121
-270.340	-66.856	0.145	-0.057
-269.326	800.000	-0.030	0.115
-268.311	800.000	-0.022	0.088
-267.297	-200.000	-0.004	0.220
-266.282	-45.792	0.223	0.110
-265.267	11.749	0.118	0.090
-264.253	116.202	0.043	-0.053
-263.238	63.649	0.183	0.183
-262.224	-156.043	-0.123	-0.008
-261.209	-43.293	-0.078	0.039
-260.195	800.000	0.030	-0.098
-259.180	-200.000	0.063	0.389
-258.165	-18.448	0.270	-0.168
-257.151	445.086	-0.114	-0.249
-256.136	800.000	0.057	-0.159
-255.122	132.614	0.073	-0.094
-254.107	209.171	-0.043	0.066
-253.092	793.605	0.053	0.146
-252.078	-71.507	0.166	0.062
-251.063	43.549	-0.218	-0.198
-250.049	800.000	0.067	0.272
-249.034	-200.000	0.008	0.000
-248.019	800.000	0.039	0.147
-247.005	-81.044	-0.391	0.129
-245.990	800.000	0.022	0.082
-244.976	-35.119	-0.412	0.223
-243.961	-191.472	0.197	-0.002
-242.946	-94.183	-0.138	0.038
-241.932	126.367	-0.139	-0.174
-240.917	32.330	-0.239	-0.205
-239.903	174.640	-0.147	-0.211
-238.888	223.594	-0.236	0.380
-237.873	204.510	-0.075	-0.116
-236.859	-166.924	-0.069	0.003
-235.844	277.851	-0.162	-0.287
-234.830	71.907	0.197	0.204
-233.815	-200.000	0.014	-0.114
-232.800	-71.099	-0.247	0.092
-231.786	-200.000	-0.029	0.209
-230.771	-133.057	0.253	-0.032
-229.757	-200.000	0.021	0.147
-228.742	-200.000	-0.039	0.206
-227.727	218.005	-0.065	0.103
-226.713	-200.000	-0.019	-0.103
-225.698	86.866	0.135	0.149
-224.684	-135.399	0.155	-0.018
-223.669	-40.940	0.063	0.032
-222.655	-200.000	0.096	-0.482
-221.640	-186.619	0.087	-0.001
-220.625	-61.994	0.419	-0.174
-219.611	800.000	0.087	0.294
-218.596	-200.000	0.007	-0.162
-217.582	800.000	-0.025	0.082
-216.567	-83.268	0.138	0.044
-215.552	90.633	0.120	0.133
-214.538	-151.714	0.148	0.011
-213.523	-148.484	0.352	0.029
-212.509	728.293	-0.081	-0.216
-211.494	-200.000	0.027	-0.184
-210.479	168.956	-0.180	0.255
-209.465	74.271	0.033	-0.035
-208.450	800.000	0.093	0.352
-207.436	29.114	-0.249	-0.210
-206.421	521.169	0.068	-0.159
-205.406	-199.765	-0.067	-0.000
-204.392	-122.614	-0.155	0.025
-203.377	34.829	-0.110	-0.096
-202.363	-2.752	0.209	-0.145
-201.348	228.771	-0.197	-0.319
-200.333	-8.692	-0.037	0.025
-199.319	145.088	0.169	-0.225
-198.304	800.000	0.059	-0.171
-197.290	-200.000	0.017	-0.113
-196.275	-79.809	0.186	-0.062
-195.260	202.109	-0.089	-0.136
-194.246	770.452	0.100	-0.269
-193.231	-135.672	0.164	0.019
-192.217	-27.181	-0.266	0.154
-191.202	-200.000	0.012	0.173
-190.187	-200.000	-0.026	0.133
-189.173	-200.000	0.004	-0.075
-188.158	-118.695	-0.142	0.025
-187.144	-1.116	0.091	-0.064
-186.129	145.084	-0.149	-0.199
-185.114	800.000	-0.006	0.017
-184.100	-200.000	0.093	-0.578
-183.085	-39.998	0.185	-0.096
-182.071	-200.000	-0.056	0.256
-181.056	-200.000	-0.031	-0.166
-180.042	174.354	-0.117	0.168
-179.027	-39.268	-0.172	-0.090
-178.012	28.755	0.020	0.017
-176.998	109.849	-0.179	-0.213
-175.983	-165.224	-0.227	0.010
-174.969	-153.728	0.548	0.037
-173.954	240.406	0.008	0.013
-172.939	-162.166	0.211	0.010
-171.925	132.006	-0.145	-0.185
-170.910	41.042	0.112	-0.100
-169.896	-190.260	-0.474	0.005
-168.881	346.749	-0.086	-0.169
-167.866	-89.460	-0.216	-0.063
-166.852	-126.353	-0.331	-0.049
-165.837	-65.440	0.124	-0.050
-164.823	-2.657	0.107	0.074
-163.808	-129.401	0.174	-0.024
-162.793	800.000	-0.060	0.202
-161.779	-200.000	0.027	-0.130
-160.764	-138.581	0.099	-0.011
-159.750	-141.794	0.406	0.040
-158.735	-200.000	-0.026	-0.159
-157.720	8.589	0.151	-0.112
-156.706	-100.533	-0.137	0.034
-155.691	108.607	0.123	0.146
-154.677	-200.000	-0.006	0.098
-153.662	-144.897	-0.229	-0.021
-152.647	800.000	0.009	-0.038
-151.633	377.955	-0.088	0.178
-150.618	-147.680	-0.138	-0.011
-149.604	125.544	0.187	0.234
-148.589	463.454	-0.258	0.571
-147.574	55.934	-0.115	-0.110
-146.560	-107.989	-0.317	-0.068
-145.545	-126.000	0.099	-0.015
-144.531	271.339	0.200	0.349
-143.516	-200.000	-0.004	0.345
-142.502	88.444	0.153	-0.168
-141.487	-77.646	-0.327	-0.112
-140.472	800.000	0.053	-0.163
-139.458	-50.675	0.189	-0.088
-138.443	52.321	0.128	-0.121
-137.429	-8.658	-0.104	-0.069
-136.414	-200.000	-0.038	0.470
-135.399	150.988	-0.173	0.233
-134.385	-200.000	-0.006	-0.035
-133.370	-1.407	-0.031	-0.022
-132.356	243.588	-0.093	0.154
-131.341	64.050	0.092	0.092
-130.326	-74.925	0.177	0.063
-129.312	-129.006	-0.284	-0.039
-128.297	6.292	-0.078	-0.057
-127.283	38.269	-0.119	0.105
-126.268	-8.326	-0.038	-0.025
-125.253	800.000	0.110	0.317
-124.239	393.739	0.031	0.064
-123.224	-64.979	-0.202	0.081
-122.210	-112.581	-0.114	-0.022
-121.195	192.849	-0.134	-0.201
-120.180	572.572	-0.083	0.200
-119.166	-136.684	0.482	0.055
-118.151	-65.057	-0.223	0.089
-117.137	46.181	0.190	-0.174
-116.122	-200.000	-0.032	-0.149
-115.107	-200.000	0.022	-0.105
-114.093	-200.000	0.026	0.429
-113.078	81.154	0.150	0.160
-112.064	-39.578	0.085	0.044
-111.049	178.383	-0.153	-0.222
-110.034	-200.000	-0.013	0.144
-109.020	-200.000	0.029	-0.145
-108.005	210.811	0.079	0.123
-106.991	-76.990	-0.056	0.019
-105.976	800.000	-0.022	0.089
-104.962	-69.353	-0.219	0.083
-103.947	705.896	-0.138	-0.360
-102.932	-143.689	0.090	0.008
-101.918	-18.726	-0.209	-0.129
-100.903	-133.603	-0.292	-0.036
-99.889	399.382	0.017	-0.036
-98.874	177.015	0.075	0.107
-97.859	-34.177	0.173	-0.094
-96.845	-200.000	-0.002	0.045
-95.830	196.851	0.177	0.266
-94.816	800.000	-0.032	-0.128
-93.801	800.000	0.072	0.214
-92.786	748.860	-0.106	0.284
-91.772	52.376	-0.265	-0.250
-90.757	-179.292	-0.250	0.005
-89.743	19.437	-0.268	0.213
-88.728	-6.050	-0.177	-0.120
-87.713	115.913	-0.041	0.050
-86.699	-51.404	0.344	-0.159
-85.684	258.761	-0.208	0.355
-84.670	-193.966	-0.147	-0.001
-83.655	77.286	0.145	0.153
-82.640	501.656	0.140	0.319
-81.626	156.717	-0.081	0.110
-80.611	497.775	-0.107	-0.244
-79.597	238.717	-0.079	-0.130
-78.582	264.522	-0.152	-0.261
-77.567	-87.092	-0.217	0.065
-76.553	-124.191	0.165	0.026
-75.538	60.348	0.086	0.084
-74.524	-98.278	-0.272	0.069
-73.509	-56.350	-0.348	-0.153
-72.494	-67.421	-0.219	0.085
-71.480	-88.504	0.073	0.022
-70.465	-112.561	-0.273	-0.054
-69.451	-21.738	0.061	0.036
-68.436	762.159	0.070	-0.188
-67.422	46.862	0.062	-0.057
-66.407	-69.537	-0.377	-0.143
-65.392	-170.298	-0.204	0.007
-64.378	15.311	-0.108	-0.084
-63.363	-151.652	-0.432	-0.032
-62.349	39.058	0.020	-0.018
-61.334	66.479	-0.770	-0.773
-60.319	126.564	0.475	0.594
-59.305	-200.000	-0.104	-0.760
-58.290	693.012	0.313	0.811
-57.276	800.000	0.559	1.529
-56.261	-200.000	98.749	570.426
-55.246	597.197	1411.391	3453.671
-54.232	181.408	2644.036	3840.554
-53.217	119.228	2200.692	2688.675
-52.203	45.692	1643.782	1500.148
-51.188	37.251	1376.436	1204.058
-50.173	33.993	1333.021	1146.432
-49.159	55.586	1384.026	1323.505
-48.144	59.290	1401.061	1362.465
-47.130	37.737	1354.227	1187.409
-46.115	34.024	1336.633	1149.544
-45.100	33.760	1331.966	1143.890
-44.086	33.695	1328.982	1140.896
-43.071	33.632	1326.791	1138.589
-42.057	33.654	1324.486	1136.697
-41.042	33.659	1323.267	1135.636
-40.027	33.680	1321.720	1134.390
-39.013	33.635	1319.691	1132.332
-37.998	33.679	1317.364	1130.556
-36.984	33.634	1316.463	1129.468
-35.969	33.728	1314.349	1128.172
-34.954	33.749	1312.692	1126.825
-33.940	33.727	1311.372	1125.519
-32.925	33.844	1309.396	1124.469
-31.911	33.913	1308.221	1123.824
-30.896	34.075	1306.150	1122.958
-29.881	33.915	1305.264	1121.211
-28.867	33.898	1304.302	1120.238
-27.852	33.873	1302.474	1118.474
-26.838	33.903	1301.426	1117.704
-25.823	33.862	1299.797	1116.022
-24.809	33.851	1298.345	1114.668
-23.794	33.871	1297.359	1113.894
-22.779	33.813	1295.755	1112.133
-21.765	33.777	1294.543	1110.837
-20.750	33.809	1292.928	1109.594
-19.736	33.782	1291.908	1108.518
-18.721	33.749	1290.447	1107.030
-17.706	33.633	1289.047	1105.106
-16.692	33.607	1287.837	1103.875
-15.677	33.809	1286.796	1104.112
-14.663	33.707	1286.072	1102.855
-13.648	33.664	1284.554	1101.260
-12.633	33.599	1283.831	1100.218
-11.619	33.640	1283.022	1099.722
-10.604	33.734	1281.652	1099.044
-9.590	33.617	1281.192	1097.929
-8.575	33.680	1279.811	1097.067
-7.560	33.616	1279.385	1096.289
-6.546	33.724	1277.964	1095.651
-5.531	33.625	1277.524	1094.663
-4.517	33.691	1276.157	1093.828
-3.502	33.632	1275.653	1093.011
-2.487	33.684	1274.676	1092.430
-1.473	33.726	1270.502	1089.048
-0.458	32.815	1255.611	1071.072
0.556	27.740	1237.889	1034.602
1.571	24.478	1242.591	1019.838
2.586	23.708	1258.512	1028.362
3.600	22.551	1247.062	1012.269
4.615	15.511	1170.641	912.051
5.629	4.830	1091.112	795.683
6.644	0.347	1069.578	757.422
7.659	0.084	1066.741	754.030
8.673	-0.141	1065.962	752.283
9.688	-0.079	1064.300	751.353
10.702	0.356	1062.742	752.360
11.717	6.800	1072.316	791.440
12.731	16.828	1087.029	852.943
13.746	21.227	1092.514	879.372
14.761	21.781	1093.110	882.564
15.775	21.876	1092.543	882.506
16.790	21.677	1091.066	880.234
17.804	21.359	1091.316	878.761
18.819	21.595	1090.528	879.236
19.834	21.752	1090.075	879.580
20.848	21.843	1089.629	879.599
21.863	21.804	1088.866	878.710
22.877	21.697	1088.005	877.401
23.892	21.587	1087.765	876.580
24.907	21.676	1086.985	876.318
25.921	21.708	1085.564	875.254
26.936	21.700	1084.224	874.058
27.950	21.675	1082.535	872.494
28.965	21.403	1081.361	870.117
29.980	21.639	1079.193	869.466
30.994	21.885	1078.051	869.691
32.009	21.633	1077.455	867.883
33.023	21.653	1075.906	866.659
34.038	21.731	1074.901	866.159
35.053	21.647	1074.901	865.664
36.067	21.615	1074.308	864.954
37.082	21.763	1072.733	864.336
38.096	21.909	1072.673	864.934
39.111	21.996	1071.714	864.510
40.126	21.880	1069.681	862.225
41.140	21.453	1068.308	858.945
42.155	21.324	1066.736	856.971
43.169	21.365	1065.191	855.857
44.184	21.486	1064.646	855.937
45.199	21.321	1063.452	854.093
46.213	21.385	1062.554	853.609
47.228	21.474	1061.911	853.453
48.242	21.687	1060.748	853.480
49.257	21.637	1060.215	852.730
50.271	21.771	1059.061	852.378
51.286	21.863	1058.037	851.926
52.301	21.812	1057.616	851.263
53.315	21.712	1056.428	849.749
54.330	21.659	1055.551	848.712
55.344	21.643	1054.931	848.059
56.359	21.549	1053.926	846.723
57.374	21.461	1052.633	845.182
58.388	21.434	1052.230	844.655
59.403	21.411	1050.812	843.330
60.417	21.318	1049.979	842.141
61.432	21.479	1049.276	842.277
62.447	21.680	1048.422	842.484
63.461	21.516	1048.156	841.406
64.476	21.306	1046.950	839.356
65.490	21.364	1045.617	838.492
66.505	21.463	1045.205	838.559
67.520	21.442	1044.804	838.065
68.534	21.289	1043.405	836.134
69.549	20.908	1042.494	833.511
70.563	21.019	1041.448	833.130
71.578	21.069	1040.370	832.432
72.593	20.844	1039.443	830.542
73.607	20.988	1039.026	830.822
74.622	21.294	1038.366	831.678
75.636	21.318	1037.621	831.123
76.651	21.173	1036.697	829.620
77.666	21.107	1036.303	828.918
78.680	21.107	1035.405	828.129
79.695	21.255	1034.860	828.320
80.709	21.395	1034.076	828.280
81.724	21.349	1033.085	827.196
82.739	21.363	1032.456	826.685
83.753	21.737	1031.944	827.972
84.768	21.981	1030.972	828.267
85.782	22.084	1030.238	828.090
86.797	21.865	1029.571	826.452
87.812	21.808	1028.406	825.174
88.826	21.837	1027.448	824.468
89.841	21.924	1026.838	824.314
90.855	22.020	1025.362	823.507
91.870	21.844	1024.265	821.731
92.884	21.879	1023.244	821.000
93.899	21.773	1022.291	819.667
94.914	21.945	1021.371	819.660
95.928	21.737	1020.766	818.133
96.943	21.533	1019.052	815.736
97.957	21.344	1018.011	813.948
98.972	21.191	1016.809	812.205
99.987	21.380	1016.116	812.456
101.001	21.746	1015.092	813.268
102.016	21.620	1014.588	812.207
103.030	21.508	1013.628	810.848
104.045	21.349	1012.834	809.404
105.060	21.381	1011.238	808.204
106.074	21.470	1010.848	808.232
107.089	21.880	1010.048	809.412
108.103	21.828	1008.805	808.106
109.118	21.514	1007.798	805.781
110.133	21.542	1006.744	804.999
111.147	21.274	1005.702	802.860
112.162	21.189	1004.503	801.441
113.176	21.416	1004.020	802.030
114.191	21.294	1003.219	800.759
115.206	20.973	1002.095	798.321
116.220	21.057	1001.463	798.129
117.235	21.229	1000.205	797.843
118.249	20.984	1000.178	796.634
119.264	21.067	998.927	795.945
120.279	21.210	997.937	795.737
121.293	21.130	997.853	795.235
122.308	21.224	996.346	794.390
123.322	21.121	994.916	792.713
124.337	21.014	993.652	791.151
125.352	20.480	991.994	787.343
126.366	20.441	991.196	786.463
127.381	21.279	990.908	789.953
128.395	21.672	990.332	791.201
129.410	21.806	989.599	791.148
130.424	21.730	988.403	789.780
131.439	21.678	987.814	789.008
132.454	21.601	986.853	787.822
133.468	21.629	985.725	786.980
134.483	21.739	985.473	787.202
135.497	21.948	984.256	787.098
136.512	21.972	983.452	786.490
137.527	21.994	982.338	785.632
138.541	21.830	982.083	784.625
139.556	21.909	980.993	784.036
140.570	21.961	980.328	783.669
141.585	22.083	978.859	782.969
142.600	21.872	977.907	781.199
143.614	22.107	977.214	781.618
144.629	22.242	976.510	781.586
145.643	22.052	974.925	779.405
146.658	21.977	973.628	777.968
147.673	21.811	972.992	776.657
148.687	21.609	971.797	774.738
149.702	21.755	970.473	774.262
150.716	21.749	969.584	773.455
151.731	21.710	969.497	773.146
152.746	21.988	968.565	773.559
153.760	21.985	967.839	772.898
154.775	22.078	967.578	773.031
155.789	22.151	966.210	772.191
156.804	21.958	965.668	770.840
157.819	22.105	964.594	770.559
158.833	22.264	963.483	770.302
159.848	22.070	962.889	768.909
160.862	21.921	961.697	767.239
161.877	22.065	960.682	766.988
162.892	22.102	959.935	766.485
163.906	22.094	958.239	765.029
164.921	22.000	958.029	764.386
165.935	22.173	957.028	764.274
166.950	22.135	955.918	763.153
167.964	22.107	955.073	762.290
168.979	22.010	953.918	760.878
169.994	21.873	953.028	759.508
171.008	22.086	952.500	759.944
172.023	22.115	951.440	759.157
173.037	21.925	950.632	757.621
174.052	21.836	949.534	756.297
175.067	21.750	948.919	755.369
176.081	21.972	948.624	756.025
177.096	21.737	947.833	754.316
178.110	21.609	946.933	752.984
179.125	21.515	945.969	751.746
180.140	21.480	945.708	751.321
181.154	21.574	945.494	751.490
182.169	21.936	945.222	752.757
183.183	22.089	945.022	753.190
184.198	22.021	943.691	751.768
185.213	22.031	942.652	750.919
186.227	22.099	942.118	750.716
187.242	21.994	941.636	749.819
188.256	22.183	940.781	749.880
189.271	22.242	939.872	749.338
190.286	22.039	938.704	747.476
191.300	21.271	937.784	743.410
192.315	20.683	935.689	739.186
193.329	20.510	935.719	738.408
194.344	21.391	936.267	742.520
195.359	21.948	936.183	744.754
196.373	22.006	935.658	744.518
197.388	21.853	934.622	742.976
198.402	21.936	934.178	742.910
199.417	21.964	933.468	742.397
200.432	21.719	932.481	740.513
201.446	21.570	931.984	739.423
202.461	21.545	931.182	738.614
203.475	20.621	929.629	733.424
204.490	19.889	927.911	728.920
205.504	20.880	928.715	733.662
206.519	21.436	928.667	735.900
207.534	21.625	927.703	735.867
208.548	22.059	927.693	737.615
209.563	21.790	926.833	735.738
210.577	21.857	925.799	735.134
211.592	22.129	925.608	736.055
212.607	22.131	924.950	735.477
213.621	22.151	924.562	735.184
214.636	22.140	923.697	734.387
215.650	22.154	922.511	733.436
216.665	22.266	921.937	733.383
217.680	22.108	921.526	732.335
218.694	21.783	919.876	729.604
219.709	21.480	919.843	728.254
220.723	21.796	919.503	729.234
221.738	21.927	918.714	729.089
222.753	22.027	917.518	728.490
223.767	21.918	917.628	728.059
224.782	22.193	917.255	728.840
225.796	22.239	916.651	728.485
226.811	21.586	914.918	724.343
227.826	20.945	913.568	720.561
228.840	21.064	913.365	720.828
229.855	21.309	912.273	720.915
230.869	20.900	910.987	718.152
231.884	21.293	911.679	720.252
232.899	22.023	911.383	722.962
233.913	21.883	910.913	721.947
234.928	21.875	910.119	721.223
235.942	21.852	909.680	720.718
236.957	21.542	908.676	718.582
237.972	21.499	907.938	717.763
238.986	21.632	907.336	717.766
240.001	21.549	906.967	717.070
241.015	21.778	906.083	717.246
242.030	21.913	905.823	717.530
243.045	21.922	905.319	717.104
244.059	22.050	905.075	717.371
245.074	21.925	903.509	715.552
246.088	21.585	903.043	713.735
247.103	21.896	902.354	714.396
248.117	22.503	902.330	716.782
249.132	22.486	902.278	716.612
250.147	22.744	901.371	716.872
251.161	22.880	900.877	716.971
252.176	22.798	900.553	716.319
253.190	22.844	900.086	716.069
254.205	23.024	899.259	716.075
255.220	23.069	898.402	715.511
256.234	22.745	898.145	713.936
257.249	22.681	897.173	712.837
258.263	22.698	896.302	712.154
259.278	22.890	895.593	712.301
260.293	22.779	895.254	711.519
261.307	22.720	894.785	710.847
262.322	22.575	893.338	709.049
263.336	21.690	891.822	704.229
264.351	20.746	889.972	698.918
265.366	20.730	889.927	698.756
266.380	21.865	890.443	703.654
267.395	22.384	890.239	705.512
268.409	22.492	888.948	704.860
269.424	22.637	888.412	704.953
270.439	22.739	887.541	704.606
271.453	22.701	887.353	704.244
272.468	22.819	887.119	704.466
273.482	22.964	886.257	704.297
274.497	22.526	885.205	701.655
275.512	22.182	884.179	699.410
276.526	22.426	884.621	700.671
277.541	22.606	884.142	700.946
278.555	22.508	882.952	699.549
279.570	22.408	882.021	698.352
280.585	22.581	881.516	698.579
281.599	22.503	880.875	697.698
282.614	21.818	879.611	693.925
283.628	21.956	879.095	694.004
284.643	22.210	878.886	694.780
285.657	21.921	877.285	692.314
286.672	21.520	877.010	690.455
287.687	22.168	877.083	693.006
288.701	22.235	876.061	692.401
289.716	21.884	875.196	690.276
290.730	21.902	874.598	689.812
291.745	21.594	873.616	687.766
292.760	21.874	873.864	689.001
293.774	22.920	873.925	693.094
294.789	23.056	874.068	693.682
295.803	23.153	873.207	693.318
296.818	23.312	872.174	693.058
297.833	22.776	871.077	690.030
298.847	22.704	870.458	689.196
299.862	22.925	870.389	689.944
300.876	23.178	870.058	690.610
301.891	23.127	869.034	689.536
302.906	22.714	867.837	686.915
303.920	22.804	867.722	687.117
304.935	23.177	867.607	688.417
305.949	23.032	867.152	687.429
306.964	22.828	866.306	685.906
307.979	22.952	865.546	685.723
308.993	23.301	865.627	687.082
310.008	23.290	864.854	686.365
311.022	23.042	863.851	684.550
312.037	22.834	863.477	683.388
313.052	22.796	862.597	682.481
314.066	21.776	861.079	677.284
315.081	21.493	860.180	675.422
316.095	22.404	860.738	679.318
317.110	22.812	860.292	680.479
318.125	22.107	858.735	676.475
319.139	21.158	856.958	671.368
320.154	21.159	856.755	671.150
321.168	21.971	857.307	674.646
322.183	22.594	857.394	677.049
323.197	22.834	856.898	677.521
324.212	22.998	856.433	677.719
325.227	22.970	856.064	677.262
326.241	22.892	855.067	676.115
327.256	22.746	854.646	675.163
328.270	22.584	854.465	674.339
329.285	22.405	853.612	672.922
330.300	22.112	852.844	671.141
331.314	22.509	852.424	672.266
332.329	22.975	852.123	673.745
333.343	23.031	851.923	673.738
334.358	23.049	850.935	672.968
335.373	23.158	850.728	673.159
336.387	23.351	850.799	673.889
337.402	23.393	850.909	674.076
338.416	23.470	850.278	673.809
339.431	23.477	849.759	673.367
340.446	23.682	849.462	673.849
341.460	23.468	849.093	672.684
342.475	23.315	848.404	671.500
343.489	23.337	848.017	671.217
344.504	23.612	847.857	672.072
345.519	23.753	847.479	672.247
346.533	23.877	846.763	672.088
347.548	23.869	846.363	671.680
348.562	23.681	845.917	670.558
349.577	23.698	845.422	670.172
350.592	23.792	844.483	669.719
351.606	23.775	844.005	669.218
352.621	23.658	842.887	667.833
353.635	23.512	842.107	666.608
354.650	22.816	840.861	662.950
355.665	21.950	838.902	658.100
356.679	22.385	838.922	659.687
357.694	22.845	838.710	661.186
358.708	22.614	838.088	659.774
359.723	23.110	838.027	661.523
360.738	23.431	837.416	662.180
361.752	23.613	836.748	662.272
362.767	23.848	836.727	663.073
363.781	23.939	836.633	663.281
364.796	24.078	836.408	663.562
365.810	24.206	835.627	663.359
366.825	24.093	835.293	662.617
367.840	23.948	833.993	660.986
368.854	23.448	833.308	658.530
369.869	23.568	832.892	658.587
370.883	23.608	832.722	658.544
371.898	23.472	832.221	657.584
372.913	23.567	831.840	657.578
373.927	23.557	831.628	657.313
374.942	23.621	831.117	657.088
375.956	23.923	830.595	657.736
376.971	23.978	830.387	657.717
377.986	24.021	830.052	657.552
379.000	23.947	829.738	656.970
380.015	23.908	828.758	655.992
381.029	24.033	828.150	655.914
382.044	24.213	827.701	656.162
383.059	24.185	827.003	655.448
384.073	24.166	826.248	654.721
385.088	24.143	825.577	654.048
386.102	23.990	824.968	652.946
387.117	23.955	824.629	652.491
388.132	23.446	823.668	649.810
389.146	22.967	822.493	647.073
390.161	23.454	822.278	648.628
391.175	23.927	822.015	650.093
392.190	23.408	821.806	647.972
393.205	22.203	819.171	641.442
394.219	20.753	817.338	634.670
395.234	20.743	817.395	634.621
396.248	22.471	818.131	641.437
397.263	23.815	819.383	647.258
398.278	23.583	819.062	646.102
399.292	23.544	818.103	645.145
400.307	23.510	817.710	644.658
401.321	23.692	817.290	644.930
402.336	24.007	817.429	646.127
403.350	24.314	817.091	646.916
404.365	24.543	817.378	647.916
405.380	24.822	816.260	647.983
406.394	24.829	815.845	647.621
407.409	24.957	815.593	647.827
408.423	24.702	815.425	646.716
409.438	24.763	815.122	646.637
410.453	24.785	814.467	646.140
411.467	24.691	813.803	645.219
412.482	24.663	813.729	645.001
413.496	24.830	813.519	645.381
414.511	24.854	812.808	644.844
415.526	24.822	812.337	644.298
416.540	24.677	811.423	642.995
417.555	24.326	811.049	641.379
418.569	24.551	810.552	641.739
419.584	24.542	809.634	640.923
420.599	24.304	809.278	639.728
421.613	154.408	1365.721	1793.430
422.628	134.214	1446.794	1793.511
