DTS Sentinel unit serial number:	SN413079Multiplexer serial number:	ORYXHardware model number:	OX4-SRSoftware version number:	ORYX F/W v4.00 Oryx Data Collector v3.7.2.0data status	okinstallation	princeton_trtdifferential loss correction	single-endedforward channel	channel 2reverse channel	N/Adate	2019/09/11time	21:49:11forward acquisition time	60.00reverse acquisition time	0.00gamma	496.2192k internal	0.2325k external	0.2325temperature offset calibration	1.0069default loss term (dB/km)	0.3790temperature slope calibration	1.0000multiplexer offset coefficient	1.0000multiplexer slope coefficient	1.0000fibre end	0.00T internal ref (°C)	35.69T ext. ref 1 (°C)	1.70T ext. ref 2 (°C)	29.91length (m)	temperature (°C)	Stokes	anti-Stokes-747.200	468.137	-0.127	0.287
-746.185	133.627	-0.122	-0.159
-745.171	-200.000	-0.023	-0.189
-744.156	800.000	-0.065	0.213
-743.142	307.377	0.071	0.133
-742.127	800.000	-0.082	0.350
-741.112	800.000	-0.042	-0.134
-740.098	-74.404	0.237	0.086
-739.083	77.437	0.077	-0.083
-738.069	-91.888	-0.336	0.096
-737.054	-200.000	0.004	0.149
-736.039	-132.482	-0.070	0.009
-735.025	50.798	-0.094	0.090
-734.010	14.776	-0.280	-0.221
-732.996	195.276	-0.068	-0.104
-731.981	-148.895	-0.090	-0.007
-730.966	-200.000	0.060	-0.281
-729.952	472.616	-0.129	0.293
-728.937	396.961	0.057	0.120
-727.923	-117.214	-0.039	0.007
-726.908	27.132	-0.397	-0.336
-725.894	800.000	0.049	0.169
-724.879	31.426	-0.105	-0.091
-723.864	244.676	-0.086	-0.146
-722.850	-75.385	-0.349	-0.125
-721.835	-93.817	0.328	-0.091
-720.821	800.000	0.042	-0.121
-719.806	-76.427	0.295	0.105
-718.791	-31.586	-0.061	0.034
-717.777	-200.000	-0.040	-0.278
-716.762	-127.936	-0.028	0.004
-715.748	800.000	0.025	0.083
-714.733	238.458	-0.028	-0.047
-713.718	12.261	0.145	-0.113
-712.704	-14.400	-0.168	-0.109
-711.689	-176.456	0.344	0.009
-710.675	146.509	-0.166	0.225
-709.660	-200.000	0.092	-0.582
-708.645	81.866	0.296	-0.323
-707.631	300.760	0.032	0.059
-706.616	201.497	-0.042	0.065
-705.602	-52.691	-0.286	0.133
-704.587	87.042	-0.108	-0.121
-703.572	-127.209	0.211	0.031
-702.558	-82.685	-0.243	-0.079
-701.543	-106.529	-0.093	0.021
-700.529	38.320	-0.340	0.305
-699.514	-97.939	0.364	-0.095
-698.499	46.984	-0.365	0.342
-697.485	15.391	0.087	0.069
-696.470	-111.157	0.021	0.004
-695.456	-97.005	0.408	0.108
-694.441	-84.834	-0.486	0.154
-693.426	-200.000	0.029	-0.205
-692.412	26.031	0.101	0.085
-691.397	39.443	-0.107	-0.097
-690.383	-78.738	-0.256	0.088
-689.368	-200.000	0.043	-0.203
-688.354	-21.989	0.254	0.155
-687.339	-120.680	-0.205	-0.035
-686.324	-90.024	0.113	0.033
-685.310	800.000	-0.132	-0.396
-684.295	800.000	0.016	-0.050
-683.281	108.819	0.092	-0.110
-682.266	-200.000	-0.062	-0.275
-681.251	800.000	-0.080	-0.315
-680.237	800.000	-0.032	-0.111
-679.222	-13.525	0.147	-0.096
-678.208	95.466	0.310	-0.356
-677.193	172.305	0.195	0.282
-676.178	-3.093	0.445	-0.312
-675.164	800.000	0.074	0.250
-674.149	800.000	-0.039	0.149
-673.135	-51.104	-0.219	-0.104
-672.120	-200.000	0.009	0.151
-671.105	800.000	-0.065	-0.186
-670.091	800.000	-0.050	0.148
-669.076	-48.078	-0.217	0.105
-668.062	-200.000	-0.051	-0.471
-667.047	-157.309	0.096	0.006
-666.032	800.000	-0.082	-0.321
-665.018	800.000	-0.038	0.110
-664.003	-181.216	0.138	0.003
-662.989	-200.000	-0.005	-0.081
-661.974	391.574	0.007	-0.014
-660.959	227.386	-0.071	0.116
-659.945	-4.435	0.190	0.132
-658.930	-200.000	0.014	0.113
-657.916	-82.694	-0.383	0.125
-656.901	-59.824	0.135	0.058
-655.886	-200.000	0.014	-0.395
-654.872	30.642	-0.050	-0.043
-653.857	-104.604	0.066	0.015
-652.843	-18.250	-0.334	-0.210
-651.828	800.000	0.037	-0.150
-650.814	-35.639	0.163	-0.089
-649.799	-100.365	0.493	0.123
-648.784	252.761	0.038	0.064
-647.770	800.000	0.069	0.274
-646.755	451.042	-0.084	0.187
-645.741	47.896	0.189	-0.177
-644.726	800.000	-0.037	-0.128
-643.711	-200.000	-0.004	0.048
-642.697	-165.870	0.102	-0.004
-641.682	27.996	0.109	0.092
-640.668	35.162	-0.226	-0.199
-639.653	84.244	0.350	-0.384
-638.638	-200.000	-0.034	-0.318
-637.624	-94.917	0.244	-0.066
-636.609	34.980	0.277	-0.243
-635.595	60.381	-0.009	-0.009
-634.580	-200.000	0.032	0.226
-633.565	-200.000	0.046	0.276
-632.551	-75.304	-0.143	-0.051
-631.536	-4.488	-0.152	0.106
-630.522	60.790	0.200	-0.200
-629.507	-200.000	0.010	0.174
-628.492	-200.000	0.025	-0.237
-627.478	772.934	0.075	-0.204
-626.463	-200.000	-0.007	-0.270
-625.449	-200.000	0.027	0.151
-624.434	140.963	0.095	-0.125
-623.419	71.375	0.152	-0.158
-622.405	-176.322	-0.309	0.008
-621.390	800.000	0.052	-0.186
-620.376	-200.000	-0.027	-0.177
-619.361	-39.364	-0.252	-0.133
-618.346	-173.291	-0.274	0.008
-617.332	-200.000	-0.024	-0.319
-616.317	-200.000	0.009	0.276
-615.303	459.537	0.068	-0.153
-614.288	545.315	-0.155	-0.371
-613.273	-200.000	-0.028	-0.366
-612.259	181.444	0.122	-0.180
-611.244	-200.000	-0.031	0.187
-610.230	81.900	0.076	0.083
-609.215	800.000	0.059	-0.241
-608.201	-98.603	0.131	0.034
-607.186	-56.505	-0.166	0.074
-606.171	343.160	0.065	-0.129
-605.157	52.683	-0.074	-0.071
-604.142	-80.153	0.374	0.126
-603.128	-77.016	0.246	-0.086
-602.113	42.275	-0.219	0.199
-601.098	333.508	0.050	0.096
-600.084	-142.038	-0.329	0.033
-599.069	-200.000	-0.010	-0.278
-598.055	179.675	-0.146	0.214
-597.040	151.441	0.123	0.168
-596.025	-200.000	-0.009	0.099
-595.011	-37.752	-0.358	0.191
-593.996	6.042	0.155	-0.115
-592.982	-121.744	0.153	-0.025
-591.967	302.189	0.072	0.133
-590.952	-7.930	-0.048	-0.033
-589.938	-129.451	0.151	-0.021
-588.923	-178.071	0.165	0.004
-587.909	117.278	-0.373	-0.460
-586.894	800.000	-0.039	-0.117
-585.879	-200.000	-0.002	0.171
-584.865	-200.000	0.007	0.034
-583.850	800.000	0.069	0.220
-582.836	570.471	0.054	0.133
-581.821	-53.433	-0.217	0.100
-580.806	199.902	0.294	-0.452
-579.792	-136.093	-0.165	0.019
-578.777	-71.468	-0.166	0.062
-577.763	391.677	-0.049	-0.101
-576.748	-2.219	-0.096	-0.068
-575.733	-69.074	-0.248	0.096
-574.719	-86.976	0.067	-0.021
-573.704	355.211	-0.195	-0.390
-572.690	88.144	-0.095	0.105
-571.675	667.573	0.157	-0.408
-570.661	-22.225	0.245	-0.149
-569.646	-200.000	0.003	0.161
-568.631	538.410	0.083	-0.199
-567.617	93.094	0.299	-0.339
-566.602	160.399	-0.120	0.167
-565.588	138.090	0.138	0.182
-564.573	754.700	0.017	0.047
-563.558	-200.000	-0.011	0.145
-562.544	-106.923	-0.138	-0.031
-561.529	-93.554	0.077	-0.021
-560.515	-200.000	-0.000	-0.219
-559.500	-167.580	-0.202	0.008
-558.485	-120.306	-0.223	-0.038
-557.471	-200.000	-0.011	0.059
-556.456	42.814	0.154	-0.141
-555.442	4.088	0.100	-0.073
-554.427	-112.532	-0.218	-0.044
-553.412	223.173	-0.193	-0.312
-552.398	-200.000	-0.001	-0.052
-551.383	18.585	0.035	0.028
-550.369	-152.324	0.065	0.005
-549.354	-36.472	0.345	-0.186
-548.339	55.428	-0.078	-0.076
-547.325	800.000	0.080	0.253
-546.310	138.823	0.082	0.107
-545.296	190.623	-0.197	0.297
-544.281	-24.840	-0.017	-0.010
-543.266	-127.827	0.090	-0.013
-542.252	49.950	0.034	0.032
-541.237	-200.000	0.041	-0.239
-540.223	181.766	-0.094	-0.139
-539.208	103.859	0.041	-0.048
-538.193	-50.380	-0.234	-0.111
-537.179	-194.032	-0.297	-0.002
-536.164	-200.000	0.028	-0.199
-535.150	-20.798	-0.169	0.104
-534.135	-121.510	0.339	-0.056
-533.121	632.355	0.106	-0.269
-532.106	110.812	-0.067	0.081
-531.091	95.980	-0.174	0.199
-530.077	-200.000	0.014	-0.212
-529.062	405.441	0.062	-0.131
-528.048	-118.783	0.263	0.046
-527.033	-44.963	-0.134	-0.067
-526.018	-1.559	0.275	0.194
-525.004	-24.675	-0.068	0.041
-523.989	115.340	0.317	-0.387
-522.975	-68.142	-0.086	0.034
-521.960	-153.275	-0.205	-0.014
-520.945	-31.084	-0.086	-0.049
-519.931	-200.000	0.002	0.168
-518.916	-115.163	0.186	0.035
-517.902	505.999	0.107	-0.249
-516.887	-14.679	-0.100	-0.064
-515.872	27.056	-0.182	0.153
-514.858	-65.370	0.160	-0.064
-513.843	-96.879	0.338	0.089
-512.829	1.970	-0.134	-0.097
-511.814	44.300	-0.031	-0.029
-510.799	-200.000	0.057	-0.338
-509.785	-200.000	0.029	0.133
-508.770	800.000	0.044	-0.147
-507.756	-150.537	-0.197	-0.015
-506.741	26.991	0.254	0.213
-505.726	-157.092	0.135	-0.008
-504.712	-162.987	0.133	0.006
-503.697	-200.000	0.040	-0.238
-502.683	-109.344	-0.354	-0.075
-501.668	211.606	-0.073	0.115
-500.653	649.932	-0.095	0.243
-499.639	-20.601	0.288	0.177
-498.624	-119.294	0.257	0.045
-497.610	-139.800	0.254	-0.027
-496.595	-200.000	0.004	-0.278
-495.581	654.143	-0.009	0.024
-494.566	-200.000	-0.035	0.180
-493.551	182.704	0.149	-0.219
-492.537	800.000	0.061	0.258
-491.522	21.688	0.133	0.109
-490.508	-200.000	-0.031	-0.198
-489.493	102.019	-0.145	-0.169
-488.478	73.439	0.073	0.077
-487.464	47.884	0.104	-0.097
-486.449	-94.288	0.166	-0.045
-485.435	-200.000	0.025	-0.156
-484.420	-1.931	0.080	-0.056
-483.405	81.696	-0.217	-0.235
-482.391	-200.000	-0.025	0.171
-481.376	800.000	-0.122	-0.370
-480.362	-132.107	0.248	-0.032
-479.347	93.661	-0.084	-0.096
-478.332	-5.240	-0.336	0.230
-477.318	-96.651	0.261	0.069
-476.303	-94.562	-0.042	0.011
-475.289	-49.240	0.262	-0.125
-474.274	247.296	-0.097	-0.164
-473.259	-200.000	-0.016	0.328
-472.245	-138.624	-0.185	-0.020
-471.230	668.099	-0.080	-0.207
-470.216	-171.296	-0.179	0.006
-469.201	-165.368	-0.354	-0.016
-468.186	-122.109	0.185	0.030
-467.172	414.440	-0.084	0.178
-466.157	71.414	0.196	0.203
-465.143	-105.177	-0.057	-0.013
-464.128	-21.778	-0.319	-0.194
-463.113	155.217	-0.081	-0.111
-462.099	105.510	-0.252	0.298
-461.084	-200.000	0.032	0.241
-460.070	367.472	-0.096	0.194
-459.055	800.000	0.032	-0.117
-458.040	-154.968	0.137	0.009
-457.026	-41.970	-0.015	0.007
-456.011	126.388	0.074	-0.093
-454.997	-22.253	-0.078	-0.047
-453.982	16.641	-0.187	-0.147
-452.968	-81.113	-0.194	0.064
-451.953	-136.201	-0.387	0.045
-450.938	-98.748	-0.277	0.070
-449.924	503.258	0.058	-0.133
-448.909	439.917	-0.142	0.310
-447.895	-118.432	0.395	0.070
-446.880	18.001	-0.134	0.107
-445.865	-160.818	0.382	-0.020
-444.851	-17.565	-0.143	-0.089
-443.836	-167.415	-0.150	-0.006
-442.822	63.179	-0.291	0.290
-441.807	-29.629	0.069	-0.039
-440.792	-52.927	0.095	-0.043
-439.778	-200.000	0.031	0.246
-438.763	53.172	0.240	0.229
-437.749	628.039	0.055	-0.139
-436.734	403.435	-0.066	-0.139
-435.719	-47.314	0.222	-0.108
-434.705	-138.974	-0.216	0.023
-433.690	-27.007	0.163	0.095
-432.676	-112.781	-0.261	-0.052
-431.661	-27.838	-0.267	0.154
-430.646	-200.000	0.021	-0.196
-429.632	-200.000	-0.004	-0.073
-428.617	-140.140	0.210	0.022
-427.603	100.652	-0.318	-0.368
-426.588	-79.311	-0.262	-0.089
-425.573	-200.000	0.085	-0.439
-424.559	800.000	0.060	-0.180
-423.544	-99.005	0.033	-0.008
-422.530	800.000	-0.129	0.484
-421.515	-24.915	0.042	0.025
-420.500	-157.779	-0.142	0.008
-419.486	-67.230	-0.229	0.090
-418.471	-11.838	-0.080	0.052
-417.457	544.394	0.104	0.249
-416.442	16.962	0.149	-0.118
-415.428	-168.148	-0.328	-0.013
-414.413	-70.646	-0.191	0.072
-413.398	-200.000	0.031	0.155
-412.384	-200.000	0.109	0.477
-411.369	91.284	0.293	-0.328
-410.355	-200.000	0.027	-0.134
-409.340	621.020	-0.120	0.300
-408.325	-89.034	0.229	-0.067
-407.311	-44.709	-0.139	0.069
-406.296	93.301	-0.186	0.210
-405.282	-13.972	0.284	-0.183
-404.267	217.577	0.070	-0.111
-403.252	800.000	-0.112	-0.402
-402.238	-79.145	-0.387	0.131
-401.223	697.102	-0.166	-0.435
-400.209	-200.000	0.037	-0.352
-399.194	-200.000	-0.003	0.259
-398.179	723.206	-0.051	0.134
-397.165	54.678	0.198	0.190
-396.150	0.681	0.317	0.226
-395.136	476.592	0.040	-0.089
-394.121	88.751	-0.317	0.351
-393.106	363.335	-0.057	0.114
-392.092	-12.795	-0.136	-0.088
-391.077	-169.297	0.217	-0.008
-390.063	-187.969	0.133	-0.002
-389.048	-200.000	0.002	-0.187
-388.033	800.000	0.035	-0.106
-387.019	-27.845	-0.307	0.177
-386.004	190.266	0.047	-0.071
-384.990	-3.163	0.140	-0.097
-383.975	11.387	0.196	0.149
-382.960	-98.293	-0.032	0.008
-381.946	-200.000	0.051	0.506
-380.931	-128.949	0.130	-0.018
-379.917	74.156	-0.236	-0.246
-378.902	-200.000	-0.023	0.125
-377.888	-129.120	-0.262	0.036
-376.873	-131.559	-0.285	0.037
-375.858	38.688	-0.443	0.393
-374.844	534.534	-0.120	-0.283
-373.829	-86.761	0.213	0.065
-372.815	-200.000	0.005	0.058
-371.800	-200.000	0.027	0.251
-370.785	114.713	-0.032	-0.039
-369.771	-124.293	0.038	0.006
-368.756	-22.528	-0.102	0.061
-367.742	227.151	0.087	0.141
-366.727	800.000	-0.030	-0.088
-365.712	800.000	0.157	-0.449
-364.698	-66.013	-0.211	-0.084
-363.683	84.886	0.258	0.281
-362.669	-78.477	0.267	0.091
-361.654	-200.000	-0.090	-0.529
-360.639	110.550	0.268	-0.321
-359.625	0.845	-0.235	-0.167
-358.610	-126.079	0.276	0.041
-357.596	-97.680	-0.212	0.055
-356.581	65.418	0.199	0.200
-355.566	666.120	0.141	-0.363
-354.552	-130.771	0.133	-0.018
-353.537	114.595	0.125	-0.151
-352.523	96.509	-0.236	0.268
-351.508	-34.532	-0.200	0.109
-350.493	263.072	-0.153	0.264
-349.479	-119.152	0.157	-0.027
-348.464	-52.107	0.055	-0.025
-347.450	204.943	-0.056	0.086
-346.435	-200.000	0.052	0.361
-345.420	80.826	0.017	-0.018
-344.406	159.580	0.047	0.065
-343.391	-50.286	0.047	0.022
-342.377	-106.986	0.173	-0.038
-341.362	44.871	-0.352	0.322
-340.348	114.209	0.238	-0.288
-339.333	120.502	0.211	0.260
-338.318	-200.000	-0.068	0.423
-337.304	50.892	-0.124	-0.117
-336.289	-58.355	-0.113	0.049
-335.275	52.311	0.179	0.170
-334.260	-200.000	0.334	-0.001
-333.245	256.803	0.078	0.132
-332.231	37.893	-0.103	0.091
-331.216	114.967	-0.281	-0.341
-330.202	-191.680	-0.038	-0.000
-329.187	237.029	-0.146	0.241
-328.172	704.523	-0.059	0.155
-327.158	203.430	-0.070	-0.107
-326.143	-34.249	-0.255	-0.139
-325.129	-112.212	-0.450	0.090
-324.114	74.285	-0.039	-0.041
-323.099	800.000	-0.044	0.151
-322.085	-200.000	0.048	-0.314
-321.070	64.250	-0.259	-0.259
-320.056	333.346	0.143	-0.274
-319.041	-185.006	0.157	0.002
-318.026	-100.564	-0.192	0.047
-317.012	-148.519	0.175	0.014
-315.997	2.351	-0.128	0.092
-314.983	366.667	0.009	-0.018
-313.968	55.327	0.138	0.132
-312.953	-200.000	-0.020	0.159
-311.939	-86.032	-0.246	0.075
-310.924	-200.000	0.019	0.291
-309.910	526.174	-0.056	0.132
-308.895	4.598	0.218	-0.159
-307.880	-162.715	0.105	-0.005
-306.866	-200.000	0.005	-0.148
-305.851	-200.000	0.034	-0.211
-304.837	800.000	0.040	0.135
-303.822	12.395	0.119	0.091
-302.807	-99.534	0.468	-0.117
-301.793	-110.927	-0.390	-0.080
-300.778	585.554	0.079	0.193
-299.764	-103.284	-0.152	0.036
-298.749	58.222	-0.156	-0.151
-297.735	-152.458	-0.155	-0.011
-296.720	211.900	0.112	-0.175
-295.705	-200.000	-0.063	-0.358
-294.691	293.220	0.124	-0.225
-293.676	-82.078	-0.258	-0.083
-292.662	800.000	-0.084	0.246
-291.647	-59.764	0.368	0.156
-290.632	358.176	0.179	0.354
-289.618	-68.061	-0.126	-0.049
-288.603	-79.504	-0.176	0.059
-287.589	-130.530	0.700	0.094
-286.574	411.965	-0.127	0.267
-285.559	156.257	-0.069	-0.095
-284.545	758.972	-0.048	0.129
-283.530	-200.000	0.007	-0.099
-282.516	800.000	-0.058	0.241
-281.501	-99.188	-0.368	0.092
-280.486	-95.410	0.114	0.030
-279.472	800.000	-0.088	0.332
-278.457	-19.180	0.427	-0.263
-277.443	-65.537	-0.256	0.102
-276.428	-77.428	-0.258	-0.089
-275.413	0.624	0.234	0.166
-274.399	-84.934	0.277	-0.086
-273.384	-116.718	0.151	-0.028
-272.370	-128.146	0.122	0.017
-271.355	-129.288	0.012	-0.002
-270.340	-200.000	0.003	0.132
-269.326	-20.350	0.096	0.058
-268.311	-102.448	0.130	0.031
-267.297	-142.171	0.126	-0.012
-266.282	30.768	-0.269	-0.228
-265.267	800.000	-0.078	0.261
-264.253	122.242	-0.146	0.181
-263.238	-200.000	0.013	-0.247
-262.224	-50.216	-0.155	0.073
-261.209	134.587	0.185	0.238
-260.195	-96.179	0.226	-0.059
-259.180	-200.000	-0.027	-0.136
-258.165	800.000	-0.106	-0.339
-257.151	277.130	0.117	-0.206
-256.136	105.876	0.087	0.102
-255.122	-124.379	0.371	-0.057
-254.107	703.612	0.054	-0.141
-253.092	708.886	0.076	0.198
-252.078	-156.832	0.357	-0.022
-251.063	-200.000	-0.062	-0.342
-250.049	-200.000	-0.017	-0.108
-249.034	142.745	-0.069	-0.091
-248.019	-96.353	0.093	0.024
-247.005	-34.844	0.257	0.139
-245.990	-200.000	-0.015	0.342
-244.976	325.803	0.155	0.294
-243.961	136.279	-0.159	0.205
-242.946	279.936	-0.120	0.211
-241.932	-200.000	-0.031	0.382
-240.917	692.892	-0.095	0.248
-239.903	-167.507	-0.081	0.003
-238.888	800.000	0.074	-0.217
-237.873	800.000	0.068	0.201
-236.859	-67.401	-0.115	0.045
-235.844	-200.000	0.021	-0.267
-234.830	800.000	0.046	0.142
-233.815	288.729	-0.109	0.195
-232.800	623.637	0.067	0.167
-231.786	-110.679	0.083	-0.017
-230.771	694.675	0.069	0.180
-229.757	58.578	-0.252	0.245
-228.742	-200.000	0.078	0.354
-227.727	800.000	-0.038	0.143
-226.713	60.950	-0.147	-0.145
-225.698	-200.000	0.007	0.064
-224.684	133.748	0.142	0.182
-223.669	-136.073	-0.196	-0.023
-222.655	-200.000	-0.010	-0.308
-221.640	-84.689	-0.212	0.066
-220.625	-128.733	-0.295	-0.041
-219.611	479.724	0.031	-0.071
-218.596	-200.000	0.001	-0.062
-217.582	800.000	0.086	0.319
-216.567	-200.000	-0.003	-0.120
-215.552	-100.710	0.449	-0.109
-214.538	-2.946	0.153	0.105
-213.523	800.000	-0.092	-0.299
-212.509	-3.717	-0.424	0.291
-211.494	-34.253	-0.030	-0.016
-210.479	-88.832	-0.186	0.055
-209.465	-96.667	-0.200	0.052
-208.450	-163.094	0.325	-0.016
-207.436	93.217	0.214	0.239
-206.421	-54.331	-0.247	-0.111
-205.406	-98.151	0.071	-0.018
-204.392	65.354	-0.190	-0.190
-203.377	1.326	-0.268	0.190
-202.363	137.675	0.137	0.177
-201.348	-47.728	-0.031	0.015
-200.333	212.799	0.056	-0.088
-199.319	-70.710	-0.148	0.055
-198.304	800.000	0.049	-0.143
-197.290	-200.000	0.103	-0.450
-196.275	-200.000	0.023	0.390
-195.260	-59.052	0.184	0.079
-194.246	-200.000	0.010	0.051
-193.231	-38.803	-0.119	-0.062
-192.217	152.244	-0.108	0.146
-191.202	-93.978	-0.454	-0.123
-190.187	-45.462	-0.169	-0.083
-189.173	-200.000	-0.013	0.127
-188.158	101.358	0.082	-0.094
-187.144	178.995	-0.097	-0.140
-186.129	-21.954	0.255	-0.153
-185.114	-31.980	0.473	0.261
-184.100	-90.836	0.125	0.036
-183.085	102.988	0.191	0.221
-182.071	-200.000	0.056	0.280
-181.056	-6.370	0.254	0.171
-180.042	463.372	0.172	0.378
-179.027	-52.263	0.128	-0.058
-178.012	-28.506	-0.041	0.023
-176.998	2.375	0.208	0.148
-175.983	800.000	0.049	-0.139
-174.969	-23.216	-0.197	-0.117
-173.954	139.353	-0.127	-0.165
-172.939	-59.371	-0.127	0.054
-171.925	94.883	-0.163	0.183
-170.910	153.237	-0.217	-0.293
-169.896	-104.045	0.291	0.067
-168.881	-200.000	-0.000	-0.231
-167.866	685.115	0.109	0.280
-166.852	-79.760	-0.322	0.107
-165.837	-82.252	0.267	-0.086
-164.823	-34.234	0.343	0.186
-163.808	-54.228	-0.247	-0.111
-162.793	3.575	-0.354	-0.255
-161.779	-107.374	0.258	0.056
-160.764	112.510	0.120	-0.143
-159.750	-100.396	0.244	-0.060
-158.735	-75.220	-0.143	-0.050
-157.720	280.584	0.045	-0.080
-156.706	161.599	0.161	-0.222
-155.691	800.000	-0.029	-0.082
-154.677	-128.106	-0.447	-0.063
-153.662	-200.000	-0.025	-0.149
-152.647	-10.732	0.173	-0.113
-151.633	347.524	-0.182	0.354
-150.618	581.484	-0.025	-0.061
-149.604	250.072	-0.180	-0.302
-148.589	-59.491	-0.249	0.105
-147.574	-12.206	0.199	-0.128
-146.560	-200.000	0.014	0.259
-145.545	217.695	0.133	0.209
-144.531	50.699	0.059	-0.055
-143.516	-37.234	0.067	-0.035
-142.502	-200.000	0.034	-0.159
-141.487	-17.122	-0.135	-0.084
-140.472	-48.811	-0.218	-0.103
-139.458	-76.102	0.158	-0.055
-138.443	-129.232	0.091	0.013
-137.429	119.650	-0.073	0.089
-136.414	-52.053	0.046	0.021
-135.399	-140.917	-0.131	0.013
-134.385	-200.000	0.058	-0.258
-133.370	219.632	-0.102	0.161
-132.356	167.272	0.101	0.141
-131.341	93.291	-0.048	0.054
-130.326	-200.000	0.034	0.456
-129.312	-83.543	0.306	0.097
-128.297	-200.000	0.025	-0.252
-127.283	-138.450	0.123	-0.013
-126.268	-102.063	-0.255	0.061
-125.253	-80.201	-0.200	-0.066
-124.239	585.978	0.075	0.182
-123.224	-77.028	0.336	0.116
-122.210	57.240	-0.074	-0.071
-121.195	74.169	0.077	0.080
-120.180	800.000	-0.043	-0.166
-119.166	53.556	0.089	-0.084
-118.151	-152.111	0.184	-0.013
-117.137	-22.948	-0.349	0.207
-116.122	-200.000	-0.003	-0.085
-115.107	-59.581	0.357	0.151
-114.093	156.423	0.220	0.299
-113.078	205.004	-0.156	0.239
-112.064	-200.000	0.046	-0.268
-111.049	-122.548	-0.170	0.027
-110.034	-70.454	-0.057	0.021
-109.020	17.195	0.230	0.180
-108.005	55.104	-0.189	0.180
-106.991	111.033	0.223	-0.265
-105.976	-200.000	-0.021	0.147
-104.962	-59.355	-0.077	-0.032
-103.947	-61.653	0.144	0.059
-102.932	476.455	-0.083	-0.186
-101.918	38.679	-0.049	0.043
-100.903	-200.000	0.017	-0.201
-99.889	139.025	0.135	0.174
-98.874	84.341	-0.057	-0.062
-97.859	180.425	-0.113	-0.163
-96.845	18.747	0.141	0.111
-95.830	-53.227	0.175	-0.079
-94.816	70.564	0.039	0.040
-93.801	-200.000	0.097	0.455
-92.786	157.361	-0.131	-0.178
-91.772	-200.000	-0.015	0.065
-90.757	119.957	0.204	0.249
-89.743	416.933	0.067	-0.141
-88.728	52.602	0.175	-0.164
-87.713	-200.000	0.004	-0.278
-86.699	-200.000	0.001	0.119
-85.684	147.796	-0.167	-0.221
-84.670	-63.255	0.307	0.125
-83.655	97.071	0.215	0.243
-82.640	-35.993	0.249	-0.132
-81.626	94.093	0.072	0.081
-80.611	-102.863	0.327	0.076
-79.597	232.687	0.068	-0.110
-78.582	147.729	-0.123	0.163
-77.567	381.174	0.109	0.220
-76.553	-165.454	0.312	0.013
-75.538	800.000	-0.095	-0.345
-74.524	-200.000	0.005	-0.049
-73.509	136.582	-0.045	0.058
-72.494	3.957	0.143	-0.103
-71.480	-54.209	0.140	-0.063
-70.465	800.000	0.132	0.480
-69.451	-200.000	0.015	0.311
-68.436	-101.942	-0.016	0.004
-67.422	800.000	0.084	-0.355
-66.407	800.000	-0.130	-0.379
-65.392	-86.617	0.393	0.118
-64.378	206.469	0.192	-0.294
-63.363	203.460	-0.098	-0.150
-62.349	239.664	-0.030	0.049
-61.334	28.349	-0.951	-0.790
-60.319	7.985	0.608	0.448
-59.305	800.000	-0.386	-1.128
-58.290	657.559	0.410	1.036
-57.276	526.814	0.734	1.700
-56.261	-200.000	93.850	566.916
-55.246	567.788	1364.657	3255.617
-54.232	154.912	2581.890	3486.216
-53.217	111.383	2285.689	2706.612
-52.203	45.528	1904.198	1726.992
-51.188	39.083	1692.553	1486.433
-50.173	36.193	1646.881	1424.949
-49.159	53.895	1694.866	1599.418
-48.144	57.460	1712.793	1642.937
-47.130	38.884	1669.158	1464.168
-46.115	35.759	1654.286	1427.908
-45.100	35.604	1649.190	1422.305
-44.086	35.512	1647.100	1419.762
-43.071	35.513	1644.347	1417.339
-42.057	35.497	1641.928	1415.080
-41.042	35.579	1639.715	1413.722
-40.027	35.490	1638.864	1412.276
-39.013	35.543	1635.755	1409.929
-37.998	35.468	1635.038	1408.706
-36.984	35.582	1632.980	1407.715
-35.969	35.712	1631.338	1407.192
-34.954	35.763	1629.940	1406.303
-33.940	35.683	1628.383	1404.320
-32.925	35.685	1626.619	1402.756
-31.911	35.615	1625.225	1400.991
-30.896	35.542	1623.489	1398.907
-29.881	35.698	1621.721	1398.466
-28.867	35.674	1620.081	1396.820
-27.852	35.677	1618.817	1395.697
-26.838	35.821	1616.706	1394.867
-25.823	35.746	1615.947	1393.613
-24.809	35.683	1614.388	1391.751
-23.794	35.653	1613.070	1390.344
-22.779	35.704	1611.303	1389.135
-21.765	35.717	1609.818	1387.898
-20.750	35.710	1607.865	1386.107
-19.736	35.722	1606.484	1384.944
-18.721	35.846	1604.591	1384.151
-17.706	35.759	1603.348	1382.398
-16.692	35.707	1602.094	1380.888
-15.677	35.700	1601.126	1379.953
-14.663	35.691	1599.633	1378.545
-13.648	35.761	1597.789	1377.402
-12.633	35.776	1596.450	1376.301
-11.619	35.717	1594.981	1374.554
-10.604	35.682	1593.579	1373.045
-9.590	35.793	1592.022	1372.438
-8.575	35.773	1590.898	1371.276
-7.560	35.662	1589.949	1369.614
-6.546	35.680	1588.935	1368.814
-5.531	35.675	1587.250	1367.267
-4.517	35.691	1586.502	1366.684
-3.502	35.806	1584.706	1365.900
-2.487	35.843	1583.766	1365.296
-1.473	35.501	1572.193	1352.861
-0.458	32.888	1552.899	1317.985
0.556	29.427	1553.555	1287.437
1.571	27.082	1577.919	1290.867
2.586	26.734	1592.438	1300.138
3.600	24.276	1540.244	1240.334
4.615	13.907	1427.358	1082.111
5.629	3.895	1356.906	966.316
6.644	1.836	1348.211	947.249
7.659	1.758	1346.248	945.301
8.673	1.606	1345.395	943.673
9.688	1.601	1343.637	942.326
10.702	1.336	1340.873	938.668
11.717	5.126	1348.162	967.212
12.731	15.652	1368.132	1047.355
13.746	24.025	1382.021	1110.368
14.761	25.689	1383.771	1122.061
15.775	26.009	1383.427	1123.678
16.790	25.960	1382.985	1122.912
17.804	26.048	1382.437	1122.914
18.819	26.250	1382.545	1124.161
19.834	26.394	1381.352	1123.989
20.848	26.395	1380.667	1123.336
21.863	26.410	1379.839	1122.659
22.877	26.442	1378.765	1121.884
23.892	26.398	1378.171	1121.029
24.907	26.354	1377.835	1120.383
25.921	26.448	1376.256	1119.582
26.936	26.359	1375.816	1118.572
27.950	26.397	1374.385	1117.548
28.965	26.281	1373.271	1115.824
29.980	26.348	1371.702	1114.864
30.994	26.408	1370.579	1114.221
32.009	26.387	1369.322	1112.970
33.023	26.388	1368.487	1112.203
34.038	26.399	1367.321	1111.220
35.053	26.459	1365.837	1110.288
36.067	26.278	1365.525	1108.823
37.082	26.402	1364.434	1108.598
38.096	26.447	1363.204	1107.778
39.111	26.198	1363.381	1106.299
40.126	26.444	1361.870	1106.480
41.140	26.334	1361.611	1105.500
42.155	26.304	1361.422	1105.063
43.169	26.258	1361.183	1104.492
44.184	26.403	1361.094	1105.210
45.199	26.280	1360.547	1103.916
46.213	26.373	1359.493	1103.529
47.228	26.310	1358.870	1102.540
48.242	26.323	1357.965	1101.786
49.257	26.373	1356.238	1100.595
50.271	26.331	1354.857	1099.123
51.286	26.408	1353.566	1098.446
52.301	26.320	1352.704	1097.113
53.315	26.352	1351.714	1096.405
54.330	26.395	1350.771	1095.804
55.344	26.372	1349.674	1094.677
56.359	26.357	1348.913	1093.873
57.374	26.289	1348.091	1092.700
58.388	26.394	1347.084	1092.422
59.403	26.347	1347.356	1092.260
60.417	26.281	1346.271	1090.887
61.432	26.300	1346.220	1090.866
62.447	26.440	1344.419	1090.153
63.461	26.391	1343.375	1088.916
64.476	26.442	1341.968	1087.985
65.490	26.455	1341.176	1087.322
66.505	26.356	1339.574	1085.332
67.520	26.457	1338.213	1084.742
68.534	26.426	1337.463	1083.854
69.549	26.402	1336.798	1083.071
70.563	26.411	1335.683	1082.127
71.578	26.483	1334.510	1081.512
72.593	26.308	1333.769	1079.767
73.607	26.429	1333.207	1079.942
74.622	26.385	1332.557	1079.055
75.636	26.412	1331.828	1078.530
76.651	26.399	1331.226	1077.873
77.666	26.390	1331.140	1077.656
78.680	26.258	1330.608	1076.342
79.695	26.294	1329.738	1075.755
80.709	26.387	1328.742	1075.407
81.724	26.342	1328.087	1074.516
82.739	26.352	1326.914	1073.530
83.753	26.299	1325.985	1072.368
84.768	26.384	1324.863	1071.872
85.782	26.417	1323.883	1071.177
86.797	26.378	1322.965	1070.108
87.812	26.507	1321.451	1069.557
88.826	26.516	1320.441	1068.695
89.841	26.299	1319.818	1066.818
90.855	26.447	1318.310	1066.375
91.870	26.420	1317.258	1065.268
92.884	26.408	1316.945	1064.850
93.899	26.404	1316.118	1064.067
94.914	26.463	1315.369	1063.715
95.928	26.451	1314.589	1062.920
96.943	26.479	1314.135	1062.623
97.957	26.435	1313.585	1061.824
98.972	26.436	1312.222	1060.636
99.987	26.505	1311.112	1060.045
101.001	26.384	1310.747	1058.953
102.016	26.408	1309.865	1058.282
103.030	26.414	1308.786	1057.355
104.045	26.438	1308.195	1056.922
105.060	26.471	1306.989	1056.049
106.074	26.354	1305.956	1054.437
107.089	26.412	1305.093	1053.988
108.103	26.492	1304.091	1053.549
109.118	26.507	1302.675	1052.398
110.133	26.528	1301.549	1051.519
111.147	26.479	1300.600	1050.373
112.162	26.400	1300.011	1049.349
113.176	26.475	1298.754	1048.677
114.191	26.443	1298.112	1047.879
115.206	26.477	1296.728	1046.862
116.220	26.499	1295.237	1045.693
117.235	26.547	1294.521	1045.304
118.249	26.555	1293.701	1044.591
119.264	26.620	1292.813	1044.162
120.279	26.525	1292.001	1042.865
121.293	26.561	1291.645	1042.691
122.308	26.595	1290.391	1041.781
123.322	26.574	1289.609	1040.940
124.337	26.560	1288.497	1039.870
125.352	26.525	1287.919	1039.108
126.366	26.550	1287.369	1038.714
127.381	26.609	1286.378	1038.164
128.395	26.565	1285.774	1037.329
129.410	26.610	1284.731	1036.657
130.424	26.593	1283.981	1035.861
131.439	26.575	1283.251	1035.076
132.454	26.592	1282.347	1034.357
133.468	26.462	1281.995	1033.238
134.483	26.587	1281.398	1033.378
135.497	26.570	1280.575	1032.528
136.512	26.523	1279.710	1031.467
137.527	26.570	1278.525	1030.689
138.541	26.522	1277.277	1029.321
139.556	26.526	1275.837	1028.090
140.570	26.664	1274.891	1028.021
141.585	26.542	1273.764	1026.328
142.600	26.533	1272.903	1025.495
143.614	26.564	1272.184	1024.999
144.629	26.381	1271.547	1023.357
145.643	26.565	1269.991	1023.054
146.658	26.600	1268.990	1022.356
147.673	26.450	1268.043	1020.660
148.687	26.527	1266.975	1020.143
149.702	26.424	1265.983	1018.675
150.716	26.481	1265.038	1018.142
151.731	26.428	1264.443	1017.279
152.746	26.552	1263.194	1016.879
153.760	26.642	1261.833	1016.197
154.775	26.604	1260.651	1014.944
155.789	26.527	1260.057	1013.944
156.804	26.600	1259.234	1013.601
157.819	26.475	1258.455	1012.184
158.833	26.691	1257.685	1012.684
159.848	26.724	1256.902	1012.149
160.862	26.521	1256.232	1010.387
161.877	26.677	1254.860	1010.063
162.892	26.612	1254.800	1009.561
163.906	26.573	1254.053	1008.655
164.921	26.673	1253.645	1008.796
165.935	26.652	1252.636	1007.775
166.950	26.686	1251.772	1007.180
167.964	26.582	1251.556	1006.340
168.979	26.781	1250.799	1006.744
169.994	26.703	1250.065	1005.634
171.008	26.653	1249.472	1004.793
172.023	26.697	1248.695	1004.320
173.037	26.595	1248.186	1003.256
174.052	26.796	1247.098	1003.409
175.067	26.764	1246.021	1002.272
176.081	26.705	1245.888	1001.754
177.096	26.710	1244.708	1000.742
178.110	26.678	1244.254	1000.114
179.125	26.803	1242.991	999.696
180.140	26.775	1241.992	998.651
181.154	26.697	1240.883	997.245
182.169	26.719	1239.707	996.329
183.183	26.635	1239.195	995.369
184.198	26.631	1238.073	994.358
185.213	26.681	1237.453	994.045
186.227	26.761	1235.982	993.214
187.242	26.806	1235.292	992.820
188.256	26.780	1234.890	992.267
189.271	26.803	1233.779	991.409
190.286	26.829	1232.779	990.663
191.300	26.822	1232.523	990.328
192.315	26.770	1231.961	989.505
193.329	26.762	1231.542	989.039
194.344	26.707	1231.441	988.572
195.359	26.762	1230.504	988.033
196.373	26.808	1230.136	987.897
197.388	26.757	1229.492	987.014
198.402	26.648	1229.616	986.432
199.417	26.701	1228.876	986.042
200.432	26.783	1228.023	985.715
201.446	26.808	1227.858	985.632
202.461	26.774	1226.747	984.470
203.475	26.749	1226.341	983.922
204.490	26.855	1224.700	983.091
205.504	26.795	1224.314	982.369
206.519	26.836	1223.192	981.604
207.534	26.843	1222.231	980.784
208.548	26.901	1221.007	980.028
209.563	26.925	1220.463	979.634
210.577	26.835	1219.866	978.585
211.592	26.866	1218.979	977.952
212.607	26.874	1218.189	977.274
213.621	26.882	1217.231	976.461
214.636	26.915	1216.747	976.168
215.650	26.881	1216.224	975.479
216.665	26.875	1214.655	974.100
217.680	26.863	1214.169	973.561
218.694	26.873	1213.357	972.873
219.709	26.980	1212.332	972.544
220.723	26.994	1211.908	972.191
221.738	26.831	1211.380	970.806
222.753	26.770	1211.067	970.143
223.767	26.824	1210.226	969.675
224.782	26.948	1209.566	969.723
225.796	27.018	1208.722	969.331
226.811	27.049	1208.188	968.987
227.826	26.893	1208.058	967.963
228.840	27.023	1207.365	968.017
229.855	27.065	1206.443	967.415
230.869	27.012	1206.124	966.790
231.884	26.906	1205.582	965.705
232.899	26.914	1204.453	964.758
233.913	26.972	1203.890	964.528
234.928	26.996	1203.479	964.243
235.942	27.069	1202.735	963.949
236.957	27.041	1202.086	963.197
237.972	27.003	1201.238	962.230
238.986	27.064	1200.517	961.891
240.001	27.157	1199.709	961.649
241.015	27.217	1199.185	961.463
242.030	27.152	1198.355	960.365
243.045	27.046	1197.670	959.175
244.059	27.251	1196.794	959.467
245.074	27.116	1196.642	958.548
246.088	27.205	1195.943	958.372
247.103	27.125	1194.875	957.014
248.117	27.090	1194.374	956.344
249.132	27.167	1193.449	955.920
250.147	27.235	1192.701	955.593
251.161	27.274	1191.729	954.935
252.176	27.120	1191.485	953.847
253.190	27.151	1191.079	953.603
254.205	27.233	1190.171	953.218
255.220	27.178	1189.558	952.355
256.234	27.295	1188.621	952.133
257.249	27.255	1188.172	951.483
258.263	27.327	1187.510	951.242
259.278	27.275	1187.148	950.598
260.293	27.317	1186.095	949.890
261.307	27.426	1185.379	949.799
262.322	27.379	1185.433	949.517
263.336	27.319	1184.495	948.364
264.351	27.311	1184.010	947.852
265.366	27.235	1183.785	947.192
266.380	27.239	1183.126	946.600
267.395	27.223	1182.494	945.929
268.409	27.308	1181.737	945.684
269.424	27.328	1181.304	945.355
270.439	27.335	1180.917	945.001
271.453	27.299	1180.282	944.222
272.468	27.269	1179.377	943.255
273.482	27.332	1178.212	942.570
274.497	27.489	1177.683	942.874
275.512	27.447	1177.402	942.347
276.526	27.444	1176.416	941.459
277.541	27.442	1175.456	940.600
278.555	27.362	1175.387	940.046
279.570	27.369	1174.719	939.467
280.585	27.415	1174.153	939.165
281.599	27.482	1172.849	938.389
282.614	27.435	1172.347	937.658
283.628	27.495	1171.309	937.053
284.643	27.487	1170.655	936.410
285.657	27.439	1170.058	935.603
286.672	27.446	1169.216	934.882
287.687	27.544	1168.255	934.532
288.701	27.581	1167.249	933.836
289.716	27.608	1166.718	933.468
290.730	27.431	1166.768	932.516
291.745	27.532	1165.659	932.063
292.760	27.583	1164.886	931.626
293.774	27.578	1164.601	931.287
294.789	27.620	1164.018	930.954
295.803	27.581	1163.664	930.392
296.818	27.615	1162.626	929.649
297.833	27.572	1161.916	928.781
298.847	27.664	1161.184	928.582
299.862	27.656	1160.577	927.975
300.876	27.594	1160.255	927.321
301.891	27.671	1159.592	927.099
302.906	27.723	1158.727	926.590
303.920	27.728	1158.258	926.160
304.935	27.773	1157.123	925.397
305.949	27.667	1156.791	924.513
306.964	27.649	1156.305	923.952
307.979	27.691	1155.658	923.564
308.993	27.722	1155.130	923.220
310.008	27.741	1154.158	922.458
311.022	27.748	1153.842	922.157
312.037	27.820	1152.326	921.227
313.052	27.690	1151.876	920.131
314.066	27.729	1151.129	919.649
315.081	27.800	1150.524	919.442
316.095	27.756	1149.855	918.606
317.110	27.698	1149.691	918.099
318.125	27.700	1148.945	917.430
319.139	27.854	1147.505	916.973
320.154	27.742	1147.233	916.114
321.168	27.768	1147.219	916.153
322.183	27.747	1146.547	915.431
323.197	27.865	1145.727	915.287
324.212	27.774	1145.353	914.451
325.227	27.854	1144.826	914.348
326.241	27.950	1144.264	914.299
327.256	28.020	1143.289	913.790
328.270	27.835	1142.419	912.087
329.285	27.958	1141.465	911.860
330.300	27.887	1140.932	911.000
331.314	27.914	1140.084	910.374
332.329	28.021	1139.236	910.153
333.343	28.006	1138.580	909.472
334.358	27.965	1137.812	908.573
335.373	27.923	1137.502	908.037
336.387	28.035	1136.741	907.907
337.402	28.031	1135.812	907.063
338.416	28.009	1135.286	906.455
339.431	27.835	1134.747	905.082
340.446	28.103	1134.122	905.829
341.460	28.099	1133.778	905.455
342.475	28.093	1132.733	904.511
343.489	28.091	1131.747	903.635
344.504	28.088	1130.662	902.675
345.519	28.035	1130.192	901.956
346.533	28.078	1129.440	901.488
347.548	28.142	1128.691	901.127
348.562	28.074	1128.062	900.207
349.577	28.135	1127.526	900.003
350.592	28.039	1126.988	899.022
351.606	28.082	1125.804	898.207
352.621	28.123	1125.389	898.000
353.635	28.167	1124.661	897.556
354.650	28.184	1123.902	896.954
355.665	28.108	1123.756	896.385
356.679	28.195	1122.958	896.094
357.694	28.249	1122.474	895.893
358.708	28.193	1121.782	894.987
359.723	28.046	1120.876	893.466
360.738	28.168	1120.359	893.572
361.752	28.265	1119.658	893.407
362.767	28.262	1119.071	892.848
363.781	28.366	1118.309	892.666
364.796	28.461	1117.752	892.604
365.810	28.471	1117.205	892.136
366.825	28.299	1117.242	891.251
367.840	28.300	1116.470	890.563
368.854	28.437	1115.959	890.742
369.869	28.403	1115.270	889.949
370.883	28.423	1114.264	889.162
371.898	28.342	1113.731	888.263
372.913	28.341	1113.194	887.752
373.927	28.470	1112.646	887.863
374.942	28.391	1112.191	887.040
375.956	28.399	1111.830	886.709
376.971	28.415	1111.707	886.609
377.986	28.542	1110.664	886.317
379.000	28.554	1110.182	885.909
380.015	28.550	1109.738	885.460
381.029	28.599	1108.579	884.689
382.044	28.503	1107.862	883.580
383.059	28.469	1107.453	883.009
384.073	28.599	1106.826	883.059
385.088	28.693	1106.071	882.827
386.102	28.596	1105.115	881.520
387.117	28.510	1104.330	880.403
388.132	28.566	1103.731	880.118
389.146	28.597	1102.936	879.554
390.161	28.638	1102.616	879.417
391.175	28.511	1102.166	878.371
392.190	28.494	1101.356	877.570
393.205	28.666	1100.816	877.883
394.219	28.772	1099.517	877.276
395.234	28.719	1098.827	876.396
396.248	28.696	1098.148	875.666
397.263	28.768	1097.226	875.197
398.278	28.611	1097.180	874.334
399.292	28.792	1096.093	874.253
400.307	28.674	1095.957	873.505
401.321	28.737	1095.345	873.240
402.336	28.774	1094.373	872.561
403.350	28.820	1093.784	872.234
404.365	28.633	1093.290	870.877
405.380	28.832	1092.397	871.031
406.394	28.859	1091.417	870.301
407.409	28.878	1090.876	869.881
408.423	28.854	1090.366	869.286
409.438	28.899	1089.375	868.630
410.453	28.890	1089.333	868.479
411.467	28.933	1088.066	867.595
412.482	29.020	1087.351	867.355
413.496	28.987	1087.123	866.943
414.511	28.997	1086.056	866.061
415.526	29.021	1085.676	865.794
416.540	28.971	1085.479	865.328
417.555	29.026	1084.948	865.086
418.569	29.049	1084.341	864.633
419.584	29.160	1083.557	864.453
420.599	29.128	1083.510	864.186
421.613	101.020	1315.476	1438.138
422.628	94.043	1349.269	1438.254
