DTS Sentinel unit serial number:	SN413079Multiplexer serial number:	ORYXHardware model number:	OX4-SRSoftware version number:	ORYX F/W v4.00 Oryx Data Collector v3.7.2.0data status	okinstallation	princeton_trtdifferential loss correction	single-endedforward channel	channel 2reverse channel	N/Adate	2019/09/12time	04:05:10forward acquisition time	60.00reverse acquisition time	0.00gamma	496.2192k internal	0.2326k external	0.2326temperature offset calibration	1.0096default loss term (dB/km)	0.3790temperature slope calibration	1.0000multiplexer offset coefficient	1.0000multiplexer slope coefficient	1.0000fibre end	0.00T internal ref (°C)	32.00T ext. ref 1 (°C)	2.18T ext. ref 2 (°C)	25.96length (m)	temperature (°C)	Stokes	anti-Stokes-747.200	42.296	-0.082	0.075
-746.185	69.242	0.311	0.323
-745.171	664.329	0.064	-0.166
-744.156	540.816	0.062	0.149
-743.142	800.000	0.065	0.217
-742.127	427.029	-0.060	0.130
-741.112	127.850	0.105	-0.134
-740.098	108.118	-0.178	-0.215
-739.083	210.981	0.033	-0.052
-738.069	-179.065	0.322	-0.007
-737.054	-200.000	0.041	-0.214
-736.039	-94.376	-0.443	-0.122
-735.025	-86.131	0.245	0.076
-734.010	-154.729	-0.397	-0.027
-732.996	-113.774	-0.096	-0.019
-731.981	-49.547	0.181	0.087
-730.966	-200.000	0.005	0.122
-729.952	-172.529	-0.033	-0.001
-728.937	-58.680	0.274	-0.120
-727.923	430.853	-0.224	-0.490
-726.908	-27.646	-0.203	0.119
-725.894	165.443	-0.044	0.063
-724.879	765.719	-0.153	-0.419
-723.864	-81.621	0.144	-0.048
-722.850	-72.104	0.316	0.118
-721.835	-110.854	0.251	0.052
-720.821	88.862	-0.095	0.107
-719.806	-200.000	-0.070	-0.330
-718.791	214.625	0.227	-0.362
-717.777	-199.948	-0.291	0.001
-716.762	-58.985	-0.212	0.092
-715.748	-138.891	-0.375	0.041
-714.733	-200.000	-0.086	-0.513
-713.718	-200.000	0.025	-0.222
-712.704	395.016	-0.018	0.038
-711.689	-124.678	-0.412	-0.064
-710.675	800.000	-0.041	0.180
-709.660	-200.000	0.000	-0.107
-708.645	-200.000	0.056	0.273
-707.631	-161.831	-0.203	0.010
-706.616	29.567	-0.382	0.327
-705.602	1.655	-0.488	-0.354
-704.587	15.227	0.290	0.229
-703.572	-53.770	-0.072	-0.033
-702.558	314.908	-0.273	-0.518
-701.543	-200.000	-0.019	-0.116
-700.529	417.448	0.041	0.087
-699.514	147.596	-0.135	0.184
-698.499	423.970	-0.059	0.127
-697.485	-36.982	-0.219	-0.118
-696.470	-30.723	-0.188	0.107
-695.456	-200.000	-0.007	-0.118
-694.441	88.401	-0.191	-0.213
-693.426	-156.677	-0.081	-0.005
-692.412	800.000	0.044	-0.140
-691.397	-106.880	-0.366	0.082
-690.383	-65.070	0.212	-0.086
-689.368	68.842	0.257	-0.266
-688.354	-88.325	-0.193	0.058
-687.339	34.247	0.070	-0.062
-686.324	251.751	0.202	0.346
-685.310	411.514	-0.059	-0.126
-684.295	-106.565	-0.206	-0.046
-683.281	95.278	0.114	-0.131
-682.266	-77.393	0.094	0.033
-681.251	-123.546	-0.199	-0.032
-680.237	253.188	-0.219	0.376
-679.222	74.360	0.186	0.197
-678.208	-200.000	0.015	-0.100
-677.193	-200.000	0.069	-0.423
-676.178	-200.000	0.038	-0.174
-675.164	599.020	0.103	0.257
-674.149	-133.982	0.466	-0.058
-673.135	-200.000	0.035	-0.339
-672.120	23.629	0.146	0.121
-671.105	800.000	-0.122	-0.475
-670.091	-190.833	-0.284	-0.003
-669.076	101.165	-0.070	-0.082
-668.062	-200.000	-0.024	-0.244
-667.047	45.966	-0.214	-0.199
-666.032	109.462	0.207	-0.249
-665.018	173.618	0.223	-0.323
-664.003	366.531	-0.091	0.185
-662.989	-162.429	-0.083	0.004
-661.974	42.669	0.388	-0.356
-660.959	242.186	-0.163	-0.274
-659.945	800.000	-0.122	-0.424
-658.930	321.330	-0.061	0.117
-657.916	-44.893	0.295	-0.148
-656.901	234.391	0.174	-0.288
-655.886	-98.620	0.241	-0.062
-654.872	-200.000	0.002	0.132
-653.857	-140.752	0.323	-0.034
-652.843	-50.771	0.098	-0.046
-651.828	-83.715	0.362	0.116
-650.814	355.475	0.146	-0.292
-649.799	-86.610	-0.534	-0.165
-648.784	-200.000	0.047	-0.347
-647.770	-116.552	-0.306	0.057
-646.755	800.000	0.037	-0.129
-645.741	-96.447	-0.263	0.070
-644.726	108.012	0.090	0.107
-643.711	-200.000	0.037	-0.173
-642.697	-200.000	0.007	-0.383
-641.682	11.303	0.349	-0.269
-640.668	-43.935	0.180	0.091
-639.653	139.851	-0.085	-0.113
-638.638	-200.000	0.001	-0.051
-637.624	753.949	-0.176	-0.478
-636.609	-73.844	-0.111	0.040
-635.595	-94.211	-0.351	-0.097
-634.580	151.362	-0.035	-0.048
-633.565	201.319	-0.058	0.090
-632.551	204.415	-0.074	0.116
-631.536	-30.058	-0.297	0.170
-630.522	31.948	0.282	-0.244
-629.507	800.000	0.063	-0.216
-628.492	-88.216	0.222	-0.067
-627.478	-114.151	-0.052	0.010
-626.463	183.869	-0.101	0.150
-625.449	-188.980	-0.274	-0.003
-624.434	-42.543	0.078	-0.040
-623.419	144.441	0.155	0.208
-622.405	-200.000	-0.012	0.114
-621.390	546.110	0.007	0.016
-620.376	-96.062	-0.147	-0.039
-619.361	-39.618	-0.128	0.067
-618.346	-161.357	0.239	0.012
-617.332	-17.133	0.287	0.182
-616.317	-41.103	0.229	-0.119
-615.303	66.364	0.262	0.267
-614.288	79.832	0.220	0.237
-613.273	217.738	0.198	0.317
-612.259	800.000	0.110	-0.387
-611.244	-91.508	0.227	-0.065
-610.230	71.059	-0.150	0.156
-609.215	-9.884	0.334	-0.223
-608.201	800.000	-0.067	0.239
-607.186	325.131	-0.191	0.366
-606.171	-200.000	-0.069	-0.328
-605.157	111.285	0.146	0.176
-604.142	132.344	-0.129	0.167
-603.128	-80.178	0.150	0.051
-602.113	-200.000	0.004	0.083
-601.098	-200.000	-0.032	0.334
-600.084	47.854	0.360	-0.337
-599.069	-26.764	-0.025	-0.015
-598.055	-146.837	-0.411	0.036
-597.040	446.761	0.152	0.336
-596.025	426.482	-0.104	0.225
-595.011	-9.993	-0.344	0.229
-593.996	508.320	0.093	0.217
-592.982	118.406	-0.245	0.303
-591.967	47.748	0.142	0.133
-590.952	161.525	0.148	-0.207
-589.938	-200.000	-0.004	-0.054
-588.923	-200.000	-0.043	-0.315
-587.909	-200.000	0.011	-0.249
-586.894	-92.063	-0.270	-0.076
-585.879	-144.759	-0.082	-0.008
-584.865	-68.171	-0.112	0.044
-583.850	40.084	0.332	0.299
-582.836	-139.227	0.106	-0.011
-581.821	800.000	-0.091	-0.259
-580.806	-15.240	-0.295	-0.189
-579.792	-172.121	-0.366	0.012
-578.777	-101.125	-0.074	-0.018
-577.763	273.495	-0.090	-0.159
-576.748	-42.734	-0.455	0.232
-575.733	-114.380	-0.146	0.028
-574.719	146.024	0.123	0.165
-573.704	56.175	-0.401	-0.390
-572.690	-200.000	0.030	-0.193
-571.675	184.289	-0.034	-0.051
-570.661	59.358	-0.331	-0.327
-569.646	-200.000	0.046	-0.382
-568.631	98.504	0.159	0.184
-567.617	800.000	-0.051	-0.217
-566.602	-102.445	0.207	-0.050
-565.588	60.359	0.158	0.157
-564.573	49.677	-0.032	-0.031
-563.558	253.028	-0.060	-0.103
-562.544	-71.331	0.338	-0.127
-561.529	-103.200	0.027	-0.006
-560.515	471.308	0.149	0.336
-559.500	-87.930	0.158	0.047
-558.485	-200.000	-0.009	-0.084
-557.471	-50.457	-0.147	-0.069
-556.456	-200.000	0.040	0.229
-555.442	-11.162	-0.265	-0.175
-554.427	-150.468	-0.124	-0.010
-553.412	-200.000	0.007	0.045
-552.398	445.649	-0.074	-0.162
-551.383	800.000	0.054	-0.231
-550.369	-44.015	0.178	0.089
-549.354	287.718	0.134	0.243
-548.339	-71.037	-0.160	-0.060
-547.325	370.738	-0.056	-0.113
-546.310	22.507	-0.153	-0.125
-545.296	98.140	-0.059	-0.068
-544.281	-132.524	-0.168	-0.022
-543.266	168.113	0.035	0.051
-542.252	32.974	-0.172	-0.149
-541.237	93.754	-0.109	-0.124
-540.223	130.500	-0.127	-0.163
-539.208	-14.948	0.124	-0.080
-538.193	-48.121	0.291	0.141
-537.179	580.543	-0.040	0.099
-536.164	-187.839	0.447	-0.006
-535.150	-19.342	-0.056	-0.035
-534.135	83.058	0.328	-0.357
-533.121	278.726	0.027	0.047
-532.106	115.111	-0.141	-0.173
-531.091	105.703	-0.109	0.129
-530.077	-44.851	0.235	-0.117
-529.062	800.000	0.061	0.233
-528.048	-200.000	0.014	0.245
-527.033	-6.198	0.109	0.075
-526.018	16.876	-0.204	-0.161
-525.004	459.953	0.051	-0.114
-523.989	-46.099	-0.113	0.056
-522.975	800.000	0.069	0.208
-521.960	421.376	-0.144	0.309
-520.945	68.412	-0.081	-0.083
-519.931	-124.566	-0.310	0.048
-518.916	-119.286	0.128	-0.022
-517.902	-47.381	0.046	-0.023
-516.887	74.853	-0.038	-0.040
-515.872	-200.000	-0.133	-0.651
-514.858	-88.265	0.170	-0.051
-513.843	-200.000	-0.070	-0.345
-512.829	540.817	-0.105	-0.250
-511.814	189.982	-0.227	-0.340
-510.799	-35.646	0.268	-0.146
-509.785	45.748	-0.117	-0.108
-508.770	-73.312	-0.169	0.062
-507.756	-103.762	0.315	0.074
-506.741	379.008	0.229	-0.468
-505.726	138.171	-0.134	-0.176
-504.712	-198.456	0.152	0.001
-503.697	800.000	0.074	0.276
-502.683	105.965	-0.346	-0.409
-501.668	800.000	0.029	-0.118
-500.653	-28.596	-0.178	0.102
-499.639	-200.000	0.047	-0.354
-498.624	-73.928	-0.235	0.085
-497.610	182.943	-0.156	0.230
-496.595	109.582	0.055	0.066
-495.581	112.366	-0.279	0.337
-494.566	-200.000	-0.001	-0.069
-493.551	215.868	0.037	0.058
-492.537	-200.000	0.041	0.259
-491.522	263.438	0.113	0.195
-490.508	65.539	0.034	0.034
-489.493	420.209	-0.212	-0.454
-488.478	1.181	-0.526	0.377
-487.464	-158.016	0.044	-0.003
-486.449	-58.524	0.531	0.230
-485.435	-81.594	-0.165	0.054
-484.420	-36.001	0.069	-0.037
-483.405	-200.000	-0.001	-0.107
-482.391	22.732	-0.024	-0.020
-481.376	56.134	-0.183	0.177
-480.362	260.930	-0.060	-0.103
-479.347	27.864	0.185	0.155
-478.332	110.874	0.270	0.324
-477.318	-200.000	0.061	0.311
-476.303	132.692	0.091	0.117
-475.289	-117.284	-0.224	-0.041
-474.274	-27.824	-0.335	-0.194
-473.259	334.464	0.035	0.067
-472.245	370.275	0.132	-0.266
-471.230	800.000	0.088	-0.245
-470.216	307.980	-0.079	-0.148
-469.201	-109.210	0.259	0.055
-468.186	800.000	0.026	0.107
-467.172	800.000	-0.039	-0.130
-466.157	-121.838	-0.326	-0.054
-465.143	-45.598	0.137	-0.068
-464.128	-8.555	-0.194	-0.130
-463.113	323.617	-0.151	0.287
-462.099	-31.335	0.077	-0.043
-461.084	-8.115	0.364	-0.245
-460.070	99.287	0.119	-0.137
-459.055	-93.078	0.016	-0.005
-458.040	738.086	-0.095	0.255
-457.026	39.943	0.247	-0.221
-456.011	93.176	0.132	-0.149
-454.997	209.620	-0.125	0.195
-453.982	115.756	-0.154	0.188
-452.968	-139.132	-0.178	-0.019
-451.953	-200.000	-0.058	-0.261
-450.938	204.323	0.084	0.130
-449.924	455.744	-0.122	-0.270
-448.909	-9.850	0.257	0.170
-447.895	-200.000	-0.077	-0.344
-446.880	475.407	0.075	-0.169
-445.865	-68.919	0.163	0.063
-444.851	493.223	0.107	0.244
-443.836	-200.000	0.033	-0.158
-442.822	800.000	0.022	-0.095
-441.807	249.095	0.144	0.243
-440.792	469.993	0.064	-0.144
-439.778	-128.005	0.101	-0.014
-438.763	199.478	-0.146	-0.224
-437.749	323.723	0.079	-0.150
-436.734	307.276	-0.111	0.206
-435.719	-200.000	-0.004	-0.123
-434.705	-200.000	-0.055	-0.300
-433.690	137.272	0.103	-0.134
-432.676	-75.320	-0.153	-0.054
-431.661	-200.000	0.003	-0.098
-430.646	-55.464	0.277	0.124
-429.632	-119.784	-0.188	0.032
-428.617	-170.266	0.062	0.002
-427.603	293.688	-0.211	0.383
-426.588	-40.961	0.304	-0.157
-425.573	-33.495	-0.248	-0.137
-424.559	19.423	0.363	-0.291
-423.544	-118.801	-0.087	-0.015
-422.530	-54.501	-0.087	0.039
-421.515	308.454	0.168	0.313
-420.500	800.000	0.054	0.201
-419.486	800.000	-0.089	0.356
-418.471	-34.529	-0.127	0.069
-417.457	-200.000	0.008	-0.128
-416.442	438.584	-0.061	0.133
-415.428	800.000	0.071	0.239
-414.413	-96.101	-0.183	0.048
-413.398	407.356	-0.076	0.161
-412.384	782.989	0.049	-0.132
-411.369	43.321	0.200	0.182
-410.355	663.177	-0.091	0.234
-409.340	-76.298	-0.134	-0.047
-408.325	-200.000	-0.011	-0.217
-407.311	-60.497	-0.169	-0.072
-406.296	254.589	0.048	0.082
-405.282	-200.000	-0.028	0.125
-404.267	327.484	0.104	-0.199
-403.252	-200.000	0.037	0.218
-402.238	-59.094	-0.341	-0.146
-401.223	-133.235	0.232	0.029
-400.209	7.066	-0.100	0.074
-399.194	91.108	-0.050	0.056
-398.179	379.845	-0.149	0.304
-397.165	800.000	-0.061	0.228
-396.150	46.928	-0.176	0.163
-395.136	340.119	0.097	0.189
-394.121	48.833	0.098	-0.091
-393.106	-153.033	-0.195	0.014
-392.092	30.390	-0.029	0.024
-391.077	-200.000	-0.070	-0.526
-390.063	-141.226	0.336	0.034
-389.048	-111.715	-0.359	0.072
-388.033	-200.000	0.025	0.192
-387.019	381.142	0.135	-0.276
-386.004	-36.136	0.065	-0.035
-384.990	-200.000	-0.031	0.143
-383.975	-66.564	-0.141	0.056
-382.960	-79.409	0.245	0.083
-381.946	-93.368	-0.188	-0.052
-380.931	-107.917	0.281	-0.061
-379.917	167.168	-0.178	0.251
-378.902	152.271	0.112	0.151
-377.888	-168.962	-0.185	-0.007
-376.873	8.077	-0.041	-0.030
-375.858	68.965	0.142	0.145
-374.844	-87.040	0.309	0.093
-373.829	800.000	-0.027	0.116
-372.815	-200.000	-0.074	0.431
-371.800	127.011	-0.167	0.210
-370.785	-79.386	-0.294	-0.099
-369.771	-79.676	0.110	-0.037
-368.756	602.300	-0.032	-0.080
-367.742	621.325	0.090	-0.225
-366.727	-130.292	0.257	-0.035
-365.712	13.562	0.043	-0.033
-364.698	-200.000	0.006	0.089
-363.683	-111.793	-0.145	-0.029
-362.669	93.286	0.297	-0.333
-361.654	-120.753	-0.407	0.068
-360.639	-200.000	0.047	0.277
-359.625	-200.000	-0.000	-0.113
-358.610	-200.000	-0.005	0.383
-357.596	-200.000	-0.011	-0.136
-356.581	391.847	-0.118	0.243
-355.566	-73.737	-0.157	0.057
-354.552	166.333	-0.236	0.332
-353.537	800.000	-0.038	0.156
-352.523	689.786	0.077	-0.199
-351.508	-89.504	-0.380	-0.111
-350.493	800.000	0.068	0.258
-349.479	-113.874	0.015	-0.003
-348.464	-68.420	0.128	-0.049
-347.450	-138.956	0.479	-0.052
-346.435	3.339	-0.084	0.061
-345.420	-87.722	-0.293	0.088
-344.406	-101.951	0.244	-0.059
-343.391	77.966	-0.280	-0.296
-342.377	2.152	-0.054	0.039
-341.362	92.418	0.256	0.287
-340.348	-200.000	0.033	-0.169
-339.333	17.544	0.179	-0.141
-338.318	62.036	-0.112	0.111
-337.304	-94.284	0.188	-0.051
-336.289	60.459	0.096	-0.094
-335.275	-26.360	0.161	-0.094
-334.260	800.000	0.038	0.148
-333.245	-41.756	-0.238	-0.121
-332.231	226.916	-0.200	0.323
-331.216	-114.256	0.218	0.042
-330.202	-35.723	-0.163	0.088
-329.187	-119.030	0.177	-0.031
-328.172	123.581	0.106	0.132
-327.158	8.769	0.210	0.157
-326.143	0.991	0.057	0.041
-325.129	-121.401	-0.253	0.042
-324.114	41.599	0.348	0.313
-323.099	-189.883	0.203	-0.002
-322.085	-185.406	0.086	0.001
-321.070	-70.470	0.395	-0.148
-320.056	158.884	-0.151	0.208
-319.041	-69.316	-0.053	0.020
-318.026	691.105	-0.053	0.139
-317.012	406.578	0.102	-0.214
-315.997	-200.000	-0.013	0.320
-314.983	145.988	-0.162	-0.216
-313.968	-200.000	0.034	-0.218
-312.953	-146.047	0.236	0.021
-311.939	76.604	0.069	-0.072
-310.924	-61.782	-0.287	-0.119
-309.910	314.820	-0.088	-0.164
-308.895	-200.000	0.060	-0.448
-307.880	192.454	-0.116	-0.174
-306.866	800.000	0.059	0.190
-305.851	-47.067	0.410	0.198
-304.837	-41.706	0.091	0.046
-303.822	-10.741	-0.265	-0.174
-302.807	7.197	0.172	-0.127
-301.793	705.414	0.115	-0.300
-300.778	-179.225	0.157	-0.003
-299.764	186.622	0.127	0.187
-298.749	-200.000	0.008	-0.085
-297.735	85.178	-0.082	0.089
-296.720	291.569	-0.184	-0.332
-295.705	17.803	-0.153	0.121
-294.691	-200.000	-0.006	-0.030
-293.676	-200.000	0.033	0.171
-292.662	-130.412	0.262	-0.035
-291.647	-130.657	0.295	-0.039
-290.632	-200.000	0.027	-0.139
-289.618	-109.020	0.109	0.023
-288.603	210.817	-0.208	-0.323
-287.589	-200.000	0.004	0.107
-286.574	-60.737	0.092	-0.039
-285.559	-77.724	0.076	0.026
-284.545	-8.157	-0.230	0.153
-283.530	-170.314	-0.327	0.011
-282.516	800.000	0.107	0.298
-281.501	-88.490	0.169	-0.050
-280.486	-80.887	-0.152	0.050
-279.472	-62.010	0.207	-0.086
-278.457	-78.158	-0.507	0.173
-277.443	-35.686	0.174	0.093
-276.428	-99.255	0.511	-0.128
-275.413	-105.175	0.133	-0.030
-274.399	484.335	0.101	0.227
-273.384	-200.000	0.172	0.001
-272.370	800.000	0.051	0.194
-271.355	304.355	-0.066	-0.121
-270.340	0.607	0.223	-0.158
-269.326	131.113	0.239	0.304
-268.311	-117.202	0.320	-0.058
-267.297	-41.461	-0.174	0.089
-266.282	-200.000	0.008	-0.063
-265.267	-99.915	0.268	-0.066
-264.253	-106.608	0.092	-0.020
-263.238	800.000	0.008	0.034
-262.224	51.553	-0.093	0.087
-261.209	-200.000	-0.070	0.413
-260.195	800.000	-0.087	0.336
-259.180	-58.152	-0.303	-0.131
-258.165	174.791	0.035	0.051
-257.151	-200.000	-0.010	0.183
-256.136	-200.000	0.034	-0.300
-255.122	97.335	0.081	0.092
-254.107	800.000	-0.126	0.373
-253.092	250.973	0.058	0.097
-252.078	-29.826	0.199	-0.112
-251.063	-79.921	-0.375	0.125
-250.049	-200.000	-0.058	0.346
-249.034	-97.069	0.172	0.045
-248.019	-30.360	0.143	0.080
-247.005	800.000	-0.041	-0.122
-245.990	-22.339	0.243	-0.146
-244.976	800.000	-0.093	-0.281
-243.961	-24.019	-0.304	-0.180
-242.946	-123.862	-0.164	0.026
-241.932	-119.494	-0.181	-0.031
-240.917	-57.035	0.383	-0.167
-239.903	-106.560	0.271	0.060
-238.888	549.527	-0.031	-0.073
-237.873	-49.432	0.297	-0.140
-236.859	-152.504	0.153	-0.011
-235.844	106.226	-0.181	-0.212
-234.830	-112.834	-0.139	0.027
-233.815	-122.540	0.262	-0.042
-232.800	-89.966	0.069	0.020
-231.786	-41.465	-0.142	0.072
-230.771	-32.987	0.330	0.181
-229.757	-5.447	0.269	0.182
-228.742	-58.441	-0.336	0.144
-227.727	-79.349	0.262	-0.088
-226.713	-200.000	0.010	-0.108
-225.698	-10.296	-0.382	0.250
-224.684	-51.265	0.187	-0.086
-223.669	-25.629	0.105	0.061
-222.655	-182.845	-0.274	0.005
-221.640	164.999	0.096	-0.134
-220.625	189.392	-0.064	-0.095
-219.611	157.716	0.120	-0.164
-218.596	-200.000	0.029	-0.141
-217.582	37.578	-0.190	-0.167
-216.567	65.937	0.305	-0.306
-215.552	559.661	-0.141	0.337
-214.538	-2.666	0.060	-0.042
-213.523	193.800	-0.188	-0.281
-212.509	-91.331	0.078	0.022
-211.494	-200.000	-0.041	-0.251
-210.479	170.273	-0.415	-0.586
-209.465	-112.413	0.135	-0.027
-208.450	-171.090	-0.475	-0.016
-207.436	-81.211	0.140	0.046
-206.421	-100.793	-0.140	-0.034
-205.406	-81.250	0.103	0.033
-204.392	-70.454	0.095	-0.035
-203.377	195.459	0.127	-0.191
-202.363	-56.526	0.159	-0.069
-201.348	73.076	-0.193	-0.200
-200.333	-91.021	-0.201	0.057
-199.319	-170.085	0.404	0.014
-198.304	-73.374	-0.201	-0.073
-197.290	763.761	-0.026	0.069
-196.275	225.487	-0.117	-0.186
-195.260	120.480	0.280	0.343
-194.246	-103.727	0.135	-0.031
-193.231	-74.054	-0.173	-0.062
-192.217	148.119	-0.146	-0.194
-191.202	26.661	0.305	-0.252
-190.187	-90.428	0.256	-0.073
-189.173	-13.129	0.128	0.082
-188.158	-31.537	0.325	-0.180
-187.144	-200.000	-0.018	0.229
-186.129	-200.000	0.026	0.167
-185.114	-80.791	-0.164	-0.054
-184.100	292.266	0.154	-0.277
-183.085	800.000	-0.126	0.375
-182.071	-200.000	-0.020	-0.122
-181.056	400.063	-0.139	0.288
-180.042	-100.091	0.069	0.017
-179.027	173.421	0.150	0.214
-178.012	-112.575	-0.428	-0.084
-176.998	348.605	-0.150	0.291
-175.983	95.195	-0.220	0.247
-174.969	32.027	0.226	-0.193
-173.954	-54.151	-0.294	0.132
-172.939	8.189	-0.280	0.207
-171.925	-91.067	0.297	0.084
-170.910	36.106	0.103	0.090
-169.896	143.082	-0.157	0.206
-168.881	39.992	-0.203	0.180
-167.866	800.000	0.011	0.044
-166.852	-200.000	0.042	0.319
-165.837	91.731	0.102	-0.113
-164.823	-200.000	0.062	0.415
-163.808	-155.138	-0.401	-0.026
-162.793	-185.683	0.276	0.004
-161.779	451.999	-0.125	0.272
-160.764	-126.297	-0.228	-0.034
-159.750	800.000	0.032	-0.125
-158.735	800.000	-0.039	-0.143
-157.720	143.148	0.071	-0.094
-156.706	-4.089	-0.072	-0.049
-155.691	59.722	-0.048	0.046
-154.677	-200.000	0.017	-0.196
-153.662	-200.000	0.018	0.205
-152.647	-93.000	-0.142	-0.039
-151.633	-200.000	-0.013	-0.061
-150.618	-81.893	0.056	0.018
-149.604	800.000	-0.092	0.329
-148.589	-26.586	-0.132	-0.076
-147.574	-200.000	0.135	-0.000
-146.560	139.326	0.143	-0.185
-145.545	800.000	0.034	0.102
-144.531	-200.000	0.023	0.272
-143.516	67.672	0.103	0.104
-142.502	-74.264	0.180	0.064
-141.487	-200.000	-0.011	0.178
-140.472	-13.748	0.469	0.299
-139.458	-128.443	-0.120	0.017
-138.443	-113.748	0.227	0.044
-137.429	-200.000	0.043	0.265
-136.414	800.000	0.026	-0.084
-135.399	176.306	0.092	0.132
-134.385	-101.826	-0.232	-0.055
-133.370	-200.000	0.025	-0.244
-132.356	800.000	-0.072	0.264
-131.341	-65.854	0.180	0.071
-130.326	31.985	0.317	0.269
-129.312	-200.000	-0.062	0.461
-128.297	-108.340	0.120	-0.026
-127.283	-200.000	-0.318	-0.001
-126.268	-128.227	0.071	-0.010
-125.253	-171.802	-0.151	0.005
-124.239	-26.767	0.038	-0.022
-123.224	26.232	-0.146	0.120
-122.210	58.942	-0.130	0.125
-121.195	-77.127	0.077	0.027
-120.180	-158.253	-0.440	-0.025
-119.166	-200.000	0.008	0.410
-118.151	180.830	-0.152	0.219
-117.137	-63.661	0.128	0.052
-116.122	-200.000	-0.002	-0.035
-115.107	-72.081	-0.038	-0.014
-114.093	800.000	-0.065	0.265
-113.078	-3.411	0.070	-0.048
-112.064	96.623	0.237	-0.267
-111.049	83.926	-0.171	-0.184
-110.034	-200.000	0.016	0.133
-109.020	13.720	0.078	0.060
-108.005	69.493	0.082	-0.083
-106.991	-138.558	0.341	-0.037
-105.976	-200.000	0.042	0.230
-104.962	60.058	0.139	-0.135
-103.947	67.920	-0.097	0.098
-102.932	-200.000	-0.051	-0.347
-101.918	645.724	0.042	-0.106
-100.903	-46.192	0.184	0.089
-99.889	187.962	0.116	0.170
-98.874	288.535	-0.067	0.119
-97.859	486.317	0.053	0.118
-96.845	800.000	-0.043	-0.183
-95.830	-92.870	0.203	-0.056
-94.816	17.949	0.174	-0.136
-93.801	-90.723	-0.096	0.027
-92.786	8.975	-0.200	-0.148
-91.772	-200.000	0.066	0.407
-90.757	-200.000	0.018	0.090
-89.743	322.942	0.041	-0.077
-88.728	402.458	0.090	0.185
-87.713	-62.844	0.083	-0.034
-86.699	-126.190	0.147	-0.022
-85.684	188.119	-0.028	0.041
-84.670	-75.839	-0.112	-0.039
-83.655	-72.730	0.192	0.069
-82.640	87.198	0.111	-0.121
-81.626	-168.871	0.146	-0.005
-80.611	-200.000	0.042	0.304
-79.597	108.702	-0.075	-0.088
-78.582	-143.552	-0.330	-0.031
-77.567	-77.537	-0.056	0.019
-76.553	-62.656	-0.338	0.138
-75.538	-200.000	0.034	0.191
-74.524	415.991	-0.093	0.194
-73.509	-97.589	-0.127	0.032
-72.494	95.561	-0.021	0.024
-71.480	-200.000	-0.028	-0.207
-70.465	-28.774	0.138	-0.078
-69.451	-134.289	0.184	0.022
-68.436	-155.698	0.210	-0.013
-67.422	-118.506	-0.233	0.041
-66.407	-200.000	-0.000	0.058
-65.392	-121.585	-0.037	-0.006
-64.378	-46.740	0.123	-0.059
-63.363	-119.270	0.122	-0.021
-62.349	800.000	0.099	-0.292
-61.334	84.998	-1.024	-1.102
-60.319	136.808	0.376	0.483
-59.305	800.000	-0.275	-0.966
-58.290	315.573	0.637	1.180
-57.276	434.056	0.651	1.388
-56.261	-200.000	96.448	599.285
-55.246	567.090	1365.129	3253.115
-54.232	162.140	2550.289	3508.274
-53.217	107.064	2262.456	2638.468
-52.203	41.414	1891.560	1679.899
-51.188	35.291	1682.401	1448.022
-50.173	32.550	1638.132	1389.674
-49.159	49.930	1684.784	1559.598
-48.144	51.807	1700.987	1588.568
-47.130	34.912	1661.757	1427.198
-46.115	32.202	1647.647	1394.941
-45.100	32.053	1642.614	1389.522
-44.086	31.965	1639.558	1386.230
-43.071	31.831	1637.967	1383.842
-42.057	31.963	1635.245	1382.459
-41.042	31.949	1633.137	1380.516
-40.027	31.908	1631.329	1378.631
-39.013	31.793	1629.790	1376.432
-37.998	31.842	1628.278	1375.464
-36.984	31.904	1626.441	1374.307
-35.969	31.942	1625.414	1373.669
-34.954	31.982	1623.876	1372.603
-33.940	31.986	1621.205	1370.322
-32.925	32.016	1619.742	1369.250
-31.911	31.947	1618.292	1367.464
-30.896	32.032	1616.473	1366.493
-29.881	32.065	1614.290	1364.838
-28.867	31.988	1613.173	1363.274
-27.852	32.019	1611.545	1362.070
-26.838	31.899	1610.427	1360.202
-25.823	32.023	1608.829	1359.697
-24.809	32.158	1607.115	1359.171
-23.794	32.062	1605.668	1357.201
-22.779	32.027	1604.457	1355.869
-21.765	32.042	1602.619	1354.370
-20.750	31.956	1601.600	1352.838
-19.736	32.023	1599.974	1351.892
-18.721	32.214	1597.707	1351.295
-17.706	32.093	1596.645	1349.476
-16.692	31.952	1595.601	1347.526
-15.677	32.035	1593.958	1346.680
-14.663	31.996	1593.506	1345.968
-13.648	32.069	1591.334	1344.602
-12.633	32.017	1590.340	1343.332
-11.619	32.008	1588.788	1341.905
-10.604	32.063	1586.638	1340.431
-9.590	32.051	1585.437	1339.272
-8.575	32.017	1584.229	1337.961
-7.560	31.961	1583.469	1336.865
-6.546	32.044	1582.390	1336.489
-5.531	32.028	1580.908	1335.072
-4.517	32.057	1579.300	1333.868
-3.502	32.046	1578.377	1332.960
-2.487	32.106	1576.802	1332.004
-1.473	31.768	1564.580	1319.244
-0.458	29.113	1545.942	1284.981
0.556	26.454	1548.069	1257.945
1.571	24.637	1572.513	1264.853
2.586	24.553	1586.431	1275.334
3.600	21.994	1532.742	1214.384
4.615	12.585	1421.882	1065.780
5.629	3.915	1355.595	962.267
6.644	2.259	1347.440	946.150
7.659	2.191	1345.760	944.469
8.673	2.174	1344.864	943.650
9.688	2.095	1343.260	941.955
10.702	1.930	1339.844	938.461
11.717	5.507	1347.736	966.014
12.731	15.766	1367.062	1043.731
13.746	24.142	1380.881	1106.459
14.761	26.333	1383.628	1122.182
15.775	26.706	1383.877	1124.598
16.790	26.706	1383.555	1124.236
17.804	26.834	1382.329	1123.938
18.819	27.087	1382.008	1125.141
19.834	27.249	1381.268	1125.440
20.848	27.172	1380.924	1124.588
21.863	27.319	1379.765	1124.451
22.877	27.376	1378.661	1123.807
23.892	27.244	1378.124	1122.453
24.907	27.244	1377.442	1121.797
25.921	27.240	1376.657	1121.033
26.936	27.206	1375.770	1120.007
27.950	27.244	1374.488	1119.094
28.965	27.124	1373.366	1117.342
29.980	27.196	1372.154	1116.703
30.994	27.243	1370.740	1115.738
32.009	27.109	1369.720	1113.989
33.023	27.198	1368.498	1113.441
34.038	27.262	1367.310	1112.770
35.053	27.170	1366.292	1111.282
36.067	27.233	1365.257	1110.727
37.082	27.225	1364.737	1110.157
38.096	27.144	1363.800	1108.799
39.111	27.217	1362.835	1108.365
40.126	27.154	1362.329	1107.469
41.140	27.228	1361.543	1107.180
42.155	27.313	1361.253	1107.366
43.169	27.195	1361.381	1106.653
44.184	27.187	1361.105	1106.285
45.199	27.166	1360.987	1105.961
46.213	27.093	1360.642	1105.137
47.228	27.260	1358.910	1104.648
48.242	27.225	1357.868	1103.493
49.257	27.180	1356.651	1102.133
50.271	27.216	1354.806	1100.752
51.286	27.253	1353.870	1100.123
52.301	27.311	1352.294	1099.094
53.315	27.187	1351.834	1097.872
54.330	27.196	1350.768	1096.961
55.344	27.233	1349.807	1096.308
56.359	27.115	1349.090	1094.921
57.374	27.085	1348.449	1094.119
58.388	27.230	1347.545	1094.161
59.403	27.207	1347.104	1093.570
60.417	27.253	1346.487	1093.250
61.432	27.145	1345.282	1091.523
62.447	27.222	1344.708	1091.423
63.461	27.186	1343.754	1090.338
64.476	27.221	1342.722	1089.613
65.490	27.275	1341.484	1088.835
66.505	27.212	1340.400	1087.482
67.520	27.182	1338.866	1085.963
68.534	27.275	1338.207	1085.888
69.549	27.214	1336.888	1084.357
70.563	27.153	1336.282	1083.409
71.578	27.272	1335.168	1083.120
72.593	27.304	1334.212	1082.434
73.607	27.196	1334.068	1081.579
74.622	27.257	1333.189	1081.135
75.636	27.250	1332.239	1080.227
76.651	27.236	1331.845	1079.730
77.666	27.293	1331.142	1079.401
78.680	27.134	1331.237	1078.438
79.695	27.212	1329.934	1077.749
80.709	27.241	1329.392	1077.387
81.724	27.289	1328.178	1076.594
82.739	27.281	1327.274	1075.721
83.753	27.215	1326.305	1074.447
84.768	27.235	1325.046	1073.449
85.782	27.286	1324.302	1073.056
86.797	27.267	1323.080	1071.855
87.812	27.216	1321.917	1070.520
88.826	27.230	1320.889	1069.677
89.841	27.182	1320.326	1068.843
90.855	27.255	1319.105	1068.189
91.870	27.319	1317.763	1067.381
92.884	27.335	1317.245	1066.961
93.899	27.299	1316.512	1066.064
94.914	27.297	1315.573	1065.198
95.928	27.174	1315.196	1064.079
96.943	27.310	1314.366	1064.106
97.957	27.344	1313.565	1063.562
98.972	27.285	1313.090	1062.738
99.987	27.249	1311.798	1061.390
101.001	27.194	1311.086	1060.398
102.016	27.265	1309.947	1059.797
103.030	27.260	1309.384	1059.218
104.045	27.261	1309.056	1058.864
105.060	27.214	1307.837	1057.512
106.074	27.404	1306.280	1057.263
107.089	27.326	1305.354	1055.966
108.103	27.369	1304.223	1055.211
109.118	27.285	1303.408	1053.971
110.133	27.410	1301.929	1053.403
111.147	27.421	1301.116	1052.714
112.162	27.415	1299.696	1051.440
113.176	27.315	1299.224	1050.387
114.191	27.319	1298.321	1049.588
115.206	27.400	1297.118	1048.989
116.220	27.378	1296.203	1048.031
117.235	27.309	1295.181	1046.713
118.249	27.359	1294.353	1046.241
119.264	27.322	1293.340	1045.114
120.279	27.400	1292.976	1045.179
121.293	27.407	1292.332	1044.606
122.308	27.365	1291.603	1043.683
123.322	27.328	1290.996	1042.888
124.337	27.379	1289.866	1042.176
125.352	27.427	1289.129	1041.762
126.366	27.419	1287.895	1040.623
127.381	27.484	1286.975	1040.164
128.395	27.458	1285.993	1039.124
129.410	27.331	1285.438	1037.859
130.424	27.447	1285.037	1038.108
131.439	27.403	1283.396	1036.442
132.454	27.319	1283.152	1035.671
133.468	27.423	1282.402	1035.566
134.483	27.400	1281.843	1034.893
135.497	27.397	1280.783	1033.928
136.512	27.345	1280.240	1033.107
137.527	27.474	1278.504	1032.345
138.541	27.395	1277.415	1030.927
139.556	27.465	1276.220	1030.266
140.570	27.449	1275.234	1029.290
141.585	27.378	1274.478	1028.188
142.600	27.423	1273.686	1027.708
143.614	27.469	1272.661	1027.052
144.629	27.431	1271.612	1025.900
145.643	27.402	1270.785	1024.979
146.658	27.277	1269.748	1023.349
147.673	27.309	1268.981	1022.819
148.687	27.316	1267.998	1021.975
149.702	27.261	1266.964	1020.742
150.716	27.333	1265.713	1020.047
151.731	27.284	1265.058	1019.156
152.746	27.319	1263.956	1018.376
153.760	27.315	1262.879	1017.394
154.775	27.402	1261.954	1017.046
155.789	27.457	1260.989	1016.483
156.804	27.447	1259.847	1015.416
157.819	27.299	1259.398	1014.138
158.833	27.408	1258.714	1014.110
159.848	27.469	1257.773	1013.601
160.862	27.548	1257.028	1013.346
161.877	27.474	1256.500	1012.424
162.892	27.483	1255.471	1011.552
163.906	27.471	1255.010	1011.024
164.921	27.452	1254.006	1010.024
165.935	27.378	1253.752	1009.316
166.950	27.560	1252.673	1009.369
167.964	27.497	1251.827	1008.247
168.979	27.545	1251.357	1008.048
169.994	27.506	1251.210	1007.625
171.008	27.629	1249.883	1007.143
172.023	27.560	1249.166	1006.098
173.037	27.459	1248.836	1005.181
174.052	27.620	1248.024	1005.329
175.067	27.575	1247.147	1004.285
176.081	27.548	1246.445	1003.485
177.096	27.448	1246.085	1002.554
178.110	27.422	1245.102	1001.531
179.125	27.525	1243.667	1000.855
180.140	27.602	1242.875	1000.553
181.154	27.597	1241.575	999.388
182.169	27.586	1240.526	998.396
183.183	27.590	1239.522	997.524
184.198	27.615	1238.274	996.564
185.213	27.604	1237.610	995.882
186.227	27.637	1236.885	995.390
187.242	27.714	1235.616	994.704
188.256	27.647	1235.254	993.960
189.271	27.606	1234.236	992.828
190.286	27.603	1233.798	992.372
191.300	27.581	1233.260	991.728
192.315	27.553	1232.965	991.253
193.329	27.524	1232.373	990.533
194.344	27.613	1232.048	990.668
195.359	27.673	1231.205	990.226
196.373	27.523	1231.088	989.232
197.388	27.536	1230.364	988.631
198.402	27.653	1230.265	989.099
199.417	27.490	1230.002	987.915
200.432	27.517	1229.158	987.297
201.446	27.656	1228.374	987.335
202.461	27.652	1227.676	986.661
203.475	27.622	1227.269	986.086
204.490	27.647	1226.007	985.121
205.504	27.615	1225.172	984.190
206.519	27.784	1224.092	984.146
207.534	27.742	1223.075	983.013
208.548	27.641	1222.281	981.748
209.563	27.748	1221.491	981.600
210.577	27.660	1221.092	980.717
211.592	27.709	1220.066	980.073
212.607	27.838	1218.811	979.669
213.621	27.768	1218.238	978.744
214.636	27.866	1217.691	978.749
215.650	27.801	1216.773	977.576
216.665	27.775	1215.740	976.518
217.680	27.775	1214.911	975.764
218.694	27.687	1214.423	974.820
219.709	27.736	1213.990	974.644
220.723	27.680	1213.305	973.711
221.738	27.717	1212.339	973.044
222.753	27.573	1211.664	971.649
223.767	27.735	1211.271	972.114
224.782	27.771	1210.962	971.970
225.796	27.816	1210.319	971.607
226.811	27.765	1209.477	970.573
227.826	27.769	1209.118	970.222
228.840	27.817	1208.402	969.814
229.855	27.831	1207.858	969.366
230.869	27.891	1206.828	968.774
231.884	27.845	1206.333	968.049
232.899	27.876	1205.096	967.131
233.913	27.798	1205.104	966.638
234.928	27.988	1204.517	967.091
235.942	27.961	1203.721	966.224
236.957	27.985	1203.337	965.955
237.972	27.843	1202.866	964.739
238.986	27.884	1202.136	964.288
240.001	27.933	1201.501	963.952
241.015	27.996	1200.444	963.348
242.030	28.015	1199.729	962.789
243.045	27.992	1198.870	961.895
244.059	28.073	1197.915	961.471
245.074	27.985	1197.550	960.630
246.088	28.013	1196.963	960.221
247.103	28.069	1196.069	959.710
248.117	28.045	1195.159	958.773
249.132	27.941	1194.470	957.591
250.147	28.132	1193.956	958.093
251.161	28.136	1192.926	957.202
252.176	28.007	1192.097	955.777
253.190	28.184	1191.483	956.127
254.205	28.215	1190.633	955.519
255.220	28.158	1190.418	954.964
256.234	28.126	1190.382	954.685
257.249	28.186	1189.501	954.210
258.263	28.057	1188.705	952.812
259.278	27.963	1188.713	952.244
260.293	28.186	1187.825	952.608
261.307	28.077	1187.324	951.558
262.322	28.207	1186.709	951.655
263.336	28.158	1185.644	950.461
264.351	28.076	1185.684	949.985
265.366	28.206	1184.752	949.831
266.380	28.233	1184.158	949.410
267.395	28.183	1183.463	948.507
268.409	28.108	1182.803	947.507
269.424	28.160	1182.497	947.450
270.439	28.181	1181.677	946.815
271.453	28.165	1181.035	946.136
272.468	28.188	1180.119	945.437
273.482	28.246	1179.296	944.994
274.497	28.269	1178.720	944.564
275.512	28.279	1178.493	944.353
276.526	28.279	1177.897	943.789
277.541	28.143	1177.317	942.540
278.555	28.247	1176.437	942.289
279.570	28.384	1175.681	942.303
280.585	28.290	1174.993	941.189
281.599	28.316	1173.878	940.344
282.614	28.279	1173.278	939.588
283.628	28.444	1172.490	939.721
284.643	28.397	1171.469	938.579
285.657	28.320	1170.903	937.649
286.672	28.344	1169.791	936.796
287.687	28.356	1169.500	936.543
288.701	28.424	1168.490	936.000
289.716	28.363	1168.293	935.449
290.730	28.448	1167.264	934.976
291.745	28.446	1166.706	934.436
292.760	28.428	1166.113	933.786
293.774	28.477	1165.521	933.479
294.789	28.516	1164.699	932.933
295.803	28.398	1164.597	932.169
296.818	28.412	1163.738	931.472
297.833	28.590	1163.091	931.777
298.847	28.551	1162.398	930.940
299.862	28.435	1162.007	929.955
300.876	28.531	1161.138	929.667
301.891	28.544	1160.789	929.367
302.906	28.583	1159.914	928.783
303.920	28.540	1159.182	927.900
304.935	28.624	1158.442	927.646
305.949	28.510	1157.904	926.561
306.964	28.564	1157.440	926.381
307.979	28.683	1156.408	926.071
308.993	28.491	1156.330	924.958
310.008	28.611	1155.826	925.077
311.022	28.701	1154.358	924.273
312.037	28.691	1153.638	923.567
313.052	28.584	1152.952	922.395
314.066	28.599	1152.354	921.913
315.081	28.617	1151.501	921.238
316.095	28.756	1150.687	921.205
317.110	28.590	1150.497	920.138
318.125	28.620	1149.980	919.791
319.139	28.652	1149.052	919.128
320.154	28.588	1148.635	918.395
321.168	28.803	1147.659	918.609
322.183	28.749	1147.096	917.808
323.197	28.712	1146.256	916.869
324.212	28.612	1146.597	916.558
325.227	28.594	1146.169	916.045
326.241	28.832	1145.592	916.690
327.256	28.716	1144.572	915.218
328.270	28.851	1143.300	914.791
329.285	28.703	1142.908	913.657
330.300	28.762	1142.341	913.420
331.314	28.791	1141.206	912.573
332.329	28.694	1140.596	911.526
333.343	28.813	1139.869	911.454
334.358	28.802	1139.301	910.863
335.373	28.867	1138.334	910.332
336.387	28.953	1137.615	910.101
337.402	28.823	1137.134	908.991
338.416	28.960	1136.367	908.979
339.431	28.875	1135.952	908.142
340.446	28.929	1135.485	907.956
341.460	28.953	1134.630	907.311
342.475	28.987	1133.741	906.689
343.489	29.071	1132.910	906.357
344.504	28.970	1132.326	905.312
345.519	28.959	1131.409	904.444
346.533	29.164	1130.712	904.816
347.548	28.992	1130.082	903.386
348.562	29.055	1129.429	903.093
349.577	28.998	1128.768	902.204
350.592	28.904	1128.226	901.231
351.606	28.922	1127.289	900.491
352.621	29.003	1126.701	900.337
353.635	29.011	1126.362	900.028
354.650	28.952	1125.510	898.976
355.665	29.072	1124.653	898.799
356.679	29.143	1124.265	898.758
357.694	29.136	1123.669	898.167
358.708	29.234	1122.758	897.838
359.723	29.104	1121.671	896.257
360.738	29.124	1121.253	895.941
361.752	29.126	1121.278	895.891
362.767	29.105	1120.832	895.350
363.781	29.191	1120.087	895.098
364.796	29.239	1119.480	894.763
365.810	29.306	1118.723	894.407
366.825	29.246	1117.834	893.325
367.840	29.366	1117.757	893.767
368.854	29.400	1116.839	893.117
369.869	29.248	1116.454	891.996
370.883	29.332	1115.821	891.814
371.898	29.289	1114.940	890.827
372.913	29.363	1114.216	890.528
373.927	29.384	1113.929	890.319
374.942	29.401	1113.409	889.909
375.956	29.271	1113.239	889.066
376.971	29.346	1112.102	888.442
377.986	29.383	1111.796	888.294
379.000	29.392	1111.394	887.939
380.015	29.310	1111.111	887.238
381.029	29.477	1110.163	887.208
382.044	29.488	1109.530	886.676
383.059	29.376	1109.063	885.686
384.073	29.400	1108.355	885.156
385.088	29.545	1107.135	884.796
386.102	29.537	1106.619	884.271
387.117	29.358	1106.165	882.971
388.132	29.465	1105.042	882.507
389.146	29.512	1104.178	881.967
390.161	29.539	1103.807	881.721
391.175	29.359	1103.346	880.415
392.190	29.454	1102.441	880.066
393.205	29.472	1101.833	879.588
394.219	29.500	1101.052	879.021
395.234	29.524	1100.491	878.610
396.248	29.579	1099.442	877.957
397.263	29.600	1098.740	877.420
398.278	29.553	1098.009	876.535
399.292	29.676	1097.273	876.452
400.307	29.642	1096.999	875.996
401.321	29.563	1096.349	875.025
402.336	29.636	1095.610	874.705
403.350	29.554	1094.987	873.738
404.365	29.662	1094.226	873.566
405.380	29.683	1093.701	873.168
406.394	29.757	1092.980	872.862
407.409	29.690	1092.348	871.967
408.423	29.867	1091.267	871.859
409.438	29.768	1090.645	870.823
410.453	29.774	1090.191	870.410
411.467	29.665	1089.498	869.265
412.482	29.774	1088.784	869.132
413.496	29.869	1087.963	868.843
414.511	29.864	1087.587	868.447
415.526	29.877	1086.971	867.937
416.540	29.870	1086.799	867.689
417.555	29.893	1086.160	867.211
418.569	29.885	1085.391	866.485
419.584	29.858	1085.707	866.533
420.599	29.904	1085.071	866.164
421.613	104.768	1322.716	1460.285
422.628	97.527	1357.288	1460.381
