DTS Sentinel unit serial number:	SN413079Multiplexer serial number:	ORYXHardware model number:	OX4-SRSoftware version number:	ORYX F/W v4.00 Oryx Data Collector v3.7.2.0data status	okinstallation	princeton_trtdifferential loss correction	single-endedforward channel	channel 2reverse channel	N/Adate	2019/09/12time	09:09:10forward acquisition time	60.00reverse acquisition time	0.00gamma	496.2192k internal	0.2316k external	0.2316temperature offset calibration	1.0063default loss term (dB/km)	0.3790temperature slope calibration	1.0000multiplexer offset coefficient	1.0000multiplexer slope coefficient	1.0000fibre end	0.00T internal ref (°C)	34.55T ext. ref 1 (°C)	1.80T ext. ref 2 (°C)	32.61length (m)	temperature (°C)	Stokes	anti-Stokes-747.200	-119.919	-0.173	0.030
-746.185	61.904	-0.098	0.099
-745.171	-143.314	-0.411	0.040
-744.156	717.062	-0.138	0.370
-743.142	194.822	0.079	0.121
-742.127	-200.000	0.042	0.222
-741.112	347.162	-0.051	-0.102
-740.098	51.273	-0.382	0.368
-739.083	800.000	-0.041	0.147
-738.069	800.000	-0.036	0.134
-737.054	-123.173	0.207	0.034
-736.039	800.000	-0.068	-0.199
-735.025	-200.000	0.056	0.340
-734.010	800.000	0.031	-0.128
-732.996	60.532	-0.155	-0.156
-731.981	-200.000	0.007	-0.133
-730.966	-93.713	-0.096	0.027
-729.952	195.136	-0.026	-0.039
-728.937	800.000	0.097	-0.283
-727.923	75.808	0.323	0.346
-726.908	-54.770	-0.075	0.034
-725.894	800.000	0.022	0.071
-724.879	75.181	-0.028	-0.030
-723.864	-13.940	0.162	-0.106
-722.850	-52.971	0.272	-0.126
-721.835	168.751	-0.270	0.390
-720.821	-200.000	0.033	-0.255
-719.806	-45.629	0.327	-0.164
-718.791	-200.000	-0.027	-0.345
-717.777	800.000	-0.065	-0.192
-716.762	-200.000	-0.005	-0.273
-715.748	135.205	0.167	0.220
-714.733	-96.627	-0.218	-0.058
-713.718	-200.000	0.028	-0.259
-712.704	86.380	0.240	0.268
-711.689	-52.552	-0.298	-0.139
-710.675	18.587	-0.221	-0.179
-709.660	389.005	-0.066	-0.138
-708.645	-2.959	0.204	-0.144
-707.631	-91.156	0.114	-0.033
-706.616	9.577	-0.145	-0.111
-705.602	44.090	-0.145	-0.135
-704.587	-200.000	-0.024	-0.292
-703.572	-42.836	-0.064	0.033
-702.558	-31.371	-0.114	-0.065
-701.543	485.271	-0.072	0.165
-700.529	-163.228	-0.316	0.015
-699.514	-26.118	0.035	0.021
-698.499	-165.077	0.392	-0.018
-697.485	800.000	0.053	-0.173
-696.470	-99.069	0.021	-0.005
-695.456	-200.000	0.028	-0.259
-694.441	260.676	0.219	-0.383
-693.426	510.854	0.134	-0.315
-692.412	-200.000	0.066	-0.372
-691.397	-104.988	-0.257	-0.060
-690.383	-200.000	0.061	-0.328
-689.368	-57.715	0.165	0.073
-688.354	-103.537	0.022	-0.005
-687.339	-70.284	-0.130	-0.050
-686.324	-200.000	-0.010	0.112
-685.310	-150.391	-0.177	0.014
-684.295	101.284	-0.149	-0.176
-683.281	-21.312	0.159	-0.098
-682.266	-70.702	-0.156	-0.059
-681.251	-34.622	0.072	-0.040
-680.237	800.000	-0.072	-0.232
-679.222	-99.229	-0.242	0.062
-678.208	-67.882	0.077	-0.030
-677.193	10.568	-0.430	-0.331
-676.178	120.577	-0.094	0.119
-675.164	489.193	0.082	-0.189
-674.149	-46.076	-0.145	-0.072
-673.135	-200.000	-0.089	-0.408
-672.120	305.823	-0.100	-0.188
-671.105	800.000	-0.037	-0.126
-670.091	425.602	0.147	-0.319
-669.076	36.635	0.252	-0.225
-668.062	-100.806	-0.162	-0.040
-667.047	-8.107	0.091	0.062
-666.032	-200.000	0.019	-0.151
-665.018	-200.000	-0.021	0.412
-664.003	203.728	0.052	0.082
-662.989	-147.440	0.226	-0.019
-661.974	-200.000	-0.043	-0.242
-660.959	-200.000	0.030	-0.235
-659.945	-136.550	0.224	-0.026
-658.930	7.778	0.335	-0.253
-657.916	344.524	0.038	0.075
-656.901	192.049	0.138	-0.210
-655.886	303.293	0.046	0.085
-654.872	37.108	-0.158	0.142
-653.857	255.455	0.048	-0.083
-652.843	-21.822	-0.184	0.113
-651.828	800.000	0.039	0.152
-650.814	-46.797	-0.226	-0.112
-649.799	-109.163	-0.181	-0.039
-648.784	-1.645	-0.334	-0.237
-647.770	-122.159	0.147	0.024
-646.755	-170.588	-0.035	-0.001
-645.741	37.202	0.366	-0.327
-644.726	-134.503	-0.156	0.019
-643.711	-101.697	-0.452	-0.111
-642.697	-19.899	-0.293	0.183
-641.682	-98.617	0.490	-0.126
-640.668	251.762	-0.123	0.211
-639.653	-78.073	0.230	-0.080
-638.638	180.188	-0.050	-0.074
-637.624	-200.000	0.009	-0.076
-636.609	45.472	0.282	-0.263
-635.595	-156.816	-0.243	-0.015
-634.580	529.945	0.151	-0.361
-633.565	-42.556	0.159	0.082
-632.551	4.228	0.414	0.306
-631.536	-104.137	0.043	0.010
-630.522	-156.864	-0.202	-0.012
-629.507	672.745	-0.058	0.151
-628.492	-200.000	-0.010	-0.091
-627.478	550.486	0.046	0.112
-626.463	24.875	0.067	-0.056
-625.449	662.583	-0.069	0.179
-624.434	109.384	0.258	-0.311
-623.419	59.045	0.117	-0.116
-622.405	800.000	0.071	0.244
-621.390	-39.633	0.170	-0.090
-620.376	79.447	0.064	-0.069
-619.361	-148.379	-0.257	0.021
-618.346	217.158	-0.080	-0.128
-617.332	800.000	-0.179	0.542
-616.317	-171.211	0.080	-0.003
-615.303	-200.000	0.004	0.112
-614.288	800.000	-0.047	-0.164
-613.273	800.000	-0.100	0.304
-612.259	58.840	-0.091	0.090
-611.244	-137.071	0.228	0.026
-610.230	643.345	0.069	-0.178
-609.215	800.000	-0.064	-0.209
-608.201	-61.655	-0.229	0.097
-607.186	589.021	-0.126	0.313
-606.171	800.000	0.065	-0.266
-605.157	-25.307	0.538	-0.321
-604.142	-94.241	0.207	-0.057
-603.128	-110.799	0.099	0.021
-602.113	-200.000	0.063	-0.292
-601.098	264.354	0.043	-0.075
-600.084	-45.482	-0.080	-0.040
-599.069	73.696	-0.167	0.177
-598.055	494.535	0.098	-0.226
-597.040	256.234	-0.251	-0.434
-596.025	227.298	0.067	0.109
-595.011	-92.681	0.149	0.042
-593.996	143.805	0.057	-0.077
-592.982	800.000	0.070	-0.222
-591.967	-76.743	0.109	0.039
-590.952	-200.000	0.038	0.323
-589.938	-150.126	0.276	-0.022
-588.923	-11.808	-0.071	-0.047
-587.909	276.939	-0.088	-0.158
-586.894	455.857	0.131	0.293
-585.879	-8.054	-0.088	0.059
-584.865	-200.000	0.045	-0.346
-583.850	-200.000	0.003	0.086
-582.836	-0.456	-0.188	-0.135
-581.821	800.000	0.038	-0.107
-580.806	800.000	0.051	0.156
-579.792	-200.000	-0.003	-0.059
-578.777	57.879	0.066	0.065
-577.763	-200.000	-0.030	0.187
-576.748	-121.718	0.320	0.053
-575.733	286.161	0.098	0.178
-574.719	-200.000	-0.009	-0.208
-573.704	215.202	-0.015	-0.025
-572.690	472.958	-0.071	0.162
-571.675	-99.998	-0.123	0.031
-570.661	-86.578	0.060	0.018
-569.646	-73.726	-0.126	-0.046
-568.631	-117.677	0.228	-0.041
-567.617	417.748	0.069	-0.148
-566.602	-56.148	0.175	0.078
-565.588	4.902	0.272	-0.202
-564.573	-62.647	-0.105	0.044
-563.558	138.336	-0.062	-0.082
-562.544	-200.000	-0.025	-0.306
-561.529	800.000	-0.008	-0.024
-560.515	5.745	-0.327	0.243
-559.500	-51.957	0.136	-0.064
-558.485	-127.098	-0.376	0.055
-557.471	-200.000	-0.009	-0.274
-556.456	800.000	0.056	0.205
-555.442	11.082	-0.187	-0.144
-554.427	226.593	-0.046	0.075
-553.412	156.706	0.067	-0.093
-552.398	-38.445	-0.203	0.108
-551.383	-135.483	-0.282	0.034
-550.369	-200.000	0.003	-0.281
-549.354	800.000	0.061	0.170
-548.339	800.000	0.074	-0.319
-547.325	-11.175	0.274	0.181
-546.310	800.000	0.012	-0.049
-545.296	68.661	0.061	-0.063
-544.281	36.830	0.092	-0.082
-543.266	-200.000	0.022	0.219
-542.252	244.321	0.031	0.053
-541.237	-65.261	-0.104	0.042
-540.223	-158.237	0.178	0.010
-539.208	800.000	0.041	-0.118
-538.193	-108.691	-0.266	-0.057
-537.179	-200.000	-0.011	0.128
-536.164	526.132	-0.115	-0.271
-535.150	173.375	0.215	-0.312
-534.135	-200.000	-0.002	0.467
-533.121	125.040	-0.425	0.538
-532.106	-200.000	-0.050	0.282
-531.091	101.168	0.116	0.136
-530.077	-200.000	0.032	0.210
-529.062	800.000	-0.087	0.278
-528.048	27.072	0.137	0.116
-527.033	443.549	-0.063	-0.139
-526.018	-178.659	-0.216	-0.005
-525.004	84.966	-0.209	-0.230
-523.989	348.920	0.214	-0.425
-522.975	282.576	-0.145	0.262
-521.960	800.000	0.029	-0.126
-520.945	689.833	0.072	-0.190
-519.931	-200.000	-0.060	0.300
-518.916	191.569	0.147	-0.222
-517.902	800.000	0.105	-0.338
-516.887	101.889	0.090	0.106
-515.872	90.365	-0.032	0.036
-514.858	122.455	-0.089	-0.112
-513.843	-84.353	-0.219	-0.069
-512.829	-89.366	0.088	-0.026
-511.814	-23.962	0.108	0.065
-510.799	-21.751	-0.162	0.099
-509.785	452.868	0.130	0.289
-508.770	-23.199	-0.172	0.104
-507.756	49.369	0.137	0.130
-506.741	393.137	-0.136	0.284
-505.726	50.016	-0.196	-0.185
-504.712	-139.189	-0.185	0.020
-503.697	-116.785	0.021	0.004
-502.683	294.295	0.147	0.270
-501.668	-200.000	-0.021	-0.145
-500.653	474.349	-0.049	0.112
-499.639	-78.057	0.150	-0.052
-498.624	-79.440	0.121	-0.041
-497.610	-112.720	-0.250	0.050
-496.595	27.724	0.144	-0.122
-495.581	-76.879	-0.216	-0.076
-494.566	-200.000	-0.013	-0.176
-493.551	-1.892	0.149	-0.105
-492.537	62.943	0.124	0.124
-491.522	350.117	0.212	-0.421
-490.508	-200.000	-0.046	-0.252
-489.493	-55.403	0.388	-0.174
-488.478	-5.301	0.188	-0.129
-487.464	-70.670	-0.276	-0.104
-486.449	-94.164	-0.375	-0.103
-485.435	66.663	0.293	-0.299
-484.420	464.460	-0.083	0.186
-483.405	-200.000	-0.050	0.241
-482.391	541.802	-0.049	0.116
-481.376	134.969	0.085	0.111
-480.362	-200.000	-0.014	-0.450
-479.347	136.921	-0.197	-0.258
-478.332	269.804	-0.070	0.124
-477.318	-200.000	-0.025	0.113
-476.303	800.000	-0.098	-0.280
-475.289	-200.000	0.005	0.356
-474.274	240.012	-0.097	-0.162
-473.259	198.350	-0.243	-0.372
-472.245	-200.000	0.002	-0.286
-471.230	800.000	0.101	-0.312
-470.216	-64.075	0.110	-0.045
-469.201	23.017	-0.260	-0.214
-468.186	-200.000	-0.040	-0.236
-467.172	146.345	0.195	0.263
-466.157	44.058	-0.116	0.107
-465.143	83.587	-0.197	0.215
-464.128	103.733	-0.148	0.174
-463.113	16.949	-0.174	-0.138
-462.099	-27.003	-0.158	0.093
-461.084	-200.000	0.043	-0.271
-460.070	-200.000	-0.032	-0.149
-459.055	-200.000	-0.036	-0.317
-458.040	182.602	-0.059	-0.088
-457.026	-131.711	0.279	0.037
-456.011	-64.490	0.080	0.033
-454.997	800.000	-0.042	0.131
-453.982	165.706	-0.162	0.229
-452.968	56.366	0.125	-0.121
-451.953	-112.613	0.259	0.052
-450.938	-140.530	0.159	0.017
-449.924	-87.045	-0.181	-0.055
-448.909	-16.221	-0.294	-0.187
-447.895	-200.000	0.005	0.062
-446.880	800.000	0.116	0.390
-445.865	-41.639	-0.052	-0.027
-444.851	392.808	0.083	0.173
-443.836	-200.000	0.023	0.134
-442.822	-119.051	-0.096	0.017
-441.807	423.352	0.043	0.093
-440.792	415.378	0.030	0.064
-439.778	-1.979	-0.112	-0.079
-438.763	543.343	0.085	0.203
-437.749	127.072	0.133	0.169
-436.734	-200.000	-0.024	0.308
-435.719	155.906	0.124	0.171
-434.705	160.677	-0.148	0.207
-433.690	109.164	0.259	0.310
-432.676	228.337	-0.057	-0.093
-431.661	-28.851	0.290	-0.167
-430.646	128.423	-0.026	0.033
-429.632	432.496	0.100	-0.217
-428.617	-2.404	-0.319	0.224
-427.603	-67.428	-0.236	-0.093
-426.588	800.000	0.027	0.090
-425.573	-60.691	-0.111	0.047
-424.559	213.246	0.195	0.307
-423.544	151.758	0.164	-0.224
-422.530	161.560	-0.020	0.028
-421.515	800.000	0.100	0.351
-420.500	-24.764	-0.049	-0.029
-419.486	-200.000	0.046	-0.251
-418.471	-155.254	0.309	-0.020
-417.457	-50.916	0.390	0.183
-416.442	14.040	-0.051	0.039
-415.428	-131.599	-0.209	0.028
-414.413	-143.034	0.346	-0.033
-413.398	388.939	-0.131	-0.271
-412.384	800.000	-0.145	-0.421
-411.369	131.207	-0.064	0.083
-410.355	-20.856	0.119	0.073
-409.340	116.608	0.081	-0.100
-408.325	138.903	-0.287	0.377
-407.311	65.246	0.164	-0.166
-406.296	-86.364	-0.373	-0.115
-405.282	323.572	0.080	0.152
-404.267	-40.098	-0.059	-0.030
-403.252	-170.516	-0.225	0.008
-402.238	-200.000	-0.004	0.073
-401.223	-200.000	0.010	0.244
-400.209	-113.598	-0.189	0.037
-399.194	16.057	0.073	0.057
-398.179	800.000	0.068	-0.204
-397.165	261.523	-0.183	0.317
-396.150	-87.076	-0.171	-0.052
-395.136	-167.984	-0.154	0.006
-394.121	-75.294	0.247	-0.088
-393.106	-33.692	0.322	-0.178
-392.092	277.961	-0.073	0.131
-391.077	800.000	-0.081	0.309
-390.063	-101.693	0.310	0.075
-389.048	-46.771	-0.041	0.020
-388.033	55.474	0.248	-0.240
-387.019	114.754	0.210	-0.256
-386.004	-200.000	0.082	-0.369
-384.990	-79.260	0.156	-0.053
-383.975	-149.722	-0.337	0.026
-382.960	-200.000	-0.006	0.216
-381.946	37.504	0.391	-0.347
-380.931	161.215	0.107	-0.150
-379.917	-62.617	-0.275	0.114
-378.902	-70.381	-0.124	0.047
-377.888	-46.159	0.121	-0.060
-376.873	-22.223	-0.166	-0.100
-375.858	245.827	-0.059	-0.099
-374.844	-48.783	0.148	-0.071
-373.829	-200.000	0.007	-0.305
-372.815	29.469	0.194	-0.165
-371.800	398.044	-0.059	-0.123
-370.785	4.529	0.169	0.124
-369.771	103.064	-0.130	-0.152
-368.756	87.703	-0.363	0.401
-367.742	-200.000	-0.041	0.320
-366.727	-106.101	-0.322	0.072
-365.712	-200.000	-0.008	0.078
-364.698	-14.300	-0.083	0.054
-363.683	-96.531	-0.047	-0.012
-362.669	-107.712	0.207	0.045
-361.654	-200.000	0.041	0.196
-360.639	-200.000	0.041	-0.257
-359.625	-200.000	-0.001	0.026
-358.610	-65.892	-0.254	0.101
-357.596	-85.004	0.104	-0.032
-356.581	24.399	-0.276	0.227
-355.566	-200.000	-0.037	-0.266
-354.552	133.062	0.136	-0.175
-353.537	-200.000	-0.006	0.354
-352.523	-91.830	-0.149	0.042
-351.508	-68.630	-0.269	0.104
-350.493	500.565	0.046	-0.107
-349.479	294.845	-0.069	0.125
-348.464	653.761	0.120	0.306
-347.450	475.933	0.127	0.285
-346.435	-200.000	0.045	-0.211
-345.420	800.000	0.074	0.271
-344.406	800.000	-0.162	-0.448
-343.391	-21.462	-0.191	-0.116
-342.377	-101.467	-0.151	0.037
-341.362	-56.232	-0.207	0.092
-340.348	159.352	0.087	0.121
-339.333	-81.973	0.206	0.067
-338.318	-200.000	-0.007	-0.205
-337.304	568.451	-0.054	0.131
-336.289	800.000	-0.084	-0.341
-335.275	34.564	0.206	0.180
-334.260	-15.666	-0.181	-0.115
-333.245	506.438	-0.024	-0.056
-332.231	122.804	-0.113	-0.141
-331.216	172.939	0.045	-0.065
-330.202	-200.000	0.055	-0.287
-329.187	800.000	-0.033	0.115
-328.172	39.695	0.146	0.131
-327.158	-200.000	-0.003	0.351
-326.143	800.000	-0.059	0.238
-325.129	-200.000	-0.034	-0.156
-324.114	-105.801	0.097	-0.022
-323.099	-143.343	-0.285	-0.027
-322.085	58.479	-0.178	0.174
-321.070	-101.915	-0.200	-0.048
-320.056	-96.000	-0.165	0.044
-319.041	-96.132	0.148	0.039
-318.026	36.881	0.301	0.265
-317.012	89.385	-0.232	-0.258
-315.997	-26.724	-0.094	0.055
-314.983	755.434	-0.126	0.338
-313.968	-200.000	-0.041	0.302
-312.953	223.199	-0.035	0.056
-311.939	-35.628	-0.208	0.113
-310.924	618.358	-0.031	0.078
-309.910	800.000	0.099	0.350
-308.895	-200.000	-0.027	0.184
-307.880	-19.906	0.072	0.044
-306.866	-200.000	-0.038	-0.211
-305.851	-125.699	0.268	-0.040
-304.837	-200.000	-0.006	0.143
-303.822	-200.000	0.004	0.113
-302.807	-200.000	0.013	0.117
-301.793	101.848	-0.187	0.217
-300.778	800.000	-0.047	-0.184
-299.764	178.425	0.113	0.164
-298.749	122.103	0.145	0.180
-297.735	-200.000	0.005	0.297
-296.720	-113.076	0.230	0.045
-295.705	800.000	-0.061	0.236
-294.691	-200.000	0.038	-0.456
-293.676	49.857	0.285	0.268
-292.662	23.215	0.173	-0.142
-291.647	-10.545	-0.168	-0.111
-290.632	11.495	0.160	0.122
-289.618	23.210	-0.255	-0.208
-288.603	-200.000	0.043	-0.240
-287.589	151.855	0.235	0.319
-286.574	-144.315	-0.390	-0.036
-285.559	-133.941	0.426	0.053
-284.545	-200.000	0.018	-0.196
-283.530	-29.952	-0.157	-0.089
-282.516	-200.000	0.009	0.310
-281.501	-11.357	0.237	0.155
-280.486	220.096	0.154	-0.245
-279.472	382.992	0.132	0.271
-278.457	-13.662	0.120	-0.077
-277.443	-200.000	0.105	-0.469
-276.428	800.000	0.034	0.144
-275.413	-15.771	0.113	-0.071
-274.399	98.959	0.154	-0.176
-273.384	-133.453	-0.142	0.018
-272.370	-200.000	0.003	0.316
-271.355	-91.310	-0.188	0.053
-270.340	245.241	0.068	0.114
-269.326	-174.626	0.302	0.009
-268.311	-175.191	0.263	-0.007
-267.297	542.868	-0.046	0.109
-266.282	-89.685	0.264	-0.077
-265.267	-53.947	-0.091	-0.041
-264.253	-61.383	-0.209	0.087
-263.238	-76.709	-0.199	-0.069
-262.224	-200.000	0.015	-0.166
-261.209	-200.000	-0.012	0.274
-260.195	-200.000	0.035	0.403
-259.180	-131.970	0.406	-0.053
-258.165	77.349	0.271	0.287
-257.151	27.334	0.108	-0.090
-256.136	386.733	0.082	0.168
-255.122	62.314	0.105	0.104
-254.107	89.300	-0.130	-0.143
-253.092	-93.853	-0.209	-0.057
-252.078	12.293	0.201	0.154
-251.063	-200.000	-0.008	-0.079
-250.049	13.267	0.227	-0.175
-249.034	-178.875	-0.245	-0.006
-248.019	-98.686	0.155	-0.039
-247.005	-200.000	-0.010	-0.062
-245.990	40.228	-0.081	0.073
-244.976	800.000	0.074	-0.296
-243.961	104.508	0.058	-0.068
-242.946	7.686	-0.089	-0.066
-241.932	26.500	-0.307	0.255
-240.917	-200.000	0.048	0.432
-239.903	-133.950	0.230	-0.028
-238.888	160.119	0.148	-0.205
-237.873	-200.000	-0.019	-0.159
-236.859	179.754	0.112	-0.163
-235.844	-54.130	0.091	0.041
-234.830	65.006	-0.193	-0.194
-233.815	-37.967	-0.239	-0.126
-232.800	-130.312	0.072	0.010
-231.786	-200.000	-0.058	-0.268
-230.771	179.261	-0.074	0.107
-229.757	800.000	-0.052	-0.217
-228.742	-166.929	0.021	0.001
-227.727	800.000	-0.072	-0.290
-226.713	-200.000	-0.026	0.212
-225.698	-102.802	0.338	0.080
-224.684	-142.413	-0.102	-0.010
-223.669	-102.275	0.269	0.064
-222.655	-200.000	0.033	0.253
-221.640	-200.000	0.074	-0.410
-220.625	-107.229	-0.144	-0.031
-219.611	-62.499	0.099	-0.041
-218.596	-16.350	-0.056	0.035
-217.582	-200.000	-0.009	0.073
-216.567	-200.000	-0.004	-0.167
-215.552	318.848	-0.085	-0.161
-214.538	413.424	-0.103	0.218
-213.523	800.000	0.009	0.025
-212.509	-200.000	-0.042	0.213
-211.494	-200.000	0.034	0.161
-210.479	-200.000	-0.024	-0.139
-209.465	189.655	-0.094	0.140
-208.450	-168.136	-0.059	-0.002
-207.436	34.772	0.163	0.141
-206.421	463.097	-0.200	-0.444
-205.406	-112.197	-0.206	0.041
-204.392	800.000	0.027	0.075
-203.377	135.649	-0.159	0.206
-202.363	-200.000	0.010	-0.321
-201.348	-98.282	-0.347	0.088
-200.333	800.000	0.031	-0.116
-199.319	800.000	0.004	0.016
-198.304	-159.866	-0.133	0.007
-197.290	-114.438	0.248	-0.047
-196.275	85.800	0.149	-0.163
-195.260	66.547	-0.312	-0.314
-194.246	-16.188	0.170	0.107
-193.231	800.000	-0.146	-0.414
-192.217	4.633	-0.245	0.178
-191.202	157.751	-0.144	0.198
-190.187	-200.000	-0.016	0.239
-189.173	-141.881	0.372	0.037
-188.158	123.943	-0.027	0.034
-187.144	-38.329	-0.209	0.110
-186.129	-200.000	-0.019	0.146
-185.114	-200.000	0.034	-0.297
-184.100	-121.990	0.031	-0.005
-183.085	-200.000	0.006	-0.033
-182.071	252.848	-0.182	0.307
-181.056	-200.000	0.009	-0.088
-180.042	-4.496	0.119	-0.081
-179.027	32.808	-0.271	0.232
-178.012	-200.000	0.051	0.426
-176.998	-200.000	-0.031	-0.160
-175.983	-200.000	0.062	-0.343
-174.969	-120.837	-0.015	0.003
-173.954	196.553	-0.022	0.034
-172.939	-200.000	0.005	0.106
-171.925	800.000	0.059	-0.166
-170.910	-200.000	-0.030	-0.178
-169.896	-26.727	0.038	-0.022
-168.881	17.534	0.161	0.127
-167.866	185.952	-0.052	0.076
-166.852	72.820	0.088	0.091
-165.837	-70.703	0.146	-0.055
-164.823	254.083	-0.246	-0.416
-163.808	-200.000	0.051	-0.245
-162.793	-107.863	0.119	-0.026
-161.779	46.876	-0.130	0.119
-160.764	13.292	-0.205	-0.157
-159.750	137.596	0.116	-0.151
-158.735	-200.000	-0.015	0.189
-157.720	-200.000	0.008	-0.053
-156.706	-73.480	-0.106	-0.038
-155.691	60.368	-0.031	-0.030
-154.677	-125.768	-0.108	0.016
-153.662	-124.450	0.234	-0.036
-152.647	229.505	-0.278	0.450
-151.633	-86.270	0.120	-0.037
-150.618	115.488	-0.110	-0.133
-149.604	-9.245	0.082	0.054
-148.589	800.000	-0.051	-0.189
-147.574	800.000	-0.061	-0.211
-146.560	474.835	-0.104	-0.231
-145.545	-102.933	0.014	0.003
-144.531	65.493	0.158	-0.159
-143.516	515.982	0.120	-0.278
-142.502	-43.456	-0.149	-0.075
-141.487	-200.000	0.003	0.058
-140.472	-200.000	-0.048	-0.277
-139.458	-57.193	0.380	-0.166
-138.443	-97.491	-0.354	0.091
-137.429	-45.926	0.043	0.021
-136.414	-57.659	-0.330	0.143
-135.399	-65.818	0.358	0.142
-134.385	83.954	0.065	0.071
-133.370	238.854	-0.036	0.060
-132.356	22.812	-0.057	-0.046
-131.341	-102.868	0.346	-0.081
-130.326	44.869	-0.137	-0.125
-129.312	-91.371	-0.138	0.039
-128.297	62.282	-0.175	0.173
-127.283	-84.492	0.190	0.059
-126.268	800.000	0.049	-0.213
-125.253	116.365	0.063	0.077
-124.239	-129.737	0.143	-0.020
-123.224	-27.325	0.380	-0.218
-122.210	-20.504	-0.078	0.048
-121.195	-31.830	0.342	-0.189
-120.180	754.417	0.126	0.336
-119.166	-200.000	0.018	0.161
-118.151	-200.000	-0.008	0.175
-117.137	-42.891	-0.275	-0.138
-116.122	536.557	0.142	-0.334
-115.107	117.506	0.113	0.137
-114.093	-200.000	-0.023	0.218
-113.078	54.087	-0.161	0.153
-112.064	-53.573	0.055	0.025
-111.049	800.000	-0.009	0.034
-110.034	-35.491	-0.251	0.135
-109.020	800.000	0.068	0.188
-108.005	196.546	0.092	0.138
-106.991	-154.475	-0.303	-0.020
-105.976	-200.000	0.015	-0.223
-104.962	-42.942	0.165	-0.083
-103.947	-74.318	-0.167	-0.059
-102.932	-7.875	0.114	-0.076
-101.918	-167.680	0.327	0.013
-100.903	-200.000	-0.031	0.156
-99.889	-65.556	-0.033	0.013
-98.874	-65.404	-0.188	0.075
-97.859	335.917	0.083	0.159
-96.845	27.129	-0.020	0.016
-95.830	229.056	-0.235	0.378
-94.816	3.864	-0.285	0.206
-93.801	314.123	0.159	0.296
-92.786	65.737	0.093	0.094
-91.772	632.930	-0.041	-0.103
-90.757	-62.215	0.151	0.062
-89.743	800.000	-0.041	0.128
-88.728	304.802	-0.162	0.297
-87.713	-200.000	0.088	0.416
-86.699	-42.356	-0.195	-0.098
-85.684	297.427	-0.058	-0.105
-84.670	-129.094	-0.143	-0.020
-83.655	244.570	0.106	0.176
-82.640	800.000	-0.062	-0.183
-81.626	382.710	0.108	-0.220
-80.611	-92.757	0.145	0.040
-79.597	14.477	0.166	0.128
-78.582	319.031	0.166	-0.310
-77.567	-44.736	0.250	0.123
-76.553	-132.352	-0.067	-0.008
-75.538	113.078	0.106	0.127
-74.524	64.607	0.078	0.078
-73.509	-200.000	-0.021	-0.247
-72.494	581.781	0.139	0.335
-71.480	283.950	-0.070	0.125
-70.465	167.770	0.135	-0.189
-69.451	18.566	0.100	0.079
-68.436	79.357	-0.175	0.185
-67.422	31.209	-0.133	0.112
-66.407	-4.237	0.271	0.185
-65.392	38.696	-0.317	-0.279
-64.378	-137.434	0.103	-0.011
-63.363	-200.000	-0.021	0.262
-62.349	12.879	-0.060	0.046
-61.334	-61.651	-0.798	-0.330
-60.319	103.511	0.327	0.378
-59.305	-200.000	0.041	-0.735
-58.290	143.270	0.793	1.041
-57.276	254.163	0.868	1.463
-56.261	-200.000	95.220	556.223
-55.246	546.847	1376.136	3245.844
-54.232	151.319	2602.083	3492.026
-53.217	107.951	2307.614	2710.980
-52.203	44.083	1920.921	1736.237
-51.188	37.689	1707.480	1494.390
-50.173	34.944	1661.765	1433.782
-49.159	51.801	1709.887	1603.798
-48.144	55.256	1727.489	1646.480
-47.130	37.545	1683.481	1472.058
-46.115	34.551	1668.614	1436.505
-45.100	34.396	1663.987	1431.301
-44.086	34.407	1661.192	1428.920
-43.071	34.405	1658.566	1426.593
-42.057	34.384	1656.287	1424.415
-41.042	34.365	1654.101	1422.337
-40.027	34.472	1651.956	1421.235
-39.013	34.351	1650.303	1418.858
-37.998	34.270	1648.871	1416.969
-36.984	34.536	1646.687	1417.013
-35.969	34.489	1645.739	1415.785
-34.954	34.515	1644.351	1414.732
-33.940	34.508	1642.429	1412.972
-32.925	34.483	1640.630	1411.184
-31.911	34.548	1638.747	1409.983
-30.896	34.531	1636.983	1408.288
-29.881	34.504	1635.280	1406.569
-28.867	34.634	1633.008	1405.510
-27.852	34.566	1631.989	1404.083
-26.838	34.611	1630.574	1403.136
-25.823	34.533	1629.306	1401.417
-24.809	34.544	1628.191	1400.484
-23.794	34.573	1626.459	1399.154
-22.779	34.546	1625.217	1397.833
-21.765	34.596	1623.315	1396.508
-20.750	34.612	1621.396	1394.917
-19.736	34.583	1620.430	1393.816
-18.721	34.593	1618.950	1392.564
-17.706	34.588	1617.365	1391.104
-16.692	34.558	1615.519	1389.242
-15.677	34.673	1613.861	1388.598
-14.663	34.643	1612.667	1387.301
-13.648	34.600	1611.304	1385.761
-12.633	34.500	1609.935	1383.803
-11.619	34.566	1608.083	1382.636
-10.604	34.618	1606.231	1381.365
-9.590	34.547	1605.457	1380.130
-8.575	34.663	1603.675	1379.379
-7.560	34.610	1602.678	1378.087
-6.546	34.578	1601.430	1376.730
-5.531	34.571	1600.340	1375.682
-4.517	34.608	1599.616	1375.277
-3.502	34.517	1599.014	1374.048
-2.487	34.657	1596.977	1373.251
-1.473	34.612	1586.135	1363.547
-0.458	32.433	1568.292	1332.745
0.556	29.262	1568.616	1304.216
1.571	27.075	1594.070	1309.511
2.586	26.512	1607.853	1316.625
3.600	22.873	1552.719	1245.748
4.615	12.341	1437.364	1083.948
5.629	3.443	1369.448	976.481
6.644	1.970	1361.028	961.116
7.659	1.803	1359.643	959.000
8.673	1.770	1358.353	957.799
9.688	1.658	1356.513	955.715
10.702	1.450	1353.745	952.379
11.717	4.837	1360.874	978.619
12.731	15.347	1380.639	1059.447
13.746	24.085	1395.764	1126.505
14.761	26.230	1398.313	1142.041
15.775	26.533	1398.405	1143.930
16.790	26.608	1397.710	1143.731
17.804	26.600	1396.953	1142.960
18.819	26.813	1397.051	1144.283
19.834	27.059	1395.937	1144.821
20.848	26.917	1395.285	1143.289
21.863	27.027	1394.408	1143.164
22.877	27.078	1393.368	1142.534
23.892	26.938	1392.599	1140.921
24.907	27.009	1391.701	1140.532
25.921	27.033	1390.454	1139.556
26.936	27.103	1389.771	1139.337
27.950	27.061	1388.491	1137.923
28.965	26.932	1387.757	1136.411
29.980	27.009	1386.298	1135.600
30.994	27.064	1385.065	1134.833
32.009	27.008	1384.149	1133.631
33.023	27.062	1382.927	1132.868
34.038	27.046	1381.686	1131.647
35.053	26.983	1381.247	1130.800
36.067	26.873	1380.437	1129.348
37.082	27.058	1379.308	1129.478
38.096	26.935	1378.578	1128.015
39.111	26.969	1377.480	1127.224
40.126	26.980	1377.148	1126.923
41.140	26.932	1376.255	1125.793
42.155	27.018	1375.917	1125.956
43.169	26.964	1376.250	1125.787
44.184	26.925	1375.404	1124.760
45.199	27.023	1375.067	1124.988
46.213	26.840	1375.063	1123.753
47.228	27.026	1373.543	1123.565
48.242	27.001	1372.584	1122.521
49.257	27.009	1371.379	1121.490
50.271	27.029	1369.706	1120.147
51.286	27.016	1368.471	1118.954
52.301	26.850	1367.659	1117.167
53.315	26.915	1366.458	1116.492
54.330	26.950	1365.647	1115.941
55.344	27.037	1364.183	1115.184
56.359	27.009	1363.060	1113.997
57.374	26.937	1362.541	1113.027
58.388	26.969	1361.764	1112.495
59.403	27.018	1361.419	1112.413
60.417	27.012	1360.856	1111.816
61.432	26.925	1360.269	1110.704
62.447	26.892	1359.640	1109.891
63.461	26.944	1357.953	1108.738
64.476	26.983	1357.334	1108.371
65.490	27.002	1356.025	1107.318
66.505	27.037	1354.328	1106.046
67.520	26.972	1353.311	1104.726
68.534	26.965	1352.353	1103.801
69.549	27.072	1351.580	1103.726
70.563	26.933	1350.925	1102.250
71.578	27.015	1349.786	1101.719
72.593	26.975	1348.494	1100.322
73.607	26.929	1348.536	1099.983
74.622	26.990	1347.203	1099.169
75.636	27.027	1346.808	1098.972
76.651	26.955	1346.215	1097.952
77.666	27.020	1345.304	1097.507
78.680	27.013	1345.147	1097.242
79.695	27.012	1344.462	1096.575
80.709	26.982	1343.769	1095.732
81.724	26.962	1342.941	1094.843
82.739	26.937	1341.865	1093.716
83.753	26.963	1340.473	1092.642
84.768	27.044	1339.483	1092.225
85.782	27.026	1338.162	1090.945
86.797	27.063	1337.330	1090.388
87.812	27.093	1335.973	1089.368
88.826	27.002	1335.202	1088.096
89.841	27.013	1334.613	1087.585
90.855	27.062	1333.058	1086.514
91.870	27.035	1332.300	1085.642
92.884	26.982	1331.579	1084.640
93.899	27.000	1331.267	1084.397
94.914	27.025	1330.300	1083.663
95.928	27.078	1329.321	1083.087
96.943	27.031	1328.666	1082.177
97.957	27.049	1327.799	1081.485
98.972	27.051	1327.189	1080.904
99.987	26.983	1326.399	1079.759
101.001	27.007	1324.981	1078.654
102.016	27.006	1324.169	1077.887
103.030	27.036	1323.128	1077.126
104.045	26.849	1322.832	1075.676
105.060	27.047	1321.562	1075.726
106.074	27.049	1320.651	1074.899
107.089	27.055	1319.305	1073.742
108.103	27.123	1318.168	1073.122
109.118	27.179	1317.263	1072.625
110.133	27.095	1316.208	1071.173
111.147	27.112	1315.247	1070.399
112.162	27.123	1313.609	1069.034
113.176	27.080	1312.602	1067.867
114.191	27.129	1312.230	1067.761
115.206	27.118	1310.954	1066.563
116.220	27.158	1309.708	1065.690
117.235	27.108	1309.220	1064.906
118.249	27.085	1308.699	1064.251
119.264	27.113	1307.521	1063.366
120.279	27.084	1307.193	1062.831
121.293	27.191	1306.095	1062.468
122.308	27.111	1305.554	1061.468
123.322	27.224	1304.358	1061.061
124.337	27.154	1303.345	1059.733
125.352	27.230	1302.665	1059.532
126.366	27.238	1301.657	1058.668
127.381	27.184	1301.059	1057.770
128.395	27.149	1300.162	1056.746
129.410	27.177	1299.162	1056.003
130.424	27.237	1298.626	1055.818
131.439	27.188	1297.888	1054.844
132.454	27.136	1297.281	1053.954
133.468	27.179	1296.380	1053.377
134.483	27.223	1295.655	1052.950
135.497	27.105	1295.287	1051.877
136.512	27.167	1293.852	1050.973
137.527	27.110	1292.969	1049.834
138.541	27.121	1291.572	1048.672
139.556	27.233	1290.738	1048.546
140.570	27.216	1289.605	1047.435
141.585	27.261	1287.864	1046.189
142.600	27.172	1287.336	1045.156
143.614	27.086	1286.853	1044.174
144.629	27.091	1285.808	1043.263
145.643	27.025	1284.570	1041.791
146.658	27.018	1283.351	1040.667
147.673	27.070	1282.704	1040.352
148.687	27.036	1281.670	1039.225
149.702	27.031	1280.405	1038.076
150.716	27.034	1279.352	1037.151
151.731	27.212	1278.028	1037.000
152.746	27.131	1277.274	1035.834
153.760	27.136	1276.335	1035.010
154.775	27.116	1275.172	1033.862
155.789	27.142	1274.368	1033.264
156.804	27.114	1273.673	1032.451
157.819	27.116	1272.729	1031.609
158.833	27.222	1271.898	1031.441
159.848	27.241	1271.497	1031.133
160.862	27.218	1270.632	1030.212
161.877	27.249	1270.048	1029.825
162.892	27.283	1268.985	1029.061
163.906	27.196	1268.604	1028.172
164.921	27.239	1267.716	1027.600
165.935	27.226	1267.162	1026.990
166.950	27.231	1266.563	1026.443
167.964	27.253	1265.639	1025.728
168.979	27.277	1264.997	1025.248
169.994	27.259	1264.779	1024.884
171.008	27.324	1263.639	1024.233
172.023	27.216	1263.179	1023.161
173.037	27.240	1262.282	1022.480
174.052	27.227	1261.855	1021.971
175.067	27.362	1260.534	1021.567
176.081	27.361	1259.756	1020.838
177.096	27.304	1259.421	1020.161
178.110	27.406	1258.111	1019.579
179.125	27.321	1257.346	1018.391
180.140	27.303	1256.437	1017.466
181.154	27.289	1255.354	1016.420
182.169	27.343	1253.646	1015.249
183.183	27.276	1253.062	1014.313
184.198	27.301	1252.377	1013.806
185.213	27.314	1251.222	1012.855
186.227	27.410	1250.468	1012.690
187.242	27.355	1249.405	1011.436
188.256	27.350	1248.738	1010.779
189.271	27.306	1247.815	1009.698
190.286	27.508	1246.743	1009.859
191.300	27.391	1246.475	1008.903
192.315	27.370	1246.071	1008.373
193.329	27.330	1245.685	1007.751
194.344	27.443	1245.115	1007.824
195.359	27.367	1244.843	1007.095
196.373	27.310	1244.378	1006.312
197.388	27.326	1243.811	1005.854
198.402	27.244	1243.800	1005.304
199.417	27.377	1243.001	1005.305
200.432	27.371	1242.284	1004.599
201.446	27.500	1241.172	1004.323
202.461	27.292	1241.290	1003.182
203.475	27.340	1240.272	1002.536
204.490	27.351	1239.159	1001.606
205.504	27.369	1238.042	1000.717
206.519	27.326	1237.425	999.890
207.534	27.416	1236.225	999.329
208.548	27.381	1235.626	998.561
209.563	27.480	1234.820	998.365
210.577	27.393	1234.056	997.183
211.592	27.415	1233.516	996.782
212.607	27.483	1232.558	996.291
213.621	27.445	1232.072	995.599
214.636	27.516	1231.041	995.070
215.650	27.512	1230.214	994.288
216.665	27.489	1228.731	992.876
217.680	27.439	1228.389	992.240
218.694	27.572	1227.289	991.989
219.709	27.475	1226.534	990.760
220.723	27.591	1225.872	990.773
221.738	27.522	1225.175	989.748
222.753	27.543	1224.278	989.047
223.767	27.452	1224.218	988.416
224.782	27.573	1223.752	988.611
225.796	27.612	1222.818	987.978
226.811	27.662	1222.270	987.718
227.826	27.638	1221.806	987.129
228.840	27.590	1221.335	986.398
229.855	27.500	1220.732	985.338
230.869	27.559	1220.044	985.015
231.884	27.556	1219.262	984.279
232.899	27.560	1218.622	983.699
233.913	27.601	1217.866	983.223
234.928	27.664	1217.183	982.924
235.942	27.745	1216.324	982.576
236.957	27.828	1215.664	982.403
237.972	27.653	1215.502	981.243
238.986	27.660	1214.886	980.698
240.001	27.598	1214.135	979.670
241.015	27.675	1213.633	979.597
242.030	27.766	1212.585	979.152
243.045	27.725	1211.928	978.313
244.059	27.894	1210.629	978.084
245.074	27.761	1210.370	977.075
246.088	27.757	1209.492	976.261
247.103	27.850	1208.540	975.902
248.117	27.845	1207.851	975.233
249.132	27.746	1207.190	974.085
250.147	27.847	1206.491	973.969
251.161	27.892	1205.432	973.269
252.176	27.880	1204.851	972.654
253.190	27.766	1204.433	971.619
254.205	27.838	1203.812	971.418
255.220	27.821	1203.218	970.762
256.234	27.912	1202.761	970.791
257.249	27.891	1201.750	969.778
258.263	27.918	1201.376	969.530
259.278	27.843	1201.313	968.996
260.293	27.853	1200.627	968.412
261.307	27.740	1200.046	967.259
262.322	27.828	1199.302	967.041
263.336	27.958	1198.483	966.983
264.351	27.964	1198.177	966.683
265.366	28.014	1197.380	966.217
266.380	28.004	1196.513	965.376
267.395	27.925	1195.921	964.401
268.409	27.895	1195.482	963.801
269.424	27.879	1194.783	963.065
270.439	27.905	1194.985	963.284
271.453	27.953	1193.910	962.583
272.468	27.932	1192.645	961.366
273.482	27.868	1192.219	960.601
274.497	27.931	1191.811	960.523
275.512	28.077	1190.904	960.474
276.526	27.996	1190.542	959.670
277.541	28.049	1189.612	959.111
278.555	28.028	1189.198	958.583
279.570	28.053	1188.500	958.068
280.585	28.051	1187.554	957.210
281.599	28.001	1186.725	956.193
282.614	28.089	1185.778	955.808
283.628	27.956	1185.228	954.585
284.643	28.074	1184.101	954.209
285.657	28.120	1183.465	953.850
286.672	28.115	1182.579	953.028
287.687	28.158	1181.548	952.336
288.701	28.014	1181.068	951.117
289.716	28.057	1180.753	951.004
290.730	28.092	1179.686	950.240
291.745	28.072	1179.376	949.802
292.760	28.187	1178.404	949.531
293.774	28.203	1177.887	949.115
294.789	28.240	1177.721	949.088
295.803	28.219	1176.576	947.972
296.818	28.160	1176.295	947.358
297.833	28.178	1175.691	946.880
298.847	28.231	1174.992	946.507
299.862	28.163	1173.923	945.213
300.876	28.359	1173.192	945.552
301.891	28.228	1173.074	944.693
302.906	28.308	1172.062	944.210
303.920	28.266	1171.874	943.760
304.935	28.151	1171.599	942.860
305.949	28.336	1170.277	942.665
306.964	28.326	1169.701	942.064
307.979	28.359	1168.887	941.497
308.993	28.382	1168.544	941.255
310.008	28.287	1167.949	940.207
311.022	28.394	1166.880	939.809
312.037	28.418	1166.430	939.487
313.052	28.362	1165.280	938.193
314.066	28.321	1164.769	937.487
315.081	28.314	1163.949	936.707
316.095	28.441	1163.131	936.617
317.110	28.300	1162.620	935.400
318.125	28.374	1162.226	935.379
319.139	28.407	1161.195	934.633
320.154	28.431	1160.828	934.382
321.168	28.418	1160.226	933.746
322.183	28.417	1159.601	933.155
323.197	28.320	1159.471	932.473
324.212	28.452	1158.613	932.371
325.227	28.483	1158.052	931.997
326.241	28.470	1157.771	931.623
327.256	28.591	1156.274	930.948
328.270	28.533	1155.748	930.151
329.285	28.474	1155.334	929.436
330.300	28.459	1154.647	928.723
331.314	28.569	1153.472	928.253
332.329	28.630	1152.475	927.678
333.343	28.580	1151.704	926.724
334.358	28.551	1151.138	926.037
335.373	28.692	1150.261	925.960
336.387	28.551	1150.067	925.014
337.402	28.686	1149.181	924.897
338.416	28.678	1148.392	924.140
339.431	28.689	1148.270	924.018
340.446	28.686	1147.150	923.017
341.460	28.671	1146.639	922.451
342.475	28.631	1145.957	921.619
343.489	28.794	1144.981	921.571
344.504	28.720	1144.191	920.482
345.519	28.776	1143.361	920.014
346.533	28.822	1142.448	919.426
347.548	28.779	1141.911	918.701
348.562	28.692	1141.531	917.878
349.577	28.718	1140.422	917.033
350.592	28.745	1139.719	916.524
351.606	28.695	1138.747	915.410
352.621	28.707	1138.870	915.489
353.635	28.755	1138.385	915.254
354.650	28.811	1137.355	914.625
355.665	28.840	1136.888	914.314
356.679	28.859	1136.267	913.830
357.694	28.900	1135.369	913.231
358.708	28.876	1134.937	912.683
359.723	28.778	1134.234	911.547
360.738	28.844	1133.379	911.110
361.752	28.767	1132.933	910.289
362.767	28.969	1132.463	910.831
363.781	28.946	1131.907	910.190
364.796	28.877	1131.626	909.540
365.810	28.887	1131.196	909.162
366.825	28.952	1130.667	908.978
367.840	29.011	1130.037	908.683
368.854	29.087	1128.841	908.014
369.869	28.993	1128.159	906.923
370.883	29.104	1127.613	906.953
371.898	28.976	1127.132	905.853
372.913	29.029	1126.433	905.473
373.927	29.085	1125.804	905.161
374.942	28.970	1125.470	904.248
375.956	29.014	1124.658	903.731
376.971	29.072	1124.378	903.714
377.986	29.085	1124.002	903.392
379.000	29.130	1123.348	903.007
380.015	29.088	1123.154	902.567
381.029	28.992	1122.287	901.319
382.044	29.164	1121.109	901.138
383.059	29.157	1120.581	900.598
384.073	29.180	1120.091	900.236
385.088	29.199	1119.057	899.418
386.102	29.267	1118.157	898.946
387.117	29.129	1117.378	897.567
388.132	29.273	1116.557	897.531
389.146	29.254	1115.885	896.819
390.161	29.153	1115.696	896.095
391.175	29.118	1115.057	895.333
392.190	29.159	1114.204	894.769
393.205	29.359	1113.079	894.758
394.219	29.249	1113.084	894.150
395.234	29.274	1112.147	893.436
396.248	29.263	1110.989	892.374
397.263	29.376	1110.229	892.233
398.278	29.319	1109.675	891.431
399.292	29.358	1109.351	891.281
400.307	29.377	1109.012	891.022
401.321	29.359	1107.686	889.793
402.336	29.301	1107.318	889.137
403.350	29.340	1106.713	888.760
404.365	29.446	1105.896	888.536
405.380	29.432	1105.294	887.905
406.394	29.448	1104.463	887.240
407.409	29.421	1103.902	886.580
408.423	29.660	1102.931	886.866
409.438	29.440	1102.492	885.383
410.453	29.567	1101.734	885.300
411.467	29.532	1101.118	884.561
412.482	29.485	1100.676	883.905
413.496	29.551	1099.668	883.330
414.511	29.510	1098.948	882.480
415.526	29.537	1098.763	882.380
416.540	29.680	1098.314	882.623
417.555	29.544	1097.647	881.364
418.569	29.513	1097.370	880.915
419.584	29.574	1097.003	880.833
420.599	29.571	1096.976	880.718
421.613	100.234	1318.930	1443.942
422.628	93.604	1351.246	1444.073
