DTS Sentinel unit serial number:	SN413079Multiplexer serial number:	ORYXHardware model number:	OX4-SRSoftware version number:	ORYX F/W v4.00 Oryx Data Collector v3.7.2.0data status	okinstallation	princeton_trtdifferential loss correction	single-endedforward channel	channel 2reverse channel	N/Adate	2019/09/19time	10:23:34forward acquisition time	60.00reverse acquisition time	0.00gamma	496.2192k internal	0.2343k external	0.2343temperature offset calibration	1.0006default loss term (dB/km)	0.3790temperature slope calibration	1.0000multiplexer offset coefficient	1.0000multiplexer slope coefficient	1.0000fibre end	0.00T internal ref (°C)	24.25T ext. ref 1 (°C)	0.70T ext. ref 2 (°C)	19.86length (m)	temperature (°C)	Stokes	anti-Stokes-747.200	-136.799	-0.295	-0.034
-746.185	-135.473	-0.286	0.034
-745.171	-200.000	0.044	-0.205
-744.156	17.605	0.239	0.190
-743.142	-74.851	0.404	-0.145
-742.127	-200.000	-0.006	0.413
-741.112	-24.326	0.250	-0.149
-740.098	-90.253	-0.206	0.060
-739.083	517.062	0.079	0.186
-738.069	-107.407	-0.367	0.081
-737.054	187.992	0.068	-0.101
-736.039	380.711	-0.066	0.135
-735.025	44.654	0.399	0.367
-734.010	800.000	-0.106	-0.314
-732.996	-153.406	-0.182	0.013
-731.981	-200.000	0.056	0.416
-730.966	327.817	-0.039	0.076
-729.952	302.790	-0.049	0.090
-728.937	18.567	-0.265	-0.212
-727.923	800.000	-0.063	-0.180
-726.908	49.616	-0.055	0.052
-725.894	-48.518	-0.098	-0.047
-724.879	-67.709	0.161	0.063
-723.864	4.418	0.271	-0.199
-722.850	-200.000	0.040	-0.224
-721.835	-24.111	0.101	-0.060
-720.821	161.992	-0.178	-0.250
-719.806	-200.000	0.127	0.000
-718.791	-50.602	-0.179	-0.084
-717.777	-129.275	-0.326	0.045
-716.762	142.180	-0.190	-0.252
-715.748	-200.000	-0.017	-0.177
-714.733	-22.556	0.231	-0.140
-713.718	573.681	-0.052	0.126
-712.704	-48.100	-0.030	0.014
-711.689	115.120	0.261	-0.318
-710.675	-40.116	-0.039	-0.020
-709.660	-53.121	-0.081	0.037
-708.645	33.309	0.151	-0.131
-707.631	244.721	0.023	-0.039
-706.616	-126.889	-0.452	0.067
-705.602	800.000	0.040	0.150
-704.587	-30.958	-0.248	-0.140
-703.572	-117.110	0.167	-0.030
-702.558	377.346	-0.101	0.205
-701.543	327.992	0.081	-0.155
-700.529	34.499	0.139	0.122
-699.514	12.262	-0.452	-0.348
-698.499	81.878	0.199	0.215
-697.485	163.991	0.125	-0.176
-696.470	-61.921	0.109	-0.046
-695.456	-99.525	-0.375	-0.094
-694.441	-185.599	-0.103	0.002
-693.426	-54.106	0.144	-0.066
-692.412	-77.119	0.186	-0.065
-691.397	-24.214	-0.120	-0.071
-690.383	-131.032	-0.286	0.038
-689.368	-200.000	-0.042	-0.254
-688.354	33.713	-0.408	0.355
-687.339	-55.493	0.187	0.084
-686.324	-200.000	0.054	0.249
-685.310	451.498	-0.211	0.466
-684.295	273.265	-0.091	-0.161
-683.281	-35.788	0.286	-0.155
-682.266	-119.792	-0.268	0.046
-681.251	-193.724	0.287	0.002
-680.237	-200.000	-0.020	-0.244
-679.222	644.658	-0.230	0.585
-678.208	173.730	-0.053	0.076
-677.193	479.639	0.175	0.395
-676.178	-200.000	-0.014	-0.238
-675.164	22.230	0.172	0.140
-674.149	283.839	-0.049	0.087
-673.135	-200.000	0.007	0.315
-672.120	30.563	0.091	-0.078
-671.105	489.669	0.041	-0.093
-670.091	-199.942	-0.254	0.001
-669.076	-0.321	-0.241	-0.171
-668.062	478.764	0.041	-0.093
-667.047	-112.182	0.173	0.035
-666.032	-175.131	-0.169	-0.005
-665.018	787.382	-0.150	0.410
-664.003	-36.580	-0.187	-0.101
-662.989	800.000	0.042	0.175
-661.974	800.000	0.035	-0.098
-660.959	167.627	-0.074	-0.105
-659.945	800.000	0.051	0.183
-658.930	-200.000	0.019	0.115
-657.916	310.809	0.132	-0.247
-656.901	-45.998	-0.066	0.033
-655.886	114.519	0.122	-0.148
-654.872	-122.024	-0.288	-0.047
-653.857	-186.431	0.306	-0.004
-652.843	-160.386	0.076	0.004
-651.828	-200.000	-0.029	0.153
-650.814	-182.637	0.046	-0.001
-649.799	-117.226	-0.255	-0.046
-648.784	69.198	0.147	-0.151
-647.770	-193.942	-0.080	-0.001
-646.755	-118.001	-0.246	-0.044
-645.741	-125.217	-0.416	-0.064
-644.726	223.155	0.085	-0.136
-643.711	42.804	0.191	0.173
-642.697	800.000	0.026	-0.115
-641.682	-56.640	0.182	-0.080
-640.668	41.044	-0.135	0.122
-639.653	6.074	-0.318	0.235
-638.638	9.846	0.301	-0.228
-637.624	203.265	-0.051	0.078
-636.609	-87.315	-0.241	0.073
-635.595	6.038	0.226	-0.167
-634.580	-161.953	-0.155	-0.008
-633.565	500.304	-0.035	0.079
-632.551	-200.000	0.004	0.208
-631.536	243.131	0.105	-0.175
-630.522	800.000	0.053	0.171
-629.507	-103.482	-0.364	0.085
-628.492	-200.000	0.002	-0.089
-627.478	800.000	-0.100	-0.305
-626.463	413.503	0.064	-0.135
-625.449	249.432	-0.065	-0.110
-624.434	40.076	0.202	-0.181
-623.419	800.000	0.066	0.216
-622.405	-38.952	-0.129	0.068
-621.390	-53.887	-0.280	-0.127
-620.376	-21.600	-0.171	-0.104
-619.361	29.276	-0.250	-0.212
-618.346	-62.530	-0.364	-0.150
-617.332	128.672	0.205	-0.260
-616.317	571.728	-0.030	-0.073
-615.303	20.111	-0.071	-0.057
-614.288	165.369	-0.045	0.063
-613.273	-200.000	-0.020	0.163
-612.259	-200.000	0.001	0.140
-611.244	315.997	0.055	-0.104
-610.230	800.000	-0.014	-0.041
-609.215	-5.929	0.216	-0.147
-608.201	-7.267	-0.233	0.157
-607.186	-58.985	-0.028	0.012
-606.171	-200.000	0.034	0.292
-605.157	423.987	0.094	-0.201
-604.142	-67.674	-0.173	0.068
-603.128	345.219	0.126	-0.246
-602.113	-79.602	-0.117	0.039
-601.098	7.189	-0.142	-0.105
-600.084	-200.000	0.339	0.002
-599.069	800.000	0.112	0.344
-598.055	9.951	0.178	0.135
-597.040	643.955	0.067	0.171
-596.025	-118.337	0.066	0.012
-595.011	-126.993	-0.276	-0.040
-593.996	-25.987	-0.128	-0.075
-592.982	275.308	0.033	-0.059
-591.967	-117.065	0.135	0.025
-590.952	240.403	0.061	-0.101
-589.938	93.671	-0.115	-0.130
-588.923	196.217	0.133	0.202
-587.909	-109.859	0.263	-0.055
-586.894	-66.877	0.056	0.022
-585.879	-138.950	-0.396	0.043
-584.865	-200.000	-0.006	0.427
-583.850	-200.000	-0.029	0.241
-582.836	7.317	-0.094	0.070
-581.821	-60.900	-0.166	-0.070
-580.806	-121.784	0.135	0.022
-579.792	-98.616	-0.208	-0.053
-578.777	632.145	0.047	-0.120
-577.763	-185.988	0.256	0.004
-576.748	-73.405	-0.162	0.059
-575.733	234.958	0.053	0.087
-574.719	-116.516	-0.224	-0.041
-573.704	80.681	-0.051	-0.055
-572.690	800.000	-0.016	-0.060
-571.675	-200.000	0.003	0.371
-570.661	-200.000	-0.027	0.325
-569.646	-135.253	-0.228	0.027
-568.631	-124.538	0.229	-0.035
-567.617	-40.398	0.174	-0.090
-566.602	172.719	-0.194	0.278
-565.588	238.953	0.147	0.243
-564.573	-39.304	0.139	0.073
-563.558	406.864	-0.161	0.339
-562.544	800.000	0.053	0.185
-561.529	-200.000	0.042	-0.312
-560.515	47.569	-0.182	-0.168
-559.500	-134.146	0.230	0.028
-558.485	-200.000	-0.038	-0.210
-557.471	800.000	-0.031	-0.110
-556.456	5.451	-0.198	-0.145
-555.442	99.735	-0.092	0.106
-554.427	14.717	-0.171	0.133
-553.412	-78.886	0.401	0.136
-552.398	-41.519	0.106	-0.054
-551.383	-97.705	0.375	0.096
-550.369	-99.262	0.163	0.041
-549.354	800.000	-0.118	-0.397
-548.339	-200.000	-0.033	0.174
-547.325	-137.457	0.121	0.014
-546.310	-200.000	-0.021	0.148
-545.296	285.304	0.132	0.236
-544.281	-200.000	-0.047	-0.524
-543.266	326.413	0.083	-0.158
-542.252	397.348	0.039	-0.082
-541.237	-140.160	-0.365	-0.038
-540.223	6.904	-0.058	-0.043
-539.208	-99.809	0.197	0.049
-538.193	-200.000	-0.001	-0.233
-537.179	-200.000	0.004	-0.215
-536.164	80.338	0.061	0.065
-535.150	-18.786	0.217	0.134
-534.135	-41.927	0.116	-0.059
-533.121	167.404	0.085	-0.121
-532.106	-59.355	0.213	0.091
-531.091	-166.706	-0.316	-0.013
-530.077	182.708	0.213	0.312
-529.062	-20.960	-0.342	0.208
-528.048	-200.000	0.005	-0.060
-527.033	17.549	0.311	0.246
-526.018	-102.418	0.103	0.025
-525.004	77.692	-0.176	-0.186
-523.989	-200.000	-0.014	0.234
-522.975	-72.683	-0.270	-0.099
-521.960	-200.000	-0.020	0.190
-520.945	800.000	0.067	-0.289
-519.931	253.061	-0.090	-0.153
-518.916	57.292	-0.149	0.144
-517.902	72.462	-0.153	-0.158
-516.887	358.401	0.153	0.304
-515.872	-200.000	0.003	0.170
-514.858	-136.309	-0.134	0.015
-513.843	634.017	0.115	0.290
-512.829	84.332	0.048	0.052
-511.814	1.891	-0.185	0.132
-510.799	112.721	-0.146	-0.175
-509.785	43.651	0.036	-0.033
-508.770	-48.985	-0.355	0.169
-507.756	-69.905	-0.369	-0.140
-506.741	204.443	-0.176	-0.271
-505.726	786.602	-0.028	0.075
-504.712	131.751	0.131	0.167
-503.697	27.575	0.234	-0.195
-502.683	-200.000	-0.012	-0.142
-501.668	-95.408	0.214	-0.057
-500.653	186.203	-0.137	0.203
-499.639	800.000	-0.128	0.422
-498.624	-200.000	0.039	0.240
-497.610	800.000	0.053	-0.230
-496.595	-200.000	0.024	-0.330
-495.581	-102.418	-0.088	0.021
-494.566	191.578	-0.101	0.150
-493.551	800.000	0.052	-0.150
-492.537	-129.582	0.282	0.039
-491.522	25.038	0.174	0.143
-490.508	-90.752	0.025	0.007
-489.493	-200.000	0.011	-0.244
-488.478	-77.887	0.236	-0.081
-487.464	-119.795	-0.300	0.051
-486.449	630.793	-0.107	-0.269
-485.435	-115.028	-0.137	0.026
-484.420	702.870	0.080	-0.209
-483.405	-165.602	0.222	0.010
-482.391	-32.162	-0.282	0.156
-481.376	-179.975	-0.249	0.005
-480.362	-200.000	0.024	-0.341
-479.347	275.414	0.189	-0.332
-478.332	160.666	0.212	-0.293
-477.318	295.033	0.064	-0.116
-476.303	264.600	0.105	0.181
-475.289	106.874	0.153	-0.180
-474.274	435.218	0.170	0.366
-473.259	-90.141	-0.107	-0.031
-472.245	246.644	0.102	0.170
-471.230	-39.869	-0.014	0.007
-470.216	-200.000	-0.004	0.021
-469.201	800.000	0.082	-0.238
-468.186	94.853	0.217	-0.244
-467.172	57.016	-0.250	0.242
-466.157	0.845	-0.321	-0.227
-465.143	71.914	-0.393	-0.404
-464.128	-65.009	-0.341	-0.137
-463.113	100.090	-0.179	-0.205
-462.099	204.231	-0.081	-0.125
-461.084	-12.219	-0.210	-0.136
-460.070	209.797	-0.087	0.136
-459.055	85.291	0.073	-0.079
-458.040	-87.947	-0.208	-0.062
-457.026	318.485	0.029	-0.055
-456.011	-32.868	0.069	0.038
-454.997	44.596	0.077	0.070
-453.982	615.818	0.098	0.243
-452.968	-56.005	0.393	0.173
-451.953	-174.603	0.172	-0.005
-450.938	-111.438	0.428	-0.086
-449.924	205.221	-0.222	-0.342
-448.909	417.437	0.150	0.318
-447.895	56.202	0.086	-0.082
-446.880	-125.671	-0.255	0.038
-445.865	-67.329	0.172	0.067
-444.851	-36.083	0.390	0.209
-443.836	-142.248	0.096	-0.009
-442.822	800.000	0.096	-0.280
-441.807	-27.779	0.219	-0.126
-440.792	8.521	-0.194	0.145
-439.778	-16.681	0.246	-0.154
-438.763	-200.000	0.090	-0.454
-437.749	129.890	0.117	0.149
-436.734	-85.569	-0.170	0.052
-435.719	598.581	-0.126	0.308
-434.705	800.000	0.107	0.314
-433.690	80.702	-0.185	-0.198
-432.676	349.414	-0.083	0.162
-431.661	48.932	-0.216	-0.200
-430.646	-97.705	0.248	0.063
-429.632	-200.000	0.028	-0.325
-428.617	45.262	0.180	-0.164
-427.603	-122.633	0.137	-0.022
-426.588	494.985	-0.115	-0.262
-425.573	537.975	0.087	-0.205
-424.559	316.584	-0.024	-0.045
-423.544	63.953	-0.056	-0.056
-422.530	-200.000	-0.037	-0.163
-421.515	16.785	0.364	-0.285
-420.500	-39.889	-0.120	0.062
-419.486	-161.433	-0.243	-0.012
-418.471	-82.233	-0.027	0.009
-417.457	45.180	0.167	0.152
-416.442	800.000	-0.075	0.245
-415.428	147.165	0.283	0.376
-414.413	-200.000	0.035	-0.200
-413.398	-200.000	-0.042	0.217
-412.384	-166.391	0.527	0.022
-411.369	800.000	0.099	0.402
-410.355	230.455	-0.128	0.206
-409.340	26.383	-0.041	0.034
-408.325	-60.222	-0.070	0.030
-407.311	-94.586	-0.408	0.110
-406.296	-122.851	0.120	-0.019
-405.282	-200.000	0.020	0.295
-404.267	438.973	-0.078	0.169
-403.252	-48.282	-0.326	-0.155
-402.238	800.000	0.073	0.311
-401.223	-200.000	0.075	-0.421
-400.209	-140.511	-0.346	-0.036
-399.194	110.739	0.181	0.216
-398.179	-101.436	0.079	0.019
-397.165	-200.000	-0.012	-0.089
-396.150	189.638	0.131	-0.193
-395.136	282.974	0.103	-0.182
-394.121	477.728	0.110	0.246
-393.106	-51.944	0.145	-0.067
-392.092	800.000	0.041	0.165
-391.077	208.637	0.122	0.188
-390.063	-88.080	-0.218	-0.065
-389.048	9.867	0.152	0.114
-388.033	210.075	0.039	0.060
-387.019	129.844	-0.190	-0.239
-386.004	-7.853	0.154	-0.103
-384.990	164.190	0.193	-0.268
-383.975	60.390	0.127	-0.124
-382.960	346.157	0.047	-0.091
-381.946	339.173	-0.099	0.190
-380.931	375.713	-0.075	0.151
-379.917	-147.441	-0.061	-0.005
-378.902	-200.000	-0.090	-0.435
-377.888	12.232	-0.337	-0.256
-376.873	-71.129	0.144	0.053
-375.858	256.126	0.095	-0.160
-374.844	409.076	0.140	0.292
-373.829	800.000	-0.099	-0.277
-372.815	759.975	-0.037	-0.099
-371.800	-62.750	-0.334	-0.137
-370.785	41.934	0.240	0.215
-369.771	800.000	-0.051	0.172
-368.756	-200.000	0.008	-0.063
-367.742	13.867	0.223	-0.171
-366.727	-200.000	-0.013	-0.092
-365.712	-200.000	0.005	0.153
-364.698	-55.436	0.198	0.087
-363.683	-118.954	-0.196	0.034
-362.669	-118.065	0.220	0.039
-361.654	543.301	0.091	0.214
-360.639	-105.585	-0.123	0.027
-359.625	46.891	-0.118	0.108
-358.610	800.000	0.068	0.232
-357.596	-91.461	0.018	0.005
-356.581	81.255	0.216	0.230
-355.566	-63.767	-0.178	-0.072
-354.552	231.931	-0.132	-0.214
-353.537	-35.763	0.024	0.013
-352.523	-51.797	0.292	-0.134
-351.508	-133.959	0.294	0.036
-350.493	77.919	-0.203	-0.213
-349.479	58.355	0.253	-0.245
-348.464	-200.000	-0.025	-0.395
-347.450	-3.948	0.114	0.078
-346.435	5.973	-0.180	-0.131
-345.420	-3.290	0.299	0.205
-344.406	142.847	0.163	-0.213
-343.391	-200.000	0.024	-0.159
-342.377	-16.881	0.101	0.063
-341.362	-41.734	0.300	-0.152
-340.348	51.301	-0.112	0.104
-339.333	800.000	-0.048	0.190
-338.318	68.911	-0.018	0.018
-337.304	800.000	0.053	-0.157
-336.289	406.751	-0.189	-0.392
-335.275	172.603	-0.152	-0.216
-334.260	800.000	0.013	0.036
-333.245	-150.849	0.208	0.016
-332.231	-104.746	0.370	-0.084
-331.216	800.000	0.040	0.110
-330.202	44.523	0.059	-0.053
-329.187	-200.000	0.024	0.177
-328.172	-200.000	0.001	-0.005
-327.158	158.230	0.131	0.180
-326.143	39.183	0.274	0.242
-325.129	-32.145	-0.160	-0.088
-324.114	-200.000	0.031	-0.158
-323.099	-16.734	0.080	0.050
-322.085	-123.097	0.132	0.021
-321.070	800.000	0.019	-0.070
-320.056	66.751	-0.265	-0.265
-319.041	-19.396	0.208	0.127
-318.026	800.000	-0.046	0.167
-317.012	-98.289	-0.287	0.073
-315.997	339.293	0.144	0.276
-314.983	-152.941	0.242	0.017
-313.968	-79.419	-0.142	-0.047
-312.953	25.195	-0.158	0.129
-311.939	112.466	0.101	-0.121
-310.924	417.093	-0.068	0.143
-309.910	80.635	-0.138	-0.147
-308.895	-200.000	0.044	-0.279
-307.880	287.287	-0.189	0.336
-306.866	-91.147	-0.107	-0.030
-305.851	94.630	0.101	-0.113
-304.837	9.169	-0.277	-0.206
-303.822	-200.000	-0.025	0.411
-302.807	515.887	0.133	-0.305
-301.793	-172.737	-0.167	-0.005
-300.778	284.473	0.137	0.242
-299.764	-200.000	0.037	0.271
-298.749	75.409	-0.084	0.087
-297.735	-132.010	0.188	0.024
-296.720	-200.000	0.028	-0.267
-295.705	-52.905	0.408	-0.185
-294.691	-52.921	-0.360	-0.163
-293.676	800.000	0.082	-0.233
-292.662	344.619	-0.035	-0.067
-291.647	800.000	-0.072	-0.262
-290.632	-12.746	0.059	-0.038
-289.618	373.388	0.065	0.129
-288.603	-72.859	0.306	-0.111
-287.589	-35.949	0.045	-0.024
-286.574	-200.000	-0.001	0.035
-285.559	-63.739	-0.101	0.041
-284.545	-200.000	0.080	-0.364
-283.530	-174.078	-0.132	-0.004
-282.516	800.000	-0.073	0.248
-281.501	-50.806	0.245	0.114
-280.486	92.186	-0.179	0.198
-279.472	219.632	0.105	-0.165
-278.457	-200.000	-0.007	-0.100
-277.443	-132.250	-0.051	-0.006
-276.428	-17.126	0.186	0.116
-275.413	156.000	-0.214	0.289
-274.399	121.462	-0.174	-0.213
-273.384	-123.990	-0.382	0.059
-272.370	-200.000	-0.055	0.306
-271.355	103.276	0.079	0.091
-270.340	32.906	-0.336	0.286
-269.326	-105.848	0.076	0.017
-268.311	-116.887	0.159	-0.029
-267.297	-200.000	-0.010	0.161
-266.282	-24.622	0.146	0.085
-265.267	-20.735	-0.180	-0.109
-264.253	13.573	0.139	0.106
-263.238	98.091	0.250	-0.282
-262.224	12.555	-0.146	0.111
-261.209	-44.478	-0.075	-0.037
-260.195	800.000	-0.105	0.368
-259.180	-18.603	-0.170	0.104
-258.165	-125.546	0.171	0.026
-257.151	216.103	0.016	-0.025
-256.136	-16.901	-0.182	-0.113
-255.122	-133.470	-0.173	-0.021
-254.107	2.613	-0.090	0.064
-253.092	-200.000	0.045	-0.195
-252.078	715.257	-0.161	0.418
-251.063	-121.085	0.335	-0.055
-250.049	-200.000	-0.017	-0.172
-249.034	170.775	0.111	0.157
-248.019	-108.670	-0.307	0.065
-247.005	233.057	0.027	0.043
-245.990	266.606	-0.017	0.030
-244.976	688.750	0.139	-0.357
-243.961	615.067	-0.108	-0.265
-242.946	-200.000	-0.002	0.114
-241.932	5.383	0.097	-0.070
-240.917	-200.000	-0.010	0.123
-239.903	-25.780	-0.319	0.185
-238.888	-100.473	0.362	0.088
-237.873	33.775	-0.169	-0.144
-236.859	-69.034	-0.227	0.086
-235.844	-200.000	0.022	0.190
-234.830	-153.995	0.154	0.010
-233.815	800.000	-0.026	-0.075
-232.800	-29.318	0.142	-0.080
-231.786	-200.000	-0.008	0.112
-230.771	800.000	-0.040	0.161
-229.757	157.752	0.163	0.221
-228.742	-129.741	0.247	0.033
-227.727	-104.502	-0.350	0.079
-226.713	800.000	-0.027	0.113
-225.698	249.011	0.106	-0.176
-224.684	-200.000	0.012	-0.239
-223.669	92.795	0.035	0.039
-222.655	336.714	0.133	0.253
-221.640	19.800	-0.101	0.079
-220.625	800.000	-0.048	-0.139
-219.611	-123.971	-0.260	-0.040
-218.596	-200.000	-0.008	0.092
-217.582	50.299	0.238	-0.220
-216.567	-22.487	-0.130	-0.077
-215.552	-39.055	-0.247	-0.128
-214.538	-200.000	-0.012	0.205
-213.523	-83.334	-0.123	-0.039
-212.509	-102.748	-0.139	0.032
-211.494	-106.275	0.225	0.049
-210.479	87.728	0.138	0.150
-209.465	-200.000	-0.008	0.167
-208.450	297.735	0.073	0.131
-207.436	687.462	0.086	-0.220
-206.421	-200.000	0.025	-0.251
-205.406	156.737	0.253	-0.343
-204.392	-200.000	0.020	0.133
-203.377	701.150	-0.064	-0.165
-202.363	-200.000	0.036	-0.338
-201.348	-67.896	-0.209	-0.080
-200.333	-46.806	-0.102	0.049
-199.319	48.814	0.406	0.373
-198.304	-200.000	0.048	0.296
-197.290	-80.639	-0.450	-0.147
-196.275	69.187	-0.130	-0.131
-195.260	-128.247	-0.364	0.051
-194.246	56.948	-0.215	0.206
-193.231	77.373	-0.016	0.017
-192.217	-42.657	0.209	-0.104
-191.202	-200.000	-0.036	-0.323
-190.187	355.853	-0.076	0.148
-189.173	-200.000	-0.037	0.415
-188.158	-200.000	0.024	0.348
-187.144	-28.077	0.155	0.088
-186.129	-200.000	-0.054	0.448
-185.114	775.269	0.075	-0.201
-184.100	169.540	0.195	-0.273
-183.085	52.114	0.101	0.095
-182.071	-200.000	0.018	0.150
-181.056	-200.000	-0.008	-0.116
-180.042	-45.260	-0.155	-0.075
-179.027	-150.565	0.448	0.034
-178.012	800.000	-0.019	0.056
-176.998	252.282	-0.156	0.261
-175.983	141.702	-0.145	-0.188
-174.969	-31.987	0.089	-0.049
-173.954	800.000	0.034	-0.121
-172.939	-200.000	0.029	0.133
-171.925	-121.435	-0.343	-0.056
-170.910	-200.000	0.027	-0.145
-169.896	11.513	-0.063	0.048
-168.881	130.715	0.032	0.040
-167.866	163.835	0.132	-0.181
-166.852	-200.000	-0.024	0.184
-165.837	-25.912	-0.281	-0.162
-164.823	151.408	0.070	-0.093
-163.808	280.107	-0.124	0.216
-162.793	-20.485	0.350	0.211
-161.779	-51.792	-0.378	-0.172
-160.764	-200.000	-0.034	-0.248
-159.750	-138.186	-0.453	0.049
-158.735	-97.456	0.608	0.155
-157.720	-171.146	-0.266	0.009
-156.706	-200.000	0.129	-0.000
-155.691	193.445	-0.178	0.264
-154.677	-62.318	0.163	0.067
-153.662	800.000	-0.042	-0.158
-152.647	-28.467	0.162	-0.091
-151.633	-200.000	-0.045	0.326
-150.618	174.650	0.336	-0.475
-149.604	-3.509	-0.356	0.242
-148.589	658.240	-0.070	0.175
-147.574	577.144	-0.185	0.441
-146.560	800.000	-0.056	0.176
-145.545	707.569	-0.083	0.214
-144.531	338.773	-0.180	0.344
-143.516	183.654	-0.172	-0.249
-142.502	20.655	0.298	-0.236
-141.487	120.562	0.074	0.090
-140.472	667.337	-0.130	0.328
-139.458	-107.958	0.054	0.011
-138.443	-134.920	-0.161	0.019
-137.429	800.000	0.038	-0.137
-136.414	119.391	-0.130	-0.157
-135.399	221.664	0.164	0.257
-134.385	-62.166	-0.256	-0.104
-133.370	312.881	0.052	0.095
-132.356	-44.162	-0.069	0.034
-131.341	800.000	-0.088	0.315
-130.326	-140.195	0.166	0.017
-129.312	-35.352	0.261	0.139
-128.297	82.121	-0.111	-0.118
-127.283	-14.870	0.132	0.083
-126.268	15.987	0.230	0.177
-125.253	290.049	-0.105	-0.187
-124.239	43.432	0.406	0.362
-123.224	35.563	0.137	0.117
-122.210	-200.000	-0.019	-0.229
-121.195	-145.180	-0.341	-0.030
-120.180	800.000	-0.043	-0.122
-119.166	124.600	0.182	0.224
-118.151	38.431	-0.073	0.063
-117.137	800.000	-0.089	-0.316
-116.122	800.000	0.040	-0.111
-115.107	-48.397	-0.177	0.083
-114.093	18.313	-0.062	-0.049
-113.078	-200.000	-0.035	0.336
-112.064	-200.000	0.017	0.199
-111.049	-49.681	-0.013	0.006
-110.034	94.809	0.271	-0.301
-109.020	131.663	0.117	0.146
-108.005	31.362	0.287	0.240
-106.991	11.858	-0.334	0.251
-105.976	287.440	0.287	-0.507
-104.962	562.207	-0.168	0.397
-103.947	-155.236	0.069	0.004
-102.932	-6.108	-0.112	-0.075
-101.918	-200.000	0.009	0.162
-100.903	-23.784	0.362	0.212
-99.889	-29.070	0.191	-0.107
-98.874	228.125	-0.077	0.123
-97.859	-137.882	-0.089	-0.010
-96.845	-76.763	-0.159	0.054
-95.830	-14.220	0.227	-0.143
-94.816	-74.900	0.213	-0.075
-93.801	106.730	-0.205	0.237
-92.786	80.386	0.185	0.194
-91.772	49.870	0.209	-0.193
-90.757	-106.471	0.047	-0.010
-89.743	-200.000	-0.078	-0.337
-88.728	-177.182	0.082	0.002
-87.713	-152.977	0.294	-0.020
-86.699	-69.367	0.228	-0.085
-85.684	-80.196	-0.224	0.073
-84.670	11.986	0.060	-0.045
-83.655	-200.000	0.010	0.168
-82.640	503.018	-0.017	0.037
-81.626	1.973	0.118	-0.083
-80.611	-87.971	-0.196	-0.057
-79.597	361.434	0.072	0.141
-78.582	-178.980	0.144	0.003
-77.567	145.108	0.299	-0.390
-76.553	-200.000	0.033	0.250
-75.538	636.819	0.155	-0.383
-74.524	-49.630	-0.049	-0.023
-73.509	-17.453	-0.174	0.107
-72.494	-138.186	0.174	-0.019
-71.480	265.123	0.024	0.041
-70.465	-200.000	0.004	0.088
-69.451	-200.000	0.011	0.164
-68.436	800.000	-0.053	0.172
-67.422	-114.222	0.067	0.013
-66.407	-115.661	-0.102	-0.019
-65.392	800.000	-0.052	0.154
-64.378	-63.554	0.249	0.100
-63.363	66.644	0.189	-0.187
-62.349	312.588	-0.057	-0.104
-61.334	227.419	-0.729	-1.155
-60.319	38.573	0.598	0.520
-59.305	800.000	-0.394	-1.137
-58.290	399.942	0.615	1.256
-57.276	560.902	0.639	1.506
-56.261	-200.000	121.572	614.870
-55.246	383.713	1573.350	3156.293
-54.232	139.040	2758.650	3534.142
-53.217	88.467	2328.922	2521.189
-52.203	33.261	1930.467	1632.013
-51.188	27.179	1721.943	1408.708
-50.173	24.930	1681.385	1358.427
-49.159	44.647	1747.688	1565.567
-48.144	43.207	1759.806	1565.195
-47.130	26.714	1712.027	1396.787
-46.115	24.340	1696.463	1365.880
-45.100	24.191	1690.944	1360.245
-44.086	24.083	1689.083	1357.870
-43.071	24.071	1686.401	1355.563
-42.057	24.126	1683.643	1353.713
-41.042	24.146	1681.573	1352.146
-40.027	24.154	1679.915	1350.820
-39.013	24.175	1677.349	1348.867
-37.998	24.184	1676.040	1347.823
-36.984	24.096	1675.000	1346.271
-35.969	24.250	1673.217	1345.950
-34.954	24.268	1672.085	1345.117
-33.940	24.192	1670.444	1343.170
-32.925	24.204	1668.529	1341.669
-31.911	24.227	1666.938	1340.506
-30.896	24.276	1665.235	1339.458
-29.881	24.293	1663.625	1338.238
-28.867	24.259	1661.735	1336.405
-27.852	24.304	1660.562	1335.748
-26.838	24.255	1659.126	1334.168
-25.823	24.160	1658.028	1332.524
-24.809	24.227	1656.819	1332.005
-23.794	24.246	1655.313	1330.880
-22.779	24.386	1653.071	1330.067
-21.765	24.300	1651.470	1328.084
-20.750	24.284	1650.120	1326.832
-19.736	24.265	1649.282	1325.965
-18.721	24.247	1647.976	1324.725
-17.706	24.253	1646.255	1323.332
-16.692	24.328	1644.109	1322.111
-15.677	24.321	1642.781	1320.939
-14.663	24.298	1641.728	1319.868
-13.648	24.306	1640.486	1318.879
-12.633	24.257	1638.820	1317.129
-11.619	24.256	1636.831	1315.469
-10.604	24.208	1635.502	1313.993
-9.590	24.277	1634.670	1313.780
-8.575	24.338	1633.133	1312.942
-7.560	24.288	1632.140	1311.726
-6.546	24.246	1631.218	1310.626
-5.531	24.266	1629.649	1309.456
-4.517	24.295	1628.361	1308.583
-3.502	24.252	1627.833	1307.794
-2.487	24.301	1625.722	1306.402
-1.473	24.110	1613.695	1295.294
-0.458	21.476	1594.684	1261.024
0.556	16.937	1596.452	1230.692
1.571	14.769	1620.757	1233.327
2.586	14.348	1633.080	1239.463
3.600	13.207	1578.935	1190.049
4.615	7.640	1469.391	1069.990
5.629	1.769	1409.135	988.024
6.644	0.803	1402.323	976.919
7.659	0.650	1401.057	974.967
8.673	0.683	1400.367	974.612
9.688	0.664	1397.706	972.550
10.702	0.473	1394.323	968.885
11.717	3.273	1398.310	989.580
12.731	10.003	1408.246	1039.967
13.746	15.420	1416.588	1081.013
14.761	17.018	1418.217	1092.458
15.775	16.647	1416.587	1088.723
16.790	15.588	1414.028	1079.856
17.804	14.814	1411.615	1072.949
18.819	14.483	1410.143	1069.615
19.834	14.043	1409.192	1065.977
20.848	13.966	1407.427	1064.053
21.863	13.805	1405.891	1061.770
22.877	13.510	1405.010	1059.124
23.892	13.451	1403.993	1057.888
24.907	13.489	1402.616	1056.995
25.921	13.515	1402.157	1056.721
26.936	13.548	1401.141	1056.074
27.950	13.555	1400.532	1055.563
28.965	13.585	1399.149	1054.623
29.980	13.640	1398.473	1054.370
30.994	13.773	1397.016	1054.021
32.009	13.686	1396.328	1052.855
33.023	13.808	1394.637	1052.264
34.038	13.706	1394.044	1051.075
35.053	13.664	1393.027	1049.948
36.067	13.741	1391.462	1049.163
37.082	13.630	1390.805	1047.872
38.096	13.678	1390.249	1047.667
39.111	13.683	1389.020	1046.680
40.126	13.686	1387.783	1045.670
41.140	13.551	1387.652	1044.632
42.155	13.508	1387.119	1043.863
43.169	13.464	1386.956	1043.371
44.184	13.539	1386.670	1043.539
45.199	13.488	1386.083	1042.681
46.213	13.497	1385.749	1042.393
47.228	13.551	1384.311	1041.561
48.242	13.651	1382.933	1041.062
49.257	13.540	1381.789	1039.408
50.271	13.629	1380.095	1038.600
51.286	13.642	1378.866	1037.665
52.301	13.598	1377.594	1036.341
53.315	13.559	1376.392	1035.103
54.330	13.633	1375.169	1034.556
55.344	13.653	1373.784	1033.542
56.359	13.630	1372.650	1032.458
57.374	13.478	1372.272	1031.134
58.388	13.548	1371.221	1030.691
59.403	13.451	1371.082	1029.889
60.417	13.515	1370.066	1029.432
61.432	13.457	1369.035	1028.209
62.447	13.444	1368.076	1027.317
63.461	13.376	1366.731	1025.791
64.476	13.298	1366.078	1024.732
65.490	13.453	1364.344	1024.300
66.505	13.461	1362.792	1023.089
67.520	13.510	1361.357	1022.224
68.534	13.524	1360.003	1021.203
69.549	13.480	1359.224	1020.258
70.563	13.511	1358.021	1019.455
71.578	13.466	1357.052	1018.358
72.593	13.468	1356.127	1017.589
73.607	13.357	1355.700	1016.494
74.622	13.439	1354.211	1015.795
75.636	13.335	1354.256	1015.100
76.651	13.401	1352.818	1014.334
77.666	13.343	1352.441	1013.606
78.680	13.385	1351.773	1013.274
79.695	13.489	1351.110	1013.324
80.709	13.352	1350.802	1012.168
81.724	13.473	1349.313	1011.703
82.739	13.529	1348.458	1011.309
83.753	13.517	1347.421	1010.371
84.768	13.661	1346.094	1010.163
85.782	13.583	1345.252	1008.967
86.797	13.658	1343.584	1008.087
87.812	13.520	1342.467	1006.321
88.826	13.557	1341.152	1005.469
89.841	13.550	1340.492	1004.844
90.855	13.500	1339.659	1003.828
91.870	13.654	1338.433	1003.749
92.884	13.629	1337.768	1003.011
93.899	13.686	1336.522	1002.335
94.914	13.656	1335.793	1001.519
95.928	13.643	1335.107	1000.836
96.943	13.566	1334.531	999.847
97.957	13.688	1332.823	999.215
98.972	13.627	1331.840	998.025
99.987	13.665	1330.752	997.349
101.001	13.708	1329.781	996.793
102.016	13.741	1329.042	996.349
103.030	13.646	1328.240	995.086
104.045	13.609	1327.232	994.023
105.060	13.631	1325.761	992.968
106.074	13.593	1324.445	991.666
107.089	13.596	1323.016	990.524
108.103	13.541	1321.636	989.076
109.118	13.641	1320.307	988.593
110.133	13.533	1319.237	987.057
111.147	13.524	1317.897	985.913
112.162	13.621	1316.605	985.435
113.176	13.624	1315.503	984.542
114.191	13.541	1314.657	983.329
115.206	13.719	1313.213	983.220
116.220	13.680	1312.002	981.996
117.235	13.544	1311.386	980.642
118.249	13.601	1310.134	979.956
119.264	13.554	1308.706	978.524
120.279	13.611	1307.647	977.981
121.293	13.588	1306.829	977.144
122.308	13.580	1305.966	976.365
123.322	13.598	1304.504	975.293
124.337	13.529	1303.853	974.318
125.352	13.618	1302.435	973.690
126.366	13.522	1301.180	972.102
127.381	13.529	1300.246	971.359
128.395	13.517	1298.933	970.227
129.410	13.587	1297.983	969.837
130.424	13.585	1296.989	969.001
131.439	13.622	1295.701	968.165
132.454	13.564	1295.363	967.488
133.468	13.703	1294.095	967.267
134.483	13.630	1293.389	966.230
135.497	13.615	1292.152	965.133
136.512	13.650	1290.878	964.302
137.527	13.527	1289.826	962.715
138.541	13.553	1288.282	961.626
139.556	13.667	1286.819	961.109
140.570	13.595	1285.882	959.912
141.585	13.702	1284.644	959.521
142.600	13.680	1283.692	958.596
143.614	13.810	1283.008	958.753
144.629	13.778	1281.436	957.304
145.643	13.758	1280.650	956.520
146.658	13.713	1279.089	955.008
147.673	13.741	1277.636	954.003
148.687	13.728	1276.486	952.983
149.702	13.682	1275.314	951.763
150.716	13.686	1273.708	950.499
151.731	13.714	1272.437	949.626
152.746	13.792	1271.606	949.369
153.760	13.774	1270.251	948.175
154.775	13.665	1269.418	946.844
155.789	13.787	1268.468	946.750
156.804	13.711	1266.999	945.134
157.819	13.901	1265.699	945.160
158.833	13.950	1265.040	944.865
159.848	13.842	1264.190	943.536
160.862	13.970	1262.907	943.221
161.877	13.912	1261.260	941.576
162.892	13.820	1260.879	940.686
163.906	13.806	1259.875	939.776
164.921	13.859	1258.815	939.199
165.935	13.994	1257.479	938.883
166.950	13.867	1257.571	938.152
167.964	13.931	1256.305	937.485
168.979	13.823	1256.069	936.620
169.994	13.802	1255.249	935.805
171.008	13.920	1254.424	935.774
172.023	13.973	1253.189	935.066
173.037	14.098	1251.934	934.752
174.052	14.014	1251.502	933.876
175.067	14.027	1250.672	933.244
176.081	13.967	1249.910	932.257
177.096	13.990	1248.660	931.370
178.110	13.829	1247.700	929.671
179.125	13.991	1246.146	929.336
180.140	14.054	1244.899	928.678
181.154	14.075	1243.779	927.876
182.169	13.948	1242.720	926.298
183.183	14.159	1241.320	926.344
184.198	14.106	1240.072	925.038
185.213	14.127	1238.927	924.221
186.227	14.007	1238.096	922.852
187.242	14.193	1237.104	923.063
188.256	14.194	1235.773	921.991
189.271	14.226	1235.476	921.867
190.286	14.099	1234.322	920.221
191.300	13.941	1233.785	918.862
192.315	14.035	1233.330	918.964
193.329	14.110	1232.154	918.421
194.344	14.078	1231.389	917.595
195.359	14.247	1230.888	918.073
196.373	14.180	1230.402	917.255
197.388	14.235	1230.098	917.251
198.402	14.249	1229.296	916.652
199.417	14.332	1228.250	916.244
200.432	14.484	1227.199	916.217
201.446	14.330	1226.969	915.120
202.461	14.456	1225.615	914.720
203.475	14.318	1225.306	913.649
204.490	14.325	1223.976	912.617
205.504	14.355	1222.407	911.529
206.519	14.373	1221.514	910.879
207.534	14.382	1220.135	909.820
208.548	14.350	1219.470	909.068
209.563	14.447	1218.751	908.982
210.577	14.504	1217.568	908.331
211.592	14.502	1216.755	907.631
212.607	14.484	1215.418	906.455
213.621	14.540	1214.830	906.241
214.636	14.536	1214.198	905.670
215.650	14.508	1213.162	904.664
216.665	14.658	1211.727	904.326
217.680	14.549	1211.381	903.398
218.694	14.458	1210.753	902.357
219.709	14.651	1209.694	902.531
220.723	14.648	1208.749	901.730
221.738	14.640	1207.986	901.038
222.753	14.591	1207.379	900.240
223.767	14.604	1206.727	899.747
224.782	14.754	1206.331	900.177
225.796	14.770	1205.377	899.473
226.811	14.716	1204.524	898.467
227.826	14.781	1203.892	898.268
228.840	14.705	1203.285	897.326
229.855	14.695	1202.732	896.779
230.869	14.717	1201.473	895.881
231.884	14.762	1200.828	895.561
232.899	14.713	1199.768	894.430
233.913	14.734	1199.385	894.177
234.928	14.740	1198.421	893.413
235.942	14.699	1197.772	892.631
236.957	14.691	1196.958	891.898
237.972	14.733	1196.206	891.483
238.986	14.755	1195.521	891.012
240.001	14.809	1194.940	890.790
241.015	14.723	1193.856	889.445
242.030	14.905	1192.712	889.482
243.045	14.794	1192.374	888.561
244.059	14.943	1191.414	888.558
245.074	14.952	1190.442	887.802
246.088	14.846	1190.294	887.052
247.103	14.932	1188.867	886.365
248.117	14.977	1188.165	885.999
249.132	15.105	1187.239	885.908
250.147	15.069	1186.881	885.376
251.161	15.044	1185.654	884.246
252.176	15.132	1185.467	884.494
253.190	15.156	1184.303	883.672
254.205	15.187	1184.099	883.606
255.220	15.214	1183.455	883.191
256.234	15.179	1182.676	882.350
257.249	15.111	1182.343	881.664
258.263	15.358	1181.012	881.890
259.278	15.188	1180.857	880.803
260.293	15.266	1180.405	880.800
261.307	15.373	1179.370	880.513
262.322	15.309	1178.580	879.508
263.336	15.358	1178.148	879.362
264.351	15.347	1177.666	878.866
265.366	15.472	1176.780	878.783
266.380	15.417	1175.783	877.676
267.395	15.432	1175.012	877.099
268.409	15.417	1173.960	876.158
269.424	15.375	1173.928	875.836
270.439	15.468	1173.219	875.718
271.453	15.442	1172.561	875.013
272.468	15.423	1171.353	873.934
273.482	15.414	1171.159	873.665
274.497	15.472	1170.314	873.261
275.512	15.440	1169.618	872.497
276.526	15.462	1168.589	871.765
277.541	15.444	1167.965	871.131
278.555	15.464	1167.251	870.624
279.570	15.636	1166.401	870.802
280.585	15.569	1166.084	870.141
281.599	15.531	1164.786	868.904
282.614	15.479	1164.179	868.100
283.628	15.698	1162.296	867.754
284.643	15.502	1161.771	866.273
285.657	15.585	1160.697	865.823
286.672	15.665	1159.873	865.542
287.687	15.721	1158.825	864.973
288.701	15.651	1158.510	864.303
289.716	15.857	1157.503	864.530
290.730	15.735	1156.868	863.352
291.745	15.621	1156.335	862.293
292.760	15.765	1155.438	862.286
293.774	15.754	1154.720	861.619
294.789	15.784	1154.226	861.330
295.803	15.831	1153.684	861.087
296.818	15.776	1152.825	860.092
297.833	15.906	1151.942	860.019
298.847	15.808	1151.046	858.771
299.862	15.889	1149.996	858.325
300.876	15.786	1149.660	857.474
301.891	15.979	1148.634	857.618
302.906	15.975	1147.898	856.972
303.920	15.984	1147.237	856.450
304.935	15.976	1146.623	855.871
305.949	16.144	1146.054	856.226
306.964	16.036	1145.247	854.999
307.979	16.098	1144.574	854.733
308.993	16.103	1144.025	854.276
310.008	16.051	1142.928	853.115
311.022	16.073	1142.402	852.758
312.037	16.012	1141.751	851.888
313.052	16.057	1140.422	851.051
314.066	16.048	1139.703	850.395
315.081	16.037	1138.675	849.493
316.095	16.071	1138.323	849.331
317.110	16.101	1137.131	848.515
318.125	16.089	1136.419	847.847
319.139	16.051	1136.050	847.306
320.154	16.060	1135.506	846.872
321.168	16.111	1134.619	846.391
322.183	16.029	1134.258	845.634
323.197	16.096	1133.606	845.411
324.212	16.103	1132.835	844.795
325.227	16.100	1132.147	844.193
326.241	16.133	1131.401	843.726
327.256	16.237	1130.463	843.475
328.270	16.228	1129.330	842.507
329.285	16.143	1128.780	841.600
330.300	16.173	1127.342	840.600
331.314	16.186	1126.633	840.062
332.329	16.178	1125.704	839.257
333.343	16.182	1125.122	838.769
334.358	16.348	1124.313	838.914
335.373	16.258	1123.844	838.045
336.387	16.207	1123.008	837.093
337.402	16.271	1121.836	836.464
338.416	16.324	1121.130	836.127
339.431	16.328	1120.607	835.683
340.446	16.374	1119.570	835.060
341.460	16.513	1118.924	835.195
342.475	16.456	1118.126	834.244
343.489	16.447	1117.658	833.773
344.504	16.468	1116.458	832.911
345.519	16.649	1115.080	832.699
346.533	16.515	1114.965	831.881
347.548	16.548	1114.308	831.475
348.562	16.529	1113.715	830.867
349.577	16.535	1112.440	829.873
350.592	16.566	1112.142	829.730
351.606	16.626	1110.922	829.038
352.621	16.524	1110.392	828.073
353.635	16.456	1109.890	827.292
354.650	16.611	1108.882	827.222
355.665	16.573	1108.533	826.705
356.679	16.550	1108.129	826.219
357.694	16.615	1107.049	825.656
358.708	16.645	1106.665	825.442
359.723	16.674	1105.738	824.820
360.738	16.719	1105.285	824.631
361.752	16.775	1104.400	824.167
362.767	16.695	1103.873	823.313
363.781	16.674	1103.413	822.797
364.796	16.784	1103.145	823.058
365.810	16.827	1101.933	822.288
366.825	16.848	1101.581	822.055
367.840	16.941	1100.884	821.914
368.854	17.028	1100.041	821.631
369.869	16.962	1099.576	820.892
370.883	16.952	1098.710	820.127
371.898	16.952	1097.594	819.217
372.913	17.043	1097.120	819.231
373.927	16.903	1097.090	818.461
374.942	16.923	1096.542	818.075
375.956	17.017	1095.573	817.737
376.971	17.077	1095.283	817.737
377.986	17.082	1094.565	817.150
379.000	17.099	1094.104	816.814
380.015	17.140	1093.276	816.322
381.029	17.092	1092.935	815.762
382.044	17.115	1091.783	814.940
383.059	17.120	1091.128	814.404
384.073	17.135	1090.558	813.981
385.088	17.340	1089.293	813.945
386.102	17.155	1088.419	812.337
387.117	17.125	1087.545	811.468
388.132	17.207	1086.295	810.856
389.146	17.111	1086.128	810.199
390.161	17.124	1085.391	809.639
391.175	17.046	1084.936	808.860
392.190	17.179	1083.711	808.506
393.205	17.387	1082.784	808.733
394.219	17.197	1082.618	807.633
395.234	17.438	1081.187	807.640
396.248	17.315	1080.296	806.321
397.263	17.280	1078.857	805.009
398.278	17.350	1078.581	805.062
399.292	17.119	1078.031	803.489
400.307	17.293	1077.526	803.862
401.321	17.236	1076.738	802.933
402.336	17.278	1076.058	802.554
403.350	17.269	1075.211	801.809
404.365	17.297	1074.570	801.394
405.380	17.375	1074.053	801.301
406.394	17.352	1073.296	800.557
407.409	17.376	1072.311	799.867
408.423	17.465	1071.553	799.650
409.438	17.478	1070.938	799.180
410.453	17.483	1070.603	798.884
411.467	17.541	1069.507	798.264
412.482	17.509	1068.962	797.641
413.496	17.562	1067.965	797.072
414.511	17.670	1067.242	796.966
415.526	17.619	1066.831	796.350
416.540	17.699	1066.846	796.664
417.555	17.705	1066.301	796.214
418.569	17.714	1065.728	795.762
419.584	17.613	1065.425	794.991
420.599	17.742	1064.708	794.989
421.613	107.783	1330.781	1487.002
422.628	99.615	1369.500	1487.071
