DTS Sentinel unit serial number:	SN413079Multiplexer serial number:	ORYXHardware model number:	OX4-SRSoftware version number:	ORYX F/W v4.00 Oryx Data Collector v3.7.2.0data status	okinstallation	princeton_trtdifferential loss correction	single-endedforward channel	channel 2reverse channel	N/Adate	2019/09/17time	14:19:35forward acquisition time	60.00reverse acquisition time	0.00gamma	496.2192k internal	0.2314k external	0.2314temperature offset calibration	0.9986default loss term (dB/km)	0.3790temperature slope calibration	1.0000multiplexer offset coefficient	1.0000multiplexer slope coefficient	1.0000fibre end	0.00T internal ref (°C)	36.12T ext. ref 1 (°C)	0.41T ext. ref 2 (°C)	33.35length (m)	temperature (°C)	Stokes	anti-Stokes-747.200	-123.300	-0.187	0.030
-746.185	182.439	-0.096	0.144
-745.171	-82.319	0.268	0.088
-744.156	-33.958	-0.140	-0.078
-743.142	-73.557	0.198	0.073
-742.127	-200.000	0.012	0.410
-741.112	280.327	0.089	0.161
-740.098	55.617	-0.139	-0.136
-739.083	152.694	0.082	-0.114
-738.069	761.231	-0.035	0.096
-737.054	-109.901	-0.124	-0.026
-736.039	-200.000	0.029	0.224
-735.025	-54.832	-0.287	0.131
-734.010	140.076	-0.194	-0.259
-732.996	95.904	-0.285	0.329
-731.981	385.282	0.096	-0.201
-730.966	26.293	0.134	0.114
-729.952	-9.095	-0.327	-0.222
-728.937	-200.000	0.028	-0.197
-727.923	-91.851	0.082	-0.023
-726.908	20.516	-0.199	-0.163
-725.894	293.459	-0.068	-0.126
-724.879	-138.736	-0.338	0.037
-723.864	54.258	0.073	0.071
-722.850	-200.000	-0.017	-0.303
-721.835	-105.941	-0.165	-0.038
-720.821	-161.209	0.200	-0.011
-719.806	-92.443	-0.389	0.111
-718.791	-153.125	0.278	-0.020
-717.777	390.491	-0.109	-0.229
-716.762	131.901	-0.157	0.205
-715.748	-105.196	-0.171	0.040
-714.733	-200.000	0.004	-0.297
-713.718	-138.157	0.151	0.017
-712.704	-145.687	-0.430	-0.039
-711.689	-162.718	-0.272	0.013
-710.675	-116.984	-0.414	-0.077
-709.660	-109.349	-0.354	-0.076
-708.645	-137.332	-0.380	-0.044
-707.631	39.976	-0.206	0.187
-706.616	-27.243	0.090	-0.053
-705.602	-5.911	-0.244	0.169
-704.587	-86.307	-0.165	-0.051
-703.572	-161.886	-0.304	0.016
-702.558	-134.658	0.118	-0.015
-701.543	113.065	-0.043	-0.053
-700.529	48.188	0.030	-0.028
-699.514	800.000	0.078	-0.258
-698.499	-20.166	-0.044	-0.027
-697.485	170.884	-0.184	-0.267
-696.470	664.143	-0.035	-0.091
-695.456	-116.933	-0.215	-0.040
-694.441	-102.852	0.261	-0.063
-693.426	-54.647	-0.217	-0.099
-692.412	-200.000	-0.014	0.139
-691.397	800.000	-0.053	-0.195
-690.383	-200.000	-0.030	0.326
-689.368	-113.101	0.223	0.045
-688.354	114.933	0.201	0.248
-687.339	5.654	0.136	-0.102
-686.324	579.101	-0.146	0.362
-685.310	-61.594	0.085	-0.036
-684.295	-40.665	-0.142	0.075
-683.281	168.597	-0.073	0.105
-682.266	-200.000	-0.036	-0.251
-681.251	-130.773	0.121	-0.016
-680.237	-112.027	-0.060	-0.012
-679.222	-200.000	-0.038	-0.183
-678.208	800.000	0.083	0.298
-677.193	255.615	-0.142	0.247
-676.178	-200.000	0.023	-0.108
-675.164	800.000	-0.025	-0.094
-674.149	-101.846	0.203	0.050
-673.135	-158.870	-0.350	0.020
-672.120	-175.653	0.196	-0.005
-671.105	-113.699	0.261	0.052
-670.091	534.777	-0.045	0.108
-669.076	-141.433	-0.196	0.020
-668.062	-200.000	-0.037	-0.220
-667.047	-200.000	-0.024	0.311
-666.032	93.062	0.015	0.017
-665.018	-32.461	-0.065	0.037
-664.003	-200.000	0.014	-0.252
-662.989	-200.000	-0.051	-0.243
-661.974	-72.244	-0.181	0.068
-660.959	122.453	0.279	-0.352
-659.945	-22.388	-0.217	0.133
-658.930	42.989	0.191	-0.176
-657.916	-154.032	0.130	-0.009
-656.901	567.068	0.061	-0.150
-655.886	35.256	-0.184	0.163
-654.872	-15.419	0.296	-0.191
-653.857	-82.227	-0.182	-0.060
-652.843	519.832	-0.078	0.185
-651.828	213.583	0.141	-0.225
-650.814	-189.021	0.390	0.005
-649.799	141.627	0.066	0.088
-648.784	-200.000	-0.227	0.000
-647.770	-75.955	-0.115	0.041
-646.755	-80.265	0.125	-0.042
-645.741	-83.195	-0.278	-0.090
-644.726	-95.139	0.241	-0.066
-643.711	74.288	0.067	-0.071
-642.697	-72.082	0.371	0.139
-641.682	-47.242	-0.290	0.143
-640.668	800.000	0.086	0.341
-639.653	-20.621	-0.081	0.051
-638.638	174.563	0.152	-0.222
-637.624	-71.590	-0.304	0.115
-636.609	209.095	0.033	-0.053
-635.595	50.080	-0.194	-0.185
-634.580	-77.756	0.301	-0.105
-633.565	150.196	-0.139	0.190
-632.551	-183.529	0.272	0.005
-631.536	517.309	0.050	0.119
-630.522	-200.000	0.013	-0.326
-629.507	32.395	0.213	-0.186
-628.492	-200.000	0.048	-0.237
-627.478	-147.826	-0.329	0.028
-626.463	198.126	-0.049	0.076
-625.449	-181.611	-0.281	0.006
-624.434	474.055	-0.130	-0.295
-623.419	-145.858	0.046	0.004
-622.405	-20.196	0.116	0.072
-621.390	-115.524	-0.133	-0.025
-620.376	-120.000	-0.156	-0.027
-619.361	-187.818	-0.293	-0.004
-618.346	-65.209	-0.247	-0.100
-617.332	-87.001	0.216	-0.066
-616.317	-68.824	0.361	0.141
-615.303	-54.148	-0.306	0.140
-614.288	-200.000	-0.016	-0.136
-613.273	-200.000	0.001	-0.123
-612.259	-200.000	0.001	-0.069
-611.244	-200.000	-0.029	-0.208
-610.230	126.954	-0.169	-0.216
-609.215	-64.271	0.167	0.069
-608.201	-51.795	0.256	-0.120
-607.186	-17.951	0.145	-0.091
-606.171	84.839	-0.068	0.075
-605.157	211.541	-0.118	0.188
-604.142	-200.000	0.022	-0.278
-603.128	-42.481	-0.284	-0.146
-602.113	-94.642	-0.158	-0.043
-601.098	306.470	0.085	-0.159
-600.084	2.288	-0.084	-0.062
-599.069	703.337	-0.057	0.152
-598.055	-61.575	-0.283	-0.120
-597.040	136.877	0.154	-0.203
-596.025	-35.184	-0.107	-0.059
-595.011	800.000	0.067	-0.272
-593.996	418.039	-0.191	0.412
-592.982	75.111	0.213	-0.226
-591.967	219.774	0.075	0.122
-590.952	136.360	0.044	0.058
-589.938	-14.803	0.029	-0.019
-588.923	-200.000	0.049	0.280
-587.909	191.810	-0.163	-0.247
-586.894	-11.559	-0.207	0.137
-585.879	-200.000	0.008	0.224
-584.865	-112.624	-0.219	0.044
-583.850	-200.000	0.040	0.272
-582.836	-89.369	0.232	0.069
-581.821	800.000	-0.027	0.084
-580.806	-200.000	0.009	0.117
-579.792	-54.684	-0.376	-0.171
-578.777	11.258	-0.233	0.179
-577.763	705.621	-0.046	0.123
-576.748	-200.000	0.024	0.338
-575.733	653.700	0.080	-0.207
-574.719	-200.000	-0.005	-0.057
-573.704	345.903	-0.103	-0.203
-572.690	51.694	-0.146	0.140
-571.675	2.246	-0.153	-0.112
-570.661	-126.204	-0.238	0.036
-569.646	-63.975	0.193	0.080
-568.631	1.842	-0.371	0.270
-567.617	114.170	-0.070	-0.086
-566.602	-121.745	0.213	-0.036
-565.588	-138.696	-0.252	0.028
-564.573	800.000	-0.023	-0.072
-563.558	-143.583	0.101	0.010
-562.544	94.402	0.243	0.277
-561.529	-200.000	-0.000	0.133
-560.515	30.335	-0.042	0.036
-559.500	-200.000	-0.007	0.150
-558.485	800.000	-0.122	0.413
-557.471	-200.000	0.018	0.448
-556.456	154.692	-0.065	-0.089
-555.442	289.175	0.081	-0.148
-554.427	-59.891	-0.118	0.051
-553.412	-200.000	-0.031	-0.356
-552.398	800.000	0.114	-0.374
-551.383	722.905	0.131	-0.351
-550.369	144.427	0.073	-0.098
-549.354	-75.549	0.171	0.061
-548.339	10.464	0.108	-0.083
-547.325	-149.434	0.101	-0.008
-546.310	800.000	-0.055	0.161
-545.296	800.000	-0.022	-0.083
-544.281	-200.000	-0.040	0.319
-543.266	154.580	0.137	-0.189
-542.252	-10.828	0.194	0.129
-541.237	72.844	0.133	-0.140
-540.223	-200.000	-0.047	-0.218
-539.208	800.000	0.088	-0.314
-538.193	800.000	-0.065	-0.224
-537.179	-7.752	-0.126	-0.086
-536.164	-184.038	-0.123	-0.002
-535.150	-200.000	-0.073	-0.415
-534.135	-98.482	0.526	-0.135
-533.121	251.632	-0.171	0.293
-532.106	62.410	-0.166	0.167
-531.091	435.544	-0.048	-0.106
-530.077	-200.000	0.023	-0.248
-529.062	-155.140	0.142	0.009
-528.048	-71.307	0.384	-0.145
-527.033	275.229	0.003	0.005
-526.018	800.000	-0.052	0.152
-525.004	-200.000	0.005	-0.132
-523.989	-157.081	0.408	0.025
-522.975	-200.000	-0.033	0.360
-521.960	336.394	0.075	-0.145
-520.945	800.000	0.094	-0.326
-519.931	100.683	-0.055	-0.065
-518.916	800.000	0.044	0.183
-517.902	291.389	0.039	-0.072
-516.887	800.000	-0.069	0.210
-515.872	-90.491	-0.222	0.064
-514.858	-126.475	0.203	0.030
-513.843	18.814	0.242	-0.194
-512.829	-32.219	-0.114	-0.064
-511.814	-200.000	0.017	-0.077
-510.799	800.000	-0.053	0.213
-509.785	800.000	-0.070	0.224
-508.770	-108.404	-0.272	0.059
-507.756	188.560	-0.111	0.167
-506.741	6.908	-0.148	-0.110
-505.726	9.088	-0.222	-0.169
-504.712	7.731	-0.207	0.156
-503.697	-7.414	-0.074	-0.051
-502.683	-134.344	-0.178	0.022
-501.668	96.952	-0.237	-0.273
-500.653	-200.000	-0.009	0.347
-499.639	-200.000	0.017	-0.148
-498.624	49.716	0.161	0.152
-497.610	261.967	-0.034	-0.059
-496.595	-45.597	-0.169	-0.084
-495.581	-15.773	0.140	-0.089
-494.566	60.468	0.149	-0.148
-493.551	-200.000	-0.013	0.243
-492.537	-44.278	0.030	-0.015
-491.522	-88.326	0.316	-0.095
-490.508	74.736	0.055	0.058
-489.493	-200.000	0.007	0.116
-488.478	-164.689	0.309	-0.014
-487.464	-200.000	-0.012	-0.054
-486.449	90.213	0.084	0.094
-485.435	-85.332	0.440	0.138
-484.420	-200.000	0.056	0.339
-483.405	123.690	0.113	0.142
-482.391	-58.370	0.019	0.008
-481.376	-200.000	-0.024	-0.269
-480.362	18.056	0.102	0.082
-479.347	-9.630	-0.116	-0.078
-478.332	-200.000	0.033	0.238
-477.318	300.865	0.175	0.325
-476.303	4.444	0.353	0.260
-475.289	800.000	0.033	0.113
-474.274	22.159	-0.097	0.079
-473.259	-200.000	0.003	-0.127
-472.245	7.477	-0.215	0.161
-471.230	-86.944	0.088	0.027
-470.216	-64.644	-0.240	0.097
-469.201	211.217	0.067	-0.105
-468.186	-180.197	0.175	0.004
-467.172	-200.000	-0.006	0.230
-466.157	556.341	0.025	-0.061
-465.143	-131.853	-0.159	-0.021
-464.128	174.328	-0.144	0.209
-463.113	-63.384	0.103	0.043
-462.099	57.314	-0.119	-0.116
-461.084	-10.926	-0.265	-0.176
-460.070	262.033	-0.265	0.461
-459.055	-172.475	0.299	0.010
-458.040	156.969	-0.156	-0.216
-457.026	106.719	-0.011	0.013
-456.011	-170.552	-0.252	-0.009
-454.997	87.540	0.138	0.154
-453.982	-4.010	-0.451	0.314
-452.968	-124.843	-0.113	-0.018
-451.953	27.836	0.163	-0.138
-450.938	397.442	-0.064	-0.135
-449.924	-200.000	0.169	0.000
-448.909	-60.782	-0.321	0.136
-447.895	-112.495	-0.271	-0.054
-446.880	64.510	0.196	0.198
-445.865	-91.159	0.206	-0.059
-444.851	-65.474	-0.185	-0.074
-443.836	-117.442	-0.078	0.014
-442.822	-200.000	0.038	0.358
-441.807	-88.893	-0.219	0.065
-440.792	7.533	0.263	-0.197
-439.778	-200.000	0.031	0.243
-438.763	800.000	-0.111	-0.343
-437.749	-58.004	-0.116	0.051
-436.734	800.000	-0.158	0.469
-435.719	19.296	-0.091	-0.073
-434.705	-13.126	-0.186	-0.121
-433.690	-58.262	-0.205	0.089
-432.676	-85.919	0.163	0.050
-431.661	299.391	0.125	-0.231
-430.646	-151.955	-0.417	0.030
-429.632	800.000	0.040	-0.146
-428.617	115.367	0.073	0.090
-427.603	123.676	-0.143	-0.180
-426.588	-96.225	0.020	0.005
-425.573	800.000	0.078	-0.244
-424.559	-163.552	-0.191	0.009
-423.544	-54.297	0.248	-0.113
-422.530	-142.598	-0.053	0.005
-421.515	290.418	-0.077	-0.140
-420.500	-116.603	-0.210	0.039
-419.486	-23.901	-0.078	-0.047
-418.471	-62.635	0.301	-0.125
-417.457	-113.621	0.195	-0.038
-416.442	-13.602	-0.245	-0.159
-415.428	-152.752	0.182	-0.013
-414.413	11.187	-0.103	-0.079
-413.398	-91.172	0.309	0.089
-412.384	-200.000	-0.050	-0.234
-411.369	90.168	-0.065	-0.073
-410.355	-144.474	-0.112	0.010
-409.340	800.000	0.147	0.435
-408.325	-200.000	-0.004	-0.226
-407.311	217.224	0.243	0.387
-406.296	-167.034	-0.153	0.006
-405.282	-39.685	-0.294	0.154
-404.267	-109.747	-0.170	-0.036
-403.252	348.272	-0.077	0.152
-402.238	527.949	0.051	-0.121
-401.223	-47.105	0.141	-0.069
-400.209	-106.741	0.244	0.054
-399.194	-14.333	-0.384	-0.247
-398.179	800.000	-0.126	0.374
-397.165	439.237	-0.249	0.543
-396.150	31.046	-0.037	-0.032
-395.136	5.698	0.174	0.129
-394.121	-183.875	0.071	0.001
-393.106	20.346	-0.067	0.055
-392.092	107.576	-0.258	0.307
-391.077	-134.938	-0.289	-0.035
-390.063	504.645	-0.074	-0.172
-389.048	-77.073	0.181	0.063
-388.033	650.990	-0.128	-0.329
-387.019	391.057	0.175	0.363
-386.004	-30.841	-0.202	-0.114
-384.990	-80.915	0.421	0.140
-383.975	-124.037	0.035	0.006
-382.960	-114.305	-0.141	0.027
-381.946	96.413	0.240	-0.274
-380.931	208.587	0.202	0.315
-379.917	289.293	0.111	0.200
-378.902	-83.813	-0.345	-0.110
-377.888	144.329	0.118	-0.158
-376.873	-200.000	0.001	-0.122
-375.858	12.122	-0.179	-0.138
-374.844	-165.773	0.158	0.007
-373.829	28.792	-0.222	-0.188
-372.815	141.967	0.199	-0.263
-371.800	284.025	-0.149	-0.268
-370.785	48.363	0.203	0.190
-369.771	-149.726	-0.321	-0.025
-368.756	-200.000	0.013	0.098
-367.742	-200.000	-0.028	0.139
-366.727	-188.613	0.158	-0.002
-365.712	-200.000	-0.018	-0.464
-364.698	-16.573	-0.244	0.154
-363.683	690.617	0.114	0.298
-362.669	-97.886	0.334	-0.086
-361.654	178.226	-0.092	-0.134
-360.639	800.000	0.073	0.215
-359.625	24.035	0.154	-0.127
-358.610	187.094	-0.233	-0.346
-357.596	415.795	-0.096	-0.204
-356.581	-200.000	0.038	0.271
-355.566	-14.619	0.257	0.165
-354.552	188.099	0.050	0.075
-353.537	3.718	0.260	0.190
-352.523	193.352	-0.162	-0.244
-351.508	-87.716	0.311	-0.094
-350.493	126.260	0.056	-0.071
-349.479	-70.664	0.296	0.112
-348.464	800.000	0.146	0.428
-347.450	243.463	0.245	-0.409
-346.435	448.668	0.085	-0.187
-345.420	-42.801	0.093	-0.047
-344.406	-23.394	-0.114	0.068
-343.391	-163.212	0.161	0.008
-342.377	-200.000	0.025	-0.394
-341.362	-168.213	-0.231	0.009
-340.348	49.023	0.075	-0.071
-339.333	-56.946	0.068	-0.030
-338.318	56.949	-0.064	-0.062
-337.304	59.720	0.133	0.131
-336.289	10.509	-0.113	0.086
-335.275	97.220	0.158	0.181
-334.260	41.855	-0.254	-0.230
-333.245	-98.182	0.191	-0.049
-332.231	-200.000	-0.031	-0.161
-331.216	-24.124	0.121	-0.072
-330.202	-90.051	-0.145	0.042
-329.187	-200.000	-0.059	-0.272
-328.172	292.214	0.117	-0.213
-327.158	-144.825	-0.180	-0.016
-326.143	-128.983	-0.128	-0.018
-325.129	166.526	0.184	0.260
-324.114	135.987	-0.020	0.026
-323.099	234.695	0.095	-0.156
-322.085	-6.362	0.092	-0.063
-321.070	-200.000	0.036	0.211
-320.056	-200.000	-0.044	0.234
-319.041	800.000	0.030	-0.092
-318.026	-200.000	0.026	0.254
-317.012	-175.147	0.258	-0.007
-315.997	-84.422	-0.195	-0.061
-314.983	53.625	0.109	0.104
-313.968	498.508	-0.080	-0.184
-312.953	45.620	0.144	-0.133
-311.939	-1.865	0.039	0.028
-310.924	-31.494	0.120	-0.067
-309.910	-8.296	-0.101	-0.067
-308.895	-75.132	-0.146	0.052
-307.880	-125.971	0.245	-0.037
-306.866	-200.000	0.024	-0.143
-305.851	267.771	0.093	-0.162
-304.837	77.062	0.069	0.073
-303.822	-92.825	-0.108	-0.030
-302.807	800.000	0.017	0.049
-301.793	-106.579	0.335	0.074
-300.778	791.224	0.138	0.378
-299.764	-0.856	-0.215	0.152
-298.749	182.331	0.257	0.377
-297.735	388.718	-0.108	0.223
-296.720	-200.000	0.027	0.362
-295.705	-131.617	0.275	-0.036
-294.691	159.563	-0.043	0.059
-293.676	-200.000	-0.010	-0.250
-292.662	91.993	0.063	0.070
-291.647	-136.056	-0.120	-0.014
-290.632	-172.315	-0.215	-0.007
-289.618	-200.000	-0.005	-0.557
-288.603	-200.000	0.007	0.086
-287.589	-200.000	-0.069	0.320
-286.574	161.708	0.013	0.019
-285.559	-97.150	-0.375	-0.098
-284.545	-40.096	0.244	0.127
-283.530	64.227	0.112	0.113
-282.516	800.000	-0.078	0.293
-281.501	86.897	-0.229	0.252
-280.486	44.970	0.130	-0.119
-279.472	726.510	-0.089	-0.236
-278.457	-57.240	0.111	0.049
-277.443	-76.393	0.075	0.026
-276.428	671.862	0.027	-0.070
-275.413	141.052	0.084	-0.110
-274.399	34.288	0.172	0.150
-273.384	8.793	-0.123	0.092
-272.370	222.038	0.117	0.187
-271.355	72.180	-0.064	0.067
-270.340	-200.000	-0.003	0.074
-269.326	266.590	0.113	-0.197
-268.311	-81.096	0.103	0.034
-267.297	-92.649	0.212	-0.059
-266.282	32.753	-0.214	-0.185
-265.267	-200.000	0.071	-0.366
-264.253	-200.000	-0.012	-0.080
-263.238	-128.105	-0.213	-0.030
-262.224	260.713	-0.232	-0.399
-261.209	-200.000	0.028	-0.325
-260.195	-14.855	0.138	-0.088
-259.180	234.332	-0.164	-0.270
-258.165	75.190	-0.142	0.149
-257.151	-163.387	0.104	-0.005
-256.136	61.444	-0.169	0.167
-255.122	23.867	-0.311	-0.255
-254.107	442.969	0.057	-0.124
-253.092	-200.000	0.017	0.115
-252.078	-49.312	0.250	-0.119
-251.063	-56.966	-0.207	-0.091
-250.049	800.000	-0.039	0.167
-249.034	800.000	-0.027	-0.079
-248.019	-200.000	-0.019	-0.436
-247.005	800.000	0.023	-0.076
-245.990	-75.215	0.171	0.061
-244.976	252.121	0.050	0.085
-243.961	508.637	-0.027	0.063
-242.946	-145.986	0.110	0.010
-241.932	-18.623	-0.169	-0.105
-240.917	-124.541	-0.173	0.027
-239.903	-149.917	-0.138	0.011
-238.888	-96.969	0.396	0.103
-237.873	237.810	0.024	-0.040
-236.859	-14.954	0.060	0.038
-235.844	204.027	0.112	-0.173
-234.830	519.044	-0.078	0.181
-233.815	-2.961	0.155	-0.107
-232.800	-200.000	0.043	0.383
-231.786	-119.579	0.106	-0.018
-230.771	-200.000	-0.014	0.408
-229.757	-66.021	0.095	-0.038
-228.742	64.421	-0.147	-0.147
-227.727	135.406	0.301	0.389
-226.713	-200.000	0.029	0.176
-225.698	355.412	0.035	-0.069
-224.684	-200.000	0.055	-0.329
-223.669	-88.008	-0.277	0.083
-222.655	-200.000	0.012	0.315
-221.640	140.074	-0.051	0.067
-220.625	534.449	0.099	0.234
-219.611	-82.567	-0.234	0.075
-218.596	98.330	0.198	0.227
-217.582	159.768	0.241	0.334
-216.567	79.749	0.078	0.083
-215.552	321.357	-0.157	0.297
-214.538	-200.000	-0.014	0.223
-213.523	75.084	-0.104	-0.109
-212.509	273.947	-0.150	0.263
-211.494	800.000	-0.010	0.027
-210.479	-200.000	0.029	0.189
-209.465	-166.732	0.192	-0.008
-208.450	800.000	-0.066	-0.207
-207.436	714.194	0.032	0.084
-206.421	168.451	-0.266	0.376
-205.406	-200.000	-0.001	-0.049
-204.392	-110.697	0.221	-0.045
-203.377	-200.000	-0.007	0.081
-202.363	18.240	0.059	-0.046
-201.348	-200.000	0.009	-0.273
-200.333	-59.503	0.448	-0.191
-199.319	-63.617	0.203	0.083
-198.304	34.644	0.193	-0.167
-197.290	-58.973	-0.048	0.021
-196.275	-17.581	0.231	-0.144
-195.260	350.996	-0.170	-0.334
-194.246	-200.000	0.015	-0.104
-193.231	-200.000	-0.027	-0.171
-192.217	-115.671	-0.064	0.012
-191.202	800.000	0.035	0.121
-190.187	800.000	-0.132	-0.434
-189.173	-69.103	-0.163	0.062
-188.158	155.155	-0.273	-0.373
-187.144	800.000	-0.027	0.101
-186.129	-200.000	-0.026	-0.141
-185.114	-111.230	0.322	-0.065
-184.100	-129.716	-0.148	0.020
-183.085	-200.000	-0.004	0.258
-182.071	-200.000	0.006	0.225
-181.056	-73.383	-0.295	0.107
-180.042	-119.929	0.512	0.087
-179.027	-52.760	-0.161	-0.074
-178.012	-200.000	-0.027	-0.168
-176.998	43.052	0.199	0.180
-175.983	-59.269	0.066	-0.028
-174.969	272.756	0.255	-0.447
-173.954	-200.000	0.033	-0.282
-172.939	-200.000	0.012	-0.117
-171.925	215.666	0.077	-0.122
-170.910	-51.849	-0.143	-0.066
-169.896	-72.109	-0.210	0.077
-168.881	-140.973	0.280	0.029
-167.866	35.282	0.138	-0.120
-166.852	-200.000	-0.015	0.210
-165.837	35.707	0.202	0.176
-164.823	10.110	-0.473	-0.356
-163.808	800.000	0.040	-0.115
-162.793	31.940	0.278	-0.238
-161.779	680.080	0.012	-0.032
-160.764	32.609	-0.302	0.259
-159.750	-30.289	-0.417	-0.234
-158.735	87.827	0.102	-0.112
-157.720	-176.040	0.215	0.006
-156.706	-47.890	-0.162	0.078
-155.691	56.611	0.249	0.240
-154.677	-16.276	-0.060	-0.038
-153.662	289.239	-0.041	0.074
-152.647	218.576	-0.050	-0.080
-151.633	-87.981	-0.260	0.078
-150.618	-30.558	-0.092	-0.051
-149.604	-83.861	0.130	-0.041
-148.589	-6.022	-0.164	-0.111
-147.574	800.000	-0.030	-0.095
-146.560	-38.593	-0.174	-0.091
-145.545	-200.000	-0.001	0.158
-144.531	19.878	-0.168	0.134
-143.516	-108.107	0.064	-0.014
-142.502	-78.585	0.170	0.058
-141.487	33.074	-0.226	0.194
-140.472	-200.000	0.059	0.437
-139.458	-185.499	0.189	-0.003
-138.443	-200.000	0.000	0.159
-137.429	136.717	0.122	0.157
-136.414	-124.132	-0.109	0.017
-135.399	2.869	0.274	0.197
-134.385	-35.328	0.167	0.090
-133.370	-113.758	0.303	0.058
-132.356	125.940	0.133	0.166
-131.341	-200.000	0.031	-0.154
-130.326	-57.358	-0.205	-0.089
-129.312	-200.000	-0.062	0.307
-128.297	59.664	-0.242	-0.237
-127.283	-81.634	0.158	0.051
-126.268	-75.916	-0.194	0.068
-125.253	34.702	0.169	0.146
-124.239	-66.912	-0.438	0.171
-123.224	-126.190	-0.116	0.017
-122.210	249.915	0.101	-0.170
-121.195	800.000	-0.030	-0.092
-120.180	-70.752	-0.269	0.100
-119.166	-200.000	0.010	0.233
-118.151	0.666	0.212	-0.150
-117.137	125.064	0.147	-0.183
-116.122	334.121	-0.127	-0.242
-115.107	800.000	-0.079	-0.251
-114.093	-56.191	0.074	-0.033
-113.078	-96.788	-0.183	0.048
-112.064	-151.088	0.274	0.020
-111.049	43.241	0.285	-0.258
-110.034	-200.000	0.005	-0.032
-109.020	-200.000	0.002	0.032
-108.005	-108.004	0.456	-0.098
-106.991	-40.176	-0.036	-0.019
-105.976	440.017	-0.107	0.230
-104.962	-149.471	-0.154	-0.012
-103.947	-2.807	0.124	0.086
-102.932	-39.332	-0.301	0.156
-101.918	-200.000	-0.051	-0.311
-100.903	-70.700	-0.082	-0.031
-99.889	-137.683	0.333	0.037
-98.874	800.000	-0.083	-0.265
-97.859	-122.576	-0.022	-0.004
-96.845	-200.000	0.029	0.348
-95.830	41.335	0.112	-0.100
-94.816	402.387	-0.149	0.309
-93.801	29.073	0.198	0.166
-92.786	-129.804	0.363	0.049
-91.772	-44.982	0.043	0.021
-90.757	-200.000	0.003	0.332
-89.743	223.395	0.080	-0.127
-88.728	113.202	-0.042	0.051
-87.713	-71.122	-0.289	0.107
-86.699	-0.356	0.162	-0.114
-85.684	192.703	0.068	0.101
-84.670	-15.157	0.366	0.231
-83.655	-87.787	-0.324	0.097
-82.640	-200.000	-0.014	-0.124
-81.626	-200.000	0.019	-0.108
-80.611	140.588	0.106	-0.139
-79.597	-4.383	0.089	-0.060
-78.582	-80.910	-0.202	0.066
-77.567	-46.506	0.222	-0.108
-76.553	104.846	-0.209	-0.243
-75.538	-63.901	0.213	0.086
-74.524	-200.000	0.011	0.273
-73.509	42.014	0.239	0.214
-72.494	305.461	-0.190	-0.348
-71.480	-200.000	-0.020	-0.100
-70.465	-120.202	0.346	-0.058
-69.451	-200.000	0.003	0.223
-68.436	-131.727	-0.153	-0.020
-67.422	137.313	-0.248	-0.321
-66.407	314.243	-0.107	0.198
-65.392	40.353	-0.110	-0.098
-64.378	290.115	-0.073	0.130
-63.363	-51.024	0.250	0.116
-62.349	82.053	0.327	-0.350
-61.334	22.772	-1.037	-0.838
-60.319	800.000	0.151	0.652
-59.305	800.000	-0.236	-1.015
-58.290	520.650	0.368	0.851
-57.276	800.000	0.561	1.555
-56.261	-200.000	90.231	510.848
-55.246	445.337	1426.065	3091.344
-54.232	144.198	2640.238	3477.032
-53.217	104.483	2360.183	2742.765
-52.203	45.093	1963.947	1785.897
-51.188	39.282	1748.057	1544.086
-50.173	36.576	1703.381	1483.824
-49.159	51.778	1748.603	1641.721
-48.144	54.923	1766.618	1683.025
-47.130	39.203	1725.007	1522.868
-46.115	36.272	1709.873	1486.908
-45.100	35.970	1705.207	1480.469
-44.086	35.968	1702.583	1478.114
-43.071	36.055	1699.791	1476.298
-42.057	35.975	1697.540	1473.671
-41.042	36.060	1695.051	1472.099
-40.027	36.037	1693.220	1470.276
-39.013	36.054	1691.340	1468.716
-37.998	35.962	1690.382	1467.128
-36.984	36.014	1688.996	1466.264
-35.969	36.105	1687.244	1465.374
-34.954	36.235	1685.195	1464.527
-33.940	36.112	1683.761	1462.283
-32.925	36.162	1681.991	1461.069
-31.911	36.138	1680.065	1459.155
-30.896	36.052	1678.741	1457.301
-29.881	36.109	1676.562	1455.777
-28.867	36.140	1674.892	1454.507
-27.852	36.145	1673.786	1453.523
-26.838	36.075	1672.311	1451.658
-25.823	36.114	1670.661	1450.464
-24.809	36.186	1669.313	1449.776
-23.794	36.148	1667.845	1448.159
-22.779	36.137	1665.906	1446.335
-21.765	36.106	1664.380	1444.719
-20.750	36.159	1663.043	1443.899
-19.736	36.169	1661.411	1442.499
-18.721	36.132	1660.022	1440.962
-17.706	36.173	1658.411	1439.811
-16.692	36.118	1656.749	1437.903
-15.677	36.154	1655.309	1436.859
-14.663	36.134	1654.108	1435.614
-13.648	36.188	1652.944	1434.948
-12.633	36.187	1650.966	1433.166
-11.619	36.189	1649.406	1431.773
-10.604	36.212	1647.782	1430.478
-9.590	36.171	1646.602	1429.090
-8.575	36.142	1645.427	1427.796
-7.560	36.178	1644.267	1427.000
-6.546	36.077	1643.035	1425.132
-5.531	36.133	1641.551	1424.201
-4.517	36.047	1640.853	1422.905
-3.502	36.129	1639.435	1422.223
-2.487	36.282	1637.738	1421.820
-1.473	36.175	1627.061	1411.715
-0.458	33.920	1607.122	1378.024
0.556	28.473	1607.148	1342.240
1.571	25.516	1630.390	1339.532
2.586	24.461	1642.828	1341.709
3.600	21.659	1589.477	1277.611
4.615	12.193	1471.857	1118.721
5.629	2.530	1400.340	1001.332
6.644	0.550	1390.175	981.119
7.659	0.392	1388.679	978.950
8.673	0.390	1387.653	978.130
9.688	0.328	1385.900	976.401
10.702	0.139	1383.103	973.123
11.717	4.174	1390.508	1004.438
12.731	13.373	1405.372	1075.102
13.746	18.103	1411.417	1110.431
14.761	17.484	1408.128	1103.734
15.775	16.555	1405.815	1095.808
16.790	15.500	1402.785	1086.523
17.804	14.622	1400.769	1079.188
18.819	14.275	1399.227	1075.666
19.834	13.912	1397.902	1072.210
20.848	13.636	1396.637	1069.362
21.863	13.473	1395.097	1067.039
22.877	13.385	1393.194	1064.919
23.892	13.213	1393.062	1063.620
24.907	13.226	1392.424	1063.122
25.921	13.266	1391.368	1062.476
26.936	13.360	1390.393	1062.242
27.950	13.406	1389.162	1061.506
28.965	13.385	1388.256	1060.583
29.980	13.495	1387.530	1060.640
30.994	13.461	1386.601	1059.621
32.009	13.583	1385.309	1059.315
33.023	13.489	1384.057	1057.664
34.038	13.507	1383.069	1056.934
35.053	13.493	1382.146	1056.048
36.067	13.492	1380.643	1054.798
37.082	13.430	1380.173	1053.948
38.096	13.434	1379.309	1053.222
39.111	13.461	1378.187	1052.444
40.126	13.392	1377.429	1051.335
41.140	13.271	1376.866	1050.041
42.155	13.377	1376.294	1050.185
43.169	13.215	1376.400	1049.147
44.184	13.337	1375.458	1049.106
45.199	13.283	1375.365	1048.603
46.213	13.316	1374.956	1048.404
47.228	13.376	1373.733	1047.762
48.242	13.443	1372.255	1046.965
49.257	13.350	1370.796	1045.169
50.271	13.382	1369.421	1044.234
51.286	13.360	1368.408	1043.230
52.301	13.452	1366.891	1042.558
53.315	13.344	1366.015	1041.117
54.330	13.223	1365.223	1039.663
55.344	13.247	1364.164	1038.914
56.359	13.326	1362.255	1037.862
57.374	13.380	1361.397	1037.461
58.388	13.339	1360.673	1036.554
59.403	13.253	1360.442	1035.753
60.417	13.285	1359.704	1035.296
61.432	13.101	1359.070	1033.572
62.447	13.230	1358.032	1033.495
63.461	13.173	1356.780	1032.098
64.476	13.305	1355.187	1031.617
65.490	13.207	1354.167	1030.138
66.505	13.288	1352.554	1029.323
67.520	13.201	1351.616	1027.978
68.534	13.366	1349.961	1027.654
69.549	13.342	1349.453	1027.030
70.563	13.257	1348.453	1025.647
71.578	13.203	1346.970	1024.096
72.593	13.148	1346.254	1023.121
73.607	13.149	1345.625	1022.557
74.622	13.205	1344.420	1021.898
75.636	13.072	1344.262	1020.863
76.651	13.094	1343.350	1020.216
77.666	13.141	1342.765	1019.975
78.680	13.129	1342.625	1019.705
79.695	13.200	1341.284	1019.032
80.709	13.207	1340.400	1018.315
81.724	13.298	1339.283	1017.936
82.739	13.280	1338.514	1017.150
83.753	13.308	1337.608	1016.541
84.768	13.368	1336.797	1016.203
85.782	13.456	1335.430	1015.619
86.797	13.308	1334.471	1013.889
87.812	13.308	1333.073	1012.739
88.826	13.303	1331.598	1011.500
89.841	13.442	1330.590	1011.492
90.855	13.409	1329.431	1010.319
91.870	13.396	1328.741	1009.628
92.884	13.461	1327.491	1008.982
93.899	13.495	1326.790	1008.567
94.914	13.469	1326.150	1007.837
95.928	13.481	1325.402	1007.248
96.943	13.427	1324.760	1006.347
97.957	13.370	1323.787	1005.168
98.972	13.450	1322.752	1004.779
99.987	13.439	1321.264	1003.497
101.001	13.442	1320.474	1002.826
102.016	13.451	1319.358	1001.943
103.030	13.464	1318.573	1001.337
104.045	13.391	1318.030	1000.396
105.060	13.398	1316.352	999.077
106.074	13.308	1315.134	997.515
107.089	13.247	1313.562	995.869
108.103	13.317	1312.542	995.432
109.118	13.393	1310.714	994.415
110.133	13.287	1310.328	993.394
111.147	13.322	1308.723	992.299
112.162	13.337	1307.404	991.300
113.176	13.425	1306.170	990.808
114.191	13.279	1305.652	989.452
115.206	13.405	1304.370	989.144
116.220	13.422	1302.790	987.964
117.235	13.409	1301.861	987.092
118.249	13.350	1300.702	985.775
119.264	13.251	1300.101	984.643
120.279	13.342	1298.521	983.898
121.293	13.351	1297.227	982.885
122.308	13.275	1296.444	981.755
123.322	13.344	1295.227	981.158
124.337	13.304	1294.357	980.173
125.352	13.240	1293.468	979.032
126.366	13.289	1292.397	978.427
127.381	13.194	1291.276	976.926
128.395	13.335	1289.724	976.499
129.410	13.367	1289.024	976.075
130.424	13.311	1288.392	975.176
131.439	13.365	1287.491	974.728
132.454	13.364	1286.485	973.872
133.468	13.420	1285.263	973.195
134.483	13.351	1284.723	972.289
135.497	13.331	1283.919	971.482
136.512	13.421	1282.130	970.569
137.527	13.359	1280.884	969.175
138.541	13.427	1279.309	968.294
139.556	13.319	1278.824	967.212
140.570	13.448	1277.275	966.710
141.585	13.401	1275.937	965.334
142.600	13.536	1274.921	965.270
143.614	13.569	1274.346	964.943
144.629	13.619	1272.452	963.712
145.643	13.548	1271.314	962.354
146.658	13.508	1270.135	961.141
147.673	13.421	1269.096	959.767
148.687	13.459	1267.814	958.930
149.702	13.333	1266.535	957.150
150.716	13.366	1265.102	956.174
151.731	13.509	1263.944	956.043
152.746	13.410	1262.916	954.606
153.760	13.527	1261.579	954.187
154.775	13.526	1260.335	953.157
155.789	13.617	1259.068	952.635
156.804	13.534	1258.295	951.489
157.819	13.544	1257.053	950.525
158.833	13.650	1256.157	950.368
159.848	13.545	1255.566	949.236
160.862	13.740	1253.959	949.055
161.877	13.578	1253.003	947.320
162.892	13.469	1252.297	946.082
163.906	13.482	1251.300	945.318
164.921	13.540	1250.123	944.675
165.935	13.558	1249.213	944.004
166.950	13.633	1248.281	943.648
167.964	13.605	1247.772	943.017
168.979	13.681	1246.958	942.751
169.994	13.694	1246.166	942.145
171.008	13.564	1245.747	941.004
172.023	13.702	1244.539	940.793
173.037	13.712	1243.940	940.314
174.052	13.800	1242.462	939.610
175.067	13.743	1241.289	938.315
176.081	13.606	1240.824	937.107
177.096	13.591	1240.108	936.401
178.110	13.709	1238.446	935.729
179.125	13.693	1237.329	934.712
180.140	13.756	1235.873	933.881
181.154	13.734	1234.768	932.844
182.169	13.766	1233.902	932.284
183.183	13.750	1232.686	931.196
184.198	13.884	1231.448	930.926
185.213	13.858	1230.277	929.815
186.227	13.859	1229.404	929.080
187.242	13.973	1228.137	928.673
188.256	14.002	1227.270	928.097
189.271	13.818	1226.878	926.696
190.286	13.783	1225.325	925.246
191.300	13.735	1224.852	924.537
192.315	13.785	1223.665	923.838
193.329	13.847	1223.548	924.013
194.344	13.799	1222.813	923.107
195.359	13.840	1222.352	922.906
196.373	13.875	1221.563	922.423
197.388	13.889	1220.888	921.910
198.402	13.955	1220.609	921.982
199.417	14.005	1220.022	921.735
200.432	14.136	1218.561	921.279
201.446	14.118	1218.355	920.938
202.461	14.030	1217.818	919.967
203.475	14.201	1216.391	919.750
204.490	14.273	1214.610	918.718
205.504	14.151	1213.777	917.339
206.519	14.042	1212.536	915.720
207.534	14.064	1211.610	915.059
208.548	14.101	1210.820	914.582
209.563	14.000	1209.972	913.308
210.577	14.159	1208.691	913.135
211.592	14.194	1208.337	912.977
212.607	14.346	1206.768	912.545
213.621	14.146	1206.912	911.476
214.636	14.276	1205.171	910.788
215.650	14.265	1204.138	909.871
216.665	14.355	1203.154	909.535
217.680	14.202	1202.735	908.303
218.694	14.191	1202.082	907.670
219.709	14.340	1200.667	907.332
220.723	14.294	1200.067	906.553
221.738	14.323	1199.443	906.156
222.753	14.303	1198.566	905.303
223.767	14.300	1198.014	904.789
224.782	14.506	1197.363	905.339
225.796	14.550	1196.366	904.742
226.811	14.459	1195.686	903.655
227.826	14.500	1194.896	903.200
228.840	14.496	1194.530	902.823
229.855	14.391	1193.995	901.770
230.869	14.452	1192.919	901.205
231.884	14.442	1192.114	900.466
232.899	14.441	1191.514	899.926
233.913	14.453	1190.320	899.012
234.928	14.447	1189.885	898.569
235.942	14.404	1188.899	897.516
236.957	14.434	1187.874	896.825
237.972	14.618	1187.212	897.235
238.986	14.475	1186.847	896.108
240.001	14.485	1185.954	895.409
241.015	14.577	1184.865	895.001
242.030	14.574	1184.395	894.553
243.045	14.566	1183.647	893.861
244.059	14.553	1182.833	893.099
245.074	14.539	1182.126	892.411
246.088	14.581	1181.069	891.758
247.103	14.625	1180.699	891.636
248.117	14.729	1179.539	891.236
249.132	14.685	1179.149	890.630
250.147	14.842	1178.268	890.724
251.161	14.779	1177.751	889.918
252.176	14.854	1176.913	889.604
253.190	14.865	1176.058	888.937
254.205	14.807	1175.892	888.423
255.220	14.951	1174.951	888.399
256.234	14.977	1174.423	888.060
257.249	14.951	1173.572	887.201
258.263	14.981	1172.861	886.740
259.278	15.022	1172.265	886.429
260.293	14.960	1171.916	885.761
261.307	15.064	1171.156	885.658
262.322	15.027	1170.628	884.984
263.336	15.075	1169.911	884.616
264.351	15.115	1169.062	884.108
265.366	15.169	1168.575	883.948
266.380	15.200	1167.636	883.321
267.395	15.140	1166.948	882.408
268.409	15.123	1166.125	881.619
269.424	15.118	1165.410	880.974
270.439	15.163	1164.712	880.603
271.453	15.165	1164.096	880.072
272.468	15.124	1163.190	879.091
273.482	15.060	1163.063	878.582
274.497	15.145	1161.958	878.114
275.512	15.196	1161.094	877.653
276.526	15.173	1160.316	876.864
277.541	15.164	1159.374	876.030
278.555	15.192	1159.306	876.050
279.570	15.200	1158.309	875.257
280.585	15.324	1157.356	875.107
281.599	15.285	1156.174	873.932
282.614	15.396	1155.242	873.727
283.628	15.339	1154.256	872.612
284.643	15.301	1153.852	872.030
285.657	15.214	1152.989	870.847
286.672	15.270	1151.755	870.129
287.687	15.276	1150.842	869.393
288.701	15.397	1150.343	869.567
289.716	15.357	1149.216	868.430
290.730	15.389	1148.706	868.136
291.745	15.409	1148.309	867.861
292.760	15.455	1147.459	867.379
293.774	15.437	1146.860	866.760
294.789	15.593	1146.213	866.996
295.803	15.546	1145.548	866.175
296.818	15.442	1145.308	865.378
297.833	15.536	1143.917	864.734
298.847	15.519	1143.155	863.995
299.862	15.569	1142.273	863.510
300.876	15.606	1141.322	862.905
301.891	15.591	1141.088	862.577
302.906	15.573	1140.281	861.796
303.920	15.663	1139.695	861.737
304.935	15.560	1139.327	860.857
305.949	15.612	1138.464	860.395
306.964	15.778	1137.437	860.389
307.979	15.687	1137.070	859.574
308.993	15.786	1135.914	859.127
310.008	15.731	1135.528	858.478
311.022	15.928	1133.965	858.225
312.037	15.845	1133.566	857.424
313.052	15.823	1132.735	856.607
314.066	15.790	1131.420	855.372
315.081	15.619	1131.118	854.197
316.095	15.672	1130.439	853.881
317.110	15.752	1129.527	853.520
318.125	15.746	1128.916	852.954
319.139	15.678	1128.218	852.005
320.154	15.735	1127.414	851.610
321.168	15.763	1126.624	851.082
322.183	15.794	1125.953	850.657
323.197	15.866	1125.195	850.372
324.212	15.702	1125.230	849.492
325.227	15.763	1124.497	849.173
326.241	15.878	1123.594	848.997
327.256	15.847	1122.767	848.139
328.270	15.870	1121.751	847.411
329.285	15.834	1120.616	846.299
330.300	15.898	1119.962	846.052
331.314	15.790	1119.221	844.875
332.329	15.896	1118.373	844.692
333.343	15.770	1117.695	843.472
334.358	16.048	1116.570	843.941
335.373	16.027	1115.532	842.978
336.387	15.943	1115.066	842.129
337.402	15.972	1114.305	841.624
338.416	15.988	1113.757	841.216
339.431	16.071	1112.964	840.959
340.446	16.134	1112.538	840.879
341.460	16.137	1111.722	840.202
342.475	16.143	1110.618	839.322
343.489	16.285	1109.775	839.316
344.504	16.200	1109.204	838.387
345.519	16.209	1107.946	837.409
346.533	16.212	1107.694	837.158
347.548	16.224	1106.839	836.496
348.562	16.295	1105.948	836.103
349.577	16.313	1105.022	835.415
350.592	16.215	1104.219	834.252
351.606	16.279	1103.252	833.764
352.621	16.289	1102.459	833.139
353.635	16.240	1101.917	832.416
354.650	16.268	1101.335	832.039
355.665	16.268	1100.812	831.572
356.679	16.339	1100.138	831.335
357.694	16.380	1099.187	830.747
358.708	16.358	1098.827	830.293
359.723	16.382	1098.103	829.789
360.738	16.387	1097.601	829.363
361.752	16.326	1097.133	828.636
362.767	16.509	1095.958	828.573
363.781	16.472	1095.663	828.095
364.796	16.515	1095.051	827.769
365.810	16.537	1094.533	827.413
366.825	16.653	1093.837	827.379
367.840	16.705	1093.303	827.156
368.854	16.625	1092.638	826.190
369.869	16.667	1091.868	825.740
370.883	16.574	1091.346	824.816
371.898	16.507	1090.447	823.740
372.913	16.603	1089.699	823.566
373.927	16.583	1089.452	823.208
374.942	16.614	1089.139	823.054
375.956	16.692	1088.207	822.654
376.971	16.704	1087.644	822.214
377.986	16.749	1086.969	821.852
379.000	16.777	1086.401	821.482
380.015	16.801	1086.237	821.403
381.029	16.798	1085.288	820.597
382.044	16.794	1084.599	819.984
383.059	16.791	1084.076	819.503
384.073	16.797	1083.094	818.717
385.088	16.847	1082.174	818.191
386.102	16.883	1081.063	817.450
387.117	16.829	1080.298	816.538
388.132	16.803	1079.247	815.548
389.146	16.867	1078.387	815.136
390.161	16.815	1078.009	814.526
391.175	16.801	1077.427	813.946
392.190	16.861	1076.090	813.156
393.205	16.877	1075.627	812.810
394.219	16.960	1074.837	812.537
395.234	16.993	1073.666	811.736
396.248	16.983	1072.838	810.995
397.263	17.006	1071.639	810.125
398.278	17.006	1071.166	809.695
399.292	16.992	1070.621	809.143
400.307	16.913	1069.807	808.083
401.321	16.924	1069.203	807.607
402.336	16.928	1068.440	806.975
403.350	16.983	1067.898	806.759
404.365	16.978	1067.307	806.214
405.380	16.900	1066.562	805.210
406.394	17.184	1065.217	805.472
407.409	17.124	1064.323	804.442
408.423	17.188	1063.974	804.407
409.438	17.156	1063.463	803.801
410.453	17.032	1063.167	802.920
411.467	17.293	1062.008	803.205
412.482	17.205	1061.550	802.373
413.496	17.343	1060.837	802.414
414.511	17.323	1060.254	801.808
415.526	17.204	1060.053	801.023
416.540	17.404	1059.562	801.525
417.555	17.426	1058.875	801.035
418.569	17.448	1058.102	800.485
419.584	17.446	1057.389	799.865
420.599	17.436	1056.739	799.253
421.613	96.275	1312.460	1429.007
422.628	88.785	1349.701	1429.142
