DTS Sentinel unit serial number:	SN413079Multiplexer serial number:	ORYXHardware model number:	OX4-SRSoftware version number:	ORYX F/W v4.00 Oryx Data Collector v3.7.2.0data status	okinstallation	princeton_trtdifferential loss correction	single-endedforward channel	channel 2reverse channel	N/Adate	2019/09/13time	23:39:35forward acquisition time	60.00reverse acquisition time	0.00gamma	496.2192k internal	0.2338k external	0.2338temperature offset calibration	1.0132default loss term (dB/km)	0.3790temperature slope calibration	1.0000multiplexer offset coefficient	1.0000multiplexer slope coefficient	1.0000fibre end	0.00T internal ref (°C)	26.72T ext. ref 1 (°C)	3.18T ext. ref 2 (°C)	20.98length (m)	temperature (°C)	Stokes	anti-Stokes-747.200	-200.000	-0.005	0.220
-746.185	800.000	-0.101	0.338
-745.171	-200.000	0.046	0.329
-744.156	34.541	-0.010	0.009
-743.142	9.741	0.244	-0.186
-742.127	243.757	-0.135	0.228
-741.112	-200.000	0.007	0.141
-740.098	-200.000	-0.027	0.353
-739.083	104.232	-0.239	0.282
-738.069	248.578	0.064	-0.109
-737.054	182.941	0.115	-0.170
-736.039	10.165	-0.229	-0.175
-735.025	-54.476	0.151	-0.068
-734.010	-22.127	-0.285	0.174
-732.996	-149.032	-0.303	-0.024
-731.981	-48.031	-0.282	0.137
-730.966	-77.741	0.238	0.083
-729.952	-200.000	-0.072	-0.555
-728.937	46.576	0.189	-0.176
-727.923	-1.876	-0.080	-0.057
-726.908	800.000	0.045	0.182
-725.894	127.220	0.154	-0.196
-724.879	207.429	-0.060	-0.094
-723.864	-200.000	0.027	0.464
-722.850	-64.766	-0.192	-0.078
-721.835	4.320	-0.369	-0.271
-720.821	-138.337	-0.191	-0.021
-719.806	291.365	-0.053	-0.096
-718.791	-158.447	-0.285	-0.017
-717.777	-200.000	-0.019	0.110
-716.762	-106.091	-0.348	-0.078
-715.748	-200.000	0.001	-0.051
-714.733	800.000	0.080	-0.268
-713.718	-136.754	-0.528	0.061
-712.704	800.000	-0.072	-0.276
-711.689	-200.000	0.009	-0.274
-710.675	451.467	-0.089	-0.197
-709.660	476.778	-0.154	0.350
-708.645	47.451	0.134	0.125
-707.631	-200.000	-0.040	-0.334
-706.616	-45.556	0.086	0.042
-705.602	-77.520	0.182	-0.063
-704.587	38.089	0.129	-0.115
-703.572	-137.217	0.102	0.012
-702.558	-61.866	0.275	0.115
-701.543	396.022	-0.110	-0.230
-700.529	-200.000	0.016	0.119
-699.514	800.000	0.045	0.134
-698.499	-200.000	0.019	-0.385
-697.485	213.199	-0.253	-0.400
-696.470	-106.327	-0.098	-0.022
-695.456	800.000	-0.104	0.337
-694.441	773.310	-0.099	-0.269
-693.426	800.000	-0.069	-0.269
-692.412	1.551	-0.141	-0.102
-691.397	-32.639	0.203	-0.113
-690.383	-152.511	-0.253	0.018
-689.368	-106.881	-0.103	-0.023
-688.354	29.894	0.173	-0.148
-687.339	22.199	-0.319	0.260
-686.324	321.235	-0.052	0.099
-685.310	8.647	0.122	0.092
-684.295	-1.604	0.174	0.123
-683.281	274.653	0.096	-0.170
-682.266	184.588	-0.174	-0.259
-681.251	-200.000	0.030	-0.353
-680.237	-25.417	0.089	0.052
-679.222	-42.814	-0.472	-0.240
-678.208	-200.000	-0.011	0.101
-677.193	-81.783	-0.148	0.049
-676.178	10.855	-0.382	0.292
-675.164	275.179	0.155	0.275
-674.149	-200.000	0.007	0.365
-673.135	-112.814	-0.066	0.013
-672.120	800.000	-0.010	-0.030
-671.105	90.498	0.112	-0.125
-670.091	-68.833	-0.608	-0.235
-669.076	-200.000	-0.027	-0.158
-668.062	-138.545	0.125	-0.014
-667.047	-4.570	0.210	0.145
-666.032	-107.369	0.063	-0.014
-665.018	-14.195	-0.154	-0.099
-664.003	-9.252	-0.155	-0.103
-662.989	800.000	0.070	-0.201
-661.974	-58.609	0.509	-0.221
-660.959	-200.000	0.004	0.068
-659.945	-140.739	0.071	0.007
-658.930	800.000	0.085	-0.287
-657.916	-200.000	0.023	-0.252
-656.901	55.011	-0.320	-0.309
-655.886	-135.092	-0.070	-0.008
-654.872	-28.016	0.267	-0.154
-653.857	12.892	-0.294	-0.227
-652.843	68.708	-0.265	-0.271
-651.828	780.845	-0.075	0.206
-650.814	144.228	-0.103	-0.137
-649.799	-12.480	0.057	-0.037
-648.784	-200.000	0.047	-0.326
-647.770	14.175	0.127	-0.099
-646.755	-158.044	0.236	-0.014
-645.741	-28.188	-0.298	-0.172
-644.726	-12.577	0.134	0.087
-643.711	800.000	0.056	0.166
-642.697	-102.054	0.296	-0.071
-641.682	-200.000	-0.025	-0.330
-640.668	237.894	0.042	0.070
-639.653	287.865	-0.120	-0.217
-638.638	184.840	-0.122	-0.180
-637.624	-32.737	0.151	0.084
-636.609	-200.000	-0.008	-0.117
-635.595	215.831	-0.195	0.309
-634.580	-142.963	0.217	0.021
-633.565	-200.000	0.045	0.223
-632.551	800.000	-0.057	0.246
-631.536	62.521	0.311	0.310
-630.522	34.357	0.040	-0.035
-629.507	-65.031	0.293	0.118
-628.492	-139.564	-0.173	0.018
-627.478	-200.000	-0.004	-0.154
-626.463	-200.000	-0.041	0.267
-625.449	71.769	0.076	-0.079
-624.434	-112.302	-0.052	-0.010
-623.419	302.820	-0.163	-0.302
-622.405	721.204	0.055	0.147
-621.390	32.931	-0.181	0.157
-620.376	363.038	0.116	-0.233
-619.361	-90.510	-0.260	0.075
-618.346	-152.719	-0.170	0.012
-617.332	-57.911	-0.242	-0.105
-616.317	-163.038	-0.217	-0.010
-615.303	-80.046	0.191	-0.064
-614.288	200.239	-0.098	-0.150
-613.273	-140.474	-0.031	-0.003
-612.259	-200.000	0.018	0.172
-611.244	800.000	-0.189	0.562
-610.230	800.000	-0.045	0.148
-609.215	50.351	-0.188	0.177
-608.201	86.511	0.098	0.108
-607.186	346.764	-0.105	-0.207
-606.171	104.103	-0.169	0.198
-605.157	800.000	0.043	0.131
-604.142	13.047	-0.333	0.257
-603.128	800.000	0.063	-0.202
-602.113	292.529	-0.072	-0.130
-601.098	-156.727	-0.141	-0.009
-600.084	131.546	0.126	-0.161
-599.069	-15.203	-0.100	-0.064
-598.055	-86.635	-0.342	-0.104
-597.040	669.966	-0.132	-0.341
-596.025	-200.000	-0.074	0.329
-595.011	-200.000	0.007	0.178
-593.996	-200.000	-0.011	-0.211
-592.982	41.283	-0.109	-0.099
-591.967	-127.051	0.333	-0.049
-590.952	-200.000	-0.009	-0.074
-589.938	63.643	-0.035	0.035
-588.923	45.817	-0.166	0.153
-587.909	-97.059	-0.079	-0.021
-586.894	114.911	0.103	-0.126
-585.879	-127.365	-0.222	0.032
-584.865	190.719	0.046	-0.068
-583.850	-115.940	-0.239	0.044
-582.836	-182.741	-0.126	0.002
-581.821	-46.108	-0.107	-0.052
-580.806	-200.000	-0.033	0.234
-579.792	389.398	-0.143	0.295
-578.777	49.593	0.053	0.049
-577.763	-68.672	-0.118	0.045
-576.748	800.000	-0.115	0.432
-575.733	800.000	-0.057	-0.192
-574.719	193.648	-0.080	0.121
-573.704	528.810	0.074	-0.175
-572.690	-1.797	-0.210	-0.147
-571.675	-200.000	0.004	-0.110
-570.661	319.607	0.120	-0.227
-569.646	398.994	-0.007	0.015
-568.631	60.907	-0.049	0.049
-567.617	-54.815	-0.149	0.067
-566.602	-99.754	0.185	0.046
-565.588	27.408	0.298	0.249
-564.573	-27.791	-0.185	0.107
-563.558	-97.870	-0.273	0.070
-562.544	116.142	-0.008	-0.010
-561.529	-200.000	-0.046	-0.210
-560.515	800.000	0.137	-0.456
-559.500	-36.585	0.419	-0.224
-558.485	-69.223	-0.350	-0.134
-557.471	-64.441	-0.267	0.108
-556.456	-45.539	-0.195	0.096
-555.442	-62.755	-0.100	0.041
-554.427	800.000	-0.112	-0.366
-553.412	490.931	-0.037	0.084
-552.398	-78.777	0.071	-0.024
-551.383	-43.741	-0.072	0.036
-550.369	-157.159	-0.232	-0.014
-549.354	-106.226	-0.346	-0.077
-548.339	-169.002	0.242	-0.009
-547.325	499.087	-0.136	-0.313
-546.310	144.690	0.323	0.430
-545.296	47.163	0.090	0.084
-544.281	68.116	-0.172	0.175
-543.266	486.424	0.055	-0.124
-542.252	467.919	-0.096	-0.214
-541.237	-138.182	0.239	-0.026
-540.223	264.891	-0.012	0.021
-539.208	-164.360	0.067	-0.003
-538.193	-200.000	-0.012	-0.060
-537.179	-138.081	0.151	0.017
-536.164	-173.198	-0.116	-0.004
-535.150	-77.566	0.200	-0.069
-534.135	-147.465	0.177	0.015
-533.121	63.065	-0.076	0.076
-532.106	38.419	0.086	-0.076
-531.091	-151.233	0.224	0.017
-530.077	202.198	-0.112	-0.173
-529.062	532.019	-0.081	0.190
-528.048	5.307	0.258	0.189
-527.033	800.000	-0.025	-0.074
-526.018	202.548	0.081	0.125
-525.004	-125.919	0.285	0.043
-523.989	800.000	-0.061	0.235
-522.975	4.557	-0.191	-0.139
-521.960	202.442	0.147	-0.226
-520.945	121.711	-0.064	-0.079
-519.931	35.581	0.034	0.029
-518.916	-200.000	0.031	-0.165
-517.902	-11.104	0.340	0.223
-516.887	-10.261	-0.155	0.102
-515.872	-135.419	-0.057	-0.007
-514.858	-110.805	0.184	-0.038
-513.843	-18.207	0.204	0.127
-512.829	5.867	0.226	0.167
-511.814	-200.000	0.017	-0.195
-510.799	92.484	-0.112	0.125
-509.785	-87.555	-0.264	-0.079
-508.770	-69.943	0.385	-0.146
-507.756	342.097	-0.072	0.140
-506.741	-62.556	-0.238	-0.098
-505.726	-168.557	-0.351	-0.013
-504.712	-140.329	0.299	-0.031
-503.697	13.289	0.302	0.233
-502.683	-1.912	-0.090	-0.063
-501.668	-54.084	0.106	0.048
-500.653	-139.052	-0.118	0.013
-499.639	-200.000	0.029	-0.182
-498.624	-109.712	0.454	0.095
-497.610	-200.000	0.064	0.473
-496.595	374.696	-0.057	0.115
-495.581	186.908	-0.126	-0.187
-494.566	-115.502	0.245	0.046
-493.551	-46.651	-0.117	-0.057
-492.537	579.037	0.131	0.318
-491.522	526.590	-0.096	-0.226
-490.508	16.833	0.250	-0.196
-489.493	-129.958	-0.244	0.033
-488.478	800.000	0.091	0.361
-487.464	354.112	-0.016	0.031
-486.449	-115.373	-0.067	0.013
-485.435	546.692	-0.059	-0.139
-484.420	600.212	0.052	-0.128
-483.405	-83.973	0.236	0.075
-482.391	-2.852	-0.245	0.170
-481.376	124.409	0.224	-0.279
-480.362	442.280	0.071	-0.154
-479.347	53.169	-0.090	0.086
-478.332	-105.340	-0.321	-0.073
-477.318	-56.530	0.226	-0.099
-476.303	9.927	0.034	-0.026
-475.289	-109.198	0.186	-0.039
-474.274	67.252	-0.086	0.087
-473.259	-158.626	-0.053	0.003
-472.245	222.626	0.117	-0.187
-471.230	425.248	-0.105	-0.225
-470.216	-48.192	-0.209	-0.100
-469.201	-200.000	-0.046	-0.227
-468.186	87.294	-0.192	-0.211
-467.172	327.096	-0.192	0.366
-466.157	-200.000	0.041	0.278
-465.143	85.194	0.124	0.135
-464.128	188.900	-0.123	0.182
-463.113	-200.000	0.087	0.469
-462.099	358.846	-0.162	-0.322
-461.084	153.183	-0.273	0.371
-460.070	41.840	0.146	0.131
-459.055	-16.550	-0.038	-0.024
-458.040	-145.154	-0.244	0.022
-457.026	132.040	0.102	-0.130
-456.011	800.000	0.120	0.459
-454.997	-25.936	-0.033	0.019
-453.982	-131.924	0.428	0.055
-452.968	-67.963	-0.117	0.045
-451.953	112.823	0.163	-0.196
-450.938	-130.447	-0.143	-0.019
-449.924	93.070	-0.213	0.239
-448.909	-200.000	-0.027	0.166
-447.895	-156.679	-0.148	0.009
-446.880	800.000	-0.091	-0.326
-445.865	144.353	0.188	-0.248
-444.851	-11.454	-0.160	-0.105
-443.836	-36.076	0.251	-0.135
-442.822	-125.826	-0.164	0.025
-441.807	800.000	0.076	0.302
-440.792	166.975	0.377	0.530
-439.778	94.638	-0.072	0.081
-438.763	266.932	0.115	0.199
-437.749	398.405	0.119	0.247
-436.734	-60.681	0.129	-0.054
-435.719	-118.276	-0.174	0.031
-434.705	693.940	-0.064	-0.167
-433.690	62.122	-0.128	0.126
-432.676	-200.000	0.020	0.293
-431.661	-52.727	0.020	-0.009
-430.646	581.792	-0.105	0.255
-429.632	13.131	0.144	-0.110
-428.617	-200.000	-0.073	-0.320
-427.603	-24.438	-0.214	-0.126
-426.588	162.761	0.078	-0.109
-425.573	800.000	-0.048	-0.140
-424.559	-108.463	0.232	-0.050
-423.544	24.177	-0.286	-0.234
-422.530	-152.287	0.332	0.024
-421.515	-60.582	-0.089	0.037
-420.500	-200.000	0.004	0.112
-419.486	800.000	0.048	-0.144
-418.471	-200.000	-0.025	0.415
-417.457	-90.338	-0.130	0.037
-416.442	1.928	-0.170	0.122
-415.428	142.004	0.045	0.059
-414.413	35.166	-0.395	-0.343
-413.398	117.666	0.200	-0.244
-412.384	-33.969	-0.313	-0.171
-411.369	360.096	0.081	0.161
-410.355	506.082	-0.047	-0.109
-409.340	-107.434	-0.241	-0.052
-408.325	-200.000	0.002	0.115
-407.311	5.738	-0.091	-0.067
-406.296	800.000	0.070	-0.209
-405.282	-200.000	0.060	0.275
-404.267	-200.000	-0.021	-0.110
-403.252	119.474	-0.061	-0.075
-402.238	302.511	-0.024	-0.044
-401.223	-200.000	-0.031	-0.278
-400.209	465.583	-0.127	-0.282
-399.194	32.387	0.233	-0.199
-398.179	24.082	0.186	-0.152
-397.165	-62.065	0.395	0.163
-396.150	593.460	-0.088	0.216
-395.136	-17.033	0.185	0.115
-394.121	-77.970	0.139	-0.047
-393.106	573.594	-0.059	-0.143
-392.092	126.509	-0.147	0.185
-391.077	-23.130	-0.379	-0.226
-390.063	263.722	-0.041	0.070
-389.048	-200.000	0.023	0.249
-388.033	48.542	0.092	-0.086
-387.019	-55.091	0.209	-0.093
-386.004	171.523	0.020	-0.028
-384.990	-200.000	0.015	-0.106
-383.975	-127.896	-0.172	-0.024
-382.960	-131.917	-0.146	0.019
-381.946	-200.000	-0.012	0.242
-380.931	-125.536	-0.310	0.047
-379.917	17.201	-0.175	0.137
-378.902	800.000	-0.009	-0.032
-377.888	-200.000	-0.008	0.269
-376.873	-103.615	-0.186	-0.043
-375.858	-28.733	-0.302	0.172
-374.844	-200.000	0.031	-0.188
-373.829	-20.429	-0.184	-0.112
-372.815	-89.962	-0.267	0.077
-371.800	-7.634	0.123	0.083
-370.785	462.077	0.120	-0.264
-369.771	-200.000	0.028	-0.226
-368.756	800.000	-0.023	-0.065
-367.742	-57.999	-0.166	-0.071
-366.727	671.763	-0.056	-0.144
-365.712	-163.085	-0.190	0.009
-364.698	319.241	0.068	0.128
-363.683	-134.637	0.246	-0.030
-362.669	418.014	-0.101	-0.213
-361.654	226.293	0.083	-0.133
-360.639	-119.859	-0.220	-0.037
-359.625	172.717	-0.165	-0.235
-358.610	135.810	0.049	-0.064
-357.596	-125.830	0.328	-0.049
-356.581	39.498	-0.112	0.100
-355.566	800.000	-0.032	0.135
-354.552	-157.579	-0.028	0.002
-353.537	-88.316	-0.281	-0.083
-352.523	62.670	-0.290	-0.286
-351.508	-200.000	-0.028	-0.490
-350.493	-61.028	-0.198	0.083
-349.479	114.690	0.143	0.172
-348.464	97.442	-0.130	0.148
-347.450	-137.217	-0.054	0.006
-346.435	509.930	0.099	0.226
-345.420	-200.000	-0.055	-0.244
-344.406	229.283	-0.164	0.264
-343.391	9.214	0.154	0.115
-342.377	234.595	0.241	0.392
-341.362	-92.292	0.175	0.049
-340.348	-98.424	0.149	-0.038
-339.333	117.962	0.082	-0.100
-338.318	-136.814	0.317	-0.036
-337.304	305.598	-0.049	0.089
-336.289	222.679	0.210	-0.335
-335.275	-200.000	-0.077	-0.373
-334.260	30.337	-0.219	0.184
-333.245	19.284	-0.217	-0.172
-332.231	-139.944	-0.150	0.016
-331.216	499.778	0.039	0.090
-330.202	626.781	-0.148	-0.368
-329.187	93.600	0.084	-0.094
-328.172	-7.632	0.181	0.121
-327.158	-200.000	-0.014	-0.136
-326.143	47.003	0.231	0.212
-325.129	66.045	0.214	0.214
-324.114	147.827	0.038	0.050
-323.099	-83.717	0.246	0.078
-322.085	151.354	0.033	0.045
-321.070	-200.000	-0.028	0.169
-320.056	-200.000	0.004	0.245
-319.041	-77.748	0.176	-0.060
-318.026	71.375	0.243	-0.248
-317.012	-122.046	0.313	0.051
-315.997	800.000	0.055	0.208
-314.983	-47.753	0.324	-0.155
-313.968	96.266	-0.155	0.175
-312.953	160.966	-0.084	0.116
-311.939	-200.000	0.069	0.354
-310.924	-95.594	0.034	-0.009
-309.910	-13.853	0.173	-0.110
-308.895	-43.645	0.246	0.122
-307.880	178.978	0.164	0.237
-306.866	800.000	0.090	-0.304
-305.851	-38.789	0.175	0.091
-304.837	123.697	-0.119	0.147
-303.822	-17.822	-0.159	0.099
-302.807	-58.659	0.076	-0.033
-301.793	161.581	-0.238	0.328
-300.778	-200.000	0.044	0.203
-299.764	-32.528	-0.298	0.164
-298.749	18.471	-0.174	-0.137
-297.735	-200.000	-0.026	-0.159
-296.720	7.042	-0.151	0.111
-295.705	-78.692	-0.088	0.030
-294.691	176.711	-0.085	-0.121
-293.676	697.480	0.107	0.278
-292.662	800.000	0.073	0.213
-291.647	207.710	0.126	0.194
-290.632	-121.222	0.315	-0.052
-289.618	11.678	0.157	-0.119
-288.603	31.368	-0.106	-0.090
-287.589	46.709	0.274	-0.251
-286.574	800.000	0.075	-0.221
-285.559	-200.000	0.073	-0.506
-284.545	158.244	0.081	0.110
-283.530	-25.759	-0.094	-0.054
-282.516	800.000	-0.036	0.132
-281.501	-133.443	0.184	-0.023
-280.486	43.945	-0.192	-0.173
-279.472	66.253	-0.074	0.075
-278.457	25.148	-0.028	0.023
-277.443	40.642	0.058	0.051
-276.428	57.884	0.167	-0.161
-275.413	-0.296	-0.149	-0.105
-274.399	-130.053	-0.271	-0.036
-273.384	-27.334	0.134	-0.077
-272.370	-51.971	0.036	-0.017
-271.355	87.950	-0.072	-0.078
-270.340	-20.716	0.326	0.197
-269.326	136.366	0.230	-0.295
-268.311	-44.317	-0.431	-0.213
-267.297	421.820	-0.127	-0.267
-266.282	11.913	-0.113	0.085
-265.267	-200.000	0.011	0.265
-264.253	-74.715	-0.201	-0.071
-263.238	72.439	-0.175	0.180
-262.224	-78.012	0.247	0.084
-261.209	15.029	0.187	-0.144
-260.195	99.325	-0.081	0.092
-259.180	-96.374	-0.274	-0.071
-258.165	-35.020	0.401	0.215
-257.151	-69.015	0.146	-0.055
-256.136	290.660	0.034	0.060
-255.122	49.854	0.127	-0.118
-254.107	-58.669	0.185	-0.079
-253.092	200.093	0.113	0.171
-252.078	29.743	-0.189	0.158
-251.063	322.764	0.084	0.158
-250.049	-200.000	0.043	-0.368
-249.034	-200.000	-0.036	-0.223
-248.019	100.751	-0.257	0.294
-247.005	-84.502	0.203	0.063
-245.990	230.684	-0.165	-0.265
-244.976	-128.830	-0.148	0.021
-243.961	-138.233	0.128	-0.014
-242.946	-130.765	0.205	-0.027
-241.932	-61.224	0.322	-0.134
-240.917	800.000	-0.032	-0.109
-239.903	28.423	0.117	-0.097
-238.888	-154.112	0.164	-0.011
-237.873	-200.000	-0.013	-0.083
-236.859	-15.561	0.083	-0.052
-235.844	800.000	0.087	-0.302
-234.830	-91.750	-0.223	0.062
-233.815	-51.978	0.122	-0.056
-232.800	352.108	0.045	-0.087
-231.786	-200.000	-0.072	0.313
-230.771	-68.309	-0.163	0.062
-229.757	460.251	0.169	0.370
-228.742	-4.297	-0.239	-0.163
-227.727	-200.000	-0.002	-0.156
-226.713	-126.855	0.226	-0.033
-225.698	758.191	-0.127	-0.339
-224.684	-200.000	-0.002	-0.082
-223.669	-94.429	0.114	-0.031
-222.655	-178.449	0.139	0.003
-221.640	-154.133	-0.346	0.023
-220.625	-68.564	-0.258	-0.098
-219.611	-23.812	-0.324	0.191
-218.596	-82.704	0.078	0.025
-217.582	-200.000	0.036	-0.452
-216.567	-200.000	-0.037	-0.255
-215.552	-159.941	0.208	0.011
-214.538	741.934	-0.079	-0.208
-213.523	-111.321	-0.296	-0.059
-212.509	800.000	-0.027	-0.111
-211.494	76.612	-0.273	-0.285
-210.479	362.753	-0.135	-0.267
-209.465	0.207	0.181	0.127
-208.450	14.480	-0.210	-0.161
-207.436	-200.000	-0.005	-0.349
-206.421	-57.354	-0.131	0.057
-205.406	69.403	-0.174	0.176
-204.392	-138.099	-0.288	-0.031
-203.377	-179.188	-0.283	-0.006
-202.363	-200.000	-0.032	0.148
-201.348	-78.879	-0.176	0.059
-200.333	8.514	0.275	0.203
-199.319	101.725	0.250	0.286
-198.304	-71.509	-0.100	0.037
-197.290	-200.000	0.043	-0.367
-196.275	-57.537	0.042	-0.018
-195.260	800.000	0.060	0.221
-194.246	-157.894	-0.305	0.018
-193.231	-200.000	0.028	-0.339
-192.217	75.102	0.159	-0.165
-191.202	-194.622	0.254	0.002
-190.187	14.145	0.222	0.170
-189.173	18.732	-0.200	0.157
-188.158	-200.000	0.008	0.045
-187.144	144.137	0.137	-0.179
-186.129	-194.474	-0.271	0.002
-185.114	393.653	-0.154	-0.315
-184.100	388.519	0.150	0.304
-183.085	571.119	0.047	0.113
-182.071	223.542	-0.084	-0.133
-181.056	676.276	0.082	0.209
-180.042	-200.000	-0.016	0.091
-179.027	800.000	0.058	0.198
-178.012	-148.868	-0.102	0.008
-176.998	-128.334	0.247	0.034
-175.983	-67.489	0.219	-0.085
-174.969	-57.241	0.206	-0.089
-173.954	351.213	0.151	0.293
-172.939	-105.474	0.285	-0.064
-171.925	133.657	-0.012	-0.016
-170.910	-200.000	0.042	0.300
-169.896	67.564	-0.047	-0.047
-168.881	-71.837	0.255	0.093
-167.866	75.387	0.203	0.211
-166.852	-200.000	0.020	0.130
-165.837	44.146	-0.035	-0.031
-164.823	-123.031	0.043	-0.007
-163.808	63.576	0.062	-0.061
-162.793	-200.000	0.039	0.200
-161.779	14.088	0.130	0.099
-160.764	-11.577	0.516	0.333
-159.750	-196.973	0.225	-0.001
-158.735	-61.782	0.301	0.123
-157.720	-171.876	-0.133	-0.004
-156.706	-32.991	-0.096	-0.052
-155.691	-111.036	-0.110	0.022
-154.677	-92.171	0.116	-0.032
-153.662	-88.193	0.255	-0.075
-152.647	-131.802	-0.323	-0.041
-151.633	101.518	0.044	-0.051
-150.618	239.417	-0.030	0.049
-149.604	-25.492	0.112	0.065
-148.589	-80.754	-0.250	0.081
-147.574	42.541	0.122	0.109
-146.560	190.274	-0.093	-0.136
-145.545	-200.000	0.027	0.175
-144.531	-200.000	-0.013	-0.136
-143.516	121.931	-0.068	-0.083
-142.502	-151.818	-0.222	-0.016
-141.487	-200.000	0.004	-0.347
-140.472	-200.000	-0.047	-0.358
-139.458	28.486	-0.174	-0.144
-138.443	8.218	-0.041	-0.030
-137.429	105.337	-0.230	0.267
-136.414	13.096	0.070	-0.053
-135.399	17.570	0.219	0.171
-134.385	207.912	-0.050	0.076
-133.370	-20.666	-0.252	0.152
-132.356	-120.472	-0.258	0.043
-131.341	293.499	0.112	0.200
-130.326	-175.315	0.200	0.005
-129.312	12.246	-0.071	0.054
-128.297	-163.377	-0.182	0.008
-127.283	-180.640	0.172	0.003
-126.268	-200.000	-0.035	0.273
-125.253	756.816	0.051	-0.135
-124.239	-87.819	-0.205	0.061
-123.224	-200.000	-0.011	-0.062
-122.210	-200.000	-0.043	-0.224
-121.195	-153.071	-0.180	-0.012
-120.180	-129.895	-0.080	0.011
-119.166	800.000	0.066	-0.224
-118.151	569.259	-0.097	0.230
-117.137	276.038	-0.121	0.210
-116.122	-147.573	0.242	0.020
-115.107	106.894	-0.282	0.328
-114.093	-144.794	0.026	-0.002
-113.078	112.236	0.121	0.143
-112.064	3.706	0.191	0.137
-111.049	800.000	0.061	-0.252
-110.034	128.889	0.132	0.165
-109.020	-32.022	0.281	-0.154
-108.005	-200.000	0.030	-0.305
-106.991	-99.955	0.089	0.022
-105.976	-200.000	0.032	-0.249
-104.962	-200.000	0.016	-0.400
-103.947	258.516	0.068	0.115
-102.932	40.842	0.183	-0.162
-101.918	34.139	-0.234	-0.200
-100.903	-65.979	0.082	0.032
-99.889	125.785	0.134	0.166
-98.874	211.856	-0.203	0.313
-97.859	-29.982	-0.216	-0.120
-96.845	-200.000	0.002	-0.144
-95.830	94.083	-0.170	-0.188
-94.816	-200.000	0.027	0.163
-93.801	46.733	-0.109	-0.099
-92.786	-72.947	-0.242	-0.087
-91.772	-36.699	0.120	-0.063
-90.757	800.000	0.059	0.177
-89.743	2.267	-0.166	-0.117
-88.728	-49.361	0.406	0.190
-87.713	553.145	0.077	0.181
-86.699	79.614	-0.165	0.173
-85.684	-62.789	-0.207	0.084
-84.670	50.847	-0.108	0.100
-83.655	-103.898	-0.156	-0.036
-82.640	23.202	0.219	-0.176
-81.626	-200.000	-0.022	-0.100
-80.611	-200.000	-0.085	0.379
-79.597	-139.189	0.235	0.025
-78.582	58.186	-0.083	-0.079
-77.567	144.443	0.170	-0.222
-76.553	-18.501	0.265	0.162
-75.538	-122.006	-0.138	0.022
-74.524	-146.985	-0.096	0.008
-73.509	161.695	-0.130	0.178
-72.494	-164.940	0.304	0.013
-71.480	-2.075	-0.106	0.073
-70.465	-41.368	0.405	0.204
-69.451	-150.928	0.278	0.021
-68.436	-128.657	-0.051	-0.007
-67.422	800.000	-0.021	-0.082
-66.407	356.174	-0.153	-0.297
-65.392	-62.361	-0.299	0.122
-64.378	800.000	0.102	0.339
-63.363	48.281	-0.200	-0.183
-62.349	800.000	0.046	-0.158
-61.334	0.290	-1.281	-0.894
-60.319	-27.047	0.716	0.408
-59.305	-200.000	-0.114	-0.743
-58.290	451.264	0.444	0.958
-57.276	-200.000	0.114	1.147
-56.261	-200.000	115.627	643.135
-55.246	509.691	1529.269	3472.558
-54.232	176.420	2706.903	3841.924
-53.217	99.314	2286.146	2581.833
-52.203	35.711	1895.977	1627.391
-51.188	29.843	1689.896	1406.005
-50.173	27.397	1649.121	1353.863
-49.159	47.413	1705.743	1552.354
-48.144	46.144	1719.393	1555.118
-47.130	29.392	1676.941	1391.607
-46.115	26.791	1662.660	1360.216
-45.100	26.653	1657.657	1355.034
-44.086	26.553	1655.524	1352.490
-43.071	26.576	1652.570	1350.197
-42.057	26.401	1650.640	1347.261
-41.042	26.531	1648.530	1346.453
-40.027	26.598	1646.764	1345.457
-39.013	26.576	1644.362	1343.276
-37.998	26.486	1643.025	1341.463
-36.984	26.624	1641.324	1341.043
-35.969	26.729	1640.011	1340.698
-34.954	26.681	1638.189	1338.796
-33.940	26.767	1636.695	1338.162
-32.925	26.691	1635.222	1336.339
-31.911	26.727	1633.124	1334.842
-30.896	26.707	1631.973	1333.694
-29.881	26.671	1630.534	1332.206
-28.867	26.738	1628.632	1331.089
-27.852	26.705	1627.110	1329.549
-26.838	26.716	1625.728	1328.447
-25.823	26.701	1624.384	1327.188
-24.809	26.799	1622.772	1326.534
-23.794	26.752	1621.359	1324.986
-22.779	26.791	1620.184	1324.258
-21.765	26.672	1618.790	1322.197
-20.750	26.640	1617.137	1320.558
-19.736	26.697	1615.572	1319.643
-18.721	26.802	1614.059	1319.118
-17.706	26.818	1612.587	1317.980
-16.692	26.707	1611.116	1315.921
-15.677	26.760	1609.806	1315.186
-14.663	26.749	1608.844	1314.263
-13.648	26.728	1607.190	1312.709
-12.633	26.797	1605.073	1311.429
-11.619	26.754	1603.569	1309.840
-10.604	26.680	1602.383	1308.283
-9.590	26.957	1600.816	1308.950
-8.575	26.843	1599.432	1306.945
-7.560	26.800	1598.404	1305.741
-6.546	26.698	1597.612	1304.305
-5.531	26.714	1596.303	1303.302
-4.517	26.732	1595.312	1302.569
-3.502	26.659	1594.451	1301.295
-2.487	26.812	1592.426	1300.683
-1.473	26.433	1580.400	1288.115
-0.458	23.477	1560.702	1251.184
0.556	20.749	1562.399	1219.002
1.571	18.439	1586.729	1221.421
2.586	18.039	1599.251	1228.081
3.600	15.857	1544.405	1170.702
4.615	9.363	1437.651	1047.511
5.629	4.063	1378.645	971.260
6.644	3.221	1371.660	960.998
7.659	3.194	1370.727	960.087
8.673	3.140	1369.874	959.068
9.688	3.156	1367.996	957.769
10.702	3.215	1364.434	955.558
11.717	5.700	1369.245	974.308
12.731	12.948	1382.247	1028.824
13.746	19.112	1392.341	1074.853
14.761	20.497	1393.839	1084.566
15.775	19.837	1392.081	1078.988
16.790	18.847	1389.454	1070.691
17.804	18.060	1387.107	1063.892
18.819	17.750	1385.672	1060.767
19.834	17.662	1384.805	1059.464
20.848	17.478	1383.738	1057.407
21.863	17.290	1382.059	1054.869
22.877	17.103	1381.170	1052.938
23.892	17.125	1379.963	1052.060
24.907	17.063	1379.589	1051.298
25.921	17.085	1378.772	1050.714
26.936	17.187	1377.717	1050.449
27.950	17.143	1376.537	1049.187
28.965	17.228	1375.450	1048.789
29.980	17.381	1374.167	1048.664
30.994	17.425	1373.395	1048.253
32.009	17.508	1372.346	1047.868
33.023	17.428	1371.331	1046.507
34.038	17.429	1369.760	1045.226
35.053	17.309	1368.124	1043.145
36.067	17.159	1367.549	1041.695
37.082	17.270	1366.491	1041.477
38.096	17.350	1365.765	1041.323
39.111	17.363	1364.626	1040.439
40.126	17.264	1363.604	1038.966
41.140	17.023	1362.706	1036.717
42.155	16.911	1362.086	1035.469
43.169	16.858	1361.900	1034.911
44.184	16.914	1361.519	1034.875
45.199	16.799	1361.333	1033.936
46.213	16.974	1360.954	1034.623
47.228	17.238	1359.911	1035.351
48.242	17.183	1358.614	1033.935
49.257	17.198	1357.297	1032.935
50.271	17.131	1355.817	1031.309
51.286	17.282	1354.009	1030.760
52.301	17.217	1353.266	1029.710
53.315	17.001	1352.514	1027.737
54.330	17.055	1351.019	1026.834
55.344	16.915	1349.963	1025.095
56.359	16.991	1348.867	1024.635
57.374	16.877	1348.462	1023.543
58.388	16.815	1347.419	1022.291
59.403	16.795	1346.958	1021.727
60.417	16.823	1346.163	1021.206
61.432	16.786	1345.089	1020.075
62.447	16.738	1344.441	1019.205
63.461	16.644	1342.803	1017.310
64.476	16.692	1341.526	1016.537
65.490	16.698	1340.231	1015.506
66.505	16.817	1338.675	1014.946
67.520	16.764	1337.779	1013.861
68.534	16.675	1336.689	1012.413
69.549	16.742	1335.706	1011.978
70.563	16.703	1334.678	1010.879
71.578	16.661	1333.400	1009.570
72.593	16.645	1332.739	1008.884
73.607	16.528	1332.066	1007.593
74.622	16.671	1330.952	1007.510
75.636	16.537	1331.083	1006.724
76.651	16.741	1329.735	1006.826
77.666	16.694	1329.339	1006.160
78.680	16.718	1329.412	1006.265
79.695	16.796	1328.233	1005.747
80.709	16.875	1327.634	1005.674
81.724	16.869	1326.795	1004.915
82.739	16.930	1326.199	1004.735
83.753	17.097	1325.572	1005.159
84.768	17.179	1324.705	1004.900
85.782	17.366	1322.885	1004.532
86.797	17.288	1321.852	1003.203
87.812	17.183	1320.751	1001.655
88.826	17.181	1319.613	1000.696
89.841	17.181	1318.987	1000.133
90.855	17.289	1317.644	999.660
91.870	17.393	1316.884	999.604
92.884	17.378	1316.093	998.826
93.899	17.391	1315.134	998.088
94.914	17.369	1314.759	997.588
95.928	17.410	1313.715	996.948
96.943	17.400	1312.614	995.960
97.957	17.433	1311.458	995.189
98.972	17.305	1310.932	993.956
99.987	17.207	1310.336	992.845
101.001	17.341	1308.402	992.075
102.016	17.349	1307.933	991.678
103.030	17.344	1307.028	990.870
104.045	17.296	1305.869	989.627
105.060	17.173	1304.267	987.610
106.074	16.961	1303.201	985.483
107.089	16.877	1301.277	983.454
108.103	16.755	1300.214	981.855
109.118	16.860	1299.199	981.613
110.133	16.844	1297.529	980.170
111.147	16.759	1296.269	978.638
112.162	16.844	1295.141	978.193
113.176	16.909	1293.968	977.595
114.191	16.869	1293.812	977.161
115.206	16.979	1291.855	976.232
116.220	17.031	1290.608	975.500
117.235	16.830	1289.840	973.675
118.249	16.855	1288.943	973.059
119.264	16.834	1287.561	971.806
120.279	16.722	1286.120	969.993
121.293	16.675	1285.313	969.028
122.308	16.837	1283.834	968.757
123.322	16.615	1283.040	966.801
124.337	16.529	1282.326	965.689
125.352	16.636	1280.756	965.032
126.366	16.644	1280.013	964.431
127.381	16.674	1278.893	963.672
128.395	16.624	1277.846	962.514
129.410	16.674	1277.032	962.100
130.424	16.854	1275.984	962.248
131.439	16.743	1275.238	960.969
132.454	16.839	1274.936	961.200
133.468	16.924	1273.316	960.376
134.483	16.831	1272.705	959.306
135.497	16.930	1271.956	959.216
136.512	16.864	1271.110	958.120
137.527	16.957	1269.131	957.068
138.541	17.062	1267.725	956.515
139.556	17.111	1266.327	955.651
140.570	17.143	1265.785	955.338
141.585	17.138	1264.944	954.589
142.600	17.267	1263.575	954.196
143.614	17.300	1262.773	953.692
144.629	17.377	1261.737	953.256
145.643	17.281	1260.937	952.031
146.658	17.265	1259.456	950.740
147.673	17.102	1257.965	948.615
148.687	17.070	1256.689	947.391
149.702	16.962	1255.317	945.673
150.716	16.860	1254.203	944.179
151.731	17.002	1252.703	943.759
152.746	16.970	1252.263	943.163
153.760	17.047	1250.910	942.492
154.775	17.114	1249.602	941.794
155.789	17.302	1248.679	942.056
156.804	17.230	1248.057	941.104
157.819	17.222	1247.340	940.435
158.833	17.396	1246.018	940.321
159.848	17.503	1245.303	940.286
160.862	17.349	1244.390	938.664
161.877	17.245	1242.996	936.955
162.892	17.030	1241.872	934.844
163.906	17.122	1240.723	934.401
164.921	17.171	1240.035	934.069
165.935	17.148	1239.060	933.126
166.950	17.187	1238.387	932.747
167.964	17.224	1237.413	932.136
168.979	17.083	1237.251	931.157
169.994	17.267	1235.879	931.051
171.008	17.213	1235.737	930.567
172.023	17.270	1235.052	930.282
173.037	17.447	1233.907	930.303
174.052	17.348	1233.238	929.177
175.067	17.211	1232.023	927.430
176.081	17.046	1230.935	925.629
177.096	17.109	1230.015	925.197
178.110	17.215	1228.643	924.664
179.125	17.191	1227.679	923.723
180.140	17.357	1226.273	923.486
181.154	17.329	1225.418	922.610
182.169	17.416	1223.777	921.760
183.183	17.464	1223.396	921.656
184.198	17.491	1221.807	920.523
185.213	17.529	1221.417	920.353
186.227	17.507	1220.123	919.177
187.242	17.542	1218.772	918.264
188.256	17.662	1217.884	918.164
189.271	17.618	1217.227	917.349
190.286	17.458	1215.938	915.437
191.300	17.073	1215.068	912.630
192.315	17.010	1214.315	911.646
193.329	17.094	1213.874	911.685
194.344	17.187	1213.442	911.781
195.359	17.270	1212.802	911.663
196.373	17.390	1212.325	911.869
197.388	17.413	1212.369	911.945
198.402	17.767	1211.710	913.264
199.417	17.792	1210.873	912.686
200.432	17.770	1210.585	912.268
201.446	17.840	1209.848	912.005
202.461	17.840	1208.919	911.226
203.475	17.868	1208.003	910.603
204.490	17.821	1206.089	908.830
205.504	17.702	1205.225	907.465
206.519	17.703	1203.700	906.243
207.534	17.542	1202.996	904.777
208.548	17.579	1202.215	904.304
209.563	17.694	1201.300	904.149
210.577	17.686	1199.623	902.764
211.592	17.765	1199.242	902.815
212.607	17.964	1198.277	903.063
213.621	17.847	1197.464	901.750
214.636	17.948	1196.491	901.469
215.650	17.785	1196.226	900.331
216.665	17.900	1195.035	899.962
217.680	17.993	1194.382	899.881
218.694	18.060	1193.554	899.530
219.709	17.952	1192.644	898.195
220.723	17.939	1191.974	897.544
221.738	17.843	1191.253	896.418
222.753	17.882	1190.189	895.742
223.767	18.044	1189.506	895.995
224.782	18.170	1188.964	896.171
225.796	18.094	1188.564	895.392
226.811	18.302	1187.395	895.518
227.826	18.000	1186.748	893.374
228.840	17.995	1186.373	892.987
229.855	17.897	1185.764	891.934
230.869	17.992	1184.770	891.605
231.884	17.998	1183.776	890.808
232.899	17.855	1183.058	889.444
233.913	17.832	1182.191	888.596
234.928	17.694	1181.525	887.300
235.942	17.792	1180.520	886.976
236.957	17.814	1179.881	886.528
237.972	17.868	1179.157	886.188
238.986	17.870	1178.477	885.609
240.001	17.861	1178.016	885.138
241.015	17.924	1176.907	884.553
242.030	17.943	1176.396	884.190
243.045	18.104	1175.313	884.127
244.059	18.057	1174.242	883.003
245.074	18.095	1174.115	883.024
246.088	18.226	1172.948	882.745
247.103	18.248	1172.449	882.404
248.117	18.214	1171.879	881.721
249.132	18.475	1170.915	882.263
250.147	18.589	1170.722	882.624
251.161	18.705	1169.583	882.284
252.176	18.706	1168.994	881.769
253.190	18.812	1168.389	881.778
254.205	18.738	1168.289	881.246
255.220	18.765	1167.714	880.873
256.234	18.731	1167.096	880.153
257.249	18.713	1166.189	879.298
258.263	18.787	1165.508	879.088
259.278	18.795	1164.450	878.251
260.293	18.739	1164.222	877.718
261.307	18.935	1163.202	877.872
262.322	18.811	1163.480	877.369
263.336	18.857	1162.543	876.821
264.351	18.938	1161.921	876.684
265.366	18.918	1160.937	875.762
266.380	18.913	1160.312	875.189
267.395	18.767	1159.575	873.812
268.409	18.825	1158.425	873.161
269.424	18.710	1157.900	872.106
270.439	18.795	1157.473	872.142
271.453	18.786	1156.504	871.286
272.468	18.769	1155.472	870.345
273.482	18.728	1154.469	869.306
274.497	18.737	1153.771	868.746
275.512	18.685	1153.794	868.427
276.526	18.805	1152.495	867.976
277.541	18.691	1151.920	866.890
278.555	18.851	1151.378	867.216
279.570	18.891	1150.772	866.882
280.585	18.903	1150.077	866.343
281.599	19.067	1148.919	866.222
282.614	18.874	1148.045	864.514
283.628	18.832	1146.729	863.237
284.643	18.922	1145.685	862.823
285.657	18.889	1144.897	861.991
286.672	18.820	1143.986	860.883
287.687	18.897	1143.204	860.603
288.701	18.995	1142.401	860.412
289.716	18.837	1141.624	858.964
290.730	18.907	1141.154	858.879
291.745	18.894	1140.308	858.104
292.760	18.982	1139.444	857.819
293.774	19.167	1138.719	858.116
294.789	19.114	1138.831	857.861
295.803	19.083	1138.159	857.125
296.818	19.092	1136.867	856.121
297.833	19.045	1135.976	855.140
298.847	18.970	1135.139	854.063
299.862	19.012	1134.581	853.776
300.876	19.045	1134.275	853.633
301.891	19.104	1133.535	853.293
302.906	19.198	1132.742	853.088
303.920	19.305	1131.994	852.976
304.935	19.451	1131.481	853.236
305.949	19.538	1131.077	853.284
306.964	19.431	1130.410	852.181
307.979	19.370	1129.386	851.033
308.993	19.240	1128.819	849.886
310.008	19.466	1127.474	849.913
311.022	19.479	1127.369	849.820
312.037	19.377	1126.493	848.586
313.052	19.334	1125.193	847.319
314.066	19.137	1124.126	845.473
315.081	19.046	1123.003	844.108
316.095	19.247	1121.935	844.215
317.110	19.084	1121.944	843.350
318.125	19.161	1120.907	842.874
319.139	19.236	1120.637	842.962
320.154	19.169	1119.813	841.937
321.168	19.212	1119.260	841.657
322.183	19.201	1118.729	841.133
323.197	19.222	1118.323	840.853
324.212	19.192	1117.687	840.156
325.227	19.264	1116.657	839.658
326.241	19.312	1116.595	839.771
327.256	19.212	1115.425	838.331
328.270	19.181	1114.936	837.738
329.285	19.239	1113.456	836.832
330.300	19.209	1112.624	835.990
331.314	19.232	1111.824	835.425
332.329	19.225	1110.891	834.614
333.343	19.213	1110.609	834.271
334.358	19.456	1109.326	834.409
335.373	19.551	1108.363	834.071
336.387	19.474	1108.011	833.361
337.402	19.600	1107.165	833.255
338.416	19.630	1106.423	832.769
339.431	19.628	1106.333	832.618
340.446	19.653	1105.631	832.140
341.460	19.919	1104.648	832.606
342.475	19.864	1104.248	831.964
343.489	19.918	1103.382	831.497
344.504	20.015	1102.110	830.932
345.519	20.026	1101.578	830.506
346.533	19.994	1100.707	829.627
347.548	20.042	1099.866	829.146
348.562	20.078	1098.913	828.527
349.577	19.988	1097.934	827.287
350.592	19.650	1097.759	825.468
351.606	19.863	1096.370	825.364
352.621	19.518	1096.310	823.600
353.635	19.523	1095.353	822.836
354.650	19.621	1094.502	822.586
355.665	19.680	1093.810	822.276
356.679	19.877	1093.095	822.601
357.694	19.736	1092.929	821.736
358.708	19.828	1092.177	821.534
359.723	19.877	1091.628	821.281
360.738	19.899	1091.046	820.873
361.752	19.956	1089.942	820.241
362.767	19.962	1089.563	819.910
363.781	19.961	1089.359	819.682
364.796	20.001	1088.712	819.313
365.810	20.088	1088.361	819.387
366.825	20.244	1087.769	819.606
367.840	20.272	1087.302	819.312
368.854	20.384	1086.315	819.025
369.869	20.327	1085.865	818.345
370.883	20.304	1084.766	817.334
371.898	20.072	1084.299	815.820
372.913	20.092	1083.911	815.547
373.927	20.224	1083.360	815.684
374.942	20.344	1082.433	815.477
375.956	20.270	1082.267	814.931
376.971	20.216	1081.602	814.105
377.986	20.345	1080.866	814.083
379.000	20.464	1080.220	814.082
380.015	20.509	1079.897	813.980
381.029	20.618	1078.987	813.733
382.044	20.394	1078.784	812.455
383.059	20.616	1077.457	812.422
384.073	20.531	1076.744	811.418
385.088	20.455	1075.708	810.209
386.102	20.543	1074.983	810.001
387.117	20.470	1073.942	808.809
388.132	20.322	1072.903	807.266
389.146	20.271	1072.355	806.542
390.161	20.303	1071.520	805.995
391.175	20.390	1070.869	805.836
392.190	20.356	1070.549	805.366
393.205	20.504	1069.649	805.305
394.219	20.502	1068.816	804.597
395.234	20.412	1067.714	803.281
396.248	20.372	1066.599	802.184
397.263	20.357	1065.779	801.427
398.278	20.230	1065.155	800.302
399.292	20.252	1064.136	799.565
400.307	20.281	1063.231	798.950
401.321	20.282	1062.964	798.681
402.336	20.226	1062.388	797.921
403.350	20.294	1061.566	797.546
404.365	20.350	1061.183	797.444
405.380	20.503	1059.906	797.114
406.394	20.432	1059.476	796.398
407.409	20.607	1058.988	796.763
408.423	20.600	1058.317	796.155
409.438	20.767	1057.484	796.222
410.453	20.804	1056.784	795.793
411.467	20.881	1055.923	795.422
412.482	20.818	1055.923	795.069
413.496	20.919	1054.986	794.751
414.511	20.830	1054.301	793.761
415.526	21.087	1053.692	794.400
416.540	21.091	1053.622	794.299
417.555	21.031	1052.833	793.360
418.569	20.971	1052.375	792.672
419.584	20.875	1051.997	791.880
420.599	20.921	1051.850	791.908
421.613	155.545	1404.943	1796.697
422.628	142.679	1456.369	1796.778
