DTS Sentinel unit serial number:	SN413079Multiplexer serial number:	ORYXHardware model number:	OX4-SRSoftware version number:	ORYX F/W v4.00 Oryx Data Collector v3.7.2.0data status	okinstallation	princeton_trtdifferential loss correction	single-endedforward channel	channel 2reverse channel	N/Adate	2019/09/14time	22:15:34forward acquisition time	60.00reverse acquisition time	0.00gamma	496.2192k internal	0.2323k external	0.2323temperature offset calibration	1.0063default loss term (dB/km)	0.3790temperature slope calibration	1.0000multiplexer offset coefficient	1.0000multiplexer slope coefficient	1.0000fibre end	0.00T internal ref (°C)	32.62T ext. ref 1 (°C)	4.70T ext. ref 2 (°C)	27.62length (m)	temperature (°C)	Stokes	anti-Stokes-747.200	-31.941	0.151	0.085
-746.185	-200.000	0.027	0.283
-745.171	115.742	-0.210	0.259
-744.156	-8.436	-0.129	0.088
-743.142	-200.000	-0.023	-0.292
-742.127	208.337	-0.142	0.225
-741.112	106.666	0.188	0.225
-740.098	-200.000	0.040	0.258
-739.083	-200.000	0.017	0.229
-738.069	800.000	-0.038	0.159
-737.054	-118.861	0.464	-0.082
-736.039	800.000	0.041	-0.121
-735.025	-39.453	0.431	0.228
-734.010	181.767	-0.215	-0.320
-732.996	241.098	-0.126	-0.212
-731.981	734.590	-0.096	0.260
-730.966	-189.718	-0.086	-0.001
-729.952	42.724	-0.234	0.215
-728.937	-54.897	-0.253	-0.115
-727.923	-77.097	-0.152	0.053
-726.908	115.553	0.100	0.123
-725.894	-200.000	0.019	-0.292
-724.879	800.000	-0.085	-0.262
-723.864	-200.000	-0.024	-0.144
-722.850	-200.000	0.016	-0.257
-721.835	-200.000	-0.024	-0.230
-720.821	-34.627	-0.338	-0.186
-719.806	-127.368	-0.132	-0.019
-718.791	-200.000	-0.007	-0.247
-717.777	-200.000	-0.011	0.197
-716.762	-200.000	-0.005	0.088
-715.748	127.165	-0.133	0.170
-714.733	32.250	0.144	0.126
-713.718	-42.913	0.263	0.134
-712.704	-83.488	-0.144	0.047
-711.689	800.000	-0.097	-0.280
-710.675	78.108	0.094	-0.101
-709.660	90.571	0.138	0.156
-708.645	759.149	-0.096	-0.263
-707.631	-86.830	0.257	0.079
-706.616	-200.000	0.015	-0.123
-705.602	-180.318	0.269	-0.006
-704.587	-125.463	-0.254	0.039
-703.572	45.899	0.160	-0.149
-702.558	419.436	0.046	0.100
-701.543	-145.415	0.178	0.016
-700.529	-91.719	-0.205	-0.059
-699.514	800.000	-0.065	0.208
-698.499	-74.665	-0.199	-0.072
-697.485	339.506	-0.020	0.039
-696.470	614.159	-0.083	0.209
-695.456	-103.379	-0.475	0.113
-694.441	682.791	0.032	0.084
-693.426	34.715	0.270	-0.238
-692.412	-162.155	0.204	0.010
-691.397	-200.000	-0.036	-0.344
-690.383	-176.117	-0.086	0.002
-689.368	800.000	-0.142	0.426
-688.354	55.412	0.173	0.169
-687.339	-42.801	-0.179	0.092
-686.324	98.720	-0.286	0.332
-685.310	-200.000	0.036	-0.597
-684.295	104.999	0.129	-0.154
-683.281	-147.080	-0.403	-0.035
-682.266	235.540	-0.138	0.229
-681.251	-77.645	-0.201	-0.070
-680.237	-200.000	0.045	-0.204
-679.222	-118.296	-0.205	0.037
-678.208	500.144	-0.097	-0.226
-677.193	-11.167	-0.139	-0.093
-676.178	89.828	0.144	-0.162
-675.164	-68.452	-0.243	0.095
-674.149	-112.728	-0.212	-0.042
-673.135	191.341	0.038	0.058
-672.120	194.867	-0.242	-0.370
-671.105	-200.000	-0.026	-0.201
-670.091	787.751	-0.169	-0.466
-669.076	-200.000	-0.003	-0.328
-668.062	458.175	0.106	-0.238
-667.047	88.585	-0.277	0.310
-666.032	-164.116	-0.224	0.010
-665.018	-68.880	-0.146	-0.057
-664.003	-118.854	-0.194	0.034
-662.989	-61.639	0.390	0.165
-661.974	6.751	-0.085	0.063
-660.959	-200.000	0.036	-0.197
-659.945	-86.517	0.156	-0.048
-658.930	-130.183	-0.188	0.026
-657.916	66.077	-0.120	-0.123
-656.901	-32.463	0.153	0.086
-655.886	86.396	-0.187	0.208
-654.872	-200.000	-0.003	-0.016
-653.857	89.939	-0.077	-0.086
-652.843	-140.048	0.203	0.021
-651.828	24.027	0.194	0.161
-650.814	140.882	0.244	0.325
-649.799	-39.297	0.055	-0.029
-648.784	86.705	0.113	0.126
-647.770	-8.280	-0.048	-0.033
-646.755	-94.055	0.169	0.047
-645.741	297.617	0.037	0.068
-644.726	-200.000	-0.002	0.067
-643.711	-176.763	-0.170	0.004
-642.697	202.525	-0.115	-0.179
-641.682	162.436	0.076	-0.107
-640.668	110.492	0.047	-0.056
-639.653	-15.798	-0.189	0.121
-638.638	701.358	0.063	0.167
-637.624	408.161	-0.073	-0.156
-636.609	125.517	0.045	-0.058
-635.595	-85.027	0.170	0.053
-634.580	242.158	0.033	-0.055
-633.565	800.000	-0.080	0.283
-632.551	800.000	-0.104	0.432
-631.536	-58.539	0.126	0.055
-630.522	-200.000	-0.049	0.256
-629.507	-200.000	-0.037	0.351
-628.492	-200.000	-0.052	-0.279
-627.478	-36.013	-0.079	0.043
-626.463	194.317	-0.037	-0.057
-625.449	148.502	0.108	0.147
-624.434	-65.327	0.175	0.071
-623.419	-200.000	0.012	-0.094
-622.405	-92.317	-0.355	-0.101
-621.390	-119.915	-0.360	-0.062
-620.376	-129.575	0.107	-0.015
-619.361	-200.000	0.003	-0.212
-618.346	189.491	-0.293	-0.442
-617.332	800.000	-0.041	-0.156
-616.317	-117.237	0.186	0.034
-615.303	-46.754	-0.233	0.115
-614.288	68.043	-0.211	-0.217
-613.273	152.540	-0.120	-0.165
-612.259	84.683	-0.078	0.086
-611.244	-197.181	-0.216	0.001
-610.230	-2.707	-0.175	-0.123
-609.215	269.018	0.338	-0.596
-608.201	800.000	-0.051	0.164
-607.186	800.000	0.026	0.086
-606.171	-18.958	-0.158	-0.099
-605.157	197.637	-0.139	0.213
-604.142	-200.000	0.008	-0.111
-603.128	-200.000	-0.023	0.387
-602.113	66.139	0.120	-0.122
-601.098	-200.000	0.010	-0.190
-600.084	268.783	-0.116	-0.205
-599.069	65.231	-0.120	-0.121
-598.055	-72.194	-0.196	0.073
-597.040	84.127	-0.191	0.210
-596.025	146.577	-0.207	0.280
-595.011	-39.775	0.262	0.137
-593.996	-7.955	-0.041	0.028
-592.982	370.159	0.063	0.128
-591.967	-109.810	-0.324	-0.068
-590.952	-200.000	0.023	-0.184
-589.938	-161.285	0.560	0.029
-588.923	-175.224	0.186	-0.005
-587.909	-111.631	0.209	0.043
-586.894	257.061	0.116	-0.200
-585.879	-200.000	-0.047	0.284
-584.865	91.809	-0.016	0.018
-583.850	194.980	0.176	0.268
-582.836	524.674	-0.080	0.188
-581.821	-60.137	-0.089	0.038
-580.806	103.981	0.094	0.111
-579.792	-143.729	0.109	0.010
-578.777	46.043	-0.029	0.027
-577.763	-22.363	-0.298	-0.181
-576.748	-50.674	-0.344	0.162
-575.733	-200.000	0.035	0.227
-574.719	51.382	-0.128	-0.122
-573.704	-23.273	-0.050	-0.030
-572.690	800.000	-0.064	-0.231
-571.675	-67.148	-0.073	0.029
-570.661	74.396	0.130	-0.137
-569.646	115.265	-0.062	-0.076
-568.631	-107.744	-0.257	-0.056
-567.617	-101.508	0.416	0.101
-566.602	50.565	-0.309	-0.293
-565.588	28.919	0.190	-0.162
-564.573	-45.555	0.082	0.041
-563.558	1.395	0.159	-0.115
-562.544	484.265	0.133	-0.302
-561.529	22.173	0.181	0.148
-560.515	-129.553	-0.158	0.022
-559.500	-200.000	-0.001	-0.223
-558.485	107.340	0.178	0.212
-557.471	61.184	-0.136	-0.135
-556.456	-3.386	0.244	0.170
-555.442	-99.516	-0.627	-0.158
-554.427	-111.458	-0.043	-0.009
-553.412	800.000	-0.017	0.064
-552.398	-200.000	-0.024	0.205
-551.383	152.804	-0.073	-0.100
-550.369	-200.000	-0.076	-0.419
-549.354	0.364	-0.338	0.242
-548.339	42.396	0.108	-0.099
-547.325	9.617	0.441	-0.335
-546.310	105.739	0.315	0.373
-545.296	301.001	0.138	-0.256
-544.281	-36.850	0.171	-0.092
-543.266	-125.191	0.109	0.017
-542.252	243.159	-0.132	-0.221
-541.237	-52.764	-0.251	0.116
-540.223	421.748	0.104	-0.224
-539.208	85.556	0.134	-0.147
-538.193	-200.000	-0.293	-0.000
-537.179	141.967	0.011	-0.015
-536.164	-124.479	0.212	-0.033
-535.150	334.570	0.146	0.284
-534.135	-126.686	-0.319	0.047
-533.121	-77.166	0.229	-0.080
-532.106	-200.000	-0.002	0.064
-531.091	467.578	0.086	-0.194
-530.077	76.871	-0.101	0.107
-529.062	-141.031	-0.472	0.048
-528.048	194.956	0.182	-0.277
-527.033	-18.244	0.247	-0.154
-526.018	72.723	-0.110	-0.115
-525.004	250.054	-0.100	-0.169
-523.989	28.699	-0.111	-0.094
-522.975	-133.861	-0.198	-0.025
-521.960	330.120	-0.113	0.217
-520.945	-200.000	-0.006	0.191
-519.931	-49.736	0.212	-0.101
-518.916	-72.254	0.074	-0.027
-517.902	68.090	-0.098	-0.101
-516.887	800.000	0.034	0.098
-515.872	-200.000	-0.018	0.090
-514.858	800.000	0.072	0.220
-513.843	330.249	-0.120	-0.231
-512.829	-196.497	0.115	-0.001
-511.814	-123.551	0.037	-0.006
-510.799	158.321	-0.137	0.191
-509.785	-200.000	-0.008	0.198
-508.770	-200.000	-0.012	-0.062
-507.756	158.250	0.212	0.294
-506.741	-200.000	0.013	0.208
-505.726	-200.000	0.007	0.083
-504.712	-200.000	0.014	0.276
-503.697	-50.758	-0.139	-0.066
-502.683	-157.568	0.264	0.016
-501.668	-3.250	-0.046	0.032
-500.653	-200.000	-0.005	0.227
-499.639	-200.000	0.041	-0.292
-498.624	206.646	0.122	-0.190
-497.610	-84.859	-0.295	-0.093
-496.595	14.288	-0.051	0.040
-495.581	258.988	-0.161	-0.277
-494.566	800.000	-0.037	-0.119
-493.551	800.000	-0.068	-0.192
-492.537	-61.124	-0.299	0.126
-491.522	412.361	0.057	-0.121
-490.508	-200.000	-0.042	0.241
-489.493	-27.754	0.177	-0.103
-488.478	141.035	0.090	0.119
-487.464	5.863	-0.210	-0.155
-486.449	-200.000	0.043	-0.253
-485.435	-200.000	0.008	0.269
-484.420	-117.498	-0.194	0.035
-483.405	-66.986	-0.123	-0.049
-482.391	-66.505	-0.072	0.028
-481.376	-200.000	-0.090	0.492
-480.362	-200.000	0.074	0.332
-479.347	353.908	-0.176	-0.350
-478.332	-12.065	0.165	-0.108
-477.318	800.000	0.024	-0.089
-476.303	582.497	-0.093	0.228
-475.289	-200.000	-0.024	-0.229
-474.274	-200.000	-0.030	-0.135
-473.259	369.154	-0.105	0.212
-472.245	37.635	-0.215	-0.190
-471.230	159.893	0.169	0.235
-470.216	-148.216	-0.275	0.023
-469.201	-28.314	0.074	-0.043
-468.186	-91.382	-0.056	-0.016
-467.172	-19.067	-0.307	-0.191
-466.157	-138.822	-0.297	-0.032
-465.143	-200.000	-0.025	0.140
-464.128	227.717	-0.085	0.139
-463.113	524.695	0.166	0.391
-462.099	-169.937	0.223	0.008
-461.084	-20.888	0.020	0.012
-460.070	325.532	0.147	-0.281
-459.055	-126.543	0.267	-0.040
-458.040	192.518	-0.261	0.393
-457.026	-33.428	-0.337	-0.186
-456.011	-70.593	0.070	-0.027
-454.997	-200.000	-0.046	-0.268
-453.982	-83.621	-0.279	-0.089
-452.968	7.047	-0.169	-0.126
-451.953	162.168	-0.223	0.312
-450.938	-136.708	-0.257	0.030
-449.924	-121.759	-0.185	0.031
-448.909	-29.387	0.143	0.082
-447.895	800.000	0.060	0.204
-446.880	-200.000	0.041	-0.316
-445.865	-99.932	0.085	-0.021
-444.851	-200.000	-0.028	0.241
-443.836	52.915	0.247	-0.235
-442.822	-200.000	-0.011	-0.220
-441.807	126.089	0.176	0.222
-440.792	-200.000	-0.058	-0.410
-439.778	-200.000	0.013	-0.247
-438.763	-200.000	0.008	0.327
-437.749	-150.322	-0.343	0.026
-436.734	-53.655	0.210	0.096
-435.719	107.015	-0.123	-0.146
-434.705	-124.113	0.062	-0.010
-433.690	338.809	0.054	0.105
-432.676	225.706	0.046	0.074
-431.661	-32.957	-0.054	-0.030
-430.646	22.996	-0.196	0.160
-429.632	618.132	-0.071	-0.177
-428.617	-76.995	-0.244	-0.085
-427.603	-165.300	-0.109	-0.005
-426.588	69.439	-0.116	0.119
-425.573	-130.465	0.084	0.011
-424.559	239.232	0.221	0.367
-423.544	-58.517	0.142	-0.061
-422.530	-200.000	0.055	0.243
-421.515	82.935	0.186	0.202
-420.500	9.672	-0.163	-0.123
-419.486	-200.000	0.031	-0.210
-418.471	37.049	-0.042	0.037
-417.457	192.293	-0.174	0.261
-416.442	-74.228	-0.179	-0.065
-415.428	20.974	-0.056	0.045
-414.413	800.000	-0.081	0.252
-413.398	-200.000	0.005	-0.061
-412.384	800.000	0.070	-0.261
-411.369	-134.593	0.411	0.050
-410.355	426.716	0.067	-0.145
-409.340	-13.758	-0.340	0.219
-408.325	208.486	-0.154	0.240
-407.311	-128.517	0.432	-0.061
-406.296	-14.384	-0.172	0.110
-405.282	-200.000	-0.065	-0.288
-404.267	-200.000	0.068	0.329
-403.252	-83.124	0.227	0.073
-402.238	485.200	0.135	-0.307
-401.223	-34.617	0.088	-0.048
-400.209	225.900	0.071	-0.115
-399.194	800.000	0.110	0.408
-398.179	312.328	0.180	-0.336
-397.165	-57.401	-0.206	-0.090
-396.150	-200.000	0.018	0.359
-395.136	349.446	0.122	-0.240
-394.121	279.859	-0.102	-0.182
-393.106	43.028	0.053	-0.048
-392.092	185.638	-0.152	0.225
-391.077	246.028	0.084	-0.141
-390.063	-52.648	-0.292	0.134
-389.048	249.532	-0.022	-0.036
-388.033	-69.202	0.259	-0.099
-387.019	488.440	-0.122	0.278
-386.004	-23.542	-0.111	-0.066
-384.990	-79.483	0.179	0.060
-383.975	-69.085	0.151	-0.058
-382.960	-86.254	0.235	-0.072
-381.946	-200.000	-0.065	0.352
-380.931	-70.851	0.110	-0.041
-379.917	-77.920	-0.091	0.031
-378.902	114.721	-0.074	-0.090
-377.888	230.140	0.126	0.205
-376.873	-200.000	-0.000	-0.042
-375.858	104.428	-0.052	0.061
-374.844	76.405	-0.131	-0.138
-373.829	297.591	0.151	-0.276
-372.815	-23.124	0.102	0.061
-371.800	119.051	-0.122	-0.151
-370.785	800.000	-0.091	-0.277
-369.771	-200.000	0.047	-0.577
-368.756	-200.000	0.306	0.000
-367.742	-200.000	-0.031	-0.209
-366.727	-40.049	-0.187	-0.097
-365.712	-17.889	0.095	-0.059
-364.698	-200.000	0.028	0.421
-363.683	800.000	-0.158	0.446
-362.669	-33.486	-0.076	-0.042
-361.654	-150.094	0.483	-0.037
-360.639	397.184	-0.037	-0.077
-359.625	-200.000	0.021	0.284
-358.610	20.469	-0.305	0.245
-357.596	-200.000	0.007	0.116
-356.581	-38.650	-0.340	0.179
-355.566	65.569	-0.089	-0.090
-354.552	-65.385	0.068	-0.027
-353.537	-34.024	0.254	-0.139
-352.523	-84.557	0.258	0.081
-351.508	-55.190	-0.300	0.134
-350.493	800.000	0.121	0.367
-349.479	249.457	-0.163	0.274
-348.464	81.666	-0.140	0.150
-347.450	38.240	-0.164	-0.145
-346.435	-69.057	0.155	0.059
-345.420	39.998	0.149	0.133
-344.406	152.260	-0.025	-0.034
-343.391	17.617	0.117	-0.093
-342.377	-200.000	-0.001	0.227
-341.362	-200.000	-0.019	0.096
-340.348	800.000	-0.061	-0.210
-339.333	-74.396	-0.022	0.008
-338.318	-161.537	-0.191	0.010
-337.304	38.949	0.042	-0.037
-336.289	-81.889	0.158	-0.051
-335.275	-90.458	0.422	0.122
-334.260	-100.753	0.213	0.052
-333.245	370.412	0.136	-0.274
-332.231	-24.822	-0.165	-0.098
-331.216	214.567	0.060	-0.094
-330.202	178.217	0.148	0.215
-329.187	800.000	-0.026	0.076
-328.172	-27.034	0.098	0.057
-327.158	98.409	0.068	-0.078
-326.143	-34.219	0.132	-0.072
-325.129	-200.000	-0.017	0.268
-324.114	-24.540	0.119	0.070
-323.099	198.899	-0.043	0.065
-322.085	4.411	0.103	0.075
-321.070	-84.416	-0.274	0.086
-320.056	-57.844	0.228	0.099
-319.041	-23.811	0.276	0.164
-318.026	114.550	-0.125	-0.151
-317.012	96.702	0.066	0.075
-315.997	-144.111	0.060	0.006
-314.983	-39.726	-0.193	-0.100
-313.968	268.522	0.032	-0.056
-312.953	336.101	0.141	0.272
-311.939	-200.000	0.017	0.359
-310.924	-27.142	-0.353	-0.204
-309.910	-127.332	0.140	0.020
-308.895	7.518	-0.078	0.058
-307.880	-200.000	-0.016	-0.160
-306.866	800.000	0.168	-0.510
-305.851	39.449	-0.221	-0.196
-304.837	39.035	0.200	-0.177
-303.822	-9.766	-0.170	-0.112
-302.807	386.286	-0.092	0.188
-301.793	-83.755	-0.493	0.156
-300.778	-61.400	0.118	0.049
-299.764	548.538	0.080	0.191
-298.749	800.000	0.070	-0.195
-297.735	800.000	0.061	-0.217
-296.720	75.011	0.246	-0.257
-295.705	-13.292	-0.272	-0.175
-294.691	-200.000	-0.016	0.115
-293.676	2.585	0.072	0.052
-292.662	-77.013	0.212	0.073
-291.647	78.616	-0.189	-0.200
-290.632	-46.966	0.150	-0.073
-289.618	-90.130	0.139	-0.040
-288.603	67.140	0.082	-0.083
-287.589	88.735	0.247	-0.272
-286.574	15.387	-0.047	-0.037
-285.559	23.942	0.109	0.089
-284.545	800.000	0.053	-0.172
-283.530	168.070	-0.089	-0.125
-282.516	-200.000	0.041	0.205
-281.501	595.922	-0.055	-0.136
-280.486	188.359	-0.025	0.036
-279.472	-33.626	0.286	-0.157
-278.457	237.933	-0.106	-0.174
-277.443	44.167	0.062	0.057
-276.428	725.715	-0.173	0.458
-275.413	-200.000	-0.019	-0.210
-274.399	-28.654	-0.081	0.046
-273.384	109.282	-0.087	-0.104
-272.370	-200.000	0.035	-0.291
-271.355	16.773	0.114	0.090
-270.340	134.897	-0.152	0.196
-269.326	17.426	0.097	-0.077
-268.311	-132.886	-0.186	-0.024
-267.297	-72.250	0.059	0.022
-266.282	-49.066	-0.149	0.071
-265.267	-84.215	0.156	0.049
-264.253	55.961	0.181	0.174
-263.238	-200.000	-0.076	-0.345
-262.224	-147.647	0.334	-0.028
-261.209	-200.000	0.007	0.279
-260.195	-162.595	0.208	0.010
-259.180	18.531	0.095	0.075
-258.165	-200.000	-0.036	-0.344
-257.151	270.654	-0.041	-0.071
-256.136	-41.292	0.113	0.058
-255.122	-73.059	-0.211	-0.077
-254.107	-200.000	-0.015	-0.124
-253.092	166.038	0.073	0.102
-252.078	0.340	0.285	-0.201
-251.063	87.878	0.130	-0.142
-250.049	-200.000	0.011	-0.245
-249.034	-34.476	-0.136	0.074
-248.019	800.000	-0.153	0.420
-247.005	195.638	-0.170	0.255
-245.990	257.050	0.054	-0.092
-244.976	800.000	0.078	-0.288
-243.961	421.443	-0.067	-0.142
-242.946	247.291	0.087	0.145
-241.932	-5.698	-0.126	0.085
-240.917	213.891	-0.166	0.259
-239.903	-166.032	0.468	0.020
-238.888	-85.175	-0.027	0.008
-237.873	-90.918	-0.184	-0.052
-236.859	-91.120	0.203	0.058
-235.844	-41.004	0.185	-0.095
-234.830	-52.773	-0.139	-0.063
-233.815	-200.000	0.043	0.187
-232.800	192.999	0.152	0.228
-231.786	800.000	-0.035	0.113
-230.771	-109.050	0.143	0.030
-229.757	-200.000	0.036	-0.241
-228.742	44.739	-0.223	-0.203
-227.727	-200.000	0.055	0.248
-226.713	280.222	-0.122	0.216
-225.698	-200.000	0.053	-0.255
-224.684	-103.498	0.248	0.058
-223.669	300.847	-0.057	-0.103
-222.655	147.568	-0.108	-0.144
-221.640	-200.000	-0.023	0.252
-220.625	-200.000	0.023	0.284
-219.611	-47.364	-0.150	0.072
-218.596	-0.610	-0.215	0.151
-217.582	-101.430	-0.021	0.005
-216.567	800.000	0.094	0.322
-215.552	84.680	0.361	0.391
-214.538	185.759	-0.094	-0.138
-213.523	-156.745	-0.412	-0.025
-212.509	406.864	-0.175	-0.365
-211.494	-90.931	0.407	0.116
-210.479	-46.460	-0.309	-0.150
-209.465	-200.000	-0.020	0.455
-208.450	-31.290	0.347	-0.193
-207.436	245.997	-0.131	-0.219
-206.421	-163.972	-0.165	-0.008
-205.406	68.539	0.023	-0.023
-204.392	50.618	-0.123	0.115
-203.377	180.982	0.086	-0.125
-202.363	-200.000	-0.012	-0.133
-201.348	218.365	-0.146	0.231
-200.333	110.812	0.132	0.156
-199.319	298.251	0.113	0.205
-198.304	22.155	-0.351	-0.283
-197.290	-200.000	0.065	0.322
-196.275	495.828	0.026	0.060
-195.260	397.651	0.035	-0.072
-194.246	-128.698	0.156	0.022
-193.231	800.000	-0.098	0.315
-192.217	800.000	0.023	-0.091
-191.202	-35.280	0.230	-0.124
-190.187	561.411	0.100	0.240
-189.173	-200.000	0.009	0.179
-188.158	-200.000	-0.002	0.098
-187.144	314.494	-0.082	-0.153
-186.129	-66.833	0.156	0.061
-185.114	9.319	0.142	-0.106
-184.100	728.866	0.097	-0.255
-183.085	-200.000	-0.004	-0.255
-182.071	-200.000	-0.010	0.290
-181.056	-81.792	-0.248	-0.080
-180.042	30.784	-0.104	0.088
-179.027	800.000	0.114	0.342
-178.012	28.007	0.011	-0.009
-176.998	450.755	-0.107	-0.233
-175.983	-200.000	0.090	-0.539
-174.969	98.224	0.144	-0.164
-173.954	570.524	0.080	0.193
-172.939	800.000	0.046	-0.134
-171.925	60.210	0.224	-0.218
-170.910	-143.333	-0.278	-0.026
-169.896	219.598	-0.112	-0.178
-168.881	-32.410	0.195	0.107
-167.866	-40.626	-0.355	-0.182
-166.852	694.666	-0.067	0.173
-165.837	-107.993	0.124	0.027
-164.823	800.000	0.016	-0.054
-163.808	215.364	-0.093	-0.145
-162.793	-75.859	0.138	-0.048
-161.779	0.042	0.114	0.080
-160.764	-111.496	0.257	0.052
-159.750	-40.325	0.189	-0.097
-158.735	731.153	0.107	-0.281
-157.720	560.706	0.110	-0.263
-156.706	336.214	-0.049	-0.095
-155.691	18.379	0.159	0.125
-154.677	349.092	0.135	0.263
-153.662	15.515	-0.060	-0.046
-152.647	105.760	0.027	0.032
-151.633	-44.836	0.359	-0.177
-150.618	130.421	-0.145	0.183
-149.604	309.180	-0.052	0.096
-148.589	-132.509	-0.276	0.035
-147.574	-76.731	-0.258	0.089
-146.560	-29.007	-0.160	-0.091
-145.545	-160.949	0.152	-0.008
-144.531	13.595	0.184	-0.141
-143.516	-20.355	-0.047	0.028
-142.502	-97.894	-0.073	-0.019
-141.487	-65.691	-0.143	-0.057
-140.472	-4.615	-0.136	0.092
-139.458	665.873	0.053	0.135
-138.443	-200.000	0.048	0.453
-137.429	85.425	0.328	0.355
-136.414	-200.000	0.002	0.199
-135.399	-200.000	-0.012	-0.237
-134.385	-164.667	-0.024	0.001
-133.370	-200.000	0.039	-0.289
-132.356	-200.000	-0.024	-0.208
-131.341	-22.096	-0.278	-0.166
-130.326	800.000	0.128	0.429
-129.312	93.627	-0.176	0.197
-128.297	247.291	-0.246	0.409
-127.283	-23.215	0.174	0.103
-126.268	-9.533	-0.262	0.173
-125.253	800.000	0.013	-0.054
-124.239	800.000	0.051	0.162
-123.224	-46.351	-0.117	0.057
-122.210	-200.000	-0.028	0.181
-121.195	800.000	-0.052	0.169
-120.180	-47.561	0.201	-0.096
-119.166	-64.739	-0.105	0.042
-118.151	378.423	-0.100	-0.202
-117.137	-200.000	-0.029	-0.130
-116.122	20.922	0.146	-0.117
-115.107	-36.786	0.248	0.131
-114.093	-96.927	0.138	-0.036
-113.078	-200.000	-0.039	-0.176
-112.064	-48.883	-0.213	0.101
-111.049	122.634	0.045	0.055
-110.034	280.121	-0.065	0.115
-109.020	70.963	0.033	-0.033
-108.005	101.421	-0.046	-0.053
-106.991	14.296	-0.195	0.150
-105.976	800.000	-0.001	-0.005
-104.962	-200.000	0.005	-0.213
-103.947	-197.641	-0.115	-0.001
-102.932	-143.780	0.394	0.037
-101.918	800.000	0.040	0.157
-100.903	1.212	-0.253	-0.179
-99.889	117.097	0.181	-0.219
-98.874	246.384	-0.146	0.243
-97.859	151.853	0.067	0.089
-96.845	126.637	-0.037	-0.046
-95.830	-200.000	0.002	-0.169
-94.816	8.037	-0.172	0.127
-93.801	83.654	0.220	-0.236
-92.786	-155.302	-0.112	-0.007
-91.772	-200.000	-0.014	-0.256
-90.757	101.635	0.280	-0.321
-89.743	800.000	0.015	0.048
-88.728	96.290	-0.267	0.301
-87.713	277.829	-0.087	0.153
-86.699	-97.527	-0.250	-0.064
-85.684	26.478	0.052	-0.043
-84.670	28.697	0.329	0.274
-83.655	-6.337	0.287	-0.193
-82.640	658.048	-0.062	0.156
-81.626	-130.824	0.144	0.019
-80.611	-55.847	0.066	0.029
-79.597	800.000	-0.048	0.136
-78.582	293.714	-0.182	-0.327
-77.567	106.651	0.135	-0.158
-76.553	78.166	-0.133	0.139
-75.538	800.000	0.036	0.124
-74.524	221.594	-0.123	0.194
-73.509	-200.000	-0.010	-0.127
-72.494	51.316	0.332	0.310
-71.480	-97.745	-0.283	0.072
-70.465	-200.000	0.359	-0.002
-69.451	-200.000	0.014	0.168
-68.436	-12.942	-0.154	0.099
-67.422	-27.387	-0.216	-0.123
-66.407	-117.987	-0.404	0.071
-65.392	119.082	0.139	0.169
-64.378	-46.521	0.081	0.039
-63.363	-45.205	-0.269	0.132
-62.349	36.293	-0.073	0.063
-61.334	47.052	-0.869	-0.795
-60.319	-52.599	0.786	0.357
-59.305	202.003	-0.695	-1.054
-58.290	188.964	0.559	0.823
-57.276	800.000	0.569	1.653
-56.261	-200.000	95.231	578.846
-55.246	659.336	1372.167	3470.903
-54.232	199.237	2551.315	3843.140
-53.217	114.285	2267.564	2712.899
-52.203	42.117	1895.056	1691.022
-51.188	35.901	1685.290	1456.925
-50.173	33.219	1641.101	1398.868
-49.159	50.654	1686.854	1568.830
-48.144	52.289	1703.206	1596.215
-47.130	35.591	1664.419	1436.332
-46.115	32.663	1650.778	1402.750
-45.100	32.623	1645.287	1397.732
-44.086	32.524	1642.635	1394.692
-43.071	32.480	1639.888	1391.977
-42.057	32.472	1637.316	1389.683
-41.042	32.553	1635.597	1388.765
-40.027	32.450	1633.862	1386.481
-39.013	32.460	1631.581	1384.564
-37.998	32.441	1630.556	1383.495
-36.984	32.586	1628.960	1383.150
-35.969	32.692	1627.647	1382.758
-34.954	32.635	1626.031	1380.917
-33.940	32.617	1624.127	1379.113
-32.925	32.650	1622.057	1377.542
-31.911	32.623	1620.618	1376.065
-30.896	32.576	1619.072	1374.355
-29.881	32.588	1617.701	1373.224
-28.867	32.600	1615.289	1371.213
-27.852	32.609	1614.363	1370.435
-26.838	32.675	1612.433	1369.223
-25.823	32.667	1611.406	1368.239
-24.809	32.621	1610.080	1366.722
-23.794	32.679	1608.457	1365.711
-22.779	32.690	1606.818	1364.347
-21.765	32.646	1605.281	1362.667
-20.750	32.619	1603.745	1361.119
-19.736	32.652	1602.111	1359.911
-18.721	32.574	1600.774	1358.163
-17.706	32.569	1599.603	1357.083
-16.692	32.638	1597.912	1356.086
-15.677	32.681	1596.721	1355.335
-14.663	32.779	1595.244	1354.731
-13.648	32.733	1593.851	1353.158
-12.633	32.668	1592.285	1351.315
-11.619	32.707	1590.541	1350.061
-10.604	32.666	1589.029	1348.425
-9.590	32.610	1588.380	1347.420
-8.575	32.565	1587.100	1345.964
-7.560	32.734	1585.195	1345.502
-6.546	32.656	1584.771	1344.526
-5.531	32.600	1583.736	1343.196
-4.517	32.725	1581.730	1342.335
-3.502	32.698	1580.669	1341.190
-2.487	32.789	1578.863	1340.248
-1.473	32.439	1567.904	1328.421
-0.458	29.717	1548.596	1293.003
0.556	25.986	1549.492	1261.493
1.571	23.754	1572.515	1264.264
2.586	23.113	1585.699	1270.148
3.600	20.506	1532.508	1209.315
4.615	12.546	1424.099	1071.991
5.629	5.713	1361.405	982.014
6.644	4.809	1353.440	970.550
7.659	4.702	1351.868	968.668
8.673	4.616	1350.801	967.286
9.688	4.653	1349.440	966.451
10.702	4.597	1346.674	964.039
11.717	7.702	1352.378	987.348
12.731	15.118	1366.290	1043.798
13.746	19.797	1372.707	1077.841
14.761	19.514	1370.838	1074.514
15.775	18.359	1368.392	1065.325
16.790	17.321	1365.755	1056.725
17.804	16.546	1363.464	1050.051
18.819	16.137	1361.818	1046.154
19.834	15.856	1360.884	1043.601
20.848	15.631	1359.614	1041.143
21.863	15.362	1358.339	1038.407
22.877	15.353	1357.213	1037.401
23.892	15.302	1356.469	1036.426
24.907	15.144	1356.206	1035.156
25.921	15.205	1354.985	1034.508
26.936	15.347	1353.590	1034.227
27.950	15.337	1352.883	1033.532
28.965	15.502	1351.335	1033.279
29.980	15.483	1351.270	1033.016
30.994	15.580	1349.440	1032.125
32.009	15.699	1348.179	1031.796
33.023	15.685	1346.600	1030.410
34.038	15.542	1345.813	1028.843
35.053	15.425	1344.685	1027.172
36.067	15.403	1343.338	1025.922
37.082	15.401	1342.858	1025.450
38.096	15.507	1341.989	1025.343
39.111	15.454	1341.086	1024.241
40.126	15.433	1339.878	1023.099
41.140	15.277	1339.400	1021.693
42.155	15.150	1338.753	1020.337
43.169	15.152	1338.609	1020.147
44.184	15.094	1338.091	1019.310
45.199	15.189	1337.892	1019.643
46.213	15.205	1337.188	1019.113
47.228	15.412	1336.166	1019.501
48.242	15.393	1334.998	1018.406
49.257	15.333	1333.959	1017.161
50.271	15.402	1332.353	1016.264
51.286	15.449	1330.786	1015.265
52.301	15.484	1329.405	1014.333
53.315	15.254	1329.010	1012.550
54.330	15.185	1328.204	1011.432
55.344	15.250	1326.102	1010.133
56.359	15.208	1325.346	1009.217
57.374	15.184	1324.428	1008.280
58.388	15.030	1324.145	1007.050
59.403	15.019	1323.358	1006.299
60.417	15.189	1322.183	1006.332
61.432	15.098	1321.279	1005.012
62.447	15.169	1320.107	1004.459
63.461	15.031	1319.424	1003.024
64.476	14.965	1318.605	1001.917
65.490	15.087	1317.569	1001.767
66.505	15.052	1315.477	999.880
67.520	14.960	1314.942	998.837
68.534	15.065	1313.568	998.328
69.549	14.967	1312.880	997.136
70.563	15.080	1311.595	996.746
71.578	15.040	1310.605	995.668
72.593	14.909	1309.493	993.952
73.607	15.010	1308.341	993.590
74.622	15.007	1307.697	992.994
75.636	15.028	1307.088	992.572
76.651	14.950	1306.744	991.757
77.666	14.837	1306.887	991.111
78.680	15.014	1305.390	990.934
79.695	14.995	1305.134	990.541
80.709	15.095	1304.181	990.320
81.724	15.111	1303.296	989.655
82.739	15.083	1302.837	989.056
83.753	15.303	1301.502	989.253
84.768	15.355	1301.110	989.173
85.782	15.410	1300.011	988.576
86.797	15.463	1298.273	987.474
87.812	15.322	1297.004	985.598
88.826	15.412	1295.992	985.266
89.841	15.368	1294.885	984.082
90.855	15.433	1293.886	983.613
91.870	15.253	1293.859	982.451
92.884	15.374	1292.540	982.074
93.899	15.412	1291.904	981.722
94.914	15.529	1290.910	981.566
95.928	15.625	1289.852	981.237
96.943	15.444	1289.376	979.731
97.957	15.397	1288.424	978.648
98.972	15.428	1287.042	977.690
99.987	15.408	1285.982	976.680
101.001	15.381	1285.019	975.710
102.016	15.310	1284.145	974.546
103.030	15.449	1283.336	974.649
104.045	15.461	1282.169	973.752
105.060	15.417	1281.084	972.584
106.074	15.294	1279.649	970.698
107.089	15.113	1278.466	968.665
108.103	15.140	1276.848	967.508
109.118	15.142	1275.237	966.217
110.133	15.078	1274.578	965.264
111.147	15.068	1273.075	963.983
112.162	15.204	1271.497	963.484
113.176	15.231	1270.560	962.840
114.191	15.226	1270.017	962.317
115.206	15.251	1268.847	961.490
116.220	15.235	1267.186	960.054
117.235	15.124	1266.404	958.739
118.249	15.180	1265.557	958.333
119.264	15.239	1264.003	957.411
120.279	15.107	1263.464	956.161
121.293	15.127	1262.207	955.242
122.308	15.092	1261.339	954.299
123.322	15.055	1259.761	952.813
124.337	14.975	1259.440	952.030
125.352	15.061	1257.899	951.267
126.366	15.060	1256.983	950.489
127.381	15.062	1256.097	949.745
128.395	15.110	1254.989	949.096
129.410	15.101	1253.860	948.108
130.424	15.086	1253.169	947.415
131.439	15.249	1251.896	947.290
132.454	15.225	1251.051	946.433
133.468	15.269	1250.487	946.167
134.483	15.135	1249.797	944.806
135.497	15.242	1248.796	944.570
136.512	15.232	1247.607	943.529
137.527	15.267	1246.167	942.556
138.541	15.267	1244.987	941.577
139.556	15.316	1243.713	940.807
140.570	15.387	1242.844	940.466
141.585	15.498	1241.502	939.989
142.600	15.493	1240.486	939.105
143.614	15.520	1239.747	938.617
144.629	15.599	1238.355	937.920
145.643	15.550	1237.191	936.684
146.658	15.481	1236.236	935.494
147.673	15.315	1235.339	933.805
148.687	15.345	1234.079	932.936
149.702	15.213	1232.755	931.119
150.716	15.310	1231.524	930.648
151.731	15.248	1230.299	929.295
152.746	15.275	1228.905	928.311
153.760	15.362	1227.803	927.874
154.775	15.367	1226.731	927.009
155.789	15.428	1226.243	926.898
156.804	15.492	1224.848	926.112
157.819	15.381	1223.934	924.732
158.833	15.640	1222.928	925.313
159.848	15.686	1221.911	924.715
160.862	15.632	1221.156	923.767
161.877	15.557	1219.833	922.269
162.892	15.449	1218.739	920.771
163.906	15.386	1218.275	919.995
164.921	15.341	1217.070	918.756
165.935	15.364	1216.576	918.426
166.950	15.467	1215.839	918.351
167.964	15.508	1214.931	917.807
168.979	15.481	1214.276	917.086
169.994	15.448	1213.338	916.116
171.008	15.471	1213.120	915.997
172.023	15.664	1211.819	915.982
173.037	15.720	1211.421	915.908
174.052	15.683	1210.433	914.876
175.067	15.587	1209.033	913.217
176.081	15.426	1208.429	911.807
177.096	15.432	1207.310	910.914
178.110	15.481	1206.259	910.305
179.125	15.459	1205.242	909.336
180.140	15.456	1203.786	908.142
181.154	15.537	1203.073	907.962
182.169	15.716	1201.463	907.632
183.183	15.627	1200.845	906.605
184.198	15.713	1199.290	905.814
185.213	15.728	1197.799	904.687
186.227	15.757	1197.169	904.291
187.242	15.822	1195.787	903.513
188.256	15.884	1195.015	903.181
189.271	15.835	1194.171	902.205
190.286	15.618	1193.471	900.432
191.300	15.419	1192.303	898.407
192.315	15.336	1191.609	897.357
193.329	15.493	1190.620	897.374
194.344	15.589	1190.093	897.410
195.359	15.607	1189.497	896.977
196.373	15.736	1189.020	897.225
197.388	15.758	1188.895	897.171
198.402	15.856	1188.353	897.205
199.417	15.963	1187.730	897.225
200.432	16.046	1186.684	896.797
201.446	16.135	1186.265	896.873
202.461	16.204	1185.058	896.247
203.475	16.185	1183.880	895.180
204.490	16.060	1183.042	893.804
205.504	15.906	1181.874	892.028
206.519	15.864	1181.091	891.135
207.534	15.946	1179.391	890.206
208.548	16.010	1178.599	889.866
209.563	16.023	1177.980	889.390
210.577	16.043	1176.579	888.357
211.592	16.041	1175.936	887.785
212.607	16.157	1175.356	887.877
213.621	16.201	1174.454	887.348
214.636	16.054	1173.358	885.670
215.650	16.077	1172.733	885.243
216.665	16.170	1171.546	884.754
217.680	16.258	1170.760	884.545
218.694	16.297	1170.066	884.145
219.709	16.314	1169.334	883.603
220.723	16.258	1168.492	882.593
221.738	16.201	1168.169	881.977
222.753	16.189	1167.084	881.014
223.767	16.224	1166.862	880.951
224.782	16.383	1165.855	880.943
225.796	16.338	1165.396	880.285
226.811	16.429	1164.537	880.031
227.826	16.355	1163.819	879.025
228.840	16.351	1162.950	878.269
229.855	16.233	1162.238	877.044
230.869	16.355	1161.210	876.824
231.884	16.359	1160.393	876.148
232.899	16.263	1159.970	875.254
233.913	16.266	1159.284	874.677
234.928	16.241	1158.738	874.056
235.942	16.131	1157.866	872.750
236.957	16.102	1157.534	872.275
237.972	16.225	1156.343	871.933
238.986	16.207	1155.936	871.458
240.001	16.169	1155.220	870.645
241.015	16.355	1153.613	870.317
242.030	16.301	1153.633	869.975
243.045	16.406	1152.424	869.525
244.059	16.371	1151.727	868.745
245.074	16.410	1150.790	868.159
246.088	16.441	1150.245	867.834
247.103	16.543	1149.161	867.462
248.117	16.527	1148.536	866.829
249.132	16.606	1148.521	867.149
250.147	16.739	1147.731	867.152
251.161	16.893	1146.925	867.258
252.176	16.811	1145.949	866.020
253.190	16.943	1145.648	866.391
254.205	16.847	1145.040	865.367
255.220	16.866	1144.814	865.216
256.234	16.880	1143.465	864.193
257.249	16.910	1143.033	863.943
258.263	16.971	1142.120	863.485
259.278	16.908	1141.902	862.921
260.293	16.975	1141.068	862.557
261.307	17.009	1140.690	862.367
262.322	17.023	1140.274	862.048
263.336	17.082	1139.314	861.546
264.351	17.057	1138.840	860.985
265.366	17.134	1138.069	860.717
266.380	17.142	1137.208	860.029
267.395	17.012	1136.404	858.687
268.409	16.997	1135.622	857.946
269.424	17.040	1135.246	857.804
270.439	17.110	1134.316	857.375
271.453	17.015	1133.603	856.282
272.468	17.006	1132.612	855.414
273.482	16.945	1132.114	854.651
274.497	16.846	1132.084	854.056
275.512	16.965	1130.839	853.642
276.526	17.048	1129.997	853.346
277.541	17.001	1129.375	852.567
278.555	17.146	1128.506	852.562
279.570	17.181	1128.068	852.330
280.585	17.250	1127.095	851.869
281.599	17.135	1126.224	850.556
282.614	17.158	1125.347	849.936
283.628	17.126	1124.006	848.686
284.643	17.105	1123.114	847.835
285.657	17.083	1122.384	847.096
286.672	17.222	1121.488	847.040
287.687	17.320	1120.500	846.707
288.701	17.225	1119.901	845.705
289.716	17.201	1118.790	844.671
290.730	17.275	1118.297	844.591
291.745	17.221	1117.804	843.876
292.760	17.289	1117.087	843.597
293.774	17.343	1116.756	843.542
294.789	17.330	1116.143	842.940
295.803	17.410	1115.260	842.592
296.818	17.268	1114.115	840.955
297.833	17.313	1113.962	840.984
298.847	17.301	1113.060	840.172
299.862	17.392	1111.715	839.532
300.876	17.398	1111.566	839.374
301.891	17.499	1110.924	839.314
302.906	17.596	1110.216	839.178
303.920	17.665	1109.736	839.082
304.935	17.635	1109.037	838.334
305.949	17.707	1108.272	838.033
306.964	17.653	1108.032	837.516
307.979	17.579	1107.146	836.405
308.993	17.538	1106.366	835.543
310.008	17.682	1105.297	835.367
311.022	17.757	1104.302	834.908
312.037	17.620	1104.176	834.068
313.052	17.604	1103.197	833.176
314.066	17.623	1101.979	832.278
315.081	17.529	1100.919	830.942
316.095	17.479	1100.726	830.477
317.110	17.479	1099.764	829.681
318.125	17.563	1098.897	829.364
319.139	17.543	1098.219	828.681
320.154	17.364	1097.892	827.489
321.168	17.520	1097.153	827.618
322.183	17.515	1096.700	827.178
323.197	17.591	1095.917	826.882
324.212	17.554	1095.500	826.317
325.227	17.582	1095.117	826.088
326.241	17.613	1094.034	825.351
327.256	17.670	1093.128	824.871
328.270	17.573	1092.002	823.476
329.285	17.657	1091.287	823.272
330.300	17.677	1090.590	822.769
331.314	17.659	1089.702	821.938
332.329	17.655	1088.439	820.893
333.343	17.679	1087.913	820.540
334.358	17.807	1087.271	820.600
335.373	17.879	1086.503	820.293
336.387	17.810	1085.448	819.091
337.402	17.948	1084.933	819.293
338.416	17.949	1084.429	818.844
339.431	17.951	1083.718	818.244
340.446	17.934	1083.460	817.896
341.460	18.069	1082.230	817.543
342.475	18.213	1081.315	817.465
343.489	18.107	1080.380	816.181
344.504	18.190	1079.646	815.953
345.519	18.232	1079.097	815.665
346.533	18.211	1078.182	814.799
347.548	18.346	1077.459	814.826
348.562	18.253	1076.991	813.956
349.577	18.129	1076.045	812.579
350.592	18.177	1074.822	811.812
351.606	18.065	1074.350	810.854
352.621	18.010	1074.078	810.315
353.635	17.842	1073.773	809.214
354.650	18.014	1072.699	809.151
355.665	18.061	1071.844	808.657
356.679	18.104	1071.066	808.200
357.694	18.179	1070.410	807.989
358.708	18.160	1070.208	807.674
359.723	18.200	1069.636	807.362
360.738	18.234	1068.598	806.664
361.752	18.211	1068.319	806.274
362.767	18.221	1067.764	805.832
363.781	18.210	1067.224	805.301
364.796	18.276	1066.766	805.193
365.810	18.329	1066.167	804.923
366.825	18.420	1065.546	804.807
367.840	18.527	1065.198	804.978
368.854	18.636	1064.206	804.668
369.869	18.538	1063.540	803.635
370.883	18.540	1062.888	803.077
371.898	18.542	1062.047	802.379
372.913	18.472	1061.453	801.536
373.927	18.554	1060.869	801.408
374.942	18.580	1060.225	800.967
375.956	18.583	1060.109	800.826
376.971	18.572	1059.004	799.866
377.986	18.580	1058.728	799.628
379.000	18.742	1058.084	799.825
380.015	18.799	1058.001	799.958
381.029	18.798	1056.888	799.038
382.044	18.781	1056.393	798.513
383.059	18.786	1055.696	797.941
384.073	18.802	1054.608	797.122
385.088	18.772	1053.738	796.255
386.102	18.716	1052.988	795.359
387.117	18.630	1051.725	793.937
388.132	18.574	1051.008	793.065
389.146	18.621	1049.985	792.442
390.161	18.606	1049.786	792.151
391.175	18.623	1048.709	791.348
392.190	18.828	1047.971	791.665
393.205	18.914	1047.291	791.476
394.219	18.877	1046.499	790.636
395.234	18.883	1045.501	789.841
396.248	18.833	1044.879	789.072
397.263	18.711	1043.817	787.638
398.278	18.732	1043.122	787.141
399.292	18.638	1042.724	786.342
400.307	18.692	1041.599	785.672
401.321	18.710	1041.089	785.300
402.336	18.774	1040.662	785.200
403.350	18.777	1039.740	784.449
404.365	18.724	1039.134	783.681
405.380	18.709	1038.577	783.121
406.394	18.808	1037.922	783.011
407.409	18.926	1036.728	782.576
408.423	18.891	1036.850	782.441
409.438	19.113	1035.650	782.476
410.453	19.157	1034.748	781.926
411.467	19.104	1034.536	781.454
412.482	19.159	1033.938	781.183
413.496	19.262	1033.208	781.028
414.511	19.244	1032.500	780.346
415.526	19.206	1032.745	780.285
416.540	19.408	1031.892	780.487
417.555	19.307	1030.857	779.180
418.569	19.305	1030.356	778.721
419.584	19.191	1030.344	778.130
420.599	19.329	1029.757	778.242
421.613	151.581	1401.270	1795.947
422.628	138.291	1455.385	1796.062
