DTS Sentinel unit serial number:	SN413079Multiplexer serial number:	ORYXHardware model number:	OX4-SRSoftware version number:	ORYX F/W v4.00 Oryx Data Collector v3.7.2.0data status	okinstallation	princeton_trtdifferential loss correction	single-endedforward channel	channel 2reverse channel	N/Adate	2019/09/18time	05:39:34forward acquisition time	60.00reverse acquisition time	0.00gamma	496.2192k internal	0.2349k external	0.2349temperature offset calibration	0.9986default loss term (dB/km)	0.3790temperature slope calibration	1.0000multiplexer offset coefficient	1.0000multiplexer slope coefficient	1.0000fibre end	0.00T internal ref (°C)	23.36T ext. ref 1 (°C)	0.19T ext. ref 2 (°C)	16.95length (m)	temperature (°C)	Stokes	anti-Stokes-747.200	-58.245	0.114	0.049
-746.185	-40.744	-0.299	0.155
-745.171	-146.386	-0.132	-0.012
-744.156	15.454	-0.169	0.132
-743.142	800.000	0.054	0.199
-742.127	800.000	0.041	0.159
-741.112	28.431	0.128	0.108
-740.098	-90.494	-0.092	-0.027
-739.083	124.145	0.333	-0.418
-738.069	-200.000	0.040	0.337
-737.054	243.006	-0.114	-0.191
-736.039	-67.861	-0.425	-0.166
-735.025	-200.000	-0.015	-0.134
-734.010	461.590	0.041	0.092
-732.996	5.066	-0.266	-0.195
-731.981	105.818	0.174	0.205
-730.966	26.894	-0.095	0.080
-729.952	29.007	0.103	0.087
-728.937	-44.378	0.123	-0.061
-727.923	-24.547	-0.276	-0.164
-726.908	116.071	0.161	0.197
-725.894	-102.086	-0.208	0.050
-724.879	-34.204	0.316	-0.173
-723.864	85.857	-0.152	-0.167
-722.850	-20.092	-0.285	-0.175
-721.835	-200.000	-0.023	-0.238
-720.821	64.495	-0.087	-0.087
-719.806	30.854	-0.047	0.040
-718.791	72.960	0.011	-0.011
-717.777	293.925	-0.041	0.074
-716.762	800.000	0.174	-0.504
-715.748	-34.871	0.260	-0.142
-714.733	166.756	-0.172	-0.243
-713.718	488.109	-0.057	0.130
-712.704	-200.000	-0.045	-0.283
-711.689	-159.721	0.043	0.002
-710.675	151.040	-0.209	-0.283
-709.660	14.476	-0.103	-0.080
-708.645	-142.100	-0.242	-0.024
-707.631	77.079	-0.097	0.103
-706.616	-200.000	-0.021	-0.636
-705.602	-45.786	-0.303	0.149
-704.587	85.142	-0.040	0.043
-703.572	-2.664	0.147	0.102
-702.558	111.158	-0.153	-0.184
-701.543	190.628	-0.043	0.064
-700.529	-148.607	-0.061	0.005
-699.514	34.548	-0.042	0.037
-698.499	-28.652	0.135	-0.078
-697.485	800.000	0.019	-0.068
-696.470	122.348	-0.287	0.358
-695.456	800.000	0.075	-0.215
-694.441	-200.000	0.038	0.279
-693.426	-131.037	0.174	-0.023
-692.412	-180.046	-0.318	0.007
-691.397	-200.000	-0.005	0.120
-690.383	3.928	-0.283	0.206
-689.368	-91.365	0.255	-0.073
-688.354	-62.935	0.112	0.046
-687.339	137.507	0.109	-0.142
-686.324	216.991	0.289	-0.458
-685.310	230.427	0.177	-0.289
-684.295	705.281	-0.051	-0.135
-683.281	198.346	0.071	-0.108
-682.266	-200.000	-0.029	-0.162
-681.251	44.929	-0.227	-0.209
-680.237	-54.845	-0.290	-0.130
-679.222	-102.018	-0.160	-0.038
-678.208	-30.083	-0.295	-0.167
-677.193	-200.000	0.008	0.078
-676.178	570.802	0.086	0.209
-675.164	-106.395	0.045	0.010
-674.149	69.961	-0.129	0.133
-673.135	-101.457	-0.133	-0.032
-672.120	-99.933	0.324	0.081
-671.105	-59.170	-0.391	0.168
-670.091	43.668	0.222	-0.202
-669.076	800.000	0.055	-0.221
-668.062	59.655	0.078	0.076
-667.047	-200.000	-0.015	-0.262
-666.032	-200.000	-0.010	0.049
-665.018	241.143	-0.053	0.087
-664.003	-24.528	0.231	0.137
-662.989	352.507	-0.072	0.143
-661.974	-15.379	0.191	0.121
-660.959	-125.511	0.205	0.031
-659.945	162.204	0.071	0.099
-658.930	-41.864	-0.201	-0.103
-657.916	261.881	0.104	0.179
-656.901	800.000	0.059	0.215
-655.886	429.975	0.062	-0.134
-654.872	69.629	-0.153	-0.156
-653.857	46.759	0.059	0.055
-652.843	-173.305	-0.426	-0.013
-651.828	147.401	0.072	-0.096
-650.814	800.000	-0.070	0.258
-649.799	-151.312	-0.085	-0.006
-648.784	-11.675	-0.221	0.145
-647.770	179.174	0.172	-0.251
-646.755	-200.000	-0.018	-0.126
-645.741	800.000	0.104	0.339
-644.726	-33.854	-0.127	-0.069
-643.711	148.340	0.059	-0.079
-642.697	-80.276	-0.437	0.145
-641.682	449.694	-0.173	0.380
-640.668	244.756	-0.040	-0.066
-639.653	96.689	-0.124	-0.141
-638.638	-200.000	-0.034	-0.202
-637.624	-40.007	0.185	-0.096
-636.609	-20.464	0.297	-0.181
-635.595	-55.702	-0.109	-0.048
-634.580	-85.412	0.131	0.041
-633.565	-111.429	-0.101	-0.021
-632.551	90.729	-0.090	-0.100
-631.536	-95.471	0.209	0.056
-630.522	512.752	0.101	0.233
-629.507	-142.197	-0.138	-0.014
-628.492	720.849	0.036	0.095
-627.478	-200.000	0.001	0.176
-626.463	341.923	0.096	0.186
-625.449	383.910	-0.130	-0.265
-624.434	280.040	0.083	0.148
-623.419	36.225	-0.047	0.041
-622.405	214.428	-0.054	0.085
-621.390	161.232	0.161	-0.224
-620.376	800.000	0.036	-0.118
-619.361	800.000	0.074	0.256
-618.346	-71.559	-0.314	-0.117
-617.332	800.000	-0.053	0.148
-616.317	-152.027	-0.141	-0.010
-615.303	800.000	-0.062	-0.205
-614.288	182.608	-0.107	0.157
-613.273	-22.295	0.178	-0.107
-612.259	-56.993	-0.171	-0.075
-611.244	35.068	-0.075	-0.065
-610.230	210.768	-0.036	-0.057
-609.215	-72.434	-0.194	-0.071
-608.201	-98.239	-0.074	0.019
-607.186	-184.984	-0.215	-0.003
-606.171	-200.000	0.002	-0.139
-605.157	-83.075	-0.031	-0.010
-604.142	767.867	0.046	0.124
-603.128	122.163	-0.177	-0.219
-602.113	267.301	-0.043	-0.075
-601.098	196.021	0.225	0.341
-600.084	-46.088	-0.289	-0.141
-599.069	10.204	-0.124	0.093
-598.055	61.153	-0.053	-0.052
-597.040	-200.000	-0.022	0.139
-596.025	800.000	-0.047	-0.158
-595.011	-200.000	0.008	-0.336
-593.996	-200.000	0.020	-0.222
-592.982	-135.800	0.036	0.004
-591.967	-150.011	-0.228	0.018
-590.952	42.679	-0.175	-0.159
-589.938	436.122	0.103	-0.223
-588.923	-200.000	0.040	-0.176
-587.909	-200.000	-0.020	-0.226
-586.894	-51.355	-0.157	0.073
-585.879	97.048	-0.445	0.507
-584.865	-200.000	-0.053	0.285
-583.850	43.348	0.108	-0.098
-582.836	1.528	-0.041	-0.029
-581.821	-100.145	-0.172	-0.042
-580.806	-89.987	-0.076	-0.022
-579.792	-127.605	-0.075	0.011
-578.777	-77.213	0.193	-0.067
-577.763	-67.404	0.244	0.095
-576.748	-75.498	-0.149	-0.053
-575.733	-19.982	0.205	0.125
-574.719	-8.142	0.170	-0.114
-573.704	-200.000	0.001	0.102
-572.690	72.673	-0.157	-0.163
-571.675	800.000	0.020	0.067
-570.661	-45.863	-0.066	-0.032
-569.646	585.601	-0.105	0.256
-568.631	-200.000	-0.033	-0.178
-567.617	-127.046	0.306	0.044
-566.602	-137.755	-0.255	-0.028
-565.588	250.441	-0.095	-0.161
-564.573	-145.007	-0.227	-0.021
-563.558	800.000	-0.061	-0.261
-562.544	-35.907	-0.352	0.189
-561.529	-140.856	0.190	-0.019
-560.515	-127.471	-0.208	0.030
-559.500	332.324	-0.071	0.135
-558.485	58.697	-0.199	0.194
-557.471	-200.000	0.150	0.001
-556.456	698.200	0.053	-0.139
-555.442	-200.000	-0.023	0.102
-554.427	2.350	-0.204	0.146
-553.412	-200.000	-0.055	-0.240
-552.398	800.000	0.039	0.107
-551.383	26.848	0.141	0.117
-550.369	-200.000	0.007	-0.031
-549.354	402.580	-0.147	0.307
-548.339	252.946	0.174	0.294
-547.325	-44.993	-0.156	0.077
-546.310	-138.170	-0.087	0.010
-545.296	-62.695	0.207	-0.085
-544.281	-105.820	0.182	0.041
-543.266	-157.613	0.321	0.019
-542.252	1.416	-0.199	0.142
-541.237	-75.060	-0.107	-0.038
-540.223	172.844	-0.209	-0.298
-539.208	9.696	-0.078	0.059
-538.193	110.495	-0.176	0.209
-537.179	-72.511	0.079	-0.029
-536.164	-19.985	0.380	-0.232
-535.150	800.000	-0.046	-0.126
-534.135	-11.401	0.185	-0.121
-533.121	-84.545	0.204	0.064
-532.106	184.604	-0.033	0.049
-531.091	-111.458	-0.177	-0.036
-530.077	-34.288	-0.065	0.035
-529.062	-200.000	0.051	-0.565
-528.048	-162.524	-0.226	-0.011
-527.033	88.274	0.400	0.440
-526.018	-192.100	-0.395	0.004
-525.004	7.871	0.339	0.252
-523.989	-138.024	0.423	0.047
-522.975	-88.044	-0.374	-0.111
-521.960	-42.191	-0.212	0.107
-520.945	800.000	-0.053	-0.189
-519.931	140.825	-0.198	0.259
-518.916	-171.705	-0.205	0.007
-517.902	272.431	-0.070	0.123
-516.887	-64.701	-0.100	-0.040
-515.872	800.000	-0.059	-0.242
-514.858	800.000	0.103	-0.422
-513.843	800.000	-0.104	0.307
-512.829	146.048	-0.271	0.359
-511.814	800.000	-0.006	0.027
-510.799	800.000	-0.089	-0.270
-509.785	372.882	-0.154	-0.311
-508.770	-200.000	-0.007	0.114
-507.756	157.797	-0.168	-0.230
-506.741	800.000	0.044	0.186
-505.726	-200.000	0.011	-0.256
-504.712	-18.378	-0.155	-0.096
-503.697	-200.000	0.023	-0.222
-502.683	-200.000	-0.013	-0.212
-501.668	21.116	-0.114	-0.092
-500.653	-95.912	0.098	0.026
-499.639	-64.459	-0.270	-0.108
-498.624	-113.906	0.181	-0.035
-497.610	245.852	0.264	-0.440
-496.595	114.578	-0.202	-0.244
-495.581	326.264	-0.011	-0.021
-494.566	-5.930	-0.040	-0.027
-493.551	294.482	-0.169	0.305
-492.537	-133.321	-0.247	-0.031
-491.522	-180.993	-0.279	0.006
-490.508	-1.516	0.181	-0.126
-489.493	-134.275	-0.358	0.044
-488.478	74.589	-0.298	0.309
-487.464	800.000	-0.119	-0.423
-486.449	625.580	0.127	-0.317
-485.435	-200.000	0.008	-0.115
-484.420	800.000	0.065	-0.269
-483.405	-200.000	0.006	-0.254
-482.391	320.744	0.083	0.156
-481.376	76.982	0.146	-0.153
-480.362	-95.979	-0.290	-0.076
-479.347	-83.758	-0.099	0.031
-478.332	-107.080	0.272	-0.059
-477.318	-55.079	-0.111	-0.049
-476.303	800.000	0.047	-0.151
-475.289	21.289	-0.143	0.115
-474.274	-97.506	0.235	-0.060
-473.259	-88.057	-0.233	-0.069
-472.245	94.450	0.174	0.196
-471.230	-200.000	-0.009	0.119
-470.216	113.859	0.328	-0.394
-469.201	-85.707	-0.112	0.034
-468.186	-200.000	0.028	0.313
-467.172	191.008	0.220	0.328
-466.157	71.636	-0.192	0.197
-465.143	-99.824	0.055	0.014
-464.128	-101.038	-0.228	-0.055
-463.113	-100.846	0.158	-0.039
-462.099	-24.831	-0.127	0.074
-461.084	-99.129	0.176	0.044
-460.070	-68.855	-0.468	0.179
-459.055	-65.467	0.341	-0.135
-458.040	800.000	-0.086	0.237
-457.026	-76.406	0.177	0.062
-456.011	19.553	0.219	0.174
-454.997	-129.893	0.132	-0.018
-453.982	-124.909	0.174	-0.027
-452.968	800.000	0.049	-0.151
-451.953	264.318	0.200	-0.344
-450.938	127.875	-0.076	0.095
-449.924	49.772	0.365	0.339
-448.909	-155.459	0.111	-0.007
-447.895	286.790	-0.109	0.195
-446.880	-19.205	-0.126	0.077
-445.865	7.199	0.075	0.056
-444.851	-200.000	0.003	-0.191
-443.836	-64.985	-0.190	-0.076
-442.822	29.141	-0.255	-0.213
-441.807	-14.132	-0.221	-0.141
-440.792	31.773	0.211	-0.179
-439.778	29.345	0.150	0.125
-438.763	299.012	-0.100	0.181
-437.749	112.322	-0.314	0.374
-436.734	86.943	-0.099	0.108
-435.719	-200.000	0.035	-0.219
-434.705	216.846	0.144	0.227
-433.690	-200.000	0.054	0.618
-432.676	-19.630	0.182	0.111
-431.661	-100.816	0.206	-0.050
-430.646	-59.330	-0.303	-0.129
-429.632	800.000	0.059	0.204
-428.617	-155.292	-0.193	0.012
-427.603	9.664	0.095	0.071
-426.588	800.000	-0.066	0.192
-425.573	116.193	-0.211	0.255
-424.559	-175.037	0.239	0.007
-423.544	-200.000	0.001	0.056
-422.530	151.843	-0.155	0.208
-421.515	138.834	0.191	-0.247
-420.500	14.253	-0.106	-0.082
-419.486	800.000	-0.070	0.270
-418.471	92.874	-0.260	0.289
-417.457	41.904	0.147	-0.132
-416.442	-59.396	0.258	-0.109
-415.428	-94.686	-0.180	-0.048
-414.413	86.467	0.262	0.285
-413.398	-200.000	0.039	0.234
-412.384	-43.367	0.382	-0.190
-411.369	-200.000	-0.011	0.070
-410.355	-9.937	0.193	0.127
-409.340	201.527	0.238	-0.361
-408.325	167.433	0.141	0.197
-407.311	535.753	0.133	0.311
-406.296	-106.474	-0.095	-0.021
-405.282	-141.656	0.142	0.014
-404.267	60.239	0.283	0.276
-403.252	-200.000	0.038	0.357
-402.238	-13.916	0.297	0.189
-401.223	-57.346	-0.122	0.053
-400.209	-200.000	0.013	0.235
-399.194	-112.662	-0.060	-0.012
-398.179	-120.251	0.170	-0.029
-397.165	-200.000	0.008	-0.110
-396.150	68.953	-0.221	0.224
-395.136	-14.079	0.191	-0.121
-394.121	-69.826	0.115	-0.043
-393.106	-123.838	0.257	-0.040
-392.092	-96.017	0.101	-0.026
-391.077	-18.611	0.227	-0.139
-390.063	296.682	0.165	-0.299
-389.048	-38.420	-0.267	-0.139
-388.033	197.879	0.083	-0.125
-387.019	-189.816	-0.172	-0.002
-386.004	-131.342	0.197	-0.026
-384.990	-58.383	0.226	-0.097
-383.975	-83.695	-0.165	-0.052
-382.960	-200.000	0.055	0.282
-381.946	-200.000	-0.048	0.231
-380.931	-24.138	0.307	-0.181
-379.917	-200.000	-0.028	-0.262
-378.902	800.000	0.067	-0.183
-377.888	-120.836	0.360	0.060
-376.873	-188.305	-0.226	-0.003
-375.858	43.639	0.224	-0.201
-374.844	193.707	-0.147	0.219
-373.829	429.881	-0.088	0.187
-372.815	-200.000	0.045	-0.284
-371.800	15.154	0.185	-0.143
-370.785	-200.000	-0.009	0.101
-369.771	-200.000	0.053	0.253
-368.756	-38.774	0.199	0.103
-367.742	556.901	-0.049	-0.117
-366.727	491.518	0.052	0.117
-365.712	343.071	-0.165	-0.318
-364.698	-16.094	-0.216	0.135
-363.683	-200.000	0.038	0.408
-362.669	-92.700	0.147	-0.041
-361.654	-200.000	0.038	0.427
-360.639	107.639	0.203	-0.237
-359.625	2.497	-0.105	0.075
-358.610	-112.236	0.204	-0.040
-357.596	626.306	0.101	-0.251
-356.581	800.000	-0.059	-0.205
-355.566	-56.206	0.339	0.148
-354.552	-4.979	-0.208	-0.141
-353.537	-200.000	-0.040	-0.214
-352.523	800.000	-0.023	-0.064
-351.508	-37.479	0.155	-0.081
-350.493	221.913	0.081	-0.128
-349.479	47.764	0.100	0.092
-348.464	-200.000	-0.002	0.143
-347.450	-81.090	0.175	0.057
-346.435	-122.239	-0.080	-0.013
-345.420	32.432	0.322	0.274
-344.406	60.655	-0.126	0.123
-343.391	-48.893	-0.213	0.101
-342.377	800.000	0.072	-0.233
-341.362	-9.687	-0.287	0.188
-340.348	11.133	-0.442	0.332
-339.333	41.878	0.172	-0.153
-338.318	-83.848	0.093	-0.029
-337.304	165.428	-0.211	-0.293
-336.289	-41.168	-0.114	-0.058
-335.275	-200.000	-0.042	-0.336
-334.260	800.000	0.044	-0.131
-333.245	-55.572	0.126	-0.055
-332.231	102.119	-0.136	0.156
-331.216	-200.000	0.087	0.000
-330.202	-200.000	-0.017	-0.207
-329.187	-55.329	0.355	-0.157
-328.172	-51.565	0.305	-0.140
-327.158	40.194	-0.270	0.239
-326.143	-38.511	-0.100	0.052
-325.129	800.000	-0.043	0.177
-324.114	277.447	-0.047	0.082
-323.099	-183.359	-0.092	-0.002
-322.085	-38.515	-0.077	0.040
-321.070	34.829	0.226	0.194
-320.056	-200.000	0.037	-0.206
-319.041	-200.000	-0.046	-0.253
-318.026	-27.775	-0.240	-0.137
-317.012	483.555	0.066	-0.147
-315.997	553.046	0.200	0.472
-314.983	-56.962	-0.119	0.052
-313.968	-143.464	0.226	-0.021
-312.953	-1.364	-0.072	0.050
-311.939	154.491	0.201	-0.271
-310.924	-30.214	0.348	0.194
-309.910	376.490	0.102	0.204
-308.895	268.600	0.111	-0.191
-307.880	-114.850	-0.183	-0.034
-306.866	151.584	0.153	-0.205
-305.851	-166.171	-0.235	-0.010
-304.837	564.786	0.009	0.022
-303.822	275.159	-0.199	-0.346
-302.807	-0.021	0.195	0.136
-301.793	-119.229	-0.257	-0.044
-300.778	431.198	0.085	-0.181
-299.764	144.778	0.170	-0.223
-298.749	-111.572	-0.331	0.066
-297.735	-200.000	0.048	0.232
-296.720	-126.859	-0.072	-0.010
-295.705	-200.000	-0.023	0.139
-294.691	-171.809	-0.274	0.009
-293.676	800.000	0.113	-0.361
-292.662	198.348	-0.104	-0.156
-291.647	618.146	0.050	-0.122
-290.632	9.584	0.426	0.317
-289.618	-46.757	0.086	-0.042
-288.603	77.519	-0.141	0.147
-287.589	688.276	-0.117	-0.300
-286.574	-22.201	0.307	-0.183
-285.559	110.809	0.076	0.089
-284.545	137.972	-0.088	0.113
-283.530	298.185	0.051	-0.093
-282.516	-200.000	-0.038	-0.313
-281.501	-57.200	0.137	-0.059
-280.486	-200.000	-0.001	-0.139
-279.472	800.000	0.099	-0.348
-278.457	-57.981	-0.179	-0.076
-277.443	-23.064	0.132	-0.078
-276.428	-5.506	-0.233	-0.157
-275.413	-200.000	0.005	-0.050
-274.399	93.613	0.132	-0.146
-273.384	-136.800	-0.200	0.023
-272.370	-19.747	-0.063	-0.038
-271.355	252.284	-0.090	0.151
-270.340	432.559	-0.063	-0.134
-269.326	-200.000	0.058	-0.265
-268.311	-200.000	-0.004	0.122
-267.297	800.000	0.066	0.245
-266.282	-200.000	0.014	0.266
-265.267	-146.240	0.114	0.010
-264.253	800.000	0.028	-0.086
-263.238	8.117	-0.062	0.045
-262.224	-76.674	-0.278	-0.095
-261.209	-200.000	0.022	0.212
-260.195	-109.999	-0.197	-0.040
-259.180	139.669	-0.058	-0.074
-258.165	77.121	-0.104	0.108
-257.151	92.257	-0.164	0.181
-256.136	-143.797	-0.296	-0.027
-255.122	-28.780	0.070	-0.039
-254.107	585.321	-0.114	-0.274
-253.092	-200.000	0.039	-0.380
-252.078	-51.273	0.213	0.098
-251.063	422.564	0.036	0.075
-250.049	105.560	-0.265	0.307
-249.034	800.000	-0.047	0.164
-248.019	185.869	0.194	0.282
-247.005	406.681	0.232	0.480
-245.990	131.477	-0.153	-0.192
-244.976	294.389	-0.136	0.243
-243.961	-63.640	0.520	0.209
-242.946	800.000	-0.064	0.191
-241.932	135.605	-0.101	0.129
-240.917	-53.682	0.326	0.146
-239.903	-200.000	0.000	-0.007
-238.888	-113.571	0.291	-0.056
-237.873	-44.535	-0.062	0.030
-236.859	-200.000	0.037	-0.163
-235.844	366.695	0.101	0.200
-234.830	-13.995	-0.063	0.040
-233.815	-200.000	0.071	0.450
-232.800	20.457	-0.230	0.182
-231.786	-200.000	-0.036	0.215
-230.771	199.740	0.199	0.298
-229.757	-128.879	-0.506	0.070
-228.742	67.374	0.119	0.118
-227.727	112.020	-0.174	-0.206
-226.713	5.665	0.149	-0.108
-225.698	-200.000	-0.040	-0.232
-224.684	221.739	0.102	-0.161
-223.669	43.162	0.324	0.289
-222.655	105.555	-0.136	-0.157
-221.640	196.980	0.136	-0.203
-220.625	7.236	-0.295	0.215
-219.611	21.425	-0.277	-0.221
-218.596	-200.000	0.001	-0.252
-217.582	763.855	0.019	0.050
-216.567	143.159	-0.183	-0.238
-215.552	800.000	0.066	-0.188
-214.538	-200.000	0.025	0.233
-213.523	-151.319	0.209	-0.015
-212.509	-200.000	0.119	-0.522
-211.494	158.515	0.331	0.450
-210.479	87.683	-0.098	0.106
-209.465	31.417	0.132	-0.111
-208.450	379.580	-0.045	-0.090
-207.436	135.457	0.101	-0.129
-206.421	-31.183	-0.330	-0.182
-205.406	-107.441	-0.197	0.042
-204.392	358.137	0.050	0.097
-203.377	-200.000	0.063	-0.470
-202.363	103.019	0.189	0.216
-201.348	646.622	-0.070	0.176
-200.333	800.000	-0.008	-0.031
-199.319	102.784	0.037	-0.042
-198.304	325.543	-0.056	0.104
-197.290	-41.910	0.235	0.118
-196.275	-200.000	0.029	-0.322
-195.260	163.174	0.049	0.067
-194.246	-200.000	0.003	0.066
-193.231	68.143	0.180	0.180
-192.217	195.486	-0.096	-0.142
-191.202	16.702	0.196	0.152
-190.187	1.391	0.078	-0.055
-189.173	-95.362	0.253	0.066
-188.158	-200.000	0.014	0.423
-187.144	-5.634	0.104	0.070
-186.129	13.651	0.129	0.098
-185.114	314.366	0.059	0.109
-184.100	-200.000	0.001	0.179
-183.085	800.000	0.028	-0.102
-182.071	28.688	0.383	-0.317
-181.056	-30.780	-0.204	0.113
-180.042	42.181	0.093	0.083
-179.027	-118.703	0.068	-0.012
-178.012	218.527	0.115	-0.179
-176.998	800.000	0.051	-0.185
-175.983	-200.000	-0.004	0.184
-174.969	-145.896	-0.333	0.029
-173.954	-125.876	0.183	0.027
-172.939	-200.000	0.101	-0.475
-171.925	290.220	-0.235	0.417
-170.910	38.980	-0.163	0.142
-169.896	-200.000	-0.006	-0.162
-168.881	-73.543	0.248	0.088
-167.866	-37.031	-0.158	0.082
-166.852	-38.316	-0.065	-0.033
-165.837	295.779	-0.174	-0.312
-164.823	233.240	0.207	-0.332
-163.808	4.904	0.202	0.145
-162.793	800.000	-0.049	-0.206
-161.779	-42.954	-0.211	-0.105
-160.764	49.521	0.325	-0.299
-159.750	-48.444	-0.220	0.103
-158.735	-75.029	-0.432	0.151
-157.720	-164.567	0.144	0.006
-156.706	164.246	0.077	0.106
-155.691	-200.000	0.043	0.329
-154.677	7.651	0.162	0.118
-153.662	125.670	-0.183	-0.225
-152.647	569.203	0.076	0.180
-151.633	284.476	-0.057	-0.100
-150.618	223.953	0.029	-0.045
-149.604	-200.000	0.012	-0.093
-148.589	-103.782	0.104	-0.024
-147.574	-130.599	-0.135	-0.018
-146.560	-28.863	-0.174	0.097
-145.545	-140.022	0.162	-0.017
-144.531	-200.000	0.044	0.214
-143.516	155.767	0.147	-0.197
-142.502	800.000	0.055	-0.175
-141.487	-97.032	0.228	0.058
-140.472	5.938	-0.279	-0.201
-139.458	-200.000	-0.047	-0.232
-138.443	-85.833	0.085	-0.026
-137.429	-200.000	0.010	-0.059
-136.414	-76.581	0.295	0.101
-135.399	-148.336	-0.213	-0.017
-134.385	-24.796	0.285	0.165
-133.370	130.924	0.112	0.140
-132.356	-42.062	0.468	-0.233
-131.341	369.008	0.022	0.044
-130.326	800.000	0.033	0.134
-129.312	800.000	0.047	-0.177
-128.297	-200.000	0.048	0.260
-127.283	-18.534	0.282	-0.171
-126.268	163.878	-0.055	-0.076
-125.253	-151.361	-0.443	-0.032
-124.239	-132.474	-0.017	0.002
-123.224	-200.000	-0.026	0.143
-122.210	-200.000	0.017	0.128
-121.195	-18.370	0.220	-0.134
-120.180	-177.224	-0.114	-0.003
-119.166	-200.000	-0.102	0.581
-118.151	175.528	0.070	0.099
-117.137	800.000	-0.087	0.249
-116.122	279.265	-0.091	0.158
-115.107	-24.695	0.153	-0.089
-114.093	179.421	-0.039	0.055
-113.078	-57.934	-0.190	0.081
-112.064	800.000	-0.092	0.361
-111.049	61.810	0.055	-0.054
-110.034	25.741	0.258	-0.209
-109.020	-200.000	0.060	0.275
-108.005	-1.817	-0.308	0.211
-106.991	17.481	0.102	-0.079
-105.976	800.000	-0.042	0.173
-104.962	-122.238	-0.170	0.027
-103.947	21.620	0.209	0.166
-102.932	53.077	0.278	0.260
-101.918	-89.891	0.255	0.073
-100.903	-200.000	-0.067	0.318
-99.889	-81.293	0.146	0.047
-98.874	-200.000	-0.325	0.001
-97.859	537.131	-0.059	-0.137
-96.845	115.711	0.092	0.109
-95.830	485.037	-0.098	-0.218
-94.816	-53.701	0.320	-0.142
-93.801	189.953	-0.220	0.321
-92.786	-117.499	-0.143	-0.025
-91.772	43.966	0.056	-0.050
-90.757	-200.000	0.005	0.067
-89.743	2.783	0.146	0.103
-88.728	-200.000	0.019	0.155
-87.713	-200.000	-0.014	-0.248
-86.699	-152.870	0.114	-0.008
-85.684	86.612	-0.421	0.452
-84.670	355.387	0.042	0.082
-83.655	73.398	0.136	-0.139
-82.640	-47.093	0.127	0.060
-81.626	-35.041	-0.035	0.018
-80.611	-37.771	0.145	-0.075
-79.597	-12.178	0.219	-0.139
-78.582	-68.403	0.269	0.102
-77.567	-148.830	0.286	-0.022
-76.553	182.967	0.090	0.129
-75.538	370.212	-0.114	-0.225
-74.524	-53.042	0.073	-0.033
-73.509	675.971	-0.148	0.373
-72.494	800.000	0.060	0.170
-71.480	-130.985	-0.092	0.012
-70.465	-69.918	-0.076	-0.028
-69.451	690.700	0.156	0.397
-68.436	-157.758	0.346	-0.020
-67.422	72.912	0.066	-0.067
-66.407	202.876	-0.119	-0.179
-65.392	-171.047	0.145	0.005
-64.378	417.448	-0.067	-0.140
-63.363	-52.664	-0.186	0.084
-62.349	450.505	0.052	-0.111
-61.334	84.582	-1.155	-1.229
-60.319	-8.189	0.936	0.613
-59.305	800.000	-0.334	-1.197
-58.290	502.102	0.639	1.435
-57.276	800.000	0.600	1.640
-56.261	-200.000	124.503	651.234
-55.246	413.897	1573.226	3254.459
-54.232	141.521	2745.885	3534.431
-53.217	90.147	2310.274	2510.684
-52.203	32.613	1915.901	1610.152
-51.188	26.329	1711.851	1390.439
-50.173	24.265	1672.704	1343.059
-49.159	46.226	1741.290	1568.032
-48.144	43.588	1752.822	1558.058
-47.130	25.968	1704.406	1381.409
-46.115	23.458	1689.405	1350.108
-45.100	23.213	1684.507	1344.280
-44.086	23.209	1681.870	1342.092
-43.071	23.309	1679.063	1340.560
-42.057	23.140	1677.651	1338.098
-41.042	23.244	1675.047	1336.756
-40.027	23.236	1673.601	1335.483
-39.013	23.161	1671.683	1333.335
-37.998	23.297	1670.423	1333.307
-36.984	23.303	1669.039	1332.193
-35.969	23.394	1667.259	1331.405
-34.954	23.438	1665.291	1330.105
-33.940	23.362	1663.755	1328.259
-32.925	23.335	1662.316	1326.853
-31.911	23.320	1660.264	1325.052
-30.896	23.317	1659.052	1324.012
-29.881	23.358	1657.240	1322.820
-28.867	23.318	1655.842	1321.350
-27.852	23.334	1654.502	1320.346
-26.838	23.331	1652.613	1318.762
-25.823	23.347	1651.344	1317.816
-24.809	23.363	1650.074	1316.875
-23.794	23.314	1649.566	1316.048
-22.779	23.369	1647.471	1314.737
-21.765	23.294	1645.664	1312.687
-20.750	23.416	1644.084	1312.280
-19.736	23.412	1642.404	1310.850
-18.721	23.383	1641.483	1309.849
-17.706	23.346	1640.109	1308.431
-16.692	23.346	1638.353	1306.976
-15.677	23.354	1637.200	1306.062
-14.663	23.413	1635.737	1305.281
-13.648	23.474	1634.329	1304.551
-12.633	23.425	1632.714	1302.856
-11.619	23.487	1631.198	1302.048
-10.604	23.423	1629.776	1300.394
-9.590	23.464	1628.472	1299.601
-8.575	23.383	1627.605	1298.261
-7.560	23.360	1626.206	1296.924
-6.546	23.380	1624.860	1295.948
-5.531	23.433	1623.736	1295.389
-4.517	23.306	1622.898	1293.739
-3.502	23.339	1621.757	1293.020
-2.487	23.387	1619.447	1291.473
-1.473	22.973	1607.672	1279.036
-0.458	19.960	1587.215	1241.146
0.556	14.832	1588.951	1209.079
1.571	12.578	1612.397	1210.248
2.586	12.392	1624.184	1217.612
3.600	11.509	1569.802	1170.411
4.615	6.335	1462.967	1056.023
5.629	1.297	1403.249	980.349
6.644	0.248	1396.459	968.776
7.659	0.217	1395.601	967.898
8.673	0.162	1394.726	966.852
9.688	0.133	1392.430	964.986
10.702	0.051	1388.520	961.671
11.717	2.650	1392.042	980.663
12.731	9.365	1402.568	1031.159
13.746	15.029	1411.360	1073.976
14.761	16.652	1412.993	1085.538
15.775	16.230	1411.197	1081.361
16.790	15.170	1409.033	1072.821
17.804	14.438	1406.376	1066.025
18.819	14.083	1404.994	1062.616
19.834	13.814	1403.832	1059.924
20.848	13.635	1402.544	1057.716
21.863	13.308	1401.140	1054.480
22.877	13.199	1400.004	1052.834
23.892	13.131	1399.107	1051.633
24.907	13.159	1397.934	1050.836
25.921	13.191	1397.061	1050.294
26.936	13.304	1396.388	1050.414
27.950	13.309	1395.005	1049.311
28.965	13.319	1394.126	1048.616
29.980	13.440	1392.930	1048.392
30.994	13.442	1392.540	1048.017
32.009	13.502	1391.356	1047.416
33.023	13.468	1389.951	1046.052
34.038	13.316	1389.110	1044.363
35.053	13.420	1387.333	1043.593
36.067	13.363	1387.069	1042.940
37.082	13.391	1385.888	1042.137
38.096	13.476	1384.764	1041.734
39.111	13.341	1384.354	1040.483
40.126	13.299	1383.022	1039.130
41.140	13.152	1382.475	1037.702
42.155	13.241	1381.743	1037.619
43.169	13.217	1381.588	1037.258
44.184	13.203	1381.039	1036.669
45.199	13.177	1380.548	1036.049
46.213	13.314	1379.787	1036.239
47.228	13.269	1379.121	1035.367
48.242	13.276	1378.090	1034.548
49.257	13.201	1376.777	1032.999
50.271	13.338	1374.896	1032.352
51.286	13.334	1373.659	1031.306
52.301	13.258	1372.326	1029.744
53.315	13.291	1371.310	1029.092
54.330	13.234	1370.326	1027.908
55.344	13.220	1368.860	1026.634
56.359	13.212	1368.212	1026.004
57.374	13.280	1366.992	1025.424
58.388	13.161	1366.521	1024.241
59.403	13.189	1366.137	1024.034
60.417	13.217	1364.402	1022.816
61.432	13.115	1363.898	1021.717
62.447	13.011	1363.159	1020.431
63.461	13.040	1361.416	1019.216
64.476	13.102	1360.630	1018.921
65.490	13.065	1359.561	1017.798
66.505	13.215	1357.671	1017.219
67.520	13.205	1356.507	1016.195
68.534	13.213	1355.082	1015.090
69.549	13.171	1354.396	1014.223
70.563	13.172	1353.637	1013.574
71.578	13.118	1351.993	1011.920
72.593	13.197	1350.937	1011.528
73.607	13.034	1350.459	1010.082
74.622	13.098	1349.494	1009.663
75.636	13.125	1348.870	1009.271
76.651	13.049	1347.972	1008.041
77.666	13.068	1347.539	1007.744
78.680	13.191	1346.762	1007.824
79.695	13.150	1345.951	1006.883
80.709	13.119	1345.307	1006.120
81.724	13.132	1344.432	1005.456
82.739	13.177	1343.172	1004.702
83.753	13.234	1342.301	1004.305
84.768	13.281	1341.299	1003.754
85.782	13.405	1339.698	1003.216
86.797	13.258	1338.864	1001.611
87.812	13.242	1337.745	1000.588
88.826	13.273	1336.500	999.761
89.841	13.250	1335.568	998.834
90.855	13.250	1334.732	998.118
91.870	13.355	1333.636	997.848
92.884	13.363	1332.262	996.776
93.899	13.381	1331.721	996.391
94.914	13.457	1331.003	996.227
95.928	13.394	1329.951	994.971
96.943	13.368	1329.099	994.088
97.957	13.359	1328.133	993.225
98.972	13.412	1326.754	992.422
99.987	13.364	1326.437	991.809
101.001	13.364	1324.937	990.603
102.016	13.326	1324.248	989.771
103.030	13.439	1323.202	989.580
104.045	13.376	1322.312	988.447
105.060	13.363	1321.106	987.380
106.074	13.249	1319.731	985.590
107.089	13.183	1318.502	984.189
108.103	13.178	1317.260	983.142
109.118	13.199	1316.172	982.373
110.133	13.202	1314.308	980.913
111.147	13.227	1313.003	979.999
112.162	13.171	1312.108	978.910
113.176	13.297	1310.494	978.369
114.191	13.329	1309.887	978.013
115.206	13.330	1308.991	977.268
116.220	13.350	1307.604	976.265
117.235	13.276	1306.537	974.944
118.249	13.260	1305.151	973.725
119.264	13.248	1304.098	972.786
120.279	13.316	1302.784	972.119
121.293	13.290	1301.860	971.191
122.308	13.185	1301.371	970.121
123.322	13.113	1300.095	968.662
124.337	13.101	1299.082	967.752
125.352	13.163	1297.736	967.028
126.366	13.171	1296.309	965.924
127.381	13.230	1295.234	965.383
128.395	13.179	1294.186	964.222
129.410	13.225	1293.188	963.660
130.424	13.181	1292.975	963.157
131.439	13.309	1291.715	962.878
132.454	13.222	1290.845	961.639
133.468	13.264	1289.647	960.905
134.483	13.247	1288.810	960.099
135.497	13.258	1287.818	959.338
136.512	13.262	1286.200	958.072
137.527	13.360	1284.651	957.399
138.541	13.253	1283.504	955.844
139.556	13.361	1281.585	954.953
140.570	13.340	1281.027	954.333
141.585	13.358	1280.036	953.611
142.600	13.325	1278.690	952.338
143.614	13.468	1277.695	952.331
144.629	13.506	1276.425	951.522
145.643	13.568	1275.341	950.985
146.658	13.392	1274.345	949.149
147.673	13.337	1272.887	947.662
148.687	13.344	1271.606	946.667
149.702	13.430	1270.497	946.249
150.716	13.348	1269.003	944.583
151.731	13.444	1267.741	944.106
152.746	13.395	1266.433	942.773
153.760	13.393	1265.222	941.775
154.775	13.478	1263.839	941.146
155.789	13.503	1262.777	940.412
156.804	13.530	1261.874	939.808
157.819	13.594	1260.801	939.292
158.833	13.749	1259.908	939.420
159.848	13.583	1259.289	937.936
160.862	13.691	1258.353	937.769
161.877	13.603	1257.208	936.336
162.892	13.472	1255.985	934.599
163.906	13.390	1255.282	933.529
164.921	13.556	1254.189	933.571
165.935	13.594	1253.423	933.133
166.950	13.537	1252.804	932.267
167.964	13.532	1251.820	931.429
168.979	13.569	1250.975	930.922
169.994	13.508	1250.585	930.205
171.008	13.676	1249.403	930.187
172.023	13.668	1248.456	929.354
173.037	13.725	1247.587	928.949
174.052	13.655	1246.896	927.959
175.067	13.736	1245.224	927.085
176.081	13.634	1244.718	926.058
177.096	13.647	1244.051	925.550
178.110	13.684	1242.786	924.735
179.125	13.709	1241.638	923.937
180.140	13.782	1240.400	923.341
181.154	13.727	1239.180	922.043
182.169	13.682	1237.692	920.607
183.183	13.767	1236.853	920.375
184.198	13.767	1235.432	919.233
185.213	13.883	1234.258	918.919
186.227	13.891	1232.992	917.943
187.242	13.830	1232.246	916.969
188.256	13.957	1231.550	917.069
189.271	13.971	1230.169	916.039
190.286	13.746	1229.265	914.043
191.300	13.805	1228.569	913.769
192.315	13.724	1227.577	912.508
193.329	13.775	1227.316	912.511
194.344	13.770	1226.211	911.579
195.359	13.768	1226.104	911.412
196.373	13.886	1225.412	911.464
197.388	13.956	1224.897	911.384
198.402	14.032	1224.160	911.169
199.417	13.979	1223.514	910.320
200.432	14.059	1222.610	910.005
201.446	14.034	1221.804	909.186
202.461	14.076	1221.015	908.748
203.475	14.051	1219.834	907.654
204.490	14.153	1218.170	906.893
205.504	14.263	1216.847	906.425
206.519	14.097	1216.165	904.934
207.534	14.092	1214.957	903.929
208.548	14.052	1214.124	903.013
209.563	14.114	1213.167	902.557
210.577	14.090	1212.614	901.933
211.592	14.107	1211.851	901.379
212.607	14.221	1210.619	900.999
213.621	14.186	1209.637	900.001
214.636	14.328	1208.726	900.009
215.650	14.218	1208.309	899.025
216.665	14.269	1206.850	898.135
217.680	14.257	1205.804	897.210
218.694	14.411	1204.863	897.260
219.709	14.296	1204.718	896.457
220.723	14.454	1203.270	896.147
221.738	14.267	1202.550	894.530
222.753	14.384	1201.959	894.637
223.767	14.398	1200.901	893.845
224.782	14.405	1200.783	893.716
225.796	14.434	1200.360	893.480
226.811	14.405	1199.476	892.587
227.826	14.351	1198.758	891.684
228.840	14.350	1197.790	890.878
229.855	14.441	1197.145	890.809
230.869	14.409	1196.176	889.835
231.884	14.458	1195.184	889.283
232.899	14.390	1194.703	888.479
233.913	14.482	1193.880	888.283
234.928	14.437	1193.300	887.530
235.942	14.419	1192.269	886.591
236.957	14.374	1191.535	885.729
237.972	14.438	1190.877	885.499
238.986	14.374	1190.225	884.599
240.001	14.494	1189.296	884.464
241.015	14.518	1188.492	883.914
242.030	14.482	1187.950	883.245
243.045	14.444	1187.186	882.397
244.059	14.580	1186.031	882.178
245.074	14.521	1185.406	881.321
246.088	14.574	1184.296	880.700
247.103	14.583	1183.924	880.394
248.117	14.700	1183.003	880.246
249.132	14.730	1182.196	879.726
250.147	14.696	1181.789	879.165
251.161	14.730	1180.767	878.507
252.176	14.859	1180.041	878.571
253.190	14.857	1179.632	878.177
254.205	14.938	1178.640	877.784
255.220	14.857	1178.459	877.147
256.234	14.889	1177.687	876.664
257.249	14.873	1176.726	875.785
258.263	14.886	1176.264	875.431
259.278	14.966	1175.205	874.988
260.293	14.998	1174.875	874.829
261.307	15.051	1174.577	874.808
262.322	14.978	1173.499	873.546
263.336	14.986	1173.166	873.263
264.351	15.195	1172.165	873.528
265.366	15.152	1171.676	872.862
266.380	15.152	1171.039	872.311
267.395	15.006	1170.335	870.952
268.409	15.079	1169.545	870.663
269.424	15.031	1168.607	869.643
270.439	15.151	1168.175	869.864
271.453	15.286	1166.995	869.607
272.468	15.134	1166.447	868.337
273.482	15.237	1165.621	868.177
274.497	15.151	1164.905	867.123
275.512	15.177	1164.445	866.837
276.526	15.244	1163.509	866.410
277.541	15.159	1162.941	865.474
278.555	15.163	1161.977	864.699
279.570	15.230	1161.469	864.592
280.585	15.382	1160.203	864.354
281.599	15.286	1159.821	863.501
282.614	15.339	1158.268	862.540
283.628	15.335	1157.301	861.725
284.643	15.281	1156.641	860.879
285.657	15.318	1155.674	860.270
286.672	15.275	1154.773	859.304
287.687	15.357	1153.855	858.967
288.701	15.434	1153.011	858.653
289.716	15.510	1151.956	858.183
290.730	15.511	1151.507	857.775
291.745	15.470	1151.081	857.173
292.760	15.528	1150.265	856.787
293.774	15.514	1149.795	856.288
294.789	15.472	1149.379	855.691
295.803	15.502	1148.527	855.129
296.818	15.485	1148.119	854.667
297.833	15.547	1147.054	854.111
298.847	15.572	1146.369	853.655
299.862	15.448	1145.856	852.569
300.876	15.530	1144.833	852.148
301.891	15.575	1144.030	851.701
302.906	15.574	1143.466	851.201
303.920	15.727	1142.682	851.317
304.935	15.672	1142.105	850.532
305.949	15.709	1141.338	850.075
306.964	15.811	1140.796	850.110
307.979	15.693	1140.266	849.042
308.993	15.821	1139.426	848.990
310.008	15.756	1138.777	848.101
311.022	15.815	1137.822	847.614
312.037	15.819	1136.590	846.641
313.052	15.741	1136.095	845.803
314.066	15.722	1135.139	844.921
315.081	15.640	1134.720	844.125
316.095	15.647	1133.715	843.339
317.110	15.741	1133.119	843.293
318.125	15.787	1132.343	842.868
319.139	15.736	1131.500	841.913
320.154	15.712	1131.015	841.354
321.168	15.743	1130.398	840.979
322.183	15.700	1129.300	839.873
323.197	15.881	1128.896	840.403
324.212	15.785	1128.604	839.632
325.227	15.884	1128.174	839.731
326.241	15.875	1127.206	838.892
327.256	15.906	1125.683	837.838
328.270	15.898	1124.934	837.163
329.285	15.949	1124.170	836.778
330.300	15.932	1122.942	835.703
331.314	15.834	1122.431	834.764
332.329	15.835	1121.049	833.669
333.343	15.890	1120.604	833.535
334.358	15.956	1119.821	833.207
335.373	15.985	1119.240	832.842
336.387	15.891	1118.749	831.936
337.402	16.055	1117.221	831.539
338.416	16.048	1116.621	830.983
339.431	16.113	1115.854	830.658
340.446	16.127	1115.619	830.478
341.460	16.190	1115.176	830.384
342.475	16.200	1113.886	829.402
343.489	16.175	1113.143	828.652
344.504	16.331	1111.621	828.213
345.519	16.282	1111.246	827.617
346.533	16.274	1110.265	826.772
347.548	16.256	1109.598	826.117
348.562	16.364	1108.726	825.923
349.577	16.346	1108.306	825.448
350.592	16.228	1107.491	824.194
351.606	16.273	1106.922	823.916
352.621	16.271	1106.246	823.329
353.635	16.175	1105.686	822.372
354.650	16.231	1104.657	821.804
355.665	16.318	1103.876	821.574
356.679	16.321	1103.589	821.304
357.694	16.449	1102.644	821.150
358.708	16.413	1102.336	820.675
359.723	16.471	1101.144	819.994
360.738	16.447	1101.109	819.779
361.752	16.409	1100.700	819.221
362.767	16.435	1099.601	818.454
363.781	16.414	1099.355	818.099
364.796	16.376	1098.890	817.493
365.810	16.489	1098.299	817.527
366.825	16.587	1097.329	817.211
367.840	16.581	1096.565	816.540
368.854	16.574	1096.215	816.169
369.869	16.596	1095.617	815.761
370.883	16.646	1094.221	814.891
371.898	16.573	1093.869	814.205
372.913	16.602	1092.964	813.598
373.927	16.668	1092.745	813.682
374.942	16.641	1091.964	812.895
375.956	16.847	1091.397	813.392
376.971	16.731	1091.299	812.690
377.986	16.674	1090.576	811.806
379.000	16.779	1089.701	811.585
380.015	16.893	1089.168	811.663
381.029	16.786	1088.596	810.652
382.044	16.906	1087.893	810.632
383.059	16.953	1087.231	810.291
384.073	16.802	1086.588	809.018
385.088	16.850	1085.451	808.331
386.102	16.797	1084.607	807.379
387.117	16.943	1083.269	807.007
388.132	16.942	1082.479	806.339
389.146	16.913	1081.616	805.488
390.161	16.920	1081.136	805.093
391.175	16.935	1080.340	804.501
392.190	17.021	1079.974	804.564
393.205	16.921	1079.230	803.463
394.219	16.924	1078.729	803.036
395.234	17.017	1077.365	802.386
396.248	17.068	1076.152	801.654
397.263	17.025	1075.127	800.617
398.278	16.908	1074.973	799.877
399.292	17.074	1073.816	799.733
400.307	16.923	1073.369	798.616
401.321	16.898	1072.993	798.148
402.336	16.964	1072.121	797.740
403.350	17.104	1071.094	797.563
404.365	17.050	1070.673	796.924
405.380	17.142	1069.969	796.760
406.394	17.123	1069.109	795.961
407.409	17.206	1068.081	795.515
408.423	17.277	1067.930	795.662
409.438	17.180	1066.982	794.434
410.453	17.276	1066.497	794.451
411.467	17.318	1065.704	793.984
412.482	17.353	1064.897	793.478
413.496	17.343	1064.118	792.781
414.511	17.315	1063.944	792.450
415.526	17.354	1063.589	792.297
416.540	17.386	1062.998	791.937
417.555	17.348	1062.380	791.230
418.569	17.508	1061.503	791.249
419.584	17.450	1060.939	790.487
420.599	17.371	1060.730	789.895
421.613	107.900	1331.045	1487.141
422.628	99.608	1370.366	1487.226
