DTS Sentinel unit serial number:	SN413079Multiplexer serial number:	ORYXHardware model number:	OX4-SRSoftware version number:	ORYX F/W v4.00 Oryx Data Collector v3.7.2.0data status	okinstallation	princeton_trtdifferential loss correction	single-endedforward channel	channel 2reverse channel	N/Adate	2019/09/11time	18:17:11forward acquisition time	60.00reverse acquisition time	0.00gamma	496.2192k internal	0.2285k external	0.2285temperature offset calibration	1.0024default loss term (dB/km)	0.3790temperature slope calibration	1.0000multiplexer offset coefficient	1.0000multiplexer slope coefficient	1.0000fibre end	0.00T internal ref (°C)	44.00T ext. ref 1 (°C)	1.14T ext. ref 2 (°C)	38.87length (m)	temperature (°C)	Stokes	anti-Stokes-747.200	-87.637	0.069	-0.021
-746.185	119.461	0.051	0.064
-745.171	-200.000	0.021	0.563
-744.156	-200.000	0.016	0.148
-743.142	26.205	-0.052	-0.045
-742.127	-200.000	0.012	0.227
-741.112	14.818	0.183	-0.147
-740.098	-200.000	0.020	0.329
-739.083	-159.752	0.163	0.009
-738.069	57.982	-0.098	-0.099
-737.054	-47.215	-0.348	0.174
-736.039	247.637	-0.157	0.273
-735.025	248.931	0.235	0.409
-734.010	800.000	-0.061	-0.268
-732.996	99.505	-0.132	-0.157
-731.981	800.000	0.071	0.205
-730.966	32.420	-0.197	-0.175
-729.952	-200.000	0.033	-0.333
-728.937	-95.366	-0.352	-0.097
-727.923	-2.511	-0.134	-0.096
-726.908	-200.000	-0.010	-0.439
-725.894	800.000	0.034	0.130
-724.879	-51.636	-0.195	-0.093
-723.864	85.342	-0.208	-0.235
-722.850	-200.000	-0.045	-0.213
-721.835	420.765	-0.060	-0.132
-720.821	-39.201	-0.241	-0.130
-719.806	-91.057	-0.226	0.067
-718.791	800.000	0.083	0.362
-717.777	-104.988	-0.350	-0.082
-716.762	-121.192	-0.194	0.033
-715.748	800.000	0.040	0.122
-714.733	310.787	-0.105	-0.201
-713.718	-140.228	-0.248	0.027
-712.704	-83.041	-0.213	-0.070
-711.689	730.609	-0.034	-0.094
-710.675	186.648	0.103	0.157
-709.660	120.148	0.146	0.186
-708.645	800.000	-0.098	0.347
-707.631	55.588	-0.077	-0.076
-706.616	-200.000	-0.012	-0.301
-705.602	114.517	-0.118	0.147
-704.587	281.319	0.073	0.133
-703.572	76.290	-0.088	0.096
-702.558	33.276	0.069	-0.062
-701.543	800.000	-0.049	-0.147
-700.529	152.557	0.017	0.023
-699.514	99.571	-0.278	-0.330
-698.499	-117.234	0.381	-0.071
-697.485	-167.249	-0.304	0.013
-696.470	34.889	-0.316	-0.284
-695.456	56.616	-0.206	0.205
-694.441	18.354	0.205	-0.168
-693.426	-6.417	-0.299	-0.209
-692.412	800.000	-0.026	0.074
-691.397	238.684	0.063	-0.107
-690.383	30.269	0.183	0.160
-689.368	-26.713	-0.184	0.110
-688.354	86.395	-0.097	0.110
-687.339	-200.000	0.043	0.270
-686.324	467.547	-0.055	0.126
-685.310	800.000	0.094	0.319
-684.295	800.000	-0.045	-0.132
-683.281	-200.000	0.041	-0.253
-682.266	240.172	0.077	0.132
-681.251	-174.338	0.061	-0.002
-680.237	-93.038	-0.230	-0.066
-679.222	-200.000	0.051	-0.265
-678.208	-183.626	0.045	0.001
-677.193	-200.000	-0.019	-0.257
-676.178	-200.000	0.037	-0.233
-675.164	416.586	0.092	0.202
-674.149	800.000	-0.029	-0.096
-673.135	800.000	0.140	-0.411
-672.120	800.000	-0.051	0.166
-671.105	-200.000	0.026	0.343
-670.091	-49.759	0.148	0.072
-669.076	-51.273	0.175	-0.084
-668.062	218.596	0.318	0.520
-667.047	-200.000	-0.013	-0.194
-666.032	250.112	0.285	-0.496
-665.018	171.673	0.101	0.149
-664.003	-78.032	-0.114	0.040
-662.989	-53.233	0.148	0.070
-661.974	-48.219	0.330	-0.163
-660.959	-73.150	-0.256	0.096
-659.945	425.355	-0.120	-0.264
-658.930	184.734	-0.169	-0.256
-657.916	-109.136	0.303	0.066
-656.901	142.142	0.267	0.363
-655.886	-200.000	-0.026	0.160
-654.872	-34.554	0.481	-0.269
-653.857	127.373	-0.105	-0.137
-652.843	-134.481	-0.241	-0.030
-651.828	522.625	0.202	-0.484
-650.814	-20.810	-0.190	-0.119
-649.799	49.321	0.034	-0.033
-648.784	-133.575	-0.321	0.041
-647.770	148.809	0.079	0.110
-646.755	158.198	0.160	-0.227
-645.741	-34.120	0.110	0.062
-644.726	56.045	0.003	-0.003
-643.711	49.858	-0.141	-0.136
-642.697	800.000	0.074	-0.329
-641.682	800.000	-0.162	-0.485
-640.668	-8.907	-0.178	-0.122
-639.653	800.000	0.064	0.232
-638.638	-200.000	0.004	-0.136
-637.624	154.229	-0.164	-0.230
-636.609	-154.948	-0.075	-0.005
-635.595	-47.123	0.209	0.104
-634.580	125.431	0.147	0.189
-633.565	122.493	-0.044	0.056
-632.551	-32.290	-0.287	-0.164
-631.536	-127.240	-0.048	-0.007
-630.522	800.000	-0.029	-0.127
-629.507	-153.201	0.142	-0.010
-628.492	7.502	0.139	0.106
-627.478	106.273	0.184	-0.223
-626.463	-161.214	-0.030	0.002
-625.449	362.122	-0.165	-0.339
-624.434	-67.374	0.292	-0.117
-623.419	148.027	0.193	0.266
-622.405	731.336	-0.057	0.156
-621.390	48.600	0.144	0.138
-620.376	52.649	-0.199	0.194
-619.361	238.532	0.046	-0.078
-618.346	800.000	0.034	0.095
-617.332	-85.728	0.257	-0.081
-616.317	603.147	-0.071	0.179
-615.303	102.180	-0.200	0.239
-614.288	-200.000	0.035	-0.160
-613.273	715.706	0.045	-0.123
-612.259	800.000	-0.033	-0.110
-611.244	213.190	0.101	-0.163
-610.230	-168.001	0.360	0.014
-609.215	800.000	-0.025	-0.108
-608.201	-85.129	-0.081	-0.026
-607.186	-21.193	0.066	0.041
-606.171	38.771	0.207	-0.189
-605.157	-76.842	-0.261	-0.093
-604.142	800.000	0.080	-0.330
-603.128	-1.224	0.373	0.269
-602.113	-140.983	-0.067	-0.007
-601.098	-34.042	0.230	0.129
-600.084	-200.000	-0.009	0.130
-599.069	-144.959	0.248	-0.023
-598.055	-107.855	-0.173	-0.038
-597.040	-56.299	0.193	-0.087
-596.025	209.661	-0.096	0.153
-595.011	77.958	-0.228	0.248
-593.996	83.718	-0.305	0.339
-592.982	-38.466	0.182	-0.098
-591.967	42.657	0.158	0.147
-590.952	-200.000	-0.013	0.242
-589.938	74.195	0.268	0.287
-588.923	25.093	-0.322	-0.273
-587.909	-200.000	0.047	-0.258
-586.894	124.011	-0.216	-0.276
-585.879	-200.000	-0.043	0.233
-584.865	-164.934	0.161	-0.007
-583.850	158.628	0.181	-0.257
-582.836	800.000	0.076	-0.252
-581.821	-200.000	0.036	0.455
-580.806	-155.291	-0.256	0.017
-579.792	-46.213	-0.239	-0.120
-578.777	800.000	-0.047	-0.172
-577.763	7.645	-0.299	-0.229
-576.748	-200.000	-0.020	-0.116
-575.733	-51.621	-0.215	0.102
-574.719	-101.184	-0.302	-0.075
-573.704	51.541	-0.352	-0.341
-572.690	-48.046	0.288	-0.142
-571.675	800.000	-0.078	0.257
-570.661	-107.918	-0.170	-0.038
-569.646	-163.539	0.055	0.003
-568.631	-110.638	0.200	0.042
-567.617	-200.000	0.021	-0.134
-566.602	-200.000	-0.012	-0.142
-565.588	209.227	-0.075	-0.120
-564.573	53.603	0.062	0.061
-563.558	785.644	0.134	-0.375
-562.544	326.197	0.112	-0.218
-561.529	800.000	-0.077	-0.218
-560.515	800.000	-0.029	0.126
-559.500	-142.209	0.135	-0.014
-558.485	-91.777	-0.394	-0.114
-557.471	-200.000	0.043	0.252
-556.456	207.029	0.168	-0.267
-555.442	-50.204	-0.312	-0.150
-554.427	-53.555	-0.034	-0.016
-553.412	-160.264	0.121	-0.007
-552.398	-200.000	0.019	0.123
-551.383	-74.083	0.256	-0.095
-550.369	88.752	-0.148	-0.168
-549.354	800.000	-0.032	-0.092
-548.339	331.307	0.156	-0.306
-547.325	28.067	0.092	-0.079
-546.310	-176.366	-0.188	-0.005
-545.296	-200.000	-0.068	0.477
-544.281	-98.730	-0.299	0.078
-543.266	-200.000	-0.043	-0.198
-542.252	800.000	0.032	-0.111
-541.237	-87.599	0.053	0.016
-540.223	-88.361	-0.141	0.043
-539.208	-55.355	-0.234	0.107
-538.193	17.126	-0.251	-0.203
-537.179	-61.912	0.187	0.080
-536.164	-81.399	0.106	0.036
-535.150	-200.000	-0.022	-0.168
-534.135	319.554	-0.112	-0.217
-533.121	-81.008	0.303	-0.102
-532.106	-200.000	0.018	-0.323
-531.091	1.898	0.123	-0.090
-530.077	800.000	0.045	0.163
-529.062	-8.997	0.143	-0.098
-528.048	-126.882	0.178	0.027
-527.033	253.717	-0.094	-0.163
-526.018	-86.610	0.200	-0.063
-525.004	-89.932	0.558	-0.166
-523.989	-200.000	-0.010	-0.185
-522.975	-81.987	-0.337	-0.112
-521.960	-131.874	0.138	-0.018
-520.945	30.646	0.077	-0.067
-519.931	-78.549	0.078	0.027
-518.916	-65.175	0.155	-0.064
-517.902	-69.441	0.057	-0.022
-516.887	-56.768	-0.108	-0.049
-515.872	190.196	0.112	0.172
-514.858	146.014	-0.158	0.215
-513.843	-81.277	-0.490	-0.165
-512.829	-85.244	-0.069	-0.022
-511.814	248.082	0.155	0.267
-510.799	135.506	-0.099	0.132
-509.785	-200.000	-0.044	0.334
-508.770	-88.128	0.232	0.071
-507.756	-75.795	0.191	0.069
-506.741	196.524	-0.102	0.158
-505.726	340.691	0.044	-0.088
-504.712	-200.000	0.055	-0.369
-503.697	14.778	0.037	0.029
-502.683	23.429	-0.202	0.169
-501.668	-51.867	-0.127	0.060
-500.653	-200.000	-0.006	0.347
-499.639	-200.000	0.058	-0.279
-498.624	-65.624	-0.257	0.105
-497.610	19.696	-0.349	0.286
-496.595	61.738	0.066	0.067
-495.581	800.000	-0.055	-0.179
-494.566	-23.871	0.088	-0.054
-493.551	359.596	0.183	0.372
-492.537	-138.915	0.146	0.016
-491.522	-98.921	-0.231	-0.060
-490.508	800.000	0.060	0.213
-489.493	-114.829	-0.126	0.024
-488.478	-54.798	-0.302	0.139
-487.464	29.601	-0.123	-0.106
-486.449	-110.148	-0.177	0.038
-485.435	800.000	0.091	0.349
-484.420	-131.383	0.139	0.019
-483.405	-53.599	0.247	0.115
-482.391	65.749	-0.140	0.144
-481.376	-97.565	-0.163	0.043
-480.362	-20.860	-0.321	0.200
-479.347	-176.295	-0.104	-0.003
-478.332	370.757	0.100	-0.205
-477.318	-200.000	-0.033	0.285
-476.303	227.632	0.133	-0.220
-475.289	-200.000	-0.037	0.289
-474.274	-63.204	-0.384	0.161
-473.259	-36.079	-0.185	0.102
-472.245	720.063	-0.120	-0.324
-471.230	379.244	0.184	-0.383
-470.216	-164.631	-0.138	0.006
-469.201	-0.189	-0.114	-0.083
-468.186	-200.000	0.028	0.157
-467.172	-76.553	-0.128	0.046
-466.157	800.000	-0.054	0.197
-465.143	43.975	-0.053	-0.050
-464.128	361.154	0.036	-0.073
-463.113	-32.107	-0.274	-0.155
-462.099	25.632	0.267	-0.226
-461.084	775.961	-0.070	-0.194
-460.070	-2.841	-0.080	0.056
-459.055	-167.776	-0.327	0.013
-458.040	42.825	0.145	0.135
-457.026	-63.117	0.114	0.048
-456.011	-57.340	-0.071	-0.032
-454.997	51.739	-0.252	-0.243
-453.982	-200.000	-0.017	-0.225
-452.968	-141.925	0.218	0.022
-451.953	690.931	-0.067	0.178
-450.938	373.613	-0.149	-0.308
-449.924	800.000	-0.076	-0.219
-448.909	-200.000	0.050	0.243
-447.895	163.333	-0.036	0.051
-446.880	-200.000	0.015	0.184
-445.865	-200.000	0.000	0.021
-444.851	-20.134	-0.123	-0.077
-443.836	-89.815	0.084	-0.025
-442.822	527.203	0.088	0.210
-441.807	800.000	-0.084	0.293
-440.792	226.352	-0.105	0.172
-439.778	282.424	0.001	0.003
-438.763	-58.397	-0.192	0.085
-437.749	-31.135	0.163	0.093
-436.734	-57.969	-0.202	-0.090
-435.719	800.000	-0.014	-0.061
-434.705	49.038	0.216	-0.206
-433.690	-97.425	-0.247	0.065
-432.676	-82.704	-0.162	0.053
-431.661	-200.000	0.033	-0.212
-430.646	-113.371	0.180	0.036
-429.632	-186.296	0.120	0.002
-428.617	49.901	-0.175	0.167
-427.603	-119.073	0.092	0.016
-426.588	-200.000	0.057	0.314
-425.573	32.824	-0.165	-0.144
-424.559	114.495	0.125	0.154
-423.544	159.785	-0.108	0.152
-422.530	-200.000	-0.009	0.118
-421.515	268.222	-0.075	-0.132
-420.500	-200.000	0.009	-0.094
-419.486	-58.809	-0.230	0.101
-418.471	-62.284	0.228	0.096
-417.457	72.816	-0.336	-0.355
-416.442	-60.472	0.259	-0.112
-415.428	-86.562	0.318	0.099
-414.413	91.885	-0.150	-0.171
-413.398	-150.263	0.256	-0.020
-412.384	473.322	0.123	-0.282
-411.369	-105.015	-0.397	0.092
-410.355	-200.000	-0.002	0.156
-409.340	800.000	0.049	0.191
-408.325	-157.579	0.180	-0.011
-407.311	-33.270	-0.145	0.081
-406.296	88.437	0.104	-0.117
-405.282	18.224	0.197	-0.159
-404.267	786.472	-0.084	0.233
-403.252	-107.712	0.288	0.064
-402.238	30.073	0.154	0.133
-401.223	18.300	0.262	0.212
-400.209	5.654	-0.273	0.205
-399.194	-40.143	0.114	0.060
-398.179	-194.004	-0.099	-0.001
-397.165	104.055	0.109	-0.130
-396.150	773.214	-0.024	-0.066
-395.136	-81.232	0.183	-0.061
-394.121	800.000	0.035	-0.134
-393.106	423.550	-0.010	0.021
-392.092	220.274	-0.173	0.281
-391.077	-136.169	-0.114	0.013
-390.063	103.694	-0.119	-0.142
-389.048	96.104	0.201	0.233
-388.033	-190.406	0.153	0.002
-387.019	-28.479	0.202	0.118
-386.004	29.601	0.109	-0.094
-384.990	-67.217	0.045	0.018
-383.975	31.164	0.032	0.027
-382.960	-166.534	-0.224	0.009
-381.946	589.806	0.050	-0.126
-380.931	-200.000	-0.001	0.195
-379.917	-138.955	-0.210	0.023
-378.902	171.341	0.154	-0.223
-377.888	800.000	-0.085	-0.258
-376.873	-200.000	-0.086	0.550
-375.858	561.247	0.067	0.164
-374.844	266.444	-0.135	0.239
-373.829	-200.000	-0.005	0.134
-372.815	-84.971	0.185	0.059
-371.800	227.211	0.192	-0.316
-370.785	84.369	0.232	0.256
-369.771	-77.246	0.230	0.081
-368.756	-28.574	-0.286	0.167
-367.742	-105.444	-0.325	0.075
-366.727	-200.000	0.000	0.040
-365.712	155.785	-0.112	0.156
-364.698	-54.212	0.199	0.091
-363.683	-50.832	-0.335	0.159
-362.669	248.979	0.157	0.269
-361.654	68.539	-0.262	-0.272
-360.639	27.230	0.046	0.039
-359.625	23.350	0.267	0.222
-358.610	251.145	0.113	0.195
-357.596	-80.361	0.180	-0.061
-356.581	-66.257	-0.381	0.154
-355.566	158.355	0.060	-0.085
-354.552	-200.000	0.037	0.360
-353.537	-54.424	-0.232	-0.106
-352.523	-200.000	0.026	-0.239
-351.508	-113.929	-0.200	0.039
-350.493	71.158	-0.136	-0.143
-349.479	800.000	-0.045	-0.151
-348.464	-38.082	-0.136	0.073
-347.450	388.215	-0.055	0.115
-346.435	-45.755	-0.198	0.099
-345.420	52.848	0.070	-0.068
-344.406	-85.346	0.227	0.072
-343.391	-200.000	-0.020	0.266
-342.377	608.199	0.116	-0.293
-341.362	301.417	0.069	-0.130
-340.348	-109.390	0.073	0.016
-339.333	582.083	-0.056	-0.138
-338.318	180.410	-0.073	-0.109
-337.304	746.033	0.094	-0.256
-336.289	540.911	-0.076	-0.183
-335.275	-134.753	-0.252	-0.031
-334.260	-176.839	0.445	0.011
-333.245	378.505	-0.056	-0.115
-332.231	-11.651	-0.064	0.043
-331.216	-75.525	-0.169	-0.061
-330.202	-36.121	-0.257	0.140
-329.187	68.076	0.087	0.090
-328.172	-24.288	-0.146	0.088
-327.158	0.488	-0.309	0.223
-326.143	-200.000	-0.059	0.290
-325.129	-200.000	-0.008	-0.121
-324.114	39.905	-0.067	0.060
-323.099	98.287	0.134	-0.156
-322.085	-193.509	0.288	0.003
-321.070	429.641	0.125	0.273
-320.056	-21.162	-0.122	-0.075
-319.041	-151.178	0.136	0.010
-318.026	259.896	-0.125	0.218
-317.012	78.127	0.052	0.056
-315.997	134.752	-0.145	0.190
-314.983	-127.919	-0.325	0.047
-313.968	-130.658	0.192	-0.026
-312.953	-107.019	-0.425	0.095
-311.939	451.455	0.045	0.101
-310.924	800.000	0.025	0.075
-309.910	17.691	0.109	-0.087
-308.895	18.495	0.187	0.151
-307.880	-200.000	-0.025	0.200
-306.866	-200.000	-0.002	0.019
-305.851	-73.134	0.111	0.041
-304.837	-132.097	0.152	-0.020
-303.822	368.236	0.057	0.116
-302.807	800.000	0.071	0.283
-301.793	532.324	-0.010	0.025
-300.778	-200.000	0.057	0.537
-299.764	800.000	0.062	-0.196
-298.749	121.353	-0.142	0.179
-297.735	-78.255	-0.140	-0.049
-296.720	-5.100	0.240	0.167
-295.705	170.205	-0.286	0.412
-294.691	48.730	-0.125	0.118
-293.676	98.086	0.204	0.236
-292.662	-200.000	-0.003	0.172
-291.647	122.094	-0.082	0.103
-290.632	141.720	0.163	0.218
-289.618	501.804	-0.061	0.143
-288.603	800.000	-0.021	-0.063
-287.589	138.694	-0.163	-0.216
-286.574	-21.237	-0.141	0.087
-285.559	218.903	0.245	-0.395
-284.545	265.457	-0.018	-0.032
-283.530	-200.000	-0.012	0.182
-282.516	-200.000	-0.020	0.390
-281.501	800.000	-0.061	0.217
-280.486	-66.337	-0.275	-0.110
-279.472	-137.573	0.254	-0.029
-278.457	-97.318	-0.040	-0.011
-277.443	-10.632	-0.161	-0.107
-276.428	167.878	-0.107	-0.154
-275.413	-62.338	0.255	-0.107
-274.399	-76.046	0.404	0.144
-273.384	-200.000	-0.049	-0.443
-272.370	8.279	0.190	0.144
-271.355	-48.332	-0.052	0.025
-270.340	-177.154	-0.321	0.008
-269.326	54.278	0.107	0.103
-268.311	-200.000	-0.021	0.201
-267.297	-8.568	-0.357	-0.242
-266.282	118.004	-0.175	0.218
-265.267	20.060	0.056	-0.046
-264.253	67.716	-0.085	-0.087
-263.238	-200.000	0.013	-0.113
-262.224	28.151	0.205	-0.174
-261.209	110.707	0.034	0.041
-260.195	28.239	0.131	0.112
-259.180	323.828	-0.041	-0.079
-258.165	-169.519	-0.245	-0.009
-257.151	-134.577	0.217	0.027
-256.136	-120.901	0.109	0.018
-255.122	701.750	-0.042	-0.111
-254.107	800.000	0.161	-0.459
-253.092	-200.000	-0.007	0.485
-252.078	-45.770	-0.338	-0.168
-251.063	-29.556	0.014	-0.008
-250.049	-98.829	-0.138	0.035
-249.034	105.513	0.238	0.284
-248.019	173.954	-0.098	0.142
-247.005	67.566	0.103	-0.106
-245.990	800.000	-0.014	0.060
-244.976	441.257	0.168	-0.371
-243.961	78.274	0.236	-0.253
-242.946	43.034	0.144	-0.132
-241.932	163.438	0.163	-0.230
-240.917	2.993	-0.231	0.169
-239.903	1.433	0.266	-0.192
-238.888	-200.000	-0.043	0.339
-237.873	-53.102	0.143	-0.066
-236.859	-200.000	-0.015	-0.402
-235.844	169.875	-0.137	0.198
-234.830	-200.000	-0.011	-0.059
-233.815	-200.000	-0.021	-0.286
-232.800	133.464	-0.215	-0.280
-231.786	800.000	-0.083	-0.261
-230.771	124.032	-0.065	-0.082
-229.757	800.000	-0.089	-0.290
-228.742	-29.631	-0.176	-0.101
-227.727	3.307	0.123	0.090
-226.713	-200.000	0.046	0.238
-225.698	-132.533	0.323	-0.042
-224.684	210.863	0.116	0.184
-223.669	-0.068	-0.364	0.261
-222.655	-179.865	0.130	0.003
-221.640	2.896	0.206	0.150
-220.625	-200.000	-0.093	0.591
-219.611	-200.000	0.014	0.081
-218.596	-175.675	-0.099	-0.003
-217.582	-48.794	0.295	-0.143
-216.567	-62.813	-0.128	0.053
-215.552	800.000	-0.050	0.185
-214.538	207.171	-0.086	-0.134
-213.523	2.002	-0.228	0.166
-212.509	-200.000	-0.014	-0.212
-211.494	-54.999	-0.235	0.107
-210.479	68.267	0.172	-0.177
-209.465	-19.376	0.075	0.047
-208.450	-149.125	-0.209	0.017
-207.436	25.168	0.198	0.166
-206.421	178.758	0.116	0.171
-205.406	91.912	0.130	-0.147
-204.392	-94.423	-0.140	-0.038
-203.377	-54.258	0.161	0.074
-202.363	-135.072	0.240	-0.029
-201.348	268.387	0.134	0.236
-200.333	-200.000	0.007	-0.211
-199.319	114.612	0.137	-0.167
-198.304	800.000	0.056	-0.188
-197.290	458.907	0.150	-0.336
-196.275	800.000	-0.031	-0.133
-195.260	800.000	0.054	-0.190
-194.246	-200.000	0.020	-0.361
-193.231	312.535	0.078	-0.147
-192.217	460.586	-0.054	-0.120
-191.202	-200.000	-0.047	0.320
-190.187	-9.855	-0.022	-0.015
-189.173	-38.990	0.257	0.136
-188.158	-200.000	0.022	-0.169
-187.144	240.354	0.115	0.192
-186.129	-200.000	0.024	0.273
-185.114	-166.188	0.207	0.009
-184.100	800.000	-0.091	-0.316
-183.085	242.941	-0.138	0.233
-182.071	-59.663	0.213	-0.092
-181.056	-154.246	0.204	0.014
-180.042	800.000	0.072	-0.278
-179.027	266.103	0.267	-0.467
-178.012	83.012	-0.270	-0.295
-176.998	710.778	0.027	0.072
-175.983	45.464	-0.074	-0.069
-174.969	3.850	-0.141	-0.103
-173.954	224.895	-0.065	-0.105
-172.939	-200.000	-0.002	0.012
-171.925	-83.296	0.485	-0.156
-170.910	88.738	0.120	-0.134
-169.896	-200.000	-0.010	0.087
-168.881	149.583	0.171	-0.232
-167.866	102.486	0.049	0.058
-166.852	386.198	0.026	-0.055
-165.837	-65.151	0.211	-0.085
-164.823	244.457	0.131	0.221
-163.808	-85.792	-0.148	-0.046
-162.793	120.974	0.157	0.196
-161.779	402.772	-0.085	-0.180
-160.764	64.001	0.238	0.241
-159.750	189.993	0.088	-0.132
-158.735	800.000	-0.041	0.117
-157.720	-138.145	-0.073	0.008
-156.706	54.597	-0.141	-0.136
-155.691	45.603	0.110	0.102
-154.677	-117.359	-0.310	-0.056
-153.662	289.588	0.145	-0.263
-152.647	800.000	0.101	-0.296
-151.633	-200.000	0.005	0.091
-150.618	-191.260	0.280	0.003
-149.604	-200.000	-0.009	-0.071
-148.589	-100.071	-0.165	0.041
-147.574	-2.413	-0.144	0.101
-146.560	-11.416	0.255	-0.168
-145.545	-128.822	0.343	0.048
-144.531	-139.539	0.025	0.003
-143.516	159.149	0.143	0.199
-142.502	25.498	0.075	-0.063
-141.487	461.752	-0.042	0.094
-140.472	-138.972	0.304	0.033
-139.458	-71.828	-0.030	-0.011
-138.443	-144.387	0.238	-0.022
-137.429	-58.141	-0.333	0.146
-136.414	-162.126	0.160	0.008
-135.399	-199.776	0.120	-0.001
-134.385	715.683	-0.147	0.391
-133.370	-80.609	0.254	0.085
-132.356	453.673	-0.060	-0.134
-131.341	193.002	0.155	-0.235
-130.326	389.001	-0.100	0.207
-129.312	-200.000	-0.015	0.158
-128.297	467.251	0.062	-0.139
-127.283	13.657	0.186	0.145
-126.268	299.133	0.146	-0.269
-125.253	-99.640	0.128	0.032
-124.239	258.543	0.184	0.317
-123.224	391.384	0.113	-0.234
-122.210	-40.760	0.458	-0.238
-121.195	-16.492	0.227	0.144
-120.180	1.275	0.223	-0.161
-119.166	67.879	-0.247	0.254
-118.151	60.714	0.087	0.086
-117.137	800.000	-0.081	0.247
-116.122	-84.327	0.089	0.028
-115.107	-200.000	0.073	0.339
-114.093	-200.000	-0.039	0.184
-113.078	-113.769	0.162	-0.032
-112.064	-200.000	-0.008	-0.291
-111.049	-200.000	0.013	0.217
-110.034	213.970	0.064	-0.101
-109.020	93.771	-0.083	0.094
-108.005	-140.599	-0.130	0.014
-106.991	694.922	-0.125	0.330
-105.976	260.969	0.127	-0.221
-104.962	147.821	-0.152	-0.206
-103.947	-200.000	-0.009	0.139
-102.932	-94.538	-0.163	0.044
-101.918	-200.000	0.003	0.276
-100.903	-200.000	-0.062	0.288
-99.889	317.210	0.040	-0.076
-98.874	139.834	0.202	0.267
-97.859	-200.000	-0.016	0.190
-96.845	248.865	-0.198	-0.336
-95.830	-188.280	0.347	-0.004
-94.816	22.850	0.118	-0.097
-93.801	-122.868	-0.092	0.015
-92.786	673.379	0.034	-0.089
-91.772	101.380	0.181	-0.211
-90.757	-138.795	-0.124	-0.014
-89.743	203.722	0.194	0.300
-88.728	22.272	0.176	-0.144
-87.713	382.062	-0.138	-0.284
-86.699	800.000	0.050	-0.151
-85.684	-125.315	-0.229	0.035
-84.670	73.731	0.033	-0.035
-83.655	800.000	0.068	0.207
-82.640	-95.359	-0.125	0.033
-81.626	-4.224	-0.058	-0.040
-80.611	48.985	0.238	-0.223
-79.597	800.000	-0.050	-0.190
-78.582	-84.776	0.213	0.067
-77.567	132.428	0.163	-0.211
-76.553	-101.867	-0.119	0.029
-75.538	395.818	0.091	0.190
-74.524	-3.394	-0.162	0.113
-73.509	-105.948	-0.441	-0.099
-72.494	17.604	0.400	-0.318
-71.480	-99.260	-0.302	-0.076
-70.465	800.000	0.040	0.112
-69.451	-200.000	-0.022	0.188
-68.436	-44.764	-0.105	-0.052
-67.422	-200.000	0.019	-0.222
-66.407	-200.000	-0.037	0.320
-65.392	381.587	-0.123	0.252
-64.378	143.441	-0.150	0.200
-63.363	527.814	0.100	0.235
-62.349	-200.000	0.001	0.214
-61.334	-26.365	-0.685	-0.402
-60.319	-200.000	-0.011	0.355
-59.305	141.727	0.194	-0.257
-58.290	512.254	0.252	0.587
-57.276	800.000	0.577	1.717
-56.261	-200.000	71.705	528.936
-55.246	605.483	1270.063	3162.109
-54.232	146.139	2496.274	3347.506
-53.217	115.043	2341.773	2856.177
-52.203	53.932	1959.991	1882.583
-51.188	47.717	1748.176	1630.444
-50.173	44.676	1700.417	1562.552
-49.159	58.068	1731.786	1695.004
-48.144	64.937	1750.496	1766.200
-47.130	47.372	1715.133	1596.716
-46.115	44.054	1701.500	1558.516
-45.100	43.890	1696.704	1552.804
-44.086	43.855	1693.930	1549.936
-43.071	43.813	1691.613	1547.431
-42.057	43.751	1689.334	1544.819
-41.042	43.815	1687.646	1543.700
-40.027	43.893	1685.170	1541.963
-39.013	43.869	1683.128	1539.856
-37.998	43.797	1681.664	1537.908
-36.984	43.930	1679.466	1536.841
-35.969	43.981	1678.568	1536.350
-34.954	44.080	1676.772	1535.390
-33.940	44.016	1675.183	1533.392
-32.925	44.030	1672.949	1531.394
-31.911	44.019	1671.678	1530.088
-30.896	43.951	1669.968	1527.946
-29.881	43.995	1667.465	1525.929
-28.867	43.908	1666.559	1524.380
-27.852	43.944	1665.138	1523.293
-26.838	43.984	1663.405	1521.946
-25.823	44.004	1661.908	1520.666
-24.809	44.099	1660.267	1519.817
-23.794	44.032	1659.009	1518.105
-22.779	44.078	1657.361	1516.881
-21.765	43.987	1655.650	1514.577
-20.750	44.030	1653.700	1513.054
-19.736	44.041	1652.517	1511.991
-18.721	44.037	1651.143	1510.641
-17.706	44.066	1649.392	1509.200
-16.692	44.064	1647.647	1507.523
-15.677	44.007	1646.379	1505.886
-14.663	44.030	1645.139	1504.862
-13.648	44.002	1644.018	1503.566
-12.633	44.033	1642.252	1502.122
-11.619	44.016	1640.396	1500.240
-10.604	44.105	1638.769	1499.350
-9.590	43.994	1637.916	1497.689
-8.575	44.022	1636.897	1496.903
-7.560	44.023	1635.608	1495.675
-6.546	44.104	1633.948	1494.696
-5.531	43.996	1633.089	1493.051
-4.517	44.065	1631.450	1492.005
-3.502	43.966	1630.551	1490.390
-2.487	44.071	1629.554	1490.197
-1.473	44.007	1617.793	1478.913
-0.458	41.378	1597.148	1441.011
0.556	36.142	1593.874	1398.911
1.571	32.745	1616.391	1393.499
2.586	31.713	1630.239	1397.619
3.600	27.628	1577.043	1322.339
4.615	15.171	1456.198	1136.904
5.629	3.579	1380.160	1002.504
6.644	1.271	1369.375	979.690
7.659	1.213	1367.613	977.970
8.673	1.071	1366.616	976.255
9.688	1.016	1364.987	974.652
10.702	0.807	1362.204	971.240
11.717	4.540	1370.728	1001.313
12.731	15.557	1391.853	1088.402
13.746	23.661	1404.941	1151.321
14.761	24.764	1405.823	1159.093
15.775	25.036	1405.366	1160.374
16.790	25.097	1404.874	1160.263
17.804	25.097	1404.434	1159.797
18.819	25.257	1404.364	1160.670
19.834	25.380	1402.893	1160.147
20.848	25.366	1402.294	1159.459
21.863	25.432	1401.588	1159.195
22.877	25.444	1400.661	1158.406
23.892	25.299	1400.551	1157.280
24.907	25.420	1399.082	1156.742
25.921	25.332	1398.530	1155.613
26.936	25.451	1396.761	1154.813
27.950	25.417	1395.976	1153.844
28.965	25.421	1394.677	1152.694
29.980	25.474	1392.990	1151.541
30.994	25.291	1392.288	1149.687
32.009	25.326	1391.284	1148.980
33.023	25.399	1390.022	1148.299
34.038	25.371	1388.791	1147.001
35.053	25.399	1387.669	1146.153
36.067	25.380	1386.751	1145.174
37.082	25.413	1385.450	1144.206
38.096	25.422	1384.873	1143.687
39.111	25.401	1383.869	1142.622
40.126	25.360	1383.474	1141.937
41.140	25.278	1383.128	1141.029
42.155	25.348	1382.751	1141.063
43.169	25.429	1382.724	1141.454
44.184	25.271	1382.542	1140.197
45.199	25.322	1381.910	1139.896
46.213	25.415	1381.124	1139.739
47.228	25.341	1380.408	1138.577
48.242	25.314	1379.248	1137.352
49.257	25.399	1377.731	1136.537
50.271	25.407	1375.931	1135.003
51.286	25.367	1374.841	1133.751
52.301	25.307	1373.442	1132.115
53.315	25.363	1372.919	1131.941
54.330	25.400	1372.029	1131.336
55.344	25.425	1370.685	1130.284
56.359	25.367	1369.762	1129.058
57.374	25.356	1369.236	1128.459
58.388	25.348	1368.212	1127.466
59.403	25.231	1368.246	1126.660
60.417	25.323	1367.401	1126.442
61.432	25.280	1366.713	1125.506
62.447	25.369	1365.358	1124.846
63.461	25.394	1364.575	1124.256
64.476	25.340	1363.654	1123.062
65.490	25.392	1362.425	1122.277
66.505	25.413	1360.771	1120.944
67.520	25.394	1359.419	1119.612
68.534	25.455	1358.649	1119.261
69.549	25.436	1357.255	1117.895
70.563	25.385	1356.756	1117.068
71.578	25.326	1355.961	1115.948
72.593	25.364	1354.824	1115.150
73.607	25.396	1354.417	1114.914
74.622	25.489	1353.302	1114.475
75.636	25.450	1352.487	1113.464
76.651	25.429	1351.989	1112.826
77.666	25.318	1351.852	1111.925
78.680	25.286	1351.156	1111.055
79.695	25.481	1349.708	1110.970
80.709	25.426	1349.386	1110.266
81.724	25.336	1348.494	1108.881
82.739	25.416	1347.329	1108.320
83.753	25.442	1346.367	1107.586
84.768	25.356	1345.678	1106.393
85.782	25.398	1344.241	1105.373
86.797	25.431	1343.153	1104.581
87.812	25.286	1342.381	1102.963
88.826	25.251	1341.301	1101.760
89.841	25.481	1339.595	1101.674
90.855	25.449	1338.795	1100.718
91.870	25.418	1338.003	1099.783
92.884	25.426	1336.899	1098.829
93.899	25.400	1336.519	1098.255
94.914	25.401	1335.580	1097.393
95.928	25.456	1334.549	1096.786
96.943	25.419	1334.266	1096.232
97.957	25.441	1333.697	1095.801
98.972	25.477	1332.696	1095.101
99.987	25.433	1331.612	1093.846
101.001	25.363	1330.561	1092.460
102.016	25.425	1329.227	1091.641
103.030	25.464	1329.087	1091.673
104.045	25.372	1328.134	1090.230
105.060	25.462	1327.309	1090.006
106.074	25.468	1325.751	1088.662
107.089	25.530	1324.935	1088.271
108.103	25.421	1324.123	1086.850
109.118	25.470	1322.943	1086.085
110.133	25.436	1322.186	1085.156
111.147	25.387	1320.959	1083.761
112.162	25.461	1319.528	1082.940
113.176	25.582	1318.555	1082.770
114.191	25.462	1317.645	1081.207
115.206	25.453	1316.662	1080.248
116.220	25.553	1315.595	1079.878
117.235	25.459	1315.087	1078.803
118.249	25.500	1313.866	1077.950
119.264	25.425	1313.043	1076.733
120.279	25.581	1311.759	1076.516
121.293	25.605	1310.920	1075.875
122.308	25.536	1310.749	1075.230
123.322	25.544	1309.593	1074.232
124.337	25.578	1308.719	1073.625
125.352	25.585	1307.712	1072.745
126.366	25.680	1306.774	1072.449
127.381	25.490	1306.282	1070.813
128.395	25.563	1305.561	1070.562
129.410	25.626	1304.458	1069.941
130.424	25.580	1304.221	1069.376
131.439	25.589	1302.882	1068.239
132.454	25.544	1302.007	1067.160
133.468	25.604	1301.288	1066.833
134.483	25.648	1300.883	1066.665
135.497	25.510	1300.456	1065.402
136.512	25.580	1299.428	1064.883
137.527	25.629	1298.447	1064.272
138.541	25.527	1296.746	1062.180
139.556	25.615	1295.524	1061.606
140.570	25.570	1294.959	1060.786
141.585	25.568	1293.480	1059.468
142.600	25.549	1292.671	1058.597
143.614	25.617	1291.981	1058.342
144.629	25.641	1290.758	1057.383
145.643	25.523	1289.743	1055.770
146.658	25.507	1288.855	1054.853
147.673	25.483	1287.939	1053.872
148.687	25.467	1287.239	1053.112
149.702	25.489	1285.965	1052.106
150.716	25.442	1284.768	1050.755
151.731	25.438	1283.483	1049.592
152.746	25.529	1282.405	1049.148
153.760	25.600	1281.185	1048.470
154.775	25.613	1280.273	1047.706
155.789	25.585	1279.214	1046.580
156.804	25.572	1278.460	1045.798
157.819	25.529	1277.675	1044.813
158.833	25.495	1277.113	1044.065
159.848	25.576	1276.389	1043.849
160.862	25.542	1275.876	1043.143
161.877	25.462	1274.810	1041.711
162.892	25.630	1273.937	1041.879
163.906	25.639	1273.108	1041.162
164.921	25.620	1272.522	1040.482
165.935	25.678	1271.374	1039.786
166.950	25.652	1270.926	1039.175
167.964	25.608	1270.414	1038.414
168.979	25.669	1269.713	1038.098
169.994	25.609	1269.493	1037.482
171.008	25.646	1268.501	1036.794
172.023	25.659	1267.521	1035.973
173.037	25.666	1267.004	1035.500
174.052	25.686	1266.179	1034.852
175.067	25.699	1265.774	1034.502
176.081	25.731	1264.500	1033.551
177.096	25.568	1264.173	1032.259
178.110	25.676	1263.071	1031.887
179.125	25.830	1261.410	1031.319
180.140	25.782	1260.644	1030.328
181.154	25.735	1259.546	1029.069
182.169	25.705	1258.773	1028.178
183.183	25.746	1257.666	1027.416
184.198	25.705	1256.899	1026.463
185.213	25.706	1256.014	1025.659
186.227	25.648	1255.316	1024.667
187.242	25.738	1254.182	1024.163
188.256	25.668	1253.264	1022.924
189.271	25.834	1252.241	1022.939
190.286	25.777	1251.984	1022.315
191.300	25.726	1251.446	1021.499
192.315	25.713	1250.806	1020.812
193.329	25.748	1250.575	1020.730
194.344	25.778	1250.010	1020.349
195.359	25.844	1249.170	1019.945
196.373	25.699	1248.847	1018.773
197.388	25.613	1248.743	1018.108
198.402	25.604	1248.684	1017.922
199.417	25.710	1247.793	1017.706
200.432	25.769	1246.868	1017.191
201.446	25.759	1246.232	1016.527
202.461	25.615	1246.073	1015.496
203.475	25.697	1244.796	1014.828
204.490	25.760	1243.687	1014.188
205.504	25.699	1243.013	1013.207
206.519	25.806	1241.705	1012.650
207.534	25.765	1241.113	1011.848
208.548	25.799	1240.102	1011.127
209.563	25.782	1239.575	1010.510
210.577	25.744	1238.677	1009.474
211.592	25.717	1238.447	1009.048
212.607	25.834	1236.810	1008.281
213.621	25.927	1236.183	1008.200
214.636	25.907	1235.267	1007.249
215.650	25.872	1234.373	1006.238
216.665	25.888	1233.413	1005.458
217.680	25.852	1232.506	1004.427
218.694	25.922	1231.761	1004.123
219.709	25.924	1231.444	1003.786
220.723	25.879	1230.650	1002.797
221.738	25.764	1230.218	1001.716
222.753	25.861	1229.218	1001.353
223.767	25.806	1228.579	1000.438
224.782	25.925	1228.278	1000.767
225.796	25.964	1227.749	1000.465
226.811	26.001	1227.016	999.979
227.826	26.103	1226.144	999.749
228.840	25.983	1225.560	998.518
229.855	25.932	1225.033	997.722
230.869	25.977	1224.168	997.176
231.884	25.913	1223.500	996.189
232.899	25.885	1223.132	995.646
233.913	25.980	1222.401	995.485
234.928	25.989	1221.613	994.808
235.942	26.001	1220.819	994.139
236.957	25.999	1220.512	993.791
237.972	26.080	1219.551	993.364
238.986	26.043	1219.347	992.906
240.001	26.129	1218.551	992.643
241.015	26.114	1217.754	991.827
242.030	26.103	1217.143	991.179
243.045	26.108	1216.361	990.481
244.059	26.143	1215.441	989.838
245.074	26.160	1214.246	988.869
246.088	26.196	1213.836	988.644
247.103	26.165	1212.865	987.598
248.117	26.045	1212.375	986.458
249.132	26.044	1211.555	985.696
250.147	26.187	1210.941	985.888
251.161	26.226	1210.144	985.369
252.176	26.209	1209.447	984.618
253.190	26.274	1208.886	984.427
254.205	26.249	1208.313	983.742
255.220	26.207	1207.630	982.865
256.234	26.132	1207.402	982.189
257.249	26.231	1205.985	981.484
258.263	26.261	1205.696	981.327
259.278	26.252	1205.140	980.735
260.293	26.309	1204.659	980.568
261.307	26.368	1203.951	980.228
262.322	26.278	1203.354	979.168
263.336	26.269	1203.022	978.762
264.351	26.250	1202.570	978.200
265.366	26.216	1201.845	977.343
266.380	26.220	1201.272	976.811
267.395	26.312	1200.270	976.409
268.409	26.274	1200.056	975.944
269.424	26.204	1199.352	974.904
270.439	26.393	1198.331	975.007
271.453	26.241	1198.228	974.017
272.468	26.284	1197.210	973.334
273.482	26.206	1196.860	972.546
274.497	26.264	1196.175	972.216
275.512	26.399	1195.986	972.702
276.526	26.327	1195.306	971.674
277.541	26.357	1194.515	971.109
278.555	26.378	1193.559	970.360
279.570	26.479	1192.709	970.120
280.585	26.503	1191.847	969.464
281.599	26.416	1191.332	968.493
282.614	26.282	1190.501	967.012
283.628	26.350	1189.654	966.604
284.643	26.441	1188.562	966.117
285.657	26.438	1187.960	965.529
286.672	26.320	1187.139	964.145
287.687	26.391	1186.235	963.702
288.701	26.522	1185.580	963.786
289.716	26.547	1184.532	962.980
290.730	26.540	1183.904	962.346
291.745	26.535	1183.424	961.846
292.760	26.659	1182.773	961.888
293.774	26.607	1182.249	961.105
294.789	26.566	1181.863	960.485
295.803	26.579	1181.132	959.873
296.818	26.557	1180.459	959.128
297.833	26.589	1179.584	958.502
298.847	26.596	1179.042	958.010
299.862	26.633	1178.284	957.509
300.876	26.590	1177.287	956.385
301.891	26.576	1177.155	956.120
302.906	26.628	1176.609	955.865
303.920	26.630	1176.028	955.320
304.935	26.709	1175.031	954.844
305.949	26.689	1174.317	954.074
306.964	26.677	1173.658	953.388
307.979	26.727	1173.305	953.282
308.993	26.647	1172.453	952.082
310.008	26.652	1171.554	951.295
311.022	26.654	1170.772	950.589
312.037	26.787	1170.157	950.702
313.052	26.779	1168.905	949.557
314.066	26.772	1167.961	948.669
315.081	26.786	1167.890	948.602
316.095	26.658	1167.129	947.231
317.110	26.831	1166.797	947.782
318.125	26.755	1166.331	946.923
319.139	26.805	1165.185	946.170
320.154	26.825	1164.500	945.631
321.168	26.656	1164.771	944.890
322.183	26.829	1163.551	944.714
323.197	26.846	1162.769	944.086
324.212	26.819	1162.521	943.658
325.227	26.989	1161.658	943.761
326.241	26.884	1161.292	942.833
327.256	26.833	1160.484	941.829
328.270	26.860	1159.654	941.214
329.285	26.884	1159.004	940.728
330.300	26.974	1158.159	940.424
331.314	27.004	1157.105	939.639
332.329	26.896	1156.842	938.784
333.343	27.064	1155.892	938.800
334.358	26.943	1155.054	937.411
335.373	27.062	1154.223	937.265
336.387	26.996	1154.022	936.681
337.402	27.028	1153.047	935.971
338.416	27.079	1152.634	935.814
339.431	26.968	1151.910	934.575
340.446	26.990	1151.206	934.030
341.460	27.039	1150.767	933.844
342.475	27.143	1149.674	933.411
343.489	27.020	1149.051	932.191
344.504	26.983	1148.381	931.375
345.519	27.097	1147.165	930.890
346.533	26.980	1147.004	930.076
347.548	27.181	1145.957	930.174
348.562	27.145	1145.082	929.200
349.577	27.127	1144.579	928.615
350.592	27.055	1143.739	927.487
351.606	27.066	1143.197	927.019
352.621	27.109	1142.185	926.335
353.635	27.190	1141.656	926.238
354.650	27.121	1141.338	925.546
355.665	27.106	1140.410	924.635
356.679	27.088	1140.209	924.302
357.694	27.273	1139.275	924.403
358.708	27.264	1138.655	923.768
359.723	27.078	1138.091	922.288
360.738	27.100	1137.480	921.823
361.752	27.240	1137.001	922.061
362.767	27.120	1136.663	921.098
363.781	27.280	1135.732	921.075
364.796	27.290	1135.123	920.545
365.810	27.283	1134.775	920.147
366.825	27.228	1134.062	919.213
367.840	27.361	1133.630	919.452
368.854	27.501	1132.691	919.314
369.869	27.351	1132.239	918.110
370.883	27.461	1131.409	917.911
371.898	27.458	1130.481	917.062
372.913	27.449	1130.165	916.680
373.927	27.398	1129.758	916.009
374.942	27.351	1129.120	915.177
375.956	27.344	1128.905	914.884
376.971	27.430	1128.054	914.549
377.986	27.473	1127.365	914.125
379.000	27.571	1126.774	914.052
380.015	27.493	1126.291	913.190
381.029	27.494	1125.768	912.689
382.044	27.471	1125.128	911.973
383.059	27.589	1124.127	911.675
384.073	27.572	1123.749	911.203
385.088	27.489	1123.112	910.190
386.102	27.530	1122.151	909.534
387.117	27.512	1121.380	908.738
388.132	27.505	1120.016	907.521
389.146	27.627	1119.528	907.652
390.161	27.600	1119.564	907.464
391.175	27.584	1118.256	906.246
392.190	27.633	1117.804	906.045
393.205	27.613	1117.133	905.318
394.219	27.563	1116.591	904.550
395.234	27.539	1115.559	903.515
396.248	27.633	1114.440	902.996
397.263	27.673	1113.698	902.514
398.278	27.766	1113.361	902.621
399.292	27.720	1112.885	901.929
400.307	27.795	1112.176	901.644
401.321	27.727	1111.433	900.624
402.336	27.746	1110.884	900.193
403.350	27.672	1110.394	899.350
404.365	27.711	1109.596	898.819
405.380	27.834	1108.607	898.543
406.394	27.798	1108.208	897.964
407.409	27.824	1107.538	897.469
408.423	27.887	1106.459	896.823
409.438	27.890	1105.833	896.250
410.453	27.880	1105.291	895.683
411.467	27.883	1104.351	894.858
412.482	27.847	1103.755	894.119
413.496	27.880	1103.084	893.659
414.511	27.983	1102.617	893.705
415.526	27.921	1101.746	892.619
416.540	28.008	1101.426	892.702
417.555	27.903	1101.304	892.015
418.569	27.965	1100.597	891.667
419.584	28.061	1100.262	891.782
420.599	27.968	1099.681	890.777
421.613	76.230	1277.637	1299.374
422.628	71.403	1303.580	1299.527
