DTS Sentinel unit serial number:	SN413079Multiplexer serial number:	ORYXHardware model number:	OX4-SRSoftware version number:	ORYX F/W v4.00 Oryx Data Collector v3.7.2.0data status	okinstallation	princeton_trtdifferential loss correction	single-endedforward channel	channel 2reverse channel	N/Adate	2019/09/12time	19:18:49forward acquisition time	15.00reverse acquisition time	0.00gamma	496.2192k internal	0.2325k external	0.2325temperature offset calibration	1.0146default loss term (dB/km)	0.3790temperature slope calibration	1.0000multiplexer offset coefficient	1.0000multiplexer slope coefficient	1.0000fibre end	0.00T internal ref (°C)	32.44T ext. ref 1 (°C)	3.17T ext. ref 2 (°C)	27.01length (m)	temperature (°C)	Stokes	anti-Stokes-747.200	800.000	-0.088	-0.320
-746.185	156.011	-0.068	0.095
-745.171	-144.716	0.450	-0.042
-744.156	67.337	-0.197	0.203
-743.142	-67.235	0.277	0.110
-742.127	-200.000	0.043	0.546
-741.112	-154.444	0.957	-0.065
-740.098	58.212	0.860	0.850
-739.083	-25.323	0.606	0.362
-738.069	-60.193	-0.643	0.277
-737.054	234.288	-0.404	0.672
-736.039	-26.836	-0.218	0.128
-735.025	377.432	0.166	0.342
-734.010	-30.257	0.799	0.458
-732.996	70.874	0.461	-0.481
-731.981	-161.787	0.556	0.029
-730.966	-21.237	-0.600	0.370
-729.952	-200.000	-0.035	-0.685
-728.937	-117.770	0.019	0.003
-727.923	-130.429	-0.301	0.041
-726.908	118.862	0.211	-0.263
-725.894	78.634	0.260	0.280
-724.879	-21.131	-0.878	-0.541
-723.864	-5.816	0.399	0.275
-722.850	800.000	0.087	0.323
-721.835	-135.524	-0.518	-0.062
-720.821	-200.000	-0.022	-0.824
-719.806	428.631	0.136	-0.297
-718.791	-116.490	-1.003	0.187
-717.777	343.425	-0.228	0.450
-716.762	-78.969	0.568	0.195
-715.748	7.473	-0.675	-0.508
-714.733	800.000	0.114	-0.341
-713.718	55.089	-0.144	0.140
-712.704	35.374	-0.307	0.272
-711.689	800.000	-0.101	-0.316
-710.675	-49.034	0.324	0.156
-709.660	800.000	-0.131	-0.390
-708.645	-166.601	0.664	-0.028
-707.631	-200.000	-0.042	-0.354
-706.616	42.613	-0.818	-0.750
-705.602	-33.766	-0.651	0.362
-704.587	98.185	0.500	-0.580
-703.572	-141.826	1.036	-0.104
-702.558	10.667	-0.085	0.065
-701.543	-79.141	-0.446	0.153
-700.529	18.501	-0.488	0.393
-699.514	12.342	0.389	0.302
-698.499	-81.282	-0.329	0.109
-697.485	212.538	-0.455	0.723
-696.470	272.929	0.376	-0.668
-695.456	-81.872	-0.961	0.317
-694.441	53.837	-0.290	-0.281
-693.426	-200.000	-0.116	0.762
-692.412	257.594	-0.287	-0.497
-691.397	131.564	-0.353	0.456
-690.383	-136.350	-0.830	0.097
-689.368	-34.540	-0.892	-0.492
-688.354	-37.717	0.453	-0.243
-687.339	119.928	-0.645	0.805
-686.324	-41.309	0.347	0.180
-685.310	797.033	0.159	-0.442
-684.295	-138.729	-0.393	0.043
-683.281	-102.560	0.074	-0.018
-682.266	-200.000	0.018	-1.008
-681.251	-111.061	-0.799	0.165
-680.237	149.311	-0.337	-0.459
-679.222	99.600	-0.215	0.250
-678.208	800.000	-0.162	-0.551
-677.193	-200.000	-0.102	0.892
-676.178	-100.793	-0.372	0.092
-675.164	-120.343	-1.304	0.224
-674.149	-87.773	0.196	0.059
-673.135	-200.000	-0.050	-0.577
-672.120	-57.211	0.622	0.276
-671.105	800.000	-0.090	-0.272
-670.091	-200.000	0.121	-0.969
-669.076	-154.470	-0.705	0.047
-668.062	800.000	0.094	-0.306
-667.047	800.000	0.063	0.261
-666.032	-200.000	-0.073	0.367
-665.018	124.690	-0.472	-0.598
-664.003	-190.275	-0.373	-0.004
-662.989	-200.000	0.103	-0.497
-661.974	-169.039	-0.673	0.025
-660.959	-19.371	-0.448	-0.279
-659.945	436.736	0.389	0.851
-658.930	-82.260	0.253	0.083
-657.916	-48.296	0.937	0.454
-656.901	-156.886	-0.769	0.047
-655.886	-85.249	0.533	0.167
-654.872	-78.823	-0.867	-0.297
-653.857	283.788	0.195	0.353
-652.843	-98.544	-0.425	-0.109
-651.828	558.629	-0.350	0.850
-650.814	149.891	-0.511	0.696
-649.799	155.308	-0.191	-0.265
-648.784	-2.151	0.738	0.521
-647.770	-18.471	-0.170	-0.107
-646.755	56.595	-0.484	0.473
-645.741	-115.352	-0.189	0.036
-644.726	-125.955	-0.348	-0.053
-643.711	-28.694	0.124	-0.072
-642.697	406.059	-0.089	0.189
-641.682	-73.948	0.962	-0.351
-640.668	-126.167	-0.528	-0.079
-639.653	-107.076	-1.063	-0.236
-638.638	800.000	0.187	0.646
-637.624	335.858	0.164	0.319
-636.609	800.000	0.167	0.716
-635.595	-69.899	0.340	-0.130
-634.580	-128.865	0.258	0.036
-633.565	-167.204	0.511	0.021
-632.551	-116.378	-0.734	0.136
-631.536	-200.000	-0.046	-0.328
-630.522	144.185	-0.317	-0.425
-629.507	6.696	-0.701	-0.524
-628.492	-33.366	-0.212	-0.118
-627.478	-24.545	-0.231	0.138
-626.463	-200.000	-0.187	0.874
-625.449	-200.000	-0.009	-0.133
-624.434	800.000	-0.227	-0.667
-623.419	-64.768	0.742	-0.302
-622.405	-35.682	0.353	-0.192
-621.390	223.567	0.318	-0.515
-620.376	800.000	-0.102	-0.329
-619.361	763.228	-0.099	0.269
-618.346	-85.201	0.676	-0.212
-617.332	-110.850	0.541	0.112
-616.317	-42.567	-0.735	-0.376
-615.303	92.233	-0.331	-0.374
-614.288	72.357	0.442	-0.463
-613.273	800.000	-0.217	0.783
-612.259	-71.054	-0.243	-0.092
-611.244	-25.113	-0.415	-0.247
-610.230	137.053	-0.495	0.649
-609.215	-133.081	-0.639	-0.081
-608.201	712.307	0.113	0.301
-607.186	-18.124	0.220	-0.138
-606.171	93.772	-0.441	0.501
-605.157	492.932	0.063	-0.144
-604.142	224.765	0.192	0.312
-603.128	51.442	0.818	0.779
-602.113	43.027	0.479	0.438
-601.098	34.908	-0.512	-0.450
-600.084	-200.000	0.001	0.214
-599.069	800.000	0.071	0.230
-598.055	-101.709	-0.385	0.094
-597.040	-46.319	-0.993	0.489
-596.025	218.635	-0.180	0.289
-595.011	143.412	-0.365	-0.487
-593.996	-39.791	0.445	0.233
-592.982	-32.944	-0.472	-0.263
-591.967	79.888	-0.472	-0.508
-590.952	-122.889	0.242	-0.039
-589.938	290.735	-0.219	0.400
-588.923	800.000	0.100	0.392
-587.909	160.346	0.398	-0.556
-586.894	496.470	0.342	-0.789
-585.879	-200.000	-0.020	0.125
-584.865	-200.000	-0.041	0.179
-583.850	-2.318	0.484	-0.341
-582.836	139.839	0.312	0.412
-581.821	-87.862	-1.012	-0.305
-580.806	138.599	0.605	0.796
-579.792	609.322	0.257	0.643
-578.777	-60.507	-0.326	0.139
-577.763	-83.335	0.615	0.198
-576.748	264.947	0.082	-0.142
-575.733	800.000	0.164	0.655
-574.719	110.323	0.410	0.494
-573.704	-74.395	0.143	-0.052
-572.690	-61.973	0.124	-0.052
-571.675	-84.403	0.305	-0.097
-570.661	-200.000	0.062	-0.376
-569.646	581.237	0.300	-0.736
-568.631	-121.029	-0.566	-0.095
-567.617	266.791	0.300	0.525
-566.602	69.237	-0.138	0.142
-565.588	-109.318	0.714	0.152
-564.573	800.000	0.188	-0.642
-563.558	-200.000	-0.071	-0.373
-562.544	800.000	-0.231	0.983
-561.529	-200.000	-0.005	0.172
-560.515	800.000	-0.118	-0.361
-559.500	108.586	0.168	-0.202
-558.485	79.361	0.728	0.782
-557.471	-61.861	-0.546	0.229
-556.456	-200.000	-0.054	-0.243
-555.442	121.418	0.028	0.035
-554.427	216.035	-0.324	-0.516
-553.412	-200.000	-0.025	0.154
-552.398	-200.000	0.050	0.342
-551.383	800.000	-0.050	-0.209
-550.369	48.975	-0.290	0.273
-549.354	-68.491	0.218	0.085
-548.339	233.086	-0.238	0.392
-547.325	373.280	-0.364	-0.741
-546.310	-10.653	-0.680	0.451
-545.296	27.240	-0.472	-0.397
-544.281	-200.000	-0.069	-0.465
-543.266	33.684	0.671	-0.584
-542.252	56.575	-0.523	0.510
-541.237	-67.737	-1.004	-0.393
-540.223	33.737	0.111	-0.096
-539.208	-37.194	-0.295	-0.158
-538.193	-200.000	0.105	-0.634
-537.179	181.853	0.481	0.708
-536.164	-200.000	0.034	-0.149
-535.150	-200.000	0.032	-0.307
-534.135	800.000	0.094	-0.297
-533.121	-200.000	0.025	-0.642
-532.106	-200.000	-0.053	0.340
-531.091	531.709	-0.241	-0.570
-530.077	-185.161	0.378	0.006
-529.062	389.677	0.090	0.186
-528.048	-54.407	0.526	-0.239
-527.033	1.563	-0.504	0.363
-526.018	-25.485	0.406	0.240
-525.004	-35.479	0.823	0.447
-523.989	-16.888	0.208	-0.132
-522.975	281.542	0.353	-0.633
-521.960	-112.693	0.633	0.126
-520.945	-200.000	0.103	-0.898
-519.931	-43.737	-0.374	-0.188
-518.916	303.862	0.276	0.511
-517.902	553.093	-0.300	-0.721
-516.887	68.799	0.669	-0.687
-515.872	-200.000	-0.054	0.434
-514.858	-200.000	-0.087	-0.391
-513.843	-200.000	0.028	0.202
-512.829	46.085	-0.496	-0.459
-511.814	-5.783	-0.392	-0.268
-510.799	548.910	0.296	-0.708
-509.785	-200.000	0.154	1.084
-508.770	-50.915	-0.590	0.277
-507.756	114.097	0.432	-0.525
-506.741	120.632	0.487	0.605
-505.726	598.480	0.207	0.513
-504.712	102.643	-0.452	-0.529
-503.697	726.305	-0.123	-0.327
-502.683	-43.622	-0.708	-0.357
-501.668	-59.483	-0.575	-0.247
-500.653	-64.879	-0.684	0.277
-499.639	67.908	-0.156	0.159
-498.624	334.330	0.140	-0.271
-497.610	-132.275	0.295	0.038
-496.595	51.499	0.212	0.201
-495.581	-119.089	-0.474	-0.083
-494.566	800.000	-0.218	0.717
-493.551	170.746	-0.460	-0.658
-492.537	72.551	0.149	-0.155
-491.522	-85.805	0.555	0.172
-490.508	-43.987	0.245	0.123
-489.493	523.376	0.093	-0.218
-488.478	254.390	0.215	-0.367
-487.464	-139.416	-1.026	-0.110
-486.449	-200.000	0.015	0.602
-485.435	161.319	0.335	0.468
-484.420	-200.000	-0.076	0.556
-483.405	5.642	-0.412	-0.304
-482.391	-61.325	-0.321	0.135
-481.376	200.040	-0.301	-0.462
-480.362	353.504	-0.028	0.055
-479.347	-160.534	0.450	-0.024
-478.332	74.521	0.428	0.450
-477.318	-200.000	-0.027	0.233
-476.303	108.207	0.176	-0.209
-475.289	-33.668	-0.049	0.027
-474.274	0.562	-0.814	0.581
-473.259	277.974	0.498	-0.886
-472.245	800.000	0.080	-0.259
-471.230	-200.000	0.010	-0.141
-470.216	101.640	-0.705	0.820
-469.201	800.000	-0.167	-0.619
-468.186	-200.000	-0.059	-0.574
-467.172	-57.356	0.485	0.213
-466.157	141.756	0.401	0.531
-465.143	-115.762	0.316	-0.059
-464.128	-200.000	0.047	-0.590
-463.113	321.124	0.198	0.375
-462.099	407.133	0.096	-0.203
-461.084	-49.154	-0.211	-0.101
-460.070	-200.000	-0.002	-0.090
-459.055	293.015	0.223	-0.405
-458.040	-58.283	-0.651	0.283
-457.026	-200.000	-0.086	-0.485
-456.011	245.261	-0.315	-0.528
-454.997	-200.000	-0.096	-0.891
-453.982	-71.718	-0.297	0.111
-452.968	-26.316	0.621	0.364
-451.953	675.477	0.264	-0.683
-450.938	305.857	0.291	0.539
-449.924	-111.758	-0.226	-0.046
-448.909	-200.000	-0.035	0.268
-447.895	254.409	-0.242	0.412
-446.880	800.000	0.206	-0.661
-445.865	-136.601	0.715	0.083
-444.851	32.862	-0.362	-0.312
-443.836	12.487	0.211	-0.162
-442.822	-122.866	-0.229	-0.037
-441.807	613.306	0.291	-0.726
-440.792	152.556	-0.566	0.771
-439.778	-71.370	0.728	-0.272
-438.763	-40.209	0.759	-0.394
-437.749	773.884	-0.128	-0.349
-436.734	-87.267	0.192	-0.058
-435.719	2.649	-0.337	-0.243
-434.705	146.393	0.504	-0.675
-433.690	800.000	0.113	-0.381
-432.676	33.979	0.639	0.555
-431.661	-113.020	0.356	0.070
-430.646	800.000	0.102	-0.292
-429.632	196.524	-0.319	-0.484
-428.617	146.374	-0.181	0.242
-427.603	121.472	0.574	-0.713
-426.588	504.371	0.292	-0.675
-425.573	-101.083	0.224	-0.055
-424.559	-200.000	0.181	-0.877
-423.544	-19.770	-0.023	-0.014
-422.530	90.674	-0.109	0.122
-421.515	115.230	-0.088	-0.107
-420.500	-39.324	-0.280	-0.147
-419.486	197.783	-0.323	-0.492
-418.471	7.928	0.580	0.433
-417.457	-67.557	0.090	0.035
-416.442	-200.000	0.053	0.257
-415.428	-159.913	0.599	0.033
-414.413	-200.000	-0.091	1.057
-413.398	734.728	0.378	1.008
-412.384	-69.626	-0.093	0.036
-411.369	-8.646	0.450	0.301
-410.355	800.000	-0.409	1.136
-409.340	-133.762	0.966	0.120
-408.325	-17.914	-0.493	0.308
-407.311	171.420	0.335	-0.479
-406.296	-104.198	0.935	-0.216
-405.282	-200.000	0.053	-0.392
-404.267	189.450	-0.300	0.448
-403.252	-186.420	-0.807	-0.012
-402.238	71.588	0.588	0.608
-401.223	-146.420	0.209	0.018
-400.209	268.665	0.063	-0.111
-399.194	-53.948	-0.242	0.110
-398.179	-151.710	0.610	0.045
-397.165	-33.909	-0.159	0.087
-396.150	159.835	-0.406	0.564
-395.136	-99.997	0.493	-0.122
-394.121	679.509	0.294	0.761
-393.106	388.738	0.229	0.472
-392.092	173.372	-0.305	-0.437
-391.077	50.461	0.268	-0.252
-390.063	118.025	0.244	0.299
-389.048	-200.000	-0.206	0.900
-388.033	800.000	0.102	-0.362
-387.019	260.770	0.151	-0.259
-386.004	-119.238	-0.884	-0.153
-384.990	141.385	0.270	0.355
-383.975	191.343	0.284	0.425
-382.960	-136.496	-0.755	-0.087
-381.946	20.181	-0.336	-0.270
-380.931	17.090	-0.262	0.206
-379.917	17.053	0.171	-0.135
-378.902	-65.899	-0.653	0.259
-377.888	96.056	-0.179	-0.204
-376.873	800.000	0.121	-0.504
-375.858	1.947	-0.561	-0.403
-374.844	29.887	-0.488	-0.414
-373.829	-115.798	0.557	0.104
-372.815	92.717	0.790	-0.887
-371.800	-23.972	0.672	-0.400
-370.785	800.000	0.253	-0.806
-369.771	-170.171	0.566	0.020
-368.756	800.000	-0.125	0.501
-367.742	-8.883	0.065	-0.043
-366.727	25.976	0.227	-0.188
-365.712	-141.191	0.379	0.038
-364.698	-200.000	0.029	0.203
-363.683	289.262	0.237	0.426
-362.669	660.209	-0.173	-0.442
-361.654	-103.724	0.087	0.020
-360.639	-74.203	-0.329	-0.118
-359.625	800.000	-0.297	0.881
-358.610	-32.498	0.274	-0.152
-357.596	692.111	0.080	0.208
-356.581	-200.000	-0.046	-0.356
-355.566	116.204	-0.168	-0.204
-354.552	52.017	-0.502	0.475
-353.537	305.466	-0.144	-0.266
-352.523	211.610	0.658	1.030
-351.508	-59.017	-0.433	0.186
-350.493	189.574	-0.556	0.828
-349.479	-17.445	0.177	0.111
-348.464	-101.902	-0.796	-0.191
-347.450	-67.639	0.227	-0.088
-346.435	-134.734	0.224	-0.027
-345.420	-82.740	0.268	0.086
-344.406	353.055	0.303	-0.597
-343.391	723.877	0.139	0.367
-342.377	501.289	-0.144	0.331
-341.362	692.666	-0.101	0.262
-340.348	115.452	-0.215	0.261
-339.333	-14.894	0.578	-0.368
-338.318	800.000	0.041	0.127
-337.304	-5.205	-0.299	-0.204
-336.289	-20.090	-0.611	0.374
-335.275	122.900	-0.530	0.659
-334.260	-14.104	0.160	-0.103
-333.245	800.000	0.298	-0.935
-332.231	330.521	-0.441	-0.843
-331.216	-7.049	-0.219	-0.147
-330.202	-54.355	-0.424	0.191
-329.187	8.954	-1.219	0.913
-328.172	34.353	-0.295	-0.256
-327.158	-118.301	-0.656	-0.116
-326.143	-200.000	-0.052	0.441
-325.129	-33.036	-0.346	0.191
-324.114	-112.639	-0.225	0.044
-323.099	-200.000	0.014	1.003
-322.085	177.907	-0.254	0.367
-321.070	-148.916	-0.716	0.057
-320.056	74.948	0.288	0.301
-319.041	-21.098	0.326	-0.198
-318.026	-69.213	1.411	0.538
-317.012	800.000	0.433	1.257
-315.997	-78.776	0.479	-0.162
-314.983	-200.000	0.017	0.605
-313.968	199.284	-0.690	-1.049
-312.953	141.072	0.067	0.088
-311.939	-200.000	0.063	0.360
-310.924	-2.592	0.196	-0.136
-309.910	-200.000	0.027	0.428
-308.895	-21.935	0.759	0.458
-307.880	42.966	0.816	-0.738
-306.866	94.533	0.239	0.270
-305.851	-199.244	-0.245	-0.001
-304.837	-200.000	-0.001	-0.221
-303.822	334.910	-0.303	-0.582
-302.807	-161.032	-0.358	0.019
-301.793	287.732	0.121	0.218
-300.778	41.940	-0.677	-0.609
-299.764	800.000	-0.214	0.675
-298.749	-47.805	-0.540	0.259
-297.735	-149.389	-0.487	-0.038
-296.720	629.339	0.186	-0.466
-295.705	800.000	0.116	-0.497
-294.691	620.495	0.249	0.620
-293.676	-94.653	0.542	0.146
-292.662	126.317	-0.118	0.148
-291.647	-148.776	0.716	0.058
-290.632	117.990	0.099	0.120
-289.618	36.565	-0.292	-0.255
-288.603	-82.917	-0.475	-0.152
-287.589	32.374	-0.500	0.428
-286.574	189.697	0.206	-0.307
-285.559	338.394	-0.234	0.451
-284.545	151.336	0.566	-0.763
-283.530	-200.000	-0.064	0.502
-282.516	161.187	-0.620	-0.858
-281.501	472.585	0.323	0.721
-280.486	-90.274	0.627	0.180
-279.472	33.088	-0.616	-0.529
-278.457	-157.432	0.351	0.021
-277.443	-78.883	-0.263	-0.089
-276.428	-29.516	-0.501	0.284
-275.413	13.888	0.382	0.294
-274.399	800.000	0.037	0.105
-273.384	-53.689	-1.068	-0.483
-272.370	-58.810	-0.673	-0.288
-271.355	124.635	0.283	0.352
-270.340	259.787	-0.331	-0.567
-269.326	65.574	0.322	-0.323
-268.311	-38.489	0.765	-0.401
-267.297	-6.655	0.892	0.602
-266.282	-200.000	0.013	-0.091
-265.267	-145.869	0.254	0.022
-264.253	441.272	0.221	-0.479
-263.238	-109.630	-0.066	-0.014
-262.224	317.382	0.046	0.086
-261.209	589.977	-0.066	0.160
-260.195	-37.961	-1.043	-0.549
-259.180	-116.746	-0.245	0.045
-258.165	800.000	0.081	0.310
-257.151	73.664	-0.530	0.550
-256.136	656.288	0.274	-0.697
-255.122	-5.390	0.616	0.419
-254.107	-117.852	0.974	-0.173
-253.092	28.888	-0.385	0.323
-252.078	-143.569	-0.748	-0.070
-251.063	800.000	0.200	-0.851
-250.049	-155.204	0.134	0.009
-249.034	20.604	0.221	-0.177
-248.019	-38.755	0.426	-0.222
-247.005	-122.696	-0.043	0.007
-245.990	800.000	0.085	0.327
-244.976	-4.458	-0.360	-0.246
-243.961	251.309	0.187	-0.315
-242.946	82.277	-0.355	-0.381
-241.932	193.274	0.578	-0.865
-240.917	105.771	0.298	-0.348
-239.903	800.000	-0.233	-0.781
-238.888	50.918	0.342	0.320
-237.873	-95.773	0.743	-0.196
-236.859	40.682	0.436	-0.389
-235.844	-141.348	-0.514	-0.052
-234.830	-200.000	0.255	1.211
-233.815	82.703	0.533	0.573
-232.800	254.431	0.186	-0.315
-231.786	440.301	0.344	0.744
-230.771	20.680	0.081	0.065
-229.757	-74.946	0.191	-0.068
-228.742	132.275	0.224	0.286
-227.727	-200.000	-0.012	-0.261
-226.713	-81.397	-1.394	0.454
-225.698	-200.000	-0.068	0.371
-224.684	-47.807	-0.009	-0.004
-223.669	-9.315	-0.489	-0.323
-222.655	208.152	0.097	-0.151
-221.640	-104.848	-1.096	-0.249
-220.625	-200.000	0.062	0.305
-219.611	-200.000	-0.004	-0.171
-218.596	-72.205	0.159	-0.058
-217.582	-135.554	0.836	-0.098
-216.567	609.715	0.096	0.236
-215.552	229.393	-0.561	-0.905
-214.538	-200.000	-0.055	0.574
-213.523	-117.284	-0.624	0.112
-212.509	-200.000	-0.011	-0.110
-211.494	-200.000	-0.069	-0.349
-210.479	-200.000	0.008	0.789
-209.465	-92.655	-0.664	-0.184
-208.450	-200.000	0.099	-0.880
-207.436	-66.279	-0.105	-0.041
-206.421	-91.372	0.694	-0.196
-205.406	142.626	0.119	-0.156
-204.392	800.000	-0.142	-0.419
-203.377	-151.833	-0.521	0.038
-202.363	623.616	-0.123	-0.306
-201.348	756.007	0.218	-0.582
-200.333	137.547	-0.314	0.406
-199.319	73.767	0.408	-0.422
-198.304	102.048	-0.590	0.681
-197.290	-22.504	-0.334	-0.200
-196.275	800.000	0.192	0.681
-195.260	-82.077	-0.250	0.081
-194.246	-14.939	-0.766	-0.485
-193.231	388.261	-0.314	-0.642
-192.217	168.208	0.273	0.384
-191.202	800.000	-0.286	0.977
-190.187	-109.991	0.550	0.114
-189.173	800.000	0.307	0.912
-188.158	68.931	0.341	-0.345
-187.144	164.517	0.288	0.401
-186.129	-200.000	-0.044	-0.436
-185.114	800.000	0.307	0.905
-184.100	-65.940	-0.111	-0.044
-183.085	238.395	-0.513	0.842
-182.071	-200.000	0.008	-0.187
-181.056	58.748	0.488	0.473
-180.042	800.000	0.174	0.556
-179.027	-136.161	-0.309	0.036
-178.012	23.615	-0.334	0.272
-176.998	-200.000	-0.102	-0.855
-175.983	238.248	-0.411	0.673
-174.969	117.013	-0.269	0.326
-173.954	-68.890	-0.408	-0.155
-172.939	800.000	-0.087	-0.238
-171.925	-75.388	-0.760	-0.267
-170.910	-18.744	-0.540	0.332
-169.896	-91.994	-0.352	0.098
-168.881	151.757	-0.223	0.299
-167.866	-7.768	0.089	0.060
-166.852	701.579	-0.130	0.337
-165.837	304.420	-0.281	0.515
-164.823	42.276	0.284	0.255
-163.808	-103.337	0.310	0.072
-162.793	119.641	0.190	-0.233
-161.779	-30.548	0.359	-0.201
-160.764	800.000	-0.165	-0.584
-159.750	435.922	0.510	-1.095
-158.735	-60.716	-0.284	0.119
-157.720	-84.661	-0.128	0.040
-156.706	-10.044	0.704	0.461
-155.691	-26.615	0.740	-0.427
-154.677	565.110	0.227	0.542
-153.662	123.149	0.608	-0.750
-152.647	367.858	0.093	0.186
-151.633	96.486	0.251	-0.283
-150.618	-75.140	-0.147	0.052
-149.604	-23.330	-0.337	0.200
-148.589	561.520	0.193	0.459
-147.574	5.762	-0.319	0.233
-146.560	301.419	0.437	0.795
-145.545	-200.000	-0.009	-0.845
-144.531	220.257	-0.312	0.494
-143.516	271.936	-0.327	0.568
-142.502	-200.000	-0.071	-0.422
-141.487	-81.109	0.143	-0.047
-140.472	-184.891	-0.421	-0.007
-139.458	-154.565	1.004	0.066
-138.443	-104.878	-0.932	0.211
-137.429	-152.679	-0.356	0.025
-136.414	90.297	-0.169	0.186
-135.399	-19.308	0.273	-0.167
-134.385	567.347	0.292	-0.699
-133.370	-200.000	-0.141	-0.638
-132.356	-92.800	-0.270	-0.074
-131.341	20.466	-0.495	-0.394
-130.326	-200.000	0.062	0.326
-129.312	-93.632	0.766	0.208
-128.297	-5.484	0.369	-0.250
-127.283	-96.635	-1.070	-0.278
-126.268	-151.797	-0.608	0.044
-125.253	800.000	0.044	0.187
-124.239	17.706	0.405	-0.317
-123.224	9.419	0.437	0.326
-122.210	290.311	-0.519	0.929
-121.195	118.444	-0.771	-0.937
-120.180	-72.923	0.411	-0.149
-119.166	-90.664	0.260	0.074
-118.151	-13.242	-0.182	-0.116
-117.137	-200.000	0.087	0.475
-116.122	-104.546	-0.551	0.125
-115.107	-200.000	-0.259	1.161
-114.093	-5.964	0.800	-0.538
-113.078	800.000	-0.146	0.547
-112.064	162.588	-0.128	0.177
-111.049	-147.867	0.938	0.077
-110.034	10.268	0.195	-0.146
-109.020	-108.923	-0.751	-0.158
-108.005	-200.000	-0.086	0.642
-106.991	-139.350	-0.549	0.058
-105.976	800.000	-0.157	-0.561
-104.962	151.529	0.472	0.633
-103.947	800.000	0.116	0.479
-102.932	15.356	-0.667	0.515
-101.918	-17.723	0.631	-0.390
-100.903	-200.000	0.082	-0.504
-99.889	-159.138	0.928	0.052
-98.874	-152.412	0.264	-0.019
-97.859	-200.000	0.139	0.646
-96.845	223.907	-0.170	0.271
-95.830	55.985	-0.386	-0.368
-94.816	800.000	-0.098	-0.402
-93.801	-25.511	0.591	-0.344
-92.786	-140.590	-0.475	0.048
-91.772	-135.507	-0.295	0.035
-90.757	-37.935	0.252	-0.132
-89.743	-200.000	-0.023	0.658
-88.728	-34.506	-0.297	0.160
-87.713	-115.957	0.141	0.026
-86.699	-92.582	-0.869	-0.240
-85.684	-200.000	-0.065	0.519
-84.670	-163.899	-0.396	0.018
-83.655	-130.697	0.321	0.043
-82.640	-200.000	0.019	0.592
-81.626	102.404	0.359	-0.412
-80.611	-200.000	-0.049	0.463
-79.597	-51.982	0.204	0.093
-78.582	67.626	0.130	0.130
-77.567	204.561	0.203	-0.309
-76.553	-76.328	0.953	0.330
-75.538	800.000	0.145	-0.422
-74.524	-76.182	0.859	-0.298
-73.509	800.000	0.036	-0.131
-72.494	-131.314	0.854	-0.111
-71.480	-200.000	-0.004	0.119
-70.465	24.208	0.192	0.156
-69.451	485.015	-0.148	0.331
-68.436	702.484	0.251	-0.650
-67.422	-109.407	0.034	-0.007
-66.407	-117.298	0.264	0.047
-65.392	-35.585	-0.338	0.180
-64.378	59.906	0.424	0.411
-63.363	800.000	0.098	-0.304
-62.349	21.046	0.621	0.495
-61.334	-200.000	-0.220	-1.049
-60.319	774.462	0.268	0.718
-59.305	800.000	-0.247	-0.883
-58.290	230.694	0.529	0.850
-57.276	13.558	1.295	0.987
-56.261	-200.000	94.551	598.594
-55.246	685.937	1352.125	3468.241
-54.232	204.309	2524.180	3841.800
-53.217	113.543	2246.249	2678.621
-52.203	42.058	1879.935	1675.673
-51.188	35.311	1674.095	1441.633
-50.173	32.884	1629.381	1385.288
-49.159	51.355	1678.919	1565.357
-48.144	51.839	1695.706	1584.549
-47.130	35.369	1655.372	1425.713
-46.115	32.853	1640.557	1394.337
-45.100	32.535	1635.553	1387.685
-44.086	32.458	1632.445	1384.432
-43.071	32.160	1631.039	1380.992
-42.057	32.200	1628.564	1379.135
-41.042	32.348	1625.829	1377.846
-40.027	32.475	1624.100	1377.258
-39.013	32.333	1622.308	1374.649
-37.998	32.197	1621.388	1372.818
-36.984	32.399	1619.465	1372.610
-35.969	32.376	1617.926	1371.084
-34.954	32.323	1616.851	1369.732
-33.940	32.499	1614.208	1368.719
-32.925	32.449	1613.985	1368.108
-31.911	32.414	1612.081	1366.191
-30.896	32.639	1608.346	1364.598
-29.881	32.441	1608.023	1362.839
-28.867	32.239	1607.334	1360.739
-27.852	32.270	1604.825	1358.780
-26.838	32.359	1602.875	1357.720
-25.823	32.709	1600.946	1358.558
-24.809	32.628	1601.595	1358.466
-23.794	32.622	1598.650	1355.871
-22.779	32.692	1597.285	1355.166
-21.765	32.245	1596.189	1350.966
-20.750	32.392	1594.131	1350.230
-19.736	32.397	1593.679	1349.825
-18.721	32.439	1592.929	1349.440
-17.706	32.403	1590.969	1347.468
-16.692	32.471	1589.126	1346.343
-15.677	32.438	1588.688	1345.677
-14.663	32.762	1585.335	1345.097
-13.648	32.515	1584.918	1342.930
-12.633	32.326	1583.869	1340.637
-11.619	32.492	1581.619	1339.861
-10.604	32.479	1580.800	1339.025
-9.590	32.425	1579.564	1337.538
-8.575	32.637	1576.956	1336.785
-7.560	32.237	1577.607	1334.439
-6.546	32.517	1576.020	1335.032
-5.531	32.347	1575.391	1333.244
-4.517	32.446	1573.732	1332.486
-3.502	32.493	1571.636	1330.991
-2.487	32.412	1570.004	1328.983
-1.473	31.840	1559.544	1316.066
-0.458	29.168	1539.025	1280.151
0.556	26.978	1539.133	1248.682
1.571	24.406	1562.592	1249.618
2.586	23.565	1575.225	1253.667
3.600	21.111	1522.221	1194.598
4.615	12.302	1414.012	1053.318
5.629	4.731	1349.075	958.371
6.644	3.217	1342.659	944.444
7.659	3.111	1340.769	942.384
8.673	3.066	1340.772	942.023
9.688	3.286	1337.538	941.013
10.702	3.060	1334.768	937.603
11.717	6.778	1342.072	965.416
12.731	16.379	1358.706	1036.464
13.746	23.688	1371.065	1090.880
14.761	24.929	1372.050	1099.188
15.775	24.665	1370.962	1096.601
16.790	24.709	1369.019	1095.215
17.804	24.334	1369.530	1093.231
18.819	24.586	1369.498	1094.654
19.834	24.755	1367.241	1093.784
20.848	24.374	1368.033	1091.992
21.863	24.524	1365.898	1091.109
22.877	24.586	1365.866	1091.362
23.892	24.570	1364.833	1090.346
24.907	24.560	1363.723	1089.301
25.921	24.491	1363.726	1088.783
26.936	24.482	1362.585	1087.720
27.950	24.656	1361.468	1087.796
28.965	24.577	1360.544	1086.480
29.980	24.517	1359.246	1084.980
30.994	24.824	1357.280	1085.177
32.009	24.883	1356.570	1084.874
33.023	24.646	1354.761	1081.896
34.038	24.619	1354.642	1081.539
35.053	24.628	1353.756	1080.794
36.067	24.665	1353.203	1080.481
37.082	24.412	1351.318	1077.350
38.096	24.830	1349.833	1078.590
39.111	24.695	1350.009	1077.824
40.126	24.404	1350.386	1076.275
41.140	24.646	1348.343	1076.007
42.155	24.449	1347.987	1074.439
43.169	23.912	1348.171	1071.261
44.184	24.177	1346.656	1071.553
45.199	24.259	1347.110	1072.313
46.213	24.477	1346.883	1073.351
47.228	24.684	1346.392	1074.107
48.242	24.627	1344.907	1072.489
49.257	24.694	1344.090	1072.140
50.271	24.844	1341.628	1070.979
51.286	24.844	1340.156	1069.714
52.301	24.687	1340.526	1068.975
53.315	24.336	1339.078	1065.627
54.330	24.494	1337.913	1065.552
55.344	24.409	1336.951	1064.182
56.359	24.315	1336.189	1062.924
57.374	24.292	1335.484	1062.127
58.388	24.495	1333.423	1061.603
59.403	24.199	1334.108	1060.290
60.417	24.023	1333.583	1058.737
61.432	24.264	1332.592	1059.289
62.447	24.256	1331.902	1058.598
63.461	24.059	1331.123	1056.713
64.476	24.104	1329.966	1055.971
65.490	24.334	1328.486	1056.061
66.505	24.293	1326.695	1054.304
67.520	24.319	1326.051	1053.850
68.534	24.202	1325.876	1052.931
69.549	24.270	1324.543	1052.179
70.563	24.097	1323.184	1049.983
71.578	24.151	1321.801	1049.114
72.593	24.062	1321.264	1048.073
73.607	23.870	1321.359	1046.923
74.622	23.951	1320.857	1046.908
75.636	23.951	1319.287	1045.574
76.651	24.228	1317.896	1046.001
77.666	24.147	1318.180	1045.662
78.680	24.080	1318.551	1045.471
79.695	24.073	1317.324	1044.361
80.709	24.315	1316.248	1044.837
81.724	24.415	1315.759	1044.940
82.739	24.643	1314.726	1045.360
83.753	24.418	1313.918	1043.310
84.768	24.764	1312.612	1044.203
85.782	24.835	1312.099	1044.115
86.797	24.935	1309.866	1042.829
87.812	24.740	1309.519	1041.324
88.826	24.643	1309.263	1040.464
89.841	24.636	1308.500	1039.726
90.855	24.844	1307.284	1039.878
91.870	24.783	1306.675	1038.945
92.884	24.833	1305.566	1038.263
93.899	24.921	1304.214	1037.607
94.914	24.818	1304.888	1037.454
95.928	24.751	1304.388	1036.573
96.943	24.925	1301.981	1035.576
97.957	24.860	1301.444	1034.682
98.972	24.854	1300.643	1033.916
99.987	24.798	1300.034	1033.021
101.001	24.747	1298.391	1031.330
102.016	24.776	1297.163	1030.427
103.030	24.852	1297.689	1031.196
104.045	24.829	1296.069	1029.684
105.060	24.491	1295.405	1027.117
106.074	24.142	1294.263	1024.117
107.089	24.383	1291.952	1023.580
108.103	24.434	1290.305	1022.479
109.118	24.470	1288.747	1021.361
110.133	24.015	1289.606	1019.344
111.147	24.254	1287.686	1019.104
112.162	24.322	1286.299	1018.303
113.176	24.349	1286.094	1018.205
114.191	24.371	1285.391	1017.686
115.206	24.012	1286.160	1016.152
116.220	24.461	1283.560	1016.568
117.235	24.190	1282.078	1013.761
118.249	24.209	1280.382	1012.439
119.264	23.962	1280.142	1010.753
120.279	24.278	1280.085	1012.418
121.293	24.174	1279.119	1010.970
122.308	23.919	1277.502	1008.158
123.322	23.560	1277.562	1006.084
124.337	23.990	1275.774	1007.022
125.352	24.124	1274.533	1006.708
126.366	24.511	1273.398	1007.908
127.381	24.175	1271.951	1004.776
128.395	23.744	1272.012	1002.305
129.410	23.900	1270.297	1001.748
130.424	23.869	1270.230	1001.430
131.439	23.804	1270.259	1000.997
132.454	24.127	1267.876	1000.845
133.468	24.382	1268.218	1002.462
134.483	24.108	1269.426	1001.785
135.497	24.047	1267.662	999.960
136.512	24.216	1265.888	999.425
137.527	24.228	1265.328	998.960
138.541	24.416	1264.027	998.894
139.556	24.549	1263.000	998.741
140.570	24.864	1260.535	998.461
141.585	24.567	1260.883	996.990
142.600	24.719	1260.101	997.130
143.614	24.883	1260.055	997.924
144.629	24.892	1257.898	996.176
145.643	24.430	1258.074	993.655
146.658	24.432	1256.670	992.468
147.673	24.734	1254.792	992.575
148.687	24.706	1254.379	992.002
149.702	24.117	1252.704	987.328
150.716	24.032	1250.561	985.080
151.731	23.846	1249.850	983.404
152.746	24.372	1249.173	985.690
153.760	24.576	1247.802	985.649
154.775	24.481	1248.320	985.448
155.789	24.789	1246.589	985.692
156.804	24.438	1245.771	983.023
157.819	24.349	1244.693	981.598
158.833	24.713	1244.415	983.293
159.848	24.613	1243.859	982.216
160.862	24.658	1242.669	981.439
161.877	24.653	1241.027	980.025
162.892	24.241	1240.578	977.322
163.906	24.026	1239.926	975.547
164.921	24.335	1237.538	975.271
165.935	24.436	1237.441	975.662
166.950	24.513	1236.899	975.571
167.964	24.470	1237.238	975.512
168.979	24.394	1236.603	974.514
169.994	24.207	1235.541	972.571
171.008	24.239	1234.204	971.602
172.023	24.522	1233.591	972.576
173.037	24.810	1233.044	973.629
174.052	24.552	1233.277	972.322
175.067	24.476	1231.341	970.294
176.081	24.162	1230.470	967.816
177.096	24.177	1229.627	967.153
178.110	24.197	1228.930	966.623
179.125	24.110	1228.003	965.341
180.140	24.659	1225.986	966.638
181.154	24.632	1225.410	965.955
182.169	24.548	1223.653	964.029
183.183	24.547	1223.170	963.556
184.198	24.837	1221.980	964.100
185.213	24.840	1222.127	964.146
186.227	24.664	1220.771	962.043
187.242	24.723	1220.309	961.907
188.256	24.565	1219.451	960.302
189.271	24.687	1218.296	959.961
190.286	24.682	1217.641	959.331
191.300	24.399	1216.613	956.919
192.315	24.569	1216.487	957.646
193.329	24.571	1216.220	957.364
194.344	24.417	1214.326	954.964
195.359	24.233	1214.020	953.656
196.373	23.863	1213.831	951.443
197.388	24.019	1213.363	951.827
198.402	24.427	1213.076	953.695
199.417	24.634	1213.566	955.103
200.432	24.984	1212.142	955.767
201.446	24.745	1211.710	954.064
202.461	24.949	1210.043	953.757
203.475	24.595	1209.908	951.677
204.490	24.716	1208.134	950.845
205.504	24.341	1207.663	948.395
206.519	24.352	1206.927	947.790
207.534	23.834	1205.872	944.129
208.548	23.974	1204.714	943.879
209.563	24.247	1203.256	944.101
210.577	23.975	1203.145	942.491
211.592	24.252	1202.226	943.152
212.607	24.682	1201.357	944.660
213.621	24.824	1200.810	944.898
214.636	24.584	1199.371	942.415
215.650	24.808	1198.393	942.743
216.665	24.372	1199.631	941.336
217.680	24.791	1197.568	941.839
218.694	24.801	1197.523	941.772
219.709	24.537	1196.693	939.650
220.723	24.527	1196.138	939.078
221.738	24.612	1195.233	938.728
222.753	24.412	1193.938	936.578
223.767	24.422	1192.146	935.145
224.782	24.484	1193.306	936.295
225.796	24.875	1192.130	937.339
226.811	24.922	1191.746	937.197
227.826	24.864	1190.441	935.787
228.840	24.464	1189.898	933.185
229.855	24.542	1189.705	933.361
230.869	24.388	1189.142	932.030
231.884	24.374	1187.684	930.735
232.899	23.997	1186.692	927.907
233.913	24.119	1185.835	927.791
234.928	24.276	1185.842	928.531
235.942	24.332	1184.927	928.025
236.957	24.068	1184.170	925.979
237.972	24.081	1183.229	925.224
238.986	24.123	1183.015	925.195
240.001	23.930	1182.459	923.676
241.015	23.994	1181.260	922.992
242.030	24.200	1180.557	923.426
243.045	24.504	1179.020	923.715
244.059	24.331	1179.765	923.321
245.074	24.729	1179.017	924.713
246.088	24.623	1178.327	923.544
247.103	24.725	1177.151	923.065
248.117	24.709	1177.114	922.874
249.132	24.835	1176.369	922.857
250.147	25.191	1176.102	924.403
251.161	25.354	1175.079	924.352
252.176	25.501	1173.997	924.179
253.190	25.526	1173.770	924.045
254.205	25.411	1173.927	923.494
255.220	25.281	1173.859	922.692
256.234	25.131	1173.558	921.603
257.249	25.400	1171.412	921.218
258.263	25.131	1170.522	919.058
259.278	25.375	1170.128	919.917
260.293	25.483	1169.957	920.255
261.307	25.546	1169.381	920.039
262.322	25.440	1169.188	919.265
263.336	25.453	1168.394	918.625
264.351	25.366	1167.750	917.593
265.366	25.413	1166.192	916.526
266.380	25.262	1166.608	916.003
267.395	25.222	1165.944	915.198
268.409	25.262	1164.366	914.079
269.424	25.163	1163.825	913.074
270.439	25.174	1163.175	912.535
271.453	25.059	1163.087	911.800
272.468	24.914	1162.075	910.189
273.482	25.048	1160.095	909.240
274.497	25.095	1160.010	909.330
275.512	25.033	1159.651	908.656
276.526	24.863	1158.558	906.855
277.541	25.028	1158.000	907.173
278.555	24.837	1157.752	905.934
279.570	25.359	1156.835	907.775
280.585	25.379	1155.943	907.094
281.599	25.296	1156.140	906.750
282.614	25.164	1154.175	904.463
283.628	24.732	1154.067	902.121
284.643	24.909	1153.207	902.262
285.657	24.974	1150.381	900.295
286.672	25.068	1150.765	900.992
287.687	25.084	1150.610	900.871
288.701	24.988	1149.345	899.318
289.716	25.215	1148.650	899.835
290.730	24.936	1147.930	897.791
291.745	24.982	1147.543	897.639
292.760	25.014	1146.758	897.107
293.774	25.317	1146.178	898.089
294.789	25.446	1145.644	898.237
295.803	25.332	1145.651	897.591
296.818	25.266	1144.273	896.103
297.833	25.255	1143.758	895.564
298.847	25.250	1143.656	895.381
299.862	25.181	1140.903	892.803
300.876	24.967	1141.941	892.470
301.891	25.312	1140.644	893.096
302.906	25.491	1140.147	893.516
303.920	25.618	1139.850	893.838
304.935	25.596	1139.455	893.337
305.949	25.540	1138.358	892.120
306.964	25.489	1138.311	891.753
307.979	25.522	1137.515	891.215
308.993	25.372	1135.978	889.186
310.008	25.666	1136.305	890.819
311.022	25.500	1135.279	889.114
312.037	25.705	1134.233	889.230
313.052	25.166	1133.195	885.675
314.066	25.452	1132.146	886.191
315.081	24.846	1130.829	882.093
316.095	24.603	1130.924	880.893
317.110	24.898	1130.289	881.775
318.125	24.909	1128.781	880.573
319.139	24.925	1129.403	881.061
320.154	25.024	1128.204	880.531
321.168	24.983	1127.665	879.831
322.183	24.670	1127.418	878.024
323.197	24.919	1126.244	878.252
324.212	25.013	1125.672	878.192
325.227	25.333	1124.889	879.071
326.241	24.953	1125.358	877.498
327.256	24.951	1124.947	877.088
328.270	25.069	1122.757	875.879
329.285	24.870	1122.101	874.320
330.300	25.256	1121.242	875.457
331.314	25.116	1120.713	874.283
332.329	25.178	1119.247	873.362
333.343	25.141	1118.667	872.654
334.358	25.249	1118.010	872.591
335.373	25.408	1118.998	874.059
336.387	25.538	1117.020	873.067
337.402	25.557	1116.145	872.396
338.416	25.483	1116.171	871.983
339.431	25.513	1115.242	871.325
340.446	25.759	1115.237	872.436
341.460	25.942	1115.156	873.181
342.475	25.941	1113.520	871.815
343.489	26.004	1112.288	871.078
344.504	25.818	1111.753	869.687
345.519	25.965	1111.412	870.050
346.533	26.167	1109.840	869.718
347.548	25.808	1109.923	867.977
348.562	25.853	1109.290	867.623
349.577	25.696	1108.032	865.806
350.592	25.497	1106.336	863.447
351.606	25.087	1106.232	861.322
352.621	25.563	1104.674	862.315
353.635	25.252	1104.960	860.971
354.650	25.238	1103.180	859.440
355.665	25.604	1101.736	859.988
356.679	25.330	1102.326	859.063
357.694	25.706	1102.531	860.946
358.708	25.670	1102.161	860.409
359.723	25.714	1100.545	859.279
360.738	25.780	1099.482	858.688
361.752	25.427	1099.747	857.134
362.767	25.596	1098.546	856.929
363.781	25.493	1099.005	856.722
364.796	25.802	1097.601	857.019
365.810	26.128	1097.639	858.524
366.825	26.367	1096.467	858.667
367.840	26.279	1097.077	858.651
368.854	26.094	1097.048	857.674
369.869	26.135	1095.809	856.822
370.883	26.075	1094.160	855.172
371.898	26.134	1093.370	854.762
372.913	25.537	1094.401	852.661
373.927	26.060	1091.994	853.183
374.942	25.927	1092.800	853.107
375.956	26.185	1091.779	853.457
376.971	26.075	1091.332	852.512
377.986	25.916	1091.621	851.909
379.000	25.997	1090.553	851.382
380.015	26.451	1090.394	853.328
381.029	26.099	1089.566	850.944
382.044	26.379	1088.604	851.436
383.059	26.388	1087.336	850.409
384.073	26.247	1086.985	849.398
385.088	26.301	1086.391	849.114
386.102	26.214	1085.185	847.687
387.117	25.930	1084.098	845.429
388.132	25.433	1083.439	842.512
389.146	25.704	1082.422	842.918
390.161	25.735	1081.416	842.201
391.175	25.789	1080.478	841.648
392.190	26.062	1079.980	842.464
393.205	26.290	1079.729	843.259
394.219	26.211	1079.779	842.852
395.234	25.861	1078.334	840.018
396.248	25.601	1077.709	838.246
397.263	25.723	1075.808	837.260
398.278	25.964	1075.163	837.805
399.292	25.690	1074.804	836.179
400.307	25.977	1073.078	836.092
401.321	25.862	1073.137	835.532
402.336	25.480	1073.587	834.035
403.350	25.544	1071.754	832.834
404.365	25.778	1071.023	833.275
405.380	26.014	1070.955	834.241
406.394	26.087	1069.781	833.586
407.409	26.149	1069.988	833.960
408.423	26.562	1069.315	835.269
409.438	26.387	1067.996	833.358
410.453	26.660	1067.336	834.026
411.467	26.222	1067.327	831.930
412.482	26.175	1067.451	831.738
413.496	26.407	1066.839	832.253
414.511	26.598	1065.775	832.227
415.526	26.352	1066.669	831.721
416.540	26.523	1066.154	832.032
417.555	26.498	1064.636	830.658
418.569	26.566	1063.618	830.101
419.584	26.460	1062.630	828.772
420.599	26.300	1063.124	828.352
421.613	153.984	1404.000	1795.114
422.628	141.633	1453.596	1795.173
