DTS Sentinel unit serial number:	SN413079Multiplexer serial number:	ORYXHardware model number:	OX4-SRSoftware version number:	ORYX F/W v4.00 Oryx Data Collector v3.7.2.0data status	okinstallation	princeton_trtdifferential loss correction	single-endedforward channel	channel 2reverse channel	N/Adate	2019/09/10time	19:17:11forward acquisition time	60.00reverse acquisition time	0.00gamma	496.2192k internal	0.2324k external	0.2324temperature offset calibration	0.9944default loss term (dB/km)	0.3790temperature slope calibration	1.0000multiplexer offset coefficient	1.0000multiplexer slope coefficient	1.0000fibre end	0.00T internal ref (°C)	33.92T ext. ref 1 (°C)	-0.34T ext. ref 2 (°C)	26.34length (m)	temperature (°C)	Stokes	anti-Stokes-747.200	800.000	-0.072	0.310
-746.185	21.569	-0.329	0.270
-745.171	-98.410	-0.357	0.092
-744.156	539.060	-0.094	0.226
-743.142	-200.000	0.003	-0.151
-742.127	-129.650	0.348	0.048
-741.112	-90.459	-0.186	-0.054
-740.098	-102.765	-0.278	0.067
-739.083	800.000	0.081	-0.258
-738.069	-200.000	-0.017	0.169
-737.054	279.385	-0.045	-0.080
-736.039	-146.503	-0.341	-0.030
-735.025	-200.000	-0.009	-0.087
-734.010	-21.321	-0.108	-0.066
-732.996	-35.803	-0.072	-0.039
-731.981	38.766	-0.162	-0.146
-730.966	-130.289	0.112	-0.015
-729.952	403.413	-0.052	0.109
-728.937	-2.511	0.248	0.176
-727.923	800.000	-0.020	-0.078
-726.908	-157.048	0.174	-0.011
-725.894	800.000	-0.046	0.134
-724.879	91.650	-0.261	-0.295
-723.864	207.788	0.204	-0.322
-722.850	-93.124	-0.285	0.080
-721.835	55.375	-0.221	-0.216
-720.821	-158.299	0.309	0.018
-719.806	-4.055	-0.320	-0.224
-718.791	-118.108	-0.232	-0.042
-717.777	-141.822	0.161	-0.016
-716.762	-200.000	-0.050	-0.326
-715.748	69.151	0.132	-0.137
-714.733	-169.409	-0.205	0.008
-713.718	266.971	0.054	0.096
-712.704	-49.545	0.340	-0.163
-711.689	48.839	0.078	-0.074
-710.675	-59.202	-0.173	-0.075
-709.660	0.649	-0.276	-0.199
-708.645	-129.039	0.277	-0.039
-707.631	99.249	-0.218	0.254
-706.616	800.000	0.071	0.276
-705.602	798.783	0.028	0.077
-704.587	-48.833	-0.209	0.101
-703.572	-60.609	0.046	0.019
-702.558	-155.761	0.099	0.006
-701.543	-200.000	-0.031	-0.141
-700.529	-25.960	-0.141	-0.084
-699.514	-65.429	-0.410	-0.166
-698.499	-79.234	-0.383	0.131
-697.485	190.712	-0.106	-0.160
-696.470	288.182	-0.035	0.064
-695.456	800.000	-0.024	-0.091
-694.441	-10.456	-0.137	0.092
-693.426	800.000	0.049	-0.160
-692.412	800.000	0.061	0.265
-691.397	53.358	-0.024	0.023
-690.383	-200.000	0.020	0.176
-689.368	-200.000	0.025	-0.241
-688.354	-200.000	0.015	0.082
-687.339	145.836	0.055	-0.074
-686.324	-13.807	-0.137	0.089
-685.310	-92.874	0.274	-0.077
-684.295	-95.689	-0.258	0.069
-683.281	-32.725	0.280	0.157
-682.266	150.593	0.094	-0.129
-681.251	-200.000	0.020	-0.206
-680.237	44.281	-0.240	-0.222
-679.222	49.646	-0.182	0.173
-678.208	654.504	-0.214	-0.554
-677.193	-74.218	-0.206	-0.075
-676.178	6.655	0.116	0.087
-675.164	166.929	0.116	0.165
-674.149	-58.931	-0.284	-0.124
-673.135	-73.932	-0.127	0.046
-672.120	18.763	0.168	-0.136
-671.105	-168.629	-0.199	0.008
-670.091	16.002	-0.217	0.172
-669.076	-22.143	-0.136	0.083
-668.062	140.733	-0.173	0.230
-667.047	64.628	0.305	0.309
-666.032	-200.000	-0.036	0.265
-665.018	142.239	-0.209	0.279
-664.003	-119.858	-0.178	-0.031
-662.989	-86.264	-0.253	0.078
-661.974	-104.101	0.199	0.046
-660.959	-72.420	-0.300	-0.112
-659.945	-200.000	-0.031	-0.645
-658.930	-200.000	-0.007	-0.242
-657.916	-200.000	0.056	-0.459
-656.901	800.000	0.061	-0.260
-655.886	72.074	-0.275	-0.288
-654.872	120.227	-0.131	0.164
-653.857	68.547	0.161	0.166
-652.843	-141.200	0.133	-0.014
-651.828	-174.509	0.098	-0.003
-650.814	-86.213	-0.304	-0.094
-649.799	-170.588	-0.387	-0.014
-648.784	800.000	0.082	0.243
-647.770	78.612	-0.076	0.081
-646.755	-81.986	-0.198	0.065
-645.741	-88.176	-0.328	0.099
-644.726	29.957	0.151	-0.129
-643.711	38.150	0.076	-0.068
-642.697	-12.420	0.360	0.237
-641.682	-200.000	-0.056	0.279
-640.668	-146.097	0.129	0.011
-639.653	-119.512	-0.263	-0.046
-638.638	-43.055	0.419	0.214
-637.624	-79.068	-0.080	0.027
-636.609	30.862	0.202	-0.174
-635.595	296.387	-0.095	-0.175
-634.580	37.155	0.192	0.171
-633.565	-164.382	-0.184	-0.008
-632.551	181.189	-0.166	0.245
-631.536	-200.000	0.007	-0.185
-630.522	-200.000	0.010	-0.172
-629.507	156.999	-0.112	0.155
-628.492	-112.561	0.231	0.046
-627.478	-117.769	-0.237	0.043
-626.463	-145.963	0.353	-0.031
-625.449	388.273	-0.057	-0.118
-624.434	800.000	-0.101	-0.284
-623.419	751.861	0.103	-0.279
-622.405	800.000	0.060	0.250
-621.390	-104.697	0.167	0.039
-620.376	357.968	0.044	-0.087
-619.361	100.611	0.180	-0.210
-618.346	220.800	0.097	-0.156
-617.332	800.000	0.063	-0.213
-616.317	-145.136	0.105	-0.010
-615.303	4.493	0.143	-0.106
-614.288	-68.079	0.065	-0.025
-613.273	-200.000	-0.012	-0.307
-612.259	-29.954	0.291	0.166
-611.244	15.560	0.151	0.119
-610.230	-20.196	0.073	-0.045
-609.215	-1.575	0.163	-0.115
-608.201	213.165	0.088	0.139
-607.186	-67.587	-0.243	-0.096
-606.171	-200.000	-0.049	0.226
-605.157	-124.827	-0.116	0.018
-604.142	746.771	-0.086	0.234
-603.128	-200.000	0.005	0.074
-602.113	794.180	0.106	-0.293
-601.098	-200.000	-0.013	-0.170
-600.084	-200.000	-0.087	-0.518
-599.069	-111.821	-0.119	-0.024
-598.055	-94.935	-0.205	0.056
-597.040	2.528	0.036	-0.026
-596.025	-18.147	-0.120	0.076
-595.011	228.258	0.097	-0.159
-593.996	11.340	0.085	0.065
-592.982	-163.729	-0.324	-0.015
-591.967	107.715	0.162	0.193
-590.952	1.176	-0.042	0.030
-589.938	-200.000	0.010	0.153
-588.923	-200.000	0.008	0.110
-587.909	22.086	0.149	0.122
-586.894	-171.341	-0.279	0.009
-585.879	-200.000	-0.052	0.232
-584.865	568.820	0.078	0.190
-583.850	109.857	-0.122	0.146
-582.836	-123.696	0.023	-0.004
-581.821	251.319	-0.090	-0.153
-580.806	146.534	-0.091	-0.122
-579.792	-96.700	0.111	-0.029
-578.777	-58.831	-0.117	-0.051
-577.763	66.375	0.388	0.395
-576.748	382.593	0.096	0.199
-575.733	-124.773	-0.108	-0.017
-574.719	-200.000	0.017	0.413
-573.704	-200.000	0.012	0.260
-572.690	-121.106	-0.226	0.038
-571.675	-200.000	-0.019	-0.379
-570.661	772.045	0.025	0.067
-569.646	40.204	-0.339	-0.306
-568.631	467.092	0.085	0.192
-567.617	-200.000	-0.086	-0.423
-566.602	-1.490	0.233	0.164
-565.588	332.486	-0.108	-0.210
-564.573	53.844	0.120	-0.116
-563.558	242.839	-0.111	0.186
-562.544	147.458	-0.034	-0.046
-561.529	186.497	0.109	-0.162
-560.515	-200.000	-0.037	-0.189
-559.500	91.369	0.101	-0.114
-558.485	34.725	0.350	0.306
-557.471	647.859	-0.123	0.316
-556.456	-29.151	0.295	0.170
-555.442	78.535	0.259	0.277
-554.427	436.376	0.151	0.330
-553.412	515.231	-0.032	0.075
-552.398	216.603	-0.116	0.185
-551.383	800.000	-0.085	-0.295
-550.369	-112.790	-0.119	0.024
-549.354	-200.000	0.046	-0.229
-548.339	-60.003	0.017	-0.007
-547.325	123.309	0.177	-0.222
-546.310	-183.957	0.283	0.005
-545.296	-5.877	-0.106	0.073
-544.281	800.000	-0.068	0.256
-543.266	616.004	-0.135	0.338
-542.252	493.236	0.062	0.143
-541.237	1.190	-0.135	-0.097
-540.223	-37.023	0.205	-0.110
-539.208	-24.650	-0.182	0.109
-538.193	533.071	0.076	0.181
-537.179	61.393	0.089	0.089
-536.164	-50.970	-0.332	0.156
-535.150	122.377	0.176	0.220
-534.135	228.346	0.125	0.205
-533.121	800.000	-0.086	0.266
-532.106	-200.000	-0.008	-0.096
-531.091	-141.162	-0.226	-0.023
-530.077	-77.818	0.302	-0.105
-529.062	-105.244	0.108	0.025
-528.048	160.973	0.088	0.124
-527.033	53.761	-0.283	-0.272
-526.018	-162.550	-0.081	-0.004
-525.004	-20.324	-0.195	-0.120
-523.989	85.497	-0.108	-0.119
-522.975	-66.921	-0.368	-0.146
-521.960	150.365	0.222	-0.302
-520.945	70.343	-0.147	0.152
-519.931	311.736	-0.042	-0.079
-518.916	271.532	-0.069	-0.121
-517.902	-94.147	0.081	-0.022
-516.887	15.173	-0.220	-0.173
-515.872	-4.257	0.163	-0.113
-514.858	800.000	-0.035	-0.102
-513.843	-132.951	-0.147	-0.019
-512.829	310.856	0.049	0.092
-511.814	-123.898	-0.225	0.035
-510.799	-162.615	0.194	0.010
-509.785	749.763	0.083	-0.224
-508.770	-200.000	-0.012	-0.174
-507.756	180.206	0.335	0.491
-506.741	800.000	0.101	0.289
-505.726	-200.000	-0.002	0.123
-504.712	-7.693	0.207	-0.140
-503.697	16.790	-0.189	-0.150
-502.683	-57.875	0.256	0.112
-501.668	-200.000	-0.017	-0.229
-500.653	247.328	0.101	-0.171
-499.639	135.254	0.068	0.088
-498.624	-151.739	0.108	0.008
-497.610	120.251	-0.187	-0.232
-496.595	-200.000	-0.014	-0.131
-495.581	76.033	-0.062	0.066
-494.566	-200.000	-0.037	-0.183
-493.551	163.096	-0.132	-0.186
-492.537	635.677	-0.095	-0.241
-491.522	9.747	0.203	0.154
-490.508	-82.379	0.124	0.040
-489.493	-200.000	0.005	0.064
-488.478	10.549	0.080	0.061
-487.464	243.785	0.168	-0.282
-486.449	163.465	-0.042	-0.060
-485.435	25.821	0.072	0.060
-484.420	-168.621	0.318	0.012
-483.405	-94.974	0.085	0.023
-482.391	-42.380	-0.011	-0.006
-481.376	-73.575	-0.294	0.107
-480.362	178.743	-0.190	0.277
-479.347	800.000	-0.068	0.254
-478.332	37.208	-0.039	0.035
-477.318	-49.877	0.322	0.153
-476.303	11.587	0.143	0.110
-475.289	-30.969	-0.106	0.060
-474.274	-200.000	0.002	-0.137
-473.259	-126.935	0.200	-0.029
-472.245	-30.327	0.351	0.199
-471.230	18.474	-0.459	-0.366
-470.216	-58.098	-0.275	0.120
-469.201	-200.000	0.016	-0.243
-468.186	93.276	0.133	-0.150
-467.172	-200.000	0.007	-0.264
-466.157	-200.000	-0.052	-0.350
-465.143	-200.000	-0.039	0.291
-464.128	-146.083	0.218	0.019
-463.113	190.788	0.127	-0.191
-462.099	21.749	0.121	0.099
-461.084	207.540	-0.076	0.119
-460.070	-200.000	0.005	0.192
-459.055	-181.799	-0.210	0.004
-458.040	800.000	-0.091	0.260
-457.026	-78.858	-0.338	0.115
-456.011	800.000	-0.020	-0.062
-454.997	30.979	0.132	0.113
-453.982	50.325	0.190	0.179
-452.968	323.682	-0.128	-0.244
-451.953	-200.000	0.036	0.275
-450.938	201.015	0.143	0.219
-449.924	-131.842	-0.110	-0.014
-448.909	800.000	0.035	0.126
-447.895	800.000	-0.081	0.243
-446.880	67.713	0.160	0.163
-445.865	-200.000	-0.027	-0.203
-444.851	-54.629	-0.109	0.049
-443.836	220.029	-0.202	0.323
-442.822	340.703	-0.090	-0.176
-441.807	-36.159	0.109	0.059
-440.792	800.000	0.063	0.237
-439.778	800.000	0.022	-0.088
-438.763	179.285	-0.195	-0.284
-437.749	56.008	-0.301	0.292
-436.734	-200.000	-0.114	-0.502
-435.719	238.166	0.154	-0.255
-434.705	-96.673	0.111	-0.029
-433.690	-73.464	0.229	0.083
-432.676	571.463	-0.054	-0.132
-431.661	-129.540	0.233	0.032
-430.646	-69.054	-0.265	-0.102
-429.632	442.457	0.137	0.299
-428.617	800.000	0.043	0.154
-427.603	522.620	0.254	-0.595
-426.588	84.137	0.088	0.096
-425.573	5.925	-0.257	0.190
-424.559	31.936	0.119	0.102
-423.544	-102.423	-0.309	0.074
-422.530	96.434	-0.242	0.276
-421.515	8.953	0.053	0.040
-420.500	-112.962	0.197	0.039
-419.486	623.437	-0.079	0.198
-418.471	313.720	0.128	-0.240
-417.457	2.746	-0.112	0.081
-416.442	554.922	-0.055	0.132
-415.428	67.262	-0.208	-0.212
-414.413	98.781	-0.135	-0.155
-413.398	15.488	-0.118	0.092
-412.384	-200.000	-0.017	0.242
-411.369	-21.916	-0.184	0.111
-410.355	36.025	-0.155	0.136
-409.340	-200.000	0.013	0.062
-408.325	755.484	0.090	0.244
-407.311	-72.025	-0.210	-0.078
-406.296	-54.665	0.151	-0.068
-405.282	82.603	0.144	-0.156
-404.267	-200.000	-0.000	-0.159
-403.252	212.411	-0.112	-0.177
-402.238	-33.694	-0.310	-0.170
-401.223	-126.854	-0.375	-0.055
-400.209	121.383	0.244	-0.302
-399.194	135.064	0.211	-0.273
-398.179	-200.000	0.010	-0.075
-397.165	-19.773	-0.111	0.068
-396.150	36.580	0.287	-0.252
-395.136	800.000	0.059	-0.203
-394.121	-70.493	-0.326	0.123
-393.106	38.213	-0.189	0.167
-392.092	-61.894	-0.342	0.142
-391.077	-200.000	0.048	-0.228
-390.063	-12.820	0.114	-0.074
-389.048	-68.590	-0.182	-0.070
-388.033	-106.556	0.317	-0.070
-387.019	131.967	-0.224	-0.287
-386.004	-200.000	-0.025	0.263
-384.990	18.597	-0.345	-0.275
-383.975	800.000	-0.028	0.115
-382.960	164.475	-0.080	-0.112
-381.946	-46.426	-0.182	0.089
-380.931	800.000	-0.077	0.279
-379.917	-125.368	-0.156	0.024
-378.902	-23.361	-0.167	-0.100
-377.888	-29.039	0.140	0.080
-376.873	16.341	0.124	0.098
-375.858	-151.768	0.244	0.018
-374.844	-43.668	-0.135	0.068
-373.829	-98.393	-0.340	-0.087
-372.815	-100.621	0.156	-0.038
-371.800	101.555	0.322	-0.374
-370.785	647.818	0.128	-0.325
-369.771	185.322	0.150	-0.221
-368.756	-60.053	0.174	-0.074
-367.742	730.019	0.034	0.091
-366.727	-63.441	0.569	0.233
-365.712	-31.557	-0.201	0.112
-364.698	-22.762	-0.170	0.102
-363.683	-200.000	0.002	-0.171
-362.669	-8.316	0.164	-0.110
-361.654	-200.000	0.000	-0.231
-360.639	183.847	0.106	0.156
-359.625	-200.000	0.000	0.132
-358.610	-200.000	-0.022	0.119
-357.596	-28.505	0.013	0.008
-356.581	800.000	-0.087	0.263
-355.566	-52.997	-0.139	0.063
-354.552	46.789	-0.131	-0.121
-353.537	243.963	-0.220	-0.367
-352.523	800.000	0.059	-0.229
-351.508	357.936	0.102	0.202
-350.493	108.586	-0.274	0.326
-349.479	88.687	-0.194	0.214
-348.464	24.780	-0.254	-0.209
-347.450	-152.837	-0.259	-0.018
-346.435	-149.810	-0.297	-0.023
-345.420	-95.251	0.021	-0.005
-344.406	-78.427	0.309	-0.105
-343.391	82.975	0.055	-0.059
-342.377	-168.877	0.363	0.014
-341.362	-200.000	-0.006	-0.220
-340.348	-142.645	0.407	0.040
-339.333	5.095	0.216	0.158
-338.318	385.595	0.016	-0.034
-337.304	18.103	-0.070	0.055
-336.289	-118.293	-0.256	-0.045
-335.275	340.883	0.106	-0.207
-334.260	-200.000	-0.016	-0.120
-333.245	-95.029	0.252	0.068
-332.231	800.000	-0.129	0.365
-331.216	800.000	0.077	-0.280
-330.202	43.400	0.256	-0.232
-329.187	-135.233	-0.182	0.022
-328.172	-118.805	-0.065	-0.011
-327.158	241.898	-0.105	-0.174
-326.143	-24.458	-0.201	-0.119
-325.129	67.996	-0.075	-0.076
-324.114	-102.496	-0.420	-0.100
-323.099	-106.662	0.428	0.094
-322.085	-118.513	0.166	0.029
-321.070	-200.000	0.030	-0.227
-320.056	-200.000	-0.039	-0.197
-319.041	-78.063	0.298	0.102
-318.026	-0.097	0.158	0.112
-317.012	143.126	-0.145	-0.191
-315.997	-200.000	-0.024	-0.144
-314.983	38.547	-0.357	-0.316
-313.968	229.294	-0.080	-0.130
-312.953	800.000	0.053	0.151
-311.939	146.352	0.116	-0.154
-310.924	252.323	-0.084	0.142
-309.910	119.637	0.037	-0.046
-308.895	-102.329	0.072	-0.017
-307.880	800.000	0.092	0.264
-306.866	153.059	-0.015	-0.020
-305.851	-12.881	0.259	-0.167
-304.837	-3.857	0.226	-0.155
-303.822	-200.000	-0.017	-0.080
-302.807	-122.643	0.137	-0.022
-301.793	79.508	-0.136	-0.145
-300.778	55.696	-0.118	-0.114
-299.764	52.021	0.085	-0.080
-298.749	611.061	-0.097	-0.240
-297.735	-40.807	-0.173	-0.089
-296.720	-200.000	0.010	-0.183
-295.705	-107.070	-0.393	0.086
-294.691	-15.855	0.040	-0.025
-293.676	-42.417	-0.121	-0.061
-292.662	132.781	0.102	-0.130
-291.647	70.631	-0.251	-0.258
-290.632	115.191	0.015	-0.018
-289.618	22.019	-0.227	0.184
-288.603	-181.331	0.228	-0.004
-287.589	15.058	-0.080	-0.062
-286.574	-76.560	0.172	0.060
-285.559	36.777	-0.309	-0.271
-284.545	71.424	-0.097	-0.100
-283.530	-99.593	0.336	-0.084
-282.516	-200.000	0.078	0.347
-281.501	10.356	0.358	-0.270
-280.486	-112.464	-0.193	-0.038
-279.472	-184.112	0.501	-0.008
-278.457	-200.000	0.001	-0.047
-277.443	639.264	0.139	0.352
-276.428	-200.000	-0.023	0.162
-275.413	-69.337	-0.196	0.075
-274.399	188.160	0.125	0.185
-273.384	58.305	0.255	0.248
-272.370	800.000	-0.066	0.189
-271.355	-62.812	-0.433	-0.178
-270.340	-70.603	0.314	0.118
-269.326	-200.000	0.003	-0.151
-268.311	-54.241	0.136	0.061
-267.297	-18.898	0.353	0.217
-266.282	-51.220	0.128	0.059
-265.267	242.188	-0.136	0.226
-264.253	-95.748	0.353	-0.094
-263.238	15.389	-0.147	-0.114
-262.224	56.572	-0.159	-0.153
-261.209	-200.000	0.020	-0.218
-260.195	800.000	-0.051	0.144
-259.180	-159.259	-0.121	0.007
-258.165	162.214	0.067	-0.092
-257.151	-119.511	0.276	-0.047
-256.136	-35.853	-0.268	0.144
-255.122	326.698	0.056	0.107
-254.107	111.914	0.112	-0.134
-253.092	-200.000	0.056	0.426
-252.078	-200.000	0.006	-0.314
-251.063	-157.751	-0.155	0.009
-250.049	213.587	-0.052	0.081
-249.034	-34.242	0.265	-0.144
-248.019	646.900	-0.082	-0.207
-247.005	-200.000	-0.032	0.182
-245.990	800.000	-0.024	0.103
-244.976	95.368	-0.252	-0.285
-243.961	15.717	0.103	-0.080
-242.946	26.852	0.151	0.126
-241.932	96.643	0.345	0.391
-240.917	-134.704	0.075	-0.009
-239.903	-60.363	0.207	-0.087
-238.888	-200.000	0.012	-0.329
-237.873	-200.000	-0.027	-0.121
-236.859	-200.000	0.002	-0.143
-235.844	-80.752	0.228	0.075
-234.830	-139.702	-0.347	-0.036
-233.815	-155.411	-0.120	-0.008
-232.800	33.932	0.063	0.054
-231.786	800.000	-0.154	-0.560
-230.771	208.385	0.039	0.060
-229.757	-200.000	0.050	0.276
-228.742	-7.108	0.270	0.181
-227.727	-50.503	-0.133	0.062
-226.713	-60.339	-0.240	0.101
-225.698	148.937	0.142	0.190
-224.684	407.513	0.104	0.217
-223.669	-200.000	-0.042	0.283
-222.655	-157.437	-0.353	0.021
-221.640	175.083	-0.143	0.205
-220.625	-200.000	0.032	0.165
-219.611	341.301	-0.087	-0.168
-218.596	164.308	-0.181	-0.252
-217.582	-6.607	0.172	0.116
-216.567	-0.541	0.046	0.032
-215.552	-200.000	-0.005	-0.161
-214.538	-57.629	-0.282	-0.122
-213.523	-200.000	0.034	-0.280
-212.509	-200.000	-0.010	0.140
-211.494	68.152	-0.101	0.102
-210.479	328.594	-0.108	0.204
-209.465	2.921	-0.112	-0.080
-208.450	-0.749	-0.398	0.279
-207.436	-113.090	0.125	0.024
-206.421	-21.404	-0.147	0.089
-205.406	-31.530	-0.092	-0.051
-204.392	-200.000	0.004	-0.268
-203.377	611.884	0.131	0.324
-202.363	303.397	-0.058	0.107
-201.348	24.749	-0.226	0.185
-200.333	-200.000	-0.022	0.210
-199.319	-200.000	-0.034	0.184
-198.304	-54.703	0.132	-0.059
-197.290	-22.927	-0.068	0.040
-196.275	-29.076	-0.081	-0.046
-195.260	212.817	-0.254	0.396
-194.246	-107.236	-0.219	0.048
-193.231	35.038	0.288	-0.249
-192.217	-71.863	0.245	0.090
-191.202	-200.000	0.053	0.276
-190.187	106.977	-0.158	0.186
-189.173	-85.959	-0.355	0.108
-188.158	-75.910	0.385	-0.135
-187.144	800.000	0.070	-0.218
-186.129	800.000	0.075	-0.280
-185.114	-60.332	0.138	0.058
-184.100	-200.000	-0.251	-0.001
-183.085	-9.060	-0.093	-0.062
-182.071	10.636	0.285	0.214
-181.056	679.425	0.125	0.320
-180.042	58.835	0.039	0.038
-179.027	-23.398	0.358	-0.213
-178.012	-200.000	-0.018	-0.135
-176.998	-25.369	-0.127	-0.074
-175.983	341.086	0.051	-0.098
-174.969	39.551	-0.277	-0.245
-173.954	800.000	0.058	0.176
-172.939	-200.000	0.007	0.173
-171.925	-24.144	0.225	0.133
-170.910	-38.818	0.216	0.112
-169.896	-200.000	0.006	-0.381
-168.881	33.731	-0.253	0.218
-167.866	478.580	0.048	0.106
-166.852	-200.000	0.031	0.143
-165.837	-120.477	-0.186	0.031
-164.823	-200.000	0.000	-0.041
-163.808	800.000	-0.035	-0.127
-162.793	-200.000	-0.010	0.209
-161.779	-89.065	-0.297	-0.087
-160.764	18.339	0.151	0.119
-159.750	-168.967	-0.009	0.000
-158.735	-72.133	-0.291	-0.107
-157.720	-129.201	0.245	0.034
-156.706	-60.058	0.245	-0.103
-155.691	215.268	0.073	0.114
-154.677	287.555	0.043	-0.077
-153.662	66.088	-0.143	-0.144
-152.647	351.385	-0.046	-0.090
-151.633	-149.567	0.269	0.021
-150.618	-18.728	0.119	0.073
-149.604	-99.914	-0.175	-0.043
-148.589	-36.879	-0.138	-0.073
-147.574	328.288	0.065	-0.123
-146.560	-158.580	0.183	-0.010
-145.545	-64.719	0.116	-0.046
-144.531	80.907	0.072	-0.077
-143.516	121.245	-0.116	0.142
-142.502	800.000	0.053	0.219
-141.487	-7.331	0.276	0.184
-140.472	800.000	-0.116	0.429
-139.458	129.101	0.185	-0.232
-138.443	-200.000	0.000	0.172
-137.429	-131.889	0.268	-0.035
-136.414	530.011	0.150	-0.348
-135.399	-18.904	-0.245	-0.150
-134.385	-99.548	-0.060	0.015
-133.370	-20.681	-0.109	0.066
-132.356	102.668	0.134	-0.154
-131.341	800.000	0.048	-0.134
-130.326	-53.839	-0.037	-0.016
-129.312	-29.128	0.377	-0.213
-128.297	-200.000	-0.011	-0.132
-127.283	86.259	0.094	0.102
-126.268	732.556	0.186	-0.490
-125.253	-159.710	0.380	0.021
-124.239	-200.000	-0.031	-0.177
-123.224	547.150	0.193	-0.456
-122.210	56.307	0.177	0.169
-121.195	800.000	0.087	-0.286
-120.180	19.963	0.298	0.236
-119.166	-200.000	-0.043	0.321
-118.151	-200.000	-0.044	0.246
-117.137	800.000	-0.045	-0.177
-116.122	-200.000	0.061	-0.284
-115.107	350.422	0.165	0.322
-114.093	-54.964	-0.090	0.040
-113.078	-200.000	-0.026	0.413
-112.064	725.467	-0.163	0.427
-111.049	128.918	0.278	-0.349
-110.034	-74.705	-0.145	0.051
-109.020	73.158	0.018	-0.019
-108.005	-100.271	-0.295	0.072
-106.991	800.000	0.016	0.059
-105.976	337.726	0.264	-0.505
-104.962	157.879	-0.086	0.118
-103.947	-75.730	0.211	0.074
-102.932	-0.180	0.151	-0.106
-101.918	-71.581	-0.181	0.067
-100.903	-200.000	-0.012	0.069
-99.889	-63.641	0.148	-0.060
-98.874	235.072	-0.049	-0.080
-97.859	605.460	-0.034	0.084
-96.845	-87.669	-0.612	-0.182
-95.830	-77.970	-0.226	-0.077
-94.816	-144.845	0.065	-0.006
-93.801	-19.162	-0.155	-0.095
-92.786	-66.201	-0.301	-0.118
-91.772	-68.687	0.230	-0.087
-90.757	-22.433	0.055	-0.032
-89.743	-132.123	0.413	-0.053
-88.728	257.084	-0.157	0.266
-87.713	137.040	0.133	0.171
-86.699	-9.100	-0.202	-0.133
-85.684	-61.557	-0.204	0.084
-84.670	4.055	0.214	0.154
-83.655	177.684	0.210	0.301
-82.640	-87.658	-0.167	-0.050
-81.626	-102.833	0.116	-0.027
-80.611	86.992	0.087	-0.094
-79.597	7.507	0.323	-0.238
-78.582	-200.000	-0.030	0.151
-77.567	-111.769	-0.424	0.084
-76.553	-71.282	-0.379	0.140
-75.538	800.000	-0.078	0.314
-74.524	800.000	0.139	0.411
-73.509	-56.834	0.244	-0.106
-72.494	-104.051	-0.247	0.056
-71.480	207.814	0.021	0.032
-70.465	-86.830	-0.124	0.037
-69.451	800.000	-0.010	-0.037
-68.436	-200.000	-0.022	0.122
-67.422	555.451	0.132	-0.313
-66.407	622.976	0.058	-0.144
-65.392	-200.000	0.046	-0.272
-64.378	-145.416	-0.361	0.032
-63.363	-167.105	-0.253	0.010
-62.349	125.633	0.045	0.056
-61.334	2.329	-1.077	-0.766
-60.319	530.477	0.302	0.701
-59.305	800.000	-0.228	-0.945
-58.290	283.530	0.567	1.002
-57.276	679.002	0.606	1.550
-56.261	-200.000	103.299	620.129
-55.246	608.085	1440.681	3531.579
-54.232	180.940	2660.286	3839.492
-53.217	113.028	2307.440	2747.894
-52.203	43.461	1917.032	1721.337
-51.188	37.256	1705.236	1483.870
-50.173	34.470	1660.883	1424.446
-49.159	52.220	1713.233	1604.439
-48.144	54.541	1729.409	1637.118
-47.130	36.791	1683.978	1461.632
-46.115	34.015	1668.405	1427.257
-45.100	33.768	1664.284	1421.823
-44.086	33.749	1661.866	1419.557
-43.071	33.734	1658.735	1416.715
-42.057	33.759	1656.603	1415.025
-41.042	33.753	1654.543	1413.165
-40.027	33.841	1652.770	1412.248
-39.013	33.789	1650.575	1409.934
-37.998	33.710	1648.488	1407.508
-36.984	33.806	1647.494	1407.318
-35.969	33.957	1645.762	1406.896
-34.954	33.918	1644.080	1405.114
-33.940	33.986	1641.834	1403.640
-32.925	33.990	1640.132	1402.159
-31.911	33.983	1638.566	1400.712
-30.896	33.876	1636.944	1398.486
-29.881	33.880	1635.416	1397.157
-28.867	33.894	1633.399	1395.478
-27.852	33.854	1631.778	1393.743
-26.838	33.962	1630.308	1393.222
-25.823	33.895	1628.752	1391.353
-24.809	33.966	1627.356	1390.618
-23.794	34.020	1626.040	1389.838
-22.779	33.966	1624.631	1388.184
-21.765	33.876	1623.043	1386.115
-20.750	33.903	1621.554	1384.981
-19.736	33.919	1620.228	1383.916
-18.721	33.966	1618.301	1382.557
-17.706	34.004	1616.586	1381.307
-16.692	33.969	1615.300	1379.900
-15.677	33.931	1614.169	1378.605
-14.663	33.920	1612.727	1377.243
-13.648	33.916	1611.100	1375.764
-12.633	33.900	1610.065	1374.712
-11.619	33.982	1608.354	1373.792
-10.604	33.925	1606.451	1371.696
-9.590	34.011	1605.503	1371.454
-8.575	33.945	1604.239	1369.846
-7.560	33.969	1602.953	1368.868
-6.546	33.991	1601.768	1367.956
-5.531	34.010	1600.737	1367.162
-4.517	33.885	1599.623	1365.259
-3.502	34.006	1598.553	1365.153
-2.487	33.983	1596.892	1363.518
-1.473	33.496	1584.802	1349.672
-0.458	30.256	1563.176	1308.396
0.556	23.753	1562.445	1270.759
1.571	21.088	1586.051	1270.471
2.586	20.789	1598.838	1278.400
3.600	18.890	1547.338	1223.608
4.615	10.327	1436.953	1079.371
5.629	1.579	1368.846	972.385
6.644	-0.218	1359.955	954.560
7.659	-0.401	1358.868	952.553
8.673	-0.323	1357.493	951.997
9.688	-0.417	1355.722	950.075
10.702	-0.559	1352.565	946.881
11.717	2.726	1359.575	972.560
12.731	12.066	1376.847	1044.582
13.746	18.505	1386.952	1093.355
14.761	18.980	1387.064	1096.374
15.775	18.972	1386.524	1095.798
16.790	18.977	1386.190	1095.466
17.804	19.128	1385.308	1095.637
18.819	19.294	1384.985	1096.339
19.834	19.349	1384.447	1096.165
20.848	19.249	1383.979	1095.061
21.863	19.318	1382.931	1094.574
22.877	19.391	1381.692	1093.963
23.892	19.343	1381.252	1093.210
24.907	19.353	1380.163	1092.315
25.921	19.466	1378.971	1091.994
26.936	19.279	1378.555	1090.383
27.950	19.351	1376.978	1089.497
28.965	19.332	1376.013	1088.514
29.980	19.370	1374.433	1087.405
30.994	19.357	1372.750	1085.899
32.009	19.283	1372.135	1084.847
33.023	19.374	1370.957	1084.393
34.038	19.404	1369.888	1083.643
35.053	19.357	1368.949	1082.507
36.067	19.415	1367.390	1081.542
37.082	19.388	1366.851	1080.850
38.096	19.357	1365.851	1079.768
39.111	19.487	1365.044	1079.852
40.126	19.262	1364.832	1078.182
41.140	19.369	1364.233	1078.283
42.155	19.326	1363.783	1077.558
43.169	19.376	1363.512	1077.566
44.184	19.374	1363.487	1077.437
45.199	19.329	1362.583	1076.346
46.213	19.335	1362.171	1075.962
47.228	19.355	1361.317	1075.318
48.242	19.302	1360.251	1074.048
49.257	19.375	1358.589	1073.094
50.271	19.385	1356.843	1071.683
51.286	19.258	1356.014	1070.145
52.301	19.283	1355.002	1069.405
53.315	19.314	1353.819	1068.574
54.330	19.353	1352.997	1068.068
55.344	19.474	1351.626	1067.640
56.359	19.369	1350.744	1066.201
57.374	19.309	1350.125	1065.247
58.388	19.338	1349.046	1064.482
59.403	19.363	1348.781	1064.334
60.417	19.243	1348.198	1063.037
61.432	19.305	1347.228	1062.563
62.447	19.364	1346.123	1061.957
63.461	19.363	1345.189	1061.125
64.476	19.326	1344.241	1060.053
65.490	19.423	1343.079	1059.636
66.505	19.490	1341.016	1058.326
67.520	19.335	1340.201	1056.641
68.534	19.369	1338.941	1055.764
69.549	19.380	1337.725	1054.778
70.563	19.458	1336.507	1054.199
71.578	19.469	1335.379	1053.282
72.593	19.393	1335.253	1052.626
73.607	19.323	1334.555	1051.556
74.622	19.381	1333.637	1051.096
75.636	19.305	1333.019	1050.051
76.651	19.415	1332.264	1050.036
77.666	19.378	1332.192	1049.659
78.680	19.339	1331.193	1048.545
79.695	19.373	1330.336	1047.979
80.709	19.398	1329.641	1047.490
81.724	19.354	1328.541	1046.265
82.739	19.385	1327.057	1045.194
83.753	19.348	1326.434	1044.388
84.768	19.343	1325.518	1043.541
85.782	19.409	1323.738	1042.446
86.797	19.389	1322.754	1041.460
87.812	19.395	1321.574	1040.474
88.826	19.526	1320.207	1040.093
89.841	19.388	1319.539	1038.644
90.855	19.398	1318.619	1037.887
91.870	19.379	1318.029	1037.218
92.884	19.343	1317.413	1036.425
93.899	19.332	1315.942	1035.109
94.914	19.478	1314.595	1034.837
95.928	19.512	1314.213	1034.650
96.943	19.449	1313.488	1033.605
97.957	19.421	1312.645	1032.685
98.972	19.445	1311.593	1031.908
99.987	19.493	1310.481	1031.230
101.001	19.418	1309.146	1029.639
102.016	19.336	1308.379	1028.457
103.030	19.443	1307.701	1028.473
104.045	19.444	1306.833	1027.703
105.060	19.503	1305.585	1026.985
106.074	19.513	1304.356	1025.982
107.089	19.551	1303.317	1025.300
108.103	19.528	1302.149	1024.153
109.118	19.483	1301.198	1023.053
110.133	19.525	1299.868	1022.164
111.147	19.563	1298.497	1021.219
112.162	19.546	1297.214	1020.022
113.176	19.489	1296.224	1018.813
114.191	19.606	1294.961	1018.421
115.206	19.517	1294.040	1017.085
116.220	19.523	1292.731	1016.000
117.235	19.602	1291.581	1015.468
118.249	19.577	1290.830	1014.643
119.264	19.486	1289.924	1013.304
120.279	19.526	1288.889	1012.638
121.293	19.586	1288.092	1012.275
122.308	19.610	1287.265	1011.677
123.322	19.477	1285.884	1009.723
124.337	19.488	1284.907	1008.931
125.352	19.617	1283.872	1008.781
126.366	19.567	1282.817	1007.574
127.381	19.554	1281.850	1006.651
128.395	19.607	1280.965	1006.170
129.410	19.573	1280.618	1005.614
130.424	19.599	1279.550	1004.839
131.439	19.655	1278.258	1004.057
132.454	19.565	1277.660	1002.976
133.468	19.539	1276.613	1001.914
134.483	19.515	1276.360	1001.490
135.497	19.550	1275.102	1000.616
136.512	19.454	1274.202	999.265
137.527	19.522	1272.802	998.470
138.541	19.528	1271.501	997.399
139.556	19.533	1269.664	995.896
140.570	19.541	1268.633	995.047
141.585	19.553	1267.471	994.114
142.600	19.558	1266.072	992.959
143.614	19.515	1265.305	992.025
144.629	19.432	1264.509	990.835
145.643	19.460	1262.968	989.703
146.658	19.426	1262.203	988.816
147.673	19.402	1261.057	987.699
148.687	19.543	1260.019	987.604
149.702	19.414	1259.088	986.050
150.716	19.510	1257.756	985.466
151.731	19.466	1257.080	984.597
152.746	19.531	1256.056	984.080
153.760	19.603	1254.669	983.318
154.775	19.532	1253.524	981.930
155.789	19.597	1252.779	981.625
156.804	19.469	1252.119	980.294
157.819	19.508	1251.063	979.602
158.833	19.592	1249.745	978.960
159.848	19.542	1249.254	978.205
160.862	19.592	1247.910	977.349
161.877	19.585	1247.089	976.580
162.892	19.581	1246.480	975.995
163.906	19.581	1245.961	975.502
164.921	19.559	1244.967	974.512
165.935	19.630	1244.097	974.149
166.950	19.585	1243.876	973.633
167.964	19.633	1242.794	972.971
168.979	19.577	1242.702	972.500
169.994	19.566	1241.879	971.705
171.008	19.600	1240.961	971.094
172.023	19.695	1239.917	970.724
173.037	19.652	1239.286	969.903
174.052	19.882	1238.427	970.434
175.067	19.765	1237.806	969.205
176.081	19.782	1236.977	968.566
177.096	19.704	1235.908	967.208
178.110	19.665	1234.879	966.098
179.125	19.732	1234.011	965.710
180.140	19.779	1233.203	965.252
181.154	19.778	1231.820	964.080
182.169	19.660	1231.348	962.968
183.183	19.871	1229.375	962.512
184.198	19.751	1228.617	961.167
185.213	19.762	1228.228	960.841
186.227	19.720	1227.123	959.653
187.242	19.843	1225.913	959.308
188.256	19.635	1225.517	957.760
189.271	19.817	1224.613	957.975
190.286	19.794	1223.554	956.935
191.300	19.678	1223.128	955.875
192.315	19.700	1222.558	955.468
193.329	19.724	1222.298	955.312
194.344	19.793	1221.481	954.972
195.359	19.722	1221.231	954.296
196.373	19.690	1220.503	953.468
197.388	19.694	1219.911	952.943
198.402	19.697	1219.682	952.698
199.417	19.663	1219.021	951.910
200.432	19.810	1218.140	951.944
201.446	19.696	1217.897	951.045
202.461	19.584	1217.351	949.918
203.475	19.728	1216.094	949.646
204.490	19.755	1214.795	948.697
205.504	19.742	1213.891	947.835
206.519	19.820	1213.144	947.592
207.534	19.852	1211.881	946.696
208.548	19.743	1211.155	945.452
209.563	19.706	1210.560	944.698
210.577	19.763	1209.699	944.257
211.592	19.840	1208.830	943.914
212.607	19.954	1207.835	943.675
213.621	19.813	1207.184	942.315
214.636	19.803	1206.398	941.562
215.650	19.983	1205.871	942.050
216.665	19.749	1204.885	939.921
217.680	19.780	1203.929	939.260
218.694	19.928	1202.588	938.935
219.709	19.863	1202.360	938.322
220.723	19.906	1201.857	938.078
221.738	19.870	1200.840	937.007
222.753	19.747	1200.588	936.064
223.767	19.846	1199.938	936.010
224.782	19.947	1199.437	936.080
225.796	20.051	1198.378	935.735
226.811	20.051	1197.865	935.249
227.826	20.083	1197.394	934.973
228.840	19.976	1196.484	933.604
229.855	19.894	1196.153	932.817
230.869	19.922	1195.244	932.176
231.884	19.858	1194.707	931.335
232.899	19.950	1193.912	931.126
233.913	19.995	1193.661	931.090
234.928	19.967	1192.650	930.069
235.942	20.067	1192.225	930.192
236.957	19.995	1191.617	929.248
237.972	19.912	1190.922	928.176
238.986	19.957	1190.100	927.696
240.001	20.042	1189.604	927.684
241.015	19.977	1189.051	926.824
242.030	20.140	1187.737	926.585
243.045	20.071	1187.050	925.602
244.059	20.115	1186.452	925.286
245.074	20.158	1185.347	924.572
246.088	20.139	1185.056	924.161
247.103	20.213	1183.658	923.383
248.117	20.077	1183.320	922.316
249.132	20.119	1182.612	921.907
250.147	20.222	1182.131	921.999
251.161	20.178	1181.394	921.109
252.176	20.213	1180.623	920.609
253.190	20.276	1179.936	920.328
254.205	20.198	1179.174	919.236
255.220	20.161	1178.818	918.682
256.234	20.169	1178.254	918.203
257.249	20.224	1177.609	917.913
258.263	20.153	1177.140	917.091
259.278	20.238	1175.853	916.454
260.293	20.224	1176.088	916.481
261.307	20.262	1175.428	916.086
262.322	20.273	1174.828	915.595
263.336	20.150	1174.264	914.429
264.351	20.236	1173.581	914.266
265.366	20.299	1172.526	913.696
266.380	20.362	1171.878	913.443
267.395	20.213	1171.220	912.068
268.409	20.117	1171.072	911.366
269.424	20.265	1170.178	911.366
270.439	20.326	1169.917	911.405
271.453	20.323	1168.895	910.509
272.468	20.215	1168.368	909.454
273.482	20.277	1167.665	909.152
274.497	20.265	1167.219	908.659
275.512	20.361	1166.336	908.393
276.526	20.371	1165.545	907.747
277.541	20.376	1164.966	907.242
278.555	20.383	1164.190	906.595
279.570	20.379	1163.853	906.235
280.585	20.403	1162.991	905.608
281.599	20.410	1161.936	904.743
282.614	20.358	1161.205	903.824
283.628	20.407	1160.183	903.201
284.643	20.355	1159.237	902.117
285.657	20.492	1158.390	902.088
286.672	20.471	1157.283	901.036
287.687	20.501	1156.998	900.892
288.701	20.505	1156.088	900.121
289.716	20.435	1155.582	899.285
290.730	20.433	1155.161	898.868
291.745	20.456	1154.374	898.297
292.760	20.482	1153.838	897.934
293.774	20.476	1153.500	897.558
294.789	20.458	1152.625	896.708
295.803	20.502	1152.098	896.442
296.818	20.538	1151.358	895.977
297.833	20.591	1150.156	895.231
298.847	20.673	1149.558	895.110
299.862	20.564	1148.976	894.017
300.876	20.578	1148.931	893.975
301.891	20.641	1147.804	893.344
302.906	20.637	1146.970	892.592
303.920	20.621	1146.471	892.045
304.935	20.555	1145.935	891.210
305.949	20.598	1144.947	890.584
306.964	20.723	1144.284	890.626
307.979	20.609	1144.157	889.869
308.993	20.611	1143.497	889.286
310.008	20.739	1142.260	888.899
311.022	20.761	1141.490	888.333
312.037	20.645	1140.940	887.234
313.052	20.626	1140.037	886.356
314.066	20.695	1139.257	886.023
315.081	20.659	1138.779	885.390
316.095	20.702	1137.794	884.765
317.110	20.726	1137.557	884.626
318.125	20.692	1136.679	883.690
319.139	20.730	1135.953	883.239
320.154	20.807	1135.482	883.185
321.168	20.852	1134.802	882.807
322.183	20.802	1134.211	882.019
323.197	20.692	1133.732	881.009
324.212	20.610	1133.293	880.174
325.227	20.914	1132.336	880.892
326.241	20.828	1131.728	879.906
327.256	20.897	1131.025	879.631
328.270	20.860	1130.022	878.583
329.285	20.694	1129.950	877.614
330.300	20.830	1128.665	877.225
331.314	20.869	1127.565	876.486
332.329	20.910	1127.006	876.181
333.343	20.944	1125.976	875.474
334.358	20.958	1125.703	875.255
335.373	20.816	1125.178	874.054
336.387	20.821	1124.512	873.484
337.402	20.836	1123.533	872.725
338.416	20.930	1122.707	872.476
339.431	21.016	1122.049	872.318
340.446	20.994	1121.619	871.798
341.460	20.945	1121.553	871.422
342.475	20.993	1120.580	870.829
343.489	20.901	1119.549	869.491
344.504	21.059	1118.191	869.147
345.519	21.015	1117.451	868.276
346.533	20.972	1116.873	867.536
347.548	21.025	1116.401	867.359
348.562	21.008	1115.786	866.719
349.577	21.005	1115.044	866.050
350.592	21.057	1113.963	865.392
351.606	21.106	1113.661	865.322
352.621	21.045	1112.996	864.430
353.635	21.093	1112.379	864.112
354.650	21.115	1111.666	863.586
355.665	21.132	1110.778	862.904
356.679	21.171	1110.507	862.814
357.694	21.199	1109.834	862.350
358.708	21.098	1109.218	861.297
359.723	21.130	1108.287	860.654
360.738	21.085	1107.559	859.793
361.752	21.098	1107.904	860.047
362.767	21.123	1107.069	859.445
363.781	21.146	1106.750	859.237
364.796	21.110	1106.071	858.459
365.810	21.164	1105.207	857.977
366.825	21.149	1104.545	857.312
367.840	21.281	1103.889	857.374
368.854	21.292	1103.432	857.000
369.869	21.260	1102.689	856.191
370.883	21.331	1101.551	855.579
371.898	21.271	1101.065	854.828
372.913	21.256	1100.506	854.247
373.927	21.380	1099.889	854.301
374.942	21.351	1099.472	853.759
375.956	21.275	1099.174	853.079
376.971	21.402	1098.166	852.842
377.986	21.415	1097.689	852.458
379.000	21.381	1097.174	851.815
380.015	21.464	1096.466	851.595
381.029	21.420	1096.004	850.947
382.044	21.378	1095.026	849.909
383.059	21.441	1094.684	849.876
384.073	21.418	1093.905	849.084
385.088	21.484	1093.113	848.714
386.102	21.466	1092.194	847.837
387.117	21.336	1091.698	846.748
388.132	21.350	1090.622	845.907
389.146	21.478	1089.743	845.769
390.161	21.502	1089.276	845.449
391.175	21.364	1088.549	844.143
392.190	21.465	1088.257	844.328
393.205	21.506	1086.964	843.448
394.219	21.543	1086.474	843.171
395.234	21.643	1085.833	843.082
396.248	21.517	1084.783	841.585
397.263	21.554	1083.776	840.907
398.278	21.631	1083.504	840.992
399.292	21.735	1082.478	840.618
400.307	21.701	1082.029	840.031
401.321	21.630	1081.286	839.042
402.336	21.611	1080.725	838.439
403.350	21.579	1080.420	837.979
404.365	21.661	1079.508	837.590
405.380	21.627	1078.550	836.610
406.394	21.846	1077.250	836.570
407.409	21.762	1076.742	835.703
408.423	21.721	1076.280	835.076
409.438	21.811	1075.304	834.671
410.453	21.774	1075.187	834.329
411.467	21.761	1074.479	833.645
412.482	21.736	1073.479	832.677
413.496	21.909	1072.394	832.580
414.511	21.872	1072.045	832.061
415.526	21.765	1071.938	831.401
416.540	21.672	1071.739	830.731
417.555	21.825	1070.747	830.612
418.569	21.743	1070.484	829.948
419.584	21.744	1070.122	829.595
420.599	21.846	1069.958	829.881
421.613	147.965	1396.449	1792.345
422.628	136.386	1443.993	1792.477
