DTS Sentinel unit serial number:	SN413079Multiplexer serial number:	ORYXHardware model number:	OX4-SRSoftware version number:	ORYX F/W v4.00 Oryx Data Collector v3.7.2.0data status	okinstallation	princeton_trtdifferential loss correction	single-endedforward channel	channel 2reverse channel	N/Adate	2019/09/12time	04:33:11forward acquisition time	60.00reverse acquisition time	0.00gamma	496.2192k internal	0.2327k external	0.2327temperature offset calibration	1.0114default loss term (dB/km)	0.3790temperature slope calibration	1.0000multiplexer offset coefficient	1.0000multiplexer slope coefficient	1.0000fibre end	0.00T internal ref (°C)	31.61T ext. ref 1 (°C)	2.45T ext. ref 2 (°C)	26.65length (m)	temperature (°C)	Stokes	anti-Stokes-747.200	-12.357	0.211	-0.139
-746.185	123.906	0.233	0.295
-745.171	-154.668	0.260	-0.017
-744.156	-110.549	-0.034	0.007
-743.142	61.144	-0.128	0.128
-742.127	800.000	-0.103	0.339
-741.112	-63.693	-0.196	0.081
-740.098	201.766	0.058	0.090
-739.083	333.458	-0.067	-0.130
-738.069	354.172	0.179	0.357
-737.054	-88.250	-0.114	0.034
-736.039	666.933	0.144	-0.376
-735.025	507.447	0.130	-0.305
-734.010	-51.953	-0.112	-0.052
-732.996	-129.301	-0.029	-0.004
-731.981	358.220	-0.059	-0.119
-730.966	-100.416	0.192	0.048
-729.952	-22.993	-0.162	-0.099
-728.937	86.186	0.114	-0.127
-727.923	-34.597	-0.369	0.204
-726.908	-200.000	-0.010	-0.085
-725.894	-96.452	-0.170	0.045
-724.879	43.723	-0.132	-0.121
-723.864	800.000	0.059	0.166
-722.850	800.000	0.096	-0.276
-721.835	-16.835	-0.163	-0.104
-720.821	-74.587	-0.296	0.107
-719.806	119.874	0.248	0.310
-718.791	14.201	-0.141	-0.111
-717.777	-56.063	-0.119	-0.054
-716.762	-14.259	-0.188	-0.122
-715.748	340.866	-0.103	-0.202
-714.733	217.725	-0.146	-0.235
-713.718	186.531	0.150	-0.225
-712.704	-113.116	-0.020	0.004
-711.689	272.073	0.168	0.298
-710.675	-32.665	-0.439	0.246
-709.660	198.453	-0.162	-0.249
-708.645	235.535	0.148	0.247
-707.631	152.031	0.098	0.134
-706.616	68.375	-0.022	-0.023
-705.602	-200.000	-0.051	0.339
-704.587	-49.268	0.063	-0.030
-703.572	-34.149	0.313	-0.173
-702.558	-200.000	0.005	0.130
-701.543	-117.237	-0.340	0.062
-700.529	800.000	0.063	0.226
-699.514	800.000	-0.044	-0.168
-698.499	-141.850	0.347	-0.035
-697.485	208.596	-0.104	-0.164
-696.470	65.841	0.337	-0.344
-695.456	-150.965	-0.330	-0.025
-694.441	75.935	-0.188	0.200
-693.426	95.217	0.018	-0.021
-692.412	800.000	-0.070	0.196
-691.397	111.346	-0.151	0.183
-690.383	267.972	0.030	0.053
-689.368	-12.773	0.224	0.147
-688.354	-113.348	0.231	0.046
-687.339	516.829	-0.131	-0.309
-686.324	171.627	-0.318	-0.459
-685.310	169.260	0.012	-0.017
-684.295	-200.000	-0.065	0.354
-683.281	-200.000	-0.011	-0.056
-682.266	-139.914	-0.329	-0.035
-681.251	-151.619	0.219	-0.016
-680.237	-200.000	-0.054	-0.247
-679.222	22.485	0.180	-0.148
-678.208	-200.000	0.007	-0.175
-677.193	-135.455	-0.139	0.017
-676.178	-0.256	0.021	0.015
-675.164	-200.000	-0.010	-0.051
-674.149	-64.195	-0.109	-0.044
-673.135	709.983	-0.051	-0.136
-672.120	-165.577	0.301	0.013
-671.105	-71.803	-0.177	-0.066
-670.091	800.000	-0.054	-0.152
-669.076	704.847	-0.155	-0.412
-668.062	-154.636	0.274	-0.018
-667.047	-133.260	0.112	-0.014
-666.032	-200.000	-0.011	-0.392
-665.018	175.705	0.118	-0.172
-664.003	246.357	-0.108	-0.183
-662.989	800.000	0.079	0.329
-661.974	-78.876	0.256	0.088
-660.959	800.000	0.125	0.364
-659.945	-193.254	-0.075	-0.001
-658.930	-29.478	0.159	-0.091
-657.916	-6.464	0.142	-0.097
-656.901	11.509	-0.088	0.068
-655.886	800.000	-0.086	-0.303
-654.872	-121.113	0.278	0.047
-653.857	-70.894	-0.198	0.075
-652.843	401.182	0.068	-0.144
-651.828	647.627	0.024	-0.061
-650.814	800.000	-0.052	0.172
-649.799	-200.000	0.015	-0.222
-648.784	382.562	0.023	-0.047
-647.770	58.256	-0.021	0.020
-646.755	301.828	0.082	0.153
-645.741	66.124	0.071	-0.073
-644.726	631.549	-0.052	0.131
-643.711	128.234	0.120	0.153
-642.697	-51.120	-0.052	0.025
-641.682	800.000	0.037	-0.139
-640.668	-12.554	-0.062	0.041
-639.653	673.287	-0.052	-0.134
-638.638	73.677	-0.157	-0.165
-637.624	-123.324	0.123	-0.020
-636.609	446.359	0.229	0.506
-635.595	364.525	0.120	-0.242
-634.580	-134.203	-0.182	0.022
-633.565	-82.418	-0.262	-0.085
-632.551	-200.000	0.026	0.261
-631.536	-133.066	-0.355	0.045
-630.522	-139.963	-0.151	-0.016
-629.507	-72.515	-0.076	-0.028
-628.492	478.297	0.090	-0.205
-627.478	-200.000	0.010	-0.147
-626.463	800.000	-0.097	-0.329
-625.449	-200.000	0.013	-0.198
-624.434	376.974	-0.087	-0.177
-623.419	55.221	-0.244	-0.236
-622.405	800.000	-0.012	-0.051
-621.390	617.276	-0.069	-0.173
-620.376	-77.480	-0.159	-0.055
-619.361	131.138	-0.243	0.313
-618.346	266.539	-0.025	-0.045
-617.332	-200.000	0.034	0.189
-616.317	219.722	-0.121	-0.194
-615.303	32.527	-0.139	-0.120
-614.288	-200.000	0.019	0.290
-613.273	-40.577	0.208	0.108
-612.259	7.543	0.158	-0.118
-611.244	-55.454	0.101	-0.045
-610.230	-121.812	-0.312	0.052
-609.215	-53.022	-0.394	0.182
-608.201	-95.789	-0.391	0.105
-607.186	-49.505	-0.259	0.123
-606.171	-101.128	0.277	-0.068
-605.157	225.995	-0.039	-0.063
-604.142	128.642	-0.048	0.062
-603.128	-78.590	-0.167	0.057
-602.113	275.685	-0.098	0.174
-601.098	153.793	-0.065	-0.090
-600.084	-50.377	0.261	-0.124
-599.069	61.756	-0.324	-0.323
-598.055	-152.426	0.380	0.027
-597.040	89.960	0.132	-0.148
-596.025	-200.000	-0.092	0.497
-595.011	565.728	0.156	-0.379
-593.996	716.900	0.068	-0.181
-592.982	-52.813	0.141	-0.065
-591.967	-200.000	-0.023	-0.336
-590.952	1.867	0.133	-0.096
-589.938	114.766	0.057	0.070
-588.923	-53.402	-0.148	-0.068
-587.909	8.965	-0.097	0.074
-586.894	-156.642	0.331	-0.021
-585.879	164.809	0.110	0.156
-584.865	-200.000	-0.066	-0.300
-583.850	162.349	0.027	-0.039
-582.836	201.248	-0.265	0.409
-581.821	347.318	-0.142	-0.280
-580.806	-44.856	0.139	-0.069
-579.792	-58.516	-0.378	-0.165
-578.777	608.031	0.069	0.173
-577.763	-200.000	-0.011	-0.339
-576.748	-57.454	0.090	0.040
-575.733	56.423	-0.285	0.277
-574.719	-99.347	0.192	0.048
-573.704	6.930	0.166	-0.124
-572.690	-152.853	0.290	-0.021
-571.675	800.000	-0.046	0.178
-570.661	-25.594	-0.207	0.122
-569.646	-200.000	-0.023	-0.304
-568.631	113.594	0.196	-0.239
-567.617	800.000	0.038	0.136
-566.602	-11.519	-0.077	-0.051
-565.588	-73.383	0.135	0.049
-564.573	-200.000	-0.038	0.234
-563.558	-141.674	0.388	0.039
-562.544	-125.259	0.203	0.031
-561.529	-94.466	0.320	0.087
-560.515	-87.873	-0.218	-0.066
-559.500	800.000	-0.060	0.244
-558.485	-200.000	-0.009	-0.195
-557.471	800.000	0.065	-0.261
-556.456	800.000	-0.048	0.162
-555.442	-6.064	0.235	0.161
-554.427	-200.000	0.017	0.175
-553.412	105.190	-0.246	-0.290
-552.398	102.719	0.141	0.165
-551.383	418.710	0.148	-0.316
-550.369	-167.954	-0.475	-0.019
-549.354	-133.992	-0.138	-0.017
-548.339	-200.000	-0.009	-0.146
-547.325	323.805	-0.049	0.093
-546.310	800.000	0.100	0.299
-545.296	800.000	-0.092	-0.328
-544.281	-200.000	-0.010	0.440
-543.266	-87.319	0.223	-0.068
-542.252	3.970	-0.197	0.144
-541.237	-13.675	-0.175	0.113
-540.223	456.917	0.113	0.251
-539.208	-200.000	-0.049	-0.220
-538.193	73.975	0.176	-0.185
-537.179	-123.808	0.194	-0.031
-536.164	106.343	0.082	0.097
-535.150	-200.000	0.055	-0.258
-534.135	800.000	-0.064	0.218
-533.121	135.222	0.089	0.116
-532.106	226.952	0.083	-0.135
-531.091	-120.570	0.129	-0.022
-530.077	150.251	-0.079	-0.108
-529.062	76.593	-0.091	-0.096
-528.048	54.353	-0.104	-0.100
-527.033	-200.000	0.013	-0.203
-526.018	-189.881	0.126	0.001
-525.004	-122.431	-0.306	-0.050
-523.989	-34.961	0.028	0.015
-522.975	800.000	0.010	-0.037
-521.960	-105.112	0.157	0.036
-520.945	296.763	0.067	0.123
-519.931	150.623	0.126	-0.170
-518.916	-200.000	0.047	-0.317
-517.902	-31.715	-0.109	-0.061
-516.887	-30.301	-0.113	-0.064
-515.872	240.355	-0.206	0.342
-514.858	-45.457	-0.161	-0.080
-513.843	-15.009	-0.157	0.100
-512.829	800.000	0.110	-0.382
-511.814	-200.000	-0.000	-0.239
-510.799	-22.829	-0.084	0.051
-509.785	49.887	0.145	0.136
-508.770	71.285	-0.307	-0.318
-507.756	-200.000	0.028	-0.185
-506.741	20.898	-0.059	-0.047
-505.726	55.093	-0.120	-0.116
-504.712	174.842	-0.046	0.066
-503.697	-101.097	-0.196	0.048
-502.683	44.639	0.106	0.098
-501.668	800.000	0.105	-0.318
-500.653	-94.061	-0.230	-0.063
-499.639	-115.732	0.239	0.045
-498.624	-26.490	-0.173	0.101
-497.610	261.265	0.037	0.064
-496.595	800.000	0.097	0.286
-495.581	-96.883	-0.166	0.043
-494.566	309.837	-0.147	-0.274
-493.551	234.356	-0.067	-0.111
-492.537	-46.679	0.264	0.129
-491.522	-200.000	0.010	-0.049
-490.508	700.293	0.025	-0.066
-489.493	152.135	0.147	0.200
-488.478	-36.761	0.185	0.099
-487.464	46.927	0.034	0.032
-486.449	-100.327	-0.340	0.084
-485.435	486.000	-0.152	0.345
-484.420	-159.661	-0.271	-0.015
-483.405	104.486	-0.213	-0.250
-482.391	-123.900	0.173	0.027
-481.376	97.700	0.138	-0.158
-480.362	-185.899	-0.028	-0.000
-479.347	-87.787	0.045	0.013
-478.332	-200.000	-0.037	0.266
-477.318	-56.428	-0.146	0.065
-476.303	414.734	0.109	0.232
-475.289	258.843	0.079	-0.137
-474.274	-11.432	-0.042	-0.028
-473.259	-86.707	0.193	0.059
-472.245	46.170	-0.165	0.153
-471.230	-200.000	0.012	-0.213
-470.216	170.715	-0.101	0.144
-469.201	-34.312	0.193	-0.106
-468.186	-13.609	-0.352	-0.227
-467.172	-200.000	0.006	0.223
-466.157	-34.585	0.244	0.133
-465.143	297.991	-0.092	-0.169
-464.128	-39.663	0.143	-0.075
-463.113	-54.868	0.181	-0.081
-462.099	-126.929	-0.282	-0.041
-461.084	-74.359	0.356	-0.128
-460.070	47.263	-0.179	-0.166
-459.055	328.701	-0.024	0.047
-458.040	-70.631	0.229	0.086
-457.026	-145.795	-0.346	-0.031
-456.011	-200.000	-0.029	-0.307
-454.997	-71.891	0.294	-0.109
-453.982	24.042	-0.062	-0.051
-452.968	-21.662	0.166	-0.101
-451.953	77.001	0.128	0.135
-450.938	89.520	0.119	0.132
-449.924	-86.059	-0.156	0.048
-448.909	204.097	-0.114	0.176
-447.895	53.766	-0.085	0.082
-446.880	-152.613	0.544	0.039
-445.865	800.000	0.065	0.207
-444.851	-7.257	0.321	0.217
-443.836	800.000	-0.043	0.173
-442.822	-122.696	0.147	0.024
-441.807	-100.600	-0.141	0.035
-440.792	-59.839	0.160	-0.068
-439.778	-200.000	-0.008	-0.546
-438.763	-200.000	0.017	-0.352
-437.749	800.000	-0.028	-0.108
-436.734	-103.263	-0.025	-0.006
-435.719	-200.000	-0.026	-0.213
-434.705	225.710	-0.106	0.171
-433.690	-10.126	-0.168	-0.111
-432.676	106.964	0.012	0.014
-431.661	-110.381	0.442	-0.091
-430.646	322.592	-0.103	0.196
-429.632	-21.701	-0.203	0.123
-428.617	800.000	-0.036	-0.122
-427.603	-15.324	-0.455	0.289
-426.588	57.020	-0.086	0.084
-425.573	-83.743	-0.207	-0.066
-424.559	15.247	0.036	-0.028
-423.544	-137.581	0.276	0.031
-422.530	-124.226	-0.166	-0.026
-421.515	-200.000	-0.061	-0.320
-420.500	-119.777	0.269	-0.046
-419.486	44.439	0.279	-0.255
-418.471	231.129	-0.073	-0.120
-417.457	-30.625	-0.205	-0.116
-416.442	-19.375	0.121	-0.075
-415.428	89.695	-0.231	-0.256
-414.413	134.754	0.276	-0.356
-413.398	-38.516	-0.124	0.065
-412.384	-200.000	0.024	-0.247
-411.369	157.460	0.014	0.019
-410.355	-170.686	-0.270	-0.009
-409.340	-126.824	0.200	0.029
-408.325	-121.931	-0.429	-0.070
-407.311	9.903	0.147	0.111
-406.296	-119.903	-0.247	0.042
-405.282	363.417	0.086	0.172
-404.267	-12.599	-0.253	0.164
-403.252	251.105	0.023	-0.039
-402.238	4.597	-0.120	-0.088
-401.223	-80.666	-0.056	-0.019
-400.209	-200.000	-0.006	-0.354
-399.194	-81.984	0.200	-0.065
-398.179	-75.974	-0.451	0.159
-397.165	319.224	0.139	0.263
-396.150	106.988	-0.042	0.049
-395.136	-13.197	-0.325	0.210
-394.121	-200.000	-0.042	0.365
-393.106	-1.755	-0.205	0.143
-392.092	77.361	-0.128	-0.136
-391.077	283.824	0.050	-0.090
-390.063	293.222	0.240	-0.435
-389.048	-14.359	-0.216	0.138
-388.033	15.399	0.196	-0.153
-387.019	-200.000	0.015	0.135
-386.004	427.838	-0.051	0.110
-384.990	-200.000	-0.074	-0.350
-383.975	29.889	-0.319	0.270
-382.960	117.861	0.187	0.229
-381.946	-52.146	0.159	-0.073
-380.931	-200.000	-0.004	-0.054
-379.917	-15.049	0.253	0.161
-378.902	50.944	0.026	-0.024
-377.888	-143.377	0.102	0.010
-376.873	-113.585	-0.037	-0.007
-375.858	218.815	0.116	-0.184
-374.844	232.625	0.036	-0.059
-373.829	110.712	0.214	0.256
-372.815	69.158	-0.251	0.256
-371.800	-107.583	-0.110	0.024
-370.785	-3.109	0.120	0.083
-369.771	459.481	-0.132	0.293
-368.756	87.519	-0.063	0.069
-367.742	-200.000	0.000	0.478
-366.727	-8.796	0.155	0.103
-365.712	-75.040	0.020	-0.007
-364.698	208.634	-0.038	0.059
-363.683	42.371	-0.146	-0.132
-362.669	142.424	0.084	-0.111
-361.654	-83.463	-0.157	-0.050
-360.639	25.552	0.262	0.217
-359.625	-62.628	0.185	-0.076
-358.610	130.496	-0.213	-0.271
-357.596	-200.000	0.044	0.299
-356.581	-144.607	0.128	0.012
-355.566	-23.276	-0.106	0.063
-354.552	-200.000	0.018	-0.251
-353.537	-200.000	0.009	-0.513
-352.523	15.204	-0.079	0.061
-351.508	-148.146	0.193	-0.016
-350.493	184.847	0.085	-0.125
-349.479	463.249	-0.008	0.018
-348.464	187.344	-0.139	0.206
-347.450	-34.677	0.291	-0.158
-346.435	-200.000	-0.010	-0.115
-345.420	-187.770	0.235	0.003
-344.406	800.000	0.044	-0.151
-343.391	2.233	-0.262	-0.188
-342.377	-200.000	0.009	0.066
-341.362	316.479	-0.095	0.179
-340.348	-128.536	0.266	0.037
-339.333	-54.378	0.123	0.055
-338.318	58.033	-0.077	0.075
-337.304	258.402	-0.067	-0.115
-336.289	-76.005	0.265	-0.093
-335.275	-94.065	-0.277	-0.075
-334.260	-40.179	-0.141	0.073
-333.245	92.814	0.239	-0.268
-332.231	55.285	0.177	0.170
-331.216	497.961	-0.150	0.343
-330.202	600.697	-0.071	-0.176
-329.187	418.745	-0.148	0.315
-328.172	-19.100	0.194	-0.120
-327.158	-200.000	-0.047	0.204
-326.143	800.000	-0.025	-0.089
-325.129	13.293	-0.266	0.204
-324.114	120.755	-0.361	0.445
-323.099	-25.293	-0.265	-0.155
-322.085	32.701	0.086	0.074
-321.070	-176.157	0.094	0.002
-320.056	218.687	-0.116	0.184
-319.041	-74.649	0.083	-0.030
-318.026	800.000	0.123	0.357
-317.012	102.980	0.060	0.070
-315.997	-136.650	-0.224	-0.026
-314.983	106.163	0.145	0.170
-313.968	397.069	0.180	0.373
-312.953	-200.000	-0.032	-0.221
-311.939	-200.000	0.008	-0.155
-310.924	-68.248	0.142	-0.055
-309.910	-200.000	-0.036	0.371
-308.895	800.000	-0.059	0.218
-307.880	-200.000	0.005	-0.088
-306.866	3.642	-0.141	0.102
-305.851	99.674	-0.144	-0.165
-304.837	800.000	0.101	-0.334
-303.822	-56.892	-0.046	0.020
-302.807	800.000	-0.086	-0.245
-301.793	-200.000	-0.022	-0.138
-300.778	7.013	-0.291	-0.215
-299.764	120.203	0.066	-0.081
-298.749	-29.207	-0.039	-0.022
-297.735	-76.903	-0.296	-0.103
-296.720	132.861	0.104	-0.132
-295.705	-100.046	0.024	0.006
-294.691	-109.534	0.127	-0.027
-293.676	158.210	-0.184	0.253
-292.662	171.300	-0.198	0.281
-291.647	374.537	-0.129	-0.261
-290.632	-100.895	0.283	-0.069
-289.618	281.217	-0.036	-0.063
-288.603	140.536	0.219	-0.286
-287.589	742.505	0.101	-0.269
-286.574	94.230	0.224	-0.252
-285.559	576.942	-0.076	0.183
-284.545	84.632	0.231	0.250
-283.530	-200.000	-0.011	0.221
-282.516	108.086	-0.172	0.203
-281.501	-108.854	0.394	-0.083
-280.486	79.050	0.184	0.195
-279.472	-86.840	-0.606	0.183
-278.457	172.765	-0.141	-0.201
-277.443	-63.068	0.326	-0.133
-276.428	800.000	0.016	-0.063
-275.413	-66.880	0.083	0.032
-274.399	-196.364	-0.297	0.002
-273.384	74.760	0.092	-0.096
-272.370	232.836	0.212	0.345
-271.355	-200.000	-0.009	0.165
-270.340	23.151	-0.114	-0.093
-269.326	-88.037	0.204	0.060
-268.311	-31.771	-0.064	0.036
-267.297	-200.000	0.005	-0.300
-266.282	-151.461	-0.280	-0.021
-265.267	76.041	0.055	0.058
-264.253	-173.943	0.456	-0.013
-263.238	179.409	0.092	0.133
-262.224	721.528	0.127	-0.335
-261.209	-97.933	0.071	-0.018
-260.195	-200.000	-0.041	-0.201
-259.180	-102.672	0.063	0.015
-258.165	800.000	0.091	-0.360
-257.151	177.301	0.129	0.186
-256.136	800.000	0.114	0.437
-255.122	-72.624	0.383	-0.140
-254.107	-47.988	0.035	0.017
-253.092	-200.000	0.016	0.141
-252.078	-96.272	-0.105	-0.028
-251.063	-91.710	0.124	-0.035
-250.049	131.302	0.208	0.264
-249.034	32.657	0.152	-0.130
-248.019	800.000	-0.019	0.080
-247.005	-110.142	-0.289	-0.060
-245.990	-83.322	-0.401	-0.127
-244.976	800.000	-0.034	0.129
-243.961	-200.000	0.016	-0.413
-242.946	103.048	-0.128	-0.149
-241.932	-9.724	-0.120	-0.079
-240.917	-200.000	0.033	-0.151
-239.903	242.946	0.116	-0.192
-238.888	-72.701	-0.092	-0.033
-237.873	51.169	-0.341	-0.320
-236.859	301.359	0.049	-0.090
-235.844	231.667	0.122	0.198
-234.830	-64.027	0.107	-0.043
-233.815	244.447	0.214	0.355
-232.800	48.641	0.330	-0.306
-231.786	280.768	-0.077	0.136
-230.771	90.186	-0.273	-0.302
-229.757	-200.000	0.002	-0.234
-228.742	800.000	-0.047	0.146
-227.727	-200.000	0.019	-0.329
-226.713	-84.734	-0.290	-0.090
-225.698	-200.000	-0.045	0.243
-224.684	-68.514	0.066	0.025
-223.669	-67.809	-0.106	-0.041
-222.655	-200.000	-0.051	-0.639
-221.640	-200.000	-0.015	0.325
-220.625	139.592	-0.118	0.153
-219.611	168.632	-0.243	-0.342
-218.596	118.722	0.228	0.278
-217.582	800.000	0.038	-0.123
-216.567	800.000	-0.097	-0.271
-215.552	72.572	0.096	0.099
-214.538	800.000	-0.071	0.197
-213.523	333.166	-0.069	0.133
-212.509	158.408	-0.235	0.322
-211.494	198.648	0.077	0.116
-210.479	13.452	-0.231	0.177
-209.465	800.000	0.027	-0.100
-208.450	-200.000	0.030	0.275
-207.436	-47.011	-0.200	0.096
-206.421	40.901	0.096	0.086
-205.406	44.529	0.274	0.248
-204.392	146.247	0.029	0.038
-203.377	-14.994	0.184	0.117
-202.363	548.927	0.197	0.467
-201.348	800.000	0.056	0.190
-200.333	800.000	0.106	-0.289
-199.319	-75.447	-0.095	-0.033
-198.304	-107.709	0.299	-0.064
-197.290	-55.208	0.289	-0.128
-196.275	9.423	0.398	0.298
-195.260	-31.919	-0.121	0.067
-194.246	-156.423	0.458	-0.028
-193.231	800.000	-0.102	0.288
-192.217	-123.715	-0.004	-0.001
-191.202	-117.508	-0.109	-0.019
-190.187	104.837	0.210	-0.244
-189.173	63.437	0.137	0.135
-188.158	272.930	-0.255	0.445
-187.144	-200.000	-0.026	0.210
-186.129	145.333	0.215	0.284
-185.114	73.928	-0.341	0.352
-184.100	143.015	-0.069	0.090
-183.085	-200.000	0.009	0.193
-182.071	-7.982	0.243	0.161
-181.056	-163.320	-0.307	0.014
-180.042	-25.017	-0.039	0.023
-179.027	-101.822	0.437	-0.104
-178.012	293.235	-0.064	-0.116
-176.998	-84.620	0.148	0.046
-175.983	-26.266	-0.230	-0.133
-174.969	315.946	-0.049	0.091
-173.954	-114.830	0.341	0.064
-172.939	-134.997	-0.210	-0.025
-171.925	56.474	-0.205	-0.196
-170.910	48.581	0.148	-0.136
-169.896	-179.067	0.314	-0.007
-168.881	39.896	0.324	0.286
-167.866	-200.000	-0.003	-0.212
-166.852	-134.633	-0.065	-0.008
-165.837	800.000	-0.047	0.175
-164.823	123.437	0.210	0.260
-163.808	-200.000	0.003	0.408
-162.793	800.000	-0.089	0.247
-161.779	325.224	-0.121	-0.227
-160.764	800.000	-0.064	0.230
-159.750	116.544	0.136	0.164
-158.735	-200.000	-0.017	-0.408
-157.720	-108.117	0.107	0.023
-156.706	800.000	0.116	0.322
-155.691	-200.000	0.027	0.129
-154.677	-200.000	0.006	-0.174
-153.662	-97.803	0.040	-0.010
-152.647	-37.007	-0.158	-0.084
-151.633	-101.187	0.183	-0.044
-150.618	-39.301	0.271	0.140
-149.604	-62.703	0.032	-0.013
-148.589	130.675	0.260	0.328
-147.574	54.174	-0.217	0.206
-146.560	800.000	0.034	-0.147
-145.545	362.905	0.067	-0.132
-144.531	-93.761	0.196	0.053
-143.516	-84.677	-0.046	-0.014
-142.502	20.612	-0.178	0.141
-141.487	-9.919	0.300	-0.197
-140.472	-143.941	-0.254	-0.024
-139.458	118.696	-0.085	0.103
-138.443	100.997	-0.080	0.091
-137.429	-103.515	0.036	-0.008
-136.414	-139.612	0.241	0.025
-135.399	800.000	0.106	0.361
-134.385	-74.895	-0.095	-0.033
-133.370	344.371	-0.222	-0.428
-132.356	91.526	0.146	0.162
-131.341	800.000	0.153	0.460
-130.326	-26.423	0.299	0.172
-129.312	18.897	0.293	-0.231
-128.297	128.994	0.155	0.194
-127.283	-200.000	0.009	0.070
-126.268	292.340	0.162	-0.290
-125.253	-73.771	-0.112	-0.040
-124.239	21.377	0.261	-0.209
-123.224	-97.495	-0.183	-0.047
-122.210	218.841	-0.144	0.226
-121.195	308.774	-0.031	-0.058
-120.180	-4.323	0.076	0.051
-119.166	82.868	0.087	-0.093
-118.151	4.997	-0.428	-0.310
-117.137	195.125	0.085	0.126
-116.122	45.502	0.257	-0.233
-115.107	322.999	0.135	-0.253
-114.093	118.648	0.073	0.089
-113.078	162.008	0.154	-0.212
-112.064	61.458	-0.048	0.047
-111.049	-19.173	0.089	-0.054
-110.034	659.887	0.104	0.263
-109.020	-200.000	-0.006	0.042
-108.005	800.000	0.036	0.102
-106.991	-190.012	0.212	-0.002
-105.976	800.000	0.043	-0.169
-104.962	-46.380	0.045	-0.022
-103.947	575.480	0.066	0.158
-102.932	-200.000	-0.021	0.131
-101.918	-51.826	0.592	0.271
-100.903	-24.536	0.075	-0.044
-99.889	-200.000	0.435	-0.002
-98.874	-150.052	-0.220	0.017
-97.859	-52.761	0.132	-0.060
-96.845	-78.380	-0.165	-0.056
-95.830	242.442	0.089	0.147
-94.816	-127.957	-0.187	-0.026
-93.801	112.765	0.234	-0.278
-92.786	-32.285	0.146	-0.080
-91.772	688.144	-0.082	-0.210
-90.757	-110.163	-0.120	0.025
-89.743	-38.708	0.304	-0.157
-88.728	475.123	-0.009	-0.019
-87.713	0.806	0.100	0.070
-86.699	-57.773	0.363	0.156
-85.684	41.571	0.105	-0.093
-84.670	38.512	0.171	-0.150
-83.655	404.594	0.177	-0.366
-82.640	-154.323	-0.324	0.021
-81.626	-200.000	-0.023	-0.261
-80.611	-200.000	-0.019	-0.122
-79.597	179.435	-0.140	0.202
-78.582	-200.000	0.138	-0.596
-77.567	-73.990	0.252	0.090
-76.553	47.453	0.120	0.110
-75.538	225.600	0.147	0.234
-74.524	44.349	-0.111	0.100
-73.509	173.397	0.079	0.112
-72.494	67.064	0.226	-0.226
-71.480	-200.000	-0.021	-0.347
-70.465	226.667	0.258	-0.412
-69.451	-9.073	-0.139	-0.091
-68.436	-38.017	0.201	-0.105
-67.422	-54.700	-0.321	0.143
-66.407	-54.161	0.150	0.067
-65.392	-24.135	0.249	0.146
-64.378	144.138	0.121	-0.159
-63.363	800.000	0.081	-0.282
-62.349	-156.224	0.271	-0.017
-61.334	25.004	-1.034	-0.842
-60.319	-2.566	0.683	0.469
-59.305	239.915	-0.601	-0.983
-58.290	145.175	0.692	0.909
-57.276	800.000	0.556	1.662
-56.261	-200.000	97.706	598.118
-55.246	548.682	1374.210	3230.028
-54.232	160.888	2560.640	3509.113
-53.217	105.901	2262.389	2626.467
-52.203	40.982	1889.641	1673.675
-51.188	34.884	1680.015	1442.140
-50.173	32.240	1636.138	1384.971
-49.159	49.915	1683.591	1557.564
-48.144	51.558	1699.883	1584.844
-47.130	34.517	1660.700	1422.594
-46.115	31.748	1646.207	1389.619
-45.100	31.625	1641.498	1384.681
-44.086	31.615	1638.652	1382.154
-43.071	31.550	1636.282	1379.617
-42.057	31.506	1633.951	1377.274
-41.042	31.488	1632.097	1375.523
-40.027	31.484	1630.140	1373.791
-39.013	31.519	1628.178	1372.338
-37.998	31.462	1626.687	1370.609
-36.984	31.463	1625.388	1369.472
-35.969	31.475	1623.749	1368.121
-34.954	31.582	1622.274	1367.608
-33.940	31.681	1619.934	1366.301
-32.925	31.669	1618.294	1364.778
-31.911	31.613	1616.675	1362.955
-30.896	31.651	1614.859	1361.643
-29.881	31.566	1613.557	1359.873
-28.867	31.600	1611.633	1358.448
-27.852	31.635	1610.255	1357.483
-26.838	31.688	1608.737	1356.532
-25.823	31.562	1607.424	1354.462
-24.809	31.674	1606.315	1354.284
-23.794	31.641	1604.783	1352.695
-22.779	31.688	1603.325	1351.759
-21.765	31.574	1601.832	1349.618
-20.750	31.556	1600.170	1348.035
-19.736	31.609	1598.674	1347.107
-18.721	31.661	1597.539	1346.472
-17.706	31.620	1595.841	1344.691
-16.692	31.538	1594.435	1342.863
-15.677	31.574	1593.382	1342.182
-14.663	31.708	1591.906	1341.845
-13.648	31.689	1590.042	1340.081
-12.633	31.653	1588.896	1338.812
-11.619	31.630	1587.243	1337.196
-10.604	31.754	1585.489	1336.552
-9.590	31.620	1584.480	1334.691
-8.575	31.667	1583.383	1334.048
-7.560	31.732	1581.909	1333.216
-6.546	31.626	1581.067	1331.703
-5.531	31.590	1580.303	1330.746
-4.517	31.657	1578.720	1329.840
-3.502	31.663	1577.602	1328.888
-2.487	31.675	1576.075	1327.633
-1.473	31.353	1564.923	1315.919
-0.458	29.007	1546.194	1283.777
0.556	26.765	1548.513	1257.578
1.571	24.819	1572.730	1263.410
2.586	24.525	1586.313	1272.112
3.600	21.640	1531.654	1208.299
4.615	12.072	1419.830	1058.488
5.629	3.868	1354.980	959.333
6.644	2.571	1346.800	945.458
7.659	2.463	1345.548	943.827
8.673	2.429	1344.380	942.717
9.688	2.356	1342.501	940.866
10.702	2.157	1339.368	937.368
11.717	5.581	1346.185	963.144
12.731	15.694	1364.900	1039.246
13.746	24.326	1379.765	1104.165
14.761	26.700	1382.987	1121.355
15.775	27.087	1383.288	1123.897
16.790	27.199	1382.829	1124.117
17.804	27.282	1382.020	1123.875
18.819	27.427	1381.702	1124.412
19.834	27.680	1380.619	1124.989
20.848	27.538	1380.755	1124.128
21.863	27.640	1379.671	1123.771
22.877	27.641	1378.266	1122.535
23.892	27.643	1377.678	1121.969
24.907	27.563	1377.084	1120.896
25.921	27.615	1376.465	1120.613
26.936	27.555	1374.999	1118.951
27.950	27.655	1373.595	1118.320
28.965	27.608	1372.889	1117.360
29.980	27.590	1371.246	1115.815
30.994	27.562	1370.493	1114.929
32.009	27.629	1368.937	1113.974
33.023	27.594	1368.111	1112.989
34.038	27.652	1366.546	1111.971
35.053	27.547	1366.266	1111.010
36.067	27.633	1364.786	1110.228
37.082	27.587	1363.860	1109.099
38.096	27.547	1363.604	1108.547
39.111	27.651	1362.387	1108.093
40.126	27.595	1362.079	1107.405
41.140	27.614	1361.231	1106.733
42.155	27.604	1361.031	1106.411
43.169	27.651	1360.979	1106.554
44.184	27.620	1360.726	1106.066
45.199	27.606	1360.384	1105.602
46.213	27.613	1359.464	1104.800
47.228	27.567	1358.698	1103.803
48.242	27.605	1357.807	1103.210
49.257	27.716	1355.807	1102.157
50.271	27.604	1354.426	1100.261
51.286	27.640	1353.038	1099.251
52.301	27.561	1352.061	1097.884
53.315	27.644	1351.095	1097.503
54.330	27.608	1350.629	1096.810
55.344	27.697	1349.300	1096.173
56.359	27.673	1347.898	1094.790
57.374	27.597	1347.531	1093.940
58.388	27.700	1346.560	1093.671
59.403	27.736	1346.474	1093.719
60.417	27.616	1345.588	1092.187
61.432	27.646	1345.137	1091.902
62.447	27.664	1343.877	1090.890
63.461	27.700	1342.895	1090.213
64.476	27.661	1342.208	1089.328
65.490	27.613	1341.271	1088.184
66.505	27.597	1339.742	1086.752
67.520	27.573	1338.650	1085.624
68.534	27.608	1337.338	1084.673
69.549	27.656	1336.662	1084.316
70.563	27.718	1335.579	1083.709
71.578	27.706	1334.277	1082.484
72.593	27.668	1333.640	1081.647
73.607	27.682	1333.207	1081.282
74.622	27.593	1332.607	1080.174
75.636	27.582	1332.417	1079.859
76.651	27.636	1331.346	1079.217
77.666	27.521	1330.968	1078.130
78.680	27.509	1330.772	1077.807
79.695	27.579	1329.659	1077.226
80.709	27.562	1328.969	1076.468
81.724	27.621	1328.196	1076.095
82.739	27.622	1326.843	1074.911
83.753	27.632	1326.317	1074.450
84.768	27.680	1324.870	1073.466
85.782	27.733	1323.886	1072.884
86.797	27.812	1322.310	1071.977
87.812	27.687	1321.967	1070.865
88.826	27.582	1320.916	1069.308
89.841	27.689	1319.810	1068.943
90.855	27.678	1318.694	1067.883
91.870	27.664	1317.993	1067.138
92.884	27.661	1317.314	1066.475
93.899	27.685	1316.135	1065.564
94.914	27.689	1315.389	1064.889
95.928	27.669	1314.967	1064.337
96.943	27.659	1314.611	1063.901
97.957	27.666	1313.509	1062.954
98.972	27.760	1312.280	1062.414
99.987	27.613	1311.860	1061.122
101.001	27.742	1310.537	1060.708
102.016	27.533	1309.912	1058.895
103.030	27.696	1308.939	1058.961
104.045	27.785	1307.904	1058.542
105.060	27.706	1307.106	1057.347
106.074	27.705	1306.255	1056.562
107.089	27.710	1305.245	1055.680
108.103	27.750	1304.232	1055.000
109.118	27.781	1303.023	1054.106
110.133	27.722	1302.364	1053.139
111.147	27.818	1300.789	1052.327
112.162	27.712	1299.930	1050.925
113.176	27.697	1298.946	1049.951
114.191	27.831	1297.996	1049.861
115.206	27.914	1296.909	1049.367
116.220	27.809	1295.961	1047.901
117.235	27.845	1294.847	1047.117
118.249	27.803	1294.321	1046.359
119.264	27.695	1293.452	1044.945
120.279	27.738	1292.718	1044.505
121.293	27.951	1291.762	1044.857
122.308	27.954	1290.758	1043.968
123.322	27.860	1290.085	1042.796
124.337	27.848	1289.651	1042.282
125.352	27.915	1288.100	1041.324
126.366	27.845	1287.436	1040.291
127.381	27.794	1287.245	1039.755
128.395	27.785	1286.089	1038.677
129.410	27.941	1284.699	1038.354
130.424	27.885	1284.369	1037.676
131.439	27.783	1283.759	1036.513
132.454	27.895	1283.037	1036.472
133.468	27.883	1282.110	1035.564
134.483	27.873	1281.540	1034.956
135.497	27.748	1281.308	1033.969
136.512	27.763	1279.993	1032.898
137.527	27.868	1278.671	1032.335
138.541	27.910	1277.288	1031.366
139.556	27.752	1276.740	1029.940
140.570	27.701	1275.525	1028.578
141.585	27.764	1274.425	1027.959
142.600	27.779	1273.330	1027.068
143.614	27.817	1272.694	1026.675
144.629	27.619	1271.879	1024.814
145.643	27.653	1270.850	1024.087
146.658	27.863	1269.320	1023.941
147.673	27.725	1268.570	1022.473
148.687	27.614	1267.856	1021.186
149.702	27.666	1266.568	1020.347
150.716	27.712	1265.348	1019.530
151.731	27.744	1264.585	1019.004
152.746	27.779	1263.303	1018.076
153.760	27.792	1262.372	1017.309
154.775	27.777	1261.559	1016.481
155.789	27.817	1260.959	1016.132
156.804	27.760	1260.100	1015.033
157.819	27.844	1258.715	1014.295
158.833	27.930	1258.243	1014.299
159.848	27.825	1257.574	1013.086
160.862	27.869	1256.589	1012.447
161.877	27.922	1255.956	1012.143
162.892	27.917	1255.331	1011.521
163.906	27.977	1254.391	1011.008
164.921	27.914	1253.725	1010.033
165.935	27.929	1253.013	1009.454
166.950	27.874	1252.207	1008.410
167.964	27.895	1251.867	1008.164
168.979	27.901	1251.188	1007.562
169.994	27.897	1250.718	1007.070
171.008	27.917	1250.221	1006.693
172.023	27.957	1249.374	1006.139
173.037	27.905	1248.544	1005.097
174.052	27.948	1247.469	1004.380
175.067	27.917	1246.729	1003.522
176.081	27.922	1246.038	1002.906
177.096	27.983	1245.064	1002.368
178.110	27.975	1244.620	1001.880
179.125	27.820	1243.891	1000.352
180.140	28.026	1242.383	1000.180
181.154	27.971	1240.943	998.634
182.169	27.988	1240.665	998.412
183.183	27.931	1239.413	997.008
184.198	27.971	1238.457	996.364
185.213	28.023	1237.081	995.454
186.227	28.056	1236.662	995.211
187.242	28.002	1235.712	994.064
188.256	28.008	1234.941	993.384
189.271	28.109	1233.826	992.950
190.286	27.957	1233.520	991.794
191.300	27.888	1233.104	990.996
192.315	27.930	1232.653	990.773
193.329	28.041	1231.954	990.727
194.344	28.029	1231.381	990.108
195.359	28.045	1230.762	989.609
196.373	27.937	1230.569	988.786
197.388	28.006	1229.620	988.311
198.402	27.956	1230.018	988.269
199.417	28.006	1229.551	988.076
200.432	28.082	1228.547	987.594
201.446	27.957	1228.312	986.640
202.461	27.970	1227.677	986.113
203.475	28.078	1226.585	985.735
204.490	27.905	1225.691	983.996
205.504	27.984	1224.949	983.737
206.519	28.098	1223.811	983.350
207.534	28.135	1222.659	982.536
208.548	28.082	1222.160	981.764
209.563	28.167	1221.217	981.373
210.577	28.111	1220.389	980.322
211.592	28.074	1219.773	979.543
212.607	28.167	1218.776	979.153
213.621	28.173	1217.993	978.468
214.636	28.282	1217.300	978.411
215.650	28.082	1216.568	976.666
216.665	28.170	1215.321	976.049
217.680	28.224	1214.456	975.552
218.694	28.157	1214.019	974.760
219.709	28.183	1213.294	974.233
220.723	28.155	1212.588	973.429
221.738	28.254	1211.798	973.233
222.753	28.086	1211.232	971.801
223.767	28.147	1210.593	971.529
224.782	28.308	1210.292	972.056
225.796	28.323	1209.675	971.551
226.811	28.257	1209.026	970.596
227.826	28.339	1208.177	970.261
228.840	28.168	1208.080	969.193
229.855	28.294	1207.294	969.141
230.869	28.191	1206.446	967.832
231.884	28.247	1205.678	967.427
232.899	28.291	1204.543	966.662
233.913	28.309	1204.259	966.446
234.928	28.328	1204.113	966.343
235.942	28.347	1203.108	965.550
236.957	28.338	1202.770	965.146
237.972	28.316	1201.911	964.257
238.986	28.335	1201.105	963.624
240.001	28.418	1200.811	963.738
241.015	28.348	1200.319	962.889
242.030	28.421	1199.447	962.488
243.045	28.372	1198.587	961.458
244.059	28.489	1197.792	961.348
245.074	28.357	1197.032	959.959
246.088	28.520	1196.060	959.948
247.103	28.389	1195.551	958.772
248.117	28.446	1195.006	958.546
249.132	28.576	1193.924	958.271
250.147	28.522	1193.067	957.215
251.161	28.390	1192.909	956.318
252.176	28.617	1191.580	956.349
253.190	28.467	1191.547	955.460
254.205	28.550	1190.976	955.345
255.220	28.478	1190.252	954.309
256.234	28.542	1189.498	953.950
257.249	28.517	1188.955	953.301
258.263	28.678	1188.076	953.346
259.278	28.591	1188.029	952.776
260.293	28.720	1186.946	952.489
261.307	28.545	1186.759	951.350
262.322	28.617	1186.138	951.138
263.336	28.582	1185.060	950.011
264.351	28.591	1184.609	949.612
265.366	28.496	1184.330	948.814
266.380	28.608	1183.708	948.807
267.395	28.607	1183.005	948.158
268.409	28.488	1182.779	947.276
269.424	28.578	1181.979	947.017
270.439	28.600	1181.555	946.705
271.453	28.557	1180.852	945.838
272.468	28.643	1179.892	945.430
273.482	28.646	1178.858	944.533
274.497	28.486	1178.894	943.653
275.512	28.667	1177.995	943.782
276.526	28.708	1177.274	943.330
277.541	28.724	1176.774	942.925
278.555	28.751	1175.934	942.312
279.570	28.765	1175.138	941.663
280.585	28.673	1174.766	940.807
281.599	28.790	1173.827	940.573
282.614	28.722	1173.316	939.730
283.628	28.740	1171.952	938.648
284.643	28.827	1171.274	938.466
285.657	28.750	1170.545	937.404
286.672	28.736	1169.534	936.443
287.687	28.761	1168.772	935.877
288.701	28.797	1168.134	935.465
289.716	28.748	1167.683	934.770
290.730	28.934	1166.345	934.565
291.745	28.860	1166.192	933.984
292.760	28.853	1165.731	933.496
293.774	28.909	1165.245	933.307
294.789	29.040	1164.795	933.531
295.803	28.947	1164.286	932.566
296.818	28.917	1163.526	931.724
297.833	28.964	1162.571	931.116
298.847	28.973	1162.244	930.818
299.862	28.946	1161.140	929.711
300.876	28.924	1160.425	928.946
301.891	28.914	1160.260	928.682
302.906	28.986	1159.079	928.019
303.920	29.027	1158.692	927.832
304.935	29.016	1158.229	927.327
305.949	29.069	1157.242	926.717
306.964	28.976	1157.172	926.113
307.979	29.015	1156.568	925.742
308.993	28.949	1155.822	924.735
310.008	28.974	1155.132	924.223
311.022	29.050	1154.127	923.722
312.037	29.048	1153.620	923.225
313.052	29.040	1152.685	922.353
314.066	29.060	1151.796	921.662
315.081	29.006	1151.377	920.973
316.095	29.123	1150.240	920.567
317.110	29.145	1150.006	920.408
318.125	29.204	1149.195	919.974
319.139	29.043	1148.940	918.882
320.154	29.061	1148.398	918.460
321.168	29.038	1147.714	917.712
322.183	29.160	1147.533	918.096
323.197	29.029	1146.840	916.809
324.212	29.103	1146.068	916.479
325.227	29.175	1145.320	916.156
326.241	29.177	1145.401	916.151
327.256	29.195	1143.972	915.016
328.270	29.109	1143.641	914.246
329.285	29.199	1142.663	913.827
330.300	29.103	1141.915	912.673
331.314	29.173	1140.704	911.970
332.329	29.448	1139.343	912.162
333.343	29.345	1139.160	911.426
334.358	29.210	1138.617	910.246
335.373	29.356	1138.055	910.436
336.387	29.318	1137.455	909.687
337.402	29.341	1136.674	909.096
338.416	29.352	1136.140	908.640
339.431	29.421	1135.391	908.301
340.446	29.339	1135.203	907.667
341.460	29.283	1134.600	906.828
342.475	29.346	1133.628	906.283
343.489	29.426	1132.476	905.671
344.504	29.376	1131.807	904.813
345.519	29.373	1131.260	904.281
346.533	29.441	1130.050	903.567
347.548	29.391	1129.731	902.988
348.562	29.425	1128.946	902.447
349.577	29.428	1128.760	902.229
350.592	29.395	1127.538	901.013
351.606	29.400	1126.599	900.206
352.621	29.437	1126.163	899.959
353.635	29.471	1125.772	899.735
354.650	29.494	1125.147	899.269
355.665	29.421	1124.932	898.662
356.679	29.393	1124.684	898.247
357.694	29.613	1123.257	898.096
358.708	29.417	1122.888	896.768
359.723	29.506	1121.868	896.306
360.738	29.463	1121.100	895.408
361.752	29.435	1120.863	895.004
362.767	29.588	1120.326	895.236
363.781	29.580	1119.361	894.348
364.796	29.672	1119.062	894.474
365.810	29.685	1118.525	894.030
366.825	29.615	1117.891	893.104
367.840	29.785	1117.552	893.574
368.854	29.764	1116.776	892.776
369.869	29.737	1116.391	892.260
370.883	29.706	1115.716	891.488
371.898	29.687	1114.806	890.591
372.913	29.710	1114.037	890.011
373.927	29.809	1113.274	889.797
374.942	29.791	1113.166	889.547
375.956	29.708	1112.883	888.840
376.971	29.715	1112.397	888.408
377.986	29.697	1111.606	887.611
379.000	29.755	1111.372	887.627
380.015	29.823	1110.851	887.458
381.029	29.877	1109.584	886.623
382.044	29.864	1109.093	886.091
383.059	29.847	1108.797	885.697
384.073	29.845	1108.059	885.019
385.088	29.872	1106.881	884.127
386.102	29.839	1106.229	883.370
387.117	29.958	1105.061	882.928
388.132	29.849	1104.396	881.799
389.146	29.991	1103.568	881.736
390.161	30.010	1102.645	881.012
391.175	29.944	1102.339	880.373
392.190	29.916	1102.247	880.091
393.205	29.908	1101.595	879.455
394.219	29.936	1100.662	878.763
395.234	30.000	1100.037	878.491
396.248	30.003	1099.376	877.900
397.263	30.101	1097.952	877.147
398.278	30.005	1097.892	876.568
399.292	30.068	1097.301	876.319
400.307	30.029	1096.836	875.683
401.321	30.022	1096.154	875.028
402.336	30.082	1095.296	874.551
403.350	30.087	1094.673	873.996
404.365	30.114	1094.106	873.598
405.380	30.079	1093.456	872.835
406.394	30.170	1092.078	872.086
407.409	30.317	1091.522	872.254
408.423	30.261	1091.098	871.576
409.438	30.255	1090.070	870.651
410.453	30.212	1089.484	869.901
411.467	30.272	1088.646	869.438
412.482	30.178	1088.263	868.617
413.496	30.264	1087.873	868.629
414.511	30.145	1087.326	867.561
415.526	30.094	1086.937	866.935
416.540	30.242	1086.446	867.159
417.555	30.321	1085.597	866.773
418.569	30.419	1084.961	866.645
419.584	30.366	1084.874	866.251
420.599	30.243	1084.548	865.341
421.613	105.375	1323.757	1461.154
422.628	98.063	1358.596	1461.252
