DTS Sentinel unit serial number:	SN413079Multiplexer serial number:	ORYXHardware model number:	OX4-SRSoftware version number:	ORYX F/W v4.00 Oryx Data Collector v3.7.2.0data status	okinstallation	princeton_trtdifferential loss correction	single-endedforward channel	channel 2reverse channel	N/Adate	2019/09/12time	04:21:11forward acquisition time	60.00reverse acquisition time	0.00gamma	496.2192k internal	0.2328k external	0.2328temperature offset calibration	1.0097default loss term (dB/km)	0.3790temperature slope calibration	1.0000multiplexer offset coefficient	1.0000multiplexer slope coefficient	1.0000fibre end	0.00T internal ref (°C)	31.75T ext. ref 1 (°C)	2.24T ext. ref 2 (°C)	25.33length (m)	temperature (°C)	Stokes	anti-Stokes-747.200	1.604	0.194	-0.141
-746.185	-200.000	0.001	0.270
-745.171	-57.431	-0.114	-0.050
-744.156	-90.985	-0.253	0.073
-743.142	-119.583	0.273	0.048
-742.127	-2.323	0.197	0.139
-741.112	-156.015	0.205	-0.013
-740.098	-200.000	0.027	0.165
-739.083	-200.000	-0.009	0.159
-738.069	-138.090	0.013	-0.001
-737.054	-200.000	-0.010	0.112
-736.039	-71.639	-0.375	-0.141
-735.025	35.666	0.151	0.134
-734.010	-65.140	-0.478	-0.194
-732.996	-200.000	-0.015	0.252
-731.981	0.047	0.152	0.109
-730.966	-95.314	-0.152	0.041
-729.952	800.000	-0.059	-0.219
-728.937	51.344	-0.253	-0.242
-727.923	-99.786	0.072	-0.018
-726.908	-140.523	-0.121	0.013
-725.894	-167.335	-0.298	0.012
-724.879	562.984	0.081	-0.197
-723.864	184.842	0.045	0.067
-722.850	19.103	-0.022	-0.018
-721.835	-189.074	-0.102	0.001
-720.821	-66.445	0.088	-0.035
-719.806	414.864	-0.063	0.135
-718.791	78.030	-0.247	-0.265
-717.777	-51.557	-0.326	0.153
-716.762	-200.000	-0.016	-0.173
-715.748	-153.908	0.271	0.019
-714.733	29.427	0.158	-0.136
-713.718	800.000	0.033	0.109
-712.704	312.975	-0.076	-0.143
-711.689	800.000	-0.098	-0.342
-710.675	115.202	-0.093	0.114
-709.660	98.514	-0.212	-0.246
-708.645	800.000	-0.086	-0.304
-707.631	-30.180	-0.196	0.112
-706.616	18.209	-0.315	0.253
-705.602	479.567	-0.124	0.283
-704.587	417.226	0.132	0.283
-703.572	-76.602	0.244	0.086
-702.558	73.308	-0.110	0.115
-701.543	75.691	-0.115	0.122
-700.529	-200.000	0.064	-0.343
-699.514	-17.156	0.299	-0.190
-698.499	-85.192	-0.285	0.090
-697.485	526.338	0.053	0.126
-696.470	800.000	-0.095	-0.315
-695.456	-52.489	-0.247	0.115
-694.441	29.427	0.217	0.186
-693.426	-200.000	-0.035	-0.229
-692.412	-182.024	0.156	-0.003
-691.397	620.959	0.135	-0.341
-690.383	-130.752	-0.363	-0.049
-689.368	404.457	-0.040	-0.084
-688.354	28.794	0.201	0.171
-687.339	800.000	0.081	-0.316
-686.324	-52.094	0.080	0.038
-685.310	156.358	-0.189	-0.262
-684.295	448.432	0.015	0.034
-683.281	-89.480	-0.275	-0.081
-682.266	800.000	-0.050	-0.143
-681.251	396.574	-0.201	0.422
-680.237	214.401	0.155	0.247
-679.222	43.520	0.091	0.083
-678.208	-200.000	-0.006	0.380
-677.193	800.000	-0.067	0.192
-676.178	-147.379	0.199	-0.017
-675.164	-200.000	-0.009	0.117
-674.149	308.180	0.186	-0.349
-673.135	800.000	-0.073	-0.233
-672.120	703.963	0.083	0.219
-671.105	-15.441	0.347	0.223
-670.091	-200.000	0.018	0.183
-669.076	336.100	0.105	-0.206
-668.062	-56.986	-0.293	0.130
-667.047	800.000	-0.106	0.347
-666.032	-130.164	-0.227	-0.031
-665.018	147.511	-0.074	0.101
-664.003	84.351	-0.021	-0.023
-662.989	-8.368	0.266	0.180
-661.974	-4.070	-0.152	0.106
-660.959	-99.736	0.177	-0.045
-659.945	15.962	-0.048	-0.038
-658.930	-14.269	0.157	-0.101
-657.916	-200.000	0.003	0.285
-656.901	-200.000	-0.025	-0.115
-655.886	372.028	-0.075	-0.152
-654.872	-2.149	0.180	-0.127
-653.857	-76.108	-0.271	0.096
-652.843	-200.000	0.011	-0.153
-651.828	-200.000	0.037	-0.291
-650.814	-113.348	-0.179	0.035
-649.799	-24.266	-0.228	0.137
-648.784	-82.288	0.195	0.064
-647.770	-200.000	-0.042	0.373
-646.755	243.167	0.035	0.058
-645.741	-144.909	0.196	0.018
-644.726	244.802	0.097	0.164
-643.711	14.129	0.415	0.324
-642.697	31.562	0.316	-0.273
-641.682	63.942	0.385	-0.389
-640.668	-50.370	-0.132	0.063
-639.653	-135.721	-0.231	0.027
-638.638	276.526	-0.022	0.040
-637.624	-108.146	-0.034	0.007
-636.609	-77.470	0.256	0.089
-635.595	-106.300	-0.272	-0.061
-634.580	29.692	-0.130	0.111
-633.565	5.858	-0.294	0.218
-632.551	-196.434	0.203	0.001
-631.536	200.151	0.264	0.407
-630.522	-135.582	0.110	-0.013
-629.507	299.248	0.119	-0.220
-628.492	-34.648	0.285	-0.157
-627.478	172.991	-0.090	-0.131
-626.463	96.671	-0.382	-0.439
-625.449	-117.505	-0.304	-0.055
-624.434	800.000	0.028	-0.120
-623.419	-89.552	-0.176	-0.052
-622.405	49.206	0.248	0.234
-621.390	-45.314	-0.312	0.156
-620.376	-150.833	0.165	0.013
-619.361	-100.025	-0.285	-0.071
-618.346	99.572	0.204	0.237
-617.332	800.000	-0.039	0.117
-616.317	800.000	0.094	0.336
-615.303	800.000	0.111	0.337
-614.288	65.676	0.167	0.169
-613.273	-200.000	0.000	0.005
-612.259	350.274	0.111	-0.221
-611.244	-200.000	-0.012	0.228
-610.230	82.606	0.187	-0.204
-609.215	800.000	-0.057	-0.202
-608.201	10.395	0.113	0.086
-607.186	-23.742	-0.199	-0.120
-606.171	-23.301	-0.245	-0.148
-605.157	-200.000	-0.010	0.231
-604.142	239.209	0.081	-0.136
-603.128	4.605	-0.239	0.176
-602.113	210.863	-0.053	0.084
-601.098	-146.819	-0.290	0.025
-600.084	-200.000	0.004	0.070
-599.069	-200.000	0.021	-0.222
-598.055	-85.594	0.326	-0.102
-597.040	445.080	0.112	-0.246
-596.025	310.076	-0.079	-0.148
-595.011	-200.000	0.087	0.421
-593.996	-96.470	0.291	-0.077
-592.982	-169.294	0.173	-0.006
-591.967	1.423	-0.095	-0.068
-590.952	427.720	0.098	0.212
-589.938	-104.067	-0.139	-0.032
-588.923	800.000	-0.044	-0.170
-587.909	800.000	0.039	-0.133
-586.894	232.607	0.211	0.348
-585.879	221.422	0.212	0.341
-584.865	-200.000	-0.076	-0.401
-583.850	243.876	0.085	-0.143
-582.836	-100.179	0.168	-0.042
-581.821	61.262	-0.096	0.095
-580.806	-49.380	-0.191	0.091
-579.792	125.551	-0.232	-0.293
-578.777	-136.772	-0.400	0.046
-577.763	-200.000	0.049	0.251
-576.748	-200.000	-0.032	0.166
-575.733	-3.222	-0.132	-0.092
-574.719	582.740	-0.149	-0.366
-573.704	-85.278	0.289	0.090
-572.690	-200.000	0.034	-0.207
-571.675	-100.484	-0.384	0.095
-570.661	24.750	-0.117	0.097
-569.646	425.079	0.117	-0.251
-568.631	-141.393	0.140	0.014
-567.617	800.000	-0.140	0.459
-566.602	-74.888	-0.253	0.091
-565.588	-55.975	-0.424	0.189
-564.573	96.355	-0.055	-0.063
-563.558	449.490	0.046	-0.101
-562.544	-133.375	-0.195	-0.025
-561.529	-153.715	-0.033	0.002
-560.515	-141.866	0.301	-0.030
-559.500	-88.353	-0.225	0.067
-558.485	-87.450	-0.228	-0.069
-557.471	-179.779	0.333	0.007
-556.456	-200.000	-0.021	-0.257
-555.442	-200.000	0.018	-0.132
-554.427	-200.000	-0.041	-0.231
-553.412	-63.960	-0.262	-0.107
-552.398	-21.753	0.380	0.231
-551.383	90.163	0.129	0.144
-550.369	-94.850	0.229	-0.062
-549.354	-200.000	0.006	0.099
-548.339	-200.000	0.035	0.165
-547.325	800.000	-0.027	-0.088
-546.310	-53.421	-0.057	0.026
-545.296	268.546	-0.189	-0.331
-544.281	96.017	-0.233	-0.266
-543.266	-39.137	-0.313	0.164
-542.252	-200.000	0.014	0.313
-541.237	-101.364	0.177	0.043
-540.223	569.293	0.028	0.067
-539.208	17.266	0.080	0.063
-538.193	800.000	-0.034	0.102
-537.179	348.026	-0.094	0.186
-536.164	-62.194	-0.358	0.149
-535.150	800.000	-0.034	0.108
-534.135	-200.000	0.006	0.306
-533.121	38.336	-0.106	0.094
-532.106	88.238	-0.274	0.304
-531.091	77.690	0.220	0.234
-530.077	-146.644	0.392	-0.034
-529.062	178.338	0.071	-0.104
-528.048	477.542	0.120	0.270
-527.033	144.824	0.133	-0.178
-526.018	-200.000	0.000	0.166
-525.004	800.000	0.141	0.406
-523.989	800.000	0.121	-0.431
-522.975	129.672	-0.298	-0.380
-521.960	154.457	-0.128	-0.176
-520.945	111.690	-0.229	0.276
-519.931	195.070	0.145	0.220
-518.916	84.171	0.047	0.051
-517.902	227.042	-0.061	-0.099
-516.887	-33.525	0.189	0.104
-515.872	-130.535	0.251	0.034
-514.858	-21.639	-0.253	0.154
-513.843	0.166	0.083	-0.059
-512.829	61.000	0.242	0.240
-511.814	-120.183	0.056	0.010
-510.799	332.625	-0.185	-0.356
-509.785	-18.230	-0.226	0.141
-508.770	489.067	-0.059	0.135
-507.756	-29.077	0.246	-0.141
-506.741	-141.681	-0.163	0.016
-505.726	800.000	-0.071	-0.247
-504.712	-200.000	0.017	-0.167
-503.697	226.363	-0.205	-0.331
-502.683	-84.664	-0.138	0.043
-501.668	-23.332	-0.119	-0.071
-500.653	132.246	-0.183	-0.235
-499.639	-200.000	0.014	0.276
-498.624	-40.407	-0.182	-0.094
-497.610	149.237	0.099	-0.133
-496.595	800.000	0.080	-0.235
-495.581	71.610	-0.233	0.242
-494.566	97.494	0.120	0.138
-493.551	-16.847	0.192	0.121
-492.537	82.345	-0.140	0.151
-491.522	404.787	-0.178	-0.375
-490.508	-33.667	0.151	0.083
-489.493	306.326	0.051	0.094
-488.478	-133.805	-0.188	0.023
-487.464	623.609	0.081	-0.203
-486.449	123.832	-0.191	-0.239
-485.435	554.441	0.181	-0.436
-484.420	387.007	-0.064	0.131
-483.405	-200.000	-0.018	-0.245
-482.391	39.473	-0.085	-0.076
-481.376	-200.000	0.090	0.410
-480.362	-46.335	0.108	-0.053
-479.347	-109.732	-0.067	0.014
-478.332	-103.946	-0.026	0.006
-477.318	102.884	0.065	-0.076
-476.303	-79.558	-0.457	-0.154
-475.289	94.583	-0.040	0.045
-474.274	17.968	0.038	-0.030
-473.259	4.355	-0.035	0.026
-472.245	800.000	-0.059	0.171
-471.230	-200.000	0.044	-0.203
-470.216	-200.000	0.024	0.186
-469.201	117.083	0.158	0.194
-468.186	-84.332	-0.193	-0.061
-467.172	-109.258	0.154	0.033
-466.157	-84.634	-0.066	-0.021
-465.143	-3.267	-0.139	-0.097
-464.128	31.171	-0.177	-0.152
-463.113	155.644	0.129	0.177
-462.099	-200.000	-0.039	-0.445
-461.084	-78.217	0.264	-0.090
-460.070	117.493	-0.229	-0.280
-459.055	-51.587	-0.302	-0.141
-458.040	-200.000	0.016	-0.252
-457.026	485.161	0.016	-0.036
-456.011	800.000	0.064	0.270
-454.997	-88.337	-0.271	-0.081
-453.982	9.022	0.461	0.347
-452.968	335.828	0.177	0.342
-451.953	129.228	0.187	-0.238
-450.938	387.060	-0.123	-0.253
-449.924	800.000	0.038	-0.124
-448.909	-38.154	0.235	-0.124
-447.895	138.024	-0.094	0.122
-446.880	800.000	0.082	-0.232
-445.865	279.540	-0.155	0.275
-444.851	54.100	-0.206	-0.198
-443.836	582.855	0.055	-0.135
-442.822	301.993	-0.086	-0.158
-441.807	-157.218	-0.170	0.010
-440.792	261.884	-0.046	-0.080
-439.778	-200.000	-0.025	0.221
-438.763	28.083	0.044	0.037
-437.749	-35.910	-0.081	0.043
-436.734	681.495	-0.123	0.319
-435.719	-142.635	0.067	-0.006
-434.705	260.575	0.027	0.047
-433.690	-106.462	0.298	-0.066
-432.676	115.686	0.147	-0.179
-431.661	800.000	-0.146	-0.477
-430.646	-170.074	0.315	0.011
-429.632	570.977	-0.024	-0.058
-428.617	-39.729	0.145	0.075
-427.603	-94.992	0.091	-0.025
-426.588	39.990	-0.236	0.211
-425.573	24.953	-0.131	0.108
-424.559	167.770	0.047	-0.067
-423.544	-200.000	0.040	0.221
-422.530	94.250	0.205	0.231
-421.515	114.886	0.111	-0.135
-420.500	107.107	0.090	0.106
-419.486	445.246	-0.100	-0.218
-418.471	207.854	0.061	-0.094
-417.457	-33.225	0.343	0.189
-416.442	167.071	0.095	0.134
-415.428	-42.733	-0.186	0.094
-414.413	77.053	-0.161	-0.171
-413.398	299.426	-0.158	-0.290
-412.384	106.846	0.040	0.048
-411.369	-59.130	0.367	0.157
-410.355	209.707	-0.175	0.273
-409.340	-116.339	0.275	-0.051
-408.325	800.000	-0.098	-0.301
-407.311	-200.000	0.006	0.060
-406.296	-35.579	0.181	0.098
-405.282	-29.917	-0.238	-0.135
-404.267	-200.000	0.072	0.320
-403.252	-200.000	-0.007	-0.056
-402.238	800.000	0.020	-0.073
-401.223	105.761	0.184	0.217
-400.209	800.000	-0.014	0.044
-399.194	126.626	-0.122	-0.153
-398.179	562.557	-0.045	0.109
-397.165	64.065	0.112	-0.112
-396.150	-85.242	0.063	0.020
-395.136	-70.815	-0.326	0.122
-394.121	-200.000	-0.003	0.247
-393.106	-200.000	-0.329	-0.001
-392.092	-200.000	-0.004	0.126
-391.077	800.000	-0.059	0.207
-390.063	-144.199	-0.187	0.017
-389.048	-0.334	0.069	0.049
-388.033	-105.879	-0.216	0.048
-387.019	-74.313	0.117	-0.042
-386.004	-123.276	-0.220	-0.035
-384.990	604.025	0.111	0.276
-383.975	31.292	0.150	0.128
-382.960	83.165	-0.078	0.084
-381.946	-200.000	0.030	0.392
-380.931	-200.000	-0.010	0.149
-379.917	277.913	0.128	0.227
-378.902	-200.000	-0.035	-0.202
-377.888	725.491	0.057	-0.150
-376.873	194.614	0.181	0.273
-375.858	-200.000	0.048	0.214
-374.844	-83.326	-0.294	-0.094
-373.829	173.438	-0.219	0.314
-372.815	-77.554	0.259	0.089
-371.800	800.000	-0.059	-0.209
-370.785	800.000	0.026	0.073
-369.771	-9.357	0.073	-0.049
-368.756	281.285	-0.070	-0.125
-367.742	-200.000	0.025	-0.207
-366.727	-90.444	0.139	-0.040
-365.712	-14.649	-0.049	0.031
-364.698	-135.291	-0.095	0.011
-363.683	-94.851	-0.284	0.076
-362.669	86.158	-0.166	-0.181
-361.654	-200.000	0.010	-0.152
-360.639	177.434	0.201	0.290
-359.625	743.112	0.122	0.325
-358.610	800.000	-0.080	-0.257
-357.596	42.494	-0.155	0.140
-356.581	-42.049	0.147	0.075
-355.566	11.989	-0.120	-0.091
-354.552	-72.712	0.261	0.096
-353.537	86.525	0.295	-0.323
-352.523	-114.057	-0.088	-0.017
-351.508	-40.158	0.132	0.068
-350.493	-89.807	-0.255	-0.074
-349.479	95.797	-0.200	0.226
-348.464	151.368	-0.173	0.234
-347.450	-6.261	0.337	0.229
-346.435	-173.946	0.306	0.009
-345.420	177.910	0.226	-0.327
-344.406	241.138	0.077	-0.128
-343.391	-65.541	0.190	0.076
-342.377	-200.000	-0.076	-0.341
-341.362	800.000	0.100	-0.307
-340.348	34.870	0.372	-0.323
-339.333	40.976	0.026	-0.023
-338.318	84.155	-0.205	0.222
-337.304	-107.021	0.259	0.057
-336.289	-70.458	0.340	-0.128
-335.275	569.253	0.178	0.428
-334.260	130.022	0.083	-0.105
-333.245	284.522	0.171	-0.306
-332.231	-73.999	0.280	0.101
-331.216	44.562	-0.206	-0.188
-330.202	800.000	0.106	-0.304
-329.187	-46.661	-0.294	-0.143
-328.172	-72.232	-0.067	-0.025
-327.158	-50.333	-0.090	-0.042
-326.143	-125.875	-0.216	0.032
-325.129	-121.016	-0.441	-0.073
-324.114	23.449	0.196	0.160
-323.099	-200.000	-0.059	-0.463
-322.085	-5.947	-0.048	-0.032
-321.070	-79.787	-0.256	-0.086
-320.056	513.109	-0.027	-0.062
-319.041	-200.000	0.082	-0.485
-318.026	-153.452	0.263	-0.018
-317.012	30.734	0.241	-0.205
-315.997	-89.077	0.189	-0.055
-314.983	58.704	0.151	0.147
-313.968	-114.223	0.407	0.078
-312.953	77.994	-0.141	0.149
-311.939	-200.000	-0.067	0.322
-310.924	28.708	-0.160	-0.134
-309.910	-2.589	-0.156	-0.108
-308.895	169.947	-0.091	-0.129
-307.880	800.000	-0.056	0.218
-306.866	51.976	0.276	-0.261
-305.851	-190.904	0.138	-0.001
-304.837	-30.064	-0.251	0.141
-303.822	-81.233	0.148	0.048
-302.807	101.885	-0.329	-0.380
-301.793	800.000	0.090	0.252
-300.778	24.523	-0.044	-0.036
-299.764	29.988	0.014	0.011
-298.749	-200.000	0.067	0.393
-297.735	148.666	0.165	0.221
-296.720	14.104	-0.162	0.125
-295.705	-200.000	0.000	-0.230
-294.691	-200.000	0.020	-0.100
-293.676	282.321	-0.033	0.058
-292.662	-99.548	-0.070	-0.018
-291.647	-200.000	0.031	-0.324
-290.632	-200.000	0.074	0.379
-289.618	88.040	0.058	-0.063
-288.603	-68.546	-0.346	-0.133
-287.589	-200.000	-0.112	0.492
-286.574	-36.205	0.245	-0.131
-285.559	264.429	0.040	-0.070
-284.545	425.688	-0.075	0.160
-283.530	-15.995	-0.256	0.161
-282.516	218.051	-0.073	-0.115
-281.501	-200.000	0.008	0.057
-280.486	-200.000	-0.020	-0.132
-279.472	-200.000	-0.027	0.134
-278.457	800.000	0.017	-0.072
-277.443	-102.633	0.083	-0.020
-276.428	-124.458	0.285	-0.044
-275.413	174.693	-0.211	-0.303
-274.399	11.366	-0.172	0.131
-273.384	-41.365	-0.078	0.040
-272.370	-97.712	0.209	0.053
-271.355	-26.911	-0.126	0.073
-270.340	-200.000	-0.022	0.218
-269.326	18.864	-0.045	-0.036
-268.311	63.165	0.271	-0.269
-267.297	-14.641	0.358	0.227
-266.282	-47.056	0.306	-0.148
-265.267	607.478	-0.084	-0.206
-264.253	1.987	-0.070	0.050
-263.238	41.656	0.224	-0.201
-262.224	-95.645	0.081	-0.021
-261.209	191.155	-0.222	0.330
-260.195	83.924	-0.071	0.076
-259.180	-150.564	-0.247	-0.019
-258.165	9.924	0.061	0.046
-257.151	-95.203	-0.209	0.056
-256.136	183.943	0.113	-0.165
-255.122	250.142	0.227	0.381
-254.107	-200.000	0.014	-0.190
-253.092	-46.189	-0.167	-0.081
-252.078	-155.306	0.268	-0.017
-251.063	78.596	0.298	-0.315
-250.049	-77.669	-0.331	0.113
-249.034	-136.970	0.143	-0.016
-248.019	800.000	0.041	-0.124
-247.005	124.831	-0.058	0.072
-245.990	107.146	0.119	0.140
-244.976	-82.684	0.162	0.052
-243.961	-41.499	0.097	-0.049
-242.946	-200.000	0.038	-0.241
-241.932	-92.622	-0.115	0.032
-240.917	-65.011	0.158	-0.063
-239.903	85.221	0.116	0.126
-238.888	124.698	0.128	-0.159
-237.873	210.934	-0.157	0.244
-236.859	-200.000	0.017	-0.184
-235.844	231.357	0.113	-0.183
-234.830	-200.000	-0.076	0.425
-233.815	144.020	-0.209	0.275
-232.800	112.834	-0.107	-0.128
-231.786	-18.350	0.292	0.180
-230.771	340.978	0.066	-0.127
-229.757	-200.000	-0.020	-0.137
-228.742	-164.980	-0.207	0.009
-227.727	-87.363	0.127	0.038
-226.713	473.763	-0.044	-0.099
-225.698	-53.314	-0.400	-0.181
-224.684	191.247	-0.177	-0.262
-223.669	502.118	0.088	-0.200
-222.655	583.607	-0.108	0.262
-221.640	651.519	0.026	-0.065
-220.625	-86.220	-0.151	0.046
-219.611	35.018	0.075	-0.064
-218.596	800.000	0.088	-0.262
-217.582	55.795	0.291	-0.278
-216.567	-13.313	-0.101	0.065
-215.552	616.703	0.070	-0.172
-214.538	800.000	-0.080	-0.298
-213.523	-128.094	0.341	0.048
-212.509	327.382	-0.055	0.104
-211.494	800.000	0.066	-0.216
-210.479	-83.672	-0.316	-0.099
-209.465	28.098	0.216	-0.180
-208.450	104.971	-0.070	-0.081
-207.436	72.333	-0.167	0.172
-206.421	-61.236	0.259	-0.108
-205.406	-103.544	0.205	-0.048
-204.392	-111.347	0.695	0.140
-203.377	-200.000	-0.211	0.000
-202.363	8.236	0.270	0.200
-201.348	83.923	0.158	0.170
-200.333	43.608	-0.116	0.105
-199.319	451.561	0.037	0.081
-198.304	5.603	0.142	-0.104
-197.290	28.916	-0.261	-0.218
-196.275	232.204	0.095	-0.153
-195.260	101.794	0.204	-0.235
-194.246	-200.000	-0.039	0.262
-193.231	-42.291	0.120	-0.061
-192.217	-132.182	0.050	0.006
-191.202	-103.713	-0.098	-0.023
-190.187	-114.832	0.113	-0.021
-189.173	-200.000	-0.014	-0.108
-188.158	-14.945	0.178	0.112
-187.144	-200.000	-0.021	0.258
-186.129	-5.026	0.213	0.145
-185.114	800.000	0.048	0.197
-184.100	194.499	-0.109	-0.163
-183.085	601.058	-0.059	0.144
-182.071	218.740	-0.149	-0.234
-181.056	-200.000	0.016	0.227
-180.042	-132.101	-0.101	0.013
-179.027	-200.000	-0.045	-0.357
-178.012	800.000	-0.066	0.231
-176.998	191.512	0.183	-0.272
-175.983	-170.552	-0.393	-0.013
-174.969	328.010	-0.098	0.185
-173.954	-200.000	-0.027	-0.179
-172.939	-146.267	-0.107	0.009
-171.925	34.260	0.109	-0.094
-170.910	-33.660	-0.046	-0.025
-169.896	-142.767	-0.643	-0.062
-168.881	-152.749	-0.138	0.010
-167.866	-200.000	-0.020	-0.346
-166.852	-153.317	-0.108	0.007
-165.837	755.434	0.013	0.035
-164.823	-9.526	0.179	-0.117
-163.808	-45.842	-0.220	0.107
-162.793	-200.000	-0.014	-0.126
-161.779	800.000	-0.020	0.071
-160.764	207.435	-0.066	-0.101
-159.750	121.109	-0.140	0.171
-158.735	150.531	0.172	0.231
-157.720	330.560	0.023	0.043
-156.706	44.775	0.188	0.171
-155.691	-77.352	-0.273	0.093
-154.677	264.337	-0.184	0.315
-153.662	-17.609	-0.396	-0.245
-152.647	68.086	-0.147	-0.148
-151.633	269.202	-0.106	0.184
-150.618	800.000	-0.052	-0.181
-149.604	300.361	0.032	0.058
-148.589	-200.000	0.007	-0.059
-147.574	-69.884	-0.260	-0.098
-146.560	265.040	0.230	0.394
-145.545	-76.186	0.136	-0.047
-144.531	-33.395	0.195	0.106
-143.516	-200.000	-0.033	0.374
-142.502	267.349	0.084	0.145
-141.487	4.953	0.130	0.095
-140.472	-200.000	-0.015	-0.252
-139.458	212.590	-0.271	-0.421
-138.443	75.573	-0.211	0.219
-137.429	-200.000	-0.023	-0.203
-136.414	-200.000	0.001	-0.233
-135.399	-200.000	-0.047	-0.439
-134.385	-200.000	0.030	0.209
-133.370	224.259	-0.069	0.110
-132.356	-198.818	0.410	0.002
-131.341	79.127	0.010	0.011
-130.326	-168.717	0.407	0.015
-129.312	-67.194	-0.150	0.058
-128.297	-200.000	0.028	0.123
-127.283	-200.000	0.034	0.556
-126.268	164.319	0.125	0.173
-125.253	88.422	-0.323	0.353
-124.239	421.142	0.104	0.218
-123.224	745.928	0.078	0.208
-122.210	-50.873	0.335	-0.155
-121.195	-200.000	0.005	-0.222
-120.180	175.820	0.366	0.522
-119.166	63.350	-0.175	0.173
-118.151	-72.966	-0.322	-0.116
-117.137	-62.437	-0.108	0.044
-116.122	537.085	0.074	-0.172
-115.107	170.351	-0.242	-0.341
-114.093	83.359	0.305	-0.326
-113.078	-4.214	-0.597	-0.406
-112.064	277.244	-0.051	-0.089
-111.049	-200.000	0.052	0.228
-110.034	-200.000	0.119	0.657
-109.020	-39.368	-0.113	-0.058
-108.005	-140.262	-0.157	0.016
-106.991	-33.844	0.189	0.103
-105.976	-200.000	0.010	-0.157
-104.962	750.379	0.026	0.068
-103.947	-99.700	-0.115	0.028
-102.932	-120.917	-0.246	0.041
-101.918	-200.000	0.080	-0.349
-100.903	356.599	0.227	-0.444
-99.889	59.982	0.179	0.173
-98.874	418.338	0.024	0.050
-97.859	-119.129	0.312	-0.054
-96.845	9.512	-0.399	0.297
-95.830	-141.741	0.033	-0.003
-94.816	-200.000	0.029	-0.230
-93.801	800.000	0.078	-0.240
-92.786	16.147	-0.236	-0.183
-91.772	800.000	0.044	-0.130
-90.757	338.322	0.027	0.051
-89.743	151.368	0.241	-0.323
-88.728	800.000	-0.046	0.156
-87.713	-200.000	0.030	0.145
-86.699	102.514	0.173	0.198
-85.684	800.000	-0.070	-0.232
-84.670	800.000	-0.053	-0.192
-83.655	800.000	-0.057	-0.227
-82.640	-69.747	0.372	-0.139
-81.626	800.000	-0.074	0.281
-80.611	103.567	-0.251	0.289
-79.597	-81.749	0.152	0.049
-78.582	97.348	0.297	-0.335
-77.567	68.476	0.488	0.491
-76.553	-122.093	-0.185	0.030
-75.538	-124.568	0.330	0.050
-74.524	800.000	-0.114	-0.386
-73.509	117.912	0.026	-0.032
-72.494	-28.679	-0.111	-0.062
-71.480	-200.000	-0.023	0.147
-70.465	-0.727	-0.210	0.146
-69.451	-193.314	0.294	-0.003
-68.436	-92.097	0.164	-0.045
-67.422	-66.120	-0.415	-0.162
-66.407	371.512	0.061	-0.122
-65.392	-200.000	-0.018	-0.111
-64.378	68.096	0.122	0.123
-63.363	-150.952	0.427	0.032
-62.349	800.000	-0.037	-0.129
-61.334	218.999	-0.765	-1.200
-60.319	100.819	0.601	0.686
-59.305	-200.000	-0.254	-1.212
-58.290	105.615	0.842	0.977
-57.276	800.000	0.654	1.997
-56.261	-200.000	97.049	597.711
-55.246	546.013	1373.956	3222.873
-54.232	160.860	2560.742	3508.770
-53.217	106.332	2262.261	2630.056
-52.203	41.068	1890.512	1675.064
-51.188	34.991	1680.435	1443.211
-50.173	32.350	1637.251	1386.631
-49.159	50.543	1684.734	1563.174
-48.144	52.135	1700.777	1589.885
-47.130	34.655	1660.972	1423.767
-46.115	31.908	1647.024	1391.410
-45.100	31.755	1642.054	1386.022
-44.086	31.745	1639.657	1383.867
-43.071	31.650	1637.100	1380.958
-42.057	31.667	1634.530	1378.862
-41.042	31.664	1632.858	1377.373
-40.027	31.729	1630.844	1376.096
-39.013	31.581	1629.069	1373.461
-37.998	31.567	1627.447	1371.930
-36.984	31.634	1626.504	1371.578
-35.969	31.792	1623.893	1370.478
-34.954	31.762	1622.955	1369.413
-33.940	31.704	1620.868	1367.172
-32.925	31.772	1619.257	1366.252
-31.911	31.780	1617.425	1364.709
-30.896	31.646	1616.073	1362.542
-29.881	31.640	1614.516	1361.129
-28.867	31.706	1612.620	1359.959
-27.852	31.716	1610.918	1358.540
-26.838	31.708	1609.601	1357.316
-25.823	31.791	1607.886	1356.417
-24.809	31.775	1606.975	1355.480
-23.794	31.751	1605.185	1353.747
-22.779	31.789	1603.963	1352.934
-21.765	31.649	1602.736	1350.833
-20.750	31.727	1600.832	1349.742
-19.736	31.876	1599.139	1349.327
-18.721	31.848	1597.591	1347.768
-17.706	31.844	1596.184	1346.501
-16.692	31.790	1594.920	1344.995
-15.677	31.638	1594.116	1343.173
-14.663	31.846	1592.680	1343.402
-13.648	31.874	1590.759	1341.926
-12.633	31.791	1589.737	1340.416
-11.619	31.802	1587.901	1338.894
-10.604	31.806	1586.201	1337.437
-9.590	31.847	1585.402	1337.005
-8.575	31.795	1583.655	1335.104
-7.560	31.820	1582.840	1334.544
-6.546	31.803	1581.522	1333.254
-5.531	31.889	1580.733	1333.150
-4.517	31.774	1579.340	1331.108
-3.502	31.832	1578.024	1330.354
-2.487	31.823	1576.464	1328.922
-1.473	31.558	1564.349	1316.793
-0.458	28.782	1546.132	1282.068
0.556	26.432	1547.902	1256.794
1.571	24.754	1572.824	1265.064
2.586	24.592	1586.302	1274.636
3.600	21.901	1532.701	1212.880
4.615	12.439	1422.335	1064.448
5.629	3.896	1356.699	962.273
6.644	2.367	1348.330	946.796
7.659	2.218	1346.744	944.673
8.673	2.273	1345.589	944.123
9.688	2.092	1343.655	941.565
10.702	1.984	1340.462	938.577
11.717	5.544	1347.518	965.427
12.731	15.636	1366.443	1041.743
13.746	23.945	1381.220	1104.745
14.761	26.347	1384.253	1122.006
15.775	26.836	1384.067	1124.791
16.790	26.790	1384.028	1124.369
17.804	26.859	1383.056	1123.907
18.819	27.236	1382.720	1125.872
19.834	27.203	1382.162	1125.115
20.848	27.249	1381.548	1124.799
21.863	27.376	1380.360	1124.519
22.877	27.330	1380.034	1123.866
23.892	27.221	1379.347	1122.535
24.907	27.198	1378.194	1121.360
25.921	27.285	1377.528	1121.251
26.936	27.269	1376.374	1120.117
27.950	27.315	1375.002	1119.183
28.965	27.378	1373.913	1118.586
29.980	27.257	1372.532	1116.616
30.994	27.316	1371.509	1116.046
32.009	27.200	1370.468	1114.391
33.023	27.312	1369.200	1113.950
34.038	27.342	1367.941	1113.009
35.053	27.337	1367.084	1112.180
36.067	27.316	1366.238	1111.268
37.082	27.289	1365.290	1110.231
38.096	27.272	1364.527	1109.413
39.111	27.264	1363.443	1108.382
40.126	27.296	1362.866	1108.013
41.140	27.247	1362.254	1107.117
42.155	27.235	1362.008	1106.746
43.169	27.271	1361.750	1106.658
44.184	27.171	1361.800	1105.988
45.199	27.189	1361.659	1105.890
46.213	27.306	1360.344	1105.433
47.228	27.318	1359.904	1105.052
48.242	27.292	1358.263	1103.461
49.257	27.352	1356.660	1102.424
50.271	27.240	1355.988	1101.104
51.286	27.183	1354.700	1099.613
52.301	27.281	1353.380	1099.038
53.315	27.186	1352.685	1097.805
54.330	27.271	1351.743	1097.457
55.344	27.259	1350.210	1096.043
56.359	27.328	1349.425	1095.721
57.374	27.279	1348.720	1094.756
58.388	27.190	1348.320	1093.803
59.403	27.284	1347.760	1093.815
60.417	27.207	1347.189	1092.792
61.432	27.187	1346.756	1092.222
62.447	27.307	1345.390	1091.740
63.461	27.325	1343.956	1090.589
64.476	27.193	1343.285	1089.158
65.490	27.406	1341.816	1089.142
66.505	27.303	1340.535	1087.390
67.520	27.177	1339.570	1085.757
68.534	27.322	1338.572	1085.722
69.549	27.258	1337.981	1084.766
70.563	27.389	1336.649	1084.365
71.578	27.353	1335.565	1083.180
72.593	27.327	1335.173	1082.608
73.607	27.368	1334.455	1082.172
74.622	27.396	1333.434	1081.416
75.636	27.287	1333.087	1080.392
76.651	27.287	1332.593	1079.895
77.666	27.176	1332.111	1078.754
78.680	27.378	1331.125	1079.057
79.695	27.267	1330.759	1078.005
80.709	27.278	1329.600	1077.038
81.724	27.316	1328.786	1076.508
82.739	27.299	1327.745	1075.465
83.753	27.284	1327.267	1074.896
84.768	27.307	1326.123	1074.009
85.782	27.260	1324.979	1072.710
86.797	27.326	1323.849	1072.090
87.812	27.420	1322.778	1071.684
88.826	27.335	1322.044	1070.492
89.841	27.386	1320.731	1069.634
90.855	27.463	1319.519	1069.008
91.870	27.340	1319.133	1067.881
92.884	27.364	1318.620	1067.512
93.899	27.446	1317.353	1066.873
94.914	27.380	1316.868	1065.997
95.928	27.357	1316.047	1065.105
96.943	27.348	1315.064	1064.163
97.957	27.332	1314.699	1063.679
98.972	27.469	1313.673	1063.555
99.987	27.413	1312.648	1062.305
101.001	27.416	1311.856	1061.589
102.016	27.411	1310.804	1060.613
103.030	27.337	1310.216	1059.614
104.045	27.378	1309.471	1059.157
105.060	27.284	1308.429	1057.673
106.074	27.229	1307.826	1056.770
107.089	27.352	1306.665	1056.453
108.103	27.451	1304.947	1055.546
109.118	27.430	1304.313	1054.820
110.133	27.473	1303.007	1053.919
111.147	27.516	1301.866	1053.147
112.162	27.499	1300.722	1052.031
113.176	27.387	1300.185	1050.859
114.191	27.423	1299.360	1050.307
115.206	27.433	1298.051	1049.216
116.220	27.416	1297.085	1048.244
117.235	27.348	1296.309	1047.131
118.249	27.558	1294.883	1047.093
119.264	27.501	1294.339	1046.233
120.279	27.483	1293.684	1045.506
121.293	27.448	1292.794	1044.494
122.308	27.462	1292.246	1044.040
123.322	27.414	1291.636	1043.181
124.337	27.532	1290.623	1042.946
125.352	27.479	1289.641	1041.754
126.366	27.608	1288.622	1041.577
127.381	27.516	1288.071	1040.514
128.395	27.425	1287.208	1039.207
129.410	27.574	1286.037	1039.018
130.424	27.676	1285.007	1038.674
131.439	27.582	1284.751	1037.839
132.454	27.541	1283.633	1036.616
133.468	27.517	1282.943	1035.827
134.483	27.541	1282.525	1035.532
135.497	27.513	1281.532	1034.484
136.512	27.535	1280.487	1033.674
137.527	27.451	1279.976	1032.689
138.541	27.548	1278.167	1031.692
139.556	27.470	1277.254	1030.422
140.570	27.420	1276.943	1029.795
141.585	27.479	1275.546	1028.913
142.600	27.493	1274.597	1028.133
143.614	27.524	1273.684	1027.480
144.629	27.536	1272.440	1026.457
145.643	27.434	1271.607	1025.117
146.658	27.375	1270.838	1024.073
147.673	27.431	1269.933	1023.570
148.687	27.370	1268.723	1022.164
149.702	27.436	1267.558	1021.503
150.716	27.466	1266.647	1020.848
151.731	27.451	1265.443	1019.701
152.746	27.509	1264.737	1019.369
153.760	27.506	1263.438	1018.211
154.775	27.509	1262.637	1017.497
155.789	27.475	1261.819	1016.554
156.804	27.448	1260.543	1015.286
157.819	27.491	1259.955	1014.965
158.833	27.500	1258.920	1014.091
159.848	27.571	1258.378	1013.962
160.862	27.528	1257.904	1013.246
161.877	27.515	1257.388	1012.672
162.892	27.565	1256.179	1011.887
163.906	27.529	1255.890	1011.365
164.921	27.671	1254.674	1011.078
165.935	27.628	1254.199	1010.373
166.950	27.588	1253.347	1009.375
167.964	27.636	1252.688	1009.020
168.979	27.640	1252.111	1008.488
169.994	27.577	1251.303	1007.398
171.008	27.526	1250.933	1006.729
172.023	27.651	1250.183	1006.724
173.037	27.777	1249.060	1006.429
174.052	27.611	1249.275	1005.596
175.067	27.691	1247.661	1004.649
176.081	27.802	1246.814	1004.490
177.096	27.544	1246.471	1002.703
178.110	27.615	1245.814	1002.478
179.125	27.675	1244.697	1001.823
180.140	27.746	1243.345	1001.035
181.154	27.735	1242.122	999.897
182.169	27.527	1241.231	997.954
183.183	27.676	1240.364	997.983
184.198	27.660	1239.473	997.090
185.213	27.702	1238.389	996.364
186.227	27.779	1237.712	996.151
187.242	27.777	1236.774	995.295
188.256	27.627	1235.931	993.713
189.271	27.671	1235.420	993.450
190.286	27.752	1234.413	992.993
191.300	27.690	1234.087	992.308
192.315	27.785	1233.269	992.081
193.329	27.710	1232.995	991.363
194.344	27.692	1233.241	991.374
195.359	27.706	1232.323	990.624
196.373	27.653	1231.979	989.972
197.388	27.653	1231.419	989.435
198.402	27.674	1231.135	989.234
199.417	27.678	1230.671	988.798
200.432	27.780	1229.735	988.510
201.446	27.716	1229.455	987.851
202.461	27.646	1228.640	986.730
203.475	27.705	1228.102	986.526
204.490	27.688	1226.752	985.267
205.504	27.706	1225.843	984.546
206.519	27.811	1225.058	984.394
207.534	27.777	1223.736	983.059
208.548	27.752	1222.961	982.217
209.563	27.714	1222.219	981.328
210.577	27.791	1221.274	980.898
211.592	27.865	1220.307	980.431
212.607	27.814	1220.052	979.865
213.621	27.825	1219.671	979.529
214.636	27.881	1218.192	978.555
215.650	27.833	1217.602	977.742
216.665	27.862	1216.661	977.054
217.680	27.834	1215.670	976.020
218.694	27.748	1215.044	974.975
219.709	27.865	1214.588	975.144
220.723	27.916	1213.467	974.431
221.738	27.765	1212.937	973.116
222.753	27.855	1212.155	972.879
223.767	27.965	1211.632	972.961
224.782	27.990	1211.255	972.706
225.796	27.872	1211.103	971.870
226.811	27.981	1209.970	971.451
227.826	27.885	1209.512	970.487
228.840	27.927	1208.788	970.046
229.855	27.942	1208.117	969.498
230.869	28.035	1207.295	969.246
231.884	27.853	1207.058	968.010
232.899	27.956	1205.999	967.620
233.913	28.014	1205.538	967.467
234.928	28.021	1204.962	966.959
235.942	28.009	1204.499	966.436
236.957	28.039	1203.593	965.782
237.972	27.974	1203.020	964.898
238.986	27.904	1202.660	964.154
240.001	28.051	1201.774	964.130
241.015	28.073	1201.278	963.765
242.030	28.062	1200.141	962.710
243.045	28.013	1199.757	962.056
244.059	28.216	1198.370	961.928
245.074	28.055	1197.971	960.677
246.088	28.001	1197.443	959.885
247.103	28.121	1196.300	959.513
248.117	28.169	1195.551	959.080
249.132	28.121	1195.411	958.629
250.147	28.187	1194.363	958.052
251.161	28.200	1193.206	957.107
252.176	28.209	1192.819	956.758
253.190	28.266	1191.888	956.226
254.205	28.167	1191.700	955.472
255.220	28.182	1191.174	955.041
256.234	28.228	1190.480	954.642
257.249	28.192	1189.996	953.981
258.263	28.210	1189.160	953.321
259.278	28.266	1188.838	953.269
260.293	28.210	1188.495	952.619
261.307	28.224	1187.643	951.922
262.322	28.229	1187.221	951.530
263.336	28.211	1186.486	950.759
264.351	28.250	1185.783	950.318
265.366	28.225	1185.229	949.659
266.380	28.364	1184.548	949.750
267.395	28.199	1183.743	948.165
268.409	28.200	1183.424	947.832
269.424	28.238	1182.943	947.558
270.439	28.209	1182.319	946.823
271.453	28.202	1181.954	946.411
272.468	28.192	1180.632	945.218
273.482	28.245	1180.197	945.060
274.497	28.405	1179.426	945.183
275.512	28.301	1179.164	944.353
276.526	28.325	1178.057	943.507
277.541	28.381	1177.743	943.459
278.555	28.422	1176.785	942.822
279.570	28.424	1176.184	942.267
280.585	28.454	1175.122	941.488
281.599	28.349	1174.796	940.605
282.614	28.302	1173.844	939.515
283.628	28.361	1172.970	939.036
284.643	28.435	1172.209	938.724
285.657	28.400	1171.518	937.909
286.672	28.448	1170.116	936.949
287.687	28.417	1169.722	936.391
288.701	28.493	1169.392	936.430
289.716	28.489	1168.497	935.612
290.730	28.518	1167.583	934.947
291.745	28.426	1167.414	934.258
292.760	28.490	1166.766	933.985
293.774	28.531	1166.356	933.783
294.789	28.532	1165.742	933.212
295.803	28.534	1165.234	932.731
296.818	28.524	1164.524	932.032
297.833	28.587	1163.704	931.610
298.847	28.671	1162.824	931.251
299.862	28.584	1162.408	930.397
300.876	28.480	1161.514	929.068
301.891	28.572	1161.007	929.049
302.906	28.627	1160.329	928.702
303.920	28.584	1160.111	928.227
304.935	28.670	1159.110	927.777
305.949	28.680	1158.258	927.066
306.964	28.728	1157.435	926.567
307.979	28.733	1157.324	926.419
308.993	28.776	1156.795	926.131
310.008	28.654	1156.071	924.858
311.022	28.585	1155.387	923.879
312.037	28.650	1154.355	923.301
313.052	28.695	1153.298	922.599
314.066	28.705	1152.609	922.016
315.081	28.822	1151.673	921.771
316.095	28.791	1151.399	921.315
317.110	28.714	1151.090	920.600
318.125	28.768	1149.984	919.905
319.139	28.751	1149.571	919.408
320.154	28.669	1149.378	918.766
321.168	28.674	1148.654	918.126
322.183	28.738	1148.276	918.064
323.197	28.665	1147.896	917.316
324.212	28.781	1146.782	916.922
325.227	28.800	1146.479	916.695
326.241	28.811	1146.055	916.327
327.256	28.823	1145.317	915.714
328.270	28.809	1144.788	915.143
329.285	28.785	1143.707	914.079
330.300	28.864	1142.906	913.748
331.314	28.857	1141.929	912.854
332.329	28.996	1141.004	912.724
333.343	28.940	1140.188	911.710
334.358	28.952	1139.564	911.193
335.373	28.911	1139.259	910.663
336.387	28.967	1138.191	910.007
337.402	28.962	1137.809	909.599
338.416	28.978	1137.076	909.008
339.431	29.007	1136.347	908.489
340.446	29.019	1135.856	908.073
341.460	29.032	1135.413	907.705
342.475	29.018	1134.436	906.773
343.489	28.983	1133.653	905.897
344.504	29.115	1132.560	905.592
345.519	29.098	1131.898	904.898
346.533	29.042	1131.189	903.975
347.548	29.005	1130.410	903.092
348.562	29.107	1129.755	902.989
349.577	29.106	1129.365	902.593
350.592	29.046	1128.370	901.425
351.606	28.965	1127.799	900.491
352.621	29.144	1127.193	900.804
353.635	29.142	1126.624	900.261
354.650	29.138	1125.890	899.573
355.665	29.240	1125.057	899.324
356.679	29.121	1124.586	898.289
357.694	29.193	1124.263	898.303
358.708	29.065	1123.561	897.039
359.723	29.252	1122.158	896.750
360.738	29.160	1122.167	896.233
361.752	29.273	1121.701	896.327
362.767	29.142	1121.353	895.335
363.781	29.367	1120.474	895.644
364.796	29.351	1119.870	895.005
365.810	29.293	1119.158	894.077
366.825	29.298	1118.729	893.681
367.840	29.341	1118.458	893.591
368.854	29.405	1117.629	893.162
369.869	29.351	1117.344	892.591
370.883	29.374	1116.080	891.613
371.898	29.374	1115.381	890.980
372.913	29.402	1115.270	890.944
373.927	29.393	1114.613	890.298
374.942	29.533	1113.971	890.380
375.956	29.462	1113.765	889.796
376.971	29.444	1112.883	888.927
377.986	29.411	1112.608	888.468
379.000	29.494	1111.943	888.257
380.015	29.554	1111.260	887.923
381.029	29.423	1110.650	886.728
382.044	29.403	1110.086	886.101
383.059	29.589	1109.594	886.524
384.073	29.643	1108.651	885.951
385.088	29.659	1107.540	885.063
386.102	29.584	1106.815	884.044
387.117	29.582	1106.073	883.363
388.132	29.381	1105.712	882.039
389.146	29.586	1104.661	882.097
390.161	29.727	1103.754	881.969
391.175	29.622	1103.139	880.899
392.190	29.495	1103.435	880.453
393.205	29.616	1102.250	880.003
394.219	29.690	1101.144	879.398
395.234	29.795	1100.708	879.471
396.248	29.766	1099.421	878.226
397.263	29.604	1099.104	877.126
398.278	29.740	1098.698	877.369
399.292	29.875	1097.859	877.262
400.307	29.758	1097.297	876.183
401.321	29.731	1096.728	875.521
402.336	29.815	1096.235	875.448
403.350	29.691	1095.861	874.486
404.365	29.763	1094.839	873.931
405.380	29.784	1094.197	873.443
406.394	29.736	1093.758	872.785
407.409	29.706	1092.840	871.835
408.423	29.809	1091.997	871.572
409.438	29.910	1091.240	871.369
410.453	29.920	1090.438	870.694
411.467	29.878	1090.075	870.129
412.482	29.905	1089.590	869.793
413.496	29.968	1088.778	869.364
414.511	29.822	1088.322	868.240
415.526	29.940	1087.944	868.414
416.540	29.941	1087.420	867.925
417.555	29.919	1086.901	867.327
418.569	29.861	1086.427	866.604
419.584	29.919	1085.929	866.403
420.599	29.981	1085.269	866.085
421.613	104.828	1323.789	1460.776
422.628	97.568	1358.484	1460.877
