DTS Sentinel unit serial number:	SN413079Multiplexer serial number:	ORYXHardware model number:	OX4-SRSoftware version number:	ORYX F/W v4.00 Oryx Data Collector v3.7.2.0data status	okinstallation	princeton_trtdifferential loss correction	single-endedforward channel	channel 2reverse channel	N/Adate	2019/09/15time	08:31:35forward acquisition time	60.00reverse acquisition time	0.00gamma	496.2192k internal	0.2323k external	0.2323temperature offset calibration	1.0021default loss term (dB/km)	0.3790temperature slope calibration	1.0000multiplexer offset coefficient	1.0000multiplexer slope coefficient	1.0000fibre end	0.00T internal ref (°C)	31.62T ext. ref 1 (°C)	4.97T ext. ref 2 (°C)	28.69length (m)	temperature (°C)	Stokes	anti-Stokes-747.200	212.955	-0.200	-0.318
-746.185	38.746	-0.176	0.159
-745.171	-200.000	0.014	0.175
-744.156	-93.957	-0.313	-0.087
-743.142	578.528	-0.061	-0.151
-742.127	53.822	-0.369	0.358
-741.112	76.774	0.104	-0.112
-740.098	48.618	-0.232	0.219
-739.083	-200.000	-0.001	-0.260
-738.069	-81.976	0.066	-0.022
-737.054	-200.000	0.031	-0.194
-736.039	34.646	-0.175	0.154
-735.025	-98.482	0.156	-0.040
-734.010	-13.483	0.100	-0.065
-732.996	-200.000	0.015	-0.090
-731.981	27.106	-0.026	0.022
-730.966	323.204	0.031	-0.059
-729.952	175.460	-0.108	-0.158
-728.937	-52.716	0.247	-0.115
-727.923	-124.861	0.161	-0.025
-726.908	-200.000	-0.021	-0.137
-725.894	-142.114	-0.436	0.044
-724.879	-90.069	-0.389	0.115
-723.864	800.000	0.060	0.189
-722.850	3.762	-0.174	0.128
-721.835	-200.000	-0.016	-0.391
-720.821	275.819	0.114	0.204
-719.806	800.000	-0.072	0.217
-718.791	282.241	0.145	-0.262
-717.777	-200.000	0.033	-0.234
-716.762	21.340	0.218	0.179
-715.748	61.363	-0.065	0.066
-714.733	745.878	-0.045	0.121
-713.718	-117.540	-0.097	0.018
-712.704	800.000	0.054	-0.226
-711.689	-200.000	0.021	-0.478
-710.675	-200.000	0.017	0.105
-709.660	278.943	0.097	-0.174
-708.645	-27.311	0.083	-0.049
-707.631	-200.000	0.024	0.176
-706.616	300.161	0.067	0.125
-705.602	41.157	-0.105	-0.096
-704.587	35.029	-0.157	0.139
-703.572	-46.628	-0.262	-0.129
-702.558	-125.776	-0.155	0.024
-701.543	-200.000	0.011	-0.087
-700.529	-33.439	0.303	-0.169
-699.514	-190.613	0.256	0.003
-698.499	168.855	0.114	-0.164
-697.485	-141.613	-0.203	0.021
-696.470	-200.000	-0.004	-0.135
-695.456	2.137	-0.187	-0.136
-694.441	39.585	-0.263	0.238
-693.426	800.000	0.050	-0.144
-692.412	-200.000	-0.023	0.273
-691.397	-98.017	0.051	0.013
-690.383	69.536	0.134	0.139
-689.368	-145.146	-0.233	0.021
-688.354	-200.000	-0.032	-0.499
-687.339	66.268	-0.133	-0.136
-686.324	-97.517	-0.049	0.013
-685.310	69.369	-0.229	-0.238
-684.295	3.383	0.135	-0.099
-683.281	789.512	0.136	0.375
-682.266	-200.000	0.024	-0.195
-681.251	85.722	-0.110	-0.122
-680.237	140.018	-0.088	0.116
-679.222	-43.878	-0.320	-0.162
-678.208	241.611	-0.212	-0.356
-677.193	434.280	-0.161	-0.352
-676.178	-65.055	-0.170	0.069
-675.164	143.953	0.084	-0.113
-674.149	69.536	0.112	0.116
-673.135	-200.000	-0.052	-0.450
-672.120	9.622	0.185	-0.141
-671.105	800.000	-0.121	-0.432
-670.091	-200.000	0.105	-0.476
-669.076	443.727	-0.181	0.400
-668.062	800.000	-0.081	-0.241
-667.047	382.897	0.046	0.095
-666.032	-116.920	0.399	0.073
-665.018	800.000	0.026	-0.102
-664.003	-200.000	-0.059	-0.371
-662.989	-200.000	-0.017	0.090
-661.974	66.400	-0.163	-0.167
-660.959	156.827	-0.013	-0.018
-659.945	-142.313	-0.046	0.005
-658.930	5.973	0.230	-0.171
-657.916	269.424	-0.115	0.203
-656.901	800.000	0.035	0.132
-655.886	-200.000	-0.065	-0.331
-654.872	800.000	-0.083	0.306
-653.857	254.697	-0.102	0.176
-652.843	-138.577	0.284	-0.031
-651.828	5.648	-0.130	0.096
-650.814	244.888	-0.132	0.224
-649.799	800.000	-0.090	0.298
-648.784	800.000	-0.061	0.198
-647.770	800.000	-0.061	-0.186
-646.755	-200.000	0.002	0.034
-645.741	-124.766	-0.121	-0.019
-644.726	131.046	-0.110	-0.143
-643.711	-135.420	0.110	-0.013
-642.697	-200.000	-0.006	-0.119
-641.682	-11.112	0.154	-0.102
-640.668	800.000	0.033	-0.125
-639.653	229.138	0.204	0.334
-638.638	800.000	-0.033	0.097
-637.624	25.943	-0.019	0.016
-636.609	565.833	-0.110	0.269
-635.595	-200.000	-0.018	-0.103
-634.580	-101.265	0.271	-0.067
-633.565	249.986	0.169	-0.288
-632.551	618.916	0.108	-0.272
-631.536	-200.000	0.077	0.374
-630.522	22.248	0.235	-0.193
-629.507	304.095	-0.116	-0.217
-628.492	46.922	0.261	-0.244
-627.478	-121.407	0.091	-0.015
-626.463	800.000	-0.070	-0.221
-625.449	305.522	0.097	0.181
-624.434	377.270	-0.065	-0.133
-623.419	-56.004	-0.256	-0.115
-622.405	-167.215	-0.169	-0.007
-621.390	-2.531	-0.014	0.010
-620.376	800.000	0.087	-0.330
-619.361	86.785	0.055	-0.061
-618.346	231.905	-0.200	-0.330
-617.332	757.314	-0.086	-0.234
-616.317	-200.000	0.017	0.210
-615.303	103.709	0.068	-0.080
-614.288	-94.780	0.316	0.086
-613.273	-116.062	0.192	0.036
-612.259	-110.722	-0.360	0.075
-611.244	-75.761	-0.146	0.052
-610.230	-75.438	0.036	0.013
-609.215	-14.250	0.292	-0.189
-608.201	21.306	-0.189	-0.154
-607.186	-89.032	-0.490	-0.146
-606.171	91.978	-0.327	-0.370
-605.157	-200.000	0.000	-0.366
-604.142	-51.643	0.204	0.096
-603.128	-39.273	0.111	0.059
-602.113	-46.826	-0.170	0.083
-601.098	28.674	0.240	0.204
-600.084	-164.580	-0.243	0.011
-599.069	778.930	0.063	0.174
-598.055	42.019	0.207	-0.189
-597.040	67.064	-0.225	-0.230
-596.025	-22.735	-0.061	-0.037
-595.011	302.305	0.079	-0.146
-593.996	-8.873	0.187	-0.126
-592.982	43.111	0.206	-0.189
-591.967	-149.855	0.371	0.029
-590.952	-127.882	0.194	-0.028
-589.938	-72.895	0.069	0.025
-588.923	-200.000	0.184	0.001
-587.909	-55.372	0.105	-0.047
-586.894	-85.165	-0.075	0.023
-585.879	800.000	0.040	0.157
-584.865	40.779	-0.183	-0.165
-583.850	800.000	0.094	-0.320
-582.836	721.515	-0.077	-0.205
-581.821	-78.457	0.364	-0.125
-580.806	800.000	0.056	0.168
-579.792	-112.652	-0.174	-0.035
-578.777	-200.000	0.013	0.123
-577.763	36.345	0.246	-0.217
-576.748	595.292	0.123	-0.306
-575.733	-11.454	0.066	-0.044
-574.719	-200.000	-0.056	0.394
-573.704	38.517	-0.230	0.206
-572.690	35.394	0.183	-0.161
-571.675	-3.906	0.093	-0.065
-570.661	253.641	0.072	0.124
-569.646	-88.521	-0.122	-0.036
-568.631	800.000	0.042	-0.127
-567.617	-5.952	-0.189	0.130
-566.602	30.379	-0.104	0.089
-565.588	-200.000	-0.199	-0.000
-564.573	288.646	0.209	0.380
-563.558	-200.000	-0.012	0.181
-562.544	800.000	-0.066	-0.199
-561.529	-165.235	-0.179	-0.008
-560.515	247.573	0.049	0.084
-559.500	-200.000	-0.000	0.012
-558.485	-27.649	-0.280	0.163
-557.471	-88.514	0.220	0.066
-556.456	86.655	0.174	0.192
-555.442	-23.540	0.080	-0.048
-554.427	-165.143	-0.133	0.006
-553.412	107.901	0.210	0.251
-552.398	173.628	-0.181	-0.262
-551.383	-45.998	-0.353	-0.174
-550.369	-47.860	-0.258	0.125
-549.354	-7.344	0.142	0.097
-548.339	151.625	-0.306	-0.418
-547.325	-136.062	-0.166	-0.019
-546.310	252.412	-0.041	0.070
-545.296	-131.843	0.322	0.042
-544.281	-141.505	0.321	0.032
-543.266	-107.529	-0.147	-0.032
-542.252	800.000	0.075	-0.261
-541.237	-1.225	-0.261	-0.185
-540.223	-200.000	0.006	-0.120
-539.208	-127.107	-0.323	0.047
-538.193	-200.000	-0.049	-0.217
-537.179	2.637	0.314	0.228
-536.164	206.133	0.028	-0.044
-535.150	484.550	-0.080	0.182
-534.135	552.131	-0.088	-0.211
-533.121	800.000	-0.083	0.269
-532.106	-117.479	-0.225	-0.041
-531.091	800.000	-0.054	-0.160
-530.077	9.245	-0.194	0.147
-529.062	-17.651	0.240	-0.151
-528.048	186.050	0.098	-0.146
-527.033	-82.933	0.146	0.047
-526.018	800.000	0.020	-0.083
-525.004	-57.054	0.235	0.104
-523.989	635.850	-0.158	-0.402
-522.975	-114.050	-0.179	-0.035
-521.960	800.000	-0.074	-0.223
-520.945	-46.922	-0.070	0.034
-519.931	800.000	-0.055	0.161
-518.916	197.943	0.118	-0.181
-517.902	42.123	-0.124	-0.112
-516.887	169.773	-0.066	0.095
-515.872	800.000	0.055	-0.153
-514.858	800.000	0.031	-0.095
-513.843	-21.176	0.312	0.191
-512.829	-180.878	-0.122	0.002
-511.814	530.368	-0.078	-0.184
-510.799	0.853	-0.240	0.172
-509.785	37.887	0.192	0.170
-508.770	2.080	0.072	-0.052
-507.756	36.008	-0.209	0.184
-506.741	-200.000	-0.014	0.323
-505.726	-78.309	-0.230	0.079
-504.712	175.854	0.081	0.118
-503.697	331.270	-0.135	-0.260
-502.683	141.612	-0.036	-0.047
-501.668	-200.000	-0.026	0.301
-500.653	-185.367	0.061	-0.001
-499.639	-136.663	0.230	-0.027
-498.624	182.357	-0.156	0.230
-497.610	7.455	0.186	0.139
-496.595	-101.920	0.299	0.072
-495.581	-121.933	0.138	-0.023
-494.566	-98.407	-0.115	-0.029
-493.551	-174.848	0.264	-0.007
-492.537	140.284	0.214	-0.282
-491.522	-101.506	-0.262	-0.064
-490.508	661.539	-0.097	-0.251
-489.493	-108.626	-0.247	0.053
-488.478	95.456	-0.206	-0.234
-487.464	-23.195	-0.206	-0.124
-486.449	106.673	-0.179	-0.213
-485.435	43.176	-0.344	-0.314
-484.420	-200.000	0.042	-0.241
-483.405	776.927	-0.040	0.109
-482.391	-200.000	-0.047	0.215
-481.376	-107.787	0.259	0.056
-480.362	172.376	-0.119	-0.171
-479.347	-173.713	0.209	0.006
-478.332	-200.000	0.036	-0.178
-477.318	800.000	0.069	-0.275
-476.303	-200.000	-0.001	-0.198
-475.289	-97.543	0.154	-0.040
-474.274	9.819	-0.179	-0.136
-473.259	-89.509	-0.279	-0.082
-472.245	333.686	0.142	-0.274
-471.230	-200.000	-0.020	0.248
-470.216	-69.051	0.242	0.093
-469.201	540.924	0.025	0.060
-468.186	-93.496	0.164	-0.045
-467.172	-163.119	-0.511	0.025
-466.157	55.597	0.136	0.131
-465.143	-111.049	0.356	-0.073
-464.128	-78.840	-0.373	0.127
-463.113	-5.501	-0.088	-0.060
-462.099	-89.686	-0.025	-0.007
-461.084	800.000	0.057	-0.195
-460.070	800.000	-0.012	0.038
-459.055	800.000	-0.082	0.229
-458.040	12.483	-0.229	-0.176
-457.026	41.593	-0.113	-0.102
-456.011	-32.544	-0.198	0.110
-454.997	-60.067	0.240	0.102
-453.982	-68.742	-0.250	0.097
-452.968	-108.750	0.089	0.019
-451.953	314.859	0.153	-0.288
-450.938	-200.000	-0.000	0.160
-449.924	102.211	-0.066	0.077
-448.909	315.502	0.118	-0.223
-447.895	-72.722	-0.157	0.058
-446.880	-182.224	-0.200	-0.004
-445.865	800.000	0.040	0.164
-444.851	-144.164	0.213	0.020
-443.836	-12.484	-0.299	0.195
-442.822	800.000	-0.055	0.229
-441.807	-91.132	0.173	-0.049
-440.792	63.395	-0.153	0.153
-439.778	-81.030	0.272	0.090
-438.763	173.619	0.148	0.213
-437.749	-134.180	0.454	-0.056
-436.734	-63.847	0.167	0.068
-435.719	115.779	0.094	0.114
-434.705	-149.061	-0.039	-0.003
-433.690	-156.916	-0.130	0.008
-432.676	-200.000	-0.014	0.298
-431.661	-27.687	-0.063	-0.037
-430.646	800.000	-0.005	-0.017
-429.632	65.641	0.090	0.091
-428.617	188.135	-0.287	-0.427
-427.603	442.680	0.130	-0.285
-426.588	761.356	0.072	0.194
-425.573	226.776	-0.111	-0.179
-424.559	70.407	0.122	-0.125
-423.544	76.875	-0.099	0.105
-422.530	-200.000	0.058	0.266
-421.515	255.936	-0.188	-0.321
-420.500	-38.129	0.175	-0.093
-419.486	-76.347	-0.407	0.143
-418.471	164.856	0.279	0.393
-417.457	140.757	0.058	-0.076
-416.442	208.623	-0.105	-0.163
-415.428	-200.000	0.003	-0.146
-414.413	-141.695	0.166	0.017
-413.398	115.901	-0.039	0.048
-412.384	38.272	-0.214	-0.190
-411.369	800.000	0.056	0.232
-410.355	-36.791	-0.234	0.125
-409.340	65.392	-0.056	0.057
-408.325	-110.555	-0.294	0.061
-407.311	281.923	0.091	0.163
-406.296	-200.000	0.016	0.264
-405.282	-22.738	-0.365	0.220
-404.267	-115.450	0.201	0.038
-403.252	56.167	-0.036	0.035
-402.238	549.200	0.161	-0.384
-401.223	-149.679	-0.169	-0.013
-400.209	-76.073	-0.099	-0.035
-399.194	800.000	0.017	-0.059
-398.179	479.488	0.095	0.215
-397.165	-200.000	0.009	-0.172
-396.150	-131.466	-0.218	0.029
-395.136	-171.986	0.162	-0.005
-394.121	190.489	-0.095	0.142
-393.106	800.000	0.031	0.091
-392.092	-200.000	0.040	0.243
-391.077	-200.000	0.006	-0.090
-390.063	42.383	-0.050	0.046
-389.048	-200.000	0.022	-0.162
-388.033	800.000	-0.062	-0.235
-387.019	81.275	-0.156	-0.168
-386.004	677.335	0.006	0.016
-384.990	298.779	0.085	-0.156
-383.975	-60.247	0.250	0.106
-382.960	-200.000	0.009	0.261
-381.946	-50.902	0.154	0.072
-380.931	-168.906	-0.228	-0.009
-379.917	97.679	-0.030	-0.034
-378.902	-59.312	0.330	0.141
-377.888	-200.000	-0.022	-0.140
-376.873	431.018	0.061	0.131
-375.858	-113.880	-0.120	0.023
-374.844	-66.194	0.191	-0.076
-373.829	514.366	-0.157	-0.366
-372.815	-47.002	0.059	0.029
-371.800	126.642	-0.098	0.123
-370.785	65.673	0.164	-0.165
-369.771	179.151	-0.064	0.093
-368.756	79.063	0.208	0.222
-367.742	168.317	-0.196	0.278
-366.727	68.262	0.126	0.128
-365.712	44.836	-0.251	-0.230
-364.698	203.064	0.063	-0.098
-363.683	-125.238	-0.078	0.012
-362.669	80.861	-0.175	0.188
-361.654	-99.464	-0.229	-0.057
-360.639	-22.674	-0.082	-0.049
-359.625	92.928	0.022	-0.024
-358.610	-26.483	0.111	-0.065
-357.596	-35.903	-0.349	0.188
-356.581	-200.000	-0.028	-0.141
-355.566	71.203	0.147	-0.152
-354.552	-161.948	-0.364	-0.018
-353.537	190.465	0.062	0.092
-352.523	-52.094	-0.122	-0.056
-351.508	632.595	0.094	0.237
-350.493	-200.000	0.014	0.112
-349.479	-147.705	0.171	0.014
-348.464	-200.000	-0.022	-0.112
-347.450	51.541	0.178	0.168
-346.435	31.821	-0.104	-0.089
-345.420	-110.353	-0.192	-0.040
-344.406	-200.000	-0.101	0.615
-343.391	189.415	0.029	0.043
-342.377	-12.018	-0.164	0.107
-341.362	30.952	-0.083	-0.071
-340.348	-200.000	0.031	-0.146
-339.333	-59.781	-0.372	0.158
-338.318	-74.957	-0.042	-0.015
-337.304	-8.366	0.182	-0.121
-336.289	-150.462	-0.164	-0.013
-335.275	576.022	0.116	-0.281
-334.260	-180.130	0.132	0.003
-333.245	-35.717	0.357	-0.192
-332.231	800.000	-0.043	-0.159
-331.216	-71.801	-0.247	0.092
-330.202	15.091	-0.069	-0.054
-329.187	-12.126	0.050	-0.033
-328.172	-96.592	-0.203	0.053
-327.158	-74.455	0.314	0.112
-326.143	94.962	-0.108	0.122
-325.129	-146.799	0.083	0.007
-324.114	59.413	-0.148	-0.145
-323.099	-200.000	0.014	0.075
-322.085	252.289	0.166	0.280
-321.070	-200.000	-0.044	0.302
-320.056	-106.515	-0.067	0.015
-319.041	57.038	0.042	0.041
-318.026	-146.283	0.282	0.025
-317.012	-120.775	0.095	-0.016
-315.997	800.000	0.107	0.354
-314.983	-200.000	0.059	0.389
-313.968	-200.000	0.050	0.278
-312.953	35.444	0.160	-0.139
-311.939	800.000	-0.080	-0.278
-310.924	-27.979	-0.275	-0.158
-309.910	768.470	-0.041	0.111
-308.895	157.615	0.196	-0.270
-307.880	105.869	0.172	-0.203
-306.866	161.262	0.112	-0.156
-305.851	-200.000	-0.014	-0.109
-304.837	294.734	-0.047	-0.085
-303.822	-62.367	-0.097	0.040
-302.807	-200.000	-0.023	0.360
-301.793	122.497	-0.063	0.078
-300.778	116.682	-0.214	-0.261
-299.764	49.466	0.140	-0.130
-298.749	-200.000	0.010	0.148
-297.735	35.806	0.305	0.266
-296.720	482.489	0.017	-0.038
-295.705	402.254	-0.032	-0.066
-294.691	103.228	0.042	0.049
-293.676	-50.708	-0.061	0.029
-292.662	-58.550	0.131	-0.056
-291.647	-156.447	0.160	0.010
-290.632	-86.170	-0.130	0.040
-289.618	-58.578	-0.161	0.069
-288.603	671.402	-0.079	-0.203
-287.589	-166.189	-0.122	0.005
-286.574	-103.431	0.313	0.073
-285.559	-190.297	0.377	0.004
-284.545	-161.062	-0.260	-0.014
-283.530	52.992	0.242	-0.229
-282.516	-200.000	0.012	-0.112
-281.501	-200.000	0.022	0.232
-280.486	-22.870	0.195	0.116
-279.472	-200.000	-0.023	0.364
-278.457	-120.928	0.106	-0.018
-277.443	134.407	-0.110	0.142
-276.428	-114.758	0.074	0.014
-275.413	-81.331	0.096	0.031
-274.399	3.101	-0.129	0.093
-273.384	-24.902	0.121	0.071
-272.370	-115.324	0.242	0.045
-271.355	168.868	0.095	0.135
-270.340	-106.003	-0.039	0.009
-269.326	800.000	-0.014	-0.051
-268.311	-14.435	-0.209	0.133
-267.297	800.000	-0.071	0.210
-266.282	-123.043	-0.118	-0.019
-265.267	-19.236	-0.360	0.221
-264.253	637.745	-0.060	-0.151
-263.238	107.422	-0.171	-0.201
-262.224	-200.000	-0.036	-0.228
-261.209	485.795	-0.071	0.161
-260.195	-200.000	-0.006	0.274
-259.180	-101.825	0.131	-0.031
-258.165	-50.418	0.145	0.068
-257.151	-31.995	-0.352	0.195
-256.136	199.207	0.163	0.248
-255.122	634.250	-0.060	0.150
-254.107	800.000	-0.072	-0.281
-253.092	-200.000	0.036	-0.383
-252.078	800.000	-0.092	-0.323
-251.063	-85.602	-0.433	0.133
-250.049	-200.000	0.016	-0.333
-249.034	78.434	0.043	-0.046
-248.019	92.124	0.102	-0.114
-247.005	-142.153	0.116	0.011
-245.990	47.470	0.156	0.144
-244.976	-200.000	-0.008	0.051
-243.961	45.196	0.237	0.216
-242.946	-146.205	0.122	0.011
-241.932	-170.177	0.034	0.001
-240.917	305.497	-0.105	0.194
-239.903	568.008	0.176	0.423
-238.888	15.425	-0.062	0.048
-237.873	-115.719	-0.255	-0.047
-236.859	-10.637	0.218	0.143
-235.844	-200.000	-0.030	0.161
-234.830	800.000	-0.027	0.117
-233.815	800.000	-0.031	-0.110
-232.800	-31.422	-0.089	-0.050
-231.786	377.979	0.120	-0.243
-230.771	-153.372	0.205	-0.014
-229.757	-18.362	-0.310	-0.191
-228.742	-200.000	-0.027	-0.178
-227.727	-66.286	0.237	-0.093
-226.713	-200.000	-0.042	0.233
-225.698	280.386	0.175	0.309
-224.684	-19.166	0.104	0.064
-223.669	383.734	-0.213	0.434
-222.655	39.418	-0.184	-0.163
-221.640	610.505	-0.121	-0.299
-220.625	-200.000	0.000	0.212
-219.611	211.486	-0.026	0.040
-218.596	-21.577	0.162	-0.098
-217.582	25.168	0.072	-0.059
-216.567	-97.912	0.521	-0.133
-215.552	-65.339	-0.212	0.085
-214.538	668.728	0.034	-0.088
-213.523	800.000	0.060	0.180
-212.509	154.652	-0.204	0.277
-211.494	-84.005	-0.273	-0.086
-210.479	-86.862	0.124	0.037
-209.465	-92.364	0.074	0.021
-208.450	18.583	-0.086	0.068
-207.436	800.000	-0.082	0.232
-206.421	582.105	-0.071	-0.173
-205.406	344.446	-0.064	-0.125
-204.392	341.880	0.067	0.130
-203.377	-96.330	0.431	-0.113
-202.363	-87.162	-0.229	-0.069
-201.348	299.397	0.112	0.205
-200.333	249.124	0.088	-0.147
-199.319	800.000	0.101	0.334
-198.304	-63.695	0.133	0.054
-197.290	800.000	-0.076	0.300
-196.275	183.775	0.081	-0.119
-195.260	800.000	-0.090	-0.295
-194.246	311.331	0.108	-0.201
-193.231	23.258	-0.237	-0.193
-192.217	-52.489	0.081	-0.037
-191.202	-20.861	0.155	-0.094
-190.187	-97.442	0.153	-0.039
-189.173	-200.000	-0.055	0.396
-188.158	-37.395	0.105	0.055
-187.144	117.397	0.032	0.039
-186.129	-154.810	-0.216	-0.014
-185.114	-87.139	0.197	-0.059
-184.100	18.137	-0.228	-0.179
-183.085	23.398	0.186	0.151
-182.071	297.323	-0.192	-0.349
-181.056	-75.163	-0.106	-0.037
-180.042	800.000	0.115	0.333
-179.027	-140.800	0.138	0.014
-178.012	-2.337	0.376	0.261
-176.998	-66.150	-0.102	-0.040
-175.983	239.442	-0.121	0.199
-174.969	117.171	0.206	-0.250
-173.954	-200.000	-0.038	-0.229
-172.939	-157.626	-0.483	0.028
-171.925	23.828	-0.224	0.182
-170.910	539.873	-0.116	-0.272
-169.896	800.000	0.032	0.093
-168.881	-108.179	-0.070	-0.015
-167.866	-16.507	0.170	-0.106
-166.852	800.000	-0.031	-0.089
-165.837	104.107	0.125	-0.145
-164.823	800.000	0.122	0.337
-163.808	-54.846	-0.162	0.072
-162.793	312.886	-0.046	0.086
-161.779	-13.038	0.159	0.102
-160.764	-77.526	0.375	-0.128
-159.750	-200.000	0.005	0.199
-158.735	-200.000	0.002	0.080
-157.720	167.813	0.106	0.149
-156.706	-42.483	0.145	0.073
-155.691	114.646	0.279	-0.335
-154.677	431.533	0.028	0.060
-153.662	-200.000	0.002	0.022
-152.647	-123.768	-0.236	0.037
-151.633	141.184	0.147	-0.192
-150.618	-99.482	-0.310	-0.077
-149.604	503.663	0.020	-0.045
-148.589	-200.000	-0.000	-0.019
-147.574	83.659	0.163	0.175
-146.560	633.373	0.108	0.270
-145.545	-160.667	-0.163	0.009
-144.531	-56.699	0.098	-0.043
-143.516	575.601	0.016	0.039
-142.502	-94.325	0.417	0.112
-141.487	227.649	0.130	-0.208
-140.472	23.711	-0.123	0.100
-139.458	148.006	0.074	0.099
-138.443	243.542	-0.045	0.074
-137.429	-58.049	0.030	0.013
-136.414	-80.822	-0.147	-0.048
-135.399	-200.000	-0.050	-0.000
-134.385	-115.967	-0.346	0.064
-133.370	-16.964	0.390	-0.243
-132.356	-14.314	-0.105	-0.067
-131.341	-117.418	0.147	-0.026
-130.326	-170.886	-0.277	-0.009
-129.312	-71.028	-0.169	-0.063
-128.297	-175.504	0.077	0.002
-127.283	93.444	0.144	-0.160
-126.268	201.342	-0.138	-0.210
-125.253	-200.000	-0.035	0.155
-124.239	-87.362	-0.148	0.044
-123.224	54.560	-0.337	0.320
-122.210	-2.448	-0.081	-0.056
-121.195	366.939	0.083	0.165
-120.180	576.146	-0.115	0.276
-119.166	-200.000	-0.014	0.244
-118.151	-74.885	0.173	-0.061
-117.137	-22.647	0.040	0.024
-116.122	104.592	0.150	0.174
-115.107	10.930	-0.304	0.229
-114.093	349.194	-0.100	-0.194
-113.078	444.803	0.275	0.596
-112.064	219.753	0.163	-0.257
-111.049	-200.000	0.000	0.068
-110.034	478.777	0.174	0.387
-109.020	102.591	-0.098	-0.113
-108.005	-96.448	-0.345	0.090
-106.991	5.653	-0.255	-0.186
-105.976	139.965	0.148	0.192
-104.962	69.763	0.087	-0.088
-103.947	-200.000	0.028	0.139
-102.932	-200.000	0.031	-0.286
-101.918	-88.303	0.161	0.047
-100.903	160.761	-0.158	-0.218
-99.889	-161.684	-0.242	-0.012
-98.874	247.853	0.138	-0.230
-97.859	172.915	-0.148	0.210
-96.845	78.948	-0.303	0.320
-95.830	-184.450	0.332	0.005
-94.816	-200.000	-0.022	-0.120
-93.801	-155.246	0.232	-0.015
-92.786	-200.000	-0.032	0.308
-91.772	-117.521	0.304	0.054
-90.757	330.495	0.130	-0.247
-89.743	-86.365	0.428	-0.130
-88.728	99.822	-0.048	0.055
-87.713	332.715	0.145	-0.276
-86.699	109.364	0.105	-0.123
-85.684	-200.000	0.002	0.154
-84.670	-200.000	0.001	0.123
-83.655	29.125	0.133	-0.111
-82.640	-91.223	0.114	-0.032
-81.626	320.085	-0.109	-0.203
-80.611	-36.415	0.049	0.026
-79.597	-109.303	0.137	-0.029
-78.582	-171.172	-0.213	0.007
-77.567	-110.864	0.330	0.067
-76.553	-21.017	-0.235	0.142
-75.538	41.893	-0.190	0.170
-74.524	800.000	0.036	0.145
-73.509	-111.584	-0.247	-0.049
-72.494	800.000	-0.016	-0.048
-71.480	-78.864	0.355	0.119
-70.465	99.109	0.110	0.125
-69.451	278.073	-0.026	0.045
-68.436	215.992	0.100	0.156
-67.422	105.624	0.178	0.207
-66.407	-51.884	-0.170	0.078
-65.392	342.010	0.038	0.074
-64.378	197.516	-0.134	-0.202
-63.363	394.581	-0.136	-0.279
-62.349	-102.404	-0.232	-0.055
-61.334	218.725	-0.864	-1.356
-60.319	340.221	0.441	0.846
-59.305	-200.000	-0.231	-1.136
-58.290	800.000	0.317	1.004
-57.276	163.852	0.961	1.330
-56.261	-200.000	96.313	604.339
-55.246	657.935	1388.059	3508.286
-54.232	194.373	2577.172	3839.882
-53.217	114.060	2282.641	2728.893
-52.203	41.341	1904.880	1693.197
-51.188	34.847	1693.705	1456.173
-50.173	32.238	1649.098	1398.388
-49.159	50.369	1694.878	1574.158
-48.144	51.812	1711.024	1599.953
-47.130	34.554	1672.173	1435.225
-46.115	31.760	1658.206	1402.305
-45.100	31.545	1653.086	1396.321
-44.086	31.558	1650.667	1394.316
-43.071	31.458	1648.156	1391.394
-42.057	31.563	1645.430	1389.819
-41.042	31.547	1643.881	1388.340
-40.027	31.552	1641.614	1386.406
-39.013	31.566	1639.750	1384.879
-37.998	31.450	1638.557	1382.959
-36.984	31.555	1636.522	1381.963
-35.969	31.565	1635.684	1381.275
-34.954	31.637	1633.446	1379.861
-33.940	31.540	1631.975	1377.850
-32.925	31.598	1630.118	1376.651
-31.911	31.681	1628.015	1375.430
-30.896	31.673	1626.669	1374.182
-29.881	31.622	1624.983	1372.328
-28.867	31.549	1623.320	1370.333
-27.852	31.618	1622.054	1369.717
-26.838	31.582	1620.616	1368.187
-25.823	31.692	1619.063	1367.623
-24.809	31.634	1618.020	1366.266
-23.794	31.606	1616.776	1364.955
-22.779	31.650	1614.921	1363.653
-21.765	31.607	1613.300	1361.917
-20.750	31.539	1611.892	1360.184
-19.736	31.681	1610.183	1359.716
-18.721	31.681	1608.843	1358.533
-17.706	31.617	1607.502	1356.878
-16.692	31.626	1605.549	1355.242
-15.677	31.630	1604.561	1354.382
-14.663	31.688	1603.223	1353.620
-13.648	31.728	1601.790	1352.650
-12.633	31.733	1600.122	1351.221
-11.619	31.681	1598.753	1349.633
-10.604	31.569	1597.350	1347.589
-9.590	31.713	1595.606	1347.105
-8.575	31.665	1594.491	1345.761
-7.560	31.686	1593.517	1345.039
-6.546	31.727	1592.332	1344.280
-5.531	31.713	1590.708	1342.753
-4.517	31.638	1590.036	1341.597
-3.502	31.645	1589.076	1340.782
-2.487	31.824	1586.723	1340.026
-1.473	31.622	1576.016	1329.493
-0.458	29.358	1558.374	1298.638
0.556	25.349	1559.664	1270.678
1.571	23.339	1583.902	1275.854
2.586	22.878	1596.940	1282.891
3.600	20.273	1543.170	1221.276
4.615	12.554	1434.540	1084.507
5.629	6.049	1372.376	996.277
6.644	5.075	1364.802	984.543
7.659	4.915	1363.305	982.371
8.673	4.913	1361.970	981.304
9.688	4.967	1360.027	980.160
10.702	4.774	1357.758	977.225
11.717	7.971	1363.596	1001.470
12.731	15.301	1376.738	1057.418
13.746	19.274	1382.864	1087.144
14.761	18.630	1380.725	1081.306
15.775	17.590	1377.781	1072.359
16.790	16.476	1375.329	1063.351
17.804	15.691	1372.843	1056.406
18.819	15.480	1371.313	1053.810
19.834	15.041	1370.388	1050.256
20.848	14.755	1368.708	1047.082
21.863	14.514	1367.508	1044.562
22.877	14.436	1366.161	1042.952
23.892	14.499	1365.140	1042.474
24.907	14.363	1365.114	1041.510
25.921	14.478	1363.651	1041.025
26.936	14.439	1363.119	1040.277
27.950	14.569	1361.774	1039.971
28.965	14.671	1360.513	1039.552
29.980	14.716	1359.690	1039.110
30.994	14.752	1358.301	1038.182
32.009	14.772	1357.498	1037.602
33.023	14.792	1356.086	1036.550
34.038	14.666	1355.030	1034.874
35.053	14.640	1353.687	1033.595
36.067	14.574	1352.749	1032.377
37.082	14.683	1351.482	1031.993
38.096	14.603	1350.746	1030.846
39.111	14.634	1349.471	1029.977
40.126	14.606	1348.501	1028.972
41.140	14.392	1348.177	1027.312
42.155	14.365	1347.546	1026.576
43.169	14.382	1347.243	1026.358
44.184	14.354	1347.004	1025.911
45.199	14.484	1346.571	1026.291
46.213	14.415	1345.872	1025.242
47.228	14.576	1344.871	1025.379
48.242	14.626	1344.081	1024.993
49.257	14.561	1342.372	1023.199
50.271	14.534	1340.796	1021.742
51.286	14.578	1340.022	1021.333
52.301	14.554	1338.544	1019.971
53.315	14.539	1337.323	1018.856
54.330	14.507	1335.990	1017.554
55.344	14.420	1334.969	1016.161
56.359	14.444	1334.141	1015.584
57.374	14.393	1333.218	1014.479
58.388	14.313	1332.744	1013.547
59.403	14.374	1331.669	1013.006
60.417	14.252	1331.298	1011.895
61.432	14.340	1330.315	1011.592
62.447	14.308	1329.150	1010.424
63.461	14.145	1328.363	1008.748
64.476	14.281	1326.931	1008.396
65.490	14.283	1325.855	1007.497
66.505	14.276	1324.460	1006.306
67.520	14.229	1323.204	1004.980
68.534	14.265	1322.223	1004.362
69.549	14.277	1321.028	1003.436
70.563	14.273	1320.576	1002.985
71.578	14.221	1319.148	1001.499
72.593	14.204	1317.606	1000.136
73.607	14.243	1317.385	1000.113
74.622	14.172	1316.347	998.810
75.636	14.090	1315.994	997.961
76.651	14.156	1315.038	997.542
77.666	14.150	1314.924	997.337
78.680	14.228	1314.205	997.169
79.695	14.271	1313.345	996.684
80.709	14.285	1312.541	996.068
81.724	14.392	1311.598	995.906
82.739	14.298	1311.197	994.949
83.753	14.607	1310.090	995.869
84.768	14.547	1309.425	994.917
85.782	14.671	1308.058	994.528
86.797	14.531	1307.120	992.893
87.812	14.565	1305.541	991.810
88.826	14.523	1304.535	990.705
89.841	14.616	1303.489	990.378
90.855	14.594	1302.657	989.525
91.870	14.547	1302.091	988.731
92.884	14.638	1301.187	988.497
93.899	14.667	1300.238	987.857
94.914	14.621	1299.279	986.771
95.928	14.850	1297.908	986.998
96.943	14.658	1297.274	985.294
97.957	14.732	1296.368	984.951
98.972	14.633	1295.454	983.590
99.987	14.658	1294.633	983.026
101.001	14.625	1293.535	981.912
102.016	14.607	1292.680	981.068
103.030	14.643	1291.640	980.403
104.045	14.647	1290.850	979.742
105.060	14.532	1289.630	978.055
106.074	14.365	1288.466	976.105
107.089	14.332	1286.640	974.442
108.103	14.399	1285.322	973.748
109.118	14.370	1284.169	972.621
110.133	14.420	1282.415	971.500
111.147	14.299	1281.577	970.075
112.162	14.313	1280.175	969.007
113.176	14.377	1278.941	968.361
114.191	14.444	1278.169	968.082
115.206	14.460	1276.849	967.089
116.220	14.418	1275.637	965.837
117.235	14.383	1274.732	964.866
118.249	14.298	1274.042	963.765
119.264	14.459	1271.990	963.058
120.279	14.321	1271.449	961.770
121.293	14.400	1270.286	961.261
122.308	14.335	1268.958	959.796
123.322	14.278	1268.328	958.906
124.337	14.243	1267.176	957.749
125.352	14.329	1265.760	957.084
126.366	14.242	1264.802	955.779
127.381	14.257	1263.603	954.876
128.395	14.213	1263.041	954.112
129.410	14.382	1261.877	954.115
130.424	14.312	1261.465	953.321
131.439	14.399	1260.072	952.680
132.454	14.450	1258.945	952.037
133.468	14.557	1257.949	951.809
134.483	14.537	1257.365	951.166
135.497	14.401	1256.670	949.782
136.512	14.423	1255.527	948.960
137.527	14.545	1253.819	948.279
138.541	14.452	1252.450	946.632
139.556	14.495	1251.100	945.774
140.570	14.544	1249.821	944.999
141.585	14.631	1248.573	944.466
142.600	14.596	1248.174	943.882
143.614	14.755	1247.073	943.862
144.629	14.623	1246.082	942.282
145.643	14.623	1244.698	941.154
146.658	14.752	1243.050	940.550
147.673	14.560	1242.131	938.691
148.687	14.460	1241.434	937.522
149.702	14.534	1239.442	936.348
150.716	14.478	1238.498	935.237
151.731	14.500	1237.180	934.285
152.746	14.495	1236.173	933.410
153.760	14.503	1235.370	932.769
154.775	14.544	1234.021	931.894
155.789	14.658	1232.996	931.679
156.804	14.708	1232.007	931.126
157.819	14.670	1230.842	929.953
158.833	14.764	1230.034	929.781
159.848	14.775	1229.568	929.408
160.862	14.759	1228.607	928.512
161.877	14.704	1227.409	927.218
162.892	14.661	1225.927	925.774
163.906	14.599	1225.240	924.832
164.921	14.666	1224.055	924.229
165.935	14.624	1223.375	923.399
166.950	14.684	1222.708	923.149
167.964	14.658	1221.854	922.276
168.979	14.718	1221.212	922.039
169.994	14.720	1220.379	921.341
171.008	14.704	1219.831	920.758
172.023	14.903	1218.549	920.808
173.037	14.875	1218.063	920.203
174.052	14.881	1217.379	919.636
175.067	14.730	1216.204	917.839
176.081	14.699	1215.033	916.702
177.096	14.625	1214.569	915.865
178.110	14.639	1213.299	914.906
179.125	14.755	1212.074	914.533
180.140	14.805	1210.494	913.535
181.154	14.868	1209.562	913.094
182.169	14.904	1208.252	912.223
183.183	14.966	1207.341	911.790
184.198	15.009	1206.025	910.952
185.213	14.942	1204.972	909.710
186.227	14.990	1204.064	909.205
187.242	15.070	1202.516	908.390
188.256	14.900	1202.174	907.132
189.271	14.992	1201.332	906.914
190.286	14.903	1199.929	905.291
191.300	14.785	1199.033	903.898
192.315	14.698	1198.278	902.777
193.329	14.773	1197.744	902.702
194.344	14.740	1197.655	902.374
195.359	14.866	1196.448	902.063
196.373	14.965	1196.217	902.347
197.388	15.039	1195.906	902.431
198.402	15.191	1195.310	902.718
199.417	15.190	1194.989	902.392
200.432	15.142	1194.453	901.648
201.446	15.223	1193.543	901.319
202.461	15.342	1192.377	900.995
203.475	15.227	1190.999	899.260
204.490	15.206	1189.828	898.180
205.504	15.184	1188.400	896.905
206.519	15.164	1187.325	895.908
207.534	15.113	1186.349	894.823
208.548	15.220	1185.066	894.345
209.563	15.218	1184.535	893.855
210.577	15.134	1183.778	892.757
211.592	15.213	1183.037	892.537
212.607	15.418	1181.761	892.588
213.621	15.332	1181.490	891.849
214.636	15.337	1180.318	890.913
215.650	15.305	1179.521	890.062
216.665	15.403	1178.423	889.673
217.680	15.464	1177.509	889.225
218.694	15.558	1177.108	889.346
219.709	15.461	1176.225	888.083
220.723	15.478	1175.288	887.388
221.738	15.451	1174.799	886.800
222.753	15.597	1173.722	886.678
223.767	15.668	1172.639	886.155
224.782	15.556	1172.722	885.549
225.796	15.616	1171.982	885.225
226.811	15.511	1171.254	884.048
227.826	15.560	1170.381	883.566
228.840	15.573	1169.682	883.030
229.855	15.496	1169.152	882.148
230.869	15.537	1167.950	881.378
231.884	15.527	1167.207	880.684
232.899	15.472	1166.586	879.851
233.913	15.576	1165.640	879.602
234.928	15.433	1165.064	878.343
235.942	15.486	1164.301	877.969
236.957	15.474	1163.367	877.122
237.972	15.497	1162.707	876.666
238.986	15.509	1162.123	876.213
240.001	15.422	1161.662	875.336
241.015	15.465	1160.647	874.717
242.030	15.510	1160.054	874.424
243.045	15.573	1159.505	874.262
244.059	15.590	1158.285	873.355
245.074	15.706	1157.311	873.143
246.088	15.686	1156.491	872.344
247.103	15.872	1155.615	872.569
248.117	15.855	1155.081	872.003
249.132	15.937	1154.376	871.817
250.147	15.908	1154.247	871.493
251.161	15.924	1153.222	870.724
252.176	16.025	1152.705	870.779
253.190	16.135	1151.952	870.703
254.205	16.133	1151.416	870.208
255.220	16.140	1150.520	869.492
256.234	16.149	1150.088	869.136
257.249	16.084	1149.823	868.520
258.263	16.040	1149.046	867.632
259.278	16.226	1147.910	867.650
260.293	16.210	1147.564	867.232
261.307	16.204	1147.016	866.712
262.322	16.184	1146.109	865.846
263.336	16.356	1145.404	866.118
264.351	16.334	1144.861	865.521
265.366	16.325	1144.128	864.841
266.380	16.334	1143.551	864.374
267.395	16.195	1142.621	862.887
268.409	16.250	1142.006	862.626
269.424	16.314	1141.406	862.424
270.439	16.306	1140.854	861.887
271.453	16.234	1139.824	860.667
272.468	16.211	1138.870	859.753
273.482	16.186	1138.019	858.908
274.497	16.262	1137.577	858.886
275.512	16.261	1137.380	858.654
276.526	16.201	1136.864	857.883
277.541	16.180	1135.823	856.919
278.555	16.236	1135.104	856.583
279.570	16.453	1133.908	856.704
280.585	16.543	1133.087	856.463
281.599	16.423	1132.675	855.468
282.614	16.475	1131.288	854.607
283.628	16.355	1130.353	853.223
284.643	16.397	1129.672	852.842
285.657	16.300	1128.988	851.763
286.672	16.454	1127.817	851.577
287.687	16.448	1126.765	850.680
288.701	16.511	1126.264	850.544
289.716	16.518	1125.545	849.959
290.730	16.497	1124.749	849.178
291.745	16.467	1124.157	848.507
292.760	16.571	1123.297	848.303
293.774	16.564	1122.812	847.824
294.789	16.646	1122.432	847.873
295.803	16.649	1121.796	847.333
296.818	16.544	1120.875	846.040
297.833	16.494	1120.155	845.168
298.847	16.614	1119.460	845.168
299.862	16.599	1118.375	844.204
300.876	16.580	1118.078	843.807
301.891	16.637	1117.484	843.568
302.906	16.801	1116.466	843.543
303.920	16.840	1115.654	843.051
304.935	16.926	1115.256	843.102
305.949	16.937	1114.535	842.536
306.964	16.906	1113.968	841.879
307.979	16.758	1113.508	840.722
308.993	16.865	1112.474	840.400
310.008	16.889	1111.954	840.047
311.022	16.950	1111.140	839.662
312.037	16.908	1110.294	838.742
313.052	16.918	1109.354	838.008
314.066	16.767	1108.211	836.323
315.081	16.777	1107.285	835.598
316.095	16.803	1106.532	835.087
317.110	16.789	1106.179	834.674
318.125	16.825	1105.363	834.166
319.139	16.852	1104.929	833.896
320.154	16.842	1103.694	832.841
321.168	16.794	1103.489	832.374
322.183	16.809	1102.838	831.883
323.197	16.799	1102.765	831.708
324.212	16.815	1102.100	831.209
325.227	16.874	1101.422	830.917
326.241	16.853	1100.870	830.321
327.256	16.941	1099.495	829.641
328.270	16.857	1098.663	828.530
329.285	16.881	1097.686	827.838
330.300	16.891	1096.493	826.914
331.314	16.874	1095.986	826.377
332.329	16.887	1095.124	825.716
333.343	16.904	1094.360	825.148
334.358	17.042	1092.960	824.689
335.373	17.027	1092.314	824.059
336.387	17.035	1091.993	823.779
337.402	17.184	1090.836	823.559
338.416	17.198	1090.459	823.270
339.431	17.210	1089.850	822.792
340.446	17.174	1089.115	821.994
341.460	17.276	1088.641	822.056
342.475	17.314	1087.670	821.432
343.489	17.353	1086.691	820.809
344.504	17.341	1086.092	820.226
345.519	17.359	1085.088	819.481
346.533	17.421	1084.579	819.321
347.548	17.485	1083.604	818.823
348.562	17.535	1082.577	818.213
349.577	17.342	1082.148	816.888
350.592	17.350	1081.253	816.181
351.606	17.368	1080.544	815.661
352.621	17.213	1079.708	814.216
353.635	17.333	1079.094	814.252
354.650	17.179	1078.570	813.050
355.665	17.299	1078.047	813.155
356.679	17.318	1077.112	812.469
357.694	17.281	1077.108	812.218
358.708	17.516	1076.233	812.607
359.723	17.307	1075.622	811.080
360.738	17.354	1074.797	810.607
361.752	17.395	1074.470	810.486
362.767	17.428	1074.003	810.218
363.781	17.436	1073.154	809.544
364.796	17.499	1072.934	809.607
365.810	17.554	1072.092	809.159
366.825	17.752	1071.086	809.272
367.840	17.747	1071.049	809.144
368.854	17.796	1070.105	808.595
369.869	17.854	1069.645	808.450
370.883	17.623	1069.033	806.821
371.898	17.652	1068.015	806.119
372.913	17.669	1067.592	805.810
373.927	17.726	1066.846	805.445
374.942	17.722	1066.357	804.987
375.956	17.814	1065.509	804.708
376.971	17.773	1065.081	804.119
377.986	17.804	1064.773	803.960
379.000	17.888	1064.144	803.813
380.015	17.900	1064.055	803.729
381.029	17.987	1062.838	803.148
382.044	17.936	1062.545	802.617
383.059	17.940	1061.445	801.734
384.073	18.016	1060.129	801.026
385.088	18.006	1059.861	800.704
386.102	18.135	1058.712	800.367
387.117	17.978	1057.979	799.010
388.132	17.995	1056.635	798.005
389.146	17.883	1056.105	797.007
390.161	17.903	1055.569	796.630
391.175	17.980	1054.769	796.312
392.190	17.911	1054.295	795.564
393.205	17.989	1053.628	795.354
394.219	18.163	1052.490	795.231
395.234	18.037	1051.720	793.994
396.248	17.950	1050.757	792.792
397.263	17.987	1049.717	792.110
398.278	17.943	1049.153	791.412
399.292	18.065	1047.592	790.729
400.307	17.817	1047.617	789.527
401.321	17.878	1047.080	789.337
402.336	17.866	1046.206	788.551
403.350	18.015	1045.376	788.544
404.365	18.004	1044.706	787.919
405.380	18.083	1043.906	787.610
406.394	18.089	1043.358	787.154
407.409	18.143	1042.736	786.865
408.423	18.172	1041.852	786.260
409.438	18.311	1041.356	786.457
410.453	18.389	1040.630	786.195
411.467	18.312	1039.975	785.279
412.482	18.318	1039.347	784.764
413.496	18.426	1038.511	784.557
414.511	18.416	1038.086	784.117
415.526	18.548	1037.705	784.367
416.540	18.607	1037.084	784.095
417.555	18.440	1036.890	783.115
418.569	18.511	1036.381	782.987
419.584	18.459	1036.017	782.407
420.599	18.509	1035.489	782.167
421.613	149.155	1401.964	1792.421
422.628	136.191	1455.342	1792.534
