DTS Sentinel unit serial number:	SN413079Multiplexer serial number:	ORYXHardware model number:	OX4-SRSoftware version number:	ORYX F/W v4.00 Oryx Data Collector v3.7.2.0data status	okinstallation	princeton_trtdifferential loss correction	single-endedforward channel	channel 2reverse channel	N/Adate	2019/09/14time	03:39:34forward acquisition time	60.00reverse acquisition time	0.00gamma	496.2192k internal	0.2337k external	0.2337temperature offset calibration	1.0125default loss term (dB/km)	0.3790temperature slope calibration	1.0000multiplexer offset coefficient	1.0000multiplexer slope coefficient	1.0000fibre end	0.00T internal ref (°C)	26.66T ext. ref 1 (°C)	3.29T ext. ref 2 (°C)	21.63length (m)	temperature (°C)	Stokes	anti-Stokes-747.200	-45.817	-0.217	0.107
-746.185	162.396	-0.147	-0.207
-745.171	4.797	0.059	-0.044
-744.156	800.000	-0.040	0.136
-743.142	-55.687	-0.316	0.142
-742.127	-200.000	-0.032	-0.213
-741.112	56.120	-0.158	-0.154
-740.098	-88.553	0.085	0.025
-739.083	-200.000	0.034	0.199
-738.069	-200.000	-0.043	-0.317
-737.054	-130.174	0.314	-0.043
-736.039	696.276	0.003	0.008
-735.025	-79.066	0.285	0.097
-734.010	368.480	-0.128	-0.261
-732.996	52.531	0.197	-0.189
-731.981	70.240	-0.188	-0.195
-730.966	-200.000	0.062	0.328
-729.952	-22.011	-0.028	0.017
-728.937	-137.530	-0.074	-0.008
-727.923	-26.466	-0.014	-0.008
-726.908	463.979	-0.124	-0.278
-725.894	406.236	-0.092	-0.196
-724.879	800.000	0.090	-0.302
-723.864	482.122	0.140	-0.320
-722.850	-139.322	0.094	-0.010
-721.835	-13.327	-0.084	-0.055
-720.821	-42.555	-0.088	-0.045
-719.806	-74.593	-0.247	-0.089
-718.791	-200.000	-0.006	0.141
-717.777	-200.000	0.007	-0.072
-716.762	-200.000	0.073	-0.385
-715.748	-145.945	-0.161	-0.014
-714.733	389.574	0.069	0.144
-713.718	56.593	-0.180	-0.176
-712.704	-200.000	-0.006	0.037
-711.689	249.221	0.036	0.061
-710.675	189.339	-0.098	-0.148
-709.660	10.236	0.068	-0.052
-708.645	-65.410	0.094	-0.038
-707.631	-200.000	-0.008	-0.182
-706.616	800.000	0.015	-0.046
-705.602	-128.051	-0.038	-0.005
-704.587	21.861	-0.062	-0.051
-703.572	-200.000	0.042	0.216
-702.558	-200.000	-0.026	-0.183
-701.543	800.000	-0.077	-0.293
-700.529	-73.528	0.126	0.046
-699.514	-129.131	-0.162	-0.023
-698.499	237.470	-0.180	-0.299
-697.485	-136.627	0.222	0.026
-696.470	173.892	-0.110	0.159
-695.456	-200.000	0.034	-0.173
-694.441	128.368	-0.188	0.240
-693.426	800.000	0.086	0.357
-692.412	54.985	0.062	-0.060
-691.397	-200.000	0.015	-0.187
-690.383	-162.036	0.240	0.012
-689.368	-106.436	-0.273	-0.061
-688.354	-91.339	-0.187	0.054
-687.339	-39.977	-0.137	-0.072
-686.324	125.848	-0.232	-0.293
-685.310	-34.708	-0.137	-0.075
-684.295	800.000	-0.084	0.272
-683.281	132.807	0.144	0.186
-682.266	3.213	0.153	-0.112
-681.251	35.361	0.279	-0.245
-680.237	46.230	-0.199	0.184
-679.222	79.622	0.098	-0.106
-678.208	-13.291	0.100	-0.065
-677.193	-16.316	0.202	0.129
-676.178	-145.905	0.191	-0.017
-675.164	-200.000	-0.034	-0.174
-674.149	281.134	-0.022	-0.040
-673.135	-200.000	-0.016	0.166
-672.120	188.067	0.065	-0.097
-671.105	24.667	-0.120	-0.100
-670.091	-200.000	-0.107	0.496
-669.076	-0.005	0.315	0.225
-668.062	800.000	-0.096	-0.295
-667.047	485.874	0.161	-0.367
-666.032	-200.000	-0.019	-0.271
-665.018	-200.000	0.007	-0.172
-664.003	-140.076	-0.026	0.003
-662.989	49.859	-0.104	0.098
-661.974	800.000	-0.101	-0.352
-660.959	-200.000	0.151	0.000
-659.945	433.477	0.226	0.492
-658.930	0.222	-0.151	0.108
-657.916	-92.294	-0.377	0.106
-656.901	148.935	0.080	0.108
-655.886	-67.329	-0.161	0.063
-654.872	-200.000	-0.014	-0.078
-653.857	-200.000	0.021	-0.257
-652.843	100.331	-0.235	-0.273
-651.828	-157.744	-0.240	-0.014
-650.814	-106.641	-0.179	0.040
-649.799	432.173	0.062	-0.135
-648.784	36.634	-0.032	-0.029
-647.770	-168.498	-0.150	0.006
-646.755	32.091	0.174	-0.150
-645.741	467.913	0.130	-0.291
-644.726	-200.000	-0.017	-0.192
-643.711	-104.821	-0.027	-0.006
-642.697	-2.166	-0.151	0.106
-641.682	165.457	-0.067	0.095
-640.668	800.000	0.090	-0.293
-639.653	139.227	-0.150	-0.197
-638.638	-101.650	0.090	-0.022
-637.624	48.023	-0.112	0.105
-636.609	-79.020	0.399	-0.136
-635.595	-157.534	-0.207	0.012
-634.580	68.073	-0.246	-0.252
-633.565	78.919	-0.232	0.248
-632.551	62.406	-0.135	-0.135
-631.536	86.758	-0.150	0.165
-630.522	-143.183	0.024	0.002
-629.507	65.061	-0.013	-0.014
-628.492	74.545	0.016	-0.017
-627.478	800.000	-0.035	-0.129
-626.463	-79.226	-0.127	0.043
-625.449	-81.716	-0.313	0.103
-624.434	-4.203	-0.148	-0.102
-623.419	-114.130	-0.085	-0.016
-622.405	-38.537	-0.176	0.093
-621.390	-56.114	-0.079	-0.035
-620.376	-200.000	0.022	-0.115
-619.361	316.770	-0.068	-0.128
-618.346	800.000	0.062	-0.249
-617.332	396.139	-0.062	-0.128
-616.317	-200.000	0.020	0.151
-615.303	45.366	0.125	0.115
-614.288	303.431	0.147	0.271
-613.273	57.277	0.253	0.247
-612.259	91.268	-0.206	-0.231
-611.244	-135.293	-0.158	-0.019
-610.230	314.398	-0.152	-0.287
-609.215	-117.966	0.242	-0.043
-608.201	-120.426	-0.376	-0.064
-607.186	-85.773	0.191	0.059
-606.171	205.680	-0.130	0.202
-605.157	128.719	0.227	0.289
-604.142	137.002	0.212	0.277
-603.128	80.768	-0.138	0.149
-602.113	-126.465	-0.256	-0.038
-601.098	-200.000	0.031	-0.163
-600.084	518.139	-0.090	-0.209
-599.069	725.281	-0.108	-0.286
-598.055	-13.231	0.133	-0.086
-597.040	7.210	0.112	0.084
-596.025	121.181	0.144	-0.179
-595.011	232.486	-0.083	0.137
-593.996	-79.952	0.094	-0.032
-592.982	32.046	0.160	0.138
-591.967	-122.519	0.310	-0.050
-590.952	26.961	0.167	0.140
-589.938	800.000	-0.083	-0.295
-588.923	-200.000	0.004	0.185
-587.909	-200.000	0.048	0.224
-586.894	-200.000	0.016	-0.169
-585.879	800.000	0.034	-0.114
-584.865	-61.030	-0.117	-0.049
-583.850	-32.389	0.219	-0.122
-582.836	-185.288	-0.056	0.001
-581.821	-200.000	-0.019	-0.159
-580.806	-200.000	0.067	0.296
-579.792	24.665	0.190	-0.157
-578.777	-13.929	-0.299	0.193
-577.763	-86.349	0.262	-0.080
-576.748	95.941	0.252	0.288
-575.733	189.944	0.131	-0.196
-574.719	338.131	-0.056	-0.109
-573.704	413.679	0.157	0.332
-572.690	-184.442	-0.153	0.002
-571.675	14.437	0.284	-0.221
-570.661	-27.703	0.249	-0.144
-569.646	80.179	-0.262	-0.281
-568.631	-53.657	0.131	-0.059
-567.617	800.000	0.085	-0.339
-566.602	324.519	-0.108	-0.205
-565.588	-28.864	-0.161	0.092
-564.573	-141.366	-0.125	-0.013
-563.558	27.665	0.197	0.165
-562.544	175.908	-0.063	0.091
-561.529	84.891	-0.094	0.102
-560.515	-200.000	-0.032	-0.205
-559.500	662.309	-0.105	-0.270
-558.485	-48.989	0.102	-0.049
-557.471	-200.000	0.034	-0.192
-556.456	-23.968	0.100	0.060
-555.442	566.195	-0.128	-0.308
-554.427	-159.564	0.167	-0.009
-553.412	-75.353	-0.172	0.061
-552.398	-200.000	0.038	0.253
-551.383	-200.000	0.022	0.281
-550.369	-200.000	-0.057	0.292
-549.354	456.644	-0.163	0.360
-548.339	-65.816	0.055	0.022
-547.325	-164.524	0.100	0.005
-546.310	9.520	-0.099	-0.075
-545.296	800.000	-0.108	-0.384
-544.281	800.000	0.030	-0.126
-543.266	205.624	-0.095	0.147
-542.252	-200.000	-0.009	0.113
-541.237	-121.451	-0.388	0.064
-540.223	158.231	0.001	-0.001
-539.208	-13.462	-0.072	-0.047
-538.193	2.757	0.247	0.179
-537.179	-200.000	-0.001	0.184
-536.164	-95.798	-0.297	-0.079
-535.150	-200.000	0.051	0.271
-534.135	77.849	0.176	-0.186
-533.121	-96.184	0.245	-0.065
-532.106	-133.656	0.233	0.029
-531.091	800.000	-0.014	-0.045
-530.077	343.328	0.032	0.062
-529.062	-200.000	-0.018	-0.190
-528.048	-200.000	0.010	0.302
-527.033	-200.000	-0.061	0.390
-526.018	168.968	0.192	0.272
-525.004	-200.000	0.011	-0.087
-523.989	-200.000	-0.014	-0.213
-522.975	-142.750	-0.102	0.010
-521.960	124.461	-0.115	-0.144
-520.945	-71.753	-0.252	0.093
-519.931	135.530	0.031	-0.040
-518.916	190.237	0.077	0.115
-517.902	-64.888	-0.029	-0.012
-516.887	-144.645	0.358	-0.033
-515.872	-130.691	-0.073	0.010
-514.858	338.382	-0.039	0.076
-513.843	-10.937	0.127	-0.083
-512.829	-15.232	-0.283	0.180
-511.814	800.000	0.034	-0.136
-510.799	277.186	-0.154	0.272
-509.785	-36.878	-0.099	-0.053
-508.770	-30.236	-0.071	0.040
-507.756	-97.999	-0.234	-0.060
-506.741	-200.000	0.063	0.280
-505.726	-134.969	-0.438	-0.053
-504.712	-200.000	-0.087	0.388
-503.697	-200.000	0.023	0.240
-502.683	-66.406	0.122	0.048
-501.668	800.000	-0.044	-0.122
-500.653	192.074	0.207	0.311
-499.639	-109.109	0.287	0.061
-498.624	-21.918	0.129	0.078
-497.610	126.068	0.107	-0.135
-496.595	117.285	0.061	-0.075
-495.581	-168.716	0.243	0.009
-494.566	63.242	0.191	0.190
-493.551	-134.848	-0.142	-0.017
-492.537	77.230	0.200	-0.211
-491.522	-47.934	-0.019	-0.009
-490.508	-200.000	-0.070	-0.429
-489.493	11.907	-0.032	0.025
-488.478	-121.573	0.139	-0.023
-487.464	148.887	0.185	0.248
-486.449	-173.318	-0.277	-0.008
-485.435	17.853	0.214	-0.169
-484.420	-200.000	0.012	0.206
-483.405	800.000	-0.039	-0.124
-482.391	-128.471	0.333	-0.047
-481.376	-200.000	-0.013	-0.261
-480.362	800.000	-0.078	-0.241
-479.347	340.174	-0.088	-0.171
-478.332	-100.073	-0.154	-0.038
-477.318	-39.826	-0.502	-0.261
-476.303	-52.125	-0.233	-0.107
-475.289	-74.130	0.297	0.107
-474.274	222.815	-0.096	-0.154
-473.259	-43.785	-0.346	0.173
-472.245	699.233	-0.065	0.169
-471.230	116.963	0.258	0.314
-470.216	238.844	-0.038	-0.063
-469.201	77.478	0.341	0.360
-468.186	232.824	0.112	-0.182
-467.172	163.847	-0.066	0.093
-466.157	-88.203	-0.077	-0.023
-465.143	-111.887	0.073	-0.015
-464.128	-200.000	0.044	-0.403
-463.113	800.000	-0.043	0.146
-462.099	203.950	0.128	0.197
-461.084	-44.383	-0.050	-0.025
-460.070	79.441	-0.031	0.033
-459.055	105.024	-0.117	-0.137
-458.040	75.083	-0.232	0.243
-457.026	-74.195	-0.293	-0.105
-456.011	710.134	0.067	-0.175
-454.997	235.854	-0.041	0.067
-453.982	-80.168	0.082	0.027
-452.968	-106.312	-0.335	0.074
-451.953	132.330	-0.101	-0.129
-450.938	-99.567	0.356	-0.089
-449.924	155.667	-0.038	0.052
-448.909	333.666	-0.120	0.230
-447.895	107.730	0.174	0.206
-446.880	800.000	0.094	0.354
-445.865	238.169	0.135	0.222
-444.851	15.063	0.245	-0.190
-443.836	-34.662	-0.284	-0.154
-442.822	-200.000	-0.187	0.001
-441.807	-63.517	-0.356	0.145
-440.792	521.777	-0.158	-0.368
-439.778	26.333	-0.190	-0.157
-438.763	229.301	0.148	-0.240
-437.749	800.000	0.055	-0.171
-436.734	800.000	-0.154	-0.493
-435.719	221.523	-0.115	0.183
-434.705	9.726	-0.073	0.055
-433.690	155.894	-0.189	0.258
-432.676	-41.881	0.244	-0.124
-431.661	-29.223	-0.027	0.015
-430.646	149.356	0.067	0.090
-429.632	701.381	-0.029	0.076
-428.617	-110.081	-0.134	0.028
-427.603	-173.305	0.238	0.007
-426.588	-79.524	0.173	0.058
-425.573	800.000	0.044	-0.193
-424.559	376.395	-0.057	0.115
-423.544	-200.000	0.012	-0.214
-422.530	276.483	0.146	0.258
-421.515	-110.817	-0.317	0.065
-420.500	188.939	0.073	-0.109
-419.486	53.616	0.108	-0.103
-418.471	800.000	-0.117	0.398
-417.457	-89.323	-0.011	-0.003
-416.442	58.045	-0.201	0.195
-415.428	-200.000	-0.001	-0.205
-414.413	458.019	-0.062	-0.136
-413.398	0.363	0.219	0.155
-412.384	660.934	-0.071	-0.182
-411.369	-6.288	0.161	0.109
-410.355	-19.131	0.110	-0.068
-409.340	-77.623	-0.052	0.018
-408.325	-124.739	0.261	0.040
-407.311	177.403	-0.328	0.474
-406.296	179.904	-0.073	-0.107
-405.282	-200.000	0.011	-0.264
-404.267	-108.837	0.114	-0.024
-403.252	-51.243	-0.023	0.011
-402.238	-200.000	-0.057	-0.259
-401.223	-63.650	-0.282	0.115
-400.209	-48.986	0.235	-0.112
-399.194	-45.874	0.054	0.026
-398.179	-30.150	0.183	-0.103
-397.165	-103.350	0.115	0.027
-396.150	-180.645	-0.320	0.006
-395.136	800.000	0.169	0.470
-394.121	219.605	-0.048	0.075
-393.106	56.970	-0.186	-0.179
-392.092	-200.000	0.054	0.386
-391.077	-200.000	0.001	0.128
-390.063	38.371	-0.105	0.093
-389.048	-200.000	-0.007	0.236
-388.033	-200.000	0.064	0.282
-387.019	-90.823	0.295	0.084
-386.004	22.804	-0.097	0.079
-384.990	-179.923	0.235	0.005
-383.975	-89.313	-0.161	-0.047
-382.960	-200.000	0.013	-0.179
-381.946	11.737	-0.116	0.089
-380.931	189.484	0.104	0.155
-379.917	-98.818	-0.288	0.073
-378.902	23.745	0.106	0.087
-377.888	-118.970	0.290	-0.050
-376.873	-108.923	0.330	0.070
-375.858	-27.137	-0.197	0.114
-374.844	28.969	0.239	0.201
-373.829	61.531	0.170	0.167
-372.815	800.000	-0.028	0.092
-371.800	800.000	-0.036	0.120
-370.785	274.807	-0.004	0.007
-369.771	-80.877	0.204	-0.067
-368.756	-129.233	-0.230	0.032
-367.742	409.803	0.102	0.215
-366.727	-200.000	-0.021	0.408
-365.712	154.488	-0.159	-0.216
-364.698	-138.456	-0.581	-0.063
-363.683	233.649	-0.244	0.397
-362.669	-28.487	0.326	-0.186
-361.654	-71.237	0.317	0.118
-360.639	406.254	-0.077	-0.160
-359.625	800.000	0.113	-0.445
-358.610	-200.000	0.016	-0.158
-357.596	800.000	0.056	-0.231
-356.581	133.948	-0.246	-0.316
-355.566	181.384	-0.140	0.204
-354.552	-91.075	0.458	0.130
-353.537	800.000	0.075	-0.226
-352.523	-48.204	0.114	0.054
-351.508	-81.808	0.357	-0.116
-350.493	-95.611	-0.145	0.038
-349.479	35.765	0.198	0.172
-348.464	800.000	-0.068	-0.189
-347.450	295.077	0.200	0.361
-346.435	-5.893	-0.112	0.076
-345.420	-16.614	-0.293	-0.183
-344.406	82.039	0.093	-0.100
-343.391	-47.468	-0.057	-0.027
-342.377	207.900	0.121	-0.187
-341.362	800.000	0.098	0.278
-340.348	-195.510	0.173	0.001
-339.333	106.106	0.109	-0.127
-338.318	64.496	-0.204	0.203
-337.304	-200.000	0.064	0.291
-336.289	-22.444	-0.045	-0.027
-335.275	158.367	0.169	0.232
-334.260	800.000	-0.069	0.270
-333.245	557.828	0.143	-0.342
-332.231	134.282	0.007	-0.009
-331.216	11.156	-0.170	0.128
-330.202	-68.525	0.089	-0.034
-329.187	126.944	0.211	0.264
-328.172	64.441	-0.176	0.176
-327.158	48.963	-0.277	0.257
-326.143	-145.338	0.302	-0.027
-325.129	-71.223	-0.401	-0.149
-324.114	75.590	-0.177	0.185
-323.099	-63.165	-0.358	-0.146
-322.085	-70.400	0.199	0.075
-321.070	-80.529	0.228	0.075
-320.056	425.468	-0.105	0.222
-319.041	-9.691	-0.384	-0.253
-318.026	-125.848	-0.050	-0.007
-317.012	-26.643	-0.183	-0.106
-315.997	428.554	0.024	0.052
-314.983	-18.413	0.244	0.151
-313.968	-176.677	0.126	0.003
-312.953	800.000	-0.089	-0.274
-311.939	105.679	-0.012	0.014
-310.924	-55.544	-0.168	-0.074
-309.910	762.389	0.109	0.293
-308.895	-102.220	-0.243	-0.058
-307.880	-143.383	0.188	0.018
-306.866	169.818	-0.171	-0.241
-305.851	-87.571	0.304	-0.091
-304.837	800.000	0.017	0.054
-303.822	73.180	-0.039	0.040
-302.807	-200.000	-0.000	0.028
-301.793	-32.099	0.152	-0.084
-300.778	-97.521	-0.257	0.066
-299.764	-58.996	-0.074	-0.032
-298.749	-50.607	0.178	-0.083
-297.735	526.033	0.030	0.069
-296.720	108.134	0.015	0.018
-295.705	26.041	-0.311	-0.256
-294.691	800.000	0.051	-0.142
-293.676	-100.936	0.322	-0.078
-292.662	646.306	0.099	0.251
-291.647	800.000	-0.037	-0.138
-290.632	-190.663	-0.341	-0.004
-289.618	800.000	-0.131	0.455
-288.603	-200.000	-0.005	0.186
-287.589	75.336	-0.214	0.223
-286.574	800.000	0.027	-0.076
-285.559	117.320	0.212	-0.257
-284.545	29.298	-0.035	0.029
-283.530	-96.976	-0.215	0.056
-282.516	-53.843	0.090	0.040
-281.501	-84.572	0.428	-0.133
-280.486	800.000	-0.038	0.160
-279.472	-181.125	-0.117	-0.002
-278.457	-50.600	0.374	-0.174
-277.443	298.441	-0.081	0.146
-276.428	9.210	0.059	0.044
-275.413	-127.319	-0.265	0.038
-274.399	15.816	0.199	-0.154
-273.384	-200.000	0.008	-0.209
-272.370	-192.849	-0.345	0.003
-271.355	244.437	-0.117	-0.193
-270.340	800.000	-0.012	-0.038
-269.326	-200.000	0.007	0.065
-268.311	-191.910	0.389	-0.004
-267.297	-173.400	0.097	0.003
-266.282	-150.868	-0.184	0.014
-265.267	800.000	-0.025	0.106
-264.253	-89.090	-0.509	-0.148
-263.238	-145.944	0.279	0.024
-262.224	566.630	-0.072	-0.171
-261.209	-200.000	0.049	-0.274
-260.195	123.150	-0.219	-0.270
-259.180	32.588	-0.262	-0.224
-258.165	142.003	0.184	-0.241
-257.151	-105.153	-0.101	-0.023
-256.136	43.588	0.224	-0.202
-255.122	568.988	0.095	0.228
-254.107	300.787	0.035	0.063
-253.092	-200.000	0.014	-0.112
-252.078	-5.516	0.246	-0.166
-251.063	269.307	-0.137	0.237
-250.049	2.057	-0.173	-0.123
-249.034	157.666	-0.106	0.144
-248.019	46.865	0.100	-0.092
-247.005	-200.000	-0.031	-0.144
-245.990	243.216	0.204	-0.337
-244.976	-58.310	-0.158	-0.068
-243.961	800.000	-0.059	-0.241
-242.946	1.701	0.083	-0.059
-241.932	335.885	0.023	-0.044
-240.917	86.044	0.019	-0.020
-239.903	200.938	0.034	0.051
-238.888	-65.981	0.248	0.098
-237.873	22.561	-0.152	0.122
-236.859	-35.618	0.123	-0.065
-235.844	-200.000	0.124	0.000
-234.830	-115.865	-0.248	0.046
-233.815	-200.000	-0.032	0.181
-232.800	-200.000	-0.013	0.403
-231.786	124.977	-0.152	0.188
-230.771	-128.931	0.264	0.036
-229.757	538.106	-0.109	0.255
-228.742	-26.007	-0.139	-0.080
-227.727	442.765	-0.054	-0.116
-226.713	-145.659	-0.330	-0.029
-225.698	-58.423	-0.189	0.081
-224.684	-200.000	0.054	0.251
-223.669	58.446	0.106	0.102
-222.655	-95.314	0.175	0.046
-221.640	-200.000	-0.007	-0.041
-220.625	-113.741	0.009	0.002
-219.611	-200.000	-0.006	0.219
-218.596	-157.597	0.090	-0.005
-217.582	-161.706	-0.126	0.006
-216.567	-200.000	0.040	0.208
-215.552	-102.434	0.252	0.059
-214.538	364.896	-0.313	-0.620
-213.523	-200.000	-0.003	0.295
-212.509	359.725	0.137	0.269
-211.494	91.362	-0.052	0.057
-210.479	-153.852	-0.149	0.010
-209.465	800.000	-0.021	-0.088
-208.450	122.737	0.142	0.175
-207.436	-88.340	0.073	0.021
-206.421	463.008	-0.040	-0.089
-205.406	93.115	-0.217	-0.241
-204.392	421.056	0.067	-0.142
-203.377	-52.550	0.261	-0.119
-202.363	33.092	0.028	-0.024
-201.348	56.335	0.278	0.265
-200.333	261.963	-0.100	0.170
-199.319	90.903	0.197	-0.217
-198.304	124.070	-0.108	-0.133
-197.290	79.131	0.073	0.077
-196.275	2.485	-0.180	0.128
-195.260	12.153	-0.266	0.201
-194.246	-127.504	-0.210	0.030
-193.231	30.199	0.263	-0.221
-192.217	180.654	0.263	-0.379
-191.202	-163.657	-0.124	0.006
-190.187	-46.762	0.108	-0.052
-189.173	178.264	-0.040	-0.057
-188.158	9.742	-0.024	-0.018
-187.144	-90.608	-0.225	0.064
-186.129	-66.661	0.318	-0.124
-185.114	-74.153	0.278	-0.099
-184.100	5.901	0.181	-0.131
-183.085	-65.456	-0.127	0.050
-182.071	14.776	-0.133	0.102
-181.056	-69.956	0.125	0.047
-180.042	-79.265	-0.273	-0.091
-179.027	-48.741	-0.116	0.055
-178.012	-166.203	-0.144	0.006
-176.998	-189.018	0.103	-0.001
-175.983	7.181	0.146	-0.107
-174.969	800.000	-0.052	-0.181
-173.954	-12.220	-0.160	-0.103
-172.939	-200.000	-0.045	-0.225
-171.925	-157.737	-0.161	0.009
-170.910	-0.620	-0.064	0.045
-169.896	-39.033	-0.040	-0.021
-168.881	800.000	0.119	-0.334
-167.866	-200.000	0.001	0.088
-166.852	-27.531	0.391	0.223
-165.837	-73.542	0.087	0.031
-164.823	-85.917	-0.212	0.064
-163.808	800.000	-0.061	0.199
-162.793	-56.113	0.201	-0.088
-161.779	-127.838	0.323	-0.046
-160.764	-0.211	0.309	-0.216
-159.750	59.534	0.221	-0.214
-158.735	-200.000	-0.032	-0.144
-157.720	-82.271	-0.105	-0.034
-156.706	-146.943	0.292	-0.025
-155.691	98.654	-0.159	0.180
-154.677	4.529	-0.294	-0.212
-153.662	-9.737	0.159	0.104
-152.647	41.123	0.080	-0.071
-151.633	165.854	0.146	-0.203
-150.618	-200.000	0.016	0.076
-149.604	621.448	0.085	-0.210
-148.589	-77.833	-0.128	0.043
-147.574	-48.828	-0.078	-0.037
-146.560	-200.000	0.012	-0.266
-145.545	18.999	0.127	-0.100
-144.531	-200.000	-0.041	-0.201
-143.516	-97.853	0.459	0.116
-142.502	-200.000	-0.006	0.248
-141.487	800.000	-0.137	0.381
-140.472	18.819	-0.356	-0.280
-139.458	-46.800	0.326	0.156
-138.443	305.902	-0.123	0.225
-137.429	429.143	0.051	-0.107
-136.414	295.662	0.073	0.131
-135.399	193.352	-0.143	-0.212
-134.385	-67.159	0.246	-0.095
-133.370	148.621	-0.172	0.228
-132.356	800.000	0.068	-0.234
-131.341	-200.000	-0.028	0.225
-130.326	84.486	-0.140	0.150
-129.312	65.441	0.099	0.098
-128.297	108.147	-0.119	-0.139
-127.283	663.227	-0.044	-0.112
-126.268	-106.179	0.193	0.042
-125.253	226.125	-0.176	0.281
-124.239	-200.000	0.007	0.078
-123.224	-151.640	0.153	0.011
-122.210	-120.282	-0.233	0.039
-121.195	173.072	0.124	0.175
-120.180	-122.755	0.160	-0.025
-119.166	800.000	0.074	0.212
-118.151	-28.048	-0.134	-0.076
-117.137	-75.832	-0.294	0.102
-116.122	27.373	-0.136	0.112
-115.107	-70.402	0.358	0.133
-114.093	306.620	0.066	0.121
-113.078	-99.336	-0.239	-0.059
-112.064	56.429	0.226	0.216
-111.049	-200.000	0.035	-0.154
-110.034	-200.000	0.088	0.535
-109.020	-28.997	-0.055	-0.031
-108.005	-87.386	0.107	0.032
-106.991	-189.522	0.463	-0.005
-105.976	800.000	-0.061	0.201
-104.962	81.070	-0.157	-0.166
-103.947	-200.000	0.051	0.388
-102.932	650.812	0.044	-0.111
-101.918	-24.103	0.201	-0.118
-100.903	-71.451	-0.243	-0.089
-99.889	385.644	-0.109	-0.220
-98.874	41.023	-0.210	-0.186
-97.859	298.285	0.096	0.173
-96.845	56.982	0.412	0.393
-95.830	-57.286	-0.145	0.062
-94.816	-122.307	0.274	-0.044
-93.801	32.341	-0.060	-0.051
-92.786	-17.147	-0.223	0.138
-91.772	800.000	0.053	-0.221
-90.757	395.314	0.013	0.027
-89.743	-66.857	-0.201	-0.078
-88.728	89.543	-0.025	0.027
-87.713	-8.681	0.103	-0.067
-86.699	-200.000	0.085	-0.467
-85.684	95.913	-0.207	-0.231
-84.670	36.583	0.225	-0.194
-83.655	-23.766	0.171	-0.100
-82.640	340.786	-0.090	0.173
-81.626	-104.773	-0.244	0.055
-80.611	-40.076	0.263	0.134
-79.597	-101.022	0.197	0.047
-78.582	288.070	0.023	0.040
-77.567	12.992	0.179	0.135
-76.553	-30.188	0.045	-0.025
-75.538	-44.566	-0.527	0.258
-74.524	150.313	0.106	0.141
-73.509	-67.535	0.227	0.087
-72.494	-200.000	0.050	-0.377
-71.480	-75.661	0.391	0.136
-70.465	-128.621	0.141	-0.020
-69.451	800.000	-0.093	0.298
-68.436	-200.000	0.024	-0.189
-67.422	-36.711	0.425	0.223
-66.407	119.767	0.143	-0.173
-65.392	138.757	0.022	0.029
-64.378	-142.986	0.242	0.023
-63.363	-42.705	0.363	0.180
-62.349	-121.692	0.171	-0.028
-61.334	137.427	-0.892	-1.141
-60.319	-27.729	0.875	0.496
-59.305	537.860	-0.435	-1.011
-58.290	800.000	0.540	1.659
-57.276	203.191	0.814	1.230
-56.261	-200.000	116.660	649.549
-55.246	514.284	1537.944	3506.951
-54.232	174.285	2720.688	3843.128
-53.217	100.042	2301.154	2606.849
-52.203	35.846	1905.791	1637.784
-51.188	29.796	1696.968	1412.238
-50.173	27.289	1655.519	1358.992
-49.159	48.045	1712.066	1563.646
-48.144	46.644	1725.250	1564.994
-47.130	29.380	1682.640	1396.943
-46.115	26.692	1669.036	1365.369
-45.100	26.681	1663.093	1360.370
-44.086	26.554	1661.192	1357.807
-43.071	26.616	1658.334	1355.886
-42.057	26.474	1656.367	1353.162
-41.042	26.493	1654.207	1351.484
-40.027	26.548	1652.213	1350.211
-39.013	26.527	1650.181	1348.339
-37.998	26.507	1648.888	1347.081
-36.984	26.584	1647.050	1346.104
-35.969	26.597	1645.828	1345.144
-34.954	26.617	1644.029	1343.770
-33.940	26.649	1642.611	1342.796
-32.925	26.655	1640.396	1340.977
-31.911	26.599	1639.439	1339.724
-30.896	26.561	1637.995	1338.214
-29.881	26.675	1635.822	1337.220
-28.867	26.623	1634.412	1335.636
-27.852	26.631	1633.077	1334.551
-26.838	26.591	1631.467	1332.888
-25.823	26.710	1630.199	1332.676
-24.809	26.636	1628.893	1331.009
-23.794	26.579	1627.798	1329.642
-22.779	26.574	1626.460	1328.458
-21.765	26.654	1624.135	1327.091
-20.750	26.692	1622.411	1325.908
-19.736	26.803	1620.369	1325.001
-18.721	26.748	1620.008	1324.250
-17.706	26.745	1618.387	1322.854
-16.692	26.642	1617.241	1321.108
-15.677	26.779	1614.999	1320.223
-14.663	26.757	1613.667	1318.927
-13.648	26.675	1612.645	1317.442
-12.633	26.675	1611.299	1316.287
-11.619	26.735	1609.273	1315.017
-10.604	26.750	1607.679	1313.769
-9.590	26.789	1606.610	1313.125
-8.575	26.750	1604.953	1311.441
-7.560	26.751	1603.703	1310.374
-6.546	26.686	1602.860	1309.162
-5.531	26.607	1601.841	1307.709
-4.517	26.758	1600.493	1307.647
-3.502	26.695	1599.499	1306.328
-2.487	26.738	1597.883	1305.266
-1.473	26.384	1586.334	1293.246
-0.458	23.734	1566.735	1258.469
0.556	21.154	1568.782	1228.270
1.571	18.867	1593.140	1230.866
2.586	18.392	1607.074	1238.093
3.600	16.407	1550.967	1180.901
4.615	9.664	1442.469	1054.227
5.629	4.070	1384.314	976.447
6.644	3.263	1377.130	966.230
7.659	3.250	1375.508	964.921
8.673	3.277	1374.670	964.418
9.688	3.371	1372.365	963.303
10.702	3.295	1369.968	961.061
11.717	5.853	1374.220	979.959
12.731	13.031	1387.965	1034.820
13.746	18.949	1397.735	1079.268
14.761	20.231	1398.676	1087.944
15.775	19.722	1396.344	1082.844
16.790	18.664	1394.054	1074.352
17.804	17.910	1391.477	1067.562
18.819	17.499	1390.690	1064.293
19.834	17.351	1389.735	1062.543
20.848	17.238	1388.423	1060.738
21.863	17.038	1386.992	1058.309
22.877	16.899	1385.967	1056.563
23.892	16.890	1384.986	1055.665
24.907	16.802	1384.255	1054.471
25.921	16.875	1382.933	1053.823
26.936	16.819	1382.702	1053.206
27.950	16.760	1381.689	1051.973
28.965	16.889	1380.522	1051.793
29.980	17.075	1379.120	1051.782
30.994	17.063	1378.179	1050.902
32.009	17.245	1376.857	1050.927
33.023	17.146	1375.877	1049.471
34.038	17.152	1374.619	1048.458
35.053	17.039	1372.942	1046.389
36.067	17.013	1372.147	1045.530
37.082	17.121	1370.798	1045.071
38.096	17.137	1369.840	1044.351
39.111	17.103	1369.520	1043.802
40.126	16.976	1368.261	1041.974
41.140	16.674	1367.503	1039.447
42.155	16.679	1366.241	1038.426
43.169	16.578	1367.200	1038.445
44.184	16.712	1366.066	1038.315
45.199	16.644	1366.105	1037.836
46.213	16.723	1365.584	1037.831
47.228	16.978	1364.484	1038.463
48.242	16.999	1363.208	1037.529
49.257	16.896	1361.789	1035.725
50.271	16.933	1360.229	1034.674
51.286	16.925	1359.021	1033.617
52.301	16.900	1357.995	1032.591
53.315	16.845	1356.611	1031.117
54.330	16.826	1355.520	1030.076
55.344	16.706	1354.601	1028.561
56.359	16.716	1352.971	1027.295
57.374	16.682	1352.482	1026.625
58.388	16.665	1351.279	1025.519
59.403	16.581	1351.161	1024.829
60.417	16.566	1350.451	1024.107
61.432	16.570	1349.726	1023.492
62.447	16.543	1348.584	1022.371
63.461	16.483	1347.318	1020.961
64.476	16.480	1346.045	1019.888
65.490	16.423	1344.431	1018.228
66.505	16.502	1343.255	1017.722
67.520	16.455	1342.414	1016.713
68.534	16.508	1341.426	1016.195
69.549	16.531	1340.060	1015.210
70.563	16.431	1339.094	1013.789
71.578	16.475	1337.418	1012.691
72.593	16.426	1336.597	1011.686
73.607	16.228	1336.138	1010.066
74.622	16.304	1335.780	1010.158
75.636	16.346	1335.342	1009.989
76.651	16.415	1334.129	1009.397
77.666	16.397	1333.887	1009.013
78.680	16.509	1333.142	1009.029
79.695	16.520	1332.341	1008.403
80.709	16.571	1331.721	1008.144
81.724	16.688	1331.084	1008.271
82.739	16.739	1330.026	1007.685
83.753	16.752	1329.544	1007.305
84.768	17.035	1328.314	1007.966
85.782	17.027	1327.305	1007.065
86.797	17.001	1326.095	1005.905
87.812	16.861	1325.043	1004.191
88.826	16.967	1324.057	1003.980
89.841	16.867	1323.153	1002.615
90.855	17.049	1321.614	1002.435
91.870	16.979	1320.830	1001.339
92.884	17.202	1319.908	1001.866
93.899	17.116	1319.374	1000.864
94.914	17.114	1318.483	1000.090
95.928	17.132	1318.123	999.830
96.943	17.091	1317.142	998.758
97.957	16.967	1316.313	997.313
98.972	16.990	1315.230	996.541
99.987	17.132	1313.325	995.838
101.001	17.195	1312.388	995.409
102.016	17.064	1311.688	994.027
103.030	17.078	1310.927	993.443
104.045	16.929	1310.155	991.895
105.060	16.954	1308.202	990.479
106.074	16.690	1307.425	988.260
107.089	16.528	1305.418	985.712
108.103	16.516	1304.202	984.634
109.118	16.538	1303.042	983.799
110.133	16.503	1301.857	982.614
111.147	16.563	1300.119	981.566
112.162	16.610	1299.144	981.018
113.176	16.572	1298.400	980.148
114.191	16.663	1297.086	979.595
115.206	16.817	1295.488	979.191
116.220	16.847	1294.291	978.372
117.235	16.670	1294.022	977.062
118.249	16.682	1292.359	975.789
119.264	16.550	1291.502	974.297
120.279	16.563	1290.622	973.621
121.293	16.517	1289.477	972.403
122.308	16.466	1288.369	971.192
123.322	16.437	1286.748	969.716
124.337	16.392	1286.356	969.077
125.352	16.410	1285.005	968.078
126.366	16.480	1283.680	967.394
127.381	16.401	1282.867	966.242
128.395	16.391	1282.109	965.529
129.410	16.491	1280.980	965.164
130.424	16.514	1280.117	964.560
131.439	16.662	1279.473	964.833
132.454	16.586	1279.025	963.978
133.468	16.642	1277.709	963.221
134.483	16.745	1276.616	962.894
135.497	16.689	1275.819	961.890
136.512	16.724	1274.828	961.258
137.527	16.755	1273.660	960.466
138.541	16.818	1271.468	959.087
139.556	16.694	1271.058	957.993
140.570	16.746	1270.586	957.843
141.585	16.879	1269.180	957.452
142.600	16.991	1267.664	956.851
143.614	17.162	1266.510	956.863
144.629	17.079	1265.843	955.805
145.643	17.090	1264.772	954.974
146.658	16.944	1263.006	952.738
147.673	16.836	1261.800	951.135
148.687	16.709	1260.850	949.624
149.702	16.721	1259.443	948.549
150.716	16.690	1258.436	947.529
151.731	16.793	1256.945	946.901
152.746	16.841	1255.740	946.180
153.760	16.940	1254.517	945.725
154.775	16.845	1253.663	944.468
155.789	16.945	1252.983	944.427
156.804	16.993	1251.740	943.675
157.819	17.071	1250.479	943.076
158.833	17.113	1250.215	943.025
159.848	17.240	1249.282	942.945
160.862	17.210	1248.144	941.832
161.877	17.037	1246.641	939.661
162.892	16.939	1245.436	938.124
163.906	16.861	1244.719	937.072
164.921	16.820	1243.856	936.109
165.935	16.921	1243.138	936.045
166.950	16.986	1242.509	935.846
167.964	17.021	1241.611	935.284
168.979	16.993	1240.524	934.223
169.994	16.946	1240.023	933.504
171.008	17.033	1239.248	933.318
172.023	17.098	1238.698	933.178
173.037	17.128	1238.152	932.849
174.052	17.061	1237.574	931.967
175.067	17.027	1235.645	930.243
176.081	17.028	1234.419	929.246
177.096	16.962	1233.892	928.407
178.110	17.031	1232.594	927.722
179.125	16.980	1231.332	926.410
180.140	17.131	1230.134	926.252
181.154	17.193	1228.893	925.575
182.169	17.185	1228.101	924.855
183.183	17.156	1226.933	923.736
184.198	17.325	1225.527	923.508
185.213	17.248	1224.777	922.447
186.227	17.299	1223.489	921.672
187.242	17.360	1222.535	921.201
188.256	17.357	1221.812	920.559
189.271	17.320	1220.932	919.612
190.286	17.160	1219.467	917.566
191.300	16.964	1218.624	915.794
192.315	16.804	1217.773	914.208
193.329	16.923	1217.267	914.387
194.344	16.929	1216.870	914.043
195.359	17.014	1216.330	914.015
196.373	17.230	1215.625	914.564
197.388	17.361	1214.998	914.719
198.402	17.425	1214.418	914.542
199.417	17.640	1213.865	915.200
200.432	17.578	1213.496	914.509
201.446	17.766	1212.635	914.786
202.461	17.646	1212.139	913.686
203.475	17.714	1210.766	912.936
204.490	17.641	1209.331	911.386
205.504	17.434	1208.148	909.303
206.519	17.403	1207.008	908.203
207.534	17.328	1205.585	906.652
208.548	17.407	1204.842	906.433
209.563	17.350	1204.197	905.562
210.577	17.525	1202.803	905.365
211.592	17.561	1202.181	905.011
212.607	17.666	1201.316	904.835
213.621	17.531	1200.798	903.646
214.636	17.705	1199.345	903.400
215.650	17.613	1198.961	902.538
216.665	17.753	1198.048	902.513
217.680	17.886	1197.044	902.382
218.694	17.839	1196.109	901.349
219.709	17.810	1195.270	900.482
220.723	17.777	1194.725	899.818
221.738	17.729	1194.288	899.156
222.753	17.762	1193.112	898.366
223.767	17.751	1192.383	897.679
224.782	17.805	1192.065	897.643
225.796	17.959	1191.315	897.808
226.811	17.896	1190.590	896.855
227.826	17.741	1190.390	895.808
228.840	17.758	1189.120	894.862
229.855	17.821	1188.765	894.846
230.869	17.676	1187.732	893.232
231.884	17.744	1186.003	892.211
232.899	17.707	1185.753	891.750
233.913	17.680	1185.337	891.213
234.928	17.538	1184.309	889.624
235.942	17.474	1183.918	888.913
236.957	17.683	1182.559	888.907
237.972	17.487	1182.187	887.523
238.986	17.543	1181.322	887.091
240.001	17.763	1180.515	887.551
241.015	17.607	1180.117	886.359
242.030	17.653	1179.526	886.077
243.045	17.812	1178.341	885.935
244.059	17.869	1177.389	885.437
245.074	17.898	1176.627	884.934
246.088	17.888	1176.292	884.550
247.103	18.134	1175.296	884.999
248.117	18.037	1174.403	883.748
249.132	18.201	1173.832	884.087
250.147	18.347	1173.297	884.358
251.161	18.436	1172.646	884.248
252.176	18.453	1171.880	883.681
253.190	18.541	1171.036	883.420
254.205	18.705	1170.748	883.967
255.220	18.633	1169.954	882.923
256.234	18.562	1169.572	882.189
257.249	18.487	1168.980	881.280
258.263	18.424	1168.385	880.428
259.278	18.558	1167.365	880.272
260.293	18.561	1166.687	879.694
261.307	18.631	1166.171	879.587
262.322	18.605	1165.946	879.210
263.336	18.583	1165.455	878.645
264.351	18.598	1164.951	878.264
265.366	18.604	1164.108	877.583
266.380	18.757	1163.181	877.588
267.395	18.624	1162.339	876.198
268.409	18.507	1161.691	875.035
269.424	18.507	1160.820	874.300
270.439	18.550	1160.109	873.904
271.453	18.575	1159.365	873.396
272.468	18.438	1158.177	871.727
273.482	18.405	1157.855	871.239
274.497	18.414	1157.499	870.942
275.512	18.563	1156.273	870.698
276.526	18.551	1155.452	869.939
277.541	18.527	1155.023	869.418
278.555	18.506	1154.391	868.761
279.570	18.730	1153.691	869.293
280.585	18.780	1152.992	868.939
281.599	18.857	1151.548	868.164
282.614	18.720	1150.671	866.733
283.628	18.633	1149.616	865.426
284.643	18.616	1148.948	864.761
285.657	18.685	1148.093	864.386
286.672	18.716	1146.736	863.446
287.687	18.733	1146.015	862.909
288.701	18.729	1145.331	862.299
289.716	18.751	1144.352	861.594
290.730	18.705	1143.951	860.986
291.745	18.774	1143.272	860.744
292.760	18.810	1142.893	860.566
293.774	18.833	1142.358	860.203
294.789	19.011	1141.292	860.215
295.803	18.939	1141.187	859.699
296.818	18.879	1139.954	858.392
297.833	18.844	1139.505	857.803
298.847	18.912	1138.482	857.299
299.862	18.875	1137.442	856.255
300.876	18.936	1137.010	856.157
301.891	18.936	1136.701	855.849
302.906	18.955	1135.879	855.249
303.920	19.092	1135.442	855.522
304.935	19.164	1134.887	855.388
305.949	19.256	1133.863	854.996
306.964	19.169	1133.116	853.929
307.979	19.099	1132.379	852.949
308.993	19.056	1131.912	852.311
310.008	19.111	1130.741	851.621
311.022	19.160	1130.142	851.340
312.037	19.229	1129.092	850.812
313.052	19.126	1128.329	849.658
314.066	19.115	1126.775	848.355
315.081	18.909	1126.228	846.855
316.095	18.819	1125.453	845.752
317.110	19.001	1124.764	846.057
318.125	18.944	1124.436	845.455
319.139	18.898	1123.622	844.541
320.154	18.975	1122.772	844.205
321.168	18.956	1122.542	843.864
322.183	18.951	1121.597	843.053
323.197	19.039	1120.881	842.873
324.212	19.072	1120.028	842.321
325.227	19.079	1119.820	842.122
326.241	19.073	1119.175	841.535
327.256	19.041	1118.560	840.840
328.270	19.040	1117.239	839.768
329.285	18.996	1116.121	838.640
330.300	19.034	1115.470	838.261
331.314	19.037	1114.542	837.502
332.329	19.082	1113.526	836.885
333.343	19.034	1112.867	836.081
334.358	19.323	1112.204	836.915
335.373	19.209	1111.740	835.939
336.387	19.380	1110.514	835.768
337.402	19.449	1109.478	835.253
338.416	19.456	1109.107	834.934
339.431	19.462	1108.453	834.396
340.446	19.607	1107.744	834.486
341.460	19.638	1107.307	834.235
342.475	19.787	1106.249	834.084
343.489	19.632	1105.687	832.836
344.504	19.857	1104.492	832.944
345.519	19.818	1103.892	832.231
346.533	19.820	1102.927	831.439
347.548	19.921	1102.956	831.877
348.562	19.776	1101.780	830.216
349.577	19.609	1100.880	828.665
350.592	19.449	1100.215	827.322
351.606	19.431	1099.258	826.446
352.621	19.464	1098.258	825.778
353.635	19.538	1097.473	825.471
354.650	19.406	1097.152	824.524
355.665	19.518	1096.223	824.286
356.679	19.417	1096.314	823.800
357.694	19.565	1095.557	823.863
358.708	19.687	1094.569	823.630
359.723	19.700	1093.977	823.173
360.738	19.689	1093.197	822.462
361.752	19.746	1092.852	822.400
362.767	19.727	1092.259	821.789
363.781	19.750	1091.784	821.470
364.796	19.881	1091.037	821.457
365.810	19.871	1090.834	821.187
366.825	19.987	1089.991	821.027
367.840	20.024	1089.834	821.014
368.854	20.078	1089.313	820.803
369.869	19.930	1088.611	819.500
370.883	19.952	1087.755	818.887
371.898	19.999	1086.646	818.204
372.913	20.081	1085.851	817.920
373.927	20.140	1085.689	818.001
374.942	20.140	1084.807	817.267
375.956	19.955	1084.476	816.072
376.971	20.065	1083.941	816.113
377.986	20.058	1083.496	815.674
379.000	20.200	1083.051	815.933
380.015	20.274	1082.555	815.837
381.029	20.375	1081.698	815.595
382.044	20.107	1081.026	813.758
383.059	20.327	1080.331	814.194
384.073	20.266	1079.099	812.908
385.088	20.170	1078.795	812.155
386.102	20.336	1077.324	811.755
387.117	20.196	1076.176	810.164
388.132	20.147	1075.480	809.339
389.146	20.107	1074.552	808.381
390.161	20.156	1073.729	807.921
391.175	20.117	1073.127	807.213
392.190	20.173	1072.496	806.928
393.205	20.208	1072.107	806.726
394.219	20.356	1071.086	806.576
395.234	20.208	1069.982	804.986
396.248	20.185	1068.948	804.030
397.263	20.202	1067.875	803.231
398.278	20.030	1067.445	802.039
399.292	20.087	1066.755	801.715
400.307	20.044	1066.184	801.016
401.321	20.053	1065.357	800.366
402.336	19.992	1065.244	799.929
403.350	20.061	1063.950	799.204
404.365	20.271	1062.637	799.113
405.380	20.263	1062.186	798.667
406.394	20.236	1061.705	798.109
407.409	20.383	1061.337	798.440
408.423	20.435	1060.697	798.125
409.438	20.546	1059.405	797.593
410.453	20.517	1059.443	797.418
411.467	20.616	1058.610	797.172
412.482	20.709	1057.605	796.773
413.496	20.756	1056.856	796.354
414.511	20.655	1056.586	795.616
415.526	20.759	1056.225	795.751
416.540	20.787	1055.901	795.563
417.555	20.927	1054.906	795.384
418.569	20.787	1054.418	794.306
419.584	20.778	1054.237	794.056
420.599	20.732	1053.632	793.323
421.613	155.086	1405.582	1797.398
422.628	142.292	1456.832	1797.469
