DTS Sentinel unit serial number:	SN413079Multiplexer serial number:	ORYXHardware model number:	OX4-SRSoftware version number:	ORYX F/W v4.00 Oryx Data Collector v3.7.2.0data status	okinstallation	princeton_trtdifferential loss correction	single-endedforward channel	channel 2reverse channel	N/Adate	2019/09/12time	18:31:49forward acquisition time	15.00reverse acquisition time	0.00gamma	496.2192k internal	0.2324k external	0.2324temperature offset calibration	1.0119default loss term (dB/km)	0.3790temperature slope calibration	1.0000multiplexer offset coefficient	1.0000multiplexer slope coefficient	1.0000fibre end	0.00T internal ref (°C)	33.25T ext. ref 1 (°C)	2.96T ext. ref 2 (°C)	27.84length (m)	temperature (°C)	Stokes	anti-Stokes-747.200	-165.003	-0.753	-0.034
-746.185	124.536	-0.286	-0.363
-745.171	11.762	0.526	0.408
-744.156	-139.698	0.341	-0.037
-743.142	-163.497	0.111	0.005
-742.127	415.608	-0.107	0.230
-741.112	285.354	-0.135	-0.246
-740.098	774.667	0.201	0.552
-739.083	309.183	0.340	0.641
-738.069	-56.864	0.462	0.206
-737.054	9.686	0.837	0.641
-736.039	-131.480	-0.618	0.082
-735.025	435.987	0.381	0.838
-734.010	-166.052	-0.283	-0.012
-732.996	-83.669	-0.328	-0.106
-731.981	-34.363	-0.520	0.288
-730.966	581.027	0.045	-0.111
-729.952	-100.744	0.387	0.096
-728.937	-164.812	-0.813	-0.037
-727.923	-200.000	-0.086	-0.424
-726.908	-99.553	0.290	0.073
-725.894	-89.815	0.695	-0.205
-724.879	-13.186	-0.666	-0.436
-723.864	-34.274	-0.196	0.108
-722.850	-34.930	0.246	0.136
-721.835	133.916	0.184	-0.240
-720.821	-194.543	-0.580	0.005
-719.806	449.743	-0.093	-0.206
-718.791	-114.263	-0.497	0.097
-717.777	800.000	0.267	0.785
-716.762	187.098	-0.260	-0.391
-715.748	-85.509	-0.115	-0.036
-714.733	39.701	-0.822	-0.744
-713.718	-113.181	-0.422	-0.084
-712.704	247.775	0.246	-0.420
-711.689	668.378	-0.063	-0.165
-710.675	-83.870	0.264	-0.085
-709.660	154.964	0.282	0.391
-708.645	-200.000	0.091	-0.544
-707.631	440.325	-0.229	-0.505
-706.616	746.626	0.229	-0.623
-705.602	430.533	0.309	-0.674
-704.587	-200.000	-0.010	-0.275
-703.572	-62.200	0.438	-0.184
-702.558	-45.676	-0.249	0.124
-701.543	800.000	0.048	0.149
-700.529	-200.000	0.143	-0.779
-699.514	-56.751	0.650	0.290
-698.499	-200.000	-0.085	0.553
-697.485	2.344	0.177	-0.129
-696.470	800.000	-0.254	-0.733
-695.456	-169.635	-0.262	0.010
-694.441	81.969	0.319	-0.349
-693.426	-105.413	-0.503	0.115
-692.412	81.740	-0.404	0.441
-691.397	17.313	0.338	0.270
-690.383	-78.002	-0.467	0.162
-689.368	-200.000	0.016	0.111
-688.354	-200.000	0.024	-0.509
-687.339	-125.655	-0.482	0.074
-686.324	55.945	-0.504	-0.492
-685.310	800.000	-0.335	1.179
-684.295	-200.000	-0.058	0.679
-683.281	192.488	-0.334	0.507
-682.266	-98.737	0.569	0.146
-681.251	13.190	-1.008	-0.786
-680.237	-6.579	-0.481	0.330
-679.222	-22.178	0.369	0.226
-678.208	800.000	0.139	-0.484
-677.193	-97.696	-0.821	-0.214
-676.178	-10.731	-0.363	0.242
-675.164	-200.000	0.012	-0.665
-674.149	-127.551	-0.566	0.083
-673.135	-161.585	-0.373	-0.019
-672.120	-64.587	-0.525	0.214
-671.105	-75.394	-0.392	0.141
-670.091	506.389	-0.275	-0.641
-669.076	-96.328	-0.352	0.094
-668.062	-200.000	0.005	0.613
-667.047	-173.987	-0.512	-0.015
-666.032	336.418	-0.406	0.792
-665.018	-6.690	0.174	0.119
-664.003	419.109	-0.064	0.138
-662.989	-200.000	-0.020	-0.787
-661.974	21.669	0.520	-0.426
-660.959	-46.129	-0.588	-0.291
-659.945	-3.902	-0.313	0.218
-658.930	-174.246	0.599	-0.017
-657.916	200.147	0.334	-0.516
-656.901	-200.000	0.005	-0.799
-655.886	717.239	-0.321	-0.857
-654.872	800.000	-0.188	0.614
-653.857	50.161	0.208	0.197
-652.843	508.276	0.355	-0.830
-651.828	-200.000	0.027	-0.897
-650.814	800.000	-0.095	-0.299
-649.799	-200.000	-0.634	0.001
-648.784	800.000	-0.206	-0.581
-647.770	2.387	0.095	0.069
-646.755	-64.266	-0.450	-0.184
-645.741	36.067	0.328	-0.290
-644.726	182.274	-0.268	0.398
-643.711	-200.000	0.007	0.269
-642.697	-110.756	0.469	0.097
-641.682	191.864	-0.531	-0.804
-640.668	800.000	0.464	-1.396
-639.653	-200.000	0.034	0.717
-638.638	139.377	0.101	-0.133
-637.624	11.639	-0.246	-0.190
-636.609	800.000	0.117	-0.474
-635.595	-200.000	-0.025	-0.993
-634.580	9.022	0.503	-0.382
-633.565	800.000	0.040	0.174
-632.551	9.865	0.705	-0.538
-631.536	77.617	-0.663	0.709
-630.522	174.750	0.695	1.010
-629.507	800.000	-0.189	-0.549
-628.492	800.000	-0.351	-1.179
-627.478	800.000	-0.089	-0.351
-626.463	-36.306	-0.469	-0.254
-625.449	-22.647	0.185	0.112
-624.434	11.487	-0.341	0.263
-623.419	-46.028	0.800	0.396
-622.405	21.008	-0.093	0.076
-621.390	54.564	0.029	0.028
-620.376	800.000	0.150	0.506
-619.361	540.341	-0.177	0.422
-618.346	-60.740	0.015	-0.006
-617.332	149.385	0.211	0.287
-616.317	272.691	-0.390	0.691
-615.303	345.418	-0.168	0.331
-614.288	620.055	-0.213	0.539
-613.273	-51.107	-0.883	-0.416
-612.259	-194.283	-1.585	0.013
-611.244	-130.323	-0.840	-0.115
-610.230	-5.146	-0.598	0.413
-609.215	-42.717	-0.473	-0.242
-608.201	-200.000	0.176	-0.909
-607.186	13.577	0.422	0.329
-606.171	61.266	-0.575	-0.573
-605.157	-200.000	0.051	0.247
-604.142	-97.463	-0.380	-0.099
-603.128	-109.440	0.657	-0.139
-602.113	-113.959	0.383	-0.075
-601.098	-59.836	-0.687	-0.295
-600.084	-88.014	0.529	0.159
-599.069	179.139	-0.387	0.568
-598.055	93.103	-0.174	0.197
-597.040	-92.670	-0.454	0.128
-596.025	-142.217	-0.601	-0.060
-595.011	354.354	0.257	-0.512
-593.996	-200.000	0.059	0.358
-592.982	-175.286	0.554	0.015
-591.967	340.095	-0.288	-0.563
-590.952	-135.591	0.814	0.097
-589.938	-28.612	0.260	-0.150
-588.923	492.562	0.120	-0.275
-587.909	477.231	0.321	0.729
-586.894	513.808	-0.256	0.599
-585.879	118.407	0.130	0.161
-584.865	522.059	-0.127	0.300
-583.850	-128.180	-0.250	-0.036
-582.836	-200.000	-0.082	0.457
-581.821	290.481	0.350	-0.638
-580.806	-109.268	-0.455	0.097
-579.792	800.000	0.193	-0.798
-578.777	23.671	-0.374	-0.308
-577.763	-43.642	-0.422	0.214
-576.748	-55.251	0.524	-0.236
-575.733	-8.940	0.194	0.130
-574.719	-100.266	-0.530	0.132
-573.704	-200.000	0.054	-0.523
-572.690	-153.220	-0.942	-0.066
-571.675	-11.966	0.657	0.432
-570.661	99.289	-0.281	-0.326
-569.646	-200.000	0.165	0.944
-568.631	306.398	0.205	-0.382
-567.617	-40.296	-0.607	0.316
-566.602	-96.160	-0.697	0.186
-565.588	800.000	0.218	-0.709
-564.573	176.508	0.426	-0.621
-563.558	160.057	0.118	-0.165
-562.544	173.128	-0.158	0.228
-561.529	-15.171	0.590	-0.378
-560.515	-111.275	-0.352	0.072
-559.500	800.000	-0.129	0.429
-558.485	248.428	0.203	0.345
-557.471	-85.813	-0.660	-0.205
-556.456	144.657	0.447	-0.598
-555.442	-28.741	0.543	-0.313
-554.427	31.857	-0.583	-0.503
-553.412	-200.000	-0.149	-1.062
-552.398	-69.365	0.169	-0.065
-551.383	48.903	-0.296	0.278
-550.369	-200.000	0.014	-0.776
-549.354	-114.119	0.812	0.157
-548.339	61.658	0.182	-0.181
-547.325	-75.143	-0.533	-0.191
-546.310	248.055	0.325	-0.551
-545.296	117.375	-0.151	0.186
-544.281	21.682	0.531	0.433
-543.266	-200.000	0.047	-0.248
-542.252	-127.977	0.724	0.104
-541.237	800.000	0.234	0.690
-540.223	-190.413	0.296	-0.003
-539.208	196.731	0.081	-0.124
-538.193	-200.000	0.063	-0.554
-537.179	-91.214	0.525	-0.151
-536.164	-131.747	0.489	0.064
-535.150	-181.467	0.128	-0.003
-534.135	122.111	0.309	0.386
-533.121	-172.470	-0.111	-0.004
-532.106	502.194	-0.417	-0.965
-531.091	-122.574	0.726	-0.118
-530.077	800.000	-0.194	-0.615
-529.062	-75.329	0.922	-0.329
-528.048	46.197	0.472	-0.438
-527.033	181.329	0.393	0.578
-526.018	-200.000	0.029	-0.171
-525.004	194.843	0.196	-0.298
-523.989	396.301	-0.348	-0.727
-522.975	-0.220	-0.664	-0.472
-521.960	-200.000	-0.023	-0.776
-520.945	-47.804	-0.434	0.210
-519.931	-200.000	-0.015	-0.603
-518.916	-102.485	0.486	0.116
-517.902	379.082	0.151	-0.310
-516.887	-181.619	-0.359	-0.007
-515.872	183.691	-0.384	0.568
-514.858	375.347	0.248	-0.506
-513.843	-129.471	0.284	0.039
-512.829	134.124	0.294	0.381
-511.814	0.626	0.170	-0.122
-510.799	-200.000	0.083	-1.196
-509.785	43.199	0.393	0.359
-508.770	10.759	0.304	0.232
-507.756	-200.000	0.026	0.118
-506.741	-200.000	-0.013	0.818
-505.726	800.000	-0.237	0.858
-504.712	-159.637	0.438	0.024
-503.697	-3.226	-0.639	0.445
-502.683	159.476	0.365	-0.507
-501.668	388.117	0.547	-1.132
-500.653	-123.637	-0.887	0.141
-499.639	800.000	-0.113	-0.477
-498.624	-44.541	-0.449	-0.224
-497.610	-200.000	0.077	0.559
-496.595	-57.563	0.378	-0.166
-495.581	90.567	-0.543	0.608
-494.566	-62.025	-0.840	0.351
-493.551	447.762	-0.285	-0.627
-492.537	100.708	0.231	-0.268
-491.522	324.188	-0.240	-0.458
-490.508	800.000	-0.200	-0.774
-489.493	-29.803	0.227	-0.129
-488.478	-11.369	-0.176	0.116
-487.464	135.792	-0.102	0.133
-486.449	45.230	0.055	0.051
-485.435	76.294	-0.399	-0.422
-484.420	390.244	0.170	-0.353
-483.405	800.000	-0.036	0.136
-482.391	78.943	0.666	0.712
-481.376	-131.805	-0.369	-0.048
-480.362	800.000	-0.090	-0.270
-479.347	219.700	-0.503	-0.804
-478.332	152.084	-0.419	-0.571
-477.318	-200.000	-0.132	0.654
-476.303	-200.000	-0.026	-0.452
-475.289	-200.000	-0.083	-0.558
-474.274	-200.000	-0.076	-0.592
-473.259	-97.080	-0.267	-0.070
-472.245	-90.069	0.318	0.092
-471.230	-200.000	0.072	0.764
-470.216	-147.865	-0.477	0.040
-469.201	-105.356	0.069	-0.016
-468.186	-200.000	-0.055	-0.837
-467.172	-200.000	-0.097	-0.654
-466.157	149.066	0.582	-0.786
-465.143	13.987	-0.626	-0.486
-464.128	48.400	-0.689	0.644
-463.113	292.664	-0.584	-1.062
-462.099	25.279	0.191	0.159
-461.084	175.591	-0.244	0.354
-460.070	-200.000	-0.011	0.369
-459.055	-65.317	0.354	-0.142
-458.040	-161.735	0.479	-0.024
-457.026	251.371	0.372	0.632
-456.011	-99.974	-0.793	0.197
-454.997	-200.000	0.033	-0.339
-453.982	-43.578	0.800	-0.403
-452.968	29.298	-0.549	0.465
-451.953	-43.886	0.242	-0.121
-450.938	-174.757	-0.499	0.014
-449.924	217.242	-0.315	0.500
-448.909	49.433	0.278	0.261
-447.895	184.457	-0.465	-0.687
-446.880	-132.431	-1.268	0.163
-445.865	133.411	0.247	-0.319
-444.851	-200.000	-0.035	0.417
-443.836	-180.549	0.634	-0.013
-442.822	-200.000	0.064	1.083
-441.807	-125.028	1.002	-0.154
-440.792	-200.000	0.014	0.154
-439.778	238.579	-0.297	-0.492
-438.763	-105.320	-0.376	0.086
-437.749	-146.942	0.820	-0.070
-436.734	800.000	-0.039	-0.170
-435.719	800.000	-0.057	0.167
-434.705	149.251	0.662	0.893
-433.690	-185.867	0.476	-0.007
-432.676	3.594	0.338	0.246
-431.661	305.390	0.183	-0.339
-430.646	-200.000	-0.037	0.605
-429.632	-83.398	-0.809	0.259
-428.617	-200.000	-0.080	0.445
-427.603	63.421	-0.675	-0.675
-426.588	-200.000	0.004	0.318
-425.573	800.000	0.276	0.953
-424.559	92.073	-0.455	0.510
-423.544	-6.183	-0.695	-0.473
-422.530	-34.725	-0.960	0.523
-421.515	678.064	-0.241	0.625
-420.500	-152.874	0.725	0.051
-419.486	390.003	0.401	-0.829
-418.471	31.724	-0.312	0.267
-417.457	99.115	-0.306	0.353
-416.442	90.405	0.446	0.497
-415.428	185.490	-0.318	-0.470
-414.413	595.647	-0.522	-1.289
-413.398	378.814	-0.240	0.489
-412.384	-32.314	0.446	0.248
-411.369	-148.666	-0.367	0.030
-410.355	509.278	-0.213	0.493
-409.340	613.202	-0.534	1.331
-408.325	800.000	0.214	0.863
-407.311	30.749	-0.652	0.556
-406.296	-32.091	0.780	-0.435
-405.282	-40.514	-0.631	0.326
-404.267	362.568	-0.351	-0.702
-403.252	480.661	0.111	-0.251
-402.238	-88.728	-0.240	-0.071
-401.223	-200.000	-0.044	-0.443
-400.209	260.111	-0.327	-0.562
-399.194	-32.250	-1.040	0.578
-398.179	-170.234	0.389	-0.014
-397.165	479.695	0.253	-0.572
-396.150	62.017	0.349	0.346
-395.136	-200.000	-0.008	0.223
-394.121	-200.000	-0.038	0.261
-393.106	800.000	0.305	-0.838
-392.092	89.772	0.156	-0.174
-391.077	490.532	0.411	-0.936
-390.063	276.271	0.488	0.862
-389.048	-34.176	-0.908	0.496
-388.033	800.000	0.096	-0.279
-387.019	-200.000	0.103	0.606
-386.004	91.151	0.370	-0.413
-384.990	-191.530	0.463	-0.005
-383.975	-90.243	-0.348	0.101
-382.960	-44.145	-0.234	-0.117
-381.946	33.668	-0.574	-0.496
-380.931	-200.000	0.094	1.029
-379.917	-161.802	0.583	0.030
-378.902	800.000	-0.153	-0.479
-377.888	84.808	-0.369	0.402
-376.873	-200.000	-0.033	-0.427
-375.858	-58.144	-0.251	-0.109
-374.844	-2.718	0.433	0.301
-373.829	118.627	-0.195	-0.239
-372.815	154.184	0.479	0.654
-371.800	168.319	0.486	0.689
-370.785	-200.000	-0.088	0.447
-369.771	-200.000	-0.045	-0.276
-368.756	-138.003	0.262	-0.029
-367.742	-97.908	0.774	0.199
-366.727	507.294	-0.260	-0.601
-365.712	-200.000	-0.066	0.520
-364.698	-69.360	-0.857	-0.327
-363.683	-43.059	0.643	0.324
-362.669	-186.814	0.961	0.013
-361.654	800.000	0.083	0.310
-360.639	480.380	0.199	0.450
-359.625	416.958	-0.217	0.461
-358.610	-200.000	0.020	-0.476
-357.596	-56.110	-0.300	0.133
-356.581	-33.428	-0.140	0.077
-355.566	-168.622	-0.129	-0.005
-354.552	-200.000	0.147	0.730
-353.537	-6.202	-0.377	0.256
-352.523	292.225	-0.085	-0.153
-351.508	-200.000	0.046	-0.445
-350.493	253.964	-0.185	-0.315
-349.479	180.323	0.369	-0.538
-348.464	226.552	-0.277	-0.446
-347.450	-59.793	0.529	-0.225
-346.435	800.000	0.183	-0.759
-345.420	-50.787	0.711	0.333
-344.406	84.603	-0.543	-0.591
-343.391	-153.318	0.324	-0.022
-342.377	-200.000	0.017	-1.124
-341.362	-1.826	0.391	-0.273
-340.348	800.000	0.101	0.307
-339.333	92.178	-0.591	-0.662
-338.318	9.860	0.708	0.534
-337.304	392.782	0.404	0.835
-336.289	-115.533	-0.664	0.124
-335.275	45.071	0.409	-0.375
-334.260	-200.000	0.016	-0.742
-333.245	130.002	0.407	-0.517
-332.231	64.631	0.282	0.282
-331.216	51.145	0.130	-0.123
-330.202	-200.000	-0.030	0.370
-329.187	-79.248	1.013	0.341
-328.172	301.509	0.094	0.173
-327.158	800.000	0.118	0.332
-326.143	35.275	-0.141	0.123
-325.129	262.584	-0.276	-0.475
-324.114	-40.322	0.571	0.295
-323.099	-82.667	-0.311	-0.100
-322.085	-137.814	-0.223	0.025
-321.070	-200.000	-0.024	-0.212
-320.056	-63.666	-0.237	-0.096
-319.041	-28.250	0.784	0.450
-318.026	-83.598	-0.399	-0.127
-317.012	-105.062	0.684	-0.155
-315.997	79.844	0.367	-0.391
-314.983	122.366	0.432	0.536
-313.968	121.781	0.277	-0.342
-312.953	-113.307	-0.395	-0.077
-311.939	-31.795	0.321	-0.179
-310.924	4.154	-0.428	-0.311
-309.910	123.687	-0.234	0.291
-308.895	110.195	-0.273	0.326
-307.880	-74.074	0.402	0.145
-306.866	-59.676	0.450	0.191
-305.851	-200.000	-0.017	-0.211
-304.837	-151.229	0.927	0.069
-303.822	-200.000	0.088	-0.408
-302.807	-138.905	0.387	0.042
-301.793	-200.000	0.138	0.654
-300.778	-153.558	0.906	-0.062
-299.764	-173.512	0.378	-0.011
-298.749	-58.677	0.531	0.228
-297.735	800.000	-0.155	0.588
-296.720	800.000	-0.112	-0.315
-295.705	-130.580	0.730	0.098
-294.691	204.714	-0.318	0.489
-293.676	-200.000	0.084	0.991
-292.662	800.000	-0.088	0.318
-291.647	-170.718	0.667	-0.023
-290.632	8.615	-0.137	-0.102
-289.618	48.880	0.527	-0.490
-288.603	800.000	-0.137	-0.478
-287.589	106.562	-0.393	0.462
-286.574	68.605	0.542	-0.551
-285.559	-15.093	-0.469	0.298
-284.545	-200.000	-0.039	-0.671
-283.530	-59.308	0.278	0.119
-282.516	148.515	-0.295	-0.395
-281.501	232.325	0.398	-0.647
-280.486	-200.000	0.001	-0.381
-279.472	-35.969	-0.446	0.239
-278.457	37.540	0.265	0.233
-277.443	-200.000	0.085	-0.435
-276.428	-84.033	0.175	0.055
-275.413	37.455	0.252	-0.222
-274.399	-80.003	-0.372	0.124
-273.384	-200.000	-0.098	0.597
-272.370	-62.970	0.576	0.236
-271.355	779.077	-0.051	0.138
-270.340	-103.109	-0.569	-0.133
-269.326	-85.896	-0.088	-0.027
-268.311	800.000	0.038	0.158
-267.297	-163.938	-1.013	0.047
-266.282	-28.149	0.379	0.217
-265.267	137.381	-0.196	-0.255
-264.253	800.000	-0.228	0.727
-263.238	-128.292	-0.333	0.047
-262.224	157.179	0.045	0.062
-261.209	576.496	-0.310	0.751
-260.195	-200.000	0.001	0.385
-259.180	221.393	-0.201	-0.320
-258.165	-148.459	-1.109	0.090
-257.151	-143.304	0.394	0.037
-256.136	183.021	-0.148	0.216
-255.122	126.678	0.391	0.490
-254.107	-10.074	-0.024	-0.016
-253.092	-8.641	0.680	-0.452
-252.078	151.436	-0.570	0.769
-251.063	178.656	0.135	-0.195
-250.049	92.290	0.360	-0.401
-249.034	-16.450	-0.357	0.224
-248.019	257.768	0.080	0.136
-247.005	-31.177	0.220	0.123
-245.990	352.962	0.370	-0.727
-244.976	-49.982	0.500	0.234
-243.961	21.936	-0.218	0.176
-242.946	-93.985	0.625	-0.170
-241.932	24.039	-0.128	-0.105
-240.917	798.008	-0.181	-0.494
-239.903	-200.000	0.083	-0.463
-238.888	-111.219	-0.557	-0.113
-237.873	-81.695	-0.279	0.091
-236.859	329.114	-0.189	0.360
-235.844	477.954	-0.109	0.244
-234.830	-16.600	-0.674	0.423
-233.815	800.000	-0.166	0.698
-232.800	350.463	0.302	-0.591
-231.786	800.000	-0.137	-0.564
-230.771	800.000	0.131	-0.535
-229.757	-103.346	0.538	0.126
-228.742	-4.577	-0.287	0.196
-227.727	-177.889	-0.408	-0.010
-226.713	-200.000	0.188	1.045
-225.698	41.317	-0.731	0.654
-224.684	60.798	0.362	0.355
-223.669	-178.251	0.511	0.012
-222.655	-112.058	-0.569	-0.113
-221.640	-200.000	0.046	0.354
-220.625	-200.000	-0.058	-0.616
-219.611	800.000	0.162	-0.448
-218.596	-25.820	-0.367	-0.214
-217.582	-146.260	0.242	0.021
-216.567	350.128	0.270	0.527
-215.552	-110.955	-0.716	0.145
-214.538	173.469	-0.117	0.167
-213.523	33.342	0.680	0.584
-212.509	800.000	0.151	0.596
-211.494	78.589	-0.829	-0.875
-210.479	-131.670	0.295	-0.038
-209.465	25.024	0.191	0.156
-208.450	-200.000	-0.019	-0.425
-207.436	800.000	0.110	-0.414
-206.421	800.000	0.055	0.201
-205.406	-200.000	-0.094	0.591
-204.392	24.029	0.275	0.224
-203.377	-40.146	1.051	-0.541
-202.363	-184.362	0.477	-0.008
-201.348	800.000	-0.191	-0.547
-200.333	191.683	-0.424	0.631
-199.319	-125.326	0.638	0.096
-198.304	435.892	-0.292	0.628
-197.290	-21.341	-0.578	0.349
-196.275	-200.000	0.081	0.579
-195.260	-60.942	0.187	-0.078
-194.246	-200.000	0.011	-0.202
-193.231	218.217	-0.360	-0.568
-192.217	-148.965	-0.258	0.021
-191.202	-10.221	0.303	0.198
-190.187	356.792	0.189	0.372
-189.173	800.000	0.070	-0.192
-188.158	64.677	0.659	0.657
-187.144	173.196	0.291	0.415
-186.129	114.795	0.147	-0.177
-185.114	800.000	-0.194	-0.724
-184.100	800.000	0.163	-0.497
-183.085	800.000	-0.045	-0.141
-182.071	800.000	0.183	0.547
-181.056	-86.059	0.548	-0.167
-180.042	-200.000	0.242	1.473
-179.027	20.304	0.561	-0.448
-178.012	93.038	-0.389	-0.434
-176.998	238.966	0.234	0.384
-175.983	35.961	0.452	0.393
-174.969	-1.582	-0.244	-0.169
-173.954	144.264	0.268	-0.353
-172.939	91.285	0.572	-0.634
-171.925	-200.000	-0.038	0.718
-170.910	44.100	-0.188	-0.170
-169.896	-200.000	0.011	0.233
-168.881	-26.284	0.461	0.267
-167.866	-57.952	0.615	0.265
-166.852	463.994	0.124	0.272
-165.837	-200.000	-0.105	-0.571
-164.823	-200.000	-0.078	0.758
-163.808	-78.090	-1.109	0.377
-162.793	25.887	-0.567	0.466
-161.779	654.472	0.341	0.864
-160.764	67.987	-0.510	0.515
-159.750	-83.923	-0.305	-0.096
-158.735	800.000	-0.083	-0.243
-157.720	-90.470	-0.330	-0.094
-156.706	39.929	0.148	-0.131
-155.691	-114.842	-0.620	0.117
-154.677	-191.112	-0.882	-0.009
-153.662	58.249	-0.710	0.686
-152.647	800.000	-0.199	0.619
-151.633	-91.332	-0.553	-0.156
-150.618	-110.667	-0.362	0.074
-149.604	-200.000	-0.021	0.904
-148.589	1.267	0.522	0.369
-147.574	35.811	0.458	-0.397
-146.560	-200.000	0.004	-0.236
-145.545	-152.103	0.351	-0.025
-144.531	-82.569	0.246	-0.079
-143.516	-70.516	-0.834	-0.311
-142.502	-41.569	0.561	-0.284
-141.487	-200.000	0.086	-0.462
-140.472	800.000	-0.154	0.439
-139.458	-200.000	0.031	-0.226
-138.443	-56.666	0.653	-0.285
-137.429	-200.000	0.232	1.027
-136.414	393.158	0.312	-0.641
-135.399	-104.690	-0.500	-0.113
-134.385	-200.000	0.021	0.447
-133.370	-200.000	0.074	0.468
-132.356	-200.000	0.008	0.141
-131.341	-153.559	0.245	-0.017
-130.326	-7.796	-0.407	-0.271
-129.312	-9.629	-0.492	-0.323
-128.297	-101.739	-0.263	-0.063
-127.283	-61.503	-0.699	-0.289
-126.268	-53.934	-0.688	-0.309
-125.253	800.000	0.075	-0.280
-124.239	-120.594	-1.274	-0.213
-123.224	-25.881	-0.513	-0.298
-122.210	-200.000	-0.030	-0.414
-121.195	50.017	-0.225	0.209
-120.180	237.196	0.234	-0.381
-119.166	-200.000	0.012	0.167
-118.151	13.529	-0.269	-0.206
-117.137	347.765	-0.369	-0.717
-116.122	251.386	-0.571	0.957
-115.107	800.000	0.091	-0.283
-114.093	81.159	0.138	-0.147
-113.078	-200.000	0.057	-0.678
-112.064	-53.864	-0.086	-0.038
-111.049	-200.000	0.024	-1.116
-110.034	184.047	0.212	-0.308
-109.020	-37.375	-0.451	0.237
-108.005	-30.422	-0.391	-0.218
-106.991	-200.000	0.060	0.522
-105.976	242.822	0.082	0.135
-104.962	107.447	0.440	-0.515
-103.947	-49.958	0.213	0.100
-102.932	-164.701	-0.214	-0.010
-101.918	8.841	-0.304	0.226
-100.903	52.635	0.107	-0.101
-99.889	800.000	-0.114	0.413
-98.874	-200.000	-0.125	0.631
-97.859	-42.800	-0.362	-0.181
-96.845	373.530	-0.254	0.509
-95.830	-151.535	-0.923	-0.067
-94.816	-200.000	-0.114	-0.566
-93.801	8.807	0.049	0.037
-92.786	173.970	-0.335	0.477
-91.772	-28.937	-1.106	-0.625
-90.757	137.684	0.575	0.740
-89.743	43.534	-0.516	-0.464
-88.728	-168.760	-0.762	0.028
-87.713	26.226	0.333	-0.273
-86.699	-200.000	-0.046	-0.980
-85.684	297.078	0.220	-0.397
-84.670	97.187	-0.476	0.537
-83.655	-70.287	-0.064	0.024
-82.640	25.872	-0.773	0.634
-81.626	800.000	-0.360	-1.472
-80.611	83.768	0.159	0.171
-79.597	-111.280	0.369	-0.074
-78.582	-200.000	0.057	-0.380
-77.567	-23.857	1.216	-0.716
-76.553	800.000	-0.086	-0.267
-75.538	-95.185	0.464	-0.123
-74.524	-200.000	-0.011	-0.062
-73.509	-1.743	-0.238	-0.165
-72.494	-86.020	0.777	-0.236
-71.480	-33.920	0.394	-0.213
-70.465	-200.000	-0.035	-0.426
-69.451	-200.000	-0.080	0.655
-68.436	296.090	-0.443	-0.799
-67.422	-78.801	0.241	-0.081
-66.407	202.109	0.659	0.999
-65.392	362.318	0.226	-0.446
-64.378	111.581	-0.659	0.782
-63.363	101.521	0.167	0.191
-62.349	363.656	-0.330	0.651
-61.334	23.335	-0.809	-0.653
-60.319	-200.000	-0.004	0.315
-59.305	197.309	-0.584	-0.876
-58.290	-11.288	0.943	0.610
-57.276	216.368	1.035	1.618
-56.261	-200.000	95.561	571.201
-55.246	652.548	1365.545	3439.319
-54.232	200.657	2541.862	3839.430
-53.217	113.416	2255.882	2690.083
-52.203	42.593	1883.976	1684.452
-51.188	36.664	1674.947	1453.134
-50.173	34.000	1630.954	1395.390
-49.159	52.392	1680.493	1575.119
-48.144	53.091	1697.394	1596.105
-47.130	36.106	1657.542	1433.661
-46.115	33.106	1643.100	1398.946
-45.100	33.186	1636.942	1394.242
-44.086	32.935	1635.376	1391.002
-43.071	33.122	1632.328	1389.729
-42.057	33.141	1629.408	1387.329
-41.042	33.150	1628.591	1386.644
-40.027	33.243	1625.581	1384.701
-39.013	33.053	1623.490	1381.482
-37.998	33.133	1621.507	1380.323
-36.984	33.142	1621.440	1380.278
-35.969	33.190	1619.916	1379.270
-34.954	33.103	1618.412	1377.305
-33.940	33.121	1615.938	1375.274
-32.925	33.190	1614.384	1374.396
-31.911	33.328	1612.211	1373.493
-30.896	33.277	1610.299	1371.444
-29.881	33.241	1610.171	1371.020
-28.867	33.356	1607.537	1369.551
-27.852	33.197	1606.315	1367.308
-26.838	33.214	1604.679	1365.986
-25.823	33.393	1602.501	1365.368
-24.809	33.554	1601.501	1365.619
-23.794	33.445	1599.422	1363.007
-22.779	33.431	1597.979	1361.622
-21.765	33.295	1597.468	1360.156
-20.750	33.401	1594.858	1358.645
-19.736	33.125	1594.869	1356.618
-18.721	33.210	1593.027	1355.607
-17.706	33.353	1591.397	1355.189
-16.692	33.239	1590.440	1353.508
-15.677	33.238	1588.300	1351.622
-14.663	33.221	1586.925	1350.280
-13.648	33.177	1586.385	1349.454
-12.633	32.962	1584.724	1346.450
-11.619	33.144	1583.053	1346.278
-10.604	33.236	1581.591	1345.635
-9.590	33.333	1579.489	1344.481
-8.575	33.500	1578.450	1344.726
-7.560	33.254	1576.959	1341.656
-6.546	33.293	1576.294	1341.319
-5.531	33.409	1574.464	1340.525
-4.517	33.147	1574.097	1338.311
-3.502	33.150	1573.015	1337.353
-2.487	33.308	1571.166	1336.846
-1.473	32.868	1559.625	1323.887
-0.458	30.073	1540.389	1288.111
0.556	27.145	1540.190	1254.468
1.571	24.832	1561.425	1255.443
2.586	24.265	1574.874	1262.130
3.600	21.636	1522.226	1201.813
4.615	12.487	1414.542	1058.080
5.629	4.397	1348.477	958.775
6.644	2.972	1340.929	944.567
7.659	2.999	1338.412	942.879
8.673	2.995	1337.975	942.464
9.688	2.874	1335.706	940.044
10.702	2.361	1333.527	935.286
11.717	6.136	1338.850	962.076
12.731	15.582	1358.021	1034.165
13.746	23.702	1368.336	1092.081
14.761	25.269	1371.984	1104.548
15.775	25.294	1371.642	1104.328
16.790	25.246	1372.578	1104.686
17.804	25.546	1370.988	1105.157
18.819	26.002	1370.219	1107.240
19.834	25.801	1369.618	1105.420
20.848	26.092	1368.330	1106.064
21.863	25.781	1368.091	1103.870
22.877	25.803	1367.416	1103.361
23.892	25.659	1366.575	1101.704
24.907	25.966	1365.370	1102.512
25.921	26.036	1364.369	1102.038
26.936	25.873	1363.505	1100.242
27.950	26.035	1362.493	1100.317
28.965	25.876	1361.482	1098.437
29.980	26.057	1359.622	1097.938
30.994	25.790	1360.118	1096.618
32.009	25.937	1357.565	1095.354
33.023	26.064	1355.409	1094.290
34.038	25.706	1356.749	1093.099
35.053	25.987	1355.283	1093.525
36.067	25.876	1353.608	1091.408
37.082	25.759	1353.339	1090.383
38.096	25.704	1352.813	1089.529
39.111	25.796	1351.879	1089.241
40.126	25.834	1350.762	1088.471
41.140	25.620	1351.270	1087.493
42.155	25.755	1350.968	1087.967
43.169	25.925	1350.517	1088.536
44.184	26.008	1349.926	1088.466
45.199	26.252	1348.517	1088.705
46.213	25.970	1348.556	1086.938
47.228	25.725	1347.844	1084.789
48.242	25.962	1346.148	1084.756
49.257	25.981	1344.219	1083.222
50.271	25.954	1342.567	1081.630
51.286	26.006	1341.841	1081.263
52.301	25.757	1341.060	1079.043
53.315	25.972	1340.915	1080.123
54.330	25.988	1339.844	1079.258
55.344	25.962	1337.564	1077.168
56.359	26.064	1336.793	1077.065
57.374	26.077	1336.331	1076.672
58.388	26.105	1335.234	1075.863
59.403	26.091	1335.142	1075.608
60.417	25.823	1334.471	1073.376
61.432	25.883	1333.921	1073.194
62.447	26.082	1332.213	1072.909
63.461	26.122	1331.159	1072.207
64.476	26.155	1330.541	1071.806
65.490	25.826	1329.554	1068.967
66.505	26.082	1326.609	1068.021
67.520	25.955	1326.872	1067.387
68.534	25.980	1326.070	1066.795
69.549	25.950	1325.114	1065.753
70.563	26.276	1323.209	1066.049
71.578	26.170	1322.153	1064.482
72.593	26.032	1322.006	1063.454
73.607	25.923	1320.644	1061.624
74.622	26.090	1320.648	1062.517
75.636	26.141	1320.092	1062.272
76.651	26.248	1318.995	1061.927
77.666	25.938	1318.389	1059.522
78.680	26.005	1318.193	1059.667
79.695	26.043	1317.281	1059.060
80.709	26.161	1314.713	1057.595
81.724	26.193	1314.924	1057.856
82.739	26.335	1314.809	1058.505
83.753	25.999	1313.496	1055.385
84.768	26.176	1311.678	1054.864
85.782	26.349	1309.354	1053.910
86.797	26.273	1307.824	1052.147
87.812	26.474	1307.027	1052.580
88.826	26.201	1307.297	1051.114
89.841	26.188	1305.590	1049.578
90.855	26.292	1305.392	1049.925
91.870	26.154	1303.348	1047.393
92.884	26.142	1303.795	1047.588
93.899	26.382	1301.592	1047.115
94.914	26.477	1301.132	1047.199
95.928	25.981	1300.835	1043.999
96.943	26.479	1299.272	1045.528
97.957	26.352	1299.241	1044.679
98.972	26.440	1298.009	1044.103
99.987	25.803	1298.506	1040.730
101.001	26.257	1295.147	1040.561
102.016	26.321	1294.963	1040.691
103.030	26.302	1294.597	1040.198
104.045	26.094	1293.527	1038.047
105.060	25.936	1293.451	1036.986
106.074	26.291	1291.799	1037.607
107.089	26.336	1291.398	1037.456
108.103	26.360	1288.584	1035.237
109.118	26.321	1288.425	1034.798
110.133	26.365	1286.656	1033.538
111.147	26.489	1285.703	1033.390
112.162	26.353	1284.738	1031.745
113.176	26.468	1283.766	1031.530
114.191	26.562	1282.507	1030.961
115.206	26.434	1281.551	1029.374
116.220	26.289	1281.198	1028.171
117.235	26.398	1279.806	1027.584
118.249	26.427	1279.476	1027.391
119.264	26.487	1277.801	1026.296
120.279	26.516	1276.583	1025.392
121.293	26.172	1277.317	1023.940
122.308	26.292	1275.513	1023.083
123.322	26.489	1273.954	1022.860
124.337	26.271	1274.324	1021.828
125.352	26.779	1271.541	1022.375
126.366	26.539	1271.312	1020.746
127.381	26.490	1271.146	1020.249
128.395	26.532	1269.249	1018.869
129.410	26.730	1268.296	1019.129
130.424	26.483	1268.272	1017.627
131.439	26.319	1267.218	1015.772
132.454	26.376	1266.745	1015.623
133.468	26.479	1265.595	1015.188
134.483	26.595	1264.248	1014.670
135.497	26.343	1264.150	1013.090
136.512	26.488	1262.567	1012.540
137.527	26.697	1261.307	1012.608
138.541	26.592	1260.275	1011.107
139.556	26.398	1258.803	1008.756
140.570	26.468	1259.058	1009.259
141.585	26.352	1257.727	1007.458
142.600	26.601	1255.473	1006.944
143.614	26.543	1254.879	1006.061
144.629	26.621	1254.115	1005.789
145.643	26.220	1253.977	1003.363
146.658	26.387	1251.568	1002.275
147.673	26.700	1250.392	1002.978
148.687	26.491	1250.601	1001.898
149.702	26.415	1249.165	1000.239
150.716	26.411	1248.755	999.799
151.731	26.655	1247.925	1000.392
152.746	26.507	1246.664	998.476
153.760	26.393	1245.974	997.211
154.775	26.723	1243.276	996.777
155.789	26.824	1242.668	996.754
156.804	26.561	1242.069	994.745
157.819	26.639	1241.330	994.488
158.833	26.632	1241.453	994.464
159.848	26.671	1240.587	993.897
160.862	26.569	1239.530	992.404
161.877	26.638	1238.767	992.082
162.892	26.825	1238.283	992.631
163.906	26.774	1236.108	990.517
164.921	26.845	1236.092	990.805
165.935	26.830	1235.001	989.762
166.950	26.565	1234.779	988.052
167.964	26.717	1235.102	989.052
168.979	26.627	1233.958	987.556
169.994	26.712	1232.988	987.155
171.008	26.617	1232.860	986.449
172.023	26.655	1232.091	985.955
173.037	26.895	1230.861	986.189
174.052	26.633	1230.490	984.377
175.067	26.664	1229.627	983.766
176.081	26.744	1229.481	984.000
177.096	26.897	1227.673	983.296
178.110	27.090	1226.314	983.163
179.125	26.787	1226.210	981.356
180.140	27.097	1224.154	981.295
181.154	26.658	1224.166	978.847
182.169	26.748	1222.569	977.971
183.183	27.088	1221.410	978.788
184.198	26.650	1221.359	976.301
185.213	26.754	1221.003	976.490
186.227	26.903	1219.789	976.233
187.242	26.963	1217.570	974.694
188.256	26.820	1217.114	973.475
189.271	27.003	1217.193	974.432
190.286	27.227	1215.438	974.145
191.300	27.160	1215.187	973.500
192.315	26.973	1214.989	972.250
193.329	26.880	1215.135	971.781
194.344	27.088	1213.051	971.142
195.359	27.086	1213.554	971.450
196.373	26.882	1212.883	969.734
197.388	26.857	1212.737	969.400
198.402	27.133	1211.816	970.054
199.417	26.835	1210.923	967.659
200.432	26.860	1211.770	968.388
201.446	26.987	1210.428	967.905
202.461	26.860	1210.010	966.808
203.475	27.124	1208.774	967.141
204.490	26.899	1208.496	965.636
205.504	27.189	1206.569	965.549
206.519	27.023	1205.600	963.808
207.534	27.060	1205.475	963.821
208.548	27.118	1204.265	963.072
209.563	27.294	1202.744	962.703
210.577	27.084	1202.586	961.383
211.592	27.197	1200.886	960.534
212.607	27.195	1200.884	960.439
213.621	27.299	1201.232	961.180
214.636	27.161	1200.353	959.662
215.650	27.329	1198.510	958.991
216.665	27.232	1197.325	957.448
217.680	27.059	1197.690	956.741
218.694	27.142	1195.638	955.455
219.709	27.349	1195.291	956.180
220.723	27.237	1195.597	955.753
221.738	27.000	1195.802	954.586
222.753	27.284	1193.396	954.072
223.767	27.013	1193.389	952.557
224.782	27.393	1192.095	953.431
225.796	27.377	1191.817	953.039
226.811	27.025	1191.792	951.092
227.826	27.233	1191.361	951.756
228.840	27.211	1191.049	951.305
229.855	27.074	1189.020	948.886
230.869	27.201	1188.898	949.366
231.884	26.997	1188.738	948.090
232.899	26.929	1187.425	946.607
233.913	27.005	1187.217	946.750
234.928	27.275	1185.755	946.910
235.942	27.535	1185.193	947.729
236.957	27.212	1185.598	946.287
237.972	27.314	1184.721	946.032
238.986	26.980	1183.777	943.460
240.001	27.278	1182.908	944.234
241.015	27.357	1182.609	944.317
242.030	27.284	1181.485	942.962
243.045	27.258	1181.066	942.409
244.059	27.429	1180.225	942.540
245.074	27.205	1180.057	941.163
246.088	27.397	1178.281	940.652
247.103	27.239	1177.630	939.233
248.117	27.596	1177.162	940.623
249.132	27.203	1176.743	938.174
250.147	27.478	1175.179	938.261
251.161	27.313	1175.309	937.431
252.176	27.519	1174.540	937.795
253.190	27.501	1172.875	936.295
254.205	27.624	1172.702	936.702
255.220	27.575	1171.921	935.747
256.234	27.368	1171.389	934.174
257.249	27.689	1170.769	935.242
258.263	27.665	1170.107	934.507
259.278	27.451	1170.048	933.285
260.293	27.605	1170.007	933.955
261.307	27.224	1169.413	931.447
262.322	27.368	1169.713	932.344
263.336	27.476	1167.518	931.066
264.351	27.464	1167.399	930.824
265.366	27.169	1167.197	929.075
266.380	27.295	1166.190	928.833
267.395	27.181	1165.031	927.246
268.409	27.226	1165.621	927.864
269.424	27.350	1165.096	927.999
270.439	27.621	1164.306	928.667
271.453	27.441	1162.404	926.153
272.468	27.417	1162.079	925.687
273.482	27.353	1161.573	924.880
274.497	27.436	1161.065	924.812
275.512	27.349	1160.896	924.156
276.526	27.472	1159.789	923.814
277.541	27.614	1159.462	924.192
278.555	27.533	1158.242	922.731
279.570	27.502	1156.847	921.377
280.585	27.681	1155.866	921.419
281.599	27.707	1155.681	921.324
282.614	27.565	1155.532	920.404
283.628	27.248	1154.042	917.536
284.643	27.296	1153.881	917.572
285.657	27.361	1152.790	916.952
286.672	27.377	1152.023	916.342
287.687	27.487	1150.949	915.956
288.701	27.581	1150.034	915.622
289.716	27.398	1150.127	914.696
290.730	27.418	1149.413	914.143
291.745	27.345	1148.355	912.856
292.760	27.379	1147.738	912.457
293.774	27.445	1148.151	913.035
294.789	27.593	1147.314	913.032
295.803	27.540	1146.385	911.947
296.818	27.395	1145.839	910.703
297.833	27.249	1145.517	909.639
298.847	27.669	1143.508	910.058
299.862	27.571	1143.009	909.089
300.876	27.641	1142.704	909.118
301.891	27.435	1141.525	907.075
302.906	27.522	1141.360	907.292
303.920	27.667	1140.137	906.965
304.935	27.572	1139.921	906.239
305.949	27.681	1138.881	905.872
306.964	27.513	1138.968	905.030
307.979	27.705	1138.435	905.477
308.993	27.618	1137.835	904.490
310.008	27.446	1137.272	903.105
311.022	27.369	1137.452	902.792
312.037	27.363	1135.857	901.412
313.052	27.749	1134.555	902.211
314.066	27.430	1133.703	899.878
315.081	27.442	1132.654	899.026
316.095	27.649	1132.050	899.483
317.110	27.423	1132.321	898.504
318.125	27.268	1131.579	897.074
319.139	27.575	1130.614	897.739
320.154	27.448	1129.822	896.409
321.168	27.227	1130.096	895.459
322.183	27.641	1129.008	896.555
323.197	27.579	1128.514	895.778
324.212	27.778	1127.350	895.751
325.227	27.779	1126.665	895.132
326.241	27.592	1126.877	894.304
327.256	27.971	1125.201	894.750
328.270	27.836	1124.079	893.116
329.285	27.444	1123.832	890.927
330.300	27.321	1123.790	890.211
331.314	27.440	1123.543	890.518
332.329	27.741	1121.166	890.026
333.343	27.610	1121.133	889.281
334.358	27.657	1121.552	889.762
335.373	27.912	1119.877	889.600
336.387	27.778	1118.528	887.797
337.402	27.566	1118.852	886.943
338.416	27.629	1117.794	886.332
339.431	27.706	1116.099	885.282
340.446	27.659	1116.717	885.466
341.460	27.747	1114.827	884.317
342.475	27.866	1114.005	884.162
343.489	27.933	1114.042	884.439
344.504	27.846	1112.874	883.013
345.519	27.821	1112.157	882.243
346.533	27.610	1112.955	881.780
347.548	27.398	1111.645	879.638
348.562	27.571	1110.263	879.304
349.577	27.474	1109.818	878.405
350.592	27.546	1109.430	878.367
351.606	27.897	1107.869	878.740
352.621	27.757	1107.358	877.583
353.635	27.694	1107.644	877.430
354.650	27.511	1106.937	875.913
355.665	27.573	1105.767	875.210
356.679	27.733	1104.927	875.236
357.694	27.899	1104.091	875.290
358.708	27.654	1104.370	874.256
359.723	27.743	1103.262	873.730
360.738	27.767	1102.620	873.260
361.752	27.488	1102.672	871.887
362.767	27.539	1101.406	871.055
363.781	27.851	1100.525	871.772
364.796	28.005	1100.662	872.537
365.810	27.901	1099.613	871.133
366.825	27.777	1098.983	869.963
367.840	27.879	1098.180	869.737
368.854	27.804	1098.112	869.249
369.869	27.583	1097.752	867.833
370.883	27.787	1096.318	867.598
371.898	27.833	1096.095	867.558
372.913	27.580	1095.513	865.823
373.927	27.730	1094.656	865.779
374.942	27.770	1094.449	865.728
375.956	27.757	1093.523	864.858
376.971	27.806	1092.908	864.529
377.986	27.748	1092.559	863.900
379.000	27.759	1092.118	863.526
380.015	27.791	1090.724	862.499
381.029	27.733	1090.535	862.000
382.044	28.014	1089.626	862.530
383.059	27.684	1090.245	861.389
384.073	27.746	1089.707	861.178
385.088	27.979	1087.770	860.667
386.102	27.715	1087.186	858.885
387.117	27.565	1086.401	857.484
388.132	27.654	1085.490	857.108
389.146	27.696	1084.703	856.610
390.161	27.727	1084.639	856.630
391.175	27.668	1083.340	855.248
392.190	28.125	1081.545	855.896
393.205	27.792	1082.574	855.075
394.219	27.717	1081.532	853.824
395.234	27.850	1080.187	853.309
396.248	27.616	1079.710	851.762
397.263	27.785	1078.611	851.609
398.278	27.944	1077.969	851.769
399.292	27.582	1078.516	850.438
400.307	27.855	1077.197	850.595
401.321	27.738	1076.089	849.100
402.336	27.573	1076.357	848.467
403.350	27.855	1075.544	849.061
404.365	27.818	1074.794	848.225
405.380	27.656	1073.414	846.307
406.394	27.500	1073.368	845.473
407.409	27.871	1071.835	845.910
408.423	27.808	1071.523	845.298
409.438	27.690	1070.776	844.086
410.453	27.927	1069.683	844.248
411.467	27.977	1068.470	843.443
412.482	27.435	1069.146	841.401
413.496	27.780	1069.401	843.121
414.511	27.697	1068.323	841.811
415.526	27.809	1067.166	841.345
416.540	27.678	1067.170	840.669
417.555	27.789	1066.020	840.200
418.569	27.935	1064.604	839.681
419.584	27.769	1064.906	839.080
420.599	27.869	1064.350	839.026
421.613	152.390	1404.244	1793.029
422.628	140.144	1453.817	1793.120
