DTS Sentinel unit serial number:	SN413079Multiplexer serial number:	ORYXHardware model number:	OX4-SRSoftware version number:	ORYX F/W v4.00 Oryx Data Collector v3.7.2.0data status	okinstallation	princeton_trtdifferential loss correction	single-endedforward channel	channel 2reverse channel	N/Adate	2019/09/11time	20:17:11forward acquisition time	60.00reverse acquisition time	0.00gamma	496.2192k internal	0.2317k external	0.2317temperature offset calibration	1.0050default loss term (dB/km)	0.3790temperature slope calibration	1.0000multiplexer offset coefficient	1.0000multiplexer slope coefficient	1.0000fibre end	0.00T internal ref (°C)	38.09T ext. ref 1 (°C)	1.45T ext. ref 2 (°C)	31.47length (m)	temperature (°C)	Stokes	anti-Stokes-747.200	223.585	-0.087	0.143
-746.185	-160.734	-0.176	0.009
-745.171	89.100	0.200	0.225
-744.156	55.555	0.257	0.252
-743.142	-15.961	-0.104	0.067
-742.127	-83.166	-0.148	-0.048
-741.112	-188.479	-0.388	-0.005
-740.098	-200.000	0.023	0.428
-739.083	-37.340	0.055	0.030
-738.069	-137.116	0.115	-0.013
-737.054	168.107	0.077	0.111
-736.039	112.300	-0.037	0.045
-735.025	-105.096	-0.103	-0.024
-734.010	577.685	0.054	-0.134
-732.996	4.470	0.136	0.101
-731.981	533.196	-0.045	-0.107
-730.966	-129.767	0.181	-0.025
-729.952	-200.000	0.021	-0.217
-728.937	-88.522	-0.211	-0.064
-727.923	-200.000	-0.002	-0.291
-726.908	-140.092	0.348	0.037
-725.894	-126.865	0.183	-0.027
-724.879	-74.332	0.155	0.057
-723.864	-87.614	-0.202	-0.062
-722.850	-71.418	0.035	0.013
-721.835	-126.156	-0.191	0.029
-720.821	99.024	-0.189	0.221
-719.806	-200.000	0.021	0.166
-718.791	-93.677	-0.162	0.045
-717.777	68.482	-0.233	-0.242
-716.762	800.000	-0.028	0.083
-715.748	9.971	0.121	0.093
-714.733	139.210	0.124	-0.165
-713.718	-57.933	-0.494	-0.218
-712.704	95.057	0.038	-0.044
-711.689	-38.572	0.317	0.169
-710.675	180.818	0.292	0.434
-709.660	-69.842	0.092	-0.035
-708.645	41.764	0.140	-0.128
-707.631	-39.247	0.253	-0.135
-706.616	-6.206	-0.171	0.118
-705.602	-200.000	-0.022	0.134
-704.587	168.737	0.015	0.021
-703.572	49.679	-0.400	0.381
-702.558	-200.000	-0.021	0.184
-701.543	-151.964	-0.377	0.028
-700.529	-200.000	0.002	-0.054
-699.514	800.000	-0.017	-0.048
-698.499	800.000	0.106	0.333
-697.485	-200.000	-0.132	-0.000
-696.470	-55.748	-0.120	-0.054
-695.456	164.591	0.142	-0.202
-694.441	205.249	0.215	-0.337
-693.426	69.427	0.106	-0.111
-692.412	-122.449	-0.438	-0.072
-691.397	585.248	-0.155	0.386
-690.383	-117.693	-0.311	-0.057
-689.368	800.000	-0.061	-0.193
-688.354	-46.937	0.223	-0.110
-687.339	262.867	-0.152	0.267
-686.324	-200.000	-0.010	-0.069
-685.310	-82.788	-0.129	0.042
-684.295	-200.000	0.002	-0.164
-683.281	123.843	-0.107	-0.136
-682.266	-1.579	-0.190	-0.135
-681.251	398.132	0.066	-0.140
-680.237	-4.088	-0.154	-0.108
-679.222	-200.000	-0.062	-0.483
-678.208	-200.000	0.029	-0.262
-677.193	217.437	-0.134	-0.216
-676.178	-10.452	0.103	-0.069
-675.164	-200.000	0.008	0.136
-674.149	-82.522	-0.071	-0.023
-673.135	-34.463	-0.211	-0.117
-672.120	-34.532	0.108	0.060
-671.105	-17.404	-0.195	0.124
-670.091	-52.747	-0.122	0.057
-669.076	800.000	-0.014	0.042
-668.062	362.943	0.045	-0.091
-667.047	17.153	-0.137	-0.110
-666.032	-106.722	-0.366	0.082
-665.018	226.604	-0.175	-0.286
-664.003	-82.911	0.070	-0.023
-662.989	800.000	0.062	0.230
-661.974	800.000	0.042	0.127
-660.959	42.060	0.129	-0.119
-659.945	-45.240	-0.150	0.075
-658.930	-52.240	0.300	0.140
-657.916	207.767	0.041	0.065
-656.901	295.603	-0.041	0.075
-655.886	561.401	-0.177	0.432
-654.872	578.542	0.075	0.184
-653.857	-200.000	-0.019	0.265
-652.843	232.873	-0.066	-0.109
-651.828	262.400	0.260	-0.454
-650.814	-200.000	0.033	-0.217
-649.799	-200.000	0.049	-0.290
-648.784	-200.000	-0.033	0.284
-647.770	0.023	0.046	0.033
-646.755	475.453	-0.061	0.139
-645.741	-14.614	0.064	0.042
-644.726	26.535	0.051	-0.043
-643.711	-103.248	0.249	0.059
-642.697	-51.680	0.359	0.169
-641.682	-118.596	-0.162	-0.029
-640.668	-180.598	0.324	-0.007
-639.653	24.325	-0.311	-0.259
-638.638	-89.420	0.175	-0.052
-637.624	-153.758	0.319	-0.022
-636.609	87.566	-0.087	0.097
-635.595	296.208	-0.024	0.044
-634.580	-200.000	-0.007	-0.147
-633.565	-200.000	0.005	0.036
-632.551	800.000	-0.047	0.161
-631.536	39.287	0.108	0.097
-630.522	204.729	0.045	0.070
-629.507	8.271	-0.312	-0.236
-628.492	-83.847	0.248	0.080
-627.478	-200.000	0.013	-0.090
-626.463	90.910	-0.110	0.125
-625.449	800.000	0.055	-0.195
-624.434	-200.000	-0.045	0.351
-623.419	800.000	0.056	-0.212
-622.405	-141.610	0.249	-0.025
-621.390	800.000	0.058	-0.199
-620.376	24.062	-0.193	-0.161
-619.361	-200.000	0.014	0.146
-618.346	139.778	-0.164	0.218
-617.332	-24.885	-0.113	-0.068
-616.317	192.792	0.016	0.024
-615.303	165.819	-0.132	0.189
-614.288	153.948	0.072	-0.099
-613.273	-200.000	0.041	-0.352
-612.259	47.854	-0.174	-0.164
-611.244	41.862	-0.124	0.113
-610.230	107.063	-0.164	-0.196
-609.215	-160.666	-0.091	0.005
-608.201	-200.000	-0.026	-0.299
-607.186	153.917	-0.054	0.075
-606.171	145.531	-0.193	-0.260
-605.157	-68.731	0.131	-0.051
-604.142	88.229	-0.198	-0.221
-603.128	-88.799	-0.468	0.140
-602.113	134.674	-0.244	0.319
-601.098	-130.117	-0.163	-0.022
-600.084	40.948	0.089	0.081
-599.069	19.500	-0.055	0.045
-598.055	-140.232	-0.163	-0.017
-597.040	299.736	0.142	-0.264
-596.025	113.139	-0.060	0.073
-595.011	-51.748	-0.128	0.060
-593.996	440.911	0.070	-0.155
-592.982	143.339	0.203	0.272
-591.967	-137.169	-0.059	0.007
-590.952	800.000	0.037	0.114
-589.938	166.947	-0.252	-0.360
-588.923	-116.573	0.409	0.076
-587.909	37.705	0.109	-0.097
-586.894	-104.688	0.128	-0.030
-585.879	-60.771	-0.056	0.024
-584.865	25.516	0.058	-0.049
-583.850	-118.833	-0.105	-0.019
-582.836	245.906	0.101	0.170
-581.821	138.968	-0.084	-0.112
-580.806	-3.929	0.281	-0.196
-579.792	800.000	-0.042	-0.157
-578.777	-130.716	-0.226	0.031
-577.763	18.939	0.013	0.010
-576.748	14.653	-0.290	-0.228
-575.733	-104.561	0.224	-0.052
-574.719	-108.947	-0.203	0.044
-573.704	117.969	-0.235	-0.291
-572.690	21.299	0.188	-0.154
-571.675	8.904	-0.146	-0.111
-570.661	-92.269	0.391	-0.111
-569.646	-72.535	-0.292	-0.108
-568.631	407.948	-0.061	0.131
-567.617	800.000	-0.087	-0.354
-566.602	26.690	0.248	-0.209
-565.588	-76.831	0.084	-0.030
-564.573	14.504	0.134	0.105
-563.558	-63.833	0.128	0.053
-562.544	-90.673	-0.208	0.060
-561.529	-200.000	-0.034	0.161
-560.515	-34.911	-0.085	-0.047
-559.500	-102.584	-0.286	0.069
-558.485	-51.683	0.160	-0.075
-557.471	-69.707	0.112	-0.043
-556.456	-200.000	0.009	-0.043
-555.442	-200.000	-0.043	0.313
-554.427	-126.220	-0.355	-0.053
-553.412	778.975	-0.023	0.062
-552.398	-51.476	-0.137	-0.064
-551.383	-200.000	-0.039	0.190
-550.369	-101.080	0.347	0.086
-549.354	120.490	-0.085	0.106
-548.339	-85.070	-0.195	-0.061
-547.325	-200.000	0.008	-0.119
-546.310	-61.947	0.272	-0.114
-545.296	800.000	-0.085	0.240
-544.281	-200.000	0.002	-0.162
-543.266	67.290	-0.068	-0.070
-542.252	-147.333	0.518	-0.044
-541.237	800.000	-0.054	-0.178
-540.223	800.000	0.027	-0.108
-539.208	-109.977	-0.053	-0.011
-538.193	54.871	-0.202	0.196
-537.179	-9.917	-0.103	-0.069
-536.164	120.473	-0.260	0.324
-535.150	-120.237	-0.188	0.032
-534.135	-106.074	0.240	0.054
-533.121	-200.000	-0.022	-0.156
-532.106	-187.563	-0.177	0.002
-531.091	800.000	0.076	-0.256
-530.077	42.586	0.103	0.094
-529.062	-200.000	-0.071	-0.403
-528.048	-176.931	-0.369	-0.009
-527.033	-153.066	-0.580	-0.041
-526.018	-66.219	-0.093	-0.037
-525.004	467.628	-0.079	-0.178
-523.989	-164.312	0.168	-0.008
-522.975	-126.583	0.406	-0.060
-521.960	-200.000	-0.037	0.201
-520.945	-183.445	0.309	-0.005
-519.931	-15.105	-0.205	-0.132
-518.916	402.189	-0.181	-0.382
-517.902	-200.000	0.217	0.000
-516.887	201.657	-0.055	0.084
-515.872	800.000	-0.038	0.109
-514.858	578.473	-0.022	-0.054
-513.843	-103.437	-0.239	0.056
-512.829	800.000	-0.047	-0.199
-511.814	-54.685	-0.236	0.107
-510.799	800.000	-0.043	0.128
-509.785	-49.535	0.134	0.064
-508.770	-200.000	-0.034	-0.152
-507.756	321.267	-0.092	-0.176
-506.741	179.918	-0.077	0.113
-505.726	1.605	0.511	0.369
-504.712	-76.170	0.449	0.159
-503.697	-128.618	-0.221	-0.031
-502.683	-200.000	0.000	0.191
-501.668	-83.341	-0.079	0.025
-500.653	-87.755	-0.132	0.040
-499.639	-200.000	-0.010	0.118
-498.624	-107.356	0.479	-0.106
-497.610	19.005	-0.242	-0.195
-496.595	344.443	-0.123	0.242
-495.581	-127.328	-0.129	0.019
-494.566	-121.220	0.154	-0.026
-493.551	103.602	-0.154	-0.181
-492.537	266.502	-0.036	0.064
-491.522	-94.809	0.437	-0.119
-490.508	36.325	0.230	-0.204
-489.493	-32.838	0.270	-0.150
-488.478	-138.577	0.193	-0.021
-487.464	50.456	-0.286	-0.271
-486.449	730.506	0.131	-0.350
-485.435	-36.286	-0.251	0.136
-484.420	-20.162	0.332	0.205
-483.405	370.810	-0.053	-0.108
-482.391	-46.308	0.173	-0.085
-481.376	800.000	-0.062	0.195
-480.362	50.501	-0.332	-0.315
-479.347	36.715	0.075	0.066
-478.332	-200.000	-0.045	0.243
-477.318	35.491	-0.130	0.114
-476.303	-109.066	0.315	0.067
-475.289	11.419	0.149	-0.115
-474.274	-82.516	0.217	0.071
-473.259	-200.000	0.053	0.394
-472.245	-82.175	-0.350	0.114
-471.230	144.672	-0.048	-0.064
-470.216	-62.696	-0.036	-0.015
-469.201	-146.118	0.312	0.028
-468.186	495.522	-0.060	-0.139
-467.172	46.001	-0.259	0.240
-466.157	-200.000	-0.024	0.108
-465.143	24.661	0.368	-0.306
-464.128	-200.000	-0.054	0.263
-463.113	18.524	-0.211	-0.169
-462.099	-200.000	-0.127	-0.001
-461.084	-18.878	-0.255	-0.159
-460.070	474.269	-0.010	-0.022
-459.055	-33.876	0.122	0.067
-458.040	-188.922	-0.156	0.002
-457.026	15.925	0.226	0.178
-456.011	178.768	0.213	-0.312
-454.997	520.358	-0.071	0.166
-453.982	625.885	-0.115	-0.290
-452.968	365.081	0.160	-0.323
-451.953	181.855	-0.102	0.151
-450.938	-48.085	0.190	-0.092
-449.924	425.178	-0.097	0.208
-448.909	-47.903	0.283	0.137
-447.895	140.394	0.187	0.247
-446.880	480.625	-0.131	-0.297
-445.865	-139.639	0.358	-0.038
-444.851	-81.262	-0.204	0.067
-443.836	-200.000	-0.024	-0.229
-442.822	-200.000	-0.065	0.457
-441.807	34.846	0.198	0.174
-440.792	-5.236	-0.080	-0.055
-439.778	-23.902	0.292	0.175
-438.763	96.459	-0.006	-0.007
-437.749	-7.585	-0.134	-0.091
-436.734	800.000	0.009	0.034
-435.719	800.000	-0.059	-0.200
-434.705	-7.783	-0.260	-0.176
-433.690	606.374	-0.072	-0.179
-432.676	-92.275	-0.275	-0.078
-431.661	202.727	-0.111	-0.171
-430.646	800.000	-0.094	0.388
-429.632	120.650	-0.047	-0.059
-428.617	156.388	-0.068	0.094
-427.603	-103.040	-0.229	0.054
-426.588	-77.238	-0.186	0.065
-425.573	800.000	-0.050	-0.147
-424.559	538.037	0.157	-0.373
-423.544	304.585	0.118	0.218
-422.530	-99.976	-0.094	-0.023
-421.515	-136.377	0.076	0.009
-420.500	-158.242	0.124	0.007
-419.486	-200.000	0.082	-0.378
-418.471	104.530	0.060	-0.071
-417.457	-200.000	-0.059	-0.291
-416.442	-29.024	-0.296	0.170
-415.428	-59.514	-0.168	0.072
-414.413	-78.192	0.168	0.058
-413.398	48.542	-0.116	-0.109
-412.384	-200.000	-0.025	0.243
-411.369	-200.000	-0.014	0.247
-410.355	-200.000	0.003	-0.017
-409.340	205.146	0.194	-0.301
-408.325	-80.746	0.199	-0.066
-407.311	-60.737	-0.073	-0.031
-406.296	747.193	0.050	0.136
-405.282	-94.195	-0.200	0.055
-404.267	-75.705	0.081	0.029
-403.252	800.000	-0.099	0.304
-402.238	-200.000	-0.043	0.206
-401.223	-144.956	0.240	0.022
-400.209	-54.380	-0.090	-0.041
-399.194	84.746	-0.146	0.160
-398.179	238.961	0.037	0.062
-397.165	697.698	0.033	0.085
-396.150	800.000	0.064	-0.239
-395.136	202.443	0.173	-0.266
-394.121	-200.000	0.032	0.228
-393.106	-200.000	0.015	0.143
-392.092	185.193	0.145	-0.214
-391.077	800.000	0.102	0.298
-390.063	-62.407	-0.168	0.070
-389.048	-71.467	0.158	-0.059
-388.033	-200.000	-0.111	0.540
-387.019	-48.891	0.418	-0.200
-386.004	68.711	0.240	-0.246
-384.990	724.723	0.012	-0.033
-383.975	-200.000	-0.027	0.286
-382.960	-200.000	-0.006	-0.108
-381.946	-200.000	-0.013	0.258
-380.931	-200.000	0.009	0.044
-379.917	-51.645	-0.177	-0.082
-378.902	-117.343	0.332	0.060
-377.888	281.780	0.125	0.224
-376.873	-12.108	0.136	-0.089
-375.858	800.000	-0.095	0.352
-374.844	-76.249	0.160	0.056
-373.829	209.931	0.151	0.236
-372.815	-70.027	0.242	0.092
-371.800	86.165	0.122	-0.134
-370.785	-200.000	-0.013	0.292
-369.771	-200.000	-0.012	-0.202
-368.756	-48.463	0.223	0.107
-367.742	263.996	0.197	0.342
-366.727	-163.374	0.152	0.007
-365.712	-200.000	0.023	0.162
-364.698	-200.000	0.038	0.230
-363.683	-200.000	-0.039	0.295
-362.669	-196.300	0.243	-0.002
-361.654	800.000	-0.095	0.286
-360.639	-200.000	0.003	0.078
-359.625	-200.000	0.084	-0.378
-358.610	-49.264	-0.180	0.086
-357.596	-200.000	0.002	-0.126
-356.581	-1.879	-0.346	0.243
-355.566	-3.103	0.118	-0.082
-354.552	161.344	-0.028	-0.039
-353.537	-144.640	-0.029	-0.003
-352.523	48.463	-0.140	0.130
-351.508	800.000	-0.010	0.029
-350.493	-0.984	-0.152	0.107
-349.479	-200.000	0.161	-0.001
-348.464	481.644	-0.125	0.283
-347.450	98.217	0.120	0.138
-346.435	800.000	-0.087	-0.269
-345.420	-200.000	-0.014	-0.185
-344.406	581.522	-0.043	-0.105
-343.391	453.966	-0.027	-0.059
-342.377	52.478	0.137	0.130
-341.362	-163.554	-0.258	-0.012
-340.348	-200.000	0.022	-0.126
-339.333	-200.000	0.137	0.606
-338.318	-200.000	0.007	-0.101
-337.304	-38.821	-0.331	0.174
-336.289	160.033	-0.073	-0.101
-335.275	82.637	0.099	-0.107
-334.260	800.000	0.015	-0.060
-333.245	-60.238	-0.071	-0.030
-332.231	-75.443	-0.393	0.140
-331.216	-42.290	-0.249	-0.127
-330.202	800.000	0.042	-0.143
-329.187	-200.000	0.000	-0.053
-328.172	-200.000	0.001	-0.014
-327.158	589.817	-0.089	-0.218
-326.143	232.147	-0.255	-0.417
-325.129	-115.502	-0.081	-0.015
-324.114	-153.899	-0.339	0.023
-323.099	800.000	-0.018	0.053
-322.085	-6.810	0.294	0.199
-321.070	58.637	0.277	-0.271
-320.056	246.067	-0.100	0.168
-319.041	800.000	-0.072	0.215
-318.026	6.976	0.297	0.221
-317.012	-29.958	0.137	0.078
-315.997	187.154	-0.209	0.310
-314.983	800.000	-0.134	0.411
-313.968	-95.508	0.355	-0.095
-312.953	138.510	0.130	-0.170
-311.939	347.803	-0.124	0.244
-310.924	800.000	0.024	-0.072
-309.910	-112.902	0.362	-0.071
-308.895	23.870	-0.197	-0.162
-307.880	800.000	-0.070	-0.252
-306.866	-77.849	0.371	-0.128
-305.851	-200.000	-0.017	0.149
-304.837	193.469	-0.055	-0.083
-303.822	-9.106	0.209	-0.139
-302.807	800.000	-0.082	0.242
-301.793	683.188	-0.132	0.343
-300.778	-92.003	-0.085	0.024
-299.764	-133.222	-0.257	-0.032
-298.749	147.846	-0.255	-0.342
-297.735	-185.561	-0.356	-0.005
-296.720	-200.000	0.007	-0.384
-295.705	50.588	0.136	0.128
-294.691	78.833	-0.121	0.129
-293.676	299.408	0.055	-0.101
-292.662	247.905	0.109	-0.183
-291.647	444.723	-0.109	-0.237
-290.632	22.104	-0.072	0.058
-289.618	-63.805	0.156	-0.064
-288.603	152.539	0.048	0.065
-287.589	-70.393	0.219	0.083
-286.574	-41.913	0.116	-0.059
-285.559	-200.000	0.040	0.192
-284.545	55.036	0.136	-0.130
-283.530	-200.000	0.010	0.071
-282.516	-200.000	0.036	-0.249
-281.501	110.722	-0.177	0.212
-280.486	-141.164	-0.190	-0.019
-279.472	148.754	0.211	0.284
-278.457	-61.277	0.098	-0.041
-277.443	216.860	0.142	-0.225
-276.428	-67.482	-0.333	-0.130
-275.413	-112.588	0.279	0.055
-274.399	145.398	-0.046	0.061
-273.384	368.149	0.027	-0.054
-272.370	-3.030	0.088	0.061
-271.355	20.868	-0.052	0.042
-270.340	-82.487	0.167	0.054
-269.326	-46.522	0.173	0.084
-268.311	-200.000	0.012	-0.093
-267.297	-128.473	0.298	0.042
-266.282	-110.108	0.304	0.063
-265.267	204.266	-0.128	0.197
-264.253	800.000	-0.072	-0.202
-263.238	-31.147	0.139	0.078
-262.224	304.633	-0.158	0.292
-261.209	128.821	-0.164	-0.207
-260.195	15.463	-0.373	0.291
-259.180	-68.800	-0.051	0.020
-258.165	800.000	0.061	-0.260
-257.151	-41.474	0.179	-0.092
-256.136	-200.000	0.056	0.339
-255.122	-43.277	0.252	0.127
-254.107	-135.587	0.160	-0.019
-253.092	216.210	-0.043	-0.069
-252.078	10.658	0.141	-0.106
-251.063	-156.389	-0.245	0.015
-250.049	-200.000	-0.006	0.161
-249.034	-18.625	0.062	-0.038
-248.019	-200.000	-0.061	-0.329
-247.005	11.086	-0.211	0.161
-245.990	-27.058	0.175	0.101
-244.976	-127.275	0.393	-0.057
-243.961	-200.000	0.056	-0.331
-242.946	-200.000	-0.027	0.146
-241.932	-140.750	-0.078	0.008
-240.917	105.083	-0.022	0.025
-239.903	-200.000	-0.029	-0.132
-238.888	-50.176	-0.210	-0.099
-237.873	800.000	0.023	0.071
-236.859	-56.604	0.177	0.078
-235.844	-77.862	-0.110	-0.038
-234.830	-101.850	-0.277	0.066
-233.815	628.624	0.066	0.166
-232.800	356.640	-0.056	-0.110
-231.786	193.738	-0.293	0.440
-230.771	-78.498	-0.300	0.102
-229.757	199.939	-0.049	-0.074
-228.742	1.167	-0.279	-0.199
-227.727	-0.692	0.107	-0.076
-226.713	-200.000	0.014	0.144
-225.698	-117.359	0.233	-0.042
-224.684	314.530	-0.113	-0.212
-223.669	66.348	-0.289	-0.292
-222.655	-200.000	-0.032	-0.368
-221.640	37.979	0.119	-0.105
-220.625	-200.000	0.039	-0.423
-219.611	-100.572	0.320	-0.078
-218.596	-200.000	0.059	0.327
-217.582	-109.817	-0.237	0.049
-216.567	800.000	-0.111	-0.463
-215.552	-6.180	-0.190	-0.129
-214.538	15.847	-0.211	-0.164
-213.523	-135.396	-0.113	0.013
-212.509	-114.199	0.151	-0.029
-211.494	-200.000	-0.015	-0.176
-210.479	-148.455	0.156	-0.013
-209.465	119.897	-0.055	0.067
-208.450	716.324	-0.107	-0.283
-207.436	1.694	-0.236	0.168
-206.421	745.415	0.110	0.293
-205.406	-200.000	0.187	0.001
-204.392	-77.873	0.072	0.025
-203.377	-69.626	-0.267	0.101
-202.363	-200.000	-0.052	0.428
-201.348	800.000	0.102	-0.385
-200.333	-4.838	0.214	0.146
-199.319	84.394	0.055	-0.060
-198.304	-23.350	-0.301	-0.179
-197.290	102.381	-0.104	0.121
-196.275	13.756	0.144	0.111
-195.260	800.000	-0.081	0.224
-194.246	-200.000	-0.043	0.220
-193.231	-150.770	0.524	0.039
-192.217	495.399	-0.043	-0.099
-191.202	-200.000	-0.002	0.160
-190.187	487.201	-0.062	-0.141
-189.173	411.453	-0.116	-0.243
-188.158	344.779	-0.123	0.240
-187.144	-193.450	-0.103	0.001
-186.129	-200.000	-0.077	0.373
-185.114	800.000	0.041	-0.113
-184.100	-75.311	0.194	0.069
-183.085	-200.000	0.046	-0.355
-182.071	257.004	-0.042	0.072
-181.056	-200.000	-0.016	0.240
-180.042	28.001	0.335	0.280
-179.027	-17.145	-0.029	0.018
-178.012	27.926	0.130	0.109
-176.998	-200.000	-0.044	-0.327
-175.983	-81.418	-0.190	0.062
-174.969	-117.028	0.203	0.037
-173.954	800.000	0.096	-0.279
-172.939	-105.165	0.444	-0.100
-171.925	800.000	0.010	0.031
-170.910	24.224	-0.110	-0.090
-169.896	1.547	0.109	-0.078
-168.881	442.149	-0.072	0.156
-167.866	331.520	-0.038	-0.073
-166.852	407.237	0.104	-0.217
-165.837	-200.000	0.011	0.070
-164.823	-137.997	0.074	-0.008
-163.808	-160.774	-0.077	-0.004
-162.793	3.150	0.101	0.072
-161.779	29.760	-0.221	-0.187
-160.764	169.160	-0.116	-0.163
-159.750	-52.761	-0.087	-0.040
-158.735	637.867	-0.119	0.299
-157.720	-108.331	-0.074	0.016
-156.706	96.434	-0.086	0.097
-155.691	-60.736	-0.269	0.113
-154.677	-116.097	0.290	0.053
-153.662	-103.196	0.282	0.066
-152.647	710.842	0.072	0.190
-151.633	576.043	0.008	0.019
-150.618	-121.234	-0.104	0.017
-149.604	-115.342	-0.260	-0.049
-148.589	462.291	-0.172	-0.381
-147.574	-13.850	-0.200	-0.128
-146.560	800.000	0.062	-0.184
-145.545	382.164	0.037	0.075
-144.531	-89.029	-0.112	0.033
-143.516	193.376	0.123	0.184
-142.502	-96.453	0.104	0.027
-141.487	-81.943	-0.137	0.044
-140.472	76.165	-0.321	0.336
-139.458	116.297	0.087	0.106
-138.443	75.018	0.297	-0.310
-137.429	-101.542	-0.414	0.100
-136.414	-4.749	-0.098	-0.067
-135.399	800.000	0.036	-0.121
-134.385	-109.950	0.104	0.021
-133.370	7.732	-0.160	-0.119
-132.356	39.313	-0.064	-0.056
-131.341	-69.356	0.234	-0.089
-130.326	92.441	-0.089	-0.099
-129.312	42.003	0.052	-0.047
-128.297	-15.519	0.136	0.086
-127.283	279.518	0.202	0.357
-126.268	681.536	0.096	0.247
-125.253	441.709	-0.100	0.216
-124.239	24.254	0.219	-0.179
-123.224	308.404	-0.102	0.188
-122.210	136.744	-0.055	0.072
-121.195	800.000	0.074	-0.286
-120.180	187.682	0.076	0.113
-119.166	21.455	0.140	0.113
-118.151	27.721	0.102	-0.085
-117.137	-92.160	-0.272	-0.076
-116.122	-200.000	0.004	-0.094
-115.107	427.840	-0.132	0.281
-114.093	440.826	-0.127	0.274
-113.078	-200.000	0.031	-0.275
-112.064	-200.000	-0.008	-0.132
-111.049	127.396	0.060	0.075
-110.034	800.000	-0.155	-0.459
-109.020	-39.549	-0.204	-0.105
-108.005	-46.825	-0.116	0.056
-106.991	377.366	-0.139	0.280
-105.976	-28.624	0.048	-0.027
-104.962	-11.387	0.313	-0.203
-103.947	-200.000	0.022	-0.115
-102.932	800.000	0.054	0.185
-101.918	-200.000	-0.072	0.402
-100.903	176.618	0.091	0.131
-99.889	-180.439	0.109	-0.002
-98.874	-63.857	-0.064	-0.026
-97.859	47.267	0.106	-0.098
-96.845	-98.296	-0.104	0.026
-95.830	-200.000	-0.001	-0.349
-94.816	-15.321	0.272	0.172
-93.801	-6.202	-0.110	-0.074
-92.786	-151.259	0.104	0.008
-91.772	-11.000	0.156	-0.101
-90.757	-200.000	-0.019	0.159
-89.743	110.202	-0.083	-0.098
-88.728	274.240	0.048	-0.084
-87.713	100.061	0.072	-0.083
-86.699	209.731	0.042	0.064
-85.684	800.000	-0.074	0.267
-84.670	-132.760	0.044	0.006
-83.655	759.419	-0.029	-0.079
-82.640	-8.015	-0.086	0.057
-81.626	593.950	-0.066	-0.162
-80.611	653.197	-0.121	-0.306
-79.597	-200.000	-0.026	0.176
-78.582	105.970	-0.134	-0.156
-77.567	-139.018	-0.272	-0.029
-76.553	-200.000	-0.025	0.156
-75.538	22.395	0.218	0.176
-74.524	80.454	0.071	-0.076
-73.509	-200.000	0.021	-0.393
-72.494	436.220	0.022	-0.047
-71.480	-200.000	-0.048	0.211
-70.465	-200.000	-0.007	0.077
-69.451	261.058	0.063	-0.107
-68.436	-34.793	0.235	-0.127
-67.422	-50.102	0.185	0.086
-66.407	49.138	0.096	0.089
-65.392	-101.099	0.145	0.035
-64.378	485.519	0.070	-0.156
-63.363	-200.000	0.060	0.277
-62.349	-31.045	0.214	0.119
-61.334	125.860	-0.721	-0.898
-60.319	471.041	0.100	0.221
-59.305	-200.000	0.068	-0.950
-58.290	800.000	0.217	0.703
-57.276	476.056	0.833	1.857
-56.261	-200.000	86.235	489.579
-55.246	490.751	1358.044	3063.555
-54.232	151.674	2580.066	3465.417
-53.217	108.177	2310.163	2715.727
-52.203	46.891	1930.458	1768.740
-51.188	41.267	1721.022	1533.656
-50.173	38.548	1676.125	1473.171
-49.159	53.323	1719.792	1624.405
-48.144	57.119	1738.943	1671.375
-47.130	41.128	1697.225	1511.160
-46.115	38.172	1682.329	1475.546
-45.100	38.019	1677.930	1470.479
-44.086	37.933	1674.970	1467.180
-43.071	37.984	1672.448	1465.290
-42.057	38.016	1669.438	1462.836
-41.042	37.933	1667.991	1460.891
-40.027	37.986	1666.402	1459.837
-39.013	37.977	1664.110	1457.701
-37.998	37.905	1662.327	1455.549
-36.984	37.906	1660.990	1454.325
-35.969	38.137	1659.453	1454.643
-34.954	38.140	1657.865	1453.219
-33.940	38.083	1655.785	1450.908
-32.925	38.101	1654.255	1449.643
-31.911	38.085	1652.714	1448.122
-30.896	38.159	1650.891	1447.014
-29.881	38.079	1649.620	1445.247
-28.867	38.130	1648.058	1444.204
-27.852	38.126	1646.238	1442.516
-26.838	38.106	1644.725	1440.991
-25.823	38.057	1643.798	1439.757
-24.809	38.208	1641.941	1439.189
-23.794	38.162	1641.036	1437.995
-22.779	38.059	1639.375	1435.729
-21.765	38.100	1637.757	1434.555
-20.750	38.126	1635.903	1433.063
-19.736	38.128	1634.439	1431.741
-18.721	38.173	1632.957	1430.718
-17.706	38.048	1632.051	1428.950
-16.692	38.063	1630.556	1427.689
-15.677	38.071	1628.840	1426.190
-14.663	38.213	1627.167	1425.710
-13.648	38.184	1626.162	1424.559
-12.633	38.094	1624.557	1422.439
-11.619	38.106	1623.182	1421.265
-10.604	38.223	1621.523	1420.606
-9.590	38.170	1620.604	1419.363
-8.575	38.098	1619.358	1417.693
-7.560	38.084	1618.147	1416.472
-6.546	38.086	1616.941	1415.374
-5.531	38.056	1616.021	1414.298
-4.517	38.148	1614.254	1413.359
-3.502	38.080	1613.255	1411.938
-2.487	38.196	1611.287	1411.002
-1.473	37.670	1599.755	1397.074
-0.458	34.560	1579.112	1356.913
0.556	30.094	1577.480	1319.094
1.571	27.355	1601.392	1319.154
2.586	26.803	1615.087	1326.280
3.600	23.672	1562.342	1260.656
4.615	13.222	1447.472	1098.750
5.629	3.524	1376.359	983.114
6.644	1.651	1366.819	964.352
7.659	1.486	1365.505	962.296
8.673	1.328	1364.250	960.326
9.688	1.316	1362.389	958.858
10.702	1.100	1359.697	955.515
11.717	4.706	1367.476	983.726
12.731	15.128	1387.259	1064.421
13.746	23.424	1401.446	1128.253
14.761	25.160	1403.597	1140.937
15.775	25.567	1402.780	1142.761
16.790	25.603	1402.724	1142.846
17.804	25.594	1402.113	1142.189
18.819	25.842	1401.544	1143.197
19.834	25.906	1401.020	1143.073
20.848	25.925	1400.664	1142.801
21.863	25.806	1399.876	1141.302
22.877	25.940	1398.958	1141.301
23.892	25.819	1398.146	1139.776
24.907	25.889	1397.150	1139.307
25.921	25.870	1395.965	1138.116
26.936	25.911	1394.513	1137.089
27.950	25.901	1393.828	1136.369
28.965	25.911	1392.959	1135.622
29.980	25.957	1390.888	1134.122
30.994	25.953	1390.096	1133.349
32.009	25.868	1388.973	1131.803
33.023	25.852	1387.936	1130.759
34.038	25.969	1386.503	1130.222
35.053	25.810	1385.926	1128.654
36.067	25.900	1384.574	1128.016
37.082	25.896	1383.773	1127.240
38.096	25.869	1383.290	1126.582
39.111	25.882	1382.293	1125.752
40.126	25.933	1381.587	1125.394
41.140	25.839	1380.848	1124.107
42.155	25.880	1380.310	1123.824
43.169	25.828	1380.962	1123.928
44.184	25.802	1380.814	1123.548
45.199	25.888	1380.105	1123.405
46.213	25.945	1379.067	1122.816
47.228	25.871	1378.163	1121.521
48.242	25.954	1376.614	1120.680
49.257	25.891	1376.033	1119.713
50.271	25.813	1374.377	1117.782
51.286	25.782	1372.989	1116.367
52.301	25.802	1371.663	1115.314
53.315	25.892	1370.735	1115.013
54.330	25.872	1370.259	1114.406
55.344	25.918	1368.938	1113.516
56.359	25.870	1367.838	1112.227
57.374	25.777	1367.096	1110.953
58.388	25.886	1366.345	1110.915
59.403	25.961	1366.047	1111.034
60.417	25.892	1364.986	1109.650
61.432	25.839	1364.895	1109.150
62.447	25.851	1363.923	1108.338
63.461	25.794	1362.783	1106.965
64.476	25.905	1361.843	1106.787
65.490	25.975	1360.105	1105.704
66.505	25.879	1359.058	1104.167
67.520	26.044	1357.281	1103.631
68.534	25.853	1356.839	1102.009
69.549	25.909	1356.156	1101.700
70.563	25.962	1354.752	1100.785
71.578	25.850	1353.887	1099.300
72.593	25.850	1352.938	1098.433
73.607	25.928	1352.665	1098.592
74.622	25.851	1351.700	1097.239
75.636	25.864	1351.051	1096.691
76.651	25.875	1350.326	1096.078
77.666	25.852	1349.980	1095.558
78.680	25.885	1349.186	1095.015
79.695	25.926	1348.102	1094.290
80.709	25.893	1347.457	1093.468
81.724	25.745	1346.481	1091.682
82.739	25.914	1345.470	1091.787
83.753	25.903	1344.431	1090.782
84.768	25.953	1343.327	1090.094
85.782	25.877	1342.351	1088.749
86.797	25.871	1341.155	1087.646
87.812	25.933	1339.920	1086.921
88.826	25.990	1339.084	1086.489
89.841	25.920	1338.136	1085.204
90.855	25.908	1337.396	1084.434
91.870	25.995	1336.190	1083.884
92.884	25.980	1335.179	1082.876
93.899	25.852	1334.971	1081.847
94.914	25.898	1334.107	1081.321
95.928	25.954	1333.026	1080.690
96.943	25.872	1332.512	1079.684
97.957	26.003	1331.683	1079.704
98.972	25.951	1331.002	1078.742
99.987	25.972	1329.586	1077.628
101.001	25.887	1328.852	1076.425
102.016	25.937	1328.198	1076.100
103.030	25.897	1327.133	1074.902
104.045	25.972	1326.348	1074.619
105.060	25.941	1325.295	1073.486
106.074	25.951	1324.188	1072.556
107.089	26.088	1323.160	1072.442
108.103	26.029	1322.060	1071.106
109.118	26.029	1321.142	1070.265
110.133	26.002	1319.883	1068.994
111.147	26.086	1318.656	1068.403
112.162	26.045	1317.805	1067.376
113.176	25.977	1316.457	1065.783
114.191	26.018	1316.070	1065.623
115.206	26.024	1314.695	1064.448
116.220	26.076	1313.516	1063.708
117.235	26.000	1312.887	1062.655
118.249	25.957	1312.366	1061.883
119.264	25.999	1311.340	1061.207
120.279	26.107	1310.584	1061.137
121.293	26.068	1309.901	1060.263
122.308	26.055	1308.924	1059.300
123.322	26.009	1308.063	1058.238
124.337	26.001	1307.518	1057.659
125.352	26.208	1306.050	1057.589
126.366	26.115	1305.231	1056.290
127.381	26.191	1303.947	1055.604
128.395	26.236	1303.332	1055.271
129.410	26.105	1302.914	1054.074
130.424	26.105	1302.129	1053.346
131.439	26.098	1301.408	1052.632
132.454	26.064	1300.818	1051.861
133.468	26.091	1299.964	1051.236
134.483	26.058	1299.589	1050.647
135.497	26.104	1298.758	1050.147
136.512	26.050	1297.313	1048.577
137.527	26.101	1296.480	1048.107
138.541	26.209	1294.698	1047.197
139.556	26.093	1293.990	1045.858
140.570	26.029	1293.384	1044.905
141.585	26.092	1292.186	1044.214
142.600	26.097	1291.014	1043.198
143.614	26.051	1290.211	1042.194
144.629	26.099	1289.104	1041.483
145.643	25.966	1288.674	1040.280
146.658	25.930	1287.559	1039.079
147.673	25.934	1286.233	1037.938
148.687	25.959	1285.041	1037.030
149.702	25.967	1284.138	1036.255
150.716	26.005	1282.967	1035.435
151.731	26.010	1282.029	1034.618
152.746	26.111	1280.485	1033.860
153.760	26.042	1280.013	1032.990
154.775	26.035	1279.115	1032.134
155.789	26.104	1277.847	1031.416
156.804	26.099	1277.123	1030.711
157.819	26.084	1276.607	1030.116
158.833	26.066	1275.628	1029.133
159.848	26.134	1275.003	1028.923
160.862	26.147	1273.954	1028.060
161.877	26.175	1272.993	1027.354
162.892	26.164	1272.646	1026.922
163.906	26.069	1271.785	1025.593
164.921	26.189	1271.299	1025.792
165.935	26.206	1270.209	1024.918
166.950	26.125	1269.675	1023.938
167.964	26.126	1269.061	1023.360
168.979	26.042	1268.619	1022.435
169.994	26.253	1267.975	1023.023
171.008	26.244	1266.975	1022.074
172.023	26.136	1266.494	1020.987
173.037	26.216	1265.657	1020.672
174.052	26.188	1265.365	1020.187
175.067	26.218	1264.687	1019.721
176.081	26.253	1263.158	1018.593
177.096	26.211	1262.562	1017.786
178.110	26.148	1261.948	1016.844
179.125	26.334	1260.446	1016.594
180.140	26.271	1259.543	1015.422
181.154	26.309	1258.550	1014.744
182.169	26.257	1257.106	1013.195
183.183	26.222	1256.605	1012.506
184.198	26.202	1255.649	1011.538
185.213	26.216	1254.635	1010.709
186.227	26.301	1253.618	1010.274
187.242	26.297	1252.989	1009.654
188.256	26.159	1252.144	1008.116
189.271	26.284	1251.464	1008.178
190.286	26.263	1250.494	1007.188
191.300	26.198	1250.149	1006.461
192.315	26.253	1249.599	1006.233
193.329	26.280	1248.972	1005.790
194.344	26.473	1248.106	1006.078
195.359	26.352	1247.850	1005.111
196.373	26.241	1247.735	1004.309
197.388	26.185	1247.241	1003.511
198.402	26.093	1247.261	1002.928
199.417	26.238	1246.291	1002.866
200.432	26.266	1245.693	1002.448
201.446	26.343	1244.852	1002.112
202.461	26.318	1244.400	1001.521
203.475	26.322	1243.699	1000.889
204.490	26.284	1242.590	999.699
205.504	26.308	1241.368	998.761
206.519	26.311	1240.110	997.678
207.534	26.351	1239.529	997.342
208.548	26.462	1238.587	997.109
209.563	26.344	1238.441	996.252
210.577	26.404	1237.264	995.543
211.592	26.335	1236.354	994.346
212.607	26.382	1235.674	993.971
213.621	26.416	1234.979	993.509
214.636	26.346	1234.491	992.643
215.650	26.395	1233.111	991.713
216.665	26.391	1232.115	990.807
217.680	26.323	1231.464	989.822
218.694	26.455	1230.442	989.632
219.709	26.456	1229.810	989.046
220.723	26.396	1229.282	988.204
221.738	26.344	1228.973	987.586
222.753	26.217	1228.263	986.233
223.767	26.297	1227.551	986.012
224.782	26.557	1226.533	986.520
225.796	26.516	1226.095	985.859
226.811	26.497	1225.595	985.268
227.826	26.477	1225.135	984.698
228.840	26.453	1224.605	984.056
229.855	26.418	1223.749	983.094
230.869	26.450	1222.834	982.441
231.884	26.447	1222.320	981.925
232.899	26.448	1221.448	981.146
233.913	26.476	1221.327	981.112
234.928	26.551	1220.499	980.768
235.942	26.464	1219.854	979.692
236.957	26.532	1218.902	979.209
237.972	26.578	1218.334	978.914
238.986	26.522	1217.437	977.804
240.001	26.536	1217.130	977.547
241.015	26.651	1216.282	977.402
242.030	26.658	1215.398	976.638
243.045	26.617	1215.089	976.084
244.059	26.677	1213.949	975.405
245.074	26.734	1212.906	974.790
246.088	26.683	1212.497	974.101
247.103	26.689	1211.716	973.419
248.117	26.717	1210.499	972.503
249.132	26.634	1210.295	971.808
250.147	26.760	1209.655	971.886
251.161	26.739	1209.005	971.163
252.176	26.535	1208.506	969.582
253.190	26.744	1207.423	969.746
254.205	26.735	1206.716	969.044
255.220	26.759	1206.260	968.720
256.234	26.859	1205.307	968.407
257.249	26.747	1205.200	967.637
258.263	26.703	1204.719	966.931
259.278	26.547	1204.395	965.752
260.293	26.817	1203.784	966.617
261.307	26.871	1202.552	965.829
262.322	26.749	1202.528	965.071
263.336	26.820	1201.885	964.849
264.351	26.709	1201.207	963.631
265.366	26.777	1199.936	962.887
266.380	26.748	1199.632	962.402
267.395	26.841	1198.903	962.226
268.409	26.749	1198.502	961.334
269.424	26.693	1198.158	960.675
270.439	26.790	1197.702	960.736
271.453	26.768	1196.839	959.843
272.468	26.882	1195.878	959.590
273.482	26.796	1195.143	958.465
274.497	26.792	1194.690	957.992
275.512	26.883	1194.396	958.155
276.526	26.763	1193.802	956.959
277.541	26.789	1193.121	956.464
278.555	26.950	1192.136	956.439
279.570	26.884	1191.414	955.425
280.585	26.882	1190.342	954.474
281.599	26.941	1189.664	954.153
282.614	26.921	1188.888	953.341
283.628	26.957	1187.782	952.559
284.643	26.945	1186.957	951.754
285.657	26.908	1185.951	950.667
286.672	26.873	1185.398	949.955
287.687	26.961	1184.570	949.668
288.701	27.070	1183.981	949.684
289.716	27.046	1183.174	948.823
290.730	26.995	1182.773	948.156
291.745	27.163	1181.732	948.109
292.760	27.009	1181.527	947.059
293.774	27.015	1180.864	946.475
294.789	27.019	1180.374	946.021
295.803	27.159	1179.755	946.171
296.818	27.048	1179.233	945.088
297.833	27.096	1178.485	944.658
298.847	27.109	1177.697	944.008
299.862	27.178	1176.416	943.258
300.876	27.141	1176.099	942.725
301.891	27.205	1175.814	942.747
302.906	27.151	1175.101	941.813
303.920	27.195	1174.441	941.426
304.935	27.196	1173.670	940.732
305.949	27.104	1173.233	939.821
306.964	27.179	1172.794	939.775
307.979	27.118	1172.158	938.867
308.993	27.102	1171.559	938.224
310.008	27.293	1170.669	938.410
311.022	27.245	1169.905	937.470
312.037	27.285	1168.651	936.587
313.052	27.212	1168.191	935.759
314.066	27.206	1167.731	935.276
315.081	27.162	1166.831	934.246
316.095	27.147	1166.349	933.702
317.110	27.266	1165.560	933.599
318.125	27.318	1164.922	933.272
319.139	27.240	1164.136	932.160
320.154	27.337	1163.374	931.962
321.168	27.292	1163.086	931.418
322.183	27.275	1162.708	930.948
323.197	27.327	1161.769	930.378
324.212	27.323	1161.314	929.913
325.227	27.399	1160.660	929.693
326.241	27.401	1160.122	929.189
327.256	27.321	1159.630	928.306
328.270	27.321	1158.780	927.544
329.285	27.375	1157.529	926.737
330.300	27.420	1157.018	926.472
331.314	27.345	1156.153	925.317
332.329	27.402	1155.566	925.055
333.343	27.431	1154.533	924.292
334.358	27.474	1153.734	923.793
335.373	27.487	1153.350	923.468
336.387	27.468	1152.635	922.717
337.402	27.471	1151.835	922.009
338.416	27.472	1151.531	921.689
339.431	27.561	1150.705	921.398
340.446	27.492	1150.396	920.719
341.460	27.589	1149.668	920.547
342.475	27.497	1148.614	919.155
343.489	27.529	1147.858	918.632
344.504	27.600	1146.724	918.000
345.519	27.574	1145.650	916.930
346.533	27.580	1145.477	916.737
347.548	27.640	1144.317	916.030
348.562	27.763	1143.824	916.174
349.577	27.587	1143.230	914.731
350.592	27.589	1141.988	913.665
351.606	27.566	1141.668	913.216
352.621	27.581	1141.372	912.972
353.635	27.768	1140.397	913.047
354.650	27.720	1139.704	912.170
355.665	27.793	1139.365	912.186
356.679	27.738	1139.086	911.609
357.694	27.775	1137.852	910.724
358.708	27.717	1137.265	909.883
359.723	27.746	1136.467	909.311
360.738	27.661	1136.227	908.612
361.752	27.745	1135.574	908.431
362.767	27.972	1134.748	908.817
363.781	27.808	1134.297	907.559
364.796	27.763	1134.337	907.288
365.810	27.819	1133.114	906.509
366.825	27.953	1132.309	906.448
367.840	27.906	1132.465	906.262
368.854	27.811	1131.973	905.313
369.869	27.883	1130.892	904.727
370.883	27.965	1129.849	904.217
371.898	27.863	1129.142	903.067
372.913	27.842	1128.935	902.717
373.927	27.963	1128.331	902.756
374.942	27.972	1127.695	902.209
375.956	27.992	1126.994	901.668
376.971	28.022	1126.373	901.238
377.986	27.886	1126.119	900.287
379.000	28.022	1125.841	900.655
380.015	27.945	1125.231	899.704
381.029	27.999	1124.341	899.180
382.044	28.040	1123.644	898.744
383.059	28.101	1123.283	898.675
384.073	28.029	1122.509	897.624
385.088	28.085	1121.698	897.173
386.102	28.132	1120.718	896.536
387.117	28.116	1119.664	895.535
388.132	28.126	1118.997	894.974
389.146	28.163	1117.929	894.223
390.161	28.114	1117.853	893.843
391.175	28.051	1117.157	892.900
392.190	28.072	1116.617	892.489
393.205	28.094	1115.583	891.691
394.219	28.145	1115.133	891.502
395.234	28.209	1114.158	890.953
396.248	28.183	1113.742	890.419
397.263	28.101	1112.604	889.029
398.278	28.185	1112.033	888.905
399.292	28.324	1111.467	889.049
400.307	28.209	1110.793	887.871
401.321	28.159	1110.715	887.490
402.336	28.197	1109.720	886.798
403.350	28.197	1108.736	885.936
404.365	28.316	1108.133	885.949
405.380	28.302	1107.380	885.200
406.394	28.366	1106.705	884.891
407.409	28.414	1106.226	884.662
408.423	28.357	1105.373	883.628
409.438	28.343	1104.842	883.059
410.453	28.441	1103.806	882.625
411.467	28.430	1103.397	882.164
412.482	28.395	1102.510	881.208
413.496	28.441	1101.705	880.710
414.511	28.345	1101.490	879.999
415.526	28.452	1100.810	879.890
416.540	28.585	1100.481	880.190
417.555	28.529	1099.912	879.386
418.569	28.476	1099.612	878.815
419.584	28.496	1099.245	878.538
420.599	28.553	1098.883	878.443
421.613	96.394	1311.162	1417.463
422.628	90.132	1342.074	1417.558
