DTS Sentinel unit serial number:	SN413079Multiplexer serial number:	ORYXHardware model number:	OX4-SRSoftware version number:	ORYX F/W v4.00 Oryx Data Collector v3.7.2.0data status	okinstallation	princeton_trtdifferential loss correction	single-endedforward channel	channel 2reverse channel	N/Adate	2019/09/10time	18:25:11forward acquisition time	60.00reverse acquisition time	0.00gamma	496.2192k internal	0.2319k external	0.2319temperature offset calibration	0.9936default loss term (dB/km)	0.3790temperature slope calibration	1.0000multiplexer offset coefficient	1.0000multiplexer slope coefficient	1.0000fibre end	0.00T internal ref (°C)	36.09T ext. ref 1 (°C)	-0.39T ext. ref 2 (°C)	28.12length (m)	temperature (°C)	Stokes	anti-Stokes-747.200	-200.000	-0.038	0.176
-746.185	-183.084	0.186	0.003
-745.171	-77.773	-0.297	0.104
-744.156	-151.291	0.237	0.018
-743.142	472.444	0.143	0.325
-742.127	331.979	0.113	0.220
-741.112	-116.174	-0.108	0.020
-740.098	281.714	-0.057	0.103
-739.083	800.000	-0.059	-0.211
-738.069	-82.731	-0.450	0.147
-737.054	-200.000	0.023	-0.208
-736.039	216.203	-0.201	-0.323
-735.025	-109.272	0.235	0.050
-734.010	-96.571	0.229	-0.061
-732.996	168.504	-0.166	-0.239
-731.981	226.849	0.176	-0.290
-730.966	-200.000	-0.026	-0.303
-729.952	35.073	-0.294	-0.260
-728.937	-200.000	0.036	-0.346
-727.923	-21.092	-0.150	0.093
-726.908	-200.000	-0.003	0.050
-725.894	39.635	-0.123	-0.112
-724.879	451.223	-0.060	0.134
-723.864	-13.708	-0.137	-0.090
-722.850	-83.150	-0.116	-0.038
-721.835	28.249	0.012	0.010
-720.821	30.551	0.085	-0.073
-719.806	800.000	0.126	-0.400
-718.791	20.171	-0.128	-0.105
-717.777	75.357	-0.227	0.242
-716.762	61.950	-0.115	-0.116
-715.748	-1.199	0.109	0.078
-714.733	-200.000	-0.032	-0.393
-713.718	10.147	-0.218	-0.168
-712.704	-200.000	0.025	0.167
-711.689	800.000	-0.049	0.181
-710.675	800.000	-0.053	-0.165
-709.660	-200.000	0.024	-0.175
-708.645	-94.459	0.243	-0.067
-707.631	88.841	-0.165	-0.185
-706.616	153.921	0.104	0.144
-705.602	-200.000	0.036	0.309
-704.587	2.017	0.074	-0.054
-703.572	-64.334	-0.180	0.074
-702.558	800.000	-0.047	-0.147
-701.543	-200.000	0.033	-0.187
-700.529	-200.000	-0.037	-0.241
-699.514	44.731	0.199	0.185
-698.499	506.780	0.127	-0.298
-697.485	-200.000	-0.035	0.258
-696.470	-200.000	0.007	-0.300
-695.456	108.863	-0.076	-0.091
-694.441	-200.000	-0.023	-0.212
-693.426	-200.000	0.005	0.179
-692.412	709.716	0.050	0.134
-691.397	74.291	-0.141	0.149
-690.383	97.138	0.126	0.146
-689.368	61.900	0.269	-0.271
-688.354	-71.881	-0.176	-0.066
-687.339	-150.721	-0.264	-0.020
-686.324	329.201	0.023	-0.045
-685.310	-78.286	-0.125	-0.043
-684.295	-50.673	-0.159	-0.076
-683.281	49.950	-0.141	0.134
-682.266	-23.570	-0.234	0.142
-681.251	-200.000	-0.002	-0.110
-680.237	150.940	0.245	0.336
-679.222	-84.228	-0.189	0.060
-678.208	232.156	0.051	-0.084
-677.193	36.214	0.260	-0.231
-676.178	800.000	-0.093	-0.388
-675.164	-200.000	-0.033	-0.337
-674.149	-196.074	0.328	-0.002
-673.135	-12.937	-0.131	0.086
-672.120	800.000	-0.067	-0.226
-671.105	-200.000	-0.006	-0.235
-670.091	-200.000	-0.013	-0.219
-669.076	-89.750	0.059	-0.017
-668.062	-164.980	-0.229	0.010
-667.047	-153.375	0.232	-0.016
-666.032	376.823	0.258	-0.532
-665.018	55.091	-0.097	-0.094
-664.003	104.134	0.221	-0.262
-662.989	-146.960	0.376	-0.033
-661.974	-200.000	0.019	-0.173
-660.959	-200.000	0.019	0.150
-659.945	380.747	0.025	-0.052
-658.930	49.233	0.161	0.152
-657.916	8.064	0.234	0.177
-656.901	152.164	0.136	-0.187
-655.886	-200.000	0.009	-0.060
-654.872	-76.961	0.344	0.121
-653.857	800.000	-0.045	0.185
-652.843	-52.189	0.098	-0.046
-651.828	-114.338	0.112	0.022
-650.814	81.366	0.323	0.352
-649.799	-200.000	-0.016	0.119
-648.784	8.642	0.096	-0.073
-647.770	-12.779	0.273	-0.179
-646.755	-84.809	-0.325	-0.103
-645.741	-66.095	-0.042	0.017
-644.726	800.000	-0.093	-0.273
-643.711	621.275	0.155	-0.392
-642.697	-104.919	0.339	-0.078
-641.682	-81.092	0.150	-0.050
-640.668	100.031	0.241	0.281
-639.653	-159.901	-0.112	-0.006
-638.638	209.849	-0.017	0.027
-637.624	-13.355	0.212	0.139
-636.609	-51.996	0.317	-0.148
-635.595	43.080	-0.124	-0.114
-634.580	168.561	0.142	0.203
-633.565	348.971	-0.128	-0.255
-632.551	-102.477	-0.104	0.025
-631.536	-91.271	-0.352	-0.101
-630.522	800.000	-0.129	0.396
-629.507	-119.680	0.258	0.045
-628.492	800.000	0.028	-0.090
-627.478	-88.015	-0.329	-0.099
-626.463	403.536	-0.092	0.196
-625.449	33.539	0.178	0.155
-624.434	800.000	-0.034	-0.117
-623.419	800.000	-0.069	0.196
-622.405	39.793	-0.120	0.108
-621.390	-200.000	0.015	0.089
-620.376	130.301	0.076	0.098
-619.361	122.224	0.133	0.168
-618.346	-14.505	0.100	0.064
-617.332	-200.000	-0.009	-0.127
-616.317	294.564	0.040	-0.074
-615.303	34.137	0.193	0.169
-614.288	-141.016	-0.323	0.033
-613.273	359.987	0.050	-0.100
-612.259	-109.025	-0.136	0.029
-611.244	-63.867	0.189	0.078
-610.230	800.000	-0.032	-0.106
-609.215	-83.284	-0.156	-0.050
-608.201	-47.481	-0.049	0.024
-607.186	800.000	-0.032	-0.130
-606.171	389.580	0.156	0.326
-605.157	-140.391	-0.395	-0.042
-604.142	178.103	-0.080	0.117
-603.128	-90.520	-0.376	-0.110
-602.113	-19.964	-0.183	-0.113
-601.098	800.000	0.088	-0.323
-600.084	-200.000	0.027	-0.175
-599.069	169.524	0.135	0.194
-598.055	-132.810	0.088	-0.011
-597.040	397.895	0.092	-0.195
-596.025	-81.617	-0.060	-0.020
-595.011	16.993	-0.249	0.198
-593.996	55.178	0.157	-0.152
-592.982	-85.116	0.176	-0.055
-591.967	61.192	0.319	-0.319
-590.952	-94.951	-0.133	-0.036
-589.938	-33.694	-0.241	0.134
-588.923	-200.000	-0.003	0.018
-587.909	-64.236	-0.117	0.048
-586.894	-200.000	-0.020	0.162
-585.879	-52.110	0.051	0.024
-584.865	730.465	0.107	0.287
-583.850	-4.995	0.150	-0.104
-582.836	631.423	0.118	-0.300
-581.821	-166.100	-0.269	0.012
-580.806	-86.099	-0.165	0.051
-579.792	578.381	0.057	-0.141
-578.777	-7.034	-0.233	0.159
-577.763	77.780	0.100	-0.107
-576.748	-3.524	0.125	-0.087
-575.733	1.391	-0.061	0.044
-574.719	-163.652	-0.641	-0.030
-573.704	507.620	0.069	-0.161
-572.690	-200.000	0.001	0.104
-571.675	800.000	0.041	0.135
-570.661	24.581	0.134	0.111
-569.646	-70.749	-0.259	-0.098
-568.631	752.556	0.131	-0.356
-567.617	-200.000	0.005	-0.110
-566.602	443.666	0.036	-0.080
-565.588	-196.415	0.184	0.001
-564.573	-186.141	-0.229	-0.003
-563.558	-112.117	0.515	0.104
-562.544	8.166	0.049	-0.037
-561.529	-137.022	-0.076	-0.009
-560.515	-200.000	-0.033	0.276
-559.500	-117.396	0.306	0.056
-558.485	48.879	0.091	-0.086
-557.471	-200.000	-0.012	-0.115
-556.456	-81.409	0.331	-0.110
-555.442	361.765	0.125	0.252
-554.427	-200.000	0.256	-0.000
-553.412	186.523	-0.136	0.204
-552.398	-9.602	0.071	-0.048
-551.383	22.587	0.258	0.212
-550.369	535.057	-0.045	0.106
-549.354	-36.249	-0.105	-0.057
-548.339	-112.576	0.270	0.054
-547.325	3.089	0.277	0.202
-546.310	-144.344	0.330	0.031
-545.296	800.000	0.141	0.399
-544.281	-0.004	-0.184	-0.132
-543.266	-200.000	-0.036	-0.271
-542.252	80.188	0.128	-0.138
-541.237	-200.000	0.009	-0.116
-540.223	-200.000	0.027	0.235
-539.208	799.079	0.131	0.362
-538.193	317.441	-0.072	0.137
-537.179	-106.740	0.093	-0.021
-536.164	-140.017	0.165	-0.017
-535.150	205.786	0.193	-0.301
-534.135	-200.000	-0.012	-0.057
-533.121	800.000	0.085	-0.322
-532.106	-191.065	0.062	0.001
-531.091	1.948	-0.242	0.175
-530.077	-103.569	-0.353	-0.083
-529.062	569.308	-0.161	0.394
-528.048	102.516	-0.311	0.364
-527.033	-200.000	-0.034	0.227
-526.018	544.988	-0.053	-0.127
-525.004	23.046	0.137	0.113
-523.989	-200.000	0.005	0.095
-522.975	-149.744	-0.381	0.030
-521.960	-169.514	0.213	-0.008
-520.945	800.000	0.046	-0.150
-519.931	-72.104	-0.197	0.073
-518.916	-109.139	0.396	0.084
-517.902	-171.979	-0.336	-0.011
-516.887	-32.819	-0.485	-0.271
-515.872	-118.989	0.253	-0.044
-514.858	800.000	-0.049	0.136
-513.843	659.890	0.074	0.192
-512.829	119.663	0.076	0.095
-511.814	800.000	-0.049	-0.166
-510.799	31.458	-0.048	0.041
-509.785	-200.000	-0.020	0.288
-508.770	-200.000	-0.001	0.265
-507.756	-120.354	0.391	-0.067
-506.741	476.131	-0.121	-0.273
-505.726	276.177	0.050	-0.089
-504.712	-22.331	0.053	-0.032
-503.697	-200.000	0.026	0.146
-502.683	7.944	-0.299	-0.225
-501.668	-200.000	0.006	-0.233
-500.653	292.826	0.130	-0.237
-499.639	-163.972	-0.364	0.017
-498.624	-92.694	-0.101	0.028
-497.610	-200.000	-0.050	0.466
-496.595	389.253	-0.097	0.201
-495.581	-39.982	-0.245	0.128
-494.566	800.000	-0.087	0.305
-493.551	-27.009	0.228	0.133
-492.537	800.000	-0.022	-0.083
-491.522	-200.000	-0.031	-0.135
-490.508	269.945	-0.143	0.251
-489.493	-56.835	-0.266	-0.118
-488.478	48.599	-0.057	-0.054
-487.464	-200.000	0.013	-0.110
-486.449	-200.000	-0.003	-0.168
-485.435	-200.000	-0.012	0.099
-484.420	-200.000	0.039	-0.229
-483.405	-200.000	0.002	0.096
-482.391	104.553	0.132	-0.156
-481.376	-27.123	-0.110	-0.064
-480.362	800.000	-0.072	0.287
-479.347	-22.283	0.275	0.167
-478.332	800.000	0.064	0.191
-477.318	-200.000	0.024	0.154
-476.303	-126.094	0.178	-0.027
-475.289	800.000	-0.043	0.174
-474.274	-36.808	-0.097	0.052
-473.259	-55.275	0.109	-0.049
-472.245	-135.557	-0.423	0.050
-471.230	24.429	-0.198	-0.164
-470.216	133.681	0.250	0.324
-469.201	-29.695	-0.390	-0.223
-468.186	153.006	0.069	-0.094
-467.172	253.821	0.195	0.334
-466.157	125.381	-0.163	0.205
-465.143	772.641	-0.039	-0.107
-464.128	-200.000	-0.024	-0.162
-463.113	-74.540	0.438	-0.158
-462.099	-103.018	-0.318	0.075
-461.084	199.022	0.112	-0.172
-460.070	21.973	0.191	0.155
-459.055	-200.000	0.030	0.240
-458.040	183.482	-0.168	0.249
-457.026	-169.403	0.160	-0.006
-456.011	-72.610	-0.240	-0.089
-454.997	172.839	-0.053	0.076
-453.982	800.000	0.054	-0.209
-452.968	142.876	0.131	-0.174
-451.953	245.625	-0.031	0.053
-450.938	-1.021	0.098	0.070
-449.924	-65.227	0.202	-0.082
-448.909	-95.001	-0.092	0.025
-447.895	-61.934	-0.339	-0.142
-446.880	62.443	-0.318	0.318
-445.865	800.000	-0.077	0.295
-444.851	10.212	0.088	0.067
-443.836	-200.000	0.034	-0.228
-442.822	287.279	0.063	0.113
-441.807	-200.000	-0.063	0.309
-440.792	40.250	0.185	-0.166
-439.778	-200.000	0.007	0.271
-438.763	121.506	0.159	-0.198
-437.749	205.642	-0.205	0.319
-436.734	26.277	-0.029	0.024
-435.719	-111.267	0.374	-0.076
-434.705	1.212	-0.132	-0.095
-433.690	116.876	-0.127	0.156
-432.676	-25.178	-0.205	0.121
-431.661	-200.000	-0.059	-0.396
-430.646	-74.725	0.209	0.075
-429.632	-30.919	-0.229	-0.129
-428.617	512.142	-0.103	0.240
-427.603	71.666	0.068	-0.071
-426.588	390.360	-0.110	-0.227
-425.573	-61.095	-0.319	-0.135
-424.559	-188.524	-0.207	0.003
-423.544	800.000	0.074	-0.215
-422.530	204.483	0.078	-0.121
-421.515	-160.793	0.282	0.015
-420.500	226.683	-0.004	-0.006
-419.486	-130.744	-0.161	-0.022
-418.471	-58.117	-0.364	-0.159
-417.457	-60.475	0.247	0.105
-416.442	577.086	0.207	-0.506
-415.428	-91.437	0.055	0.016
-414.413	311.607	-0.016	-0.029
-413.398	44.086	0.316	0.289
-412.384	-200.000	-0.023	0.269
-411.369	205.881	0.146	-0.227
-410.355	100.639	-0.149	0.173
-409.340	342.845	-0.022	-0.043
-408.325	423.173	-0.077	-0.166
-407.311	177.471	-0.237	-0.345
-406.296	110.503	-0.204	0.245
-405.282	-200.000	-0.019	0.146
-404.267	-200.000	0.006	0.095
-403.252	594.602	0.013	-0.032
-402.238	231.509	0.089	-0.146
-401.223	74.018	-0.312	-0.326
-400.209	-99.367	-0.010	0.003
-399.194	58.582	0.173	0.169
-398.179	800.000	0.075	0.317
-397.165	-200.000	-0.014	0.397
-396.150	-99.808	0.224	-0.056
-395.136	-200.000	-0.035	-0.300
-394.121	-99.358	-0.103	0.026
-393.106	-49.627	0.316	-0.150
-392.092	130.131	0.195	0.249
-391.077	800.000	0.051	0.164
-390.063	-200.000	0.026	-0.246
-389.048	264.778	-0.045	-0.078
-388.033	-34.370	-0.093	-0.051
-387.019	-102.590	0.288	-0.069
-386.004	244.929	-0.054	-0.091
-384.990	280.024	-0.063	0.113
-383.975	51.267	-0.085	-0.080
-382.960	69.860	-0.209	0.215
-381.946	-45.535	0.138	0.068
-380.931	800.000	-0.030	-0.129
-379.917	142.897	-0.075	-0.099
-378.902	-170.613	0.234	0.008
-377.888	800.000	0.050	-0.160
-376.873	99.088	-0.114	0.131
-375.858	533.787	0.123	0.292
-374.844	3.141	0.129	0.094
-373.829	800.000	-0.038	-0.146
-372.815	84.156	-0.311	-0.339
-371.800	71.790	-0.189	-0.196
-370.785	202.513	0.092	-0.141
-369.771	338.120	-0.050	-0.098
-368.756	143.769	-0.167	0.222
-367.742	688.295	-0.074	0.193
-366.727	800.000	-0.135	0.434
-365.712	-200.000	-0.007	-0.107
-364.698	-2.687	0.319	-0.223
-363.683	505.337	0.070	-0.162
-362.669	-200.000	0.013	0.231
-361.654	-113.144	0.192	-0.038
-360.639	8.169	0.218	0.163
-359.625	-19.095	0.125	-0.078
-358.610	-200.000	0.030	0.228
-357.596	-91.118	-0.404	0.115
-356.581	252.411	0.183	-0.310
-355.566	-80.959	-0.030	0.010
-354.552	89.634	-0.201	0.223
-353.537	-20.424	0.398	-0.244
-352.523	789.639	-0.060	-0.163
-351.508	-116.768	-0.112	0.021
-350.493	-84.461	0.375	-0.118
-349.479	-42.589	0.196	-0.100
-348.464	-112.451	0.191	-0.038
-347.450	227.744	-0.186	0.302
-346.435	-200.000	0.007	0.312
-345.420	800.000	-0.093	0.378
-344.406	-41.950	0.240	0.123
-343.391	16.119	-0.186	-0.146
-342.377	-3.563	-0.310	-0.215
-341.362	-200.000	-0.022	-0.207
-340.348	722.753	-0.128	-0.339
-339.333	800.000	0.045	0.132
-338.318	-152.700	-0.145	0.010
-337.304	129.330	-0.126	0.161
-336.289	-127.158	-0.180	-0.026
-335.275	286.500	-0.018	0.033
-334.260	491.553	-0.097	-0.222
-333.245	206.663	-0.117	-0.182
-332.231	-135.449	0.122	0.014
-331.216	425.582	-0.084	-0.180
-330.202	174.819	0.171	0.246
-329.187	148.126	0.083	-0.111
-328.172	-60.215	-0.316	-0.134
-327.158	-120.112	0.172	-0.029
-326.143	-200.000	0.022	0.245
-325.129	-133.998	-0.215	0.026
-324.114	81.317	-0.304	-0.327
-323.099	-200.000	-0.060	0.318
-322.085	800.000	0.064	0.231
-321.070	-109.989	0.377	-0.078
-320.056	-30.324	-0.097	-0.055
-319.041	-200.000	0.010	0.114
-318.026	-200.000	-0.045	0.305
-317.012	-200.000	-0.023	0.167
-315.997	289.303	0.070	0.126
-314.983	164.700	-0.230	0.323
-313.968	-83.888	0.210	-0.066
-312.953	-98.445	0.118	-0.030
-311.939	-200.000	-0.003	0.244
-310.924	-200.000	0.043	0.190
-309.910	381.370	0.265	-0.541
-308.895	325.280	-0.146	-0.277
-307.880	23.072	0.216	-0.176
-306.866	-200.000	0.007	-0.243
-305.851	51.341	-0.031	-0.029
-304.837	-143.903	0.121	0.011
-303.822	153.175	0.222	0.302
-302.807	86.841	-0.142	0.155
-301.793	28.303	0.091	0.077
-300.778	220.963	0.096	-0.154
-299.764	-50.906	-0.190	-0.089
-298.749	800.000	0.095	0.264
-297.735	800.000	-0.092	0.380
-296.720	-66.566	-0.373	-0.147
-295.705	-94.350	0.296	-0.080
-294.691	317.485	-0.016	0.030
-293.676	-200.000	-0.016	0.116
-292.662	307.031	-0.113	-0.208
-291.647	58.324	-0.162	0.158
-290.632	-89.688	-0.242	0.071
-289.618	-87.074	-0.160	0.048
-288.603	-129.631	-0.224	-0.031
-287.589	-91.524	-0.572	0.162
-286.574	680.739	-0.071	-0.183
-285.559	230.226	-0.178	-0.289
-284.545	418.319	-0.066	-0.141
-283.530	702.202	0.118	0.310
-282.516	-137.684	-0.132	-0.015
-281.501	-95.301	0.163	-0.044
-280.486	-73.026	0.268	-0.098
-279.472	-105.625	-0.127	0.029
-278.457	-70.658	-0.227	0.085
-277.443	176.069	0.101	0.146
-276.428	-37.164	-0.022	-0.012
-275.413	227.355	-0.109	0.176
-274.399	-76.539	-0.236	-0.082
-273.384	-123.046	0.314	0.050
-272.370	-200.000	0.046	-0.269
-271.355	-47.476	-0.224	-0.108
-270.340	-25.504	0.450	-0.264
-269.326	581.133	0.033	-0.081
-268.311	52.798	0.107	0.102
-267.297	122.550	0.129	0.160
-266.282	459.171	0.132	-0.291
-265.267	-45.206	-0.311	-0.153
-264.253	343.210	-0.048	0.093
-263.238	-94.382	-0.245	0.066
-262.224	800.000	0.082	0.231
-261.209	-160.515	0.513	0.027
-260.195	-47.872	0.240	-0.116
-259.180	174.938	0.069	-0.099
-258.165	97.161	-0.393	0.447
-257.151	-60.520	-0.193	-0.081
-256.136	745.604	-0.025	0.067
-255.122	-100.035	-0.117	-0.029
-254.107	800.000	-0.024	-0.096
-253.092	-80.304	0.231	-0.077
-252.078	-200.000	-0.001	0.120
-251.063	-181.686	-0.205	0.004
-250.049	266.594	0.081	0.140
-249.034	-22.588	-0.082	0.049
-248.019	800.000	0.105	0.316
-247.005	-200.000	-0.010	0.174
-245.990	-110.869	-0.269	0.055
-244.976	-200.000	0.007	-0.482
-243.961	800.000	0.090	-0.252
-242.946	-11.085	0.271	0.177
-241.932	102.068	0.292	-0.339
-240.917	-110.161	0.178	-0.037
-239.903	-200.000	-0.017	-0.294
-238.888	-113.937	0.201	0.039
-237.873	109.366	-0.080	0.095
-236.859	800.000	0.061	0.193
-235.844	-17.918	0.234	0.145
-234.830	211.622	-0.177	0.276
-233.815	-29.591	-0.118	0.067
-232.800	-145.790	-0.018	-0.002
-231.786	-38.589	0.077	0.040
-230.771	-33.644	0.138	0.076
-229.757	800.000	0.055	0.170
-228.742	-94.836	-0.135	-0.036
-227.727	800.000	0.043	-0.147
-226.713	224.569	0.191	0.307
-225.698	800.000	-0.062	-0.224
-224.684	156.315	-0.130	-0.179
-223.669	117.413	0.063	-0.077
-222.655	-49.041	0.174	0.083
-221.640	-136.075	0.258	0.030
-220.625	29.554	0.244	-0.206
-219.611	-99.344	0.283	0.071
-218.596	-112.126	-0.179	-0.036
-217.582	800.000	-0.054	-0.158
-216.567	553.394	0.073	-0.175
-215.552	-200.000	0.017	-0.116
-214.538	-112.847	0.121	-0.024
-213.523	-84.446	-0.195	0.061
-212.509	70.861	-0.071	-0.072
-211.494	216.314	-0.225	-0.355
-210.479	-36.516	-0.275	0.146
-209.465	-12.127	0.167	-0.108
-208.450	27.225	-0.228	-0.190
-207.436	-0.121	0.312	-0.220
-206.421	241.519	0.050	-0.084
-205.406	642.910	-0.039	-0.097
-204.392	800.000	0.047	-0.140
-203.377	521.190	-0.099	0.229
-202.363	800.000	-0.033	-0.120
-201.348	396.780	0.195	0.403
-200.333	745.485	0.040	-0.107
-199.319	134.103	0.041	-0.053
-198.304	-200.000	-0.000	0.217
-197.290	-9.694	-0.173	-0.114
-196.275	-98.495	-0.428	-0.108
-195.260	-76.795	0.370	0.128
-194.246	-152.348	0.213	-0.015
-193.231	-126.112	-0.062	-0.009
-192.217	63.776	0.121	-0.120
-191.202	203.328	0.213	0.325
-190.187	800.000	-0.034	-0.107
-189.173	-197.744	-0.108	0.001
-188.158	63.954	0.106	-0.105
-187.144	-200.000	-0.047	0.234
-186.129	91.923	-0.192	-0.214
-185.114	-35.242	0.229	-0.123
-184.100	-120.107	-0.132	0.022
-183.085	79.014	0.081	0.085
-182.071	800.000	0.110	-0.338
-181.056	-200.000	-0.048	0.000
-180.042	349.149	0.071	-0.138
-179.027	169.440	0.138	-0.195
-178.012	555.772	-0.130	-0.310
-176.998	-36.491	-0.167	-0.089
-175.983	-66.252	0.118	-0.047
-174.969	-200.000	0.011	-0.286
-173.954	-1.375	0.158	0.110
-172.939	-200.000	0.025	0.338
-171.925	800.000	-0.044	-0.172
-170.910	257.782	-0.058	0.099
-169.896	800.000	0.103	-0.320
-168.881	-200.000	-0.033	0.235
-167.866	273.685	-0.068	0.119
-166.852	-200.000	0.067	0.326
-165.837	-44.066	0.157	0.078
-164.823	-91.035	0.152	-0.043
-163.808	4.516	-0.235	0.170
-162.793	285.876	0.092	0.163
-161.779	287.223	0.094	-0.169
-160.764	800.000	0.049	0.156
-159.750	-5.817	0.266	-0.180
-158.735	52.927	-0.138	-0.131
-157.720	800.000	-0.093	-0.397
-156.706	-200.000	-0.010	-0.150
-155.691	-164.299	-0.244	-0.011
-154.677	-13.770	-0.291	-0.186
-153.662	800.000	-0.097	-0.328
-152.647	139.763	0.097	-0.126
-151.633	800.000	-0.038	-0.124
-150.618	-200.000	0.033	-0.152
-149.604	397.584	0.173	0.358
-148.589	218.797	0.192	-0.303
-147.574	-57.350	0.291	-0.126
-146.560	-200.000	-0.035	-0.169
-145.545	65.055	-0.238	-0.238
-144.531	128.736	-0.047	-0.059
-143.516	-200.000	-0.024	0.112
-142.502	-119.269	0.149	0.026
-141.487	508.781	0.039	0.089
-140.472	-200.000	0.021	0.106
-139.458	-200.000	-0.072	0.316
-138.443	90.224	-0.042	-0.046
-137.429	-200.000	-0.059	0.365
-136.414	-158.602	-0.200	-0.011
-135.399	-52.031	-0.056	-0.026
-134.385	-141.393	0.361	0.036
-133.370	800.000	-0.024	-0.101
-132.356	-47.123	0.113	-0.054
-131.341	105.798	-0.049	-0.057
-130.326	-95.856	0.159	-0.042
-129.312	800.000	0.081	-0.260
-128.297	-200.000	-0.009	-0.072
-127.283	-84.777	0.398	-0.124
-126.268	-75.477	0.101	0.036
-125.253	67.152	0.125	0.126
-124.239	-6.626	0.134	0.090
-123.224	-200.000	0.005	0.211
-122.210	-200.000	-0.019	-0.328
-121.195	-24.714	-0.194	-0.114
-120.180	-200.000	0.010	-0.287
-119.166	-116.002	-0.256	-0.047
-118.151	-49.904	0.151	0.071
-117.137	-146.352	-0.125	0.011
-116.122	-82.007	-0.280	-0.090
-115.107	800.000	-0.034	-0.134
-114.093	-111.618	-0.228	0.046
-113.078	-148.094	-0.175	-0.014
-112.064	-68.827	0.443	0.169
-111.049	61.841	-0.093	-0.092
-110.034	-200.000	-0.007	-0.246
-109.020	-76.265	-0.276	-0.096
-108.005	27.130	0.186	-0.154
-106.991	768.192	0.119	0.320
-105.976	194.580	-0.125	-0.187
-104.962	-59.243	-0.251	0.107
-103.947	-34.094	0.341	0.185
-102.932	59.962	0.224	0.219
-101.918	125.322	-0.155	-0.192
-100.903	502.782	0.149	0.340
-99.889	38.997	0.117	-0.103
-98.874	-45.083	0.237	-0.116
-97.859	-78.065	-0.236	0.080
-96.845	189.286	0.113	-0.167
-95.830	54.886	-0.145	0.138
-94.816	560.844	-0.157	-0.375
-93.801	-2.811	0.057	0.039
-92.786	480.699	-0.167	0.374
-91.772	-200.000	-0.018	-0.203
-90.757	-200.000	0.028	-0.301
-89.743	-200.000	0.008	-0.084
-88.728	51.616	0.205	0.192
-87.713	-102.814	0.129	-0.030
-86.699	800.000	-0.044	0.148
-85.684	89.136	0.140	-0.154
-84.670	86.332	-0.207	-0.225
-83.655	599.797	-0.026	-0.065
-82.640	-129.874	0.349	0.047
-81.626	35.995	0.089	0.077
-80.611	-86.179	0.095	0.029
-79.597	-13.981	0.092	0.058
-78.582	130.684	-0.036	0.045
-77.567	52.760	0.132	0.125
-76.553	-48.089	0.208	-0.099
-75.538	-19.292	0.225	0.138
-74.524	148.748	-0.033	-0.044
-73.509	612.088	0.073	-0.181
-72.494	-200.000	-0.001	0.103
-71.480	-69.228	0.258	0.098
-70.465	-131.901	0.279	-0.036
-69.451	-200.000	-0.018	0.192
-68.436	-46.211	-0.201	-0.097
-67.422	-31.255	0.115	-0.064
-66.407	-1.387	-0.101	0.070
-65.392	800.000	0.139	-0.386
-64.378	-85.947	0.032	0.010
-63.363	800.000	0.118	-0.342
-62.349	-200.000	0.009	0.134
-61.334	52.419	-0.785	-0.738
-60.319	160.264	0.278	0.382
-59.305	800.000	-0.303	-1.027
-58.290	800.000	0.270	1.155
-57.276	800.000	0.434	1.619
-56.261	-200.000	93.441	529.721
-55.246	583.762	1378.803	3334.068
-54.232	184.161	2631.696	3836.518
-53.217	113.907	2332.973	2792.924
-52.203	45.622	1945.354	1769.546
-51.188	39.333	1731.540	1526.415
-50.173	36.596	1686.057	1465.550
-49.159	52.171	1733.576	1626.907
-48.144	55.733	1751.909	1671.436
-47.130	39.021	1707.795	1502.857
-46.115	36.119	1693.430	1468.092
-45.100	36.018	1687.872	1462.452
-44.086	35.907	1685.401	1459.412
-43.071	35.945	1682.771	1457.358
-42.057	35.898	1680.222	1454.742
-41.042	35.928	1677.979	1452.969
-40.027	36.035	1676.493	1452.431
-39.013	35.875	1674.924	1449.808
-37.998	35.906	1672.728	1448.082
-36.984	35.998	1671.531	1447.683
-35.969	36.029	1669.924	1446.461
-34.954	36.173	1668.226	1446.013
-33.940	36.134	1666.656	1444.305
-32.925	36.083	1664.795	1442.254
-31.911	36.143	1663.132	1441.201
-30.896	36.152	1661.530	1439.828
-29.881	36.097	1659.788	1437.849
-28.867	36.026	1658.610	1436.245
-27.852	36.051	1656.936	1434.922
-26.838	36.053	1655.646	1433.766
-25.823	36.036	1654.280	1432.396
-24.809	36.035	1652.991	1431.218
-23.794	36.088	1650.923	1429.759
-22.779	36.165	1649.264	1428.835
-21.765	36.144	1647.743	1427.305
-20.750	36.136	1645.961	1425.647
-19.736	36.082	1644.576	1423.993
-18.721	36.190	1642.832	1423.222
-17.706	36.122	1641.298	1421.336
-16.692	36.082	1639.982	1419.851
-15.677	36.239	1638.199	1419.402
-14.663	36.190	1637.139	1418.066
-13.648	36.145	1635.560	1416.312
-12.633	36.152	1634.468	1415.365
-11.619	36.163	1632.276	1413.486
-10.604	36.212	1630.975	1412.663
-9.590	36.184	1629.724	1411.318
-8.575	36.091	1628.484	1409.507
-7.560	36.099	1627.789	1408.911
-6.546	36.046	1626.238	1407.122
-5.531	36.123	1624.884	1406.462
-4.517	36.141	1624.057	1405.817
-3.502	36.122	1622.653	1404.409
-2.487	36.134	1621.063	1403.064
-1.473	35.759	1608.811	1389.699
-0.458	32.325	1587.730	1346.893
0.556	25.361	1585.462	1305.287
1.571	22.614	1609.082	1304.324
2.586	21.977	1623.249	1310.936
3.600	19.808	1571.043	1252.964
4.615	10.830	1456.518	1100.962
5.629	1.596	1386.964	988.503
6.644	-0.294	1377.300	969.327
7.659	-0.308	1375.630	967.970
8.673	-0.452	1374.532	966.185
9.688	-0.496	1373.170	964.863
10.702	-0.703	1370.186	961.350
11.717	2.704	1376.894	987.945
12.731	11.937	1395.338	1061.148
13.746	18.018	1404.634	1107.664
14.761	18.067	1403.504	1106.992
15.775	18.052	1402.421	1105.942
16.790	18.044	1402.615	1105.943
17.804	18.260	1401.577	1106.424
18.819	18.354	1401.108	1106.562
19.834	18.389	1400.756	1106.412
20.848	18.300	1400.010	1105.154
21.863	18.444	1398.566	1104.840
22.877	18.319	1397.884	1103.400
23.892	18.342	1397.152	1102.874
24.907	18.304	1396.132	1101.724
25.921	18.391	1395.229	1101.476
26.936	18.317	1394.459	1100.293
27.950	18.444	1392.918	1099.798
28.965	18.416	1391.682	1098.544
29.980	18.446	1390.306	1097.556
30.994	18.430	1388.820	1096.180
32.009	18.273	1388.550	1094.868
33.023	18.307	1386.872	1093.667
34.038	18.326	1385.753	1092.807
35.053	18.340	1384.935	1092.153
36.067	18.317	1383.513	1090.788
37.082	18.295	1382.939	1090.100
38.096	18.322	1381.530	1089.065
39.111	18.320	1380.688	1088.292
40.126	18.260	1379.953	1087.233
41.140	18.379	1379.358	1087.423
42.155	18.326	1378.744	1086.509
43.169	18.332	1379.201	1086.810
44.184	18.320	1378.854	1086.362
45.199	18.222	1378.595	1085.439
46.213	18.404	1377.454	1085.603
47.228	18.346	1376.834	1084.649
48.242	18.369	1375.216	1083.421
49.257	18.376	1373.560	1082.067
50.271	18.413	1371.940	1080.927
51.286	18.346	1370.770	1079.490
52.301	18.292	1369.961	1078.417
53.315	18.345	1368.788	1077.733
54.330	18.247	1368.462	1076.764
55.344	18.314	1366.856	1075.825
56.359	18.249	1366.053	1074.693
57.374	18.235	1365.111	1073.767
58.388	18.304	1364.046	1073.265
59.403	18.406	1363.531	1073.407
60.417	18.413	1362.752	1072.743
61.432	18.392	1361.784	1071.753
62.447	18.364	1361.058	1070.912
63.461	18.375	1359.552	1069.702
64.476	18.374	1358.652	1068.890
65.490	18.300	1357.679	1067.569
66.505	18.396	1355.616	1066.449
67.520	18.361	1354.473	1065.237
68.534	18.393	1353.543	1064.611
69.549	18.294	1352.825	1063.339
70.563	18.301	1351.863	1062.530
71.578	18.425	1350.448	1062.096
72.593	18.442	1349.509	1061.369
73.607	18.375	1349.321	1060.711
74.622	18.409	1347.768	1059.606
75.636	18.428	1347.492	1059.413
76.651	18.365	1346.497	1058.147
77.666	18.390	1345.930	1057.762
78.680	18.365	1345.233	1056.968
79.695	18.286	1344.715	1055.982
80.709	18.384	1343.624	1055.636
81.724	18.354	1343.034	1054.891
82.739	18.405	1341.604	1053.990
83.753	18.380	1340.696	1053.029
84.768	18.296	1339.782	1051.699
85.782	18.335	1338.520	1050.859
86.797	18.325	1337.361	1049.793
87.812	18.398	1335.666	1048.818
88.826	18.382	1334.713	1047.875
89.841	18.351	1333.488	1046.635
90.855	18.387	1333.091	1046.448
91.870	18.266	1331.895	1044.676
92.884	18.283	1330.795	1043.828
93.899	18.414	1330.189	1044.059
94.914	18.510	1328.985	1043.605
95.928	18.424	1328.154	1042.335
96.943	18.444	1327.513	1041.865
97.957	18.403	1326.777	1040.946
98.972	18.513	1325.746	1040.714
99.987	18.446	1324.492	1039.230
101.001	18.415	1323.349	1038.055
102.016	18.326	1322.538	1036.784
103.030	18.357	1321.686	1036.213
104.045	18.513	1320.299	1035.979
105.060	18.588	1318.844	1035.194
106.074	18.400	1318.482	1033.689
107.089	18.505	1317.058	1033.109
108.103	18.448	1316.022	1031.865
109.118	18.442	1315.323	1031.187
110.133	18.474	1313.723	1030.038
111.147	18.443	1312.343	1028.675
112.162	18.502	1311.466	1028.251
113.176	18.531	1309.898	1027.106
114.191	18.389	1309.257	1025.660
115.206	18.474	1308.018	1025.108
116.220	18.468	1306.699	1023.951
117.235	18.459	1305.849	1023.140
118.249	18.446	1304.575	1021.971
119.264	18.510	1303.821	1021.674
120.279	18.541	1302.692	1020.883
121.293	18.505	1301.614	1019.729
122.308	18.531	1300.490	1018.918
123.322	18.604	1299.392	1018.396
124.337	18.604	1297.945	1017.172
125.352	18.537	1297.394	1016.255
126.366	18.599	1296.030	1015.464
127.381	18.654	1295.146	1015.008
128.395	18.571	1294.326	1013.782
129.410	18.473	1293.540	1012.502
130.424	18.622	1292.021	1012.103
131.439	18.585	1291.846	1011.654
132.454	18.556	1290.744	1010.532
133.468	18.483	1290.000	1009.431
134.483	18.510	1289.213	1008.886
135.497	18.564	1288.591	1008.626
136.512	18.518	1286.846	1006.897
137.527	18.589	1285.376	1006.079
138.541	18.570	1283.937	1004.750
139.556	18.495	1283.474	1003.858
140.570	18.548	1282.050	1002.968
141.585	18.509	1280.820	1001.687
142.600	18.556	1279.762	1001.049
143.614	18.555	1278.539	999.996
144.629	18.522	1277.250	998.706
145.643	18.461	1276.569	997.731
146.658	18.409	1275.436	996.457
147.673	18.433	1274.301	995.620
148.687	18.418	1273.288	994.653
149.702	18.409	1272.018	993.521
150.716	18.424	1270.902	992.648
151.731	18.580	1269.883	992.669
152.746	18.472	1268.862	991.158
153.760	18.602	1267.365	990.653
154.775	18.589	1266.688	989.958
155.789	18.609	1265.482	989.045
156.804	18.547	1264.515	987.842
157.819	18.530	1263.377	986.767
158.833	18.546	1262.620	986.182
159.848	18.644	1261.689	985.930
160.862	18.562	1260.998	984.833
161.877	18.587	1260.358	984.389
162.892	18.568	1259.340	983.401
163.906	18.636	1258.610	983.130
164.921	18.563	1257.856	982.040
165.935	18.604	1256.794	981.357
166.950	18.574	1256.060	980.524
167.964	18.621	1255.847	980.541
168.979	18.639	1254.642	979.614
169.994	18.631	1254.328	979.238
171.008	18.636	1253.390	978.450
172.023	18.694	1252.515	978.007
173.037	18.692	1251.838	977.382
174.052	18.744	1251.045	976.972
175.067	18.703	1250.357	976.114
176.081	18.603	1249.422	974.732
177.096	18.689	1248.743	974.601
178.110	18.649	1247.522	973.335
179.125	18.639	1246.546	972.432
180.140	18.633	1245.796	971.728
181.154	18.689	1244.109	970.643
182.169	18.737	1242.880	969.869
183.183	18.757	1242.035	969.237
184.198	18.714	1241.259	968.304
185.213	18.701	1240.515	967.564
186.227	18.749	1239.313	966.809
187.242	18.695	1238.679	965.925
188.256	18.662	1237.650	964.851
189.271	18.603	1237.159	964.051
190.286	18.738	1236.385	964.122
191.300	18.750	1235.547	963.451
192.315	18.704	1235.249	962.875
193.329	18.689	1234.329	961.987
194.344	18.795	1233.887	962.156
195.359	18.798	1233.008	961.398
196.373	18.688	1232.357	960.195
197.388	18.573	1232.602	959.651
198.402	18.612	1232.461	959.676
199.417	18.633	1231.610	959.050
200.432	18.874	1230.465	959.418
201.446	18.680	1230.168	958.019
202.461	18.685	1229.159	957.173
203.475	18.620	1228.278	956.043
204.490	18.655	1227.090	955.227
205.504	18.764	1225.912	954.834
206.519	18.726	1225.578	954.274
207.534	18.717	1224.404	953.228
208.548	18.682	1223.782	952.465
209.563	18.746	1222.508	951.745
210.577	18.884	1221.404	951.564
211.592	18.745	1220.748	950.199
212.607	18.817	1219.760	949.746
213.621	18.819	1219.454	949.436
214.636	18.815	1218.561	948.632
215.650	18.778	1217.589	947.586
216.665	18.777	1216.854	946.928
217.680	18.785	1215.844	946.098
218.694	18.856	1214.816	945.609
219.709	18.907	1214.308	945.407
220.723	18.843	1213.587	944.410
221.738	18.865	1212.625	943.699
222.753	18.816	1212.272	943.072
223.767	18.834	1211.417	942.425
224.782	18.989	1211.173	942.998
225.796	18.918	1210.490	941.997
226.811	18.949	1209.577	941.374
227.826	18.898	1209.081	940.623
228.840	18.997	1208.388	940.542
229.855	18.899	1208.056	939.664
230.869	18.903	1207.273	938.997
231.884	18.924	1206.147	938.151
232.899	18.915	1205.686	937.662
233.913	18.978	1205.111	937.474
234.928	18.884	1204.984	936.779
235.942	19.046	1203.971	936.790
236.957	19.012	1203.084	935.832
237.972	19.017	1202.578	935.383
238.986	18.912	1201.835	934.151
240.001	18.967	1201.601	934.186
241.015	19.012	1200.598	933.566
242.030	19.154	1199.609	933.484
243.045	19.071	1198.927	932.427
244.059	19.026	1198.253	931.575
245.074	19.031	1197.319	930.789
246.088	19.150	1196.272	930.541
247.103	19.115	1195.717	929.834
248.117	19.002	1195.123	928.681
249.132	19.078	1194.517	928.540
250.147	19.193	1193.405	928.214
251.161	19.156	1192.955	927.581
252.176	19.160	1192.261	926.983
253.190	19.147	1191.179	925.986
254.205	19.158	1190.867	925.722
255.220	19.120	1190.094	924.832
256.234	19.170	1189.383	924.467
257.249	19.139	1188.955	923.888
258.263	19.119	1188.691	923.491
259.278	19.122	1188.245	923.083
260.293	19.167	1187.475	922.642
261.307	19.123	1186.943	921.910
262.322	19.144	1186.062	921.257
263.336	19.209	1185.599	921.165
264.351	19.106	1185.014	920.077
265.366	19.212	1184.086	919.842
266.380	19.182	1183.503	919.148
267.395	19.125	1182.819	918.232
268.409	19.146	1182.215	917.792
269.424	19.260	1181.650	917.882
270.439	19.203	1181.059	917.037
271.453	19.259	1180.266	916.638
272.468	19.169	1179.465	915.459
273.482	19.101	1179.000	914.652
274.497	19.292	1178.057	914.857
275.512	19.298	1177.399	914.296
276.526	19.294	1177.020	913.896
277.541	19.320	1176.215	913.331
278.555	19.355	1175.538	912.909
279.570	19.351	1174.835	912.263
280.585	19.273	1173.891	911.036
281.599	19.340	1173.061	910.663
282.614	19.297	1172.352	909.809
283.628	19.401	1171.073	909.279
284.643	19.380	1170.302	908.489
285.657	19.357	1169.609	907.751
286.672	19.251	1168.742	906.443
287.687	19.396	1167.651	906.276
288.701	19.457	1167.181	906.154
289.716	19.425	1166.444	905.334
290.730	19.324	1166.268	904.585
291.745	19.407	1165.106	904.041
292.760	19.554	1164.460	904.229
293.774	19.438	1164.001	903.185
294.789	19.527	1163.792	903.406
295.803	19.540	1162.959	902.751
296.818	19.392	1162.537	901.571
297.833	19.563	1161.204	901.345
298.847	19.536	1160.722	900.751
299.862	19.610	1159.897	900.417
300.876	19.443	1159.583	899.226
301.891	19.508	1158.769	898.851
302.906	19.448	1158.111	897.951
303.920	19.576	1157.714	898.228
304.935	19.528	1156.836	897.218
305.949	19.522	1156.093	896.531
306.964	19.602	1155.407	896.338
307.979	19.599	1154.997	895.920
308.993	19.665	1154.459	895.768
310.008	19.676	1153.402	894.927
311.022	19.560	1153.008	893.942
312.037	19.678	1151.560	893.350
313.052	19.581	1150.926	892.274
314.066	19.602	1150.224	891.760
315.081	19.710	1149.206	891.453
316.095	19.749	1148.325	890.892
317.110	19.663	1148.130	890.219
318.125	19.682	1147.343	889.625
319.139	19.669	1146.700	888.980
320.154	19.596	1146.395	888.289
321.168	19.698	1145.944	888.385
322.183	19.782	1144.907	887.936
323.197	19.722	1144.332	887.102
324.212	19.721	1143.529	886.394
325.227	19.678	1143.188	885.834
326.241	19.827	1142.471	885.965
327.256	19.723	1141.956	884.954
328.270	19.723	1140.939	884.086
329.285	19.731	1140.206	883.481
330.300	19.737	1139.194	882.652
331.314	19.655	1138.805	881.851
332.329	19.760	1137.522	881.317
333.343	19.753	1136.781	880.625
334.358	19.820	1136.001	880.285
335.373	19.859	1135.255	879.827
336.387	19.718	1135.116	878.926
337.402	19.897	1134.210	879.057
338.416	19.825	1133.226	877.850
339.431	19.857	1132.567	877.424
340.446	19.932	1131.627	876.999
341.460	19.922	1131.413	876.705
342.475	19.905	1130.629	875.933
343.489	19.986	1129.620	875.482
344.504	19.940	1128.576	874.367
345.519	20.033	1127.357	873.813
346.533	20.040	1126.728	873.284
347.548	19.985	1126.374	872.652
348.562	20.019	1125.632	872.173
349.577	19.975	1125.148	871.498
350.592	19.957	1124.377	870.734
351.606	20.000	1123.543	870.229
352.621	20.077	1122.906	870.045
353.635	20.025	1122.602	869.471
354.650	20.009	1121.634	868.561
355.665	20.066	1121.013	868.289
356.679	20.066	1120.453	867.780
357.694	20.213	1119.865	867.986
358.708	20.038	1119.574	866.804
359.723	20.084	1118.450	866.091
360.738	20.149	1117.678	865.739
361.752	20.013	1117.297	864.686
362.767	20.191	1116.407	864.813
363.781	20.143	1116.211	864.345
364.796	20.183	1115.704	864.073
365.810	20.211	1114.855	863.479
366.825	20.142	1114.562	862.832
367.840	20.305	1113.992	863.124
368.854	20.224	1113.332	862.136
369.869	20.250	1112.388	861.459
370.883	20.092	1112.299	860.527
371.898	20.193	1111.504	860.337
372.913	20.194	1110.627	859.585
373.927	20.227	1110.193	859.339
374.942	20.312	1109.575	859.205
375.956	20.300	1108.992	858.619
376.971	20.252	1108.376	857.827
377.986	20.231	1108.133	857.459
379.000	20.393	1107.307	857.548
380.015	20.419	1106.513	856.983
381.029	20.362	1105.868	856.128
382.044	20.343	1105.500	855.670
383.059	20.337	1104.883	855.091
384.073	20.309	1104.298	854.421
385.088	20.452	1103.008	854.055
386.102	20.404	1102.189	853.108
387.117	20.369	1101.441	852.279
388.132	20.388	1100.567	851.622
389.146	20.354	1099.941	850.893
390.161	20.375	1099.353	850.468
391.175	20.411	1098.591	849.981
392.190	20.516	1097.501	849.574
393.205	20.378	1096.676	848.185
394.219	20.449	1096.222	848.106
395.234	20.448	1095.264	847.284
396.248	20.481	1094.288	846.617
397.263	20.542	1093.262	846.046
398.278	20.458	1092.951	845.321
399.292	20.516	1092.143	844.902
400.307	20.619	1091.413	844.762
401.321	20.600	1091.014	844.291
402.336	20.595	1090.122	843.500
403.350	20.545	1089.330	842.567
404.365	20.684	1088.721	842.695
405.380	20.576	1088.139	841.651
406.394	20.652	1087.658	841.569
407.409	20.665	1086.764	840.867
408.423	20.671	1086.080	840.290
409.438	20.743	1085.320	839.978
410.453	20.709	1084.432	839.052
411.467	20.696	1083.766	838.402
412.482	20.583	1083.313	837.432
413.496	20.613	1082.227	836.661
414.511	20.671	1081.634	836.410
415.526	20.741	1081.100	836.259
416.540	20.743	1080.898	836.037
417.555	20.741	1080.264	835.461
418.569	20.713	1079.963	835.020
419.584	20.737	1079.868	834.990
420.599	20.838	1079.118	834.819
421.613	146.408	1395.636	1789.166
422.628	135.238	1441.739	1789.277
