DTS Sentinel unit serial number:	SN413079Multiplexer serial number:	ORYXHardware model number:	OX4-SRSoftware version number:	ORYX F/W v4.00 Oryx Data Collector v3.7.2.0data status	okinstallation	princeton_trtdifferential loss correction	single-endedforward channel	channel 2reverse channel	N/Adate	2019/09/13time	17:51:35forward acquisition time	60.00reverse acquisition time	0.00gamma	496.2192k internal	0.2317k external	0.2317temperature offset calibration	1.0217default loss term (dB/km)	0.3790temperature slope calibration	1.0000multiplexer offset coefficient	1.0000multiplexer slope coefficient	1.0000fibre end	0.00T internal ref (°C)	35.44T ext. ref 1 (°C)	5.00T ext. ref 2 (°C)	28.65length (m)	temperature (°C)	Stokes	anti-Stokes-747.200	-200.000	0.003	0.178
-746.185	800.000	-0.132	0.581
-745.171	122.725	0.172	0.218
-744.156	-35.045	0.123	0.068
-743.142	-176.177	0.248	0.007
-742.127	-97.788	-0.282	0.074
-741.112	3.626	0.158	-0.117
-740.098	-200.000	-0.069	0.412
-739.083	-125.187	0.189	0.029
-738.069	-200.000	-0.005	0.377
-737.054	-200.000	-0.029	0.254
-736.039	-199.699	-0.442	0.002
-735.025	-102.799	0.327	-0.079
-734.010	-200.000	0.095	-0.563
-732.996	-123.592	-0.133	-0.021
-731.981	-136.333	0.240	-0.028
-730.966	12.696	-0.102	0.080
-729.952	800.000	-0.038	-0.131
-728.937	174.402	-0.214	-0.313
-727.923	16.191	-0.125	-0.100
-726.908	116.490	0.319	-0.396
-725.894	-123.863	-0.010	0.002
-724.879	-12.892	0.236	-0.156
-723.864	-200.000	-0.004	-0.034
-722.850	437.031	-0.042	-0.093
-721.835	-61.442	-0.140	0.060
-720.821	800.000	0.050	-0.153
-719.806	800.000	-0.024	0.102
-718.791	-66.748	-0.319	0.128
-717.777	-200.000	-0.052	-0.248
-716.762	304.540	0.189	-0.355
-715.748	-136.902	0.276	-0.032
-714.733	149.700	-0.172	0.235
-713.718	-65.530	-0.196	0.080
-712.704	-40.709	0.110	-0.058
-711.689	800.000	-0.114	-0.350
-710.675	-176.965	0.452	-0.012
-709.660	-117.645	0.122	0.022
-708.645	-177.548	-0.154	-0.004
-707.631	35.540	0.145	0.129
-706.616	-200.000	-0.026	0.152
-705.602	-200.000	0.003	0.388
-704.587	393.194	-0.043	-0.091
-703.572	-149.812	-0.342	-0.027
-702.558	23.679	-0.215	0.179
-701.543	-200.000	0.000	0.000
-700.529	543.718	0.163	-0.393
-699.514	-200.000	0.033	-0.420
-698.499	-200.000	-0.010	0.140
-697.485	-200.000	-0.013	0.151
-696.470	800.000	-0.049	-0.211
-695.456	-103.793	0.295	-0.070
-694.441	-8.629	0.187	0.127
-693.426	-200.000	-0.034	0.281
-692.412	533.838	-0.178	0.427
-691.397	129.921	-0.040	0.051
-690.383	75.148	-0.079	-0.085
-689.368	192.975	0.139	0.213
-688.354	-74.478	0.190	0.069
-687.339	-26.854	-0.255	-0.150
-686.324	-200.000	-0.001	-0.109
-685.310	699.872	-0.049	0.130
-684.295	-200.000	0.002	0.061
-683.281	61.470	0.114	-0.114
-682.266	486.613	-0.259	0.597
-681.251	-109.933	-0.201	0.042
-680.237	800.000	0.032	0.121
-679.222	-87.717	-0.321	-0.098
-678.208	18.090	-0.099	-0.080
-677.193	-92.497	-0.060	-0.017
-676.178	-120.745	-0.264	-0.045
-675.164	-200.000	-0.031	-0.311
-674.149	-71.026	0.311	-0.118
-673.135	-85.160	-0.141	0.045
-672.120	50.854	-0.144	-0.138
-671.105	476.886	0.069	-0.159
-670.091	-200.000	0.055	-0.475
-669.076	42.820	-0.349	-0.321
-668.062	-135.470	0.388	0.047
-667.047	307.962	0.127	0.239
-666.032	12.276	-0.200	-0.155
-665.018	-147.655	0.286	0.024
-664.003	-159.650	-0.150	0.008
-662.989	11.561	-0.229	-0.178
-661.974	-200.000	-0.003	-0.182
-660.959	-106.475	-0.389	-0.088
-659.945	380.304	0.083	0.172
-658.930	-73.805	-0.137	-0.050
-657.916	-200.000	0.037	-0.198
-656.901	-200.000	-0.139	0.000
-655.886	-200.000	-0.069	-0.543
-654.872	-30.184	-0.207	0.118
-653.857	75.815	-0.158	0.168
-652.843	-125.409	-0.151	0.023
-651.828	-49.430	-0.199	0.096
-650.814	226.011	0.100	-0.164
-649.799	-123.502	-0.383	0.061
-648.784	122.125	0.169	-0.213
-647.770	143.227	-0.080	0.107
-646.755	-131.683	-0.127	-0.017
-645.741	800.000	0.019	-0.060
-644.726	800.000	-0.096	0.323
-643.711	51.062	0.153	0.146
-642.697	131.663	0.203	-0.263
-641.682	-2.069	0.115	0.082
-640.668	-200.000	-0.006	0.095
-639.653	-200.000	0.035	0.217
-638.638	266.408	0.155	-0.273
-637.624	800.000	0.039	-0.113
-636.609	727.793	0.047	-0.126
-635.595	31.244	-0.114	-0.098
-634.580	-200.000	-0.029	0.159
-633.565	529.741	-0.148	0.353
-632.551	246.407	0.069	-0.118
-631.536	-141.626	0.262	-0.027
-630.522	800.000	-0.053	-0.190
-629.507	-200.000	-0.020	0.144
-628.492	27.577	-0.190	-0.161
-627.478	800.000	-0.008	-0.033
-626.463	-85.832	0.116	-0.036
-625.449	800.000	0.077	0.233
-624.434	-32.202	-0.178	-0.100
-623.419	230.851	0.133	0.219
-622.405	421.849	0.103	0.222
-621.390	-90.981	-0.219	-0.063
-620.376	-42.010	0.103	-0.053
-619.361	-59.207	-0.158	-0.069
-618.346	-87.045	0.344	0.106
-617.332	-200.000	0.032	0.236
-616.317	-19.177	-0.249	-0.156
-615.303	-105.135	0.175	-0.040
-614.288	800.000	-0.097	0.375
-613.273	-83.657	-0.176	-0.057
-612.259	-47.600	-0.113	-0.055
-611.244	254.685	-0.228	-0.393
-610.230	-17.895	-0.106	-0.067
-609.215	2.536	-0.275	0.201
-608.201	-96.427	-0.202	-0.054
-607.186	206.289	-0.038	-0.060
-606.171	-200.000	0.016	-0.168
-605.157	555.000	0.062	0.150
-604.142	800.000	-0.031	-0.086
-603.128	62.311	-0.138	-0.138
-602.113	-81.640	-0.203	-0.067
-601.098	-102.859	-0.492	-0.118
-600.084	-15.062	0.289	-0.187
-599.069	-3.213	0.122	-0.086
-598.055	-154.250	-0.122	-0.008
-597.040	72.847	0.079	-0.083
-596.025	-57.571	0.347	-0.153
-595.011	208.835	0.081	-0.127
-593.996	-200.000	0.024	0.249
-592.982	127.617	0.096	-0.123
-591.967	-56.636	0.174	-0.077
-590.952	104.967	-0.112	-0.133
-589.938	-64.969	-0.055	-0.022
-588.923	-103.249	0.139	-0.033
-587.909	69.595	-0.172	0.178
-586.894	159.050	0.115	-0.161
-585.879	48.573	0.046	0.044
-584.865	-148.833	0.063	-0.005
-583.850	-135.623	-0.290	0.035
-582.836	124.849	0.094	-0.119
-581.821	257.117	-0.083	0.144
-580.806	208.575	0.132	-0.208
-579.792	218.617	0.085	-0.137
-578.777	119.806	0.198	-0.247
-577.763	-36.278	0.166	-0.090
-576.748	87.514	-0.108	-0.121
-575.733	370.010	0.158	0.322
-574.719	800.000	0.068	0.247
-573.704	-101.114	0.379	-0.093
-572.690	-111.724	0.243	0.049
-571.675	-83.153	0.087	-0.028
-570.661	8.867	0.217	0.164
-569.646	-25.669	-0.347	-0.206
-568.631	-3.449	-0.229	-0.161
-567.617	14.033	0.209	-0.164
-566.602	-52.727	-0.198	-0.092
-565.588	-145.206	-0.128	0.012
-564.573	-200.000	0.017	-0.337
-563.558	-93.332	0.153	-0.043
-562.544	67.867	-0.063	-0.064
-561.529	-64.620	-0.295	-0.120
-560.515	800.000	-0.087	-0.368
-559.500	-30.501	0.277	-0.158
-558.485	-200.000	0.012	-0.099
-557.471	-62.216	0.252	0.106
-556.456	105.858	0.058	-0.069
-555.442	-200.000	0.040	-0.197
-554.427	179.580	-0.103	0.152
-553.412	-127.153	0.210	0.031
-552.398	209.654	-0.148	0.233
-551.383	609.867	0.088	0.221
-550.369	-43.982	-0.205	0.104
-549.354	-200.000	-0.017	-0.229
-548.339	94.603	0.206	0.235
-547.325	186.961	-0.235	0.353
-546.310	-200.000	-0.031	0.441
-545.296	-200.000	0.000	0.349
-544.281	515.105	-0.093	0.218
-543.266	-200.000	-0.085	0.398
-542.252	-155.457	-0.357	0.023
-541.237	30.849	0.065	0.056
-540.223	-1.640	-0.261	0.185
-539.208	-200.000	0.007	0.181
-538.193	52.775	0.186	-0.178
-537.179	73.829	-0.192	-0.202
-536.164	-28.137	-0.248	-0.144
-535.150	174.795	0.139	-0.202
-534.135	-118.649	0.340	-0.060
-533.121	347.625	0.116	0.229
-532.106	38.693	-0.132	-0.118
-531.091	-112.503	-0.085	-0.017
-530.077	-200.000	0.048	0.304
-529.062	72.984	-0.083	0.087
-528.048	103.748	-0.054	0.064
-527.033	-200.000	0.004	-0.189
-526.018	-200.000	-0.030	0.138
-525.004	-149.288	0.082	0.007
-523.989	463.741	-0.050	-0.112
-522.975	1.600	0.237	-0.171
-521.960	-200.000	0.051	-0.339
-520.945	-13.831	-0.061	-0.040
-519.931	444.997	-0.070	-0.154
-518.916	32.171	0.167	0.144
-517.902	409.729	0.199	-0.424
-516.887	-136.764	0.230	0.027
-515.872	515.717	-0.187	0.437
-514.858	-68.010	-0.220	-0.086
-513.843	191.709	0.301	0.455
-512.829	-63.507	0.338	0.139
-511.814	22.136	0.142	0.116
-510.799	-89.870	-0.228	-0.067
-509.785	466.064	-0.047	-0.106
-508.770	13.325	0.275	0.214
-507.756	159.430	0.095	0.132
-506.741	312.120	0.131	-0.247
-505.726	-200.000	-0.001	0.094
-504.712	-79.058	-0.104	-0.035
-503.697	-200.000	0.068	0.324
-502.683	-150.319	0.256	0.020
-501.668	-17.529	0.332	-0.210
-500.653	-200.000	0.025	0.173
-499.639	-190.599	-0.159	-0.002
-498.624	-110.773	-0.237	0.049
-497.610	-45.506	0.192	-0.095
-496.595	-61.641	-0.187	-0.079
-495.581	111.537	0.105	-0.127
-494.566	-12.288	0.191	-0.125
-493.551	161.020	-0.164	-0.230
-492.537	103.530	-0.085	0.100
-491.522	-138.967	-0.250	-0.027
-490.508	800.000	-0.062	0.180
-489.493	800.000	0.078	0.303
-488.478	-200.000	-0.186	-0.001
-487.464	-200.000	0.006	0.127
-486.449	-24.175	-0.230	0.138
-485.435	-103.264	0.248	-0.059
-484.420	-45.955	-0.129	-0.064
-483.405	354.565	0.060	0.120
-482.391	-167.331	0.097	0.004
-481.376	39.512	-0.191	-0.172
-480.362	-46.240	-0.267	0.132
-479.347	75.024	-0.262	0.277
-478.332	-200.000	-0.016	0.174
-477.318	-53.781	0.297	-0.136
-476.303	800.000	-0.025	-0.075
-475.289	-128.604	0.145	-0.021
-474.274	711.529	-0.043	-0.114
-473.259	59.283	-0.114	-0.112
-472.245	-200.000	-0.028	-0.397
-471.230	-200.000	0.036	-0.356
-470.216	196.861	0.064	0.098
-469.201	-200.000	0.056	0.000
-468.186	-200.000	0.021	0.140
-467.172	36.115	0.170	0.150
-466.157	21.906	0.249	0.203
-465.143	66.166	-0.254	0.259
-464.128	385.457	0.188	-0.388
-463.113	-41.490	-0.064	0.033
-462.099	74.868	0.252	-0.266
-461.084	-38.810	0.436	0.230
-460.070	-65.069	0.253	0.102
-459.055	800.000	0.027	0.094
-458.040	73.517	-0.161	-0.169
-457.026	800.000	-0.055	-0.168
-456.011	678.303	-0.092	-0.240
-454.997	-12.250	-0.053	-0.035
-453.982	-135.021	0.158	-0.019
-452.968	800.000	0.109	-0.375
-451.953	-200.000	-0.001	-0.055
-450.938	-200.000	-0.062	-0.294
-449.924	-200.000	-0.012	0.336
-448.909	-159.552	-0.324	0.018
-447.895	61.255	0.019	0.019
-446.880	502.523	0.075	0.174
-445.865	237.273	-0.156	-0.258
-444.851	67.443	0.270	-0.276
-443.836	-54.851	-0.307	0.139
-442.822	-183.703	-0.247	0.004
-441.807	511.354	0.230	0.535
-440.792	-114.373	0.339	-0.065
-439.778	800.000	-0.126	-0.502
-438.763	-76.244	-0.106	0.037
-437.749	-87.196	-0.486	0.148
-436.734	-24.127	0.153	-0.092
-435.719	-200.000	-0.019	0.091
-434.705	800.000	-0.078	0.256
-433.690	800.000	0.024	0.099
-432.676	0.894	0.029	-0.021
-431.661	800.000	0.077	-0.299
-430.646	-122.578	0.190	-0.031
-429.632	-200.000	-0.019	-0.209
-428.617	183.793	0.072	0.107
-427.603	800.000	-0.007	0.023
-426.588	-74.738	-0.123	0.044
-425.573	-152.504	-0.050	0.004
-424.559	460.811	0.052	0.115
-423.544	154.835	0.050	-0.069
-422.530	105.763	0.098	-0.116
-421.515	-87.563	0.158	-0.048
-420.500	5.277	0.171	0.126
-419.486	-21.721	-0.083	-0.050
-418.471	-112.181	-0.357	0.072
-417.457	-19.829	0.187	-0.116
-416.442	-200.000	-0.049	-0.427
-415.428	78.625	-0.066	0.070
-414.413	-28.593	-0.127	-0.073
-413.398	13.391	0.299	0.232
-412.384	-110.452	-0.144	-0.030
-411.369	176.412	0.169	-0.246
-410.355	-42.603	0.090	-0.046
-409.340	323.687	-0.139	-0.265
-408.325	128.138	0.004	0.005
-407.311	-200.000	-0.008	0.279
-406.296	-76.885	0.330	0.115
-405.282	-138.523	0.284	0.031
-404.267	-200.000	0.022	-0.122
-403.252	-49.317	0.096	-0.046
-402.238	-64.917	0.159	-0.064
-401.223	-92.341	-0.165	-0.046
-400.209	-46.048	0.306	0.151
-399.194	800.000	-0.053	-0.158
-398.179	368.738	-0.175	-0.353
-397.165	211.417	-0.095	0.149
-396.150	45.017	0.145	0.133
-395.136	-146.521	-0.347	-0.030
-394.121	-131.588	-0.152	0.020
-393.106	365.835	-0.097	0.195
-392.092	-101.617	-0.049	0.012
-391.077	-200.000	-0.002	-0.299
-390.063	-4.937	0.265	-0.182
-389.048	-200.000	-0.040	0.311
-388.033	-200.000	-0.011	0.210
-387.019	-200.000	0.001	-0.149
-386.004	142.864	0.078	-0.104
-384.990	-109.299	0.250	0.053
-383.975	298.769	-0.147	-0.269
-382.960	-116.377	-0.432	-0.080
-381.946	-73.123	-0.213	0.078
-380.931	-44.192	0.247	0.124
-379.917	-63.389	0.085	0.035
-378.902	-175.442	0.046	0.001
-377.888	-200.000	-0.028	-0.147
-376.873	-40.669	-0.172	-0.089
-375.858	85.713	0.048	0.052
-374.844	-200.000	0.030	-0.174
-373.829	-70.384	0.178	0.067
-372.815	-78.630	0.273	-0.093
-371.800	-94.701	0.295	0.080
-370.785	-200.000	-0.066	0.477
-369.771	30.502	0.110	-0.094
-368.756	-200.000	-0.007	0.156
-367.742	-200.000	0.040	-0.257
-366.727	-180.720	0.187	-0.004
-365.712	366.608	-0.106	-0.214
-364.698	-200.000	-0.035	-0.288
-363.683	75.943	0.098	-0.103
-362.669	121.378	-0.127	0.158
-361.654	-127.216	-0.116	-0.017
-360.639	342.869	0.109	-0.213
-359.625	-200.000	0.022	-0.247
-358.610	-73.284	-0.212	-0.078
-357.596	-5.994	-0.154	0.105
-356.581	-132.669	0.133	0.017
-355.566	101.643	0.155	-0.181
-354.552	800.000	0.050	-0.189
-353.537	-98.933	-0.076	-0.019
-352.523	35.562	-0.177	0.155
-351.508	383.145	-0.145	0.297
-350.493	260.921	0.059	0.101
-349.479	319.591	-0.059	-0.111
-348.464	-171.673	-0.292	-0.010
-347.450	155.782	0.192	0.264
-346.435	-136.247	-0.269	0.031
-345.420	686.651	-0.073	-0.189
-344.406	800.000	0.063	-0.185
-343.391	-23.675	-0.229	-0.137
-342.377	52.182	0.089	0.084
-341.362	99.160	-0.079	0.091
-340.348	-200.000	-0.003	0.144
-339.333	-200.000	-0.017	-0.086
-338.318	-200.000	-0.045	0.338
-337.304	-200.000	0.067	0.369
-336.289	-121.144	0.129	0.022
-335.275	70.109	0.187	-0.193
-334.260	-200.000	-0.037	-0.364
-333.245	263.437	0.074	0.128
-332.231	606.246	-0.013	0.032
-331.216	-122.023	0.184	-0.030
-330.202	-7.936	-0.253	-0.170
-329.187	-108.256	0.193	-0.041
-328.172	-57.880	-0.092	0.040
-327.158	800.000	-0.081	-0.348
-326.143	-59.651	-0.375	0.160
-325.129	68.580	0.274	0.280
-324.114	-34.102	-0.132	-0.072
-323.099	61.638	-0.244	0.242
-322.085	-200.000	0.129	0.000
-321.070	61.536	0.125	-0.124
-320.056	-94.064	0.076	-0.021
-319.041	-100.835	0.198	0.048
-318.026	133.690	0.144	0.186
-317.012	800.000	0.057	-0.183
-315.997	372.577	0.041	-0.083
-314.983	-164.414	-0.230	0.010
-313.968	40.837	0.217	0.195
-312.953	-158.937	-0.237	0.013
-311.939	-111.811	0.196	-0.040
-310.924	43.392	-0.171	0.156
-309.910	3.550	0.130	0.095
-308.895	36.292	-0.108	-0.095
-307.880	-129.169	0.189	-0.026
-306.866	7.443	-0.099	-0.074
-305.851	-200.000	-0.059	0.332
-304.837	5.807	-0.264	0.194
-303.822	20.281	-0.198	-0.159
-302.807	-24.647	-0.269	0.159
-301.793	-12.027	-0.178	0.116
-300.778	14.129	-0.131	0.101
-299.764	-33.249	0.092	0.051
-298.749	77.289	-0.224	-0.237
-297.735	-200.000	-0.010	-0.085
-296.720	-162.770	0.233	0.011
-295.705	-69.521	-0.181	-0.069
-294.691	107.650	-0.128	0.151
-293.676	-24.343	-0.190	0.113
-292.662	-142.010	0.194	-0.019
-291.647	-200.000	0.011	0.319
-290.632	-151.660	0.363	-0.027
-289.618	-200.000	-0.001	-0.063
-288.603	-145.713	0.253	-0.022
-287.589	-200.000	0.024	-0.110
-286.574	-200.000	-0.012	-0.206
-285.559	-200.000	0.001	-0.090
-284.545	134.875	-0.137	-0.177
-283.530	-142.720	-0.139	-0.013
-282.516	414.101	-0.079	-0.167
-281.501	-8.970	-0.212	-0.141
-280.486	-200.000	0.010	-0.064
-279.472	-132.826	0.038	0.005
-278.457	-181.968	-0.343	-0.006
-277.443	-98.099	-0.123	0.032
-276.428	-9.658	0.149	0.099
-275.413	278.845	-0.087	0.155
-274.399	82.110	0.287	0.309
-273.384	-85.676	-0.319	-0.099
-272.370	-55.672	-0.165	0.073
-271.355	14.269	0.275	-0.213
-270.340	108.898	-0.246	-0.292
-269.326	-200.000	-0.017	-0.083
-268.311	-73.754	0.107	0.039
-267.297	-57.197	0.437	0.191
-266.282	-200.000	-0.073	0.423
-265.267	-40.664	0.067	0.034
-264.253	747.401	-0.111	0.298
-263.238	227.940	-0.030	0.048
-262.224	-1.284	0.287	0.201
-261.209	-0.839	-0.171	0.120
-260.195	-69.928	-0.158	0.060
-259.180	606.803	0.099	0.245
-258.165	38.224	-0.451	0.399
-257.151	-128.739	-0.360	-0.050
-256.136	-143.283	0.278	0.026
-255.122	112.082	-0.146	0.175
-254.107	-149.018	0.270	-0.022
-253.092	275.846	0.233	-0.411
-252.078	-2.326	0.124	-0.086
-251.063	-33.817	0.369	-0.202
-250.049	-200.000	0.033	-0.412
-249.034	145.695	-0.077	-0.102
-248.019	-46.755	-0.090	0.044
-247.005	-31.808	-0.171	0.095
-245.990	800.000	-0.023	-0.080
-244.976	-200.000	0.053	0.290
-243.961	210.971	0.089	0.138
-242.946	-200.000	0.049	0.246
-241.932	-6.389	0.381	0.258
-240.917	-200.000	0.287	0.001
-239.903	428.508	0.084	-0.180
-238.888	800.000	-0.068	-0.284
-237.873	-200.000	-0.016	0.326
-236.859	-44.036	0.193	0.096
-235.844	-192.342	-0.199	-0.002
-234.830	287.128	0.004	0.007
-233.815	800.000	0.027	-0.092
-232.800	190.342	-0.178	0.266
-231.786	221.954	-0.137	0.219
-230.771	-115.958	-0.219	0.041
-229.757	-100.131	-0.269	-0.067
-228.742	-200.000	0.076	-0.346
-227.727	267.345	0.147	-0.255
-226.713	-66.841	-0.210	0.083
-225.698	-173.963	-0.409	-0.012
-224.684	-65.347	-0.135	-0.054
-223.669	-46.737	0.308	-0.150
-222.655	-200.000	0.012	0.106
-221.640	-194.091	0.353	0.003
-220.625	-157.959	-0.354	-0.021
-219.611	118.056	-0.140	-0.171
-218.596	-38.596	0.143	-0.075
-217.582	526.741	-0.035	-0.081
-216.567	43.253	0.144	-0.130
-215.552	364.183	-0.029	0.057
-214.538	-105.071	-0.459	0.104
-213.523	123.627	-0.106	-0.131
-212.509	226.599	-0.073	0.117
-211.494	-9.365	0.067	-0.044
-210.479	-200.000	-0.009	0.094
-209.465	-123.796	-0.219	-0.034
-208.450	-77.806	-0.091	-0.031
-207.436	425.581	-0.116	0.248
-206.421	-27.657	-0.353	0.203
-205.406	-31.094	0.296	-0.166
-204.392	-200.000	-0.015	0.351
-203.377	47.682	-0.088	0.081
-202.363	-89.485	-0.129	-0.037
-201.348	-200.000	-0.007	-0.100
-200.333	107.804	0.119	0.141
-199.319	-97.439	0.213	-0.055
-198.304	800.000	-0.075	0.270
-197.290	-5.785	0.086	-0.058
-196.275	-95.296	-0.128	0.034
-195.260	412.833	0.047	0.099
-194.246	-35.076	0.269	0.145
-193.231	39.443	-0.113	0.100
-192.217	154.541	0.152	-0.207
-191.202	-36.902	-0.267	-0.142
-190.187	-32.479	-0.095	0.052
-189.173	-22.645	0.155	0.093
-188.158	-1.171	0.098	-0.069
-187.144	-121.852	-0.385	0.063
-186.129	-200.000	-0.051	-0.253
-185.114	-11.317	-0.194	0.127
-184.100	233.348	0.037	-0.060
-183.085	800.000	-0.088	0.266
-182.071	-200.000	-0.020	-0.089
-181.056	-35.821	0.163	-0.087
-180.042	-25.321	0.389	0.228
-179.027	189.104	0.115	-0.171
-178.012	116.044	0.016	-0.019
-176.998	122.349	0.143	-0.177
-175.983	-46.194	-0.178	0.087
-174.969	253.328	-0.119	0.201
-173.954	11.646	0.035	0.027
-172.939	-74.656	0.228	-0.081
-171.925	-200.000	-0.001	-0.105
-170.910	-3.977	-0.135	-0.092
-169.896	135.919	-0.102	0.131
-168.881	800.000	0.065	0.231
-167.866	-106.740	0.056	0.012
-166.852	153.335	0.056	-0.075
-165.837	-92.978	0.161	0.044
-164.823	-4.937	0.207	-0.141
-163.808	800.000	0.054	-0.210
-162.793	570.659	-0.101	0.242
-161.779	-200.000	0.451	0.001
-160.764	465.168	0.143	0.317
-159.750	800.000	0.117	-0.367
-158.735	-145.449	-0.349	-0.031
-157.720	800.000	-0.029	0.097
-156.706	-130.443	-0.225	0.030
-155.691	-48.862	-0.171	-0.081
-154.677	800.000	-0.010	0.031
-153.662	800.000	-0.050	-0.144
-152.647	296.656	-0.024	0.044
-151.633	-128.301	0.315	-0.044
-150.618	-87.293	-0.267	0.080
-149.604	146.417	-0.048	-0.064
-148.589	-22.451	-0.340	0.204
-147.574	-85.125	-0.073	0.022
-146.560	-20.732	0.134	0.081
-145.545	-200.000	0.010	-0.051
-144.531	53.095	-0.129	-0.122
-143.516	800.000	-0.055	0.166
-142.502	26.225	0.123	-0.101
-141.487	800.000	-0.067	-0.190
-140.472	-134.326	0.251	-0.030
-139.458	15.573	0.234	-0.182
-138.443	-200.000	-0.002	0.125
-137.429	349.363	-0.195	0.381
-136.414	2.786	0.126	-0.090
-135.399	-166.947	0.207	-0.008
-134.385	-92.657	-0.234	0.065
-133.370	-65.261	-0.259	0.103
-132.356	-77.233	-0.170	-0.058
-131.341	-200.000	-0.043	-0.374
-130.326	92.413	-0.066	0.073
-129.312	-100.900	0.192	-0.047
-128.297	-128.080	-0.180	0.025
-127.283	235.725	0.066	-0.108
-126.268	80.057	-0.175	-0.186
-125.253	32.554	0.052	-0.045
-124.239	196.028	0.152	0.229
-123.224	-110.660	0.319	-0.065
-122.210	-25.637	-0.315	-0.184
-121.195	800.000	-0.050	-0.196
-120.180	-92.532	0.289	0.080
-119.166	800.000	0.092	-0.321
-118.151	-61.990	-0.270	-0.111
-117.137	75.566	0.378	0.394
-116.122	800.000	0.003	0.010
-115.107	440.511	-0.091	-0.196
-114.093	-196.065	0.140	-0.001
-113.078	-102.307	0.140	0.033
-112.064	-200.000	0.022	-0.219
-111.049	282.408	0.085	0.151
-110.034	-8.707	0.417	-0.277
-109.020	-38.459	0.181	0.094
-108.005	37.452	-0.187	0.164
-106.991	-200.000	0.005	0.048
-105.976	136.080	0.154	-0.198
-104.962	-200.000	0.019	-0.378
-103.947	-20.749	0.060	-0.036
-102.932	158.585	-0.096	-0.132
-101.918	742.289	0.191	0.506
-100.903	-200.000	-0.020	0.219
-99.889	-68.082	0.111	-0.043
-98.874	58.501	0.179	-0.174
-97.859	-33.522	0.303	0.165
-96.845	52.122	0.044	-0.041
-95.830	-43.631	0.181	-0.090
-94.816	233.581	-0.156	0.253
-93.801	-143.756	0.280	0.026
-92.786	-200.000	-0.046	0.236
-91.772	-23.212	0.069	-0.041
-90.757	-88.735	0.131	-0.039
-89.743	20.571	0.153	0.122
-88.728	800.000	-0.034	-0.117
-87.713	254.357	0.215	-0.364
-86.699	-200.000	-0.019	0.241
-85.684	800.000	0.112	0.395
-84.670	167.542	0.105	0.148
-83.655	10.914	-0.087	0.065
-82.640	-69.457	-0.136	-0.052
-81.626	-55.004	-0.188	-0.084
-80.611	-200.000	-0.060	0.321
-79.597	-107.507	-0.319	0.069
-78.582	665.458	0.068	-0.174
-77.567	-20.268	0.051	-0.031
-76.553	-71.777	0.297	0.109
-75.538	-33.612	0.104	0.057
-74.524	-200.000	0.042	0.181
-73.509	800.000	-0.152	-0.461
-72.494	91.922	0.256	-0.284
-71.480	-91.610	-0.186	0.052
-70.465	142.425	-0.049	0.064
-69.451	-93.700	-0.087	0.024
-68.436	579.283	-0.114	0.275
-67.422	-37.889	0.219	0.115
-66.407	-133.446	0.380	0.047
-65.392	800.000	0.047	-0.187
-64.378	800.000	0.090	0.256
-63.363	57.779	-0.235	-0.226
-62.349	-159.051	-0.305	-0.017
-61.334	-34.309	-1.078	-0.583
-60.319	-55.018	0.454	0.202
-59.305	601.601	-0.322	-0.789
-58.290	128.186	0.635	0.797
-57.276	370.883	0.809	1.617
-56.261	-200.000	96.332	574.754
-55.246	651.396	1388.060	3504.965
-54.232	187.266	2610.155	3836.642
-53.217	117.681	2305.879	2797.482
-52.203	45.385	1918.733	1744.939
-51.188	38.789	1706.282	1501.391
-50.173	35.951	1660.983	1440.279
-49.159	53.042	1709.442	1612.311
-48.144	56.725	1727.174	1656.875
-47.130	38.459	1683.208	1478.360
-46.115	35.554	1668.222	1443.345
-45.100	35.341	1663.788	1437.859
-44.086	35.343	1661.012	1435.416
-43.071	35.310	1658.357	1432.815
-42.057	35.238	1655.769	1429.989
-41.042	35.235	1653.856	1428.255
-40.027	35.348	1651.633	1427.122
-39.013	35.282	1650.138	1425.281
-37.998	35.243	1648.530	1423.543
-36.984	35.357	1647.020	1423.029
-35.969	35.348	1645.687	1421.758
-34.954	35.523	1643.855	1421.416
-33.940	35.541	1641.710	1419.632
-32.925	35.479	1640.334	1417.928
-31.911	35.400	1638.703	1415.884
-30.896	35.495	1636.726	1414.814
-29.881	35.365	1635.482	1412.729
-28.867	35.366	1633.520	1410.987
-27.852	35.405	1632.100	1409.988
-26.838	35.378	1630.904	1408.700
-25.823	35.427	1629.362	1407.672
-24.809	35.428	1628.031	1406.476
-23.794	35.488	1626.791	1405.790
-22.779	35.403	1625.028	1403.587
-21.765	35.479	1622.858	1402.213
-20.750	35.443	1621.417	1400.651
-19.736	35.409	1620.361	1399.432
-18.721	35.534	1618.445	1398.630
-17.706	35.445	1617.120	1396.784
-16.692	35.488	1615.232	1395.409
-15.677	35.468	1614.160	1394.284
-14.663	35.558	1612.612	1393.544
-13.648	35.495	1611.568	1392.132
-12.633	35.459	1610.093	1390.538
-11.619	35.459	1608.270	1388.908
-10.604	35.584	1606.453	1388.190
-9.590	35.515	1605.467	1386.782
-8.575	35.463	1604.162	1385.230
-7.560	35.488	1602.861	1384.229
-6.546	35.478	1602.026	1383.384
-5.531	35.426	1601.108	1382.160
-4.517	35.500	1599.476	1381.225
-3.502	35.403	1598.784	1379.877
-2.487	35.532	1596.999	1379.208
-1.473	34.927	1584.847	1364.348
-0.458	31.562	1562.775	1321.572
0.556	29.214	1560.964	1277.729
1.571	25.942	1582.670	1272.334
2.586	24.643	1594.612	1272.580
3.600	21.191	1540.458	1205.461
4.615	12.836	1431.755	1066.461
5.629	6.179	1367.905	977.541
6.644	5.011	1359.556	964.269
7.659	4.919	1358.427	962.811
8.673	5.028	1357.566	962.790
9.688	5.052	1356.440	962.056
10.702	5.116	1353.983	960.624
11.717	7.755	1358.120	979.747
12.731	15.438	1372.748	1037.894
13.746	21.582	1382.815	1083.562
14.761	22.533	1382.434	1089.052
15.775	21.831	1380.002	1082.707
16.790	20.689	1378.098	1074.075
17.804	19.856	1375.567	1066.867
18.819	19.511	1374.577	1063.881
19.834	19.361	1373.602	1062.111
20.848	19.244	1372.127	1060.156
21.863	18.973	1370.853	1057.411
22.877	18.996	1369.498	1056.413
23.892	18.826	1369.001	1054.892
24.907	18.844	1367.675	1053.886
25.921	18.801	1367.217	1053.178
26.936	18.853	1366.090	1052.537
27.950	19.003	1365.109	1052.604
28.965	19.046	1364.416	1052.239
29.980	19.100	1363.377	1051.675
30.994	19.201	1362.024	1051.158
32.009	19.142	1361.452	1050.262
33.023	19.180	1359.842	1049.160
34.038	19.217	1358.763	1048.460
35.053	19.129	1357.121	1046.565
36.067	19.164	1355.607	1045.517
37.082	19.062	1355.171	1044.466
38.096	19.098	1354.745	1044.264
39.111	19.192	1353.225	1043.571
40.126	18.943	1352.862	1041.689
41.140	18.779	1351.925	1039.882
42.155	18.624	1351.155	1038.258
43.169	18.553	1350.872	1037.519
44.184	18.669	1350.060	1037.510
45.199	18.706	1349.808	1037.446
46.213	18.727	1349.900	1037.551
47.228	18.933	1349.358	1038.286
48.242	19.020	1347.874	1037.576
49.257	18.977	1346.082	1035.850
50.271	18.912	1344.692	1034.294
51.286	18.943	1343.800	1033.705
52.301	18.869	1342.305	1032.017
53.315	18.791	1341.195	1030.604
54.330	18.689	1340.166	1029.111
55.344	18.659	1338.691	1027.707
56.359	18.779	1337.735	1027.600
57.374	18.672	1336.865	1026.204
58.388	18.557	1336.334	1025.020
59.403	18.602	1335.593	1024.627
60.417	18.576	1334.737	1023.724
61.432	18.640	1333.562	1023.116
62.447	18.524	1332.537	1021.545
63.461	18.472	1331.569	1020.403
64.476	18.421	1330.458	1019.157
65.490	18.393	1328.908	1017.716
66.505	18.308	1328.175	1016.562
67.520	18.411	1326.868	1016.083
68.534	18.452	1325.866	1015.465
69.549	18.489	1324.906	1014.858
70.563	18.459	1323.483	1013.503
71.578	18.245	1322.937	1011.731
72.593	18.189	1321.918	1010.528
73.607	18.113	1321.124	1009.388
74.622	18.227	1319.921	1009.051
75.636	18.373	1319.506	1009.502
76.651	18.342	1318.762	1008.664
77.666	18.327	1318.426	1008.229
78.680	18.281	1318.220	1007.709
79.695	18.511	1317.187	1008.183
80.709	18.459	1316.745	1007.450
81.724	18.611	1315.640	1007.408
82.739	18.738	1314.839	1007.450
83.753	18.896	1314.405	1007.959
84.768	18.996	1313.240	1007.560
85.782	19.149	1312.120	1007.509
86.797	19.118	1311.062	1006.427
87.812	18.988	1309.267	1004.200
88.826	18.920	1308.119	1002.831
89.841	18.951	1307.621	1002.544
90.855	19.115	1306.709	1002.710
91.870	19.153	1305.855	1002.186
92.884	19.093	1305.136	1001.198
93.899	19.214	1304.116	1001.028
94.914	19.221	1303.701	1000.662
95.928	19.178	1303.134	999.891
96.943	19.069	1302.267	998.505
97.957	19.077	1301.097	997.564
98.972	18.983	1300.181	996.229
99.987	19.022	1298.969	995.440
101.001	19.044	1297.769	994.558
102.016	19.038	1296.871	993.748
103.030	19.139	1295.873	993.477
104.045	19.011	1295.313	992.223
105.060	19.010	1294.221	991.293
106.074	18.746	1292.686	988.508
107.089	18.499	1290.845	985.593
108.103	18.338	1289.802	983.787
109.118	18.357	1288.062	982.481
110.133	18.513	1286.884	982.389
111.147	18.425	1286.354	981.391
112.162	18.521	1284.821	980.685
113.176	18.602	1283.527	980.075
114.191	18.640	1282.905	979.727
115.206	18.634	1281.657	978.654
116.220	18.713	1280.103	977.832
117.235	18.635	1279.103	976.537
118.249	18.676	1277.790	975.685
119.264	18.628	1276.920	974.660
120.279	18.487	1275.711	972.851
121.293	18.470	1274.566	971.797
122.308	18.459	1273.459	970.801
123.322	18.332	1272.204	969.039
124.337	18.206	1271.884	967.996
125.352	18.312	1270.282	967.294
126.366	18.196	1269.663	966.082
127.381	18.354	1268.388	965.913
128.395	18.353	1267.112	964.856
129.410	18.360	1266.752	964.534
130.424	18.459	1266.139	964.537
131.439	18.562	1265.279	964.375
132.454	18.597	1264.075	963.570
133.468	18.701	1263.026	963.268
134.483	18.635	1263.123	962.890
135.497	18.798	1261.167	962.224
136.512	18.818	1260.306	961.596
137.527	18.695	1259.153	959.943
138.541	18.782	1257.331	958.953
139.556	18.812	1256.734	958.583
140.570	18.758	1255.957	957.604
141.585	18.914	1254.487	957.263
142.600	18.903	1253.709	956.527
143.614	19.155	1252.666	957.045
144.629	19.037	1252.044	955.831
145.643	19.107	1250.463	954.926
146.658	18.864	1249.509	952.769
147.673	18.885	1247.645	951.378
148.687	18.741	1246.524	949.646
149.702	18.608	1245.208	947.824
150.716	18.531	1244.008	946.400
151.731	18.614	1242.813	945.866
152.746	18.673	1241.649	945.219
153.760	18.762	1240.605	944.829
154.775	18.814	1239.352	944.081
155.789	18.889	1238.468	943.735
156.804	18.931	1237.830	943.395
157.819	18.830	1236.512	941.751
158.833	19.031	1235.864	942.276
159.848	19.150	1234.556	941.846
160.862	19.227	1233.480	941.364
161.877	18.910	1232.605	938.882
162.892	18.641	1231.253	936.302
163.906	18.727	1230.419	936.056
164.921	18.690	1229.394	934.989
165.935	18.739	1228.791	934.717
166.950	18.840	1228.053	934.620
167.964	18.871	1227.306	934.139
168.979	18.827	1226.556	933.247
169.994	18.830	1225.855	932.646
171.008	18.883	1225.158	932.320
172.023	19.020	1224.433	932.428
173.037	19.104	1223.709	932.252
174.052	19.031	1222.963	931.203
175.067	18.891	1221.070	928.926
176.081	18.787	1220.018	927.480
177.096	18.737	1219.692	926.881
178.110	18.843	1218.360	926.356
179.125	18.901	1217.013	925.562
180.140	18.869	1216.204	924.696
181.154	18.907	1215.055	923.944
182.169	19.101	1213.969	924.075
183.183	19.153	1213.067	923.588
184.198	19.135	1211.746	922.403
185.213	19.135	1210.980	921.737
186.227	19.208	1209.822	921.169
187.242	19.282	1209.216	921.018
188.256	19.271	1208.288	920.171
189.271	19.288	1206.855	919.089
190.286	19.159	1205.825	917.535
191.300	18.815	1204.780	914.827
192.315	18.659	1203.932	913.272
193.329	18.852	1203.437	913.844
194.344	18.849	1202.649	913.146
195.359	18.820	1202.916	913.117
196.373	18.946	1202.095	913.080
197.388	19.230	1201.458	914.026
198.402	19.243	1201.800	914.270
199.417	19.406	1201.283	914.664
200.432	19.366	1200.816	914.015
201.446	19.597	1199.573	914.207
202.461	19.651	1198.564	913.643
203.475	19.787	1197.460	913.442
204.490	19.476	1196.383	910.897
205.504	19.369	1194.949	909.161
206.519	19.257	1193.563	907.436
207.534	19.257	1192.544	906.583
208.548	19.308	1191.591	906.045
209.563	19.330	1190.740	905.434
210.577	19.301	1190.325	904.883
211.592	19.393	1189.406	904.590
212.607	19.603	1188.084	904.606
213.621	19.587	1187.379	903.902
214.636	19.461	1186.922	902.815
215.650	19.564	1185.859	902.468
216.665	19.581	1185.142	901.927
217.680	19.719	1184.542	902.114
218.694	19.725	1183.387	901.187
219.709	19.801	1182.749	901.013
220.723	19.720	1181.740	899.748
221.738	19.710	1181.102	899.130
222.753	19.643	1180.630	898.343
223.767	19.706	1179.873	898.012
224.782	19.762	1179.464	897.910
225.796	19.984	1178.353	898.138
226.811	19.917	1178.047	897.479
227.826	19.722	1177.130	895.692
228.840	19.640	1176.464	894.682
229.855	19.653	1175.500	893.937
230.869	19.615	1174.911	893.213
231.884	19.630	1173.901	892.443
232.899	19.688	1172.712	891.757
233.913	19.530	1172.078	890.383
234.928	19.593	1171.181	889.945
235.942	19.397	1170.880	888.630
236.957	19.493	1170.115	888.463
237.972	19.442	1169.620	887.747
238.986	19.432	1168.725	886.938
240.001	19.537	1168.119	886.938
241.015	19.476	1167.399	886.000
242.030	19.702	1165.901	885.948
243.045	19.741	1165.774	885.968
244.059	19.725	1164.874	885.127
245.074	19.747	1164.344	884.758
246.088	19.821	1163.878	884.704
247.103	19.798	1162.856	883.733
248.117	20.025	1161.950	884.122
249.132	20.147	1161.714	884.484
250.147	20.304	1161.201	884.820
251.161	20.444	1160.580	884.982
252.176	20.391	1160.052	884.232
253.190	20.514	1159.358	884.246
254.205	20.621	1158.478	884.044
255.220	20.659	1158.129	883.891
256.234	20.518	1157.226	882.407
257.249	20.493	1156.946	881.990
258.263	20.651	1156.001	881.992
259.278	20.497	1155.654	880.869
260.293	20.486	1154.951	880.202
261.307	20.568	1154.429	880.138
262.322	20.647	1153.563	879.799
263.336	20.752	1153.070	879.878
264.351	20.700	1152.226	878.895
265.366	20.629	1151.828	878.153
266.380	20.702	1151.074	877.868
267.395	20.664	1150.068	876.830
268.409	20.564	1149.256	875.632
269.424	20.539	1148.668	874.983
270.439	20.484	1148.342	874.379
271.453	20.565	1146.887	873.600
272.468	20.334	1146.300	871.913
273.482	20.297	1145.915	871.358
274.497	20.360	1145.411	871.216
275.512	20.426	1144.636	870.879
276.526	20.292	1143.955	869.612
277.541	20.440	1142.935	869.500
278.555	20.448	1142.063	868.799
279.570	20.693	1141.557	869.564
280.585	20.777	1141.183	869.623
281.599	20.788	1139.784	868.533
282.614	20.651	1138.587	866.864
283.628	20.507	1137.554	865.279
284.643	20.583	1136.746	864.969
285.657	20.651	1135.730	864.460
286.672	20.616	1134.880	863.558
287.687	20.464	1134.367	862.336
288.701	20.637	1133.209	862.240
289.716	20.648	1132.503	861.679
290.730	20.624	1132.099	861.180
291.745	20.701	1131.269	860.851
292.760	20.695	1130.961	860.509
293.774	20.703	1130.595	860.195
294.789	20.839	1129.878	860.247
295.803	20.931	1128.869	859.856
296.818	20.756	1128.342	858.517
297.833	20.616	1127.501	857.112
298.847	20.657	1126.726	856.649
299.862	20.861	1125.654	856.759
300.876	20.769	1125.130	855.834
301.891	20.779	1124.791	855.549
302.906	20.909	1123.840	855.387
303.920	21.096	1123.415	855.907
304.935	21.167	1123.163	855.987
305.949	21.163	1122.502	855.388
306.964	21.204	1121.700	854.899
307.979	21.077	1121.027	853.691
308.993	20.995	1120.203	852.585
310.008	21.075	1119.546	852.401
311.022	21.176	1118.989	852.395
312.037	21.182	1117.676	851.351
313.052	21.077	1116.362	849.763
314.066	21.013	1115.278	848.549
315.081	20.769	1115.010	847.083
316.095	20.753	1114.060	846.209
317.110	20.713	1113.528	845.538
318.125	20.885	1112.578	845.576
319.139	20.745	1111.918	844.318
320.154	20.736	1111.463	843.855
321.168	20.882	1111.027	844.158
322.183	20.949	1110.162	843.752
323.197	20.862	1109.745	842.939
324.212	20.903	1108.962	842.466
325.227	21.046	1108.501	842.731
326.241	21.020	1107.672	841.903
327.256	20.989	1106.743	840.972
328.270	20.927	1105.782	839.866
329.285	20.846	1104.988	838.803
330.300	20.893	1104.053	838.246
331.314	20.941	1102.897	837.521
332.329	20.926	1102.190	836.841
333.343	20.899	1101.602	836.187
334.358	21.017	1100.880	836.133
335.373	21.182	1099.663	835.925
336.387	21.188	1099.388	835.672
337.402	21.205	1098.463	834.975
338.416	21.239	1097.567	834.383
339.431	21.201	1097.721	834.243
340.446	21.463	1096.805	834.724
341.460	21.404	1096.569	834.189
342.475	21.606	1095.398	834.185
343.489	21.710	1094.247	833.730
344.504	21.605	1094.034	832.996
345.519	21.657	1093.032	832.404
346.533	21.739	1092.354	832.207
347.548	21.772	1091.680	831.776
348.562	21.723	1090.625	830.666
349.577	21.483	1089.869	828.879
350.592	21.432	1088.702	827.679
351.606	21.304	1087.968	826.440
352.621	21.243	1087.515	825.734
353.635	21.268	1086.917	825.325
354.650	21.379	1085.899	825.005
355.665	21.488	1084.962	824.731
356.679	21.534	1084.174	824.277
357.694	21.444	1084.202	823.803
358.708	21.492	1083.817	823.663
359.723	21.626	1082.939	823.555
360.738	21.595	1082.354	822.890
361.752	21.374	1082.424	821.833
362.767	21.547	1081.420	821.811
363.781	21.519	1081.000	821.283
364.796	21.744	1080.164	821.635
365.810	21.869	1079.686	821.780
366.825	21.910	1079.291	821.602
367.840	22.129	1078.979	822.316
368.854	22.186	1078.182	821.903
369.869	22.007	1077.511	820.482
370.883	21.933	1076.429	819.241
371.898	21.897	1075.804	818.522
372.913	21.880	1075.145	817.870
373.927	21.971	1075.121	818.202
374.942	22.047	1073.948	817.593
375.956	22.005	1073.513	816.992
376.971	22.014	1072.485	816.179
377.986	21.984	1072.599	816.058
379.000	22.242	1072.130	816.827
380.015	22.333	1071.216	816.478
381.029	22.301	1070.578	815.773
382.044	22.122	1070.387	814.724
383.059	22.266	1069.207	814.419
384.073	22.260	1068.396	813.704
385.088	22.235	1067.508	812.837
386.102	22.278	1066.575	812.254
387.117	22.039	1065.306	810.115
388.132	21.944	1064.324	808.860
389.146	21.909	1063.716	808.165
390.161	21.975	1062.763	807.670
391.175	21.980	1062.647	807.536
392.190	22.153	1061.820	807.632
393.205	22.244	1061.297	807.581
394.219	22.122	1060.431	806.287
395.234	22.090	1058.978	804.964
396.248	22.158	1058.212	804.625
397.263	22.018	1057.532	803.397
398.278	22.061	1056.370	802.640
399.292	21.964	1055.636	801.567
400.307	21.850	1054.715	800.278
401.321	21.973	1054.183	800.362
402.336	21.878	1053.655	799.456
403.350	21.920	1052.937	799.033
404.365	21.928	1052.580	798.729
405.380	22.120	1051.658	798.830
406.394	22.243	1050.711	798.597
407.409	22.201	1050.408	798.107
408.423	22.364	1050.180	798.606
409.438	22.414	1049.308	798.094
410.453	22.407	1048.913	797.693
411.467	22.522	1047.949	797.411
412.482	22.464	1047.305	796.586
413.496	22.574	1046.779	796.612
414.511	22.629	1046.374	796.485
415.526	22.750	1045.770	796.499
416.540	22.884	1045.342	796.708
417.555	22.871	1044.972	796.295
418.569	22.664	1044.630	795.033
419.584	22.537	1043.907	793.842
420.599	22.719	1043.256	794.093
421.613	154.903	1400.362	1788.993
422.628	141.899	1452.382	1789.112
