DTS Sentinel unit serial number:	SN413079Multiplexer serial number:	ORYXHardware model number:	OX4-SRSoftware version number:	ORYX F/W v4.00 Oryx Data Collector v3.7.2.0data status	okinstallation	princeton_trtdifferential loss correction	single-endedforward channel	channel 2reverse channel	N/Adate	2019/09/11time	13:01:11forward acquisition time	60.00reverse acquisition time	0.00gamma	496.2192k internal	0.2292k external	0.2292temperature offset calibration	0.9967default loss term (dB/km)	0.3790temperature slope calibration	1.0000multiplexer offset coefficient	1.0000multiplexer slope coefficient	1.0000fibre end	0.00T internal ref (°C)	41.58T ext. ref 1 (°C)	0.23T ext. ref 2 (°C)	38.81length (m)	temperature (°C)	Stokes	anti-Stokes-747.200	-200.000	0.002	0.108
-746.185	62.607	0.208	0.213
-745.171	122.431	-0.078	0.100
-744.156	800.000	0.018	0.068
-743.142	-200.000	-0.020	0.139
-742.127	-200.000	0.027	0.441
-741.112	-174.687	-0.274	-0.008
-740.098	-200.000	-0.038	0.232
-739.083	121.493	0.061	-0.078
-738.069	266.741	0.105	-0.188
-737.054	-105.126	-0.037	-0.009
-736.039	93.967	0.173	-0.201
-735.025	-145.883	-0.239	0.022
-734.010	189.842	0.147	0.225
-732.996	17.551	-0.238	-0.194
-731.981	-49.089	-0.156	-0.076
-730.966	-200.000	0.006	-0.099
-729.952	-74.236	-0.230	-0.085
-728.937	-200.000	0.052	-0.281
-727.923	186.666	0.128	0.195
-726.908	-200.000	0.001	0.054
-725.894	-162.432	0.184	-0.009
-724.879	93.046	0.119	0.138
-723.864	-200.000	-0.062	-0.614
-722.850	-200.000	-0.034	-0.201
-721.835	26.142	-0.347	-0.296
-720.821	37.547	0.196	0.178
-719.806	666.349	-0.089	0.235
-718.791	193.492	-0.135	-0.210
-717.777	-91.766	0.412	-0.120
-716.762	44.656	0.312	-0.293
-715.748	-133.808	0.083	0.011
-714.733	-200.000	0.002	-0.108
-713.718	149.937	-0.026	-0.036
-712.704	69.625	-0.155	0.163
-711.689	-75.004	-0.303	-0.111
-710.675	134.709	-0.153	0.203
-709.660	361.608	-0.058	0.119
-708.645	267.105	-0.191	-0.341
-707.631	-172.710	0.449	0.014
-706.616	740.130	0.064	0.176
-705.602	16.896	-0.210	-0.170
-704.587	120.926	0.194	-0.247
-703.572	-200.000	0.034	-0.193
-702.558	-200.000	0.043	0.201
-701.543	-200.000	0.017	-0.110
-700.529	-200.000	0.014	-0.244
-699.514	800.000	0.115	-0.398
-698.499	-85.031	0.659	0.211
-697.485	65.930	-0.143	-0.148
-696.470	-86.898	-0.295	-0.092
-695.456	800.000	-0.035	-0.155
-694.441	-15.105	-0.340	0.223
-693.426	712.561	0.016	0.044
-692.412	-22.843	-0.097	-0.060
-691.397	-62.002	-0.165	0.071
-690.383	-44.728	0.185	-0.095
-689.368	140.003	-0.144	-0.193
-688.354	28.923	-0.176	-0.152
-687.339	-120.067	0.289	0.051
-686.324	160.684	0.065	0.093
-685.310	361.718	-0.119	0.244
-684.295	159.590	-0.187	-0.265
-683.281	-200.000	-0.067	-0.382
-682.266	-2.349	0.078	0.056
-681.251	800.000	-0.028	0.121
-680.237	9.417	0.216	-0.167
-679.222	-12.827	0.068	0.045
-678.208	-73.821	0.139	-0.052
-677.193	101.504	0.168	-0.200
-676.178	-35.988	0.029	0.016
-675.164	-200.000	-0.073	0.432
-674.149	800.000	-0.039	0.113
-673.135	38.296	0.102	-0.093
-672.120	-138.538	-0.117	0.013
-671.105	800.000	0.088	-0.296
-670.091	-126.535	-0.556	0.084
-669.076	288.019	0.192	0.354
-668.062	360.863	-0.072	0.148
-667.047	351.387	-0.167	-0.338
-666.032	460.837	0.021	0.048
-665.018	800.000	-0.040	0.124
-664.003	-149.376	-0.122	-0.010
-662.989	-93.248	0.208	0.059
-661.974	2.904	-0.213	0.158
-660.959	60.051	0.172	-0.173
-659.945	19.161	-0.046	0.038
-658.930	378.054	-0.187	0.389
-657.916	-111.553	-0.225	0.047
-656.901	-113.439	0.169	-0.034
-655.886	-78.209	0.236	-0.083
-654.872	335.517	0.114	-0.225
-653.857	7.573	-0.248	0.189
-652.843	800.000	-0.094	-0.343
-651.828	-200.000	-0.005	0.159
-650.814	80.115	-0.071	0.078
-649.799	-34.908	-0.148	0.082
-648.784	-142.505	0.231	0.023
-647.770	-200.000	-0.043	0.300
-646.755	-200.000	-0.015	0.348
-645.741	-177.974	-0.264	0.006
-644.726	-101.235	-0.195	0.049
-643.711	148.007	0.099	-0.137
-642.697	316.444	-0.142	-0.273
-641.682	533.482	-0.032	0.077
-640.668	-200.000	-0.045	0.295
-639.653	157.514	-0.043	0.061
-638.638	-36.932	0.319	0.174
-637.624	-200.000	0.005	-0.028
-636.609	-200.000	0.009	-0.167
-635.595	800.000	-0.070	0.236
-634.580	462.088	0.058	-0.133
-633.565	238.348	-0.112	-0.190
-632.551	-107.282	0.223	-0.050
-631.536	-115.818	0.181	-0.034
-630.522	-200.000	0.050	-0.469
-629.507	800.000	-0.045	0.176
-628.492	274.711	-0.031	0.056
-627.478	-91.386	-0.080	0.023
-626.463	-116.557	0.078	-0.015
-625.449	67.525	0.187	-0.194
-624.434	-200.000	-0.045	0.252
-623.419	-162.624	-0.135	-0.007
-622.405	35.051	0.383	0.341
-621.390	-175.235	0.215	-0.006
-620.376	279.594	0.059	0.107
-619.361	-175.121	0.150	-0.004
-618.346	-140.878	0.068	0.007
-617.332	-200.000	0.012	-0.401
-616.317	800.000	-0.031	0.101
-615.303	-200.000	0.027	-0.130
-614.288	15.424	0.277	0.222
-613.273	800.000	0.052	-0.164
-612.259	106.348	0.246	-0.297
-611.244	360.847	-0.127	-0.259
-610.230	-90.224	0.128	0.038
-609.215	46.765	0.110	-0.104
-608.201	286.445	0.119	-0.219
-607.186	-118.834	-0.150	0.027
-606.171	800.000	-0.095	0.354
-605.157	-200.000	0.015	-0.112
-604.142	207.182	0.047	-0.074
-603.128	-200.000	0.030	-0.199
-602.113	-58.851	0.113	-0.050
-601.098	-32.418	-0.264	0.150
-600.084	69.868	0.148	-0.155
-599.069	-151.137	0.084	0.006
-598.055	58.364	-0.324	-0.323
-597.040	47.543	-0.086	0.081
-596.025	-88.149	0.204	0.062
-595.011	254.690	0.144	-0.251
-593.996	-43.903	-0.124	-0.064
-592.982	-47.601	0.398	-0.197
-591.967	-143.378	-0.259	0.025
-590.952	105.129	0.105	-0.126
-589.938	16.503	-0.227	-0.183
-588.923	24.797	0.051	-0.043
-587.909	800.000	0.015	-0.046
-586.894	-200.000	0.042	-0.251
-585.879	269.825	0.036	-0.064
-584.865	268.751	0.118	0.210
-583.850	-94.986	0.237	0.065
-582.836	-200.000	-0.003	0.023
-581.821	-96.730	-0.544	0.146
-580.806	437.521	-0.092	0.204
-579.792	-56.337	-0.274	-0.124
-578.777	800.000	0.093	0.381
-577.763	-57.207	-0.084	-0.038
-576.748	417.640	-0.072	0.156
-575.733	338.128	-0.154	-0.305
-574.719	-200.000	-0.030	-0.384
-573.704	275.494	0.111	-0.200
-572.690	-141.449	-0.188	-0.019
-571.675	-200.000	-0.020	-0.231
-570.661	-11.006	0.009	0.006
-569.646	-200.000	0.003	0.228
-568.631	-200.000	-0.039	-0.181
-567.617	-117.405	0.055	-0.010
-566.602	-60.913	0.274	0.118
-565.588	-200.000	0.005	0.189
-564.573	800.000	-0.036	0.139
-563.558	306.847	0.103	-0.194
-562.544	-200.000	0.008	-0.083
-561.529	800.000	-0.040	0.174
-560.515	493.541	0.120	-0.281
-559.500	188.990	0.055	0.084
-558.485	-89.098	-0.127	-0.038
-557.471	296.258	0.106	-0.197
-556.456	149.062	-0.020	-0.027
-555.442	325.055	-0.042	-0.082
-554.427	342.328	0.141	0.280
-553.412	90.144	0.171	-0.194
-552.398	-200.000	0.019	-0.350
-551.383	-200.000	-0.015	0.073
-550.369	-129.670	-0.136	0.019
-549.354	76.322	-0.132	0.142
-548.339	53.702	-0.221	-0.216
-547.325	381.996	0.059	0.124
-546.310	18.225	0.299	-0.242
-545.296	-200.000	-0.003	-0.030
-544.281	135.875	-0.210	0.278
-543.266	-131.196	0.123	0.017
-542.252	208.414	-0.127	0.201
-541.237	-200.000	-0.034	0.157
-540.223	-200.000	0.043	-0.320
-539.208	33.499	0.118	0.104
-538.193	-186.358	0.402	-0.006
-537.179	-96.584	-0.663	0.177
-536.164	-44.818	-0.113	-0.057
-535.150	-182.261	-0.196	-0.004
-534.135	60.397	-0.203	0.204
-533.121	-144.291	-0.267	-0.025
-532.106	-200.000	0.049	0.416
-531.091	-136.848	-0.220	0.026
-530.077	84.756	0.081	0.090
-529.062	395.302	0.039	0.082
-528.048	-52.919	-0.035	-0.016
-527.033	-6.754	-0.327	0.225
-526.018	-200.000	-0.021	-0.294
-525.004	800.000	0.045	0.184
-523.989	-114.155	0.080	0.016
-522.975	-200.000	0.013	-0.074
-521.960	-200.000	0.039	0.180
-520.945	47.023	0.025	-0.024
-519.931	-63.724	0.194	-0.081
-518.916	467.276	0.108	-0.246
-517.902	-108.097	0.122	0.027
-516.887	-56.839	-0.211	0.095
-515.872	514.825	-0.142	-0.336
-514.858	-11.726	0.359	-0.239
-513.843	37.292	-0.331	0.298
-512.829	361.958	0.059	-0.120
-511.814	290.635	-0.105	0.194
-510.799	-200.000	-0.025	-0.255
-509.785	143.536	0.062	-0.084
-508.770	-115.998	0.334	-0.063
-507.756	542.446	0.100	-0.242
-506.741	145.772	0.045	-0.061
-505.726	592.500	-0.034	0.085
-504.712	-39.735	-0.485	-0.257
-503.697	-24.982	-0.393	-0.237
-502.683	800.000	-0.014	-0.058
-501.668	-1.170	0.225	-0.161
-500.653	-200.000	0.155	-0.000
-499.639	-80.617	-0.181	-0.061
-498.624	-115.529	0.084	-0.016
-497.610	800.000	-0.020	-0.059
-496.595	-29.306	-0.149	-0.087
-495.581	50.579	-0.067	0.064
-494.566	-44.728	0.107	-0.054
-493.551	181.234	-0.118	0.176
-492.537	-200.000	-0.014	0.165
-491.522	463.680	-0.093	0.211
-490.508	176.934	0.078	0.115
-489.493	68.029	-0.160	-0.166
-488.478	-200.000	-0.026	0.122
-487.464	311.730	-0.072	0.137
-486.449	-200.000	0.010	-0.112
-485.435	800.000	-0.019	0.078
-484.420	-200.000	0.002	-0.152
-483.405	91.253	-0.257	-0.292
-482.391	649.284	-0.178	0.460
-481.376	800.000	-0.003	0.011
-480.362	-137.055	0.203	0.024
-479.347	606.233	-0.088	-0.222
-478.332	57.020	0.031	-0.030
-477.318	-200.000	0.008	0.113
-476.303	282.186	-0.088	0.159
-475.289	307.857	-0.021	0.039
-474.274	-39.671	0.140	-0.074
-473.259	96.026	-0.112	0.129
-472.245	-110.917	0.263	-0.055
-471.230	-68.155	-0.302	-0.119
-470.216	669.270	-0.178	0.467
-469.201	361.296	-0.136	-0.276
-468.186	800.000	-0.096	0.331
-467.172	-63.864	0.070	0.029
-466.157	-43.787	0.070	0.036
-465.143	-200.000	0.054	0.265
-464.128	-46.078	0.092	-0.046
-463.113	-200.000	-0.008	-0.051
-462.099	479.956	0.025	-0.057
-461.084	195.187	0.140	-0.215
-460.070	-92.716	-0.210	-0.060
-459.055	-144.470	-0.181	-0.017
-458.040	-120.536	-0.366	0.063
-457.026	177.806	0.150	0.221
-456.011	-19.688	0.103	0.064
-454.997	800.000	0.028	0.080
-453.982	-200.000	0.021	0.248
-452.968	-200.000	0.031	0.367
-451.953	0.145	0.055	0.039
-450.938	-193.554	0.063	-0.001
-449.924	-171.695	0.441	-0.015
-448.909	-80.507	-0.163	0.055
-447.895	-76.884	-0.234	0.083
-446.880	-22.954	0.058	0.035
-445.865	-141.639	0.023	0.002
-444.851	37.881	-0.143	0.129
-443.836	-28.854	0.120	0.070
-442.822	-163.220	-0.157	0.008
-441.807	800.000	-0.024	-0.076
-440.792	-200.000	-0.087	0.431
-439.778	75.287	-0.188	0.201
-438.763	-62.200	0.146	0.062
-437.749	169.870	-0.091	0.132
-436.734	800.000	-0.047	-0.189
-435.719	437.319	-0.029	-0.065
-434.705	54.327	0.099	0.097
-433.690	-121.065	0.149	-0.025
-432.676	-200.000	0.034	0.228
-431.661	-45.293	0.136	-0.068
-430.646	-41.583	0.261	-0.136
-429.632	800.000	-0.035	-0.145
-428.617	-200.000	-0.002	-0.297
-427.603	301.151	-0.088	0.163
-426.588	-91.632	-0.051	-0.015
-425.573	12.205	0.134	0.104
-424.559	800.000	0.043	0.148
-423.544	-49.316	0.223	0.107
-422.530	18.838	-0.126	0.102
-421.515	-97.522	-0.043	0.011
-420.500	-5.619	0.109	0.075
-419.486	-10.920	-0.105	-0.070
-418.471	-157.342	0.111	-0.007
-417.457	800.000	0.097	-0.338
-416.442	800.000	0.114	0.354
-415.428	512.737	-0.151	0.356
-414.413	-100.179	-0.267	0.067
-413.398	85.001	0.079	-0.088
-412.384	505.928	0.103	0.242
-411.369	165.032	-0.085	-0.122
-410.355	-134.098	0.051	0.006
-409.340	-29.977	0.539	-0.310
-408.325	-48.168	-0.134	0.065
-407.311	305.854	-0.153	-0.287
-406.296	460.261	-0.110	0.248
-405.282	-163.178	-0.290	0.014
-404.267	464.497	-0.182	-0.412
-403.252	-127.804	-0.241	0.035
-402.238	-200.000	-0.001	0.255
-401.223	-138.790	0.376	-0.041
-400.209	211.995	-0.111	-0.176
-399.194	445.091	-0.026	0.058
-398.179	-96.245	-0.436	-0.117
-397.165	-196.576	0.110	-0.001
-396.150	318.153	0.138	-0.263
-395.136	174.234	-0.121	-0.177
-394.121	-200.000	0.018	-0.111
-393.106	-200.000	0.050	-0.269
-392.092	-84.713	-0.247	-0.078
-391.077	-200.000	0.040	-0.294
-390.063	632.726	0.063	-0.162
-389.048	-200.000	0.031	-0.238
-388.033	172.189	0.324	0.471
-387.019	16.571	-0.291	0.232
-386.004	-26.086	-0.239	-0.142
-384.990	-26.958	-0.259	-0.153
-383.975	-153.317	-0.216	-0.015
-382.960	-200.000	0.016	0.268
-381.946	-200.000	-0.015	-0.122
-380.931	36.008	0.158	-0.141
-379.917	-61.031	0.021	-0.009
-378.902	-112.804	0.016	0.003
-377.888	3.447	0.084	0.062
-376.873	-197.206	-0.047	-0.000
-375.858	-8.592	-0.070	-0.047
-374.844	-15.004	-0.235	-0.152
-373.829	-66.494	-0.168	0.067
-372.815	177.994	0.015	-0.022
-371.800	157.912	-0.079	-0.111
-370.785	29.864	0.043	-0.037
-369.771	-200.000	-0.010	-0.115
-368.756	229.862	-0.111	-0.183
-367.742	214.164	0.099	0.158
-366.727	-53.645	0.281	0.130
-365.712	-89.691	-0.091	0.027
-364.698	8.154	0.121	-0.092
-363.683	-13.721	0.070	-0.045
-362.669	409.941	-0.005	0.010
-361.654	172.149	0.120	-0.174
-360.639	-102.697	0.195	0.047
-359.625	6.132	0.076	-0.057
-358.610	248.315	-0.029	-0.049
-357.596	75.058	-0.102	-0.108
-356.581	800.000	0.042	-0.138
-355.566	-45.821	-0.217	0.108
-354.552	169.633	0.063	0.091
-353.537	-84.669	0.187	-0.059
-352.523	-80.073	0.122	-0.041
-351.508	6.558	-0.234	0.175
-350.493	-200.000	-0.004	0.137
-349.479	484.393	-0.044	0.101
-348.464	-61.143	0.222	-0.094
-347.450	350.718	0.124	0.247
-346.435	205.277	-0.165	0.259
-345.420	48.046	0.225	-0.212
-344.406	-200.000	0.005	0.231
-343.391	-200.000	0.041	0.230
-342.377	800.000	0.072	0.205
-341.362	11.560	0.105	-0.081
-340.348	10.903	0.126	0.097
-339.333	346.851	0.072	-0.142
-338.318	-4.604	0.209	-0.145
-337.304	-200.000	-0.011	0.063
-336.289	-125.307	0.287	0.044
-335.275	-67.546	0.370	0.146
-334.260	-136.317	-0.037	-0.004
-333.245	-8.981	-0.166	0.112
-332.231	-38.576	-0.327	0.174
-331.216	-145.295	0.295	0.027
-330.202	-200.000	-0.017	0.224
-329.187	-96.439	0.085	0.023
-328.172	356.755	-0.181	0.364
-327.158	-200.000	-0.032	0.180
-326.143	-127.617	0.108	0.016
-325.129	123.983	0.096	-0.121
-324.114	134.426	0.074	-0.097
-323.099	-91.679	-0.284	0.081
-322.085	51.813	0.136	-0.130
-321.070	-118.922	0.088	0.016
-320.056	-1.745	-0.075	0.054
-319.041	173.438	-0.164	-0.238
-318.026	84.856	0.076	-0.083
-317.012	-95.234	0.231	-0.063
-315.997	-114.037	-0.101	-0.020
-314.983	-4.798	0.224	-0.156
-313.968	4.145	0.096	-0.071
-312.953	1.787	0.206	-0.150
-311.939	-2.069	-0.164	0.116
-310.924	129.062	0.144	0.185
-309.910	800.000	-0.061	0.189
-308.895	-169.311	-0.117	0.004
-307.880	255.306	-0.042	0.072
-306.866	-79.076	-0.093	0.032
-305.851	-99.903	0.031	0.008
-304.837	-162.814	0.183	-0.009
-303.822	113.443	0.073	-0.090
-302.807	257.171	-0.013	0.022
-301.793	-145.861	0.367	-0.033
-300.778	800.000	-0.051	-0.188
-299.764	-134.216	-0.165	-0.020
-298.749	-4.314	-0.073	-0.051
-297.735	24.482	0.208	0.173
-296.720	40.980	-0.183	0.166
-295.705	-93.170	0.111	0.031
-294.691	129.448	0.204	-0.262
-293.676	-99.598	-0.115	-0.029
-292.662	-51.870	-0.134	0.063
-291.647	34.583	-0.148	0.130
-290.632	581.805	0.101	-0.249
-289.618	-200.000	0.012	-0.080
-288.603	417.469	-0.112	-0.242
-287.589	-200.000	-0.008	0.288
-286.574	-200.000	-0.011	0.288
-285.559	-142.649	0.357	0.035
-284.545	-73.301	0.418	0.154
-283.530	-200.000	-0.007	0.034
-282.516	122.541	-0.145	-0.183
-281.501	37.572	-0.100	-0.090
-280.486	800.000	-0.074	-0.287
-279.472	800.000	-0.083	-0.332
-278.457	-123.083	-0.198	-0.032
-277.443	-200.000	0.013	-0.077
-276.428	-95.430	0.234	0.063
-275.413	-34.360	0.225	-0.124
-274.399	-32.562	-0.038	-0.021
-273.384	439.742	-0.060	-0.131
-272.370	316.177	-0.123	0.233
-271.355	-200.000	0.011	-0.244
-270.340	-139.571	0.154	0.016
-269.326	-37.279	-0.130	-0.070
-268.311	-88.973	-0.117	0.035
-267.297	-153.875	0.239	0.016
-266.282	165.300	0.183	-0.260
-265.267	-85.871	-0.265	0.082
-264.253	800.000	-0.018	0.058
-263.238	-95.960	-0.135	0.036
-262.224	-118.765	-0.296	-0.052
-261.209	215.715	0.063	0.101
-260.195	38.456	0.410	-0.367
-259.180	-96.255	-0.116	-0.031
-258.165	-188.420	0.145	0.002
-257.151	-19.075	-0.084	-0.052
-256.136	-114.659	-0.108	-0.021
-255.122	-84.931	0.034	-0.011
-254.107	261.546	0.121	-0.211
-253.092	800.000	0.046	-0.156
-252.078	367.959	0.235	0.476
-251.063	-5.631	-0.200	-0.138
-250.049	800.000	-0.172	0.559
-249.034	-200.000	-0.051	0.237
-248.019	505.258	0.109	0.253
-247.005	209.921	0.122	0.193
-245.990	-129.920	0.173	0.024
-244.976	-200.000	0.035	-0.311
-243.961	285.908	0.114	-0.206
-242.946	-200.000	0.002	0.519
-241.932	-7.702	0.327	0.222
-240.917	-110.771	0.339	0.070
-239.903	800.000	-0.053	-0.155
-238.888	305.730	0.037	-0.068
-237.873	-83.045	-0.195	0.063
-236.859	311.153	-0.115	-0.216
-235.844	82.861	0.105	0.114
-234.830	-24.805	-0.301	0.179
-233.815	249.925	0.137	-0.233
-232.800	-161.055	0.211	0.011
-231.786	424.296	0.074	0.161
-230.771	89.319	0.171	0.192
-229.757	-200.000	0.013	-0.072
-228.742	-10.817	0.215	0.142
-227.727	183.532	-0.151	-0.223
-226.713	249.715	0.150	0.255
-225.698	28.437	-0.087	0.074
-224.684	-200.000	-0.004	-0.289
-223.669	18.603	-0.144	0.116
-222.655	-18.834	0.173	-0.108
-221.640	-37.479	-0.217	0.116
-220.625	-154.993	-0.254	-0.017
-219.611	88.964	0.092	0.103
-218.596	-59.162	-0.321	0.139
-217.582	52.170	0.198	-0.190
-216.567	-112.830	0.292	-0.058
-215.552	-200.000	-0.021	-0.457
-214.538	-27.644	0.162	-0.094
-213.523	-6.622	-0.088	0.060
-212.509	-200.000	0.045	-0.235
-211.494	-200.000	0.003	-0.056
-210.479	-96.667	-0.482	0.127
-209.465	-200.000	-0.025	0.295
-208.450	393.273	0.096	0.201
-207.436	44.355	-0.198	0.182
-206.421	685.013	-0.096	-0.251
-205.406	38.356	0.059	-0.052
-204.392	-200.000	-0.022	0.254
-203.377	-32.166	0.139	-0.078
-202.363	368.270	-0.124	0.252
-201.348	360.713	-0.063	-0.126
-200.333	-128.692	-0.161	0.023
-199.319	158.539	-0.142	0.198
-198.304	-90.209	-0.179	-0.052
-197.290	-200.000	-0.043	-0.195
-196.275	-32.647	-0.330	0.184
-195.260	-50.402	0.218	0.103
-194.246	78.645	-0.139	0.149
-193.231	-72.667	0.178	0.066
-192.217	-147.341	-0.218	-0.019
-191.202	-200.000	0.041	0.219
-190.187	18.042	-0.100	0.080
-189.173	108.028	-0.179	0.213
-188.158	-90.210	-0.398	-0.116
-187.144	-200.000	0.002	0.125
-186.129	-119.407	-0.176	-0.031
-185.114	-200.000	-0.094	-0.000
-184.100	-48.749	0.217	-0.104
-183.085	24.191	0.129	-0.106
-182.071	-200.000	0.003	0.027
-181.056	80.972	0.077	-0.083
-180.042	-200.000	-0.013	0.094
-179.027	-109.077	0.322	-0.069
-178.012	800.000	0.120	-0.385
-176.998	32.580	-0.128	-0.111
-175.983	-127.974	-0.152	0.022
-174.969	3.979	-0.093	0.068
-173.954	348.101	0.056	-0.111
-172.939	-88.183	-0.416	0.125
-171.925	61.392	0.050	0.050
-170.910	53.746	0.151	0.145
-169.896	81.079	0.222	0.240
-168.881	140.458	0.180	-0.238
-167.866	-2.793	0.180	-0.126
-166.852	14.830	-0.162	-0.127
-165.837	472.765	-0.132	-0.298
-164.823	42.146	0.128	0.116
-163.808	210.555	0.088	-0.139
-162.793	247.505	-0.083	-0.141
-161.779	-100.062	0.186	-0.046
-160.764	-23.512	0.196	-0.118
-159.750	14.345	-0.246	-0.192
-158.735	-180.497	0.155	-0.003
-157.720	-69.699	-0.057	0.022
-156.706	284.741	-0.203	0.365
-155.691	-19.599	-0.219	0.135
-154.677	-200.000	-0.009	0.117
-153.662	800.000	0.065	-0.188
-152.647	-157.011	0.120	0.007
-151.633	800.000	0.063	-0.270
-150.618	-97.184	0.419	0.109
-149.604	-115.892	-0.324	-0.060
-148.589	229.609	0.078	0.127
-147.574	-103.984	-0.199	0.046
-146.560	165.814	0.047	0.067
-145.545	487.603	-0.163	0.371
-144.531	-20.624	0.442	0.271
-143.516	-103.073	-0.156	0.037
-142.502	-200.000	-0.004	-0.025
-141.487	391.081	0.100	0.208
-140.472	20.829	0.122	0.099
-139.458	-113.442	0.285	-0.056
-138.443	-200.000	0.041	0.289
-137.429	-93.092	-0.260	0.072
-136.414	651.552	-0.054	-0.137
-135.399	-200.000	0.111	0.562
-134.385	-28.284	0.382	0.221
-133.370	-3.164	0.264	-0.184
-132.356	256.219	-0.050	0.085
-131.341	800.000	0.050	0.151
-130.326	-118.425	0.456	-0.081
-129.312	800.000	0.073	-0.209
-128.297	325.234	-0.098	-0.187
-127.283	185.595	-0.112	0.166
-126.268	23.402	-0.088	0.072
-125.253	39.733	-0.169	0.151
-124.239	708.150	0.085	-0.224
-123.224	-20.823	0.259	0.159
-122.210	112.907	0.426	0.515
-121.195	495.377	-0.103	-0.237
-120.180	-16.960	-0.261	-0.165
-119.166	100.171	-0.206	-0.238
-118.151	18.587	-0.353	0.282
-117.137	-200.000	0.007	-0.204
-116.122	91.602	-0.185	-0.207
-115.107	30.093	-0.046	-0.039
-114.093	1.316	0.132	0.095
-113.078	-105.825	0.195	-0.044
-112.064	-95.336	0.101	-0.027
-111.049	-4.537	-0.209	-0.144
-110.034	-103.896	0.085	0.020
-109.020	800.000	0.091	0.258
-108.005	-117.861	0.113	0.020
-106.991	-44.250	-0.118	-0.059
-105.976	-200.000	-0.053	-0.297
-104.962	-82.853	0.052	-0.017
-103.947	-89.870	-0.096	0.028
-102.932	-200.000	0.015	0.181
-101.918	418.959	0.065	-0.140
-100.903	-200.000	0.029	0.296
-99.889	686.232	0.103	0.268
-98.874	-56.393	0.260	-0.115
-97.859	800.000	0.043	0.173
-96.845	80.659	0.207	0.222
-95.830	-200.000	-0.023	-0.236
-94.816	-2.984	0.092	-0.064
-93.801	-200.000	-0.004	-0.208
-92.786	800.000	0.045	-0.155
-91.772	-78.102	0.320	0.110
-90.757	800.000	0.077	0.238
-89.743	-200.000	0.018	0.195
-88.728	42.552	0.380	0.345
-87.713	37.410	0.358	-0.317
-86.699	14.080	-0.249	-0.193
-85.684	800.000	-0.082	0.267
-84.670	-109.071	0.327	0.069
-83.655	-119.868	-0.301	-0.052
-82.640	-200.000	-0.002	0.224
-81.626	-200.000	0.079	0.363
-80.611	-51.669	-0.129	-0.060
-79.597	123.212	-0.167	-0.209
-78.582	800.000	0.135	0.376
-77.567	55.816	0.225	0.218
-76.553	262.888	0.067	-0.117
-75.538	-150.046	-0.159	0.012
-74.524	-200.000	-0.013	-0.294
-73.509	268.004	0.148	-0.258
-72.494	300.707	0.246	-0.453
-71.480	-200.000	-0.028	0.234
-70.465	-200.000	-0.019	0.151
-69.451	212.701	-0.191	0.301
-68.436	-94.519	-0.259	0.070
-67.422	-200.000	-0.020	0.104
-66.407	190.992	-0.180	-0.270
-65.392	132.447	0.153	-0.196
-64.378	800.000	-0.128	0.494
-63.363	95.695	0.112	-0.127
-62.349	313.499	0.109	0.204
-61.334	-30.082	-0.974	-0.552
-60.319	181.479	0.277	0.406
-59.305	-200.000	-0.180	-0.859
-58.290	-43.503	0.565	0.284
-57.276	800.000	0.417	1.516
-56.261	-200.000	75.058	524.174
-55.246	551.870	1307.675	3128.016
-54.232	143.868	2565.137	3406.420
-53.217	111.084	2369.030	2842.149
-52.203	51.040	1981.802	1871.717
-51.188	45.153	1766.249	1621.514
-50.173	42.203	1719.263	1555.463
-49.159	56.101	1754.315	1696.107
-48.144	61.874	1772.819	1759.022
-47.130	44.954	1735.662	1591.622
-46.115	41.673	1722.098	1553.661
-45.100	41.626	1716.795	1548.448
-44.086	41.416	1715.003	1545.141
-43.071	41.418	1712.392	1542.744
-42.057	41.461	1709.298	1540.228
-41.042	41.511	1707.319	1538.768
-40.027	41.495	1705.433	1536.886
-39.013	41.380	1703.776	1534.447
-37.998	41.461	1701.585	1533.036
-36.984	41.469	1700.328	1531.902
-35.969	41.567	1698.827	1531.241
-34.954	41.649	1697.112	1530.260
-33.940	41.640	1694.916	1528.157
-32.925	41.595	1693.350	1526.338
-31.911	41.706	1691.296	1525.272
-30.896	41.639	1689.726	1523.289
-29.881	41.571	1688.094	1521.233
-28.867	41.614	1686.098	1519.703
-27.852	41.625	1684.081	1517.909
-26.838	41.617	1683.060	1516.870
-25.823	41.609	1681.575	1515.406
-24.809	41.664	1680.109	1514.447
-23.794	41.555	1678.933	1512.497
-22.779	41.605	1676.974	1511.053
-21.765	41.507	1675.491	1508.916
-20.750	41.532	1673.620	1507.359
-19.736	41.608	1672.216	1506.605
-18.721	41.702	1670.837	1506.014
-17.706	41.570	1669.224	1503.505
-16.692	41.617	1667.515	1502.263
-15.677	41.565	1666.145	1500.579
-14.663	41.572	1664.875	1499.424
-13.648	41.589	1663.244	1498.026
-12.633	41.556	1662.125	1496.712
-11.619	41.636	1660.064	1495.394
-10.604	41.565	1658.684	1493.561
-9.590	41.538	1657.911	1492.606
-8.575	41.585	1655.858	1491.045
-7.560	41.586	1654.603	1489.866
-6.546	41.560	1653.207	1488.357
-5.531	41.655	1651.734	1487.674
-4.517	41.577	1651.184	1486.541
-3.502	41.529	1649.840	1484.919
-2.487	41.742	1647.589	1484.412
-1.473	41.694	1637.277	1474.709
-0.458	39.655	1617.666	1442.094
0.556	34.079	1616.082	1406.518
1.571	31.262	1640.366	1406.346
2.586	30.245	1654.259	1410.407
3.600	26.292	1599.255	1334.267
4.615	13.828	1476.135	1145.923
5.629	2.549	1400.046	1012.541
6.644	0.391	1389.679	990.784
7.659	0.297	1387.631	988.616
8.673	0.111	1387.110	986.938
9.688	0.122	1385.273	985.614
10.702	-0.076	1382.549	982.300
11.717	3.607	1390.456	1012.005
12.731	14.938	1412.288	1102.905
13.746	22.965	1425.701	1166.491
14.761	23.668	1425.756	1171.073
15.775	23.663	1425.466	1170.703
16.790	23.695	1425.289	1170.661
17.804	23.778	1424.259	1170.258
18.819	23.899	1424.186	1170.891
19.834	24.019	1423.053	1170.648
20.848	23.956	1422.639	1169.791
21.863	24.043	1421.726	1169.508
22.877	24.006	1420.722	1168.334
23.892	24.023	1419.687	1167.489
24.907	23.989	1419.263	1166.815
25.921	23.914	1418.285	1165.415
26.936	23.952	1417.238	1164.702
27.950	24.101	1415.308	1163.988
28.965	24.060	1414.352	1162.830
29.980	23.997	1413.431	1161.562
30.994	24.094	1411.900	1160.831
32.009	24.033	1411.129	1159.695
33.023	23.935	1410.425	1158.376
34.038	23.987	1408.795	1157.277
35.053	24.013	1407.801	1156.526
36.067	24.027	1406.934	1155.801
37.082	23.984	1406.147	1154.770
38.096	24.047	1404.732	1153.915
39.111	24.014	1404.472	1153.388
40.126	24.015	1403.686	1152.644
41.140	24.063	1402.566	1151.934
42.155	23.909	1403.053	1151.239
43.169	23.916	1402.970	1151.112
44.184	23.915	1402.188	1150.359
45.199	23.971	1401.656	1150.185
46.213	24.034	1401.322	1150.217
47.228	24.025	1399.959	1148.937
48.242	24.013	1398.819	1147.821
49.257	24.003	1397.289	1146.400
50.271	24.056	1395.617	1145.267
51.286	24.006	1394.539	1143.959
52.301	24.023	1393.034	1142.735
53.315	24.037	1392.136	1141.987
54.330	23.946	1392.001	1141.192
55.344	23.933	1390.885	1140.091
56.359	24.047	1389.224	1139.359
57.374	23.987	1388.708	1138.450
58.388	23.983	1388.186	1137.895
59.403	24.001	1387.552	1137.391
60.417	23.942	1387.373	1136.772
61.432	23.985	1386.187	1135.968
62.447	24.011	1385.563	1135.526
63.461	24.027	1384.116	1134.338
64.476	24.049	1383.243	1133.663
65.490	24.070	1381.795	1132.513
66.505	24.020	1380.107	1130.708
67.520	24.117	1379.317	1130.580
68.534	24.048	1378.473	1129.350
69.549	24.011	1377.084	1127.874
70.563	23.988	1376.151	1126.866
71.578	24.022	1374.996	1126.033
72.593	24.001	1374.289	1125.227
73.607	24.063	1373.410	1124.799
74.622	24.091	1372.464	1124.102
75.636	23.914	1372.143	1122.623
76.651	23.986	1371.307	1122.292
77.666	24.030	1371.095	1122.295
78.680	23.978	1370.733	1121.574
79.695	24.073	1369.445	1121.015
80.709	24.031	1368.713	1120.052
81.724	24.032	1367.669	1119.111
82.739	24.044	1366.822	1118.393
83.753	24.036	1365.931	1117.512
84.768	24.070	1364.725	1116.640
85.782	24.017	1363.979	1115.602
86.797	24.128	1362.257	1114.788
87.812	24.077	1361.460	1113.717
88.826	24.051	1360.183	1112.414
89.841	24.128	1359.190	1111.980
90.855	23.947	1358.880	1110.501
91.870	23.992	1357.661	1109.687
92.884	24.078	1356.519	1109.191
93.899	23.993	1356.040	1108.172
94.914	24.102	1355.251	1108.108
95.928	24.119	1354.293	1107.328
96.943	24.106	1353.524	1106.522
97.957	24.005	1353.189	1105.522
98.972	24.053	1352.087	1104.826
99.987	24.017	1351.145	1103.732
101.001	24.035	1350.003	1102.812
102.016	24.125	1348.717	1102.223
103.030	24.047	1348.076	1101.121
104.045	24.140	1347.058	1100.767
105.060	24.141	1345.995	1099.808
106.074	23.999	1345.631	1098.533
107.089	24.041	1344.182	1097.512
108.103	24.069	1343.124	1096.724
109.118	24.159	1341.980	1096.245
110.133	24.240	1340.538	1095.470
111.147	24.137	1339.547	1093.934
112.162	24.154	1338.348	1092.963
113.176	24.175	1337.327	1092.155
114.191	24.257	1336.460	1091.854
115.206	24.180	1335.616	1090.596
116.220	24.210	1334.271	1089.584
117.235	24.181	1333.382	1088.588
118.249	24.038	1332.523	1086.918
119.264	24.098	1331.707	1086.521
120.279	24.060	1330.975	1085.595
121.293	24.256	1329.561	1085.539
122.308	24.161	1329.086	1084.477
123.322	24.181	1328.096	1083.697
124.337	24.194	1327.185	1082.933
125.352	24.130	1326.692	1082.047
126.366	24.190	1325.524	1081.365
127.381	24.217	1325.160	1081.136
128.395	24.253	1323.917	1080.245
129.410	24.321	1322.770	1079.625
130.424	24.271	1321.976	1078.580
131.439	24.212	1321.478	1077.721
132.454	24.179	1320.596	1076.705
133.468	24.284	1319.798	1076.594
134.483	24.211	1319.704	1075.982
135.497	24.219	1318.495	1074.948
136.512	24.182	1317.402	1073.740
137.527	24.201	1316.233	1072.805
138.541	24.187	1314.724	1071.395
139.556	24.223	1313.469	1070.497
140.570	24.237	1312.322	1069.553
141.585	24.125	1311.790	1068.351
142.600	24.211	1310.534	1067.748
143.614	24.196	1309.572	1066.782
144.629	24.070	1308.800	1065.304
145.643	24.130	1307.751	1064.713
146.658	24.196	1306.206	1063.755
147.673	24.185	1305.521	1063.037
148.687	24.231	1304.240	1062.172
149.702	24.150	1303.276	1060.815
150.716	24.225	1301.875	1060.025
151.731	24.133	1301.242	1058.869
152.746	24.181	1299.821	1057.904
153.760	24.244	1298.555	1057.153
154.775	24.241	1297.795	1056.423
155.789	24.125	1296.953	1054.956
156.804	24.249	1295.779	1054.643
157.819	24.162	1295.002	1053.400
158.833	24.132	1294.532	1052.751
159.848	24.256	1293.166	1052.276
160.862	24.222	1292.981	1051.833
161.877	24.122	1292.543	1050.795
162.892	24.317	1290.878	1050.497
163.906	24.283	1290.160	1049.620
164.921	24.213	1289.987	1048.971
165.935	24.263	1288.696	1048.124
166.950	24.285	1288.065	1047.651
167.964	24.202	1287.592	1046.684
168.979	24.242	1286.747	1046.137
169.994	24.269	1286.286	1045.829
171.008	24.211	1285.714	1044.930
172.023	24.379	1284.962	1045.213
173.037	24.274	1284.035	1043.751
174.052	24.297	1283.490	1043.353
175.067	24.270	1282.535	1042.323
176.081	24.314	1281.757	1041.857
177.096	24.268	1281.038	1040.912
178.110	24.305	1280.010	1040.200
179.125	24.310	1278.989	1039.305
180.140	24.340	1277.786	1038.411
181.154	24.363	1277.167	1037.952
182.169	24.240	1275.628	1035.895
183.183	24.312	1274.945	1035.665
184.198	24.310	1273.735	1034.582
185.213	24.358	1272.711	1033.934
186.227	24.450	1271.578	1033.457
187.242	24.281	1271.290	1032.154
188.256	24.325	1270.296	1031.510
189.271	24.357	1269.023	1030.567
190.286	24.293	1268.644	1029.801
191.300	24.343	1268.111	1029.563
192.315	24.282	1267.685	1028.776
193.329	24.346	1267.034	1028.522
194.344	24.415	1266.535	1028.427
195.359	24.443	1266.045	1028.097
196.373	24.360	1265.759	1027.299
197.388	24.380	1264.849	1026.581
198.402	24.245	1264.791	1025.671
199.417	24.335	1263.982	1025.439
200.432	24.351	1263.626	1025.152
201.446	24.367	1262.741	1024.438
202.461	24.269	1262.241	1023.373
203.475	24.411	1261.041	1023.129
204.490	24.450	1260.174	1022.558
205.504	24.391	1259.050	1021.217
206.519	24.434	1258.222	1020.700
207.534	24.443	1257.486	1020.064
208.548	24.359	1256.389	1018.606
209.563	24.471	1255.683	1018.583
210.577	24.422	1255.258	1017.865
211.592	24.450	1254.035	1016.947
212.607	24.503	1253.209	1016.488
213.621	24.511	1252.566	1015.921
214.636	24.616	1251.774	1015.785
215.650	24.479	1251.063	1014.342
216.665	24.519	1249.976	1013.595
217.680	24.432	1248.996	1012.218
218.694	24.413	1248.653	1011.742
219.709	24.500	1247.863	1011.504
220.723	24.456	1246.999	1010.469
221.738	24.557	1246.002	1010.139
222.753	24.412	1245.549	1008.863
223.767	24.397	1245.340	1008.520
224.782	24.527	1244.613	1008.578
225.796	24.558	1243.839	1008.037
226.811	24.547	1243.110	1007.296
227.826	24.609	1242.456	1007.024
228.840	24.559	1241.916	1006.218
229.855	24.628	1240.962	1005.741
230.869	24.484	1240.610	1004.559
231.884	24.617	1239.759	1004.526
232.899	24.473	1238.906	1002.940
233.913	24.640	1238.289	1003.288
234.928	24.605	1238.172	1002.910
235.942	24.717	1237.466	1002.876
236.957	24.578	1236.338	1001.095
237.972	24.744	1235.334	1001.123
238.986	24.745	1234.602	1000.444
240.001	24.670	1234.555	999.898
241.015	24.612	1233.790	998.864
242.030	24.743	1232.609	998.555
243.045	24.738	1232.023	997.960
244.059	24.815	1231.142	997.591
245.074	24.804	1230.511	996.930
246.088	24.823	1230.040	996.563
247.103	24.846	1228.885	995.669
248.117	24.809	1228.050	994.699
249.132	24.706	1227.757	993.800
250.147	24.852	1226.523	993.528
251.161	24.820	1226.135	992.945
252.176	24.792	1225.175	991.926
253.190	24.864	1224.628	991.793
254.205	24.843	1224.197	991.238
255.220	24.795	1223.513	990.332
256.234	24.846	1222.691	989.863
257.249	24.866	1222.350	989.608
258.263	24.891	1221.538	989.004
259.278	24.837	1221.207	988.349
260.293	24.958	1220.453	988.320
261.307	24.893	1219.971	987.482
262.322	24.943	1219.598	987.368
263.336	25.020	1218.323	986.675
264.351	25.012	1218.072	986.338
265.366	25.030	1217.389	985.797
266.380	24.897	1216.970	984.639
267.395	24.961	1216.122	984.216
268.409	24.851	1215.703	983.186
269.424	24.907	1214.928	982.783
270.439	24.903	1214.442	982.275
271.453	24.874	1214.267	981.889
272.468	24.916	1212.807	980.853
273.482	24.884	1211.982	979.922
274.497	25.002	1211.517	980.107
275.512	25.062	1211.215	980.105
276.526	25.007	1210.287	978.966
277.541	24.942	1209.818	978.144
278.555	24.983	1209.125	977.724
279.570	24.989	1208.488	977.155
280.585	25.121	1207.099	976.665
281.599	25.042	1206.648	975.784
282.614	25.007	1205.607	974.661
283.628	25.025	1205.001	974.183
284.643	25.076	1204.059	973.616
285.657	25.015	1203.248	972.542
286.672	25.022	1202.700	972.048
287.687	25.096	1201.595	971.470
288.701	25.148	1200.675	970.926
289.716	25.054	1200.322	970.045
290.730	25.092	1199.613	969.590
291.745	25.152	1199.051	969.372
292.760	25.121	1198.575	968.735
293.774	25.195	1197.540	968.215
294.789	25.168	1197.164	967.681
295.803	25.115	1196.655	966.893
296.818	25.127	1195.954	966.309
297.833	25.247	1195.129	966.202
298.847	25.308	1194.445	965.891
299.862	25.164	1193.779	964.495
300.876	25.287	1192.842	964.310
301.891	25.182	1192.981	963.775
302.906	25.257	1191.989	963.291
303.920	25.331	1191.340	963.077
304.935	25.294	1190.583	962.183
305.949	25.146	1190.288	961.067
306.964	25.321	1189.595	961.358
307.979	25.228	1188.919	960.230
308.993	25.365	1188.053	960.179
310.008	25.342	1187.077	959.181
311.022	25.302	1186.420	958.352
312.037	25.416	1185.506	958.138
313.052	25.436	1184.424	957.284
314.066	25.304	1184.129	956.259
315.081	25.294	1183.305	955.452
316.095	25.316	1182.724	955.018
317.110	25.322	1181.836	954.246
318.125	25.461	1181.154	954.351
319.139	25.410	1180.571	953.524
320.154	25.424	1180.132	953.159
321.168	25.489	1179.387	952.818
322.183	25.472	1179.001	952.331
323.197	25.322	1178.513	951.060
324.212	25.277	1177.704	950.084
325.227	25.499	1177.114	950.697
326.241	25.506	1176.468	950.128
327.256	25.515	1175.669	949.447
328.270	25.485	1175.272	948.884
329.285	25.453	1174.423	947.946
330.300	25.495	1173.277	947.157
331.314	25.473	1172.721	946.511
332.329	25.548	1171.541	945.871
333.343	25.668	1170.627	945.675
334.358	25.708	1169.912	945.226
335.373	25.563	1169.793	944.284
336.387	25.542	1169.254	943.655
337.402	25.538	1168.184	942.690
338.416	25.523	1167.775	942.197
339.431	25.539	1167.232	941.761
340.446	25.614	1166.071	941.130
341.460	25.627	1165.762	940.865
342.475	25.670	1164.797	940.229
343.489	25.644	1164.089	939.437
344.504	25.653	1163.050	938.563
345.519	25.645	1162.214	937.766
346.533	25.781	1161.365	937.705
347.548	25.750	1160.683	936.912
348.562	25.682	1160.200	936.082
349.577	25.772	1159.200	935.664
350.592	25.726	1158.300	934.613
351.606	25.639	1157.626	933.535
352.621	25.633	1157.572	933.376
353.635	25.729	1156.891	933.245
354.650	25.766	1156.206	932.801
355.665	25.761	1155.413	932.054
356.679	25.857	1154.957	932.100
357.694	25.859	1154.403	931.580
358.708	25.778	1153.764	930.564
359.723	25.753	1152.651	929.456
360.738	25.732	1152.253	928.942
361.752	25.778	1152.001	928.897
362.767	25.944	1150.815	928.713
363.781	25.989	1150.412	928.535
364.796	26.012	1149.310	927.680
365.810	25.933	1149.397	927.262
366.825	25.891	1148.835	926.511
367.840	25.907	1148.224	926.020
368.854	25.971	1147.721	925.863
369.869	25.922	1146.864	924.835
370.883	25.907	1146.133	924.086
371.898	25.956	1145.373	923.647
372.913	26.031	1144.533	923.272
373.927	25.982	1144.246	922.706
374.942	26.054	1143.693	922.544
375.956	26.041	1143.405	922.166
376.971	26.044	1142.622	921.470
377.986	26.057	1141.749	920.748
379.000	26.215	1141.136	920.979
380.015	26.119	1140.843	920.170
381.029	26.139	1140.184	919.662
382.044	26.099	1139.485	918.813
383.059	26.114	1138.605	918.095
384.073	26.098	1138.167	917.583
385.088	26.120	1137.371	916.972
386.102	26.213	1136.218	916.430
387.117	26.111	1135.613	915.347
388.132	26.118	1134.899	914.724
389.146	26.262	1134.204	914.812
390.161	26.289	1133.275	914.120
391.175	26.173	1132.445	912.781
392.190	26.219	1132.088	912.644
393.205	26.290	1131.223	912.226
394.219	26.264	1130.481	911.415
395.234	26.324	1129.766	911.059
396.248	26.219	1129.063	909.884
397.263	26.286	1128.087	909.356
398.278	26.434	1127.286	909.371
399.292	26.351	1126.595	908.319
400.307	26.336	1126.288	907.916
401.321	26.388	1125.414	907.390
402.336	26.272	1125.242	906.588
403.350	26.380	1124.148	906.170
404.365	26.452	1123.803	906.171
405.380	26.451	1122.974	905.416
406.394	26.279	1122.764	904.307
407.409	26.352	1121.569	903.631
408.423	26.374	1120.849	903.082
409.438	26.464	1119.809	902.613
410.453	26.641	1119.169	902.896
411.467	26.596	1118.454	902.015
412.482	26.449	1118.437	901.189
413.496	26.465	1117.568	900.492
414.511	26.425	1116.707	899.517
415.526	26.510	1116.375	899.593
416.540	26.550	1115.606	899.093
417.555	26.604	1115.466	899.169
418.569	26.426	1114.982	897.815
419.584	26.567	1114.311	897.896
420.599	26.633	1113.897	897.809
421.613	83.540	1294.246	1358.335
422.628	78.508	1320.519	1358.472
