DTS Sentinel unit serial number:	SN413079Multiplexer serial number:	ORYXHardware model number:	OX4-SRSoftware version number:	ORYX F/W v4.00 Oryx Data Collector v3.7.2.0data status	okinstallation	princeton_trtdifferential loss correction	single-endedforward channel	channel 2reverse channel	N/Adate	2019/09/19time	13:19:35forward acquisition time	60.00reverse acquisition time	0.00gamma	496.2192k internal	0.2328k external	0.2328temperature offset calibration	1.0021default loss term (dB/km)	0.3790temperature slope calibration	1.0000multiplexer offset coefficient	1.0000multiplexer slope coefficient	1.0000fibre end	0.00T internal ref (°C)	29.56T ext. ref 1 (°C)	0.96T ext. ref 2 (°C)	27.05length (m)	temperature (°C)	Stokes	anti-Stokes-747.200	58.495	0.281	-0.278
-746.185	197.021	-0.030	0.046
-745.171	-200.000	-0.050	0.320
-744.156	-200.000	-0.034	-0.232
-743.142	239.560	-0.107	0.179
-742.127	106.794	-0.145	-0.173
-741.112	-117.491	-0.211	0.038
-740.098	-108.733	-0.132	0.029
-739.083	-146.358	-0.093	-0.008
-738.069	70.134	-0.090	-0.093
-737.054	-200.000	-0.069	-0.347
-736.039	114.452	-0.191	0.234
-735.025	573.977	0.027	-0.067
-734.010	800.000	0.010	-0.040
-732.996	-200.000	-0.094	-0.501
-731.981	146.498	-0.279	-0.378
-730.966	-75.440	0.217	0.078
-729.952	40.779	-0.218	-0.198
-728.937	-124.603	0.183	0.029
-727.923	387.430	0.083	0.173
-726.908	-108.438	-0.202	-0.044
-725.894	-73.169	0.141	-0.052
-724.879	-36.286	0.206	0.112
-723.864	-200.000	0.042	-0.191
-722.850	800.000	-0.029	-0.092
-721.835	800.000	-0.073	-0.302
-720.821	-11.461	-0.085	-0.056
-719.806	138.897	-0.195	-0.258
-718.791	-116.442	-0.261	-0.049
-717.777	-200.000	-0.012	-0.365
-716.762	-47.945	0.209	-0.102
-715.748	-139.902	-0.197	0.021
-714.733	-126.238	-0.351	0.053
-713.718	188.764	0.090	0.135
-712.704	157.955	0.213	-0.298
-711.689	-86.866	-0.298	-0.091
-710.675	304.758	-0.067	-0.125
-709.660	335.309	-0.085	-0.165
-708.645	-200.000	-0.010	-0.082
-707.631	-19.485	0.132	-0.083
-706.616	317.548	0.199	-0.379
-705.602	-200.000	-0.025	0.135
-704.587	-109.845	0.266	-0.056
-703.572	-33.109	-0.030	0.017
-702.558	2.380	-0.195	-0.142
-701.543	-200.000	0.044	-0.335
-700.529	-1.317	-0.069	-0.049
-699.514	174.370	-0.183	0.266
-698.499	-116.522	-0.249	-0.046
-697.485	224.426	0.090	-0.146
-696.470	800.000	0.122	-0.365
-695.456	426.021	0.075	-0.162
-694.441	-86.571	-0.171	0.053
-693.426	380.531	0.045	0.093
-692.412	-200.000	-0.030	-0.508
-691.397	21.755	-0.012	0.010
-690.383	116.790	-0.033	0.040
-689.368	0.546	-0.134	0.096
-688.354	143.909	-0.091	0.122
-687.339	-200.000	-0.002	-0.288
-686.324	-106.341	-0.134	0.030
-685.310	-170.025	-0.200	0.007
-684.295	274.894	-0.070	-0.125
-683.281	-152.523	-0.502	-0.036
-682.266	74.597	-0.163	-0.173
-681.251	261.742	0.033	0.058
-680.237	154.163	0.208	0.287
-679.222	89.552	0.140	-0.158
-678.208	800.000	-0.054	-0.203
-677.193	-118.164	0.165	0.030
-676.178	-200.000	-0.035	-0.223
-675.164	70.220	-0.044	-0.046
-674.149	-106.228	0.250	-0.056
-673.135	-200.000	0.001	0.188
-672.120	-25.328	-0.326	0.194
-671.105	262.543	-0.111	-0.194
-670.091	-3.354	-0.164	-0.114
-669.076	15.447	-0.161	-0.127
-668.062	-147.394	-0.168	-0.014
-667.047	28.095	0.080	-0.068
-666.032	-200.000	-0.069	-0.382
-665.018	-84.297	-0.062	0.020
-664.003	800.000	0.091	0.255
-662.989	-200.000	-0.037	-0.228
-661.974	12.983	0.080	-0.062
-660.959	-19.208	0.208	-0.130
-659.945	-110.832	-0.270	0.056
-658.930	-108.685	0.039	-0.008
-657.916	41.086	0.153	-0.139
-656.901	-129.174	-0.170	0.024
-655.886	-40.141	-0.146	-0.076
-654.872	-101.091	0.172	-0.042
-653.857	-178.210	0.222	-0.005
-652.843	-124.871	0.097	0.015
-651.828	-200.000	-0.003	0.367
-650.814	-98.244	-0.370	-0.095
-649.799	-49.530	0.330	0.158
-648.784	-200.000	0.054	-0.378
-647.770	-116.464	-0.374	0.069
-646.755	-37.754	0.180	-0.096
-645.741	-97.557	-0.091	-0.024
-644.726	-99.833	-0.328	-0.082
-643.711	219.059	-0.115	-0.185
-642.697	199.069	0.065	-0.100
-641.682	-123.521	0.124	0.020
-640.668	-128.028	0.237	-0.034
-639.653	-48.901	-0.367	-0.177
-638.638	-42.403	-0.086	-0.044
-637.624	-28.476	0.577	0.334
-636.609	-55.522	-0.246	0.110
-635.595	-36.526	0.296	-0.160
-634.580	127.514	-0.054	0.068
-633.565	-24.736	-0.227	0.135
-632.551	800.000	0.092	0.380
-631.536	-200.000	0.034	0.299
-630.522	155.889	-0.066	0.091
-629.507	28.927	0.080	-0.068
-628.492	523.573	-0.035	-0.083
-627.478	79.345	0.121	0.131
-626.463	-59.076	-0.075	-0.033
-625.449	800.000	0.043	-0.179
-624.434	-0.016	-0.208	-0.149
-623.419	800.000	-0.085	-0.263
-622.405	-109.863	0.186	0.039
-621.390	244.953	0.221	-0.373
-620.376	69.496	-0.187	-0.194
-619.361	17.292	0.163	-0.129
-618.346	103.139	-0.138	0.162
-617.332	172.446	-0.044	0.064
-616.317	-200.000	-0.009	-0.093
-615.303	800.000	0.021	-0.086
-614.288	25.726	-0.055	-0.046
-613.273	35.227	-0.087	-0.076
-612.259	-124.514	0.442	0.069
-611.244	-161.309	-0.021	-0.001
-610.230	142.861	-0.103	-0.137
-609.215	-25.039	0.087	-0.052
-608.201	-200.000	0.035	0.231
-607.186	330.532	-0.038	-0.074
-606.171	800.000	-0.044	0.186
-605.157	-86.704	-0.441	0.135
-604.142	7.664	0.090	0.068
-603.128	-125.817	-0.095	0.014
-602.113	-67.551	-0.160	-0.063
-601.098	-112.893	0.130	-0.026
-600.084	-200.000	-0.055	0.268
-599.069	169.359	0.054	0.077
-598.055	493.292	-0.076	-0.175
-597.040	-98.611	-0.127	0.033
-596.025	82.895	-0.067	0.072
-595.011	-59.822	-0.229	0.098
-593.996	-114.887	0.491	-0.094
-592.982	25.116	-0.185	-0.154
-591.967	496.166	0.030	0.070
-590.952	67.797	0.224	-0.230
-589.938	-58.585	-0.211	-0.092
-588.923	-97.654	0.328	-0.085
-587.909	239.320	-0.228	0.379
-586.894	471.217	0.123	0.277
-585.879	-71.746	0.167	-0.063
-584.865	-86.972	-0.154	-0.047
-583.850	-162.394	0.219	0.011
-582.836	548.650	-0.091	0.217
-581.821	174.808	0.240	-0.348
-580.806	-103.266	0.374	-0.088
-579.792	-200.000	-0.008	-0.124
-578.777	-103.023	0.185	-0.044
-577.763	524.220	-0.154	0.362
-576.748	-24.341	-0.141	-0.084
-575.733	-200.000	-0.009	-0.085
-574.719	6.391	0.323	0.240
-573.704	800.000	-0.023	0.093
-572.690	-115.668	0.027	0.005
-571.675	168.894	0.038	0.054
-570.661	173.817	-0.090	-0.131
-569.646	800.000	-0.136	-0.388
-568.631	91.574	-0.222	-0.250
-567.617	-37.084	-0.102	0.055
-566.602	-49.618	0.124	0.059
-565.588	363.258	-0.039	0.078
-564.573	113.392	-0.058	0.071
-563.558	-121.980	-0.246	-0.040
-562.544	-53.629	-0.215	0.098
-561.529	-51.477	-0.338	-0.158
-560.515	800.000	-0.019	0.054
-559.500	-47.711	-0.101	-0.049
-558.485	-152.090	0.262	-0.019
-557.471	800.000	-0.099	0.308
-556.456	112.188	0.105	-0.127
-555.442	-200.000	0.025	0.147
-554.427	-111.973	0.187	0.038
-553.412	-5.190	0.139	0.096
-552.398	-54.568	0.255	0.115
-551.383	58.017	-0.151	0.148
-550.369	-73.661	-0.070	0.026
-549.354	-21.892	-0.124	-0.075
-548.339	-180.695	-0.191	-0.004
-547.325	800.000	0.027	-0.110
-546.310	-200.000	0.006	-0.261
-545.296	-200.000	0.015	-0.385
-544.281	62.372	-0.174	-0.174
-543.266	-129.574	0.192	0.026
-542.252	-200.000	-0.060	0.395
-541.237	-96.909	-0.104	0.027
-540.223	-63.913	0.109	-0.045
-539.208	-28.049	-0.153	0.088
-538.193	-68.449	0.067	-0.026
-537.179	-37.014	-0.195	-0.105
-536.164	-200.000	-0.016	-0.246
-535.150	-177.254	0.206	0.005
-534.135	-200.000	0.118	-0.547
-533.121	83.153	0.192	-0.209
-532.106	-156.877	-0.260	0.016
-531.091	-16.925	-0.122	-0.077
-530.077	-39.086	-0.175	-0.092
-529.062	800.000	-0.042	0.148
-528.048	-5.797	-0.108	-0.074
-527.033	91.954	0.155	0.175
-526.018	800.000	0.052	0.153
-525.004	-200.000	0.008	0.241
-523.989	-126.610	0.230	-0.034
-522.975	800.000	-0.034	0.119
-521.960	800.000	-0.050	0.214
-520.945	464.372	-0.046	-0.104
-519.931	-90.889	0.249	-0.072
-518.916	-130.311	-0.395	-0.054
-517.902	-31.508	-0.169	0.095
-516.887	114.567	0.099	0.120
-515.872	785.870	-0.054	0.148
-514.858	-82.464	-0.302	0.098
-513.843	474.829	0.063	0.142
-512.829	21.391	0.357	0.290
-511.814	57.784	-0.192	-0.187
-510.799	413.259	0.113	-0.240
-509.785	-140.121	-0.251	0.026
-508.770	190.754	0.293	-0.439
-507.756	173.759	-0.082	0.119
-506.741	-200.000	-0.023	-0.186
-505.726	308.264	-0.069	0.129
-504.712	-120.193	-0.246	0.042
-503.697	-8.190	0.065	0.044
-502.683	14.122	-0.099	0.077
-501.668	124.395	0.073	-0.092
-500.653	381.901	-0.038	-0.078
-499.639	545.129	0.095	0.226
-498.624	337.183	0.017	0.033
-497.610	285.587	0.113	-0.204
-496.595	-61.392	-0.245	-0.103
-495.581	6.645	-0.118	0.087
-494.566	56.910	-0.079	-0.077
-493.551	-200.000	0.006	-0.039
-492.537	180.329	0.123	-0.180
-491.522	35.426	-0.153	-0.134
-490.508	282.469	0.128	-0.229
-489.493	800.000	-0.056	-0.195
-488.478	-52.000	0.228	0.106
-487.464	-57.350	0.075	-0.033
-486.449	-6.038	-0.161	-0.110
-485.435	-200.000	-0.016	-0.274
-484.420	67.923	0.136	0.139
-483.405	631.687	-0.097	0.245
-482.391	-200.000	-0.038	0.223
-481.376	-200.000	-0.031	-0.277
-480.362	20.814	-0.362	0.292
-479.347	-197.202	0.240	-0.002
-478.332	457.922	-0.058	0.129
-477.318	500.372	0.035	-0.081
-476.303	-200.000	-0.005	0.054
-475.289	736.228	-0.076	0.202
-474.274	-4.451	0.173	0.119
-473.259	-200.000	-0.027	0.217
-472.245	-36.256	-0.127	-0.068
-471.230	800.000	-0.069	-0.237
-470.216	-200.000	-0.018	-0.311
-469.201	-37.649	0.273	0.145
-468.186	-99.695	0.030	0.007
-467.172	283.372	-0.178	0.318
-466.157	-82.593	0.063	-0.020
-465.143	-126.578	-0.290	0.043
-464.128	-200.000	0.034	-0.167
-463.113	-42.731	-0.185	0.094
-462.099	335.324	0.160	0.308
-461.084	240.277	-0.091	-0.151
-460.070	-126.743	-0.136	0.020
-459.055	-98.986	-0.181	0.046
-458.040	-200.000	0.006	0.056
-457.026	-151.182	0.401	0.030
-456.011	-136.935	-0.246	0.028
-454.997	125.879	-0.056	-0.070
-453.982	50.362	0.240	-0.226
-452.968	58.311	-0.125	0.122
-451.953	114.448	-0.154	0.187
-450.938	-46.638	0.166	-0.081
-449.924	-200.000	-0.052	-0.389
-448.909	93.970	0.213	-0.241
-447.895	14.083	0.156	-0.121
-446.880	-179.724	-0.098	-0.002
-445.865	-200.000	-0.030	0.464
-444.851	800.000	0.098	-0.288
-443.836	53.682	-0.219	-0.209
-442.822	-150.959	0.501	0.038
-441.807	-11.914	0.129	-0.084
-440.792	-184.899	-0.238	-0.004
-439.778	330.095	-0.114	-0.219
-438.763	45.917	-0.059	0.055
-437.749	-197.158	0.153	-0.001
-436.734	-200.000	0.030	0.141
-435.719	-200.000	-0.001	0.049
-434.705	-18.458	0.277	0.172
-433.690	-64.518	0.227	-0.092
-432.676	-100.802	-0.106	-0.026
-431.661	-153.162	0.248	0.017
-430.646	5.560	0.084	-0.062
-429.632	191.581	0.036	0.055
-428.617	25.863	-0.098	0.081
-427.603	800.000	0.059	0.212
-426.588	494.172	-0.109	0.248
-425.573	-10.389	-0.249	0.164
-424.559	-89.526	-0.317	-0.093
-423.544	-145.867	-0.117	0.010
-422.530	152.219	-0.065	0.089
-421.515	-33.571	-0.347	-0.191
-420.500	122.136	-0.272	-0.338
-419.486	800.000	0.016	0.056
-418.471	-200.000	-0.065	-0.399
-417.457	-64.060	-0.535	0.217
-416.442	124.536	0.138	-0.173
-415.428	543.050	0.106	-0.251
-414.413	73.294	0.103	-0.108
-413.398	-125.211	0.066	0.010
-412.384	-94.283	-0.167	-0.045
-411.369	-200.000	-0.002	0.088
-410.355	215.168	0.059	-0.093
-409.340	188.211	-0.062	0.092
-408.325	-120.181	0.084	0.014
-407.311	621.052	-0.124	0.311
-406.296	-200.000	0.003	0.181
-405.282	-200.000	-0.011	0.171
-404.267	-200.000	-0.019	-0.186
-403.252	-45.214	-0.126	-0.062
-402.238	215.754	-0.038	0.059
-401.223	65.054	0.056	0.056
-400.209	-39.937	0.030	0.015
-399.194	-32.141	-0.172	0.096
-398.179	-143.159	-0.152	-0.015
-397.165	98.043	-0.157	-0.179
-396.150	86.912	0.160	0.176
-395.136	-46.521	0.082	-0.040
-394.121	-151.562	-0.288	0.021
-393.106	-200.000	0.010	-0.477
-392.092	-98.287	-0.236	-0.060
-391.077	76.777	-0.261	-0.275
-390.063	4.079	0.111	-0.081
-389.048	137.086	-0.255	0.331
-388.033	-200.000	0.009	0.045
-387.019	2.089	0.176	-0.126
-386.004	-125.941	0.173	-0.026
-384.990	-95.483	0.236	0.063
-383.975	-71.472	0.227	0.084
-382.960	-84.763	0.321	-0.100
-381.946	-200.000	-0.008	-0.249
-380.931	-88.402	0.099	0.029
-379.917	196.653	0.133	-0.201
-378.902	30.907	0.212	0.180
-377.888	14.318	0.073	0.056
-376.873	413.224	0.085	-0.179
-375.858	127.066	-0.195	0.246
-374.844	-100.666	0.068	0.017
-373.829	514.530	0.081	0.187
-372.815	-139.717	0.277	0.029
-371.800	-28.023	-0.222	0.128
-370.785	175.987	-0.250	0.361
-369.771	-135.246	-0.141	-0.017
-368.756	247.675	-0.223	-0.375
-367.742	196.059	-0.127	-0.192
-366.727	379.858	0.043	-0.088
-365.712	-33.492	-0.191	-0.105
-364.698	-112.594	-0.060	-0.012
-363.683	-84.026	-0.100	0.032
-362.669	-200.000	0.070	0.372
-361.654	800.000	-0.091	0.272
-360.639	47.710	0.234	-0.217
-359.625	199.389	0.168	0.256
-358.610	-90.120	-0.247	0.071
-357.596	403.067	0.062	-0.129
-356.581	-139.075	0.216	-0.023
-355.566	-81.680	-0.189	0.062
-354.552	-31.241	0.136	-0.076
-353.537	153.202	0.101	0.138
-352.523	341.540	0.076	0.148
-351.508	4.062	-0.044	0.032
-350.493	21.306	-0.223	-0.180
-349.479	800.000	0.081	-0.284
-348.464	800.000	0.027	-0.087
-347.450	-200.000	0.047	-0.267
-346.435	-57.682	0.250	-0.109
-345.420	-82.291	-0.063	-0.020
-344.406	-31.602	0.082	0.046
-343.391	-41.264	0.153	-0.078
-342.377	-200.000	0.054	-0.236
-341.362	-71.067	0.144	-0.054
-340.348	33.194	-0.358	0.308
-339.333	-55.575	-0.274	-0.122
-338.318	121.050	-0.128	-0.158
-337.304	86.152	-0.140	-0.153
-336.289	57.326	-0.129	-0.125
-335.275	26.800	0.285	0.236
-334.260	242.519	0.156	-0.259
-333.245	-41.626	-0.235	0.120
-332.231	686.669	0.170	0.440
-331.216	117.410	0.299	0.365
-330.202	800.000	0.179	-0.524
-329.187	-133.162	-0.248	-0.031
-328.172	769.224	0.023	0.061
-327.158	800.000	0.130	0.404
-326.143	539.276	0.014	0.034
-325.129	-146.090	0.370	-0.032
-324.114	-97.645	-0.180	-0.046
-323.099	9.272	-0.101	-0.075
-322.085	-41.799	-0.225	-0.114
-321.070	800.000	0.054	0.223
-320.056	123.088	0.170	-0.210
-319.041	-150.517	-0.253	0.019
-318.026	9.186	0.028	-0.021
-317.012	-1.341	-0.230	-0.161
-315.997	127.701	-0.153	0.193
-314.983	-148.888	0.296	0.024
-313.968	355.968	-0.139	0.274
-312.953	26.802	-0.236	0.196
-311.939	24.924	0.146	-0.120
-310.924	-200.000	-0.036	0.483
-309.910	404.113	-0.113	0.235
-308.895	-200.000	0.038	-0.226
-307.880	83.101	-0.078	-0.085
-306.866	-85.743	-0.042	0.013
-305.851	682.123	-0.053	-0.137
-304.837	226.381	0.094	0.152
-303.822	-200.000	-0.027	0.143
-302.807	-88.017	-0.273	-0.081
-301.793	-61.282	0.638	-0.266
-300.778	55.220	0.127	0.121
-299.764	39.382	-0.252	-0.223
-298.749	282.391	0.106	-0.188
-297.735	17.312	-0.094	0.074
-296.720	-164.906	0.215	-0.010
-295.705	-48.012	0.252	0.121
-294.691	-200.000	0.016	0.111
-293.676	-111.611	0.126	0.025
-292.662	800.000	-0.117	0.375
-291.647	-75.921	-0.180	-0.063
-290.632	-134.891	0.245	0.029
-289.618	-150.519	-0.105	0.008
-288.603	-70.177	-0.091	0.034
-287.589	-200.000	0.024	-0.202
-286.574	4.988	0.058	-0.042
-285.559	-92.709	-0.303	0.084
-284.545	-40.317	-0.187	0.096
-283.530	-113.972	0.255	-0.049
-282.516	-144.778	-0.330	-0.030
-281.501	-24.281	0.337	-0.199
-280.486	149.979	-0.264	-0.355
-279.472	-55.611	0.273	0.121
-278.457	-85.373	-0.230	0.071
-277.443	-60.704	-0.206	-0.087
-276.428	-200.000	0.033	-0.149
-275.413	-82.311	0.182	-0.059
-274.399	106.631	0.040	-0.048
-273.384	302.177	0.073	0.134
-272.370	121.964	-0.225	-0.277
-271.355	-56.489	-0.215	-0.094
-270.340	-101.554	0.124	-0.030
-269.326	-169.732	0.135	-0.005
-268.311	800.000	0.027	-0.074
-267.297	-71.901	-0.303	-0.112
-266.282	-96.890	0.151	0.039
-265.267	-200.000	-0.023	0.313
-264.253	-17.494	0.233	0.145
-263.238	-137.501	-0.079	-0.009
-262.224	569.314	0.033	-0.080
-261.209	224.755	0.197	0.315
-260.195	-200.000	0.053	0.391
-259.180	-45.213	-0.114	0.056
-258.165	24.923	0.134	0.110
-257.151	42.221	0.105	-0.094
-256.136	-129.736	0.322	0.044
-255.122	-130.246	-0.135	0.018
-254.107	105.366	-0.197	0.230
-253.092	36.698	-0.072	0.063
-252.078	-111.902	0.244	0.049
-251.063	79.201	0.085	-0.090
-250.049	-18.566	0.189	-0.117
-249.034	28.410	-0.259	-0.216
-248.019	-200.000	0.031	0.134
-247.005	106.128	-0.035	0.041
-245.990	384.087	-0.155	-0.316
-244.976	408.547	-0.166	0.346
-243.961	29.668	0.080	0.067
-242.946	-50.962	-0.316	-0.147
-241.932	168.971	-0.160	0.225
-240.917	780.170	-0.072	0.194
-239.903	-200.000	-0.011	-0.171
-238.888	-200.000	0.024	-0.156
-237.873	65.268	-0.138	-0.138
-236.859	800.000	0.076	-0.295
-235.844	180.771	0.255	-0.370
-234.830	-34.196	-0.376	-0.204
-233.815	333.059	-0.032	0.061
-232.800	141.179	0.291	0.380
-231.786	111.984	0.114	-0.136
-230.771	43.313	0.255	0.230
-229.757	321.108	0.095	0.178
-228.742	-48.080	0.319	0.152
-227.727	172.155	-0.176	-0.250
-226.713	-200.000	0.093	-0.000
-225.698	-8.681	-0.291	0.193
-224.684	199.555	0.029	0.044
-223.669	-66.719	0.193	-0.075
-222.655	54.542	0.185	-0.176
-221.640	-13.214	-0.260	0.166
-220.625	-84.188	0.262	0.082
-219.611	-70.851	0.203	-0.076
-218.596	79.048	-0.195	0.206
-217.582	3.119	-0.400	-0.287
-216.567	784.048	0.052	-0.140
-215.552	-200.000	0.001	-0.116
-214.538	385.920	0.021	-0.042
-213.523	97.981	0.078	0.089
-212.509	-200.000	0.037	0.323
-211.494	-101.116	-0.201	-0.049
-210.479	-59.367	0.501	-0.213
-209.465	-0.443	0.159	0.112
-208.450	61.235	-0.121	0.118
-207.436	-43.229	0.074	0.037
-206.421	-150.043	0.189	-0.014
-205.406	800.000	-0.075	-0.208
-204.392	105.438	0.117	-0.137
-203.377	235.228	-0.136	0.221
-202.363	-68.995	0.199	-0.076
-201.348	753.102	-0.054	-0.144
-200.333	-82.314	-0.549	0.176
-199.319	216.150	-0.062	0.098
-198.304	214.556	-0.073	0.115
-197.290	-103.700	0.106	0.025
-196.275	150.783	-0.077	-0.103
-195.260	-0.101	-0.293	0.205
-194.246	800.000	0.030	0.107
-193.231	408.656	-0.132	0.275
-192.217	800.000	-0.024	0.093
-191.202	535.872	-0.087	-0.204
-190.187	-100.536	0.069	-0.017
-189.173	-200.000	0.008	0.131
-188.158	800.000	-0.058	0.233
-187.144	0.638	0.124	0.088
-186.129	309.073	0.150	0.276
-185.114	-144.590	-0.185	0.017
-184.100	-200.000	-0.013	-0.056
-183.085	800.000	0.013	0.036
-182.071	-200.000	0.007	0.037
-181.056	-31.398	0.229	-0.127
-180.042	-142.864	0.069	0.007
-179.027	-114.970	0.319	-0.060
-178.012	-200.000	0.059	0.278
-176.998	507.848	0.186	0.426
-175.983	343.282	0.094	-0.182
-174.969	-200.000	0.008	0.126
-173.954	-67.965	0.163	0.063
-172.939	111.695	0.290	-0.345
-171.925	-62.271	0.269	-0.110
-170.910	115.484	-0.135	0.163
-169.896	-129.422	0.262	0.036
-168.881	-78.938	-0.301	-0.101
-167.866	719.090	0.069	-0.182
-166.852	-104.122	0.233	-0.053
-165.837	-0.808	-0.199	-0.139
-164.823	-24.515	0.105	0.062
-163.808	158.208	-0.041	0.055
-162.793	800.000	0.078	0.246
-161.779	-35.940	0.164	-0.087
-160.764	-190.546	-0.275	0.003
-159.750	800.000	-0.060	-0.253
-158.735	-46.041	0.282	-0.137
-157.720	-33.361	0.187	-0.102
-156.706	-200.000	0.235	-0.001
-155.691	4.071	-0.107	0.077
-154.677	-152.845	0.165	0.012
-153.662	-92.096	0.117	0.033
-152.647	-200.000	-0.004	-0.081
-151.633	-200.000	-0.028	0.349
-150.618	-200.000	-0.014	0.351
-149.604	148.415	0.163	0.217
-148.589	-47.474	-0.141	0.067
-147.574	67.343	-0.004	0.004
-146.560	800.000	-0.024	-0.079
-145.545	181.289	0.131	-0.190
-144.531	-103.718	0.172	0.040
-143.516	286.137	-0.052	0.092
-142.502	-118.480	0.430	-0.075
-141.487	-126.915	-0.267	-0.039
-140.472	-200.000	-0.010	0.113
-139.458	-35.870	0.166	0.088
-138.443	-148.801	-0.232	0.019
-137.429	-8.753	0.276	-0.182
-136.414	-154.576	-0.072	0.005
-135.399	74.039	-0.028	0.029
-134.385	276.999	0.158	-0.277
-133.370	82.858	0.047	-0.050
-132.356	800.000	0.099	-0.286
-131.341	-200.000	0.034	-0.184
-130.326	-109.231	-0.071	-0.015
-129.312	-28.190	-0.203	-0.116
-128.297	-42.568	-0.222	0.111
-127.283	0.611	0.235	-0.165
-126.268	364.309	0.099	0.196
-125.253	37.174	-0.116	0.101
-124.239	-14.302	0.213	0.135
-123.224	-6.468	0.234	0.157
-122.210	49.683	0.137	-0.127
-121.195	-200.000	-0.016	0.278
-120.180	102.161	0.055	0.063
-119.166	686.273	0.032	0.081
-118.151	-22.326	0.138	0.082
-117.137	-200.000	-0.030	-0.182
-116.122	-74.797	-0.226	0.080
-115.107	241.654	0.106	0.174
-114.093	157.237	0.116	0.157
-113.078	94.360	-0.163	-0.182
-112.064	-200.000	-0.020	0.132
-111.049	-43.637	-0.125	-0.062
-110.034	-51.005	0.185	-0.086
-109.020	-145.256	0.209	-0.019
-108.005	800.000	0.099	0.374
-106.991	-28.405	-0.225	-0.128
-105.976	229.112	-0.186	0.299
-104.962	-55.747	-0.192	0.084
-103.947	246.833	-0.070	-0.117
-102.932	-200.000	-0.027	-0.119
-101.918	-63.985	0.162	-0.065
-100.903	-78.948	0.344	-0.115
-99.889	-113.029	-0.156	-0.030
-98.874	181.105	-0.184	-0.266
-97.859	185.777	-0.286	0.417
-96.845	207.987	0.125	-0.192
-95.830	300.071	0.190	-0.344
-94.816	-200.000	-0.031	-0.264
-93.801	289.831	-0.251	0.448
-92.786	-200.000	0.024	0.291
-91.772	640.567	0.022	-0.056
-90.757	-133.960	0.243	-0.030
-89.743	15.370	-0.115	0.089
-88.728	-72.863	0.362	-0.131
-87.713	13.958	-0.296	-0.226
-86.699	35.567	0.165	-0.143
-85.684	-88.368	0.149	0.044
-84.670	-80.662	0.045	-0.015
-83.655	263.468	-0.155	0.264
-82.640	27.675	0.313	-0.259
-81.626	-14.507	0.149	-0.094
-80.611	-159.957	0.032	0.002
-79.597	285.186	0.195	-0.345
-78.582	507.192	0.081	-0.185
-77.567	-125.382	0.220	0.033
-76.553	-6.769	0.254	0.170
-75.538	-11.142	-0.272	0.176
-74.524	-7.999	0.320	0.212
-73.509	-131.123	0.197	-0.026
-72.494	-102.733	0.049	-0.012
-71.480	-76.460	-0.471	-0.162
-70.465	-195.338	-0.397	-0.003
-69.451	-114.463	0.017	-0.003
-68.436	47.916	-0.162	-0.148
-67.422	-19.892	0.121	0.073
-66.407	-94.251	-0.302	-0.081
-65.392	-200.000	0.004	0.103
-64.378	474.430	0.073	0.161
-63.363	4.382	0.133	0.096
-62.349	-200.000	-0.000	0.105
-61.334	41.440	-1.104	-0.980
-60.319	93.400	0.392	0.436
-59.305	800.000	-0.280	-1.122
-58.290	224.824	0.509	0.809
-57.276	266.706	0.742	1.272
-56.261	-200.000	102.733	575.305
-55.246	438.583	1479.458	3166.753
-54.232	141.525	2707.963	3517.463
-53.217	98.967	2340.923	2651.677
-52.203	38.669	1947.225	1704.287
-51.188	32.580	1732.590	1469.061
-50.173	30.142	1687.633	1412.341
-49.159	48.610	1738.940	1598.495
-48.144	48.715	1756.114	1615.031
-47.130	32.206	1714.671	1450.749
-46.115	29.601	1699.649	1418.015
-45.100	29.440	1694.673	1412.579
-44.086	29.466	1692.198	1410.653
-43.071	29.430	1689.359	1407.956
-42.057	29.441	1686.580	1405.672
-41.042	29.396	1684.961	1403.927
-40.027	29.469	1682.413	1402.301
-39.013	29.404	1680.869	1400.467
-37.998	29.387	1678.902	1398.640
-36.984	29.561	1677.437	1398.686
-35.969	29.503	1676.542	1397.445
-34.954	29.494	1674.943	1395.985
-33.940	29.541	1672.702	1394.418
-32.925	29.586	1671.275	1393.515
-31.911	29.595	1669.075	1391.690
-30.896	29.550	1667.249	1389.776
-29.881	29.547	1666.637	1389.185
-28.867	29.508	1664.679	1387.206
-27.852	29.560	1662.883	1386.044
-26.838	29.611	1661.180	1384.950
-25.823	29.552	1660.045	1383.509
-24.809	29.566	1659.087	1382.760
-23.794	29.579	1657.284	1381.298
-22.779	29.605	1655.871	1380.260
-21.765	29.573	1654.141	1378.523
-20.750	29.599	1652.016	1376.894
-19.736	29.661	1651.134	1376.570
-18.721	29.601	1649.482	1374.691
-17.706	29.638	1647.762	1373.477
-16.692	29.577	1646.361	1371.799
-15.677	29.611	1644.936	1370.814
-14.663	29.640	1643.631	1369.882
-13.648	29.646	1642.065	1368.565
-12.633	29.561	1640.849	1366.873
-11.619	29.674	1639.258	1366.331
-10.604	29.560	1638.074	1364.441
-9.590	29.531	1636.998	1363.277
-8.575	29.598	1635.261	1362.274
-7.560	29.546	1634.442	1361.151
-6.546	29.605	1633.000	1360.335
-5.531	29.586	1631.952	1359.265
-4.517	29.669	1630.705	1358.782
-3.502	29.623	1629.595	1357.470
-2.487	29.690	1627.841	1356.446
-1.473	29.690	1616.367	1346.829
-0.458	27.346	1597.761	1314.368
0.556	22.813	1598.602	1281.505
1.571	20.080	1621.269	1279.407
2.586	19.004	1633.178	1280.686
3.600	16.976	1579.447	1223.823
4.615	9.769	1466.841	1088.020
5.629	2.529	1402.807	993.592
6.644	1.017	1394.514	977.879
7.659	0.988	1393.265	976.727
8.673	0.974	1392.166	975.778
9.688	0.872	1390.192	973.652
10.702	0.755	1387.192	970.714
11.717	3.917	1391.962	994.316
12.731	11.446	1404.254	1051.676
13.746	16.541	1410.502	1089.149
14.761	17.309	1410.811	1094.241
15.775	16.743	1409.163	1089.225
16.790	15.837	1406.405	1081.180
17.804	14.962	1404.075	1073.677
18.819	14.624	1402.682	1070.352
19.834	14.272	1401.096	1066.791
20.848	14.082	1399.801	1064.495
21.863	13.857	1398.691	1062.119
22.877	13.630	1397.197	1059.434
23.892	13.609	1396.500	1058.681
24.907	13.540	1395.924	1057.709
25.921	13.570	1394.612	1056.814
26.936	13.722	1393.103	1056.542
27.950	13.777	1392.547	1056.380
28.965	13.630	1392.299	1055.164
29.980	13.819	1390.579	1054.970
30.994	13.903	1389.855	1054.856
32.009	13.850	1389.136	1053.879
33.023	13.910	1387.712	1053.092
34.038	13.783	1386.690	1051.417
35.053	13.771	1385.563	1050.394
36.067	13.811	1384.446	1049.708
37.082	13.736	1384.047	1048.835
38.096	13.816	1382.765	1048.275
39.111	13.789	1381.661	1047.178
40.126	13.684	1381.492	1046.294
41.140	13.726	1380.398	1045.637
42.155	13.700	1379.842	1044.960
43.169	13.692	1379.678	1044.692
44.184	13.698	1379.346	1044.385
45.199	13.614	1379.187	1043.646
46.213	13.667	1378.196	1043.133
47.228	13.741	1377.203	1042.755
48.242	13.835	1376.084	1042.408
49.257	13.721	1374.387	1040.315
50.271	13.685	1373.351	1039.215
51.286	13.752	1371.924	1038.462
52.301	13.768	1370.847	1037.652
53.315	13.788	1369.680	1036.806
54.330	13.727	1368.445	1035.395
55.344	13.734	1367.405	1034.562
56.359	13.697	1366.330	1033.429
57.374	13.699	1365.463	1032.695
58.388	13.626	1364.349	1031.306
59.403	13.596	1364.176	1030.894
60.417	13.582	1363.627	1030.300
61.432	13.650	1362.143	1029.509
62.447	13.589	1361.110	1028.260
63.461	13.623	1359.981	1027.525
64.476	13.601	1358.782	1026.395
65.490	13.567	1358.349	1025.766
66.505	13.578	1356.225	1024.141
67.520	13.676	1354.825	1023.595
68.534	13.625	1353.849	1022.456
69.549	13.731	1352.301	1021.850
70.563	13.701	1351.665	1021.096
71.578	13.567	1350.277	1019.128
72.593	13.545	1349.406	1018.246
73.607	13.456	1349.083	1017.365
74.622	13.569	1347.794	1016.999
75.636	13.557	1347.159	1016.356
76.651	13.574	1346.016	1015.504
77.666	13.512	1346.224	1015.194
78.680	13.569	1345.431	1014.857
79.695	13.563	1344.370	1013.931
80.709	13.613	1343.462	1013.457
81.724	13.606	1342.934	1012.928
82.739	13.530	1342.038	1011.696
83.753	13.606	1341.011	1011.298
84.768	13.762	1340.118	1011.488
85.782	13.789	1338.974	1010.697
86.797	13.711	1337.654	1009.137
87.812	13.793	1335.725	1008.093
88.826	13.700	1335.074	1006.947
89.841	13.643	1334.016	1005.717
90.855	13.758	1333.044	1005.590
91.870	13.737	1332.069	1004.635
92.884	13.671	1331.328	1003.590
93.899	13.738	1330.175	1003.039
94.914	13.877	1329.323	1003.144
95.928	13.750	1329.105	1002.127
96.943	13.782	1327.940	1001.351
97.957	13.797	1326.865	1000.542
98.972	13.798	1326.077	999.867
99.987	13.753	1324.889	998.611
101.001	13.851	1323.613	998.149
102.016	13.790	1322.642	996.962
103.030	13.828	1321.955	996.587
104.045	13.835	1321.031	995.841
105.060	13.698	1319.858	994.047
106.074	13.738	1318.234	992.978
107.089	13.806	1316.891	992.286
108.103	13.701	1315.836	990.774
109.118	13.542	1314.872	989.012
110.133	13.680	1312.907	988.267
111.147	13.788	1311.577	987.825
112.162	13.679	1310.522	986.290
113.176	13.768	1309.261	985.784
114.191	13.790	1308.521	985.270
115.206	13.750	1307.339	984.059
116.220	13.777	1305.716	982.909
117.235	13.667	1304.910	981.565
118.249	13.658	1304.378	981.025
119.264	13.832	1302.597	980.627
120.279	13.717	1301.412	978.970
121.293	13.657	1300.436	977.793
122.308	13.685	1299.184	976.932
123.322	13.737	1297.800	976.109
124.337	13.635	1297.340	975.078
125.352	13.728	1296.237	974.709
126.366	13.683	1294.836	973.302
127.381	13.633	1293.675	972.052
128.395	13.685	1292.539	971.417
129.410	13.749	1291.115	970.634
130.424	13.655	1290.782	969.750
131.439	13.718	1290.172	969.574
132.454	13.773	1288.930	968.875
133.468	13.708	1287.819	967.578
134.483	13.809	1286.370	966.988
135.497	13.778	1285.891	966.366
136.512	13.617	1284.938	964.626
137.527	13.756	1283.203	964.048
138.541	13.782	1281.461	962.804
139.556	13.820	1280.210	961.997
140.570	13.754	1279.429	960.941
141.585	13.901	1277.853	960.523
142.600	13.918	1276.540	959.550
143.614	13.875	1275.993	958.805
144.629	13.804	1274.940	957.518
145.643	13.933	1273.885	957.390
146.658	13.842	1272.951	956.075
147.673	13.836	1271.657	954.986
148.687	13.830	1269.846	953.509
149.702	13.854	1268.586	952.613
150.716	13.837	1267.286	951.457
151.731	13.825	1266.048	950.374
152.746	13.895	1264.785	949.742
153.760	13.863	1263.981	948.872
154.775	13.928	1262.340	947.927
155.789	14.045	1261.670	948.010
156.804	13.992	1260.274	946.575
157.819	14.004	1259.398	945.900
158.833	14.021	1258.337	945.117
159.848	14.110	1257.498	944.906
160.862	13.948	1256.865	943.428
161.877	13.980	1255.442	942.461
162.892	13.935	1254.358	941.308
163.906	13.885	1253.861	940.569
164.921	13.982	1252.741	940.194
165.935	13.988	1252.163	939.710
166.950	13.976	1250.946	938.642
167.964	14.053	1250.200	938.434
168.979	13.977	1249.348	937.283
169.994	14.046	1248.909	937.260
171.008	14.026	1247.907	936.313
172.023	14.065	1246.740	935.574
173.037	14.084	1245.768	934.869
174.052	14.219	1244.971	934.949
175.067	14.123	1243.691	933.363
176.081	13.995	1243.107	932.127
177.096	14.049	1242.427	931.836
178.110	14.145	1240.897	931.144
179.125	14.049	1239.858	929.747
180.140	14.097	1238.497	928.910
181.154	14.215	1236.890	928.281
182.169	14.129	1236.056	927.093
183.183	14.198	1235.252	926.791
184.198	14.290	1233.675	926.039
185.213	14.185	1232.508	924.499
186.227	14.225	1231.334	923.756
187.242	14.242	1230.419	923.082
188.256	14.297	1229.187	922.382
189.271	14.264	1228.500	921.602
190.286	14.291	1227.286	920.762
191.300	14.205	1226.612	919.699
192.315	14.180	1225.637	918.745
193.329	14.257	1224.815	918.473
194.344	14.250	1224.662	918.237
195.359	14.230	1223.969	917.528
196.373	14.311	1223.514	917.553
197.388	14.452	1222.720	917.655
198.402	14.491	1222.052	917.283
199.417	14.502	1221.617	916.939
200.432	14.408	1220.546	915.535
201.446	14.586	1219.407	915.575
202.461	14.533	1218.874	914.806
203.475	14.543	1217.884	914.035
204.490	14.613	1216.421	913.239
205.504	14.402	1215.693	911.457
206.519	14.522	1214.278	910.974
207.534	14.618	1212.713	910.243
208.548	14.503	1212.154	909.114
209.563	14.511	1211.158	908.329
210.577	14.522	1210.610	907.899
211.592	14.663	1209.230	907.549
212.607	14.699	1208.422	907.060
213.621	14.625	1207.684	906.023
214.636	14.503	1207.117	904.857
215.650	14.666	1206.190	904.965
216.665	14.726	1204.690	904.082
217.680	14.778	1203.925	903.712
218.694	14.657	1203.646	902.765
219.709	14.815	1202.273	902.511
220.723	14.816	1201.465	901.829
221.738	14.738	1201.120	901.071
222.753	14.737	1200.347	900.406
223.767	14.839	1199.360	900.137
224.782	14.876	1198.827	899.857
225.796	14.918	1198.132	899.481
226.811	14.871	1197.734	898.849
227.826	14.930	1196.898	898.458
228.840	14.888	1196.081	897.543
229.855	14.880	1195.638	897.085
230.869	14.883	1194.258	895.989
231.884	14.974	1193.301	895.675
232.899	14.830	1192.940	894.557
233.913	14.913	1192.104	894.291
234.928	14.931	1191.391	893.774
235.942	14.817	1190.741	892.601
236.957	14.948	1189.460	892.261
237.972	14.856	1189.237	891.524
238.986	14.876	1188.399	890.924
240.001	14.880	1187.793	890.413
241.015	15.025	1186.399	890.060
242.030	15.031	1185.606	889.415
243.045	14.934	1185.134	888.466
244.059	15.049	1184.163	888.270
245.074	14.987	1183.535	887.392
246.088	15.110	1182.363	887.087
247.103	15.068	1181.322	886.009
248.117	15.056	1180.885	885.537
249.132	15.227	1180.069	885.751
250.147	15.185	1179.427	884.966
251.161	15.208	1178.725	884.483
252.176	15.152	1178.271	883.770
253.190	15.260	1177.576	883.741
254.205	15.375	1176.845	883.721
255.220	15.361	1176.172	883.060
256.234	15.342	1175.570	882.429
257.249	15.336	1174.869	881.794
258.263	15.296	1174.445	881.190
259.278	15.438	1173.768	881.348
260.293	15.377	1173.261	880.568
261.307	15.375	1172.893	880.205
262.322	15.395	1171.821	879.426
263.336	15.463	1170.934	879.039
264.351	15.552	1170.227	878.900
265.366	15.362	1170.064	877.701
266.380	15.458	1169.277	877.540
267.395	15.513	1168.037	876.816
268.409	15.522	1167.741	876.561
269.424	15.497	1167.072	875.852
270.439	15.444	1166.528	875.092
271.453	15.550	1165.324	874.661
272.468	15.587	1164.176	873.918
273.482	15.493	1163.718	873.004
274.497	15.433	1163.738	872.633
275.512	15.543	1162.507	872.203
276.526	15.615	1161.676	871.879
277.541	15.640	1161.043	871.455
278.555	15.610	1160.434	870.765
279.570	15.657	1159.610	870.311
280.585	15.764	1158.489	869.948
281.599	15.716	1157.818	869.116
282.614	15.578	1157.266	867.916
283.628	15.673	1156.044	867.413
284.643	15.689	1155.127	866.729
285.657	15.749	1154.229	866.287
286.672	15.901	1152.714	865.857
287.687	15.716	1152.025	864.308
288.701	15.788	1151.544	864.244
289.716	15.776	1151.076	863.751
290.730	15.845	1149.620	862.938
291.745	15.776	1149.220	862.207
292.760	15.873	1148.504	862.090
293.774	15.904	1148.070	861.850
294.789	15.832	1147.888	861.267
295.803	15.892	1146.505	860.459
296.818	15.974	1145.927	860.369
297.833	15.956	1145.192	859.648
298.847	15.959	1144.599	859.145
299.862	16.001	1143.404	858.385
300.876	16.078	1142.926	858.338
301.891	16.051	1142.352	857.698
302.906	16.060	1141.442	856.982
303.920	16.100	1140.698	856.552
304.935	16.143	1140.260	856.365
305.949	16.188	1139.375	855.852
306.964	16.117	1138.991	855.130
307.979	16.186	1137.913	854.594
308.993	16.185	1137.344	854.084
310.008	16.260	1136.435	853.705
311.022	16.226	1135.962	853.102
312.037	16.168	1134.854	851.905
313.052	16.250	1133.511	851.234
314.066	16.146	1133.128	850.347
315.081	16.143	1132.572	849.836
316.095	16.205	1131.785	849.483
317.110	16.196	1131.063	848.823
318.125	16.327	1129.627	848.329
319.139	16.206	1129.331	847.423
320.154	16.230	1128.827	847.091
321.168	16.192	1128.202	846.354
322.183	16.222	1127.342	845.787
323.197	16.273	1126.506	845.338
324.212	16.317	1126.000	845.106
325.227	16.385	1125.404	844.924
326.241	16.327	1125.303	844.483
327.256	16.427	1123.785	843.770
328.270	16.342	1122.987	842.667
329.285	16.365	1122.117	842.056
330.300	16.286	1121.349	841.014
331.314	16.319	1120.374	840.372
332.329	16.242	1119.790	839.473
333.343	16.443	1118.736	839.608
334.358	16.493	1117.449	838.821
335.373	16.465	1116.880	838.180
336.387	16.433	1116.239	837.464
337.402	16.553	1115.681	837.565
338.416	16.537	1114.928	836.848
339.431	16.524	1114.324	836.256
340.446	16.454	1113.743	835.399
341.460	16.586	1113.146	835.530
342.475	16.648	1112.019	834.917
343.489	16.647	1111.164	834.195
344.504	16.695	1109.981	833.471
345.519	16.750	1109.290	833.147
346.533	16.776	1108.631	832.708
347.548	16.755	1107.917	831.996
348.562	16.699	1107.312	831.191
349.577	16.764	1106.504	830.830
350.592	16.701	1105.494	829.688
351.606	16.673	1104.878	829.018
352.621	16.807	1103.815	828.800
353.635	16.892	1103.328	828.775
354.650	16.750	1102.565	827.437
355.665	16.692	1102.021	826.671
356.679	16.723	1101.813	826.593
357.694	16.850	1100.638	826.259
358.708	16.805	1100.064	825.536
359.723	16.918	1099.455	825.556
360.738	16.872	1098.699	824.693
361.752	16.907	1098.336	824.516
362.767	16.856	1097.889	823.861
363.781	16.861	1097.284	823.358
364.796	16.893	1096.412	822.783
365.810	17.004	1095.908	822.871
366.825	16.983	1095.482	822.378
367.840	17.124	1094.817	822.491
368.854	17.137	1094.036	821.891
369.869	17.059	1093.628	821.137
370.883	17.128	1092.226	820.342
371.898	17.038	1091.887	819.584
372.913	17.035	1091.436	819.158
373.927	17.235	1090.485	819.336
374.942	17.190	1089.973	818.661
375.956	17.210	1089.692	818.472
376.971	17.058	1089.671	817.655
377.986	17.187	1088.649	817.435
379.000	17.279	1088.015	817.327
380.015	17.252	1087.043	816.396
381.029	17.244	1086.434	815.829
382.044	17.306	1085.873	815.634
383.059	17.408	1085.261	815.590
384.073	17.290	1084.090	814.073
385.088	17.421	1083.372	814.090
386.102	17.524	1082.441	813.807
387.117	17.444	1081.317	812.510
388.132	17.403	1080.576	811.687
389.146	17.504	1079.468	811.262
390.161	17.332	1078.987	810.012
391.175	17.475	1077.975	809.857
392.190	17.408	1077.655	809.227
393.205	17.508	1076.837	809.016
394.219	17.417	1076.126	807.978
395.234	17.347	1075.537	807.136
396.248	17.435	1073.905	806.257
397.263	17.408	1073.262	805.575
398.278	17.455	1072.528	805.175
399.292	17.466	1071.825	804.625
400.307	17.384	1071.283	803.762
401.321	17.369	1071.028	803.427
402.336	17.430	1070.397	803.173
403.350	17.513	1069.593	802.887
404.365	17.554	1068.624	802.283
405.380	17.562	1067.806	801.637
406.394	17.635	1067.190	801.443
407.409	17.520	1066.464	800.288
408.423	17.713	1065.191	800.169
409.438	17.688	1065.084	799.902
410.453	17.789	1064.297	799.712
411.467	17.756	1063.536	798.916
412.482	17.741	1063.173	798.499
413.496	17.748	1062.081	797.643
414.511	17.822	1061.753	797.671
415.526	17.811	1061.166	797.108
416.540	17.791	1061.072	796.874
417.555	17.840	1060.695	796.750
418.569	17.813	1060.030	796.055
419.584	17.845	1059.530	795.756
420.599	17.795	1059.114	795.141
421.613	104.115	1325.048	1469.510
422.628	96.074	1363.763	1469.606
