DTS Sentinel unit serial number:	SN413079Multiplexer serial number:	ORYXHardware model number:	OX4-SRSoftware version number:	ORYX F/W v4.00 Oryx Data Collector v3.7.2.0data status	okinstallation	princeton_trtdifferential loss correction	single-endedforward channel	channel 2reverse channel	N/Adate	2019/09/15time	22:35:35forward acquisition time	60.00reverse acquisition time	0.00gamma	496.2192k internal	0.2335k external	0.2335temperature offset calibration	0.9948default loss term (dB/km)	0.3790temperature slope calibration	1.0000multiplexer offset coefficient	1.0000multiplexer slope coefficient	1.0000fibre end	0.00T internal ref (°C)	29.03T ext. ref 1 (°C)	8.79T ext. ref 2 (°C)	22.50length (m)	temperature (°C)	Stokes	anti-Stokes-747.200	800.000	0.055	-0.189
-746.185	-53.373	-0.446	0.206
-745.171	800.000	0.065	-0.205
-744.156	800.000	0.058	0.200
-743.142	-200.000	-0.003	-0.094
-742.127	-87.707	-0.202	0.061
-741.112	-148.372	0.077	-0.006
-740.098	174.954	0.101	0.147
-739.083	-47.161	0.409	0.200
-738.069	-200.000	0.001	-0.213
-737.054	-118.028	-0.385	0.069
-736.039	-200.000	0.089	0.418
-735.025	-200.000	0.079	0.373
-734.010	614.801	-0.077	0.193
-732.996	46.840	-0.219	-0.205
-731.981	-24.825	-0.234	0.139
-730.966	189.787	0.127	-0.191
-729.952	-78.964	-0.202	0.069
-728.937	-200.000	0.009	-0.181
-727.923	-80.751	-0.287	-0.096
-726.908	-81.494	-0.141	-0.046
-725.894	-200.000	0.021	-0.175
-724.879	18.715	-0.270	-0.217
-723.864	89.271	-0.064	-0.072
-722.850	-113.744	0.326	-0.064
-721.835	-21.507	-0.150	-0.092
-720.821	27.478	-0.204	-0.172
-719.806	97.814	0.146	-0.169
-718.791	-113.415	0.097	-0.019
-717.777	-27.217	-0.092	0.054
-716.762	165.998	0.109	-0.154
-715.748	91.080	-0.119	-0.134
-714.733	-105.363	0.061	0.014
-713.718	800.000	0.109	-0.415
-712.704	-200.000	0.042	-0.244
-711.689	800.000	-0.047	-0.161
-710.675	664.813	0.073	-0.190
-709.660	203.079	0.131	0.203
-708.645	800.000	0.040	0.139
-707.631	272.118	0.192	-0.340
-706.616	66.466	-0.297	-0.303
-705.602	800.000	-0.036	-0.116
-704.587	324.516	-0.098	0.187
-703.572	343.070	-0.070	0.138
-702.558	-200.000	-0.040	-0.216
-701.543	488.604	-0.138	-0.317
-700.529	-17.364	0.103	-0.065
-699.514	116.527	0.051	0.063
-698.499	-118.800	0.337	-0.060
-697.485	123.161	0.136	0.171
-696.470	-70.692	-0.146	0.055
-695.456	-8.768	-0.191	0.129
-694.441	410.998	-0.111	-0.235
-693.426	-58.500	0.031	-0.013
-692.412	-200.000	0.040	0.246
-691.397	142.644	-0.018	-0.023
-690.383	262.041	-0.120	-0.208
-689.368	800.000	0.049	-0.200
-688.354	-200.000	0.003	-0.098
-687.339	-49.071	0.139	0.067
-686.324	-81.084	0.068	-0.022
-685.310	532.441	-0.082	0.194
-684.295	-192.197	-0.202	-0.002
-683.281	12.463	-0.266	-0.205
-682.266	136.777	-0.226	-0.295
-681.251	16.340	0.046	0.037
-680.237	-200.000	0.006	-0.271
-679.222	800.000	-0.067	-0.250
-678.208	800.000	-0.084	0.272
-677.193	-99.473	-0.246	0.062
-676.178	-123.913	-0.118	-0.019
-675.164	434.292	0.049	-0.107
-674.149	699.830	0.235	-0.619
-673.135	-65.506	-0.204	0.082
-672.120	800.000	0.095	-0.268
-671.105	259.836	-0.104	0.180
-670.091	-67.736	0.092	0.036
-669.076	-47.506	-0.118	0.057
-668.062	800.000	-0.002	0.006
-667.047	800.000	-0.052	0.152
-666.032	-200.000	0.005	0.135
-665.018	56.887	-0.106	0.103
-664.003	-9.190	0.265	-0.178
-662.989	800.000	0.045	-0.153
-661.974	-53.565	-0.220	-0.101
-660.959	800.000	-0.052	-0.221
-659.945	342.805	-0.189	0.370
-658.930	230.871	-0.088	0.144
-657.916	94.495	-0.132	0.150
-656.901	566.209	-0.068	0.165
-655.886	-116.911	0.235	-0.043
-654.872	-200.000	-0.013	0.169
-653.857	800.000	-0.090	-0.272
-652.843	-144.820	0.139	-0.013
-651.828	270.391	-0.063	0.110
-650.814	156.500	-0.157	-0.217
-649.799	-200.000	0.005	-0.101
-648.784	-195.676	-0.271	0.002
-647.770	-108.009	-0.040	-0.009
-646.755	133.127	-0.212	0.274
-645.741	-159.779	0.067	0.004
-644.726	-17.574	0.196	0.123
-643.711	140.806	-0.097	-0.128
-642.697	25.785	0.177	-0.147
-641.682	16.667	0.101	-0.080
-640.668	-200.000	0.043	-0.242
-639.653	-200.000	0.067	0.428
-638.638	256.314	0.091	0.156
-637.624	-200.000	-0.015	0.094
-636.609	174.619	0.144	0.208
-635.595	-170.430	-0.369	-0.013
-634.580	-200.000	-0.003	0.093
-633.565	304.975	0.102	0.190
-632.551	-36.349	0.034	0.018
-631.536	-200.000	0.004	-0.076
-630.522	370.981	0.103	-0.208
-629.507	443.591	0.092	0.201
-628.492	800.000	-0.087	-0.377
-627.478	-4.588	0.285	0.197
-626.463	-28.335	0.113	-0.065
-625.449	-200.000	-0.020	0.091
-624.434	-200.000	0.000	0.013
-623.419	-31.179	0.181	0.102
-622.405	29.231	-0.295	0.251
-621.390	-174.739	-0.215	-0.006
-620.376	180.318	-0.071	0.104
-619.361	-200.000	0.011	-0.048
-618.346	-97.149	-0.348	-0.091
-617.332	800.000	-0.084	-0.248
-616.317	3.606	-0.316	-0.230
-615.303	-200.000	-0.049	0.352
-614.288	-89.254	0.166	-0.049
-613.273	-119.682	-0.269	0.046
-612.259	-25.719	0.205	-0.121
-611.244	-41.062	0.194	0.100
-610.230	-30.066	0.043	-0.025
-609.215	246.624	0.086	-0.146
-608.201	-200.000	0.006	-0.156
-607.186	288.281	0.107	0.194
-606.171	-133.797	0.166	-0.021
-605.157	-135.370	0.148	-0.018
-604.142	235.607	0.098	-0.162
-603.128	146.622	0.144	-0.194
-602.113	-116.449	0.087	0.016
-601.098	-200.000	-0.010	0.198
-600.084	300.305	-0.065	0.119
-599.069	145.048	-0.161	0.215
-598.055	6.248	-0.218	-0.161
-597.040	800.000	-0.029	0.110
-596.025	-65.347	-0.034	0.014
-595.011	3.253	-0.263	-0.191
-593.996	-0.811	-0.140	0.099
-592.982	-200.000	0.013	0.158
-591.967	-89.370	0.217	0.064
-590.952	340.901	-0.075	-0.147
-589.938	-113.002	-0.016	0.003
-588.923	-73.867	0.208	-0.075
-587.909	126.196	-0.065	0.082
-586.894	-59.797	0.278	0.119
-585.879	-171.071	0.220	0.007
-584.865	800.000	0.038	0.121
-583.850	-77.882	0.181	0.062
-582.836	-200.000	0.013	0.073
-581.821	428.789	-0.172	-0.370
-580.806	36.137	-0.143	-0.126
-579.792	-32.499	0.125	0.070
-578.777	61.414	-0.150	-0.149
-577.763	-87.171	0.213	0.065
-576.748	-140.861	0.321	0.033
-575.733	-59.841	-0.141	-0.060
-574.719	21.577	-0.056	-0.045
-573.704	-22.741	0.090	0.054
-572.690	15.756	0.147	-0.115
-571.675	206.660	0.071	-0.110
-570.661	-118.548	0.092	0.016
-569.646	-21.836	-0.074	-0.045
-568.631	-63.364	0.124	-0.051
-567.617	-46.185	0.093	0.045
-566.602	-21.563	0.212	-0.129
-565.588	-85.527	-0.041	0.013
-564.573	28.610	-0.050	-0.042
-563.558	-200.000	-0.027	-0.352
-562.544	-8.944	-0.183	0.122
-561.529	-95.353	-0.089	-0.024
-560.515	-37.739	-0.142	0.075
-559.500	775.840	-0.103	-0.280
-558.485	-200.000	0.006	-0.294
-557.471	-97.864	-0.352	-0.091
-556.456	721.294	0.023	0.060
-555.442	181.397	0.050	0.073
-554.427	-108.512	0.179	-0.038
-553.412	-46.048	-0.138	-0.068
-552.398	41.339	0.049	0.044
-551.383	-135.480	-0.285	-0.034
-550.369	162.602	0.169	-0.237
-549.354	-200.000	0.042	-0.240
-548.339	-200.000	0.009	0.051
-547.325	-189.992	0.276	-0.003
-546.310	594.027	0.066	0.162
-545.296	-200.000	0.063	-0.428
-544.281	54.878	0.250	-0.240
-543.266	-100.888	-0.219	-0.054
-542.252	800.000	0.057	-0.200
-541.237	-200.000	0.010	-0.149
-540.223	-100.841	0.336	0.082
-539.208	-200.000	0.003	0.180
-538.193	126.042	0.233	0.294
-537.179	-131.548	-0.222	0.029
-536.164	-107.658	0.311	-0.068
-535.150	454.183	-0.058	0.129
-534.135	-200.000	0.007	0.227
-533.121	330.100	0.057	-0.109
-532.106	483.969	0.018	0.042
-531.091	167.250	-0.133	-0.189
-530.077	141.073	0.030	0.040
-529.062	-200.000	-0.024	-0.196
-528.048	132.748	-0.150	0.193
-527.033	-66.433	0.466	0.184
-526.018	-156.380	-0.217	0.014
-525.004	-37.513	-0.100	-0.053
-523.989	-28.357	-0.144	0.083
-522.975	-200.000	0.002	0.075
-521.960	152.521	-0.170	0.231
-520.945	69.399	-0.259	0.266
-519.931	800.000	-0.059	0.223
-518.916	-179.338	-0.278	0.006
-517.902	-46.916	-0.065	0.032
-516.887	697.940	-0.032	0.085
-515.872	155.225	0.086	-0.117
-514.858	-200.000	0.002	-0.034
-513.843	-87.744	-0.143	0.043
-512.829	-7.993	0.138	-0.093
-511.814	800.000	0.052	0.144
-510.799	800.000	0.045	-0.198
-509.785	341.017	-0.116	0.225
-508.770	-200.000	-0.008	0.147
-507.756	34.686	-0.115	-0.100
-506.741	-11.825	-0.070	0.046
-505.726	-168.336	0.081	-0.003
-504.712	49.719	0.198	-0.185
-503.697	16.910	-0.106	-0.084
-502.683	-66.222	0.461	-0.183
-501.668	-200.000	0.002	-0.187
-500.653	462.681	-0.108	-0.241
-499.639	275.481	-0.162	-0.286
-498.624	147.785	-0.034	-0.046
-497.610	28.325	-0.339	-0.285
-496.595	-18.701	0.135	0.083
-495.581	-45.756	-0.113	-0.056
-494.566	-32.430	0.085	-0.047
-493.551	-200.000	-0.027	0.128
-492.537	104.540	-0.091	-0.107
-491.522	-175.479	-0.236	-0.006
-490.508	431.174	-0.090	0.195
-489.493	-200.000	-0.026	-0.212
-488.478	-121.781	-0.200	0.033
-487.464	148.172	-0.282	0.379
-486.449	562.796	0.149	0.358
-485.435	261.263	0.075	0.129
-484.420	-200.000	-0.025	-0.190
-483.405	27.395	-0.188	-0.157
-482.391	-78.539	-0.013	-0.005
-481.376	491.660	0.047	0.106
-480.362	-200.000	-0.012	-0.255
-479.347	107.888	0.065	0.077
-478.332	213.195	0.080	-0.126
-477.318	204.081	0.151	-0.233
-476.303	164.651	0.078	0.109
-475.289	217.478	0.069	-0.109
-474.274	151.772	-0.231	0.313
-473.259	209.851	0.217	0.338
-472.245	-200.000	-0.055	0.456
-471.230	800.000	0.020	-0.057
-470.216	800.000	-0.050	0.187
-469.201	36.504	0.196	0.172
-468.186	612.863	-0.081	-0.202
-467.172	105.521	-0.097	-0.114
-466.157	-200.000	-0.015	0.240
-465.143	148.678	-0.158	-0.212
-464.128	277.422	-0.086	0.151
-463.113	335.785	0.159	-0.307
-462.099	-23.789	-0.225	-0.134
-461.084	73.086	0.141	0.146
-460.070	-78.844	-0.185	-0.063
-459.055	-31.252	0.217	-0.122
-458.040	170.223	0.108	-0.153
-457.026	-30.268	-0.278	-0.157
-456.011	-113.755	-0.485	-0.094
-454.997	-58.488	0.069	-0.030
-453.982	12.894	-0.098	0.075
-452.968	764.467	-0.132	-0.355
-451.953	-170.135	0.250	0.009
-450.938	800.000	0.037	-0.121
-449.924	446.575	0.053	0.117
-448.909	-58.086	-0.103	0.045
-447.895	-2.094	0.144	0.100
-446.880	-124.383	0.236	-0.037
-445.865	800.000	0.125	0.380
-444.851	-15.761	-0.201	-0.127
-443.836	488.131	0.095	0.216
-442.822	153.986	0.076	0.104
-441.807	-200.000	0.036	0.276
-440.792	-157.653	0.145	-0.009
-439.778	-75.357	-0.274	0.097
-438.763	241.110	-0.102	0.169
-437.749	-157.642	0.284	0.017
-436.734	800.000	-0.022	0.087
-435.719	743.841	-0.028	0.075
-434.705	-200.000	-0.027	-0.151
-433.690	-200.000	-0.049	0.313
-432.676	-20.339	-0.077	-0.047
-431.661	-179.065	0.232	-0.005
-430.646	-119.804	0.124	-0.021
-429.632	459.184	0.040	0.088
-428.617	-147.291	0.324	0.027
-427.603	-200.000	-0.010	0.227
-426.588	58.967	0.199	0.195
-425.573	412.417	0.087	0.183
-424.559	-200.000	-0.032	-0.327
-423.544	-200.000	-0.087	0.413
-422.530	378.050	-0.127	-0.258
-421.515	115.098	-0.063	-0.076
-420.500	-17.271	0.315	0.197
-419.486	-149.735	-0.307	0.024
-418.471	47.251	-0.100	0.093
-417.457	45.490	0.341	0.312
-416.442	91.759	0.088	-0.098
-415.428	-200.000	-0.003	0.058
-414.413	141.665	-0.092	-0.121
-413.398	-84.180	0.124	-0.039
-412.384	-111.726	0.211	0.042
-411.369	-62.223	0.093	0.039
-410.355	-200.000	0.031	0.142
-409.340	-41.676	0.390	0.199
-408.325	800.000	-0.133	0.396
-407.311	-43.226	-0.118	-0.059
-406.296	96.809	-0.075	-0.085
-405.282	73.870	-0.104	0.108
-404.267	10.564	-0.133	-0.101
-403.252	301.956	0.083	-0.152
-402.238	800.000	-0.076	0.290
-401.223	-21.170	0.454	0.275
-400.209	-83.715	-0.171	0.054
-399.194	800.000	0.079	-0.274
-398.179	-200.000	0.019	-0.251
-397.165	-200.000	-0.024	0.118
-396.150	800.000	-0.034	0.102
-395.136	800.000	0.042	-0.148
-394.121	-8.632	0.030	0.020
-393.106	-118.017	-0.302	0.053
-392.092	74.195	0.105	0.109
-391.077	140.312	-0.217	0.284
-390.063	323.215	0.115	-0.217
-389.048	-66.423	0.076	0.030
-388.033	-78.289	-0.300	0.102
-387.019	155.631	0.188	0.256
-386.004	-30.171	0.203	0.114
-384.990	159.505	-0.166	-0.229
-383.975	-200.000	-0.046	-0.352
-382.960	194.626	0.169	0.253
-381.946	-34.902	-0.232	-0.126
-380.931	800.000	-0.055	0.212
-379.917	-49.830	0.362	0.170
-378.902	-34.424	-0.113	-0.061
-377.888	71.244	0.139	0.143
-376.873	174.701	0.126	0.181
-375.858	-200.000	0.043	0.337
-374.844	355.595	-0.158	-0.312
-373.829	540.488	-0.095	-0.223
-372.815	-200.000	-0.010	-0.100
-371.800	-83.757	-0.384	-0.121
-370.785	-112.884	0.106	-0.021
-369.771	-26.333	0.291	0.169
-368.756	-5.309	0.135	-0.092
-367.742	21.121	0.046	0.037
-366.727	-200.000	0.032	-0.190
-365.712	19.865	-0.175	-0.140
-364.698	294.999	0.146	-0.265
-363.683	-129.452	-0.381	0.052
-362.669	-56.174	0.085	0.037
-361.654	800.000	-0.072	0.216
-360.639	167.398	-0.034	0.048
-359.625	-109.511	0.312	-0.065
-358.610	153.337	0.085	0.115
-357.596	154.064	0.086	-0.117
-356.581	-77.376	0.209	0.072
-355.566	-153.840	0.031	0.002
-354.552	101.222	0.092	-0.106
-353.537	-3.711	-0.121	-0.083
-352.523	262.196	-0.055	-0.095
-351.508	-170.769	0.187	0.006
-350.493	601.118	0.116	0.284
-349.479	-113.373	-0.268	0.052
-348.464	-149.790	0.076	-0.006
-347.450	67.934	-0.105	0.106
-346.435	31.640	-0.025	-0.021
-345.420	-100.063	0.460	-0.113
-344.406	210.858	0.133	-0.207
-343.391	-20.185	-0.135	0.082
-342.377	800.000	-0.105	-0.320
-341.362	-200.000	0.036	0.323
-340.348	507.919	-0.137	0.315
-339.333	-48.961	-0.386	0.183
-338.318	800.000	-0.045	0.134
-337.304	-144.350	0.069	0.006
-336.289	12.217	0.317	-0.241
-335.275	278.350	-0.256	0.452
-334.260	-139.945	-0.266	-0.028
-333.245	-68.779	0.242	-0.093
-332.231	160.889	0.137	-0.189
-331.216	-200.000	0.049	0.356
-330.202	-200.000	-0.018	0.134
-329.187	-12.414	-0.147	-0.095
-328.172	15.469	0.136	-0.105
-327.158	-25.066	0.081	-0.047
-326.143	-73.543	-0.188	0.068
-325.129	-47.383	0.160	-0.077
-324.114	199.461	-0.198	-0.300
-323.099	-200.000	-0.017	0.098
-322.085	458.952	-0.062	0.135
-321.070	-200.000	0.033	-0.233
-320.056	-192.344	-0.083	0.001
-319.041	10.961	-0.054	-0.041
-318.026	127.039	0.130	0.162
-317.012	800.000	-0.087	0.270
-315.997	-113.256	0.208	-0.041
-314.983	-121.645	-0.169	-0.028
-313.968	169.455	0.064	0.091
-312.953	-76.841	-0.070	-0.024
-311.939	74.317	-0.154	-0.160
-310.924	-65.524	-0.246	-0.098
-309.910	800.000	-0.070	-0.209
-308.895	-131.700	0.103	-0.013
-307.880	-65.325	0.070	0.028
-306.866	-30.821	-0.158	-0.088
-305.851	118.399	-0.201	-0.245
-304.837	-200.000	0.035	-0.241
-303.822	-200.000	-0.023	-0.162
-302.807	245.033	0.156	-0.259
-301.793	-200.000	0.033	0.213
-300.778	231.470	-0.013	-0.022
-299.764	182.676	-0.157	0.229
-298.749	288.223	-0.161	-0.287
-297.735	-103.329	-0.109	-0.025
-296.720	-200.000	-0.006	-0.242
-295.705	129.161	-0.135	0.170
-294.691	582.170	-0.105	-0.254
-293.676	-89.000	0.044	-0.013
-292.662	-154.507	0.085	0.006
-291.647	-25.907	-0.081	-0.047
-290.632	-52.295	-0.196	0.090
-289.618	-17.121	-0.130	0.081
-288.603	-161.531	-0.287	0.015
-287.589	-105.263	-0.368	-0.083
-286.574	-17.390	0.144	-0.089
-285.559	174.300	-0.169	-0.242
-284.545	169.975	-0.104	0.147
-283.530	-91.960	0.215	0.060
-282.516	49.900	0.255	-0.237
-281.501	-200.000	-0.018	-0.085
-280.486	2.589	0.209	0.149
-279.472	44.359	-0.355	0.322
-278.457	309.431	-0.018	0.034
-277.443	-1.966	-0.044	0.030
-276.428	471.237	0.134	-0.296
-275.413	17.933	-0.338	0.266
-274.399	165.660	-0.115	0.161
-273.384	68.400	0.112	-0.114
-272.370	-19.371	0.376	0.230
-271.355	-200.000	-0.050	0.251
-270.340	75.287	-0.119	0.124
-269.326	-85.505	0.186	0.057
-268.311	-136.104	-0.358	0.041
-267.297	-56.323	-0.124	0.054
-266.282	-200.000	-0.132	0.581
-265.267	-200.000	-0.024	-0.341
-264.253	246.549	0.217	-0.361
-263.238	277.076	0.129	0.226
-262.224	-119.903	-0.497	0.084
-261.209	709.956	0.123	-0.322
-260.195	24.781	-0.090	-0.073
-259.180	592.770	0.108	-0.263
-258.165	-200.000	-0.082	0.411
-257.151	87.263	-0.193	-0.211
-256.136	-200.000	0.048	-0.240
-255.122	103.947	0.272	0.316
-254.107	800.000	0.004	0.015
-253.092	-30.419	-0.133	0.074
-252.078	153.956	0.211	-0.285
-251.063	39.575	0.067	-0.059
-250.049	-149.123	-0.083	0.007
-249.034	-98.956	-0.159	0.040
-248.019	341.593	-0.149	0.287
-247.005	450.425	0.046	-0.099
-245.990	-200.000	-0.064	-0.339
-244.976	-200.000	0.040	-0.261
-243.961	160.973	0.123	0.170
-242.946	-131.559	0.491	-0.064
-241.932	138.784	-0.076	0.099
-240.917	-200.000	0.008	0.200
-239.903	123.587	0.137	-0.169
-238.888	-30.693	0.223	-0.125
-237.873	90.161	-0.418	0.461
-236.859	-200.000	-0.011	0.107
-235.844	-200.000	0.067	-0.292
-234.830	154.835	-0.249	0.337
-233.815	-101.145	0.143	0.034
-232.800	-154.923	0.252	0.016
-231.786	185.868	-0.098	0.144
-230.771	800.000	0.119	0.370
-229.757	800.000	0.012	-0.036
-228.742	180.572	-0.019	0.027
-227.727	48.510	-0.502	-0.463
-226.713	800.000	0.049	-0.197
-225.698	-17.674	0.167	-0.103
-224.684	-200.000	-0.034	0.384
-223.669	181.507	0.078	0.113
-222.655	220.306	0.054	-0.086
-221.640	14.357	-0.030	-0.023
-220.625	12.696	0.205	-0.156
-219.611	800.000	0.074	-0.257
-218.596	-93.701	-0.087	-0.024
-217.582	204.731	-0.181	-0.276
-216.567	-5.189	-0.126	0.085
-215.552	71.164	0.186	-0.190
-214.538	-59.214	-0.225	-0.096
-213.523	-79.276	0.212	-0.071
-212.509	800.000	0.111	-0.324
-211.494	-200.000	-0.001	0.167
-210.479	-183.142	-0.156	0.003
-209.465	-46.658	-0.217	-0.105
-208.450	-21.840	-0.084	0.050
-207.436	583.935	0.159	0.385
-206.421	363.643	0.131	0.259
-205.406	-33.709	0.327	-0.177
-204.392	201.440	-0.095	-0.144
-203.377	90.578	0.152	0.167
-202.363	-45.809	-0.225	-0.110
-201.348	-58.291	-0.320	-0.137
-200.333	642.075	0.049	-0.123
-199.319	-51.151	-0.127	-0.058
-198.304	800.000	-0.055	-0.233
-197.290	314.896	0.122	0.226
-196.275	-69.858	0.180	0.067
-195.260	216.455	0.089	-0.140
-194.246	-158.208	0.227	-0.013
-193.231	-200.000	0.027	0.128
-192.217	115.106	-0.062	0.075
-191.202	3.760	-0.174	-0.125
-190.187	-25.288	0.160	-0.093
-189.173	-200.000	-0.066	0.423
-188.158	255.944	-0.187	-0.316
-187.144	-200.000	-0.033	0.311
-186.129	364.072	0.134	0.266
-185.114	80.760	0.175	0.186
-184.100	-200.000	-0.040	0.272
-183.085	800.000	0.080	-0.296
-182.071	184.689	-0.124	-0.180
-181.056	800.000	0.034	0.123
-180.042	18.761	-0.134	-0.106
-179.027	-40.080	0.308	-0.158
-178.012	-77.687	-0.319	0.109
-176.998	800.000	0.067	0.249
-175.983	-200.000	0.017	0.178
-174.969	163.041	-0.159	-0.220
-173.954	-148.495	0.222	0.018
-172.939	800.000	0.012	0.038
-171.925	-100.849	0.176	0.043
-170.910	98.660	0.128	-0.145
-169.896	79.577	0.064	-0.067
-168.881	35.894	0.130	-0.113
-167.866	-67.571	0.162	0.062
-166.852	-55.950	-0.273	0.120
-165.837	-200.000	0.002	-0.590
-164.823	92.001	0.106	-0.117
-163.808	-123.176	-0.278	-0.044
-162.793	72.065	0.165	-0.169
-161.779	-109.672	0.164	-0.034
-160.764	106.745	-0.102	-0.119
-159.750	-119.375	-0.330	-0.056
-158.735	32.587	0.108	-0.092
-157.720	-42.685	0.203	0.101
-156.706	194.207	0.154	-0.229
-155.691	78.035	0.212	-0.222
-154.677	42.425	-0.279	-0.249
-153.662	-200.000	0.018	0.202
-152.647	745.053	-0.046	0.123
-151.633	463.085	0.111	-0.243
-150.618	-200.000	0.018	-0.196
-149.604	446.965	0.098	-0.211
-148.589	-42.330	0.184	-0.092
-147.574	133.640	-0.029	0.037
-146.560	-99.180	0.129	-0.032
-145.545	146.868	-0.324	-0.428
-144.531	471.170	-0.082	-0.181
-143.516	-101.712	-0.072	-0.017
-142.502	8.163	-0.138	0.102
-141.487	-36.475	0.144	-0.076
-140.472	-200.000	-0.022	-0.301
-139.458	65.123	-0.040	0.039
-138.443	-200.000	0.013	-0.069
-137.429	-142.592	0.176	0.017
-136.414	-28.998	0.166	-0.094
-135.399	800.000	0.094	-0.372
-134.385	-200.000	0.011	0.299
-133.370	-200.000	0.018	-0.160
-132.356	18.559	0.139	-0.109
-131.341	-108.706	-0.167	0.035
-130.326	-190.257	-0.151	0.002
-129.312	126.938	-0.174	0.217
-128.297	-41.323	-0.198	0.100
-127.283	-200.000	-0.055	-0.437
-126.268	-158.496	-0.456	0.026
-125.253	-165.666	-0.158	0.007
-124.239	-200.000	0.042	-0.250
-123.224	-32.229	-0.113	0.062
-122.210	554.201	0.044	-0.104
-121.195	16.865	0.245	-0.190
-120.180	550.299	-0.032	-0.075
-119.166	-148.897	-0.062	0.005
-118.151	-109.061	-0.228	0.048
-117.137	-200.000	-0.044	-0.293
-116.122	-29.480	0.187	-0.105
-115.107	-143.018	-0.196	0.019
-114.093	286.681	0.057	0.102
-113.078	-89.461	-0.266	0.077
-112.064	37.556	-0.031	-0.027
-111.049	371.651	-0.113	-0.224
-110.034	144.787	-0.111	-0.145
-109.020	-25.856	0.343	-0.198
-108.005	148.126	0.186	0.245
-106.991	-116.114	-0.248	-0.045
-105.976	200.640	0.033	-0.049
-104.962	264.632	-0.124	0.211
-103.947	356.991	-0.058	0.114
-102.932	749.259	-0.153	0.404
-101.918	8.452	-0.191	0.141
-100.903	410.857	0.133	0.277
-99.889	101.083	-0.077	-0.088
-98.874	17.319	-0.024	-0.019
-97.859	166.811	-0.193	0.269
-96.845	-77.356	0.239	0.081
-95.830	286.391	-0.104	0.184
-94.816	-148.718	0.187	0.015
-93.801	9.781	0.116	0.086
-92.786	73.139	-0.306	-0.313
-91.772	61.040	0.135	-0.131
-90.757	-200.000	0.024	-0.256
-89.743	395.357	0.203	0.414
-88.728	-30.614	0.204	0.113
-87.713	113.523	0.107	0.127
-86.699	-200.000	-0.010	-0.069
-85.684	119.319	0.106	-0.129
-84.670	-200.000	-0.019	0.322
-83.655	800.000	-0.036	-0.121
-82.640	-200.000	-0.009	0.079
-81.626	-200.000	0.009	-0.087
-80.611	-39.720	0.224	0.115
-79.597	-200.000	-0.004	-0.156
-78.582	-48.985	0.088	-0.041
-77.567	-200.000	0.022	0.272
-76.553	-200.000	0.045	0.422
-75.538	800.000	0.028	-0.118
-74.524	135.770	-0.050	0.063
-73.509	20.036	-0.228	-0.180
-72.494	71.614	-0.065	-0.066
-71.480	-200.000	-0.004	0.236
-70.465	195.041	0.074	0.109
-69.451	-115.361	-0.170	-0.031
-68.436	471.290	0.085	-0.186
-67.422	609.117	-0.046	-0.111
-66.407	-200.000	0.036	0.334
-65.392	-176.356	0.303	0.008
-64.378	-117.723	0.262	-0.046
-63.363	-200.000	0.044	-0.582
-62.349	601.340	-0.173	0.421
-61.334	60.721	-0.692	-0.671
-60.319	192.330	0.343	0.507
-59.305	800.000	-0.453	-1.366
-58.290	281.907	0.680	1.191
-57.276	800.000	0.581	1.587
-56.261	-200.000	109.446	626.884
-55.246	470.983	1489.590	3276.607
-54.232	148.142	2668.971	3521.729
-53.217	100.283	2271.183	2576.846
-52.203	38.078	1884.473	1639.327
-51.188	32.389	1674.449	1413.961
-50.173	29.700	1632.445	1358.707
-49.159	50.633	1686.361	1560.365
-48.144	50.900	1701.242	1576.055
-47.130	31.877	1660.201	1397.892
-46.115	29.091	1646.323	1365.520
-45.100	28.972	1640.544	1359.799
-44.086	28.894	1638.300	1357.302
-43.071	28.832	1635.812	1354.738
-42.057	28.818	1633.637	1352.774
-41.042	28.842	1631.818	1351.393
-40.027	28.882	1629.551	1349.752
-39.013	28.885	1627.647	1348.149
-37.998	28.857	1626.050	1346.565
-36.984	28.989	1624.620	1346.292
-35.969	28.970	1623.063	1344.811
-34.954	29.043	1621.679	1344.144
-33.940	29.032	1619.909	1342.541
-32.925	29.014	1618.318	1341.043
-31.911	29.053	1616.452	1339.725
-30.896	29.004	1614.835	1337.973
-29.881	28.948	1613.946	1336.781
-28.867	28.925	1612.196	1335.105
-27.852	28.913	1611.281	1334.208
-26.838	29.021	1608.801	1332.890
-25.823	28.996	1607.511	1331.585
-24.809	29.078	1606.787	1331.524
-23.794	29.018	1605.203	1329.722
-22.779	29.085	1603.425	1328.686
-21.765	29.005	1602.147	1326.995
-20.750	29.034	1600.878	1326.099
-19.736	28.956	1600.166	1324.897
-18.721	29.108	1598.179	1324.291
-17.706	29.106	1596.631	1322.942
-16.692	29.063	1594.854	1321.110
-15.677	29.092	1593.337	1320.011
-14.663	29.020	1592.325	1318.597
-13.648	29.117	1590.738	1317.930
-12.633	29.125	1588.848	1316.364
-11.619	29.075	1587.967	1315.229
-10.604	29.093	1586.289	1313.917
-9.590	29.146	1584.674	1312.904
-8.575	29.156	1583.572	1312.008
-7.560	29.149	1582.647	1311.138
-6.546	29.119	1582.048	1310.377
-5.531	29.113	1580.360	1308.886
-4.517	29.013	1579.772	1307.633
-3.502	29.113	1578.269	1307.053
-2.487	29.039	1577.291	1305.665
-1.473	28.695	1565.101	1293.099
-0.458	25.700	1544.998	1255.583
0.556	19.594	1546.545	1222.193
1.571	17.268	1569.696	1223.652
2.586	16.745	1582.507	1229.733
3.600	15.858	1532.439	1184.485
4.615	12.804	1433.911	1088.094
5.629	9.481	1379.222	1025.364
6.644	8.897	1371.315	1015.698
7.659	8.846	1370.554	1014.719
8.673	8.755	1369.092	1012.972
9.688	8.673	1367.474	1011.166
10.702	8.569	1364.107	1007.934
11.717	10.134	1366.446	1019.445
12.731	13.940	1372.630	1048.024
13.746	16.891	1377.229	1070.099
14.761	17.118	1376.807	1071.108
15.775	16.170	1373.947	1062.817
16.790	15.094	1371.883	1054.353
17.804	14.362	1369.131	1047.543
18.819	13.887	1367.937	1043.556
19.834	13.661	1366.334	1040.817
20.848	13.345	1365.459	1038.078
21.863	13.108	1364.255	1035.587
22.877	13.052	1362.562	1033.856
23.892	12.914	1361.942	1032.435
24.907	12.975	1361.021	1032.023
25.921	12.967	1360.493	1031.482
26.936	13.047	1359.440	1031.093
27.950	13.058	1358.542	1030.388
28.965	13.071	1357.677	1029.725
29.980	13.257	1355.927	1029.463
30.994	13.308	1354.526	1028.627
32.009	13.319	1353.448	1027.786
33.023	13.197	1352.735	1026.395
34.038	13.269	1350.909	1025.362
35.053	13.083	1350.670	1023.941
36.067	13.186	1349.080	1023.280
37.082	13.113	1348.264	1022.119
38.096	13.191	1346.799	1021.399
39.111	13.265	1346.203	1021.316
40.126	13.084	1345.281	1019.405
41.140	12.933	1344.689	1017.938
42.155	12.917	1343.667	1016.973
43.169	12.993	1343.515	1017.240
44.184	12.956	1343.309	1016.767
45.199	12.932	1343.040	1016.321
46.213	13.080	1342.042	1016.387
47.228	13.080	1341.593	1015.959
48.242	13.144	1340.174	1015.185
49.257	13.127	1338.574	1013.780
50.271	13.049	1337.511	1012.411
51.286	13.088	1335.847	1011.298
52.301	13.123	1334.722	1010.571
53.315	13.009	1333.769	1009.066
54.330	12.966	1332.950	1008.094
55.344	13.047	1331.403	1007.325
56.359	13.029	1330.554	1006.487
57.374	12.888	1329.516	1004.752
58.388	12.923	1328.770	1004.316
59.403	12.809	1328.518	1003.340
60.417	12.942	1327.724	1003.461
61.432	12.864	1326.993	1002.343
62.447	12.809	1325.930	1001.122
63.461	12.873	1324.171	1000.089
64.476	12.760	1323.659	998.931
65.490	12.820	1322.226	998.125
66.505	12.832	1320.696	996.954
67.520	12.832	1319.697	996.112
68.534	12.809	1318.334	994.856
69.549	12.933	1317.638	994.987
70.563	12.826	1316.492	993.390
71.578	12.780	1315.725	992.445
72.593	12.759	1314.781	991.520
73.607	12.692	1314.088	990.507
74.622	12.740	1312.969	989.865
75.636	12.675	1312.377	988.943
76.651	12.848	1311.605	989.312
77.666	12.740	1311.080	988.180
78.680	12.856	1311.081	988.790
79.695	12.807	1309.928	987.539
80.709	12.907	1308.840	987.228
81.724	12.880	1308.872	987.006
82.739	12.922	1307.174	985.883
83.753	12.946	1306.536	985.463
84.768	13.096	1304.987	985.102
85.782	13.084	1304.179	984.329
86.797	13.041	1302.941	983.057
87.812	13.035	1301.498	981.843
88.826	13.064	1300.521	981.192
89.841	13.059	1299.734	980.485
90.855	13.173	1298.766	980.342
91.870	13.113	1297.800	979.168
92.884	13.097	1297.053	978.426
93.899	13.167	1296.394	978.254
94.914	13.180	1295.782	977.781
95.928	13.240	1294.738	977.264
96.943	13.121	1294.158	976.035
97.957	13.107	1292.897	974.919
98.972	13.097	1291.961	974.066
99.987	13.128	1290.584	973.127
101.001	13.172	1289.619	972.570
102.016	13.136	1288.943	971.765
103.030	13.187	1288.176	971.400
104.045	13.161	1286.820	970.136
105.060	13.149	1285.676	969.118
106.074	12.975	1284.309	966.982
107.089	12.960	1282.974	965.806
108.103	13.018	1281.362	964.845
109.118	12.972	1280.716	964.002
110.133	12.806	1279.075	961.714
111.147	13.005	1277.282	961.442
112.162	12.944	1276.575	960.465
113.176	12.908	1275.454	959.328
114.191	12.995	1274.774	959.237
115.206	12.973	1273.253	957.885
116.220	12.922	1272.098	956.631
117.235	12.988	1270.551	955.769
118.249	12.917	1270.124	954.951
119.264	13.073	1268.285	954.382
120.279	12.918	1267.922	953.129
121.293	12.989	1266.470	952.366
122.308	12.921	1265.634	951.259
123.322	12.923	1264.779	950.544
124.337	12.897	1263.812	949.586
125.352	12.907	1262.400	948.496
126.366	12.866	1261.492	947.494
127.381	12.840	1260.591	946.587
128.395	12.937	1259.439	946.191
129.410	12.920	1258.789	945.524
130.424	12.910	1257.791	944.631
131.439	12.902	1256.723	943.701
132.454	12.861	1255.846	942.724
133.468	13.005	1254.994	942.826
134.483	13.008	1254.172	942.138
135.497	13.031	1252.970	941.286
136.512	13.068	1251.709	940.468
137.527	12.939	1250.770	938.941
138.541	13.013	1249.052	937.989
139.556	13.078	1247.856	937.376
140.570	13.015	1246.798	936.143
141.585	13.083	1245.770	935.674
142.600	13.114	1244.787	935.027
143.614	13.168	1243.594	934.356
144.629	13.308	1242.623	934.337
145.643	13.276	1241.206	933.005
146.658	13.228	1240.191	931.890
147.673	13.089	1239.071	930.185
148.687	13.033	1237.641	928.709
149.702	12.977	1236.435	927.410
150.716	13.002	1234.950	926.355
151.731	13.047	1234.323	926.052
152.746	13.077	1232.516	924.784
153.760	13.113	1231.850	924.405
154.775	13.227	1230.614	924.035
155.789	13.226	1229.535	923.139
156.804	13.274	1228.384	922.459
157.819	13.219	1227.588	921.475
158.833	13.334	1226.398	921.138
159.848	13.259	1225.872	920.244
160.862	13.292	1224.533	919.342
161.877	13.266	1222.930	917.909
162.892	13.180	1222.266	916.852
163.906	13.218	1221.317	916.273
164.921	13.153	1220.511	915.228
165.935	13.215	1219.615	914.815
166.950	13.299	1219.023	914.759
167.964	13.300	1218.130	914.013
168.979	13.163	1217.754	912.893
169.994	13.198	1216.924	912.383
171.008	13.301	1215.665	911.923
172.023	13.388	1214.705	911.602
173.037	13.429	1214.339	911.472
174.052	13.401	1213.411	910.540
175.067	13.266	1212.249	908.846
176.081	13.340	1211.358	908.505
177.096	13.258	1210.380	907.241
178.110	13.328	1209.495	906.880
179.125	13.434	1207.770	906.087
180.140	13.478	1206.703	905.450
181.154	13.323	1205.973	903.974
182.169	13.309	1204.552	902.752
183.183	13.467	1203.347	902.629
184.198	13.548	1202.318	902.219
185.213	13.603	1201.322	901.694
186.227	13.636	1200.077	900.860
187.242	13.646	1198.892	899.945
188.256	13.613	1198.115	899.100
189.271	13.619	1197.304	898.444
190.286	13.432	1196.017	896.385
191.300	13.303	1195.512	895.230
192.315	13.338	1194.929	894.907
193.329	13.389	1194.200	894.554
194.344	13.400	1193.476	893.995
195.359	13.467	1193.276	894.128
196.373	13.466	1192.440	893.417
197.388	13.673	1192.023	894.142
198.402	13.705	1191.825	894.086
199.417	13.810	1190.767	893.776
200.432	13.752	1190.130	892.909
201.446	13.852	1189.736	893.070
202.461	13.930	1188.478	892.468
203.475	13.844	1187.669	891.317
204.490	13.734	1186.563	889.821
205.504	13.774	1184.789	888.625
206.519	13.827	1183.615	887.952
207.534	13.635	1183.052	886.423
208.548	13.857	1181.342	886.245
209.563	13.764	1180.847	885.302
210.577	13.849	1179.978	885.026
211.592	13.785	1179.075	883.930
212.607	13.910	1178.525	884.105
213.621	13.981	1177.287	883.474
214.636	13.847	1176.702	882.246
215.650	13.798	1176.219	881.543
216.665	14.022	1174.397	881.289
217.680	13.956	1174.155	880.678
218.694	13.998	1173.168	880.081
219.709	14.020	1172.381	879.531
220.723	14.034	1171.597	878.938
221.738	14.006	1170.756	878.082
222.753	13.996	1170.253	877.575
223.767	14.075	1169.440	877.306
224.782	14.117	1169.127	877.213
225.796	14.196	1168.133	876.808
226.811	14.195	1167.392	876.170
227.826	14.223	1166.547	875.602
228.840	14.131	1165.977	874.614
229.855	14.189	1164.978	874.090
230.869	14.039	1164.272	872.699
231.884	14.092	1163.501	872.322
232.899	14.038	1162.392	871.131
233.913	14.033	1162.133	870.830
234.928	14.063	1161.642	870.546
235.942	14.074	1160.591	869.736
236.957	14.038	1160.052	869.069
237.972	14.059	1159.087	868.379
238.986	14.053	1158.630	867.925
240.001	14.161	1157.782	867.777
241.015	14.170	1156.650	866.901
242.030	14.227	1156.157	866.753
243.045	14.248	1155.141	866.022
244.059	14.317	1154.504	865.827
245.074	14.275	1153.749	864.964
246.088	14.191	1153.266	864.088
247.103	14.212	1152.505	863.554
248.117	14.305	1151.665	863.330
249.132	14.440	1150.742	863.260
250.147	14.604	1150.067	863.525
251.161	14.571	1149.553	862.895
252.176	14.467	1149.078	861.921
253.190	14.643	1148.093	862.019
254.205	14.536	1147.887	861.233
255.220	14.600	1147.263	861.020
256.234	14.657	1146.469	860.641
257.249	14.766	1145.782	860.610
258.263	14.750	1145.112	859.949
259.278	14.694	1144.476	859.106
260.293	14.742	1144.048	858.957
261.307	14.760	1143.188	858.328
262.322	14.761	1142.372	857.642
263.336	14.784	1142.184	857.544
264.351	14.747	1141.603	856.844
265.366	14.819	1140.902	856.608
266.380	14.844	1140.094	856.056
267.395	14.898	1139.151	855.550
268.409	14.728	1138.632	854.213
269.424	14.791	1137.939	853.942
270.439	14.794	1137.075	853.230
271.453	14.735	1136.459	852.391
272.468	14.661	1135.686	851.362
273.482	14.808	1134.864	851.416
274.497	14.759	1134.258	850.636
275.512	14.838	1133.740	850.576
276.526	14.886	1132.673	849.943
277.541	14.840	1132.035	849.156
278.555	14.851	1131.517	848.749
279.570	14.916	1130.502	848.241
280.585	14.929	1130.039	847.884
281.599	15.024	1128.908	847.440
282.614	15.014	1127.984	846.621
283.628	14.994	1127.210	845.868
284.643	14.952	1125.866	844.572
285.657	15.048	1124.843	844.211
286.672	15.030	1124.357	843.681
287.687	14.968	1123.606	842.734
288.701	14.997	1123.227	842.520
289.716	15.128	1122.139	842.290
290.730	15.117	1120.890	841.220
291.745	15.053	1121.044	840.940
292.760	15.109	1120.341	840.619
293.774	15.159	1119.413	840.101
294.789	15.152	1119.369	839.955
295.803	15.150	1118.246	839.032
296.818	15.204	1117.149	838.402
297.833	15.126	1116.833	837.703
298.847	15.019	1116.410	836.776
299.862	15.122	1115.539	836.565
300.876	15.256	1114.490	836.373
301.891	15.228	1113.915	835.727
302.906	15.317	1113.323	835.649
303.920	15.393	1112.378	835.244
304.935	15.326	1112.158	834.673
305.949	15.449	1111.745	834.900
306.964	15.469	1110.750	834.181
307.979	15.418	1110.094	833.362
308.993	15.386	1109.173	832.437
310.008	15.333	1108.948	831.929
311.022	15.493	1107.447	831.522
312.037	15.448	1106.985	830.878
313.052	15.484	1105.555	829.910
314.066	15.335	1105.009	828.690
315.081	15.349	1103.793	827.775
316.095	15.322	1103.634	827.449
317.110	15.309	1102.810	826.697
318.125	15.433	1101.942	826.584
319.139	15.295	1101.226	825.295
320.154	15.407	1100.694	825.372
321.168	15.462	1099.980	825.034
322.183	15.396	1099.613	824.362
323.197	15.459	1099.004	824.140
324.212	15.475	1098.337	823.647
325.227	15.518	1097.508	823.163
326.241	15.541	1096.888	822.737
327.256	15.548	1096.099	822.109
328.270	15.504	1095.127	821.090
329.285	15.360	1094.414	819.780
330.300	15.497	1093.570	819.742
331.314	15.441	1092.538	818.626
332.329	15.576	1091.380	818.340
333.343	15.501	1090.776	817.452
334.358	15.535	1089.873	816.868
335.373	15.684	1088.854	816.756
336.387	15.750	1088.427	816.685
337.402	15.532	1088.036	815.260
338.416	15.660	1087.216	815.193
339.431	15.757	1086.208	814.836
340.446	15.767	1085.835	814.533
341.460	15.869	1085.293	814.547
342.475	15.804	1084.806	813.795
343.489	15.699	1083.927	812.559
344.504	15.911	1082.352	812.327
345.519	15.932	1081.884	812.004
346.533	15.995	1081.460	811.917
347.548	16.029	1080.471	811.267
348.562	16.060	1079.620	810.708
349.577	15.978	1079.074	809.829
350.592	15.854	1078.135	808.457
351.606	15.935	1076.936	807.878
352.621	15.872	1076.491	807.170
353.635	15.821	1075.992	806.477
354.650	15.879	1075.390	806.234
355.665	15.953	1075.185	806.363
356.679	15.955	1074.330	805.658
357.694	15.963	1073.821	805.245
358.708	15.868	1073.414	804.417
359.723	16.075	1072.308	804.504
360.738	16.022	1072.104	804.024
361.752	15.980	1071.267	803.127
362.767	15.974	1070.626	802.546
363.781	16.199	1069.784	802.914
364.796	16.055	1069.604	802.025
365.810	16.151	1068.915	801.894
366.825	16.230	1068.424	801.830
367.840	16.241	1067.541	801.147
368.854	16.192	1067.201	800.589
369.869	16.254	1066.513	800.298
370.883	16.228	1065.368	799.241
371.898	16.360	1064.550	799.182
372.913	16.330	1064.067	798.610
373.927	16.281	1063.932	798.204
374.942	16.354	1063.218	797.941
375.956	16.408	1062.433	797.537
376.971	16.415	1061.907	797.105
377.986	16.360	1061.768	796.671
379.000	16.446	1061.107	796.508
380.015	16.602	1060.266	796.546
381.029	16.521	1059.584	795.578
382.044	16.445	1059.455	795.053
383.059	16.567	1058.097	794.539
384.073	16.495	1057.698	793.830
385.088	16.577	1056.459	793.215
386.102	16.595	1055.875	792.792
387.117	16.613	1054.303	791.626
388.132	16.426	1053.942	790.410
389.146	16.494	1053.211	790.109
390.161	16.594	1052.001	789.596
391.175	16.478	1051.803	788.835
392.190	16.600	1051.156	788.851
393.205	16.586	1050.667	788.349
394.219	16.618	1049.435	787.504
395.234	16.558	1048.337	786.333
396.248	16.652	1047.367	785.970
397.263	16.460	1046.678	784.492
398.278	16.588	1046.045	784.543
399.292	16.490	1045.370	783.513
400.307	16.451	1044.745	782.796
401.321	16.422	1044.067	782.082
402.336	16.620	1043.130	782.227
403.350	16.616	1042.798	781.890
404.365	16.633	1041.970	781.278
405.380	16.614	1041.533	780.796
406.394	16.693	1040.327	780.186
407.409	16.674	1039.584	779.471
408.423	16.813	1038.764	779.428
409.438	16.827	1038.394	779.146
410.453	16.925	1037.962	779.202
411.467	16.943	1036.962	778.467
412.482	16.977	1036.231	778.002
413.496	16.925	1035.624	777.239
414.511	16.842	1035.384	776.612
415.526	16.907	1035.280	776.762
416.540	17.035	1034.505	776.700
417.555	17.143	1033.699	776.517
418.569	17.091	1033.307	775.915
419.584	17.128	1032.644	775.521
420.599	17.085	1032.312	775.008
421.613	104.043	1323.762	1473.828
422.628	95.258	1366.172	1473.938
