DTS Sentinel unit serial number:	SN413079Multiplexer serial number:	ORYXHardware model number:	OX4-SRSoftware version number:	ORYX F/W v4.00 Oryx Data Collector v3.7.2.0data status	okinstallation	princeton_trtdifferential loss correction	single-endedforward channel	channel 2reverse channel	N/Adate	2019/09/13time	09:47:34forward acquisition time	60.00reverse acquisition time	0.00gamma	496.2192k internal	0.2325k external	0.2325temperature offset calibration	1.0186default loss term (dB/km)	0.3790temperature slope calibration	1.0000multiplexer offset coefficient	1.0000multiplexer slope coefficient	1.0000fibre end	0.00T internal ref (°C)	29.87T ext. ref 1 (°C)	4.43T ext. ref 2 (°C)	26.54length (m)	temperature (°C)	Stokes	anti-Stokes-747.200	40.548	0.078	-0.071
-746.185	547.579	-0.104	0.252
-745.171	-200.000	0.023	0.117
-744.156	-121.424	0.120	-0.020
-743.142	417.678	0.175	-0.377
-742.127	268.484	-0.101	0.179
-741.112	135.755	0.202	0.266
-740.098	-200.000	-0.006	0.105
-739.083	62.237	-0.204	-0.206
-738.069	14.951	-0.281	0.222
-737.054	-2.270	-0.147	-0.104
-736.039	-200.000	0.001	-0.006
-735.025	-200.000	0.016	0.299
-734.010	51.703	-0.106	0.101
-732.996	800.000	-0.099	-0.366
-731.981	465.776	-0.076	0.172
-730.966	-95.279	0.269	-0.073
-729.952	-176.359	0.343	-0.009
-728.937	-44.893	-0.160	0.081
-727.923	-80.048	-0.478	-0.162
-726.908	39.524	-0.017	-0.015
-725.894	800.000	-0.064	-0.213
-724.879	115.314	-0.188	-0.231
-723.864	-200.000	0.005	-0.457
-722.850	-200.000	0.014	-0.156
-721.835	-159.689	-0.305	-0.017
-720.821	-64.677	-0.199	0.081
-719.806	-200.000	-0.038	0.324
-718.791	260.162	-0.025	-0.044
-717.777	85.493	0.212	0.234
-716.762	-44.529	0.060	0.030
-715.748	-200.000	0.035	-0.380
-714.733	36.567	-0.117	0.104
-713.718	-19.770	0.101	-0.063
-712.704	49.330	0.026	0.025
-711.689	800.000	-0.046	-0.162
-710.675	114.053	-0.207	-0.254
-709.660	112.982	0.194	-0.237
-708.645	238.590	0.231	-0.386
-707.631	-200.000	0.029	-0.371
-706.616	800.000	-0.121	0.447
-705.602	-21.516	0.171	0.105
-704.587	-200.000	-0.015	0.318
-703.572	-14.714	0.220	-0.142
-702.558	-200.000	0.023	0.182
-701.543	-80.457	-0.049	0.017
-700.529	-54.958	0.090	0.041
-699.514	24.132	-0.201	-0.167
-698.499	-94.074	-0.100	-0.028
-697.485	516.573	0.038	0.089
-696.470	-130.496	-0.232	0.032
-695.456	-39.372	-0.316	0.167
-694.441	319.033	-0.065	-0.125
-693.426	-23.313	0.154	-0.094
-692.412	16.606	-0.211	-0.168
-691.397	503.499	-0.121	-0.281
-690.383	-200.000	-0.071	-0.415
-689.368	-49.634	0.076	-0.036
-688.354	331.188	0.061	-0.119
-687.339	334.949	0.068	-0.132
-686.324	-58.862	-0.159	-0.069
-685.310	6.405	-0.086	0.065
-684.295	-200.000	0.029	-0.242
-683.281	-97.886	0.343	-0.089
-682.266	-151.663	0.277	0.021
-681.251	44.967	0.225	0.209
-680.237	-78.784	-0.245	-0.084
-679.222	-90.049	0.092	0.027
-678.208	136.250	-0.150	-0.196
-677.193	-200.000	-0.029	-0.438
-676.178	-200.000	0.037	-0.196
-675.164	164.990	-0.226	-0.321
-674.149	260.749	-0.089	-0.154
-673.135	-54.534	0.186	-0.085
-672.120	79.454	-0.236	-0.255
-671.105	6.375	-0.143	-0.107
-670.091	800.000	-0.089	-0.323
-669.076	671.558	0.092	-0.239
-668.062	800.000	0.099	-0.309
-667.047	561.259	-0.062	-0.150
-666.032	7.176	0.156	-0.117
-665.018	-200.000	-0.018	0.443
-664.003	155.995	-0.194	0.269
-662.989	-166.636	-0.102	-0.004
-661.974	-200.000	0.034	-0.161
-660.959	11.731	-0.093	0.072
-659.945	-200.000	0.047	0.324
-658.930	-200.000	-0.005	0.143
-657.916	-200.000	-0.022	0.239
-656.901	800.000	0.032	-0.108
-655.886	-64.281	0.196	0.080
-654.872	250.994	0.129	-0.221
-653.857	-146.661	-0.096	-0.008
-652.843	-200.000	-0.018	-0.120
-651.828	60.240	0.078	-0.078
-650.814	111.317	0.184	-0.222
-649.799	92.080	0.091	-0.103
-648.784	31.425	-0.085	-0.073
-647.770	92.571	0.349	0.396
-646.755	-130.205	0.046	0.006
-645.741	22.925	-0.282	-0.233
-644.726	-97.444	-0.205	0.054
-643.711	800.000	-0.058	0.251
-642.697	-48.412	-0.012	0.006
-641.682	172.658	0.212	-0.307
-640.668	-200.000	0.012	-0.313
-639.653	-142.163	-0.188	0.019
-638.638	-10.842	0.204	0.135
-637.624	-35.714	-0.222	0.121
-636.609	-116.321	-0.264	0.049
-635.595	294.015	0.028	-0.052
-634.580	-74.070	-0.274	-0.100
-633.565	-200.000	-0.001	0.016
-632.551	230.426	-0.097	-0.159
-631.536	800.000	0.023	-0.098
-630.522	472.332	-0.067	0.152
-629.507	-200.000	0.019	-0.139
-628.492	-200.000	0.021	-0.308
-627.478	-154.699	-0.115	-0.008
-626.463	-69.688	-0.274	-0.105
-625.449	-131.060	0.098	-0.013
-624.434	33.625	-0.145	0.126
-623.419	21.230	-0.175	-0.143
-622.405	-200.000	0.021	0.238
-621.390	37.648	-0.217	0.193
-620.376	-17.874	-0.393	0.247
-619.361	-123.244	0.573	0.092
-618.346	-51.649	-0.322	-0.151
-617.332	-48.403	0.250	-0.121
-616.317	-182.944	-0.110	0.002
-615.303	-196.230	-0.436	0.003
-614.288	85.330	0.083	-0.091
-613.273	-30.052	0.045	0.026
-612.259	-63.287	-0.063	-0.026
-611.244	162.436	0.131	-0.184
-610.230	-31.096	0.172	-0.098
-609.215	64.804	-0.253	0.257
-608.201	-86.577	-0.163	0.050
-607.186	-200.000	-0.023	-0.108
-606.171	800.000	0.059	-0.177
-605.157	50.563	-0.187	-0.177
-604.142	-32.237	-0.183	0.103
-603.128	-86.198	0.271	-0.084
-602.113	-72.362	-0.098	0.037
-601.098	254.818	0.099	-0.170
-600.084	-200.000	-0.007	0.288
-599.069	225.734	0.192	0.312
-598.055	-121.019	-0.178	0.030
-597.040	-200.000	-0.018	0.172
-596.025	-21.963	0.282	-0.172
-595.011	800.000	-0.093	-0.297
-593.996	800.000	0.096	0.353
-592.982	217.529	-0.207	-0.332
-591.967	-169.697	0.285	-0.010
-590.952	371.333	-0.036	0.074
-589.938	-200.000	-0.000	0.062
-588.923	-200.000	-0.065	0.353
-587.909	-200.000	0.042	0.192
-586.894	34.524	0.198	-0.174
-585.879	58.806	-0.242	-0.239
-584.865	-82.133	-0.198	0.065
-583.850	-200.000	0.003	0.169
-582.836	-53.410	-0.044	-0.020
-581.821	9.050	0.311	-0.235
-580.806	-84.909	-0.182	-0.057
-579.792	-62.761	0.183	0.076
-578.777	122.296	0.039	-0.049
-577.763	26.928	-0.084	0.070
-576.748	563.816	-0.074	-0.179
-575.733	130.706	-0.139	0.178
-574.719	4.061	0.283	0.208
-573.704	-200.000	-0.017	-0.259
-572.690	800.000	-0.035	-0.147
-571.675	-80.438	-0.067	-0.022
-570.661	155.250	-0.316	-0.436
-569.646	-39.831	-0.254	0.133
-568.631	800.000	-0.041	-0.154
-567.617	205.115	-0.131	-0.203
-566.602	-104.096	0.197	-0.046
-565.588	-98.916	-0.542	-0.138
-564.573	123.235	0.067	0.084
-563.558	-84.337	-0.220	-0.070
-562.544	-57.940	-0.171	0.075
-561.529	-49.912	0.135	0.064
-560.515	-128.256	-0.287	-0.041
-559.500	452.169	-0.116	0.257
-558.485	277.181	0.149	-0.265
-557.471	-45.125	-0.193	-0.096
-556.456	-36.290	-0.329	-0.177
-555.442	-0.404	-0.270	0.192
-554.427	-67.238	-0.300	0.118
-553.412	88.554	0.114	-0.127
-552.398	-34.406	0.302	-0.166
-551.383	555.681	0.049	0.119
-550.369	-45.518	0.212	-0.105
-549.354	540.541	-0.226	-0.539
-548.339	63.035	0.278	-0.279
-547.325	-200.000	0.007	-0.264
-546.310	441.872	-0.119	0.260
-545.296	800.000	-0.015	0.059
-544.281	24.274	-0.165	-0.136
-543.266	800.000	-0.057	-0.202
-542.252	11.916	0.134	-0.103
-541.237	166.560	0.067	0.095
-540.223	800.000	0.117	-0.337
-539.208	71.009	0.335	-0.348
-538.193	-115.638	-0.263	-0.049
-537.179	-200.000	0.018	-0.097
-536.164	-85.529	-0.354	-0.110
-535.150	245.869	0.079	0.133
-534.135	223.868	0.105	-0.169
-533.121	33.642	0.133	0.115
-532.106	84.716	-0.115	0.126
-531.091	96.524	-0.070	-0.080
-530.077	800.000	-0.069	-0.220
-529.062	606.436	0.092	-0.230
-528.048	431.041	-0.191	0.413
-527.033	13.522	-0.137	0.106
-526.018	-200.000	0.035	0.160
-525.004	76.042	-0.069	-0.073
-523.989	44.364	-0.307	0.282
-522.975	569.493	0.077	0.187
-521.960	-200.000	0.056	0.254
-520.945	-62.546	-0.072	-0.030
-519.931	800.000	0.081	0.336
-518.916	134.099	-0.179	0.233
-517.902	-144.601	-0.136	0.013
-516.887	800.000	-0.011	0.030
-515.872	-138.869	-0.051	-0.006
-514.858	50.443	-0.087	0.082
-513.843	-44.165	0.240	-0.121
-512.829	-105.174	0.499	0.114
-511.814	-200.000	0.030	0.198
-510.799	142.499	-0.171	-0.227
-509.785	138.600	-0.033	-0.044
-508.770	41.705	-0.046	0.041
-507.756	16.341	0.103	-0.082
-506.741	135.649	-0.059	0.077
-505.726	55.872	-0.029	0.028
-504.712	146.044	-0.101	-0.136
-503.697	800.000	0.043	0.119
-502.683	18.803	-0.299	0.239
-501.668	-33.982	-0.122	0.067
-500.653	30.837	0.343	-0.293
-499.639	87.229	0.292	0.323
-498.624	-200.000	-0.001	0.412
-497.610	207.363	-0.287	0.448
-496.595	-90.669	0.234	-0.068
-495.581	57.020	0.211	-0.206
-494.566	-22.750	-0.482	-0.291
-493.551	-139.198	-0.313	0.034
-492.537	-91.542	0.309	-0.088
-491.522	-200.000	-0.043	0.269
-490.508	-24.566	-0.173	-0.103
-489.493	327.501	-0.133	-0.255
-488.478	-35.134	-0.230	-0.125
-487.464	22.338	-0.186	0.152
-486.449	231.186	0.148	-0.242
-485.435	-200.000	0.002	0.075
-484.420	800.000	0.051	-0.215
-483.405	177.017	0.063	-0.091
-482.391	93.422	-0.107	0.121
-481.376	-156.589	0.159	-0.010
-480.362	201.321	-0.080	0.123
-479.347	-200.000	-0.010	0.076
-478.332	-200.000	0.022	0.222
-477.318	222.332	0.173	-0.278
-476.303	662.407	-0.146	-0.377
-475.289	128.115	-0.003	0.003
-474.274	-45.360	0.289	-0.143
-473.259	-200.000	-0.017	0.181
-472.245	-66.165	-0.180	0.072
-471.230	-200.000	-0.012	0.098
-470.216	800.000	-0.046	0.164
-469.201	-78.166	-0.134	0.046
-468.186	-126.687	-0.161	-0.024
-467.172	800.000	-0.035	0.152
-466.157	232.974	0.093	-0.153
-465.143	-126.150	-0.147	0.022
-464.128	-200.000	0.087	-0.462
-463.113	-71.685	-0.036	0.014
-462.099	-149.063	0.195	-0.016
-461.084	-141.262	0.081	0.008
-460.070	800.000	-0.038	-0.129
-459.055	72.060	-0.216	0.224
-458.040	181.779	-0.051	0.075
-457.026	2.939	-0.154	0.112
-456.011	-120.291	0.218	0.037
-454.997	-4.583	-0.141	0.097
-453.982	-200.000	0.036	0.220
-452.968	-57.261	0.500	0.219
-451.953	-200.000	-0.017	0.085
-450.938	-176.972	-0.197	0.005
-449.924	-144.108	-0.174	-0.016
-448.909	16.457	0.182	0.143
-447.895	-136.590	0.166	0.019
-446.880	100.499	-0.024	0.028
-445.865	-139.358	0.175	-0.019
-444.851	289.022	0.137	-0.247
-443.836	141.372	-0.127	0.167
-442.822	-200.000	0.043	-0.306
-441.807	800.000	-0.060	0.253
-440.792	-86.212	-0.069	0.021
-439.778	800.000	0.066	-0.247
-438.763	-31.692	0.157	0.088
-437.749	-94.401	-0.190	-0.052
-436.734	-200.000	-0.009	-0.284
-435.719	-200.000	-0.048	-0.291
-434.705	62.643	-0.205	-0.204
-433.690	211.524	-0.160	0.251
-432.676	-102.614	-0.394	0.094
-431.661	-149.318	-0.158	0.013
-430.646	-1.238	0.278	-0.196
-429.632	-120.032	-0.242	-0.041
-428.617	-200.000	-0.018	-0.198
-427.603	44.625	0.097	-0.089
-426.588	59.265	-0.110	-0.108
-425.573	435.465	-0.092	-0.199
-424.559	-29.636	-0.129	0.074
-423.544	265.603	-0.153	0.266
-422.530	-49.416	-0.236	-0.112
-421.515	-5.456	-0.182	0.124
-420.500	-85.708	0.081	0.025
-419.486	-32.020	0.128	0.071
-418.471	9.945	-0.285	-0.216
-417.457	-156.278	-0.219	0.014
-416.442	16.190	-0.089	0.070
-415.428	-200.000	-0.022	-0.308
-414.413	-98.770	0.102	-0.026
-413.398	25.401	-0.353	-0.292
-412.384	-200.000	0.001	-0.204
-411.369	-173.392	0.264	-0.008
-410.355	-78.792	0.549	-0.186
-409.340	266.909	0.097	0.169
-408.325	-200.000	0.067	0.424
-407.311	-131.730	-0.214	-0.028
-406.296	-76.346	0.293	-0.103
-405.282	228.544	0.174	-0.282
-404.267	-115.735	-0.111	0.021
-403.252	618.893	-0.080	-0.201
-402.238	-200.000	0.035	0.220
-401.223	800.000	-0.059	0.232
-400.209	18.302	0.030	-0.024
-399.194	135.023	0.084	-0.109
-398.179	89.784	0.041	-0.046
-397.165	-115.634	-0.269	-0.050
-396.150	570.433	-0.083	0.201
-395.136	-72.919	-0.185	-0.068
-394.121	-121.422	0.197	-0.033
-393.106	63.155	-0.105	0.105
-392.092	8.458	0.220	0.164
-391.077	-200.000	0.010	0.052
-390.063	45.010	0.219	-0.200
-389.048	506.646	0.044	0.101
-388.033	800.000	0.022	-0.092
-387.019	746.778	0.033	-0.090
-386.004	-51.850	0.169	-0.078
-384.990	-200.000	0.040	-0.525
-383.975	-200.000	-0.006	-0.071
-382.960	-145.979	0.107	-0.009
-381.946	499.001	-0.069	-0.158
-380.931	-190.414	0.265	0.003
-379.917	-200.000	-0.001	0.106
-378.902	-19.236	-0.230	-0.142
-377.888	127.188	0.160	0.201
-376.873	-155.987	-0.215	0.014
-375.858	-112.417	-0.190	-0.038
-374.844	-0.533	0.145	0.102
-373.829	-200.000	-0.039	0.310
-372.815	-16.249	-0.445	-0.281
-371.800	-22.230	0.170	0.103
-370.785	800.000	-0.095	0.367
-369.771	-43.073	0.102	-0.052
-368.756	-200.000	-0.027	0.136
-367.742	-200.000	0.002	-0.095
-366.727	800.000	0.104	0.338
-365.712	171.555	-0.125	-0.179
-364.698	-62.168	-0.386	0.160
-363.683	-32.110	-0.124	0.069
-362.669	-49.078	0.203	0.097
-361.654	34.471	0.076	-0.066
-360.639	800.000	0.038	0.163
-359.625	-200.000	0.018	0.099
-358.610	-200.000	-0.001	-0.334
-357.596	374.933	0.055	0.111
-356.581	62.001	0.115	0.114
-355.566	-80.206	-0.408	-0.136
-354.552	-181.649	0.167	-0.003
-353.537	-200.000	-0.002	-0.265
-352.523	92.822	0.159	0.178
-351.508	-200.000	0.002	-0.051
-350.493	-106.560	0.153	-0.034
-349.479	-200.000	0.002	0.048
-348.464	800.000	0.026	0.092
-347.450	101.265	0.080	0.093
-346.435	104.796	-0.125	-0.146
-345.420	-41.656	0.528	0.270
-344.406	800.000	0.045	0.164
-343.391	-200.000	0.028	0.400
-342.377	800.000	0.114	0.323
-341.362	10.295	0.245	0.185
-340.348	800.000	-0.090	0.250
-339.333	800.000	-0.068	0.291
-338.318	130.656	0.107	0.137
-337.304	47.228	-0.080	-0.074
-336.289	44.968	0.116	-0.106
-335.275	91.348	0.167	0.186
-334.260	800.000	-0.057	-0.223
-333.245	113.513	-0.045	-0.054
-332.231	-179.145	0.365	-0.008
-331.216	800.000	0.056	-0.190
-330.202	-125.580	0.145	-0.022
-329.187	61.679	-0.224	-0.221
-328.172	-200.000	-0.025	-0.550
-327.158	53.624	0.050	-0.048
-326.143	800.000	0.043	0.151
-325.129	800.000	-0.097	0.278
-324.114	-106.944	0.515	0.113
-323.099	-68.552	-0.276	-0.106
-322.085	-200.000	-0.053	0.344
-321.070	-168.543	0.163	-0.006
-320.056	422.000	-0.033	0.070
-319.041	-23.728	0.177	-0.105
-318.026	-200.000	-0.028	0.455
-317.012	64.469	0.218	0.218
-315.997	800.000	-0.042	-0.151
-314.983	-37.045	-0.255	0.136
-313.968	-48.526	0.191	-0.091
-312.953	519.334	-0.224	0.520
-311.939	800.000	0.016	-0.045
-310.924	420.248	0.011	-0.024
-309.910	-6.085	0.205	0.139
-308.895	225.712	0.094	-0.150
-307.880	272.803	0.174	-0.306
-306.866	37.502	0.096	-0.085
-305.851	323.915	0.075	0.141
-304.837	-178.893	-0.220	0.005
-303.822	559.978	-0.068	-0.162
-302.807	271.256	0.038	-0.067
-301.793	-94.810	-0.110	0.030
-300.778	4.332	-0.198	-0.144
-299.764	583.244	0.076	0.184
-298.749	-200.000	-0.278	0.001
-297.735	21.381	0.165	0.133
-296.720	-30.744	-0.106	0.060
-295.705	-75.122	0.150	-0.053
-294.691	-136.940	0.064	0.007
-293.676	-83.890	0.133	0.042
-292.662	25.126	-0.302	0.249
-291.647	-200.000	0.044	0.296
-290.632	-200.000	-0.016	-0.181
-289.618	800.000	-0.082	-0.233
-288.603	326.868	-0.148	-0.281
-287.589	-200.000	0.012	0.143
-286.574	8.982	-0.405	-0.303
-285.559	-200.000	0.034	0.213
-284.545	-200.000	0.013	-0.317
-283.530	-93.689	0.138	-0.038
-282.516	800.000	0.002	-0.006
-281.501	800.000	-0.053	-0.170
-280.486	-57.328	-0.180	-0.078
-279.472	-80.849	0.345	0.113
-278.457	-5.741	-0.204	-0.139
-277.443	313.147	0.112	-0.209
-276.428	329.017	-0.058	0.110
-275.413	-200.000	-0.002	-0.232
-274.399	-200.000	0.048	0.215
-273.384	136.168	-0.037	-0.048
-272.370	800.000	0.045	-0.181
-271.355	-200.000	-0.011	-0.093
-270.340	-35.320	0.066	0.035
-269.326	800.000	-0.104	-0.355
-268.311	-170.663	0.427	-0.015
-267.297	-144.469	-0.260	-0.024
-266.282	-91.164	-0.163	-0.046
-265.267	534.931	-0.034	-0.080
-264.253	319.245	0.217	-0.408
-263.238	20.698	0.200	-0.161
-262.224	-73.237	-0.099	-0.036
-261.209	800.000	0.068	0.202
-260.195	51.897	0.230	0.217
-259.180	-155.055	0.120	-0.008
-258.165	230.283	-0.078	0.127
-257.151	-128.145	0.151	0.021
-256.136	-16.889	-0.289	-0.181
-255.122	176.504	0.088	-0.126
-254.107	-6.269	0.142	-0.096
-253.092	171.914	-0.198	0.281
-252.078	712.143	0.056	0.148
-251.063	-200.000	-0.049	-0.356
-250.049	-52.793	0.187	-0.085
-249.034	15.480	0.089	0.069
-248.019	176.957	0.013	0.019
-247.005	-200.000	-0.026	0.219
-245.990	800.000	0.060	-0.235
-244.976	71.419	0.267	0.274
-243.961	-68.635	0.333	-0.128
-242.946	-12.812	-0.376	0.242
-241.932	-116.841	-0.151	0.027
-240.917	-75.920	-0.336	-0.118
-239.903	18.938	-0.023	-0.019
-238.888	-66.598	-0.206	-0.081
-237.873	284.417	-0.248	-0.442
-236.859	-200.000	-0.008	0.069
-235.844	18.397	-0.086	0.068
-234.830	-90.306	0.299	0.086
-233.815	-0.572	-0.204	0.143
-232.800	8.803	0.187	-0.139
-231.786	800.000	0.017	-0.064
-230.771	178.295	0.278	0.402
-229.757	-103.660	-0.092	0.021
-228.742	800.000	0.060	0.210
-227.727	-107.118	0.242	-0.053
-226.713	-32.813	-0.089	-0.049
-225.698	-200.000	-0.041	0.286
-224.684	33.386	-0.217	0.186
-223.669	-103.324	0.320	0.075
-222.655	94.874	-0.161	-0.181
-221.640	-34.707	0.209	0.113
-220.625	61.429	-0.113	0.111
-219.611	-45.826	0.306	0.150
-218.596	-200.000	0.001	0.245
-217.582	25.574	-0.173	-0.142
-216.567	-29.678	0.269	-0.152
-215.552	-48.638	0.053	0.025
-214.538	94.586	0.122	-0.137
-213.523	-158.920	0.170	0.010
-212.509	156.226	0.285	0.389
-211.494	-79.974	-0.182	-0.060
-210.479	-109.420	0.406	-0.085
-209.465	-200.000	-0.006	0.083
-208.450	800.000	0.073	-0.211
-207.436	-125.462	0.176	-0.026
-206.421	-31.108	-0.206	-0.115
-205.406	245.111	0.095	0.158
-204.392	-200.000	0.021	0.437
-203.377	800.000	0.051	0.194
-202.363	209.536	0.246	0.381
-201.348	-200.000	0.021	0.396
-200.333	-200.000	0.028	0.289
-199.319	800.000	0.089	0.362
-198.304	236.390	-0.020	0.032
-197.290	-3.772	-0.173	-0.118
-196.275	-200.000	-0.000	-0.493
-195.260	-200.000	-0.039	-0.327
-194.246	-83.749	0.191	-0.060
-193.231	704.427	0.227	0.590
-192.217	-131.364	-0.247	-0.032
-191.202	800.000	-0.089	-0.268
-190.187	47.161	-0.119	-0.109
-189.173	-97.764	0.148	-0.038
-188.158	235.454	-0.052	0.085
-187.144	-10.059	-0.403	0.264
-186.129	-139.082	0.292	0.031
-185.114	800.000	0.045	0.173
-184.100	-26.617	0.259	-0.149
-183.085	-96.881	-0.266	-0.069
-182.071	184.108	0.193	-0.282
-181.056	-125.037	-0.196	-0.030
-180.042	559.729	0.139	0.332
-179.027	800.000	0.118	-0.446
-178.012	-200.000	0.026	0.145
-176.998	800.000	0.059	-0.167
-175.983	800.000	0.061	-0.185
-174.969	224.970	-0.136	-0.218
-173.954	-89.007	0.220	-0.064
-172.939	7.118	0.054	-0.040
-171.925	-94.253	0.155	0.042
-170.910	-1.910	0.404	0.280
-169.896	-178.500	-0.353	0.008
-168.881	-72.692	0.346	-0.126
-167.866	-133.030	-0.124	0.015
-166.852	800.000	-0.056	0.237
-165.837	-51.601	0.050	0.023
-164.823	-172.034	0.216	-0.007
-163.808	-200.000	-0.009	0.368
-162.793	392.941	0.107	0.220
-161.779	73.175	0.181	-0.186
-160.764	40.695	0.151	-0.134
-159.750	-141.131	0.382	0.038
-158.735	-109.734	0.210	-0.044
-157.720	800.000	-0.025	0.079
-156.706	-200.000	0.006	-0.156
-155.691	-200.000	0.009	-0.098
-154.677	-52.957	0.219	0.099
-153.662	-168.847	0.038	-0.001
-152.647	27.554	0.022	0.018
-151.633	-106.062	0.073	-0.016
-150.618	-105.904	0.179	0.040
-149.604	800.000	0.099	-0.270
-148.589	90.453	0.128	-0.141
-147.574	-55.293	0.174	-0.077
-146.560	-200.000	-0.031	-0.182
-145.545	35.085	0.129	-0.111
-144.531	-72.351	-0.088	-0.032
-143.516	-107.451	0.023	-0.005
-142.502	158.958	-0.081	-0.111
-141.487	-113.689	-0.097	0.019
-140.472	343.239	-0.133	0.257
-139.458	245.408	-0.370	0.614
-138.443	282.020	-0.053	-0.094
-137.429	32.334	-0.111	-0.094
-136.414	191.436	-0.020	0.030
-135.399	-200.000	-0.031	0.268
-134.385	16.796	0.188	-0.147
-133.370	-65.192	-0.359	-0.142
-132.356	-200.000	-0.019	-0.198
-131.341	-97.803	-0.087	-0.022
-130.326	-200.000	0.001	-0.274
-129.312	-26.237	-0.244	0.141
-128.297	-67.323	-0.058	-0.022
-127.283	-200.000	-0.013	-0.189
-126.268	93.622	0.347	0.387
-125.253	-200.000	-0.004	0.045
-124.239	800.000	-0.032	-0.129
-123.224	800.000	0.044	0.171
-122.210	-17.388	-0.254	-0.157
-121.195	236.821	-0.075	0.123
-120.180	275.929	-0.111	0.194
-119.166	-200.000	-0.011	0.152
-118.151	22.589	0.082	0.066
-117.137	131.877	-0.108	0.136
-116.122	10.930	-0.225	0.169
-115.107	-50.395	-0.278	0.129
-114.093	-164.126	-0.174	0.008
-113.078	494.393	0.187	-0.423
-112.064	-200.000	0.006	0.060
-111.049	191.755	-0.053	-0.078
-110.034	-146.577	0.161	-0.014
-109.020	-200.000	-0.021	0.392
-108.005	-7.588	-0.165	0.110
-106.991	28.818	-0.113	-0.094
-105.976	98.647	0.246	0.279
-104.962	415.302	0.061	0.129
-103.947	98.697	-0.171	0.194
-102.932	-200.000	0.029	-0.151
-101.918	-101.020	-0.184	-0.044
-100.903	111.752	-0.147	-0.175
-99.889	-200.000	0.083	0.368
-98.874	741.857	0.056	0.147
-97.859	179.173	0.123	0.177
-96.845	-93.947	0.533	0.144
-95.830	-200.000	0.015	-0.104
-94.816	-27.749	-0.050	0.028
-93.801	17.516	-0.144	-0.112
-92.786	47.828	-0.183	-0.168
-91.772	800.000	-0.069	0.224
-90.757	355.218	-0.073	0.143
-89.743	33.979	0.116	0.099
-88.728	-200.000	-0.015	0.091
-87.713	-82.542	0.025	0.008
-86.699	-153.317	-0.369	-0.025
-85.684	55.108	-0.295	0.280
-84.670	-200.000	-0.051	0.225
-83.655	267.189	-0.112	0.192
-82.640	36.602	0.142	-0.123
-81.626	419.485	-0.102	-0.215
-80.611	150.987	-0.111	-0.148
-79.597	-93.673	-0.266	-0.072
-78.582	254.574	0.138	-0.232
-77.567	464.247	-0.130	-0.285
-76.553	3.906	0.201	-0.144
-75.538	-74.051	-0.199	-0.071
-74.524	6.838	0.252	0.185
-73.509	-1.445	0.179	-0.124
-72.494	73.238	-0.080	0.082
-71.480	-200.000	0.029	0.282
-70.465	0.533	-0.098	-0.069
-69.451	0.808	0.269	0.190
-68.436	407.670	0.304	0.630
-67.422	178.592	0.107	-0.154
-66.407	113.721	-0.133	0.159
-65.392	-200.000	-0.008	0.139
-64.378	47.564	0.208	0.190
-63.363	222.465	-0.062	0.098
-62.349	146.272	-0.307	0.405
-61.334	93.904	-0.909	-1.012
-60.319	173.457	0.351	0.497
-59.305	-200.000	-0.182	-1.227
-58.290	349.761	0.480	0.931
-57.276	343.735	0.700	1.348
-56.261	-200.000	104.114	575.858
-55.246	510.299	1466.974	3350.886
-54.232	178.495	2679.357	3842.972
-53.217	106.412	2306.879	2685.513
-52.203	38.872	1916.684	1681.259
-51.188	32.923	1702.375	1447.764
-50.173	30.379	1658.987	1391.774
-49.159	48.597	1710.647	1574.236
-48.144	49.173	1726.296	1592.955
-47.130	32.581	1685.101	1430.251
-46.115	29.985	1670.558	1398.280
-45.100	29.867	1665.175	1392.833
-44.086	29.830	1662.836	1390.544
-43.071	29.683	1660.094	1387.088
-42.057	29.664	1657.501	1384.725
-41.042	29.698	1656.023	1383.692
-40.027	29.709	1653.750	1381.822
-39.013	29.695	1651.805	1380.036
-37.998	29.739	1649.992	1378.797
-36.984	29.818	1648.660	1378.214
-35.969	29.884	1647.404	1377.604
-34.954	29.936	1645.914	1376.687
-33.940	29.919	1644.377	1375.218
-32.925	29.868	1642.574	1373.280
-31.911	29.799	1641.070	1371.454
-30.896	29.925	1638.725	1370.374
-29.881	29.874	1637.253	1368.714
-28.867	29.843	1635.416	1366.890
-27.852	29.838	1634.388	1365.941
-26.838	29.922	1632.642	1365.052
-25.823	29.919	1631.276	1363.833
-24.809	29.977	1629.771	1362.947
-23.794	29.882	1628.952	1361.509
-22.779	29.873	1627.375	1360.067
-21.765	29.878	1625.589	1358.563
-20.750	29.797	1624.332	1356.864
-19.736	29.973	1622.033	1356.172
-18.721	29.893	1621.797	1355.336
-17.706	29.905	1619.311	1353.295
-16.692	29.912	1618.008	1352.207
-15.677	29.869	1617.104	1351.082
-14.663	29.868	1615.517	1349.697
-13.648	30.032	1613.550	1349.194
-12.633	29.918	1612.303	1347.267
-11.619	29.866	1610.807	1345.581
-10.604	29.907	1609.270	1344.542
-9.590	29.852	1608.235	1343.223
-8.575	29.873	1607.509	1342.720
-7.560	29.990	1605.752	1342.050
-6.546	29.858	1604.932	1340.355
-5.531	29.895	1603.764	1339.590
-4.517	29.915	1602.411	1338.549
-3.502	29.966	1600.820	1337.542
-2.487	30.022	1599.719	1336.973
-1.473	29.755	1588.317	1325.471
-0.458	27.113	1569.385	1290.882
0.556	25.730	1570.673	1260.534
1.571	23.507	1595.294	1264.349
2.586	22.781	1608.589	1269.555
3.600	20.320	1553.382	1208.758
4.615	12.504	1444.660	1073.238
5.629	5.635	1381.846	983.472
6.644	4.360	1374.283	970.040
7.659	4.383	1373.033	969.216
8.673	4.449	1372.475	969.146
9.688	4.517	1370.202	967.880
10.702	4.351	1367.809	965.068
11.717	7.537	1373.634	988.965
12.731	15.500	1388.206	1049.316
13.746	21.416	1397.503	1093.357
14.761	22.447	1397.921	1100.027
15.775	21.765	1396.112	1094.251
16.790	20.741	1393.883	1086.021
17.804	19.959	1391.459	1079.164
18.819	19.639	1390.255	1076.143
19.834	19.738	1388.842	1075.574
20.848	19.535	1388.126	1073.659
21.863	19.332	1387.190	1071.578
22.877	19.213	1386.238	1070.007
23.892	19.188	1384.898	1068.725
24.907	19.206	1383.759	1067.862
25.921	19.115	1383.087	1066.687
26.936	19.116	1382.328	1066.015
27.950	19.274	1381.178	1066.005
28.965	19.322	1380.540	1065.716
29.980	19.505	1378.878	1065.470
30.994	19.564	1378.606	1065.533
32.009	19.619	1377.202	1064.689
33.023	19.637	1375.910	1063.709
34.038	19.522	1374.477	1061.796
35.053	19.238	1373.620	1059.295
36.067	19.351	1372.586	1059.100
37.082	19.296	1371.584	1057.895
38.096	19.390	1370.816	1057.786
39.111	19.475	1369.705	1057.356
40.126	19.328	1368.843	1055.699
41.140	19.096	1367.930	1053.483
42.155	18.850	1367.218	1051.333
43.169	18.876	1367.370	1051.516
44.184	18.902	1366.610	1051.000
45.199	18.890	1366.094	1050.431
46.213	19.049	1366.493	1051.618
47.228	19.248	1365.145	1051.707
48.242	19.375	1364.513	1051.900
49.257	19.285	1362.794	1049.935
50.271	19.280	1361.449	1048.774
51.286	19.331	1360.020	1047.887
52.301	19.318	1358.540	1046.578
53.315	19.172	1357.889	1045.099
54.330	19.196	1356.078	1043.754
55.344	19.003	1354.976	1041.645
56.359	19.036	1353.868	1040.905
57.374	18.973	1353.320	1040.008
58.388	18.826	1352.756	1038.595
59.403	18.797	1352.297	1037.974
60.417	18.704	1351.572	1036.765
61.432	18.834	1350.318	1036.498
62.447	18.605	1349.461	1034.367
63.461	18.598	1348.058	1033.156
64.476	18.624	1347.135	1032.515
65.490	18.482	1346.218	1030.866
66.505	18.659	1344.205	1030.297
67.520	18.654	1343.249	1029.441
68.534	18.629	1342.295	1028.468
69.549	18.601	1341.185	1027.363
70.563	18.613	1340.175	1026.566
71.578	18.478	1338.705	1024.543
72.593	18.337	1338.141	1023.181
73.607	18.400	1337.565	1023.023
74.622	18.451	1336.465	1022.396
75.636	18.475	1336.273	1022.301
76.651	18.445	1335.302	1021.293
77.666	18.513	1334.997	1021.373
78.680	18.629	1334.822	1021.840
79.695	18.852	1333.364	1021.961
80.709	18.827	1333.131	1021.540
81.724	18.876	1332.335	1021.132
82.739	19.010	1331.547	1021.234
83.753	19.228	1331.134	1022.120
84.768	19.391	1329.821	1021.991
85.782	19.385	1329.259	1021.431
86.797	19.482	1327.920	1020.887
87.812	19.301	1326.646	1018.744
88.826	19.305	1325.358	1017.687
89.841	19.340	1324.740	1017.333
90.855	19.535	1323.544	1017.470
91.870	19.604	1322.660	1017.109
92.884	19.539	1322.075	1016.189
93.899	19.492	1321.565	1015.430
94.914	19.636	1320.558	1015.411
95.928	19.496	1319.982	1014.053
96.943	19.530	1319.033	1013.437
97.957	19.502	1317.670	1012.134
98.972	19.452	1316.669	1010.984
99.987	19.513	1315.727	1010.529
101.001	19.500	1314.607	1009.503
102.016	19.496	1314.249	1009.117
103.030	19.426	1313.399	1007.965
104.045	19.408	1312.566	1007.133
105.060	19.331	1310.847	1005.273
106.074	19.045	1309.013	1002.110
107.089	18.742	1307.702	999.256
108.103	18.658	1306.581	997.822
109.118	18.648	1305.484	996.837
110.133	18.654	1304.267	995.855
111.147	18.699	1302.479	994.667
112.162	18.751	1301.383	994.040
113.176	18.893	1300.276	993.928
114.191	18.819	1299.724	992.989
115.206	18.866	1298.298	992.083
116.220	18.822	1297.543	991.168
117.235	18.870	1296.271	990.383
118.249	18.734	1295.012	988.549
119.264	18.713	1293.745	987.375
120.279	18.627	1292.767	986.045
121.293	18.484	1291.822	984.417
122.308	18.465	1290.872	983.501
123.322	18.355	1289.558	981.779
124.337	18.549	1287.947	981.576
125.352	18.443	1287.780	980.753
126.366	18.473	1286.159	979.608
127.381	18.414	1285.447	978.640
128.395	18.499	1284.060	977.980
129.410	18.480	1283.286	977.196
130.424	18.595	1282.568	977.220
131.439	18.737	1281.797	977.356
132.454	18.773	1281.051	976.902
133.468	18.853	1280.412	976.783
134.483	18.784	1279.812	975.849
135.497	18.816	1278.603	975.023
136.512	18.901	1277.499	974.578
137.527	18.900	1275.853	973.231
138.541	18.953	1274.698	972.564
139.556	19.046	1273.419	972.023
140.570	19.096	1272.635	971.621
141.585	19.207	1271.340	971.175
142.600	19.382	1270.394	971.353
143.614	19.472	1269.528	971.112
144.629	19.489	1268.246	970.140
145.643	19.428	1267.827	969.389
146.658	19.285	1266.008	967.112
147.673	18.956	1264.635	964.134
148.687	18.982	1263.071	963.002
149.702	18.850	1261.637	961.084
150.716	18.909	1260.630	960.559
151.731	18.911	1259.076	959.302
152.746	18.939	1258.338	958.814
153.760	18.984	1257.184	958.099
154.775	19.103	1256.149	957.886
155.789	19.154	1255.493	957.586
156.804	19.294	1254.059	957.186
157.819	19.264	1253.647	956.617
158.833	19.370	1252.644	956.357
159.848	19.563	1251.597	956.541
160.862	19.475	1250.633	955.237
161.877	19.096	1249.338	952.066
162.892	18.887	1248.213	949.967
163.906	18.964	1246.863	949.282
164.921	19.026	1246.028	948.905
165.935	18.991	1245.286	948.060
166.950	19.054	1245.056	948.148
167.964	19.235	1243.986	948.249
168.979	19.159	1243.187	947.134
169.994	19.087	1242.357	946.024
171.008	19.112	1241.662	945.547
172.023	19.268	1240.997	945.815
173.037	19.347	1240.472	945.765
174.052	19.325	1239.662	944.943
175.067	19.061	1238.230	942.324
176.081	18.936	1236.830	940.488
177.096	19.000	1235.831	939.996
178.110	18.989	1234.742	939.023
179.125	19.013	1233.945	938.466
180.140	19.193	1232.841	938.525
181.154	19.296	1231.895	938.280
182.169	19.417	1230.441	937.752
183.183	19.397	1229.801	937.071
184.198	19.372	1228.907	936.172
185.213	19.504	1227.807	935.965
186.227	19.473	1226.812	934.956
187.242	19.504	1225.784	934.259
188.256	19.631	1224.375	933.787
189.271	19.586	1223.864	933.071
190.286	19.471	1222.575	931.389
191.300	19.000	1221.343	927.824
192.315	18.920	1220.286	926.512
193.329	18.862	1220.544	926.310
194.344	19.059	1219.407	926.424
195.359	19.073	1219.211	926.274
196.373	19.240	1218.671	926.677
197.388	19.325	1218.789	927.143
198.402	19.590	1218.004	927.889
199.417	19.807	1217.585	928.651
200.432	19.892	1216.925	928.523
201.446	19.894	1216.432	928.075
202.461	20.024	1215.609	928.058
203.475	19.928	1214.544	926.654
204.490	19.672	1212.796	923.869
205.504	19.628	1211.229	922.359
206.519	19.590	1210.393	921.435
207.534	19.447	1209.274	919.742
208.548	19.435	1208.378	918.914
209.563	19.461	1207.498	918.300
210.577	19.527	1206.613	917.899
211.592	19.597	1206.220	917.891
212.607	19.764	1205.531	918.169
213.621	19.815	1204.408	917.505
214.636	19.720	1203.337	916.107
215.650	19.734	1202.645	915.571
216.665	19.928	1202.039	916.054
217.680	20.067	1201.159	916.038
218.694	20.046	1200.374	915.247
219.709	20.056	1199.291	914.392
220.723	19.975	1198.832	913.537
221.738	19.933	1197.571	912.271
222.753	19.897	1197.161	911.689
223.767	19.929	1196.163	911.018
224.782	20.081	1196.262	911.810
225.796	20.095	1195.940	911.561
226.811	20.230	1194.100	910.787
227.826	19.911	1193.451	908.535
228.840	19.880	1192.635	907.672
229.855	19.862	1192.217	907.180
230.869	19.897	1191.456	906.702
231.884	19.711	1190.789	905.139
232.899	19.763	1189.495	904.349
233.913	19.623	1188.697	902.932
234.928	19.604	1188.006	902.229
235.942	19.566	1187.289	901.405
236.957	19.580	1186.409	900.731
237.972	19.605	1185.479	900.072
238.986	19.617	1184.778	899.525
240.001	19.598	1184.361	899.031
241.015	19.623	1183.578	898.488
242.030	19.841	1182.446	898.681
243.045	19.869	1182.206	898.565
244.059	19.790	1181.674	897.670
245.074	20.031	1180.277	897.777
246.088	20.038	1180.130	897.624
247.103	20.225	1179.202	897.805
248.117	20.253	1178.664	897.463
249.132	20.433	1178.103	897.884
250.147	20.725	1177.352	898.742
251.161	20.768	1176.886	898.530
252.176	20.726	1176.175	897.687
253.190	20.813	1175.855	897.813
254.205	20.887	1175.649	897.960
255.220	21.027	1174.771	897.931
256.234	20.903	1173.933	896.573
257.249	20.894	1173.266	895.939
258.263	20.912	1172.127	895.081
259.278	20.869	1171.777	894.511
260.293	20.912	1171.526	894.464
261.307	20.977	1170.810	894.169
262.322	21.005	1170.149	893.732
263.336	21.068	1169.252	893.286
264.351	20.897	1169.018	892.154
265.366	21.030	1168.347	892.245
266.380	21.032	1167.217	891.311
267.395	20.862	1166.872	890.102
268.409	20.826	1165.901	889.098
269.424	20.863	1164.996	888.521
270.439	20.733	1164.676	887.533
271.453	20.752	1163.162	886.399
272.468	20.481	1163.185	884.958
273.482	20.566	1161.613	884.115
274.497	20.501	1161.652	883.738
275.512	20.570	1160.331	883.002
276.526	20.656	1159.482	882.718
277.541	20.514	1159.219	881.715
278.555	20.659	1158.752	882.020
279.570	20.879	1158.124	882.576
280.585	21.072	1157.280	882.832
281.599	20.953	1156.101	881.253
282.614	20.917	1154.739	879.953
283.628	20.826	1153.649	878.586
284.643	20.752	1152.779	877.476
285.657	20.840	1152.039	877.279
286.672	20.876	1150.674	876.340
287.687	20.748	1150.586	875.554
288.701	20.849	1149.343	875.038
289.716	20.849	1148.549	874.357
290.730	20.823	1148.242	873.912
291.745	20.950	1147.534	873.933
292.760	20.904	1146.897	873.143
293.774	20.935	1146.718	873.082
294.789	21.180	1146.151	873.801
295.803	21.043	1145.260	872.356
296.818	20.891	1144.438	870.897
297.833	20.749	1143.662	869.518
298.847	20.855	1142.826	869.334
299.862	20.873	1142.018	868.733
300.876	21.014	1141.097	868.659
301.891	21.075	1140.991	868.803
302.906	21.079	1140.314	868.233
303.920	21.260	1139.629	868.533
304.935	21.420	1139.011	868.783
305.949	21.629	1138.309	869.204
306.964	21.524	1137.717	868.158
307.979	21.456	1136.487	866.803
308.993	21.149	1136.414	865.151
310.008	21.429	1135.247	865.574
311.022	21.417	1134.654	864.985
312.037	21.434	1133.529	864.134
313.052	21.170	1133.083	862.413
314.066	21.092	1131.609	860.831
315.081	20.871	1130.790	859.038
316.095	20.928	1129.668	858.392
317.110	20.927	1129.191	857.948
318.125	20.875	1128.852	857.359
319.139	20.844	1127.671	856.237
320.154	20.933	1127.382	856.377
321.168	20.969	1126.929	856.136
322.183	20.943	1126.129	855.324
323.197	21.034	1125.579	855.276
324.212	21.155	1124.665	855.100
325.227	21.131	1124.193	854.544
326.241	21.064	1123.879	853.902
327.256	21.008	1122.823	852.754
328.270	20.870	1121.882	851.289
329.285	21.000	1120.821	851.044
330.300	21.018	1119.783	850.268
331.314	21.033	1119.236	849.849
332.329	20.966	1118.325	848.758
333.343	21.054	1117.484	848.470
334.358	21.241	1116.842	848.819
335.373	21.381	1115.931	848.731
336.387	21.347	1115.462	848.133
337.402	21.396	1114.261	847.382
338.416	21.441	1114.156	847.443
339.431	21.533	1113.093	847.005
340.446	21.659	1112.663	847.215
341.460	21.749	1112.246	847.256
342.475	21.908	1111.557	847.426
343.489	21.775	1111.089	846.351
344.504	21.907	1109.761	845.903
345.519	21.922	1109.169	845.448
346.533	22.091	1108.078	845.353
347.548	22.033	1107.958	844.906
348.562	22.021	1106.522	843.681
349.577	21.771	1105.466	841.601
350.592	21.574	1104.614	839.934
351.606	21.454	1103.876	838.724
352.621	21.455	1102.616	837.696
353.635	21.406	1102.472	837.278
354.650	21.441	1101.613	836.719
355.665	21.569	1100.622	836.501
356.679	21.532	1100.590	836.230
357.694	21.585	1100.224	836.131
358.708	21.624	1099.479	835.674
359.723	21.616	1098.970	835.178
360.738	21.682	1098.275	834.888
361.752	21.656	1097.498	834.101
362.767	21.822	1096.851	834.323
363.781	21.761	1096.357	833.585
364.796	21.821	1096.014	833.538
365.810	22.031	1095.785	834.286
366.825	22.069	1095.536	834.202
367.840	22.277	1094.746	834.516
368.854	22.356	1094.167	834.375
369.869	22.429	1093.005	833.761
370.883	22.233	1091.865	831.891
371.898	22.073	1091.209	830.558
372.913	22.042	1090.812	830.038
373.927	22.123	1090.537	830.134
374.942	22.283	1090.161	830.533
375.956	22.289	1089.291	829.826
376.971	22.139	1088.826	828.688
377.986	22.278	1088.189	828.788
379.000	22.444	1087.589	829.038
380.015	22.517	1087.179	828.997
381.029	22.470	1086.824	828.430
382.044	22.431	1085.856	827.437
383.059	22.382	1084.946	826.440
384.073	22.453	1084.056	826.023
385.088	22.466	1083.146	825.316
386.102	22.504	1082.338	824.803
387.117	22.336	1081.087	822.992
388.132	22.106	1080.208	821.176
389.146	22.118	1078.971	820.220
390.161	21.949	1078.453	818.963
391.175	22.054	1077.917	818.975
392.190	22.146	1077.164	818.757
393.205	22.337	1076.777	819.279
394.219	22.334	1076.037	818.633
395.234	22.262	1074.755	817.247
396.248	22.181	1073.466	815.822
397.263	22.132	1072.767	814.993
398.278	21.918	1072.412	813.658
399.292	21.906	1071.495	812.831
400.307	21.925	1070.312	811.950
401.321	21.903	1069.857	811.434
402.336	21.937	1069.050	810.908
403.350	21.899	1068.485	810.232
404.365	22.067	1067.661	810.309
405.380	22.240	1066.987	810.521
406.394	22.187	1066.630	809.935
407.409	22.451	1065.860	810.497
408.423	22.449	1065.452	810.101
409.438	22.683	1064.676	810.517
410.453	22.728	1064.213	810.300
411.467	22.602	1063.656	809.227
412.482	22.719	1062.973	809.173
413.496	22.869	1062.086	809.111
414.511	22.852	1061.878	808.806
415.526	22.999	1061.241	808.922
416.540	23.083	1061.060	809.096
417.555	23.038	1060.498	808.386
418.569	22.807	1060.038	806.909
419.584	22.856	1059.215	806.437
420.599	22.988	1058.664	806.549
421.613	155.996	1402.535	1795.949
422.628	143.397	1452.647	1796.028
