DTS Sentinel unit serial number:	SN413079Multiplexer serial number:	ORYXHardware model number:	OX4-SRSoftware version number:	ORYX F/W v4.00 Oryx Data Collector v3.7.2.0data status	okinstallation	princeton_trtdifferential loss correction	single-endedforward channel	channel 2reverse channel	N/Adate	2019/09/13time	03:23:34forward acquisition time	60.00reverse acquisition time	0.00gamma	496.2192k internal	0.2335k external	0.2335temperature offset calibration	1.0194default loss term (dB/km)	0.3790temperature slope calibration	1.0000multiplexer offset coefficient	1.0000multiplexer slope coefficient	1.0000fibre end	0.00T internal ref (°C)	27.37T ext. ref 1 (°C)	4.09T ext. ref 2 (°C)	21.92length (m)	temperature (°C)	Stokes	anti-Stokes-747.200	800.000	0.023	-0.093
-746.185	-200.000	0.008	-0.442
-745.171	-143.000	-0.284	-0.028
-744.156	-200.000	0.009	0.181
-743.142	125.452	-0.058	-0.073
-742.127	-50.610	-0.122	-0.058
-741.112	-200.000	-0.002	-0.111
-740.098	517.428	-0.127	0.298
-739.083	-200.000	0.003	-0.069
-738.069	-171.460	-0.124	0.004
-737.054	561.933	-0.066	-0.159
-736.039	-132.052	0.302	-0.039
-735.025	-200.000	-0.002	-0.131
-734.010	800.000	-0.088	-0.260
-732.996	-17.588	-0.079	-0.050
-731.981	800.000	-0.078	-0.251
-730.966	-13.345	0.026	0.017
-729.952	-46.683	0.041	0.020
-728.937	439.288	-0.064	0.141
-727.923	-200.000	0.003	-0.287
-726.908	800.000	0.105	-0.359
-725.894	453.481	-0.140	-0.311
-724.879	-46.987	-0.199	-0.097
-723.864	9.667	-0.345	0.263
-722.850	344.503	-0.080	-0.157
-721.835	418.717	-0.030	-0.064
-720.821	-200.000	-0.022	-0.213
-719.806	-200.000	0.057	-0.270
-718.791	-13.266	0.303	-0.197
-717.777	-49.840	0.100	0.048
-716.762	-151.818	0.142	0.010
-715.748	-145.601	-0.084	-0.008
-714.733	800.000	0.047	-0.175
-713.718	-76.834	-0.174	-0.061
-712.704	61.263	-0.121	-0.120
-711.689	234.047	0.094	-0.156
-710.675	-57.208	0.209	0.092
-709.660	-200.000	0.002	-0.073
-708.645	52.064	0.248	0.237
-707.631	-200.000	-0.047	-0.365
-706.616	-24.557	-0.272	-0.163
-705.602	800.000	-0.077	0.249
-704.587	153.746	-0.042	0.057
-703.572	-172.760	0.132	0.004
-702.558	-200.000	-0.008	0.109
-701.543	292.097	0.013	-0.024
-700.529	-7.056	-0.062	0.042
-699.514	-90.089	0.173	-0.051
-698.499	-200.000	0.068	-0.385
-697.485	-20.701	-0.185	0.114
-696.470	-114.334	-0.231	-0.045
-695.456	-111.245	-0.176	-0.036
-694.441	100.772	0.070	0.082
-693.426	-200.000	0.006	0.040
-692.412	-31.803	-0.136	0.076
-691.397	-200.000	0.047	0.296
-690.383	-47.671	0.089	0.043
-689.368	-103.833	-0.129	-0.030
-688.354	74.957	-0.137	0.144
-687.339	800.000	-0.089	0.289
-686.324	-200.000	-0.006	-0.216
-685.310	65.843	0.209	-0.212
-684.295	110.019	0.074	0.089
-683.281	306.630	0.175	0.326
-682.266	-173.830	0.038	-0.001
-681.251	800.000	-0.085	-0.253
-680.237	51.964	-0.044	0.042
-679.222	64.425	-0.203	-0.205
-678.208	-93.688	-0.411	-0.114
-677.193	268.829	0.218	-0.384
-676.178	284.548	-0.139	-0.251
-675.164	213.979	0.132	0.209
-674.149	-200.000	0.016	0.146
-673.135	165.458	0.044	0.063
-672.120	-24.585	-0.253	0.151
-671.105	-10.766	0.209	0.138
-670.091	261.085	0.200	-0.347
-669.076	420.808	-0.130	0.280
-668.062	119.369	-0.104	-0.128
-667.047	-126.379	0.098	0.015
-666.032	201.355	0.182	0.281
-665.018	-200.000	0.050	-0.263
-664.003	-200.000	0.070	-0.527
-662.989	-200.000	0.012	-0.168
-661.974	800.000	-0.099	0.398
-660.959	-0.547	-0.267	-0.190
-659.945	153.064	-0.083	-0.114
-658.930	-200.000	0.003	0.056
-657.916	112.552	0.246	-0.298
-656.901	270.217	-0.229	-0.402
-655.886	442.306	0.058	-0.127
-654.872	124.657	-0.079	-0.099
-653.857	-179.253	-0.177	0.004
-652.843	299.943	-0.204	-0.376
-651.828	91.231	-0.058	-0.065
-650.814	-200.000	-0.004	0.072
-649.799	53.025	0.179	0.172
-648.784	-200.000	-0.017	-0.527
-647.770	4.634	-0.071	0.052
-646.755	246.594	0.021	0.036
-645.741	-200.000	0.016	0.095
-644.726	-57.668	0.184	-0.081
-643.711	-73.347	-0.328	-0.120
-642.697	-42.223	0.295	0.151
-641.682	689.358	-0.032	0.085
-640.668	-87.394	-0.122	0.037
-639.653	-40.820	0.296	-0.153
-638.638	-69.016	-0.182	-0.070
-637.624	-200.000	-0.039	0.235
-636.609	13.427	-0.296	-0.230
-635.595	36.989	-0.211	-0.187
-634.580	800.000	-0.029	0.102
-633.565	-3.608	0.122	-0.085
-632.551	-104.582	-0.260	-0.060
-631.536	83.869	0.123	-0.135
-630.522	-200.000	0.061	0.317
-629.507	-165.505	0.124	0.005
-628.492	-112.137	0.285	0.057
-627.478	4.099	-0.177	0.130
-626.463	800.000	0.072	-0.267
-625.449	800.000	0.061	-0.202
-624.434	800.000	-0.159	0.464
-623.419	-200.000	-0.017	-0.243
-622.405	800.000	-0.095	-0.284
-621.390	-200.000	-0.000	-0.101
-620.376	193.392	-0.149	-0.225
-619.361	800.000	0.070	-0.251
-618.346	85.804	-0.160	0.176
-617.332	-118.226	-0.107	-0.019
-616.317	-85.356	0.216	-0.067
-615.303	-200.000	-0.002	-0.115
-614.288	-200.000	0.019	-0.139
-613.273	-52.106	-0.243	0.113
-612.259	-50.898	0.301	-0.141
-611.244	-66.601	-0.329	0.130
-610.230	37.429	-0.311	-0.276
-609.215	800.000	-0.096	0.375
-608.201	-200.000	0.016	-0.131
-607.186	-200.000	0.001	-0.039
-606.171	-24.869	-0.062	-0.036
-605.157	-200.000	0.007	-0.109
-604.142	150.879	-0.042	-0.057
-603.128	-161.208	0.284	-0.015
-602.113	-67.327	0.025	-0.010
-601.098	336.146	0.160	-0.310
-600.084	134.849	-0.059	0.077
-599.069	800.000	0.028	-0.093
-598.055	-125.389	-0.126	0.019
-597.040	-113.089	-0.475	0.094
-596.025	-200.000	0.050	0.401
-595.011	-92.436	0.183	0.051
-593.996	139.886	0.096	-0.126
-592.982	-161.937	0.471	0.024
-591.967	-4.524	-0.146	0.101
-590.952	-200.000	-0.062	-0.272
-589.938	169.103	0.053	-0.075
-588.923	122.479	-0.055	0.069
-587.909	3.598	-0.306	0.223
-586.894	-200.000	0.007	-0.101
-585.879	-146.373	-0.107	-0.009
-584.865	-200.000	-0.001	0.241
-583.850	717.550	0.019	-0.050
-582.836	230.306	0.022	-0.036
-581.821	-93.566	-0.152	-0.042
-580.806	-200.000	0.042	0.218
-579.792	124.310	0.115	0.144
-578.777	-123.609	-0.095	-0.015
-577.763	-200.000	-0.018	0.139
-576.748	-200.000	0.021	0.121
-575.733	33.528	-0.125	-0.108
-574.719	800.000	-0.040	-0.153
-573.704	1.126	-0.055	-0.039
-572.690	-130.931	0.146	-0.020
-571.675	-200.000	0.089	0.408
-570.661	297.778	-0.166	-0.304
-569.646	14.777	0.174	0.136
-568.631	800.000	-0.005	0.017
-567.617	-200.000	-0.001	-0.235
-566.602	23.246	-0.226	-0.185
-565.588	-155.319	0.325	-0.021
-564.573	352.715	0.067	-0.133
-563.558	-89.630	-0.308	0.090
-562.544	329.784	-0.054	-0.103
-561.529	-78.759	0.168	-0.057
-560.515	-188.733	-0.103	0.001
-559.500	151.226	0.052	0.071
-558.485	-49.226	-0.009	0.004
-557.471	800.000	-0.071	-0.211
-556.456	196.679	0.143	-0.218
-555.442	219.468	-0.128	-0.205
-554.427	800.000	-0.037	0.119
-553.412	245.060	-0.154	0.258
-552.398	-200.000	-0.014	-0.077
-551.383	800.000	-0.027	-0.104
-550.369	-80.370	-0.079	0.026
-549.354	259.548	0.110	-0.190
-548.339	-200.000	-0.050	-0.301
-547.325	-200.000	-0.002	-0.047
-546.310	-105.220	0.174	0.040
-545.296	-154.248	-0.307	-0.021
-544.281	-110.157	-0.290	-0.060
-543.266	81.703	-0.184	0.199
-542.252	713.805	0.070	0.184
-541.237	-70.137	0.210	0.080
-540.223	-54.165	0.502	-0.228
-539.208	139.535	-0.174	0.229
-538.193	-161.825	-0.268	0.014
-537.179	287.345	0.146	0.264
-536.164	-1.823	0.166	0.116
-535.150	-14.745	-0.479	-0.306
-534.135	707.767	0.060	0.157
-533.121	-200.000	-0.003	0.145
-532.106	-122.417	-0.279	0.045
-531.091	-16.708	0.166	0.104
-530.077	-149.874	0.241	0.019
-529.062	-153.680	0.364	-0.025
-528.048	581.324	0.022	-0.053
-527.033	-119.563	0.261	0.045
-526.018	-200.000	-0.006	-0.083
-525.004	-65.526	0.140	0.056
-523.989	199.182	-0.035	-0.053
-522.975	-200.000	0.008	0.231
-521.960	-184.914	0.061	0.001
-520.945	-200.000	0.018	0.311
-519.931	-148.709	-0.129	0.010
-518.916	-3.575	0.176	0.122
-517.902	-63.474	0.007	0.003
-516.887	-200.000	-0.050	-0.275
-515.872	-200.000	-0.004	-0.326
-514.858	800.000	-0.073	-0.258
-513.843	-63.686	-0.537	-0.219
-512.829	52.754	0.321	0.305
-511.814	-40.659	-0.247	0.128
-510.799	254.867	-0.098	-0.166
-509.785	30.030	-0.218	0.185
-508.770	85.459	-0.269	0.294
-507.756	45.337	-0.108	0.099
-506.741	666.072	-0.054	-0.140
-505.726	3.820	-0.179	0.130
-504.712	-85.602	0.361	0.112
-503.697	-200.000	0.032	-0.268
-502.683	289.560	0.079	-0.143
-501.668	-200.000	-0.017	-0.303
-500.653	602.312	-0.064	-0.158
-499.639	517.519	0.071	0.166
-498.624	-200.000	0.008	0.130
-497.610	330.353	0.191	0.365
-496.595	171.992	-0.215	0.307
-495.581	-200.000	0.037	0.272
-494.566	719.271	-0.082	0.218
-493.551	-150.250	-0.059	-0.005
-492.537	800.000	0.026	0.099
-491.522	-77.585	0.205	0.071
-490.508	-64.774	-0.165	-0.067
-489.493	-200.000	-0.024	0.134
-488.478	800.000	0.045	-0.159
-487.464	-88.308	-0.167	-0.050
-486.449	-139.000	0.479	-0.052
-485.435	-159.944	0.119	0.006
-484.420	-200.000	0.009	0.179
-483.405	-76.628	0.138	-0.048
-482.391	-30.355	0.117	-0.066
-481.376	-0.804	-0.107	-0.075
-480.362	408.857	-0.096	-0.201
-479.347	448.182	0.131	-0.287
-478.332	-70.148	0.341	-0.129
-477.318	224.852	-0.082	0.131
-476.303	-121.941	0.079	-0.013
-475.289	-136.678	0.131	-0.015
-474.274	-200.000	0.034	-0.359
-473.259	797.540	-0.006	0.016
-472.245	452.523	0.049	-0.108
-471.230	117.784	0.018	-0.022
-470.216	14.882	0.129	-0.100
-469.201	-35.887	0.086	0.046
-468.186	-83.812	0.147	-0.046
-467.172	-4.170	-0.118	-0.081
-466.157	342.043	-0.105	0.203
-465.143	-2.778	-0.319	0.221
-464.128	-58.618	0.414	0.178
-463.113	-200.000	-0.011	-0.126
-462.099	-53.645	-0.159	-0.072
-461.084	66.406	-0.009	0.010
-460.070	48.747	0.212	-0.197
-459.055	-53.861	0.199	0.090
-458.040	-126.613	-0.355	0.052
-457.026	134.690	-0.072	-0.093
-456.011	-200.000	-0.013	0.167
-454.997	530.303	-0.069	-0.162
-453.982	-97.242	0.149	-0.039
-452.968	797.567	-0.024	0.065
-451.953	743.437	-0.111	0.296
-450.938	-41.609	-0.107	-0.055
-449.924	-200.000	0.006	-0.073
-448.909	578.014	-0.099	-0.241
-447.895	-155.495	0.243	-0.016
-446.880	-162.642	-0.290	-0.014
-445.865	-88.319	-0.253	-0.075
-444.851	-200.000	-0.019	0.086
-443.836	-71.080	-0.215	0.080
-442.822	-97.860	0.197	0.050
-441.807	222.400	-0.120	0.192
-440.792	84.505	-0.183	-0.199
-439.778	-84.797	-0.484	0.151
-438.763	-87.239	0.142	-0.043
-437.749	-200.000	0.003	0.019
-436.734	36.826	-0.251	-0.220
-435.719	-13.800	-0.234	0.150
-434.705	-148.281	-0.132	-0.011
-433.690	24.280	-0.161	0.132
-432.676	407.623	-0.126	-0.265
-431.661	32.428	0.295	-0.253
-430.646	-127.064	0.055	0.008
-429.632	-57.988	0.208	0.090
-428.617	800.000	0.026	-0.083
-427.603	-198.895	-0.085	-0.000
-426.588	-36.854	-0.286	0.152
-425.573	800.000	0.009	-0.026
-424.559	-139.545	0.391	-0.041
-423.544	16.143	-0.156	-0.122
-422.530	-116.268	-0.308	0.057
-421.515	183.493	0.169	0.247
-420.500	26.921	-0.171	0.142
-419.486	-16.055	-0.067	0.043
-418.471	-44.095	0.205	0.102
-417.457	722.119	0.011	-0.029
-416.442	139.946	-0.113	0.148
-415.428	-107.425	-0.247	0.054
-414.413	-200.000	0.006	-0.147
-413.398	-200.000	-0.015	-0.254
-412.384	800.000	-0.052	-0.189
-411.369	-7.462	-0.063	-0.042
-410.355	-118.088	0.196	-0.035
-409.340	43.781	0.156	-0.142
-408.325	-200.000	-0.056	0.317
-407.311	-133.314	0.483	-0.060
-406.296	-67.754	0.046	0.018
-405.282	-22.919	-0.269	0.161
-404.267	-100.680	0.125	0.030
-403.252	-200.000	0.030	0.176
-402.238	18.199	0.226	-0.179
-401.223	170.178	0.041	-0.059
-400.209	-109.927	0.357	0.074
-399.194	81.988	0.054	-0.058
-398.179	-58.238	-0.181	0.078
-397.165	-200.000	-0.071	-0.418
-396.150	-101.797	0.255	-0.061
-395.136	480.126	0.029	0.065
-394.121	60.663	-0.252	0.248
-393.106	-200.000	0.044	0.311
-392.092	-155.944	0.213	0.013
-391.077	4.597	-0.212	0.154
-390.063	-200.000	0.007	-0.252
-389.048	-2.512	-0.254	-0.176
-388.033	676.276	0.071	-0.183
-387.019	39.224	-0.035	0.031
-386.004	266.701	-0.044	0.077
-384.990	-200.000	0.020	-0.288
-383.975	-52.529	0.296	-0.136
-382.960	209.006	-0.076	0.119
-381.946	72.810	0.166	0.171
-380.931	58.715	0.101	0.099
-379.917	-156.471	-0.184	0.011
-378.902	149.374	-0.175	-0.234
-377.888	102.171	0.162	-0.187
-376.873	-200.000	0.021	-0.207
-375.858	214.689	0.269	0.422
-374.844	367.963	-0.054	0.108
-373.829	-55.323	0.045	0.020
-372.815	-143.864	-0.200	-0.019
-371.800	39.326	0.149	0.132
-370.785	-68.416	0.139	0.053
-369.771	-2.397	0.055	-0.038
-368.756	-200.000	-0.025	0.123
-367.742	-200.000	-0.013	0.059
-366.727	163.498	-0.068	0.095
-365.712	144.208	0.045	0.059
-364.698	17.390	0.370	-0.291
-363.683	15.108	0.101	-0.078
-362.669	800.000	-0.022	-0.064
-361.654	675.112	0.117	0.300
-360.639	106.814	0.073	0.085
-359.625	108.077	0.087	0.102
-358.610	-143.594	0.155	-0.015
-357.596	53.788	0.311	0.296
-356.581	183.851	-0.094	0.137
-355.566	-55.895	0.012	-0.005
-354.552	0.251	0.292	0.206
-353.537	-102.157	0.284	-0.068
-352.523	-200.000	-0.012	-0.129
-351.508	-95.591	-0.481	-0.127
-350.493	771.732	-0.136	0.368
-349.479	205.583	-0.188	0.289
-348.464	-200.000	0.013	-0.162
-347.450	-145.691	0.207	-0.018
-346.435	-128.753	-0.072	0.010
-345.420	-200.000	0.014	0.136
-344.406	77.081	0.156	0.164
-343.391	-21.192	0.156	0.094
-342.377	-24.769	0.016	0.009
-341.362	-43.912	0.241	0.120
-340.348	-200.000	0.007	-0.078
-339.333	-173.758	0.123	0.004
-338.318	-200.000	0.002	0.121
-337.304	-169.250	0.424	0.015
-336.289	-72.303	-0.156	-0.057
-335.275	438.256	0.172	-0.371
-334.260	115.227	0.095	0.114
-333.245	172.639	-0.349	0.496
-332.231	-87.030	-0.185	0.056
-331.216	78.464	-0.370	-0.391
-330.202	106.058	-0.201	0.235
-329.187	-111.136	-0.243	-0.049
-328.172	65.201	0.090	0.090
-327.158	800.000	0.046	0.126
-326.143	-200.000	-0.017	0.181
-325.129	-139.520	-0.168	0.018
-324.114	47.602	0.238	0.220
-323.099	-28.374	-0.099	0.057
-322.085	-200.000	0.034	0.225
-321.070	423.815	0.126	-0.268
-320.056	800.000	0.053	0.150
-319.041	800.000	0.055	-0.180
-318.026	286.707	0.081	-0.144
-317.012	420.925	-0.089	0.188
-315.997	56.273	-0.161	-0.155
-314.983	657.466	0.084	-0.213
-313.968	-200.000	0.002	-0.319
-312.953	-200.000	0.024	-0.189
-311.939	-200.000	-0.009	0.183
-310.924	-142.872	0.390	-0.037
-309.910	-80.529	0.117	0.038
-308.895	-29.327	-0.266	0.150
-307.880	82.546	-0.051	0.055
-306.866	-31.602	0.145	-0.080
-305.851	-200.000	-0.006	-0.138
-304.837	23.169	0.190	-0.154
-303.822	800.000	0.097	-0.408
-302.807	214.309	-0.038	0.059
-301.793	115.467	0.233	0.281
-300.778	-159.325	-0.251	0.014
-299.764	764.021	-0.066	0.178
-298.749	86.839	-0.149	0.162
-297.735	-156.706	0.119	0.007
-296.720	-200.000	0.009	0.183
-295.705	-200.000	-0.021	-0.399
-294.691	269.339	-0.142	-0.247
-293.676	-185.354	-0.116	0.002
-292.662	-123.843	-0.052	-0.008
-291.647	439.714	0.017	-0.036
-290.632	80.106	-0.120	0.127
-289.618	800.000	-0.071	-0.273
-288.603	800.000	0.118	-0.392
-287.589	94.416	0.127	-0.143
-286.574	-200.000	0.054	0.335
-285.559	40.806	0.095	0.085
-284.545	800.000	0.105	-0.412
-283.530	220.926	0.126	-0.199
-282.516	162.380	-0.041	0.057
-281.501	492.538	0.071	-0.160
-280.486	-129.452	0.272	-0.037
-279.472	800.000	0.051	0.219
-278.457	800.000	-0.052	0.143
-277.443	-68.308	0.088	0.034
-276.428	-99.034	0.438	0.110
-275.413	50.012	0.142	0.133
-274.399	54.777	-0.038	0.036
-273.384	-41.868	0.110	0.055
-272.370	800.000	-0.067	0.205
-271.355	-196.206	-0.501	-0.003
-270.340	-87.764	0.327	0.097
-269.326	76.747	-0.209	-0.218
-268.311	-46.066	0.361	0.175
-267.297	-71.016	0.079	0.029
-266.282	27.428	0.087	0.072
-265.267	54.569	0.259	-0.246
-264.253	-104.298	0.169	-0.039
-263.238	-28.160	-0.092	-0.052
-262.224	-74.065	0.160	-0.057
-261.209	-109.949	-0.235	-0.049
-260.195	1.652	-0.029	0.021
-259.180	41.209	-0.165	0.147
-258.165	-62.903	-0.433	-0.177
-257.151	-74.760	0.214	-0.076
-256.136	236.258	0.065	0.106
-255.122	92.287	-0.193	0.214
-254.107	62.590	0.147	0.144
-253.092	-82.718	-0.067	-0.021
-252.078	-189.897	-0.060	-0.001
-251.063	-200.000	0.015	0.111
-250.049	-109.171	-0.238	-0.050
-249.034	-67.376	-0.305	0.118
-248.019	-200.000	0.015	-0.303
-247.005	35.907	-0.231	-0.201
-245.990	-175.477	0.097	0.003
-244.976	-69.523	-0.170	-0.064
-243.961	-185.102	-0.399	0.006
-242.946	29.199	0.175	0.147
-241.932	187.054	-0.176	-0.258
-240.917	-88.130	0.237	-0.070
-239.903	-200.000	0.009	-0.180
-238.888	109.012	0.057	-0.067
-237.873	-51.776	0.186	0.085
-236.859	-148.543	0.033	0.003
-235.844	114.239	-0.151	0.181
-234.830	410.359	0.070	-0.146
-233.815	800.000	-0.065	-0.242
-232.800	-64.992	-0.139	0.055
-231.786	-200.000	0.043	0.316
-230.771	16.097	-0.230	0.179
-229.757	10.222	0.200	0.150
-228.742	-1.795	0.030	0.021
-227.727	-69.259	0.154	0.058
-226.713	-136.972	0.180	0.020
-225.698	-175.726	-0.154	0.004
-224.684	-200.000	-0.071	-0.365
-223.669	-200.000	0.030	0.321
-222.655	-94.658	-0.147	-0.039
-221.640	-36.250	0.193	-0.103
-220.625	-157.518	0.151	-0.009
-219.611	-137.613	-0.169	0.019
-218.596	158.724	0.093	0.127
-217.582	-16.408	-0.183	-0.114
-216.567	-200.000	-0.018	-0.131
-215.552	-125.723	-0.281	0.042
-214.538	-6.275	-0.187	0.126
-213.523	245.902	0.089	-0.148
-212.509	-54.917	-0.249	-0.110
-211.494	-102.307	0.220	-0.052
-210.479	195.922	0.309	-0.463
-209.465	86.483	-0.155	0.168
-208.450	-89.335	-0.106	0.031
-207.436	-200.000	-0.030	0.166
-206.421	-90.203	0.106	-0.030
-205.406	800.000	-0.100	0.399
-204.392	-87.667	-0.094	0.028
-203.377	330.032	-0.050	0.095
-202.363	-200.000	0.029	-0.232
-201.348	-71.256	-0.229	0.085
-200.333	-200.000	-0.012	0.121
-199.319	-18.494	0.363	0.223
-198.304	-6.429	-0.141	0.095
-197.290	103.366	-0.047	-0.054
-196.275	88.433	0.043	-0.047
-195.260	189.625	0.207	0.305
-194.246	74.387	0.109	0.113
-193.231	-200.000	-0.047	0.258
-192.217	-96.410	0.145	0.038
-191.202	-102.044	-0.097	-0.023
-190.187	-200.000	0.001	0.049
-189.173	192.482	-0.086	-0.128
-188.158	79.628	0.045	-0.048
-187.144	-109.660	-0.246	0.051
-186.129	-11.225	0.090	-0.058
-185.114	31.058	-0.125	0.105
-184.100	105.094	0.154	0.178
-183.085	-200.000	-0.002	0.134
-182.071	-100.257	0.075	0.018
-181.056	800.000	0.053	0.158
-180.042	-42.926	-0.176	-0.088
-179.027	-200.000	-0.004	-0.085
-178.012	688.092	0.055	-0.141
-176.998	-101.132	0.103	-0.025
-175.983	800.000	0.022	-0.066
-174.969	-28.706	-0.349	-0.197
-173.954	-101.790	-0.234	-0.056
-172.939	-74.548	-0.054	0.019
-171.925	-200.000	0.021	-0.237
-170.910	-99.015	0.093	0.023
-169.896	221.148	0.161	0.253
-168.881	-15.580	-0.140	-0.088
-167.866	800.000	0.087	0.327
-166.852	-35.894	0.215	0.115
-165.837	-43.024	0.169	-0.084
-164.823	-18.976	0.315	-0.192
-163.808	618.456	-0.052	-0.129
-162.793	-54.232	-0.183	-0.081
-161.779	259.236	0.093	0.158
-160.764	131.601	-0.071	-0.090
-159.750	285.155	-0.117	-0.206
-158.735	800.000	0.101	-0.417
-157.720	-200.000	0.006	-0.104
-156.706	-145.928	-0.214	-0.019
-155.691	529.742	0.042	0.098
-154.677	-200.000	-0.079	0.376
-153.662	83.900	-0.172	-0.185
-152.647	-200.000	-0.018	-0.198
-151.633	-17.724	0.247	0.152
-150.618	236.462	0.080	-0.130
-149.604	-118.513	0.304	-0.053
-148.589	122.216	0.170	0.209
-147.574	-200.000	0.046	0.201
-146.560	-162.436	-0.200	-0.010
-145.545	64.707	-0.144	-0.143
-144.531	-53.461	-0.134	0.060
-143.516	-158.370	0.146	-0.008
-142.502	-200.000	0.003	-0.021
-141.487	-150.680	0.404	0.030
-140.472	653.353	0.071	0.180
-139.458	-47.211	0.083	0.040
-138.443	58.665	0.068	-0.065
-137.429	178.123	-0.156	0.223
-136.414	-5.874	0.012	0.008
-135.399	-200.000	0.001	-0.127
-134.385	596.600	0.083	0.202
-133.370	318.234	0.283	0.525
-132.356	-152.011	-0.206	-0.015
-131.341	800.000	0.057	0.184
-130.326	-40.429	-0.148	-0.075
-129.312	14.504	-0.156	-0.120
-128.297	152.580	-0.199	-0.267
-127.283	-76.143	0.274	0.095
-126.268	-67.710	0.184	0.071
-125.253	-135.405	-0.110	-0.013
-124.239	219.393	0.117	-0.183
-123.224	-200.000	0.000	0.138
-122.210	450.662	-0.090	-0.194
-121.195	347.535	-0.053	-0.102
-120.180	-70.859	0.224	0.083
-119.166	-164.396	0.499	0.022
-118.151	-9.922	-0.097	0.063
-117.137	54.635	0.038	-0.036
-116.122	1.733	0.320	-0.226
-115.107	-134.836	-0.276	-0.033
-114.093	237.954	0.139	-0.227
-113.078	800.000	-0.016	-0.062
-112.064	-113.934	0.256	0.049
-111.049	-91.786	0.071	0.020
-110.034	29.304	-0.037	-0.030
-109.020	53.481	-0.125	-0.118
-108.005	35.831	0.133	0.114
-106.991	-200.000	-0.008	0.175
-105.976	-106.484	-0.177	-0.039
-104.962	-200.000	-0.008	-0.116
-103.947	-200.000	-0.004	-0.159
-102.932	-122.670	-0.273	0.043
-101.918	85.915	0.082	-0.089
-100.903	-95.997	-0.298	-0.078
-99.889	194.712	0.243	-0.361
-98.874	-108.643	-0.277	-0.058
-97.859	53.289	0.140	-0.131
-96.845	62.466	-0.101	-0.099
-95.830	-154.237	-0.093	-0.006
-94.816	456.417	0.096	-0.208
-93.801	-142.179	0.276	-0.027
-92.786	72.491	-0.029	0.030
-91.772	-200.000	0.055	-0.249
-90.757	192.799	-0.070	0.103
-89.743	-200.000	-0.008	-0.131
-88.728	-51.809	-0.096	0.044
-87.713	-200.000	-0.085	0.515
-86.699	-200.000	0.004	0.367
-85.684	83.406	0.134	0.143
-84.670	-19.789	-0.252	-0.152
-83.655	800.000	-0.076	0.207
-82.640	40.813	-0.235	0.207
-81.626	79.521	0.177	0.186
-80.611	-156.299	0.321	0.020
-79.597	365.063	-0.063	0.124
-78.582	-88.337	0.085	0.025
-77.567	-200.000	-0.005	0.174
-76.553	8.557	0.108	0.079
-75.538	-4.358	-0.247	0.167
-74.524	-133.717	-0.024	-0.003
-73.509	195.009	-0.218	-0.325
-72.494	112.443	-0.106	0.126
-71.480	-127.164	-0.410	0.059
-70.465	-102.757	0.127	0.029
-69.451	-13.361	0.219	0.139
-68.436	725.603	0.127	-0.330
-67.422	19.069	0.169	-0.133
-66.407	314.534	-0.072	-0.133
-65.392	311.119	-0.031	0.058
-64.378	-200.000	-0.036	-0.283
-63.363	50.773	-0.273	0.253
-62.349	-127.174	0.274	0.039
-61.334	100.380	-0.904	-1.026
-60.319	-34.700	0.701	0.375
-59.305	800.000	-0.369	-1.194
-58.290	800.000	0.412	1.120
-57.276	559.026	0.668	1.578
-56.261	-200.000	114.977	662.894
-55.246	546.071	1526.195	3569.066
-54.232	176.785	2703.031	3844.766
-53.217	103.566	2289.824	2628.512
-52.203	36.756	1895.883	1638.237
-51.188	30.694	1685.007	1410.179
-50.173	28.039	1643.024	1355.340
-49.159	50.301	1699.351	1570.059
-48.144	48.817	1713.102	1571.554
-47.130	30.217	1670.740	1394.437
-46.115	27.514	1656.100	1361.985
-45.100	27.346	1651.349	1356.774
-44.086	27.237	1648.930	1353.918
-43.071	27.234	1645.943	1351.388
-42.057	27.245	1643.428	1349.356
-41.042	27.201	1641.781	1347.624
-40.027	27.299	1639.878	1346.732
-39.013	27.220	1637.689	1344.300
-37.998	27.199	1636.164	1342.835
-36.984	27.353	1634.838	1342.834
-35.969	27.433	1633.265	1342.077
-34.954	27.327	1632.085	1340.274
-33.940	27.374	1630.082	1338.921
-32.925	27.315	1628.064	1336.773
-31.911	27.421	1626.634	1336.326
-30.896	27.365	1624.547	1334.152
-29.881	27.296	1623.149	1332.441
-28.867	27.422	1620.927	1331.487
-27.852	27.315	1620.146	1330.011
-26.838	27.362	1617.759	1328.343
-25.823	27.412	1616.879	1327.927
-24.809	27.432	1616.063	1327.353
-23.794	27.324	1614.444	1325.182
-22.779	27.377	1613.064	1324.384
-21.765	27.375	1611.245	1322.823
-20.750	27.308	1609.807	1321.107
-19.736	27.310	1608.542	1320.029
-18.721	27.389	1606.761	1319.087
-17.706	27.424	1605.148	1317.966
-16.692	27.401	1603.892	1316.715
-15.677	27.392	1603.063	1315.918
-14.663	27.564	1600.765	1315.218
-13.648	27.426	1599.607	1313.220
-12.633	27.422	1598.301	1312.066
-11.619	27.426	1596.909	1310.900
-10.604	27.377	1595.263	1309.144
-9.590	27.479	1594.130	1308.895
-8.575	27.474	1592.859	1307.768
-7.560	27.434	1591.480	1306.293
-6.546	27.460	1590.395	1305.540
-5.531	27.388	1589.618	1304.332
-4.517	27.441	1588.475	1303.722
-3.502	27.394	1587.315	1302.380
-2.487	27.477	1585.718	1301.617
-1.473	27.051	1573.939	1288.868
-0.458	24.258	1553.982	1252.880
0.556	22.646	1555.982	1221.354
1.571	20.375	1578.616	1223.031
2.586	19.725	1591.204	1228.062
3.600	17.843	1537.697	1173.725
4.615	11.173	1431.780	1049.928
5.629	5.174	1371.450	968.474
6.644	4.066	1364.162	956.405
7.659	4.044	1362.952	955.337
8.673	4.100	1362.120	955.010
9.688	4.169	1360.055	953.907
10.702	4.130	1357.204	951.580
11.717	7.037	1362.350	973.001
12.731	14.671	1376.665	1030.426
13.746	21.287	1387.533	1079.484
14.761	23.094	1389.598	1092.167
15.775	22.543	1387.646	1087.136
16.790	21.681	1385.231	1079.837
17.804	20.962	1383.189	1073.725
18.819	20.713	1382.066	1071.228
19.834	20.787	1380.736	1070.556
20.848	20.581	1380.366	1068.905
21.863	20.561	1378.978	1067.612
22.877	20.344	1378.258	1065.632
23.892	20.353	1377.140	1064.727
24.907	20.192	1376.309	1063.004
25.921	20.318	1375.223	1062.845
26.936	20.290	1374.482	1062.003
27.950	20.348	1373.583	1061.570
28.965	20.402	1372.479	1060.952
29.980	20.612	1371.701	1061.538
30.994	20.755	1370.630	1061.490
32.009	20.822	1369.735	1061.112
33.023	20.679	1368.795	1059.415
34.038	20.459	1367.485	1056.973
35.053	20.544	1366.065	1056.299
36.067	20.524	1364.645	1054.981
37.082	20.484	1364.045	1054.186
38.096	20.604	1363.194	1054.158
39.111	20.542	1362.491	1053.150
40.126	20.406	1361.551	1051.508
41.140	20.188	1359.794	1048.736
42.155	19.910	1359.735	1046.920
43.169	19.871	1359.104	1046.100
44.184	19.953	1358.878	1046.332
45.199	20.006	1359.026	1046.672
46.213	20.283	1358.507	1047.857
47.228	20.446	1357.506	1047.973
48.242	20.389	1356.834	1047.018
49.257	20.367	1355.046	1045.415
50.271	20.420	1353.503	1044.446
51.286	20.424	1352.396	1043.528
52.301	20.347	1351.320	1042.143
53.315	20.277	1349.993	1040.609
54.330	20.143	1348.534	1038.587
55.344	20.086	1347.467	1037.334
56.359	19.984	1346.736	1036.064
57.374	19.923	1345.711	1034.823
58.388	19.887	1345.064	1034.016
59.403	19.866	1344.794	1033.591
60.417	19.820	1343.885	1032.528
61.432	19.721	1343.120	1031.257
62.447	19.662	1341.837	1029.830
63.461	19.648	1340.174	1028.382
64.476	19.524	1340.122	1027.510
65.490	19.572	1338.535	1026.491
66.505	19.657	1337.047	1025.762
67.520	19.698	1335.570	1024.783
68.534	19.703	1334.592	1023.971
69.549	19.574	1333.722	1022.450
70.563	19.560	1331.963	1020.927
71.578	19.471	1330.861	1019.465
72.593	19.417	1329.749	1018.203
73.607	19.349	1329.491	1017.518
74.622	19.389	1328.764	1017.104
75.636	19.439	1327.968	1016.700
76.651	19.580	1327.360	1016.977
77.666	19.617	1327.020	1016.840
78.680	19.632	1327.049	1016.866
79.695	19.682	1326.167	1016.390
80.709	19.890	1325.806	1017.248
81.724	20.063	1324.644	1017.282
82.739	20.120	1324.531	1017.440
83.753	20.356	1323.402	1017.865
84.768	20.502	1322.793	1018.161
85.782	20.644	1321.707	1018.066
86.797	20.545	1320.986	1016.846
87.812	20.451	1319.573	1015.116
88.826	20.381	1318.713	1013.960
89.841	20.566	1317.239	1013.812
90.855	20.651	1316.033	1013.290
91.870	20.572	1315.933	1012.663
92.884	20.697	1314.395	1012.116
93.899	20.683	1314.433	1011.976
94.914	20.661	1313.637	1011.145
95.928	20.724	1312.592	1010.616
96.943	20.655	1311.323	1009.151
97.957	20.604	1310.605	1008.215
98.972	20.565	1309.517	1007.059
99.987	20.665	1308.682	1006.911
101.001	20.581	1307.534	1005.451
102.016	20.637	1306.270	1004.714
103.030	20.526	1305.742	1003.575
104.045	20.539	1304.951	1002.955
105.060	20.360	1303.722	1000.888
106.074	20.023	1301.705	997.311
107.089	19.833	1299.668	994.571
108.103	19.756	1298.331	993.021
109.118	19.609	1297.870	991.737
110.133	19.696	1296.182	990.855
111.147	19.751	1294.754	989.991
112.162	19.638	1293.913	988.616
113.176	19.852	1292.514	988.681
114.191	19.878	1291.934	988.299
115.206	19.877	1291.035	987.514
116.220	19.820	1289.848	986.198
117.235	19.730	1288.593	984.639
118.249	19.656	1287.749	983.484
119.264	19.620	1286.295	982.080
120.279	19.620	1285.103	981.086
121.293	19.508	1283.883	979.430
122.308	19.488	1282.924	978.502
123.322	19.320	1281.816	976.614
124.337	19.321	1280.864	975.808
125.352	19.337	1279.782	974.989
126.366	19.240	1278.938	973.712
127.381	19.254	1277.466	972.584
128.395	19.370	1276.542	972.451
129.410	19.232	1276.226	971.344
130.424	19.481	1275.216	971.894
131.439	19.700	1274.173	972.244
132.454	19.664	1273.470	971.419
133.468	19.727	1272.798	971.174
134.483	19.713	1272.102	970.481
135.497	19.821	1271.213	970.320
136.512	19.795	1270.280	969.377
137.527	19.755	1269.010	968.096
138.541	19.936	1267.707	968.028
139.556	19.931	1266.554	967.034
140.570	20.120	1265.324	967.069
141.585	20.262	1264.188	966.905
142.600	20.403	1263.472	967.055
143.614	20.476	1262.814	966.873
144.629	20.524	1261.657	966.168
145.643	20.547	1260.809	965.561
146.658	20.198	1259.296	962.379
147.673	20.104	1257.887	960.697
148.687	20.095	1256.316	959.363
149.702	19.941	1255.015	957.433
150.716	19.833	1253.490	955.591
151.731	19.763	1252.484	954.348
152.746	19.787	1251.432	953.597
153.760	19.913	1250.357	953.390
154.775	20.004	1249.523	953.167
155.789	20.077	1248.991	953.083
156.804	20.095	1247.828	952.209
157.819	20.233	1246.556	951.908
158.833	20.337	1245.965	951.945
159.848	20.446	1245.650	952.216
160.862	20.559	1244.233	951.669
161.877	20.081	1243.045	948.060
162.892	19.794	1241.845	945.493
163.906	19.838	1240.582	944.689
164.921	19.785	1239.854	943.759
165.935	19.916	1239.017	943.753
166.950	20.078	1238.676	944.293
167.964	20.137	1237.350	943.520
168.979	19.960	1237.173	942.341
169.994	19.990	1236.421	941.846
171.008	19.989	1235.437	941.008
172.023	20.137	1235.183	941.533
173.037	20.428	1234.465	942.485
174.052	20.366	1233.567	941.379
175.067	19.988	1231.951	938.014
176.081	19.798	1230.688	935.940
177.096	19.712	1230.388	935.168
178.110	19.933	1228.747	935.028
179.125	19.952	1227.705	934.255
180.140	20.080	1226.889	934.242
181.154	20.244	1226.282	934.582
182.169	20.283	1225.155	933.850
183.183	20.434	1223.862	933.595
184.198	20.448	1223.090	932.997
185.213	20.429	1221.963	931.955
186.227	20.421	1220.793	930.937
187.242	20.579	1219.971	931.074
188.256	20.729	1218.963	931.026
189.271	20.746	1218.213	930.457
190.286	20.530	1216.575	927.970
191.300	20.064	1215.871	924.869
192.315	19.800	1215.509	923.101
193.329	19.841	1214.761	922.671
194.344	19.927	1214.204	922.626
195.359	19.980	1213.493	922.284
196.373	20.105	1213.201	922.645
197.388	20.195	1212.465	922.483
198.402	20.513	1212.326	923.986
199.417	20.674	1212.396	924.812
200.432	20.855	1211.729	925.185
201.446	21.020	1211.196	925.571
202.461	21.027	1210.113	924.698
203.475	21.043	1209.203	924.005
204.490	20.748	1207.587	921.129
205.504	20.428	1206.265	918.346
206.519	20.485	1204.781	917.439
207.534	20.412	1203.856	916.268
208.548	20.404	1202.569	915.164
209.563	20.385	1202.292	914.774
210.577	20.447	1201.167	914.161
211.592	20.558	1200.643	914.267
212.607	20.668	1199.898	914.195
213.621	20.733	1199.512	914.161
214.636	20.771	1197.954	913.091
215.650	20.598	1197.380	911.669
216.665	20.848	1196.661	912.351
217.680	21.061	1195.957	912.844
218.694	21.063	1195.177	912.182
219.709	21.085	1194.124	911.413
220.723	20.920	1193.150	909.726
221.738	21.025	1192.547	909.732
222.753	20.816	1192.005	908.149
223.767	20.745	1191.403	907.241
224.782	21.047	1190.822	908.290
225.796	21.203	1190.314	908.634
226.811	21.043	1189.578	907.159
227.826	20.852	1188.623	905.358
228.840	20.858	1187.357	904.345
229.855	20.706	1187.019	903.223
230.869	20.742	1185.874	902.457
231.884	20.664	1185.235	901.484
232.899	20.523	1184.039	899.769
233.913	20.437	1183.194	898.598
234.928	20.391	1182.481	897.742
235.942	20.349	1182.064	897.128
236.957	20.286	1181.278	896.126
237.972	20.350	1180.624	895.882
238.986	20.363	1179.950	895.356
240.001	20.447	1179.030	895.014
241.015	20.477	1178.455	894.651
242.030	20.637	1177.481	894.657
243.045	20.695	1177.084	894.577
244.059	20.655	1176.365	893.744
245.074	20.796	1175.575	893.788
246.088	20.900	1174.715	893.588
247.103	21.060	1174.360	894.057
248.117	21.221	1174.003	894.533
249.132	21.357	1173.159	894.507
250.147	21.638	1173.071	895.800
251.161	21.802	1172.170	895.869
252.176	21.892	1171.218	895.520
253.190	21.972	1171.004	895.684
254.205	21.947	1170.658	895.216
255.220	21.998	1170.050	894.929
256.234	21.895	1169.529	893.926
257.249	21.970	1168.452	893.406
258.263	21.839	1167.902	892.239
259.278	21.705	1167.596	891.245
260.293	21.839	1167.060	891.443
261.307	22.003	1166.422	891.706
262.322	21.981	1165.353	890.701
263.336	22.015	1164.830	890.395
264.351	21.992	1164.601	890.025
265.366	22.043	1164.030	889.767
266.380	21.962	1163.260	888.687
267.395	21.896	1162.137	887.418
268.409	21.736	1161.099	885.739
269.424	21.759	1160.351	885.208
270.439	21.786	1159.741	884.798
271.453	21.700	1158.648	883.454
272.468	21.473	1158.014	881.750
273.482	21.500	1157.058	881.077
274.497	21.439	1156.712	880.428
275.512	21.484	1155.864	879.933
276.526	21.413	1155.541	879.249
277.541	21.524	1154.637	879.045
278.555	21.624	1153.736	878.781
279.570	21.773	1153.789	879.490
280.585	21.992	1152.924	879.853
281.599	22.012	1151.927	879.112
282.614	21.808	1150.606	877.007
283.628	21.745	1149.237	875.571
284.643	21.565	1148.654	874.153
285.657	21.622	1147.440	873.436
286.672	21.650	1146.714	872.942
287.687	21.728	1145.584	872.392
288.701	21.620	1145.166	871.462
289.716	21.715	1144.435	871.301
290.730	21.593	1144.140	870.393
291.745	21.724	1143.366	870.377
292.760	21.844	1142.624	870.333
293.774	21.934	1142.481	870.593
294.789	22.048	1141.829	870.582
295.803	21.908	1141.094	869.254
296.818	21.755	1140.097	867.661
297.833	21.661	1139.095	866.353
298.847	21.631	1138.355	865.564
299.862	21.715	1137.592	865.326
300.876	21.827	1136.778	865.179
301.891	21.983	1136.331	865.535
302.906	22.151	1136.019	866.047
303.920	22.251	1135.385	865.978
304.935	22.311	1134.892	865.822
305.949	22.350	1134.553	865.678
306.964	22.515	1133.555	865.653
307.979	22.276	1132.799	863.822
308.993	22.165	1132.191	862.740
310.008	22.308	1131.171	862.589
311.022	22.195	1131.175	861.961
312.037	22.314	1129.738	861.372
313.052	22.036	1128.790	859.210
314.066	21.772	1127.433	856.814
315.081	21.782	1126.560	856.122
316.095	21.666	1125.237	854.476
317.110	21.717	1124.571	854.144
318.125	21.725	1123.663	853.416
319.139	21.634	1123.227	852.568
320.154	21.793	1122.598	852.787
321.168	21.744	1122.145	852.127
322.183	21.663	1121.654	851.289
323.197	21.848	1120.682	851.375
324.212	21.869	1120.509	851.269
325.227	21.802	1120.174	850.613
326.241	21.762	1119.710	849.992
327.256	21.850	1118.495	849.422
328.270	21.773	1117.521	848.234
329.285	21.773	1116.473	847.364
330.300	21.733	1115.571	846.408
331.314	21.865	1114.370	846.060
332.329	21.774	1113.805	845.115
333.343	21.896	1113.162	845.143
334.358	22.003	1112.374	844.983
335.373	22.170	1111.848	845.316
336.387	22.271	1111.019	845.093
337.402	22.124	1110.818	844.161
338.416	22.242	1110.111	844.115
339.431	22.395	1109.416	844.246
340.446	22.393	1109.030	843.865
341.460	22.664	1108.436	844.640
342.475	22.812	1107.782	844.773
343.489	22.894	1106.319	843.974
344.504	22.986	1105.465	843.687
345.519	22.989	1104.834	843.147
346.533	22.945	1104.535	842.636
347.548	22.973	1103.787	842.124
348.562	23.044	1102.411	841.336
349.577	22.633	1101.671	838.744
350.592	22.402	1100.456	836.646
351.606	22.266	1099.653	835.314
352.621	22.120	1099.016	834.065
353.635	22.092	1098.199	833.239
354.650	22.172	1097.412	832.946
355.665	22.233	1096.720	832.635
356.679	22.323	1096.090	832.510
357.694	22.362	1096.232	832.726
358.708	22.554	1095.320	832.868
359.723	22.589	1094.498	832.334
360.738	22.451	1094.354	831.501
361.752	22.528	1093.822	831.385
362.767	22.508	1092.776	830.426
363.781	22.599	1092.103	830.268
364.796	22.739	1092.191	830.921
365.810	22.971	1091.405	831.342
366.825	23.172	1091.178	832.040
367.840	23.356	1090.553	832.352
368.854	23.420	1090.262	832.358
369.869	23.170	1089.367	830.428
370.883	23.118	1088.255	829.262
371.898	23.032	1087.178	827.968
372.913	22.923	1086.983	827.236
373.927	22.890	1086.694	826.787
374.942	23.183	1086.237	827.737
375.956	23.037	1085.668	826.546
376.971	23.115	1084.861	826.224
377.986	23.147	1084.501	826.026
379.000	23.392	1083.847	826.599
380.015	23.339	1084.024	826.410
381.029	23.436	1083.076	826.068
382.044	23.440	1082.287	825.410
383.059	23.312	1081.693	824.288
384.073	23.316	1080.317	823.187
385.088	23.320	1079.955	822.857
386.102	23.355	1078.777	822.051
387.117	23.204	1077.344	820.187
388.132	22.786	1076.632	817.634
389.146	22.769	1075.741	816.808
390.161	22.797	1075.312	816.539
391.175	22.863	1074.129	815.874
392.190	22.990	1074.122	816.381
393.205	23.170	1073.560	816.712
394.219	23.099	1072.757	815.704
395.234	22.983	1071.511	814.147
396.248	22.981	1070.335	813.175
397.263	22.868	1069.411	811.881
398.278	22.793	1068.815	811.013
399.292	22.787	1067.275	809.744
400.307	22.630	1066.879	808.653
401.321	22.762	1066.088	808.587
402.336	22.603	1065.926	807.664
403.350	22.673	1065.236	807.388
404.365	22.765	1064.544	807.214
405.380	22.869	1064.117	807.296
406.394	23.054	1063.273	807.428
407.409	23.153	1062.517	807.235
408.423	23.453	1062.279	808.348
409.438	23.380	1061.359	807.244
410.453	23.579	1061.227	807.978
411.467	23.644	1060.460	807.619
412.482	23.594	1059.615	806.680
413.496	23.695	1059.241	806.782
414.511	23.763	1058.601	806.531
415.526	23.975	1058.053	807.005
416.540	23.998	1058.217	807.162
417.555	23.976	1057.407	806.372
418.569	23.692	1056.812	804.560
419.584	23.624	1056.304	803.795
420.599	23.612	1055.478	803.040
421.613	157.821	1404.292	1798.253
422.628	144.962	1455.105	1798.333
