DTS Sentinel unit serial number:	SN413079Multiplexer serial number:	ORYXHardware model number:	OX4-SRSoftware version number:	ORYX F/W v4.00 Oryx Data Collector v3.7.2.0data status	okinstallation	princeton_trtdifferential loss correction	single-endedforward channel	channel 2reverse channel	N/Adate	2019/09/11time	18:57:10forward acquisition time	60.00reverse acquisition time	0.00gamma	496.2192k internal	0.2294k external	0.2294temperature offset calibration	1.0034default loss term (dB/km)	0.3790temperature slope calibration	1.0000multiplexer offset coefficient	1.0000multiplexer slope coefficient	1.0000fibre end	0.00T internal ref (°C)	42.52T ext. ref 1 (°C)	1.26T ext. ref 2 (°C)	34.65length (m)	temperature (°C)	Stokes	anti-Stokes-747.200	-38.619	-0.213	0.115
-746.185	0.129	0.398	-0.290
-745.171	-135.874	0.604	0.073
-744.156	186.264	0.127	-0.192
-743.142	88.188	-0.136	-0.154
-742.127	-200.000	-0.011	0.168
-741.112	-63.354	0.193	-0.081
-740.098	800.000	-0.052	0.229
-739.083	-86.222	0.263	0.083
-738.069	-61.312	-0.118	-0.051
-737.054	137.331	0.115	-0.154
-736.039	-200.000	-0.027	-0.248
-735.025	-87.001	0.051	-0.016
-734.010	108.794	0.114	-0.139
-732.996	-200.000	0.045	-0.308
-731.981	-70.941	-0.110	-0.043
-730.966	45.844	0.141	0.133
-729.952	39.477	-0.259	-0.237
-728.937	-24.594	0.199	-0.121
-727.923	-50.926	-0.191	0.092
-726.908	-1.308	-0.121	0.087
-725.894	129.147	-0.156	-0.204
-724.879	-61.660	-0.024	-0.010
-723.864	-112.442	-0.267	0.054
-722.850	-200.000	-0.010	0.291
-721.835	-30.289	0.135	-0.079
-720.821	-200.000	-0.029	0.191
-719.806	-63.779	-0.198	0.083
-718.791	-170.720	-0.285	-0.010
-717.777	51.634	-0.233	-0.226
-716.762	236.408	0.043	-0.072
-715.748	-200.000	-0.027	0.241
-714.733	-200.000	-0.012	-0.228
-713.718	-1.337	0.233	-0.168
-712.704	230.201	0.171	-0.286
-711.689	-18.557	0.076	0.048
-710.675	105.586	-0.229	-0.277
-709.660	-65.194	0.305	-0.125
-708.645	500.830	-0.081	0.191
-707.631	161.278	0.056	0.080
-706.616	800.000	0.090	-0.295
-705.602	243.361	-0.138	-0.236
-704.587	-35.001	0.299	0.167
-703.572	-136.939	-0.283	-0.033
-702.558	28.611	-0.145	0.125
-701.543	51.410	0.128	-0.124
-700.529	-200.000	0.003	-0.200
-699.514	-105.554	-0.283	0.066
-698.499	31.087	0.187	-0.163
-697.485	-200.000	-0.018	-0.246
-696.470	-31.382	0.056	0.032
-695.456	446.077	0.140	0.314
-694.441	13.686	-0.311	0.246
-693.426	-127.315	-0.238	-0.035
-692.412	-113.015	-0.207	-0.042
-691.397	203.931	0.043	-0.068
-690.383	-60.219	0.126	0.055
-689.368	34.100	0.146	-0.130
-688.354	-200.000	-0.010	-0.139
-687.339	-77.364	0.197	-0.070
-686.324	78.881	0.133	-0.145
-685.310	140.380	0.118	-0.158
-684.295	-70.614	-0.315	-0.121
-683.281	129.787	0.149	-0.194
-682.266	431.911	0.179	-0.396
-681.251	-54.590	-0.328	0.152
-680.237	23.194	0.069	0.057
-679.222	-188.160	0.168	-0.002
-678.208	-92.553	0.290	0.083
-677.193	800.000	0.010	0.040
-676.178	156.609	-0.045	0.063
-675.164	-66.131	-0.124	0.050
-674.149	800.000	-0.103	-0.351
-673.135	61.957	-0.181	-0.184
-672.120	140.205	-0.157	-0.211
-671.105	-126.517	0.017	0.003
-670.091	-200.000	-0.037	-0.167
-669.076	-62.399	0.175	-0.074
-668.062	256.657	-0.144	-0.252
-667.047	-36.914	0.204	-0.111
-666.032	194.108	0.060	0.093
-665.018	370.775	-0.140	-0.289
-664.003	-8.364	0.047	-0.032
-662.989	742.924	0.092	-0.251
-661.974	174.743	-0.026	0.038
-660.959	703.920	0.183	0.492
-659.945	-200.000	0.049	0.572
-658.930	800.000	-0.034	-0.113
-657.916	59.366	-0.145	0.146
-656.901	148.433	-0.202	-0.278
-655.886	31.948	-0.323	0.284
-654.872	-97.210	-0.211	-0.056
-653.857	-111.709	-0.295	0.061
-652.843	-17.724	0.133	0.085
-651.828	800.000	-0.101	-0.385
-650.814	37.138	0.274	-0.247
-649.799	608.685	-0.133	-0.339
-648.784	-200.000	-0.011	0.155
-647.770	90.845	0.115	0.131
-646.755	-30.593	-0.332	0.191
-645.741	244.047	-0.091	-0.156
-644.726	79.647	-0.186	-0.203
-643.711	-181.458	0.340	-0.007
-642.697	-200.000	-0.094	-0.513
-641.682	175.714	0.076	-0.112
-640.668	-13.859	-0.175	-0.115
-639.653	-200.000	0.016	-0.087
-638.638	-89.461	-0.184	0.055
-637.624	641.016	-0.070	0.181
-636.609	108.239	0.135	-0.164
-635.595	89.766	-0.152	-0.173
-634.580	-60.901	-0.085	-0.037
-633.565	168.586	-0.316	-0.458
-632.551	800.000	-0.112	0.495
-631.536	800.000	-0.023	-0.086
-630.522	549.706	-0.198	-0.484
-629.507	-128.831	0.478	-0.068
-628.492	206.615	-0.075	-0.119
-627.478	-200.000	-0.043	0.226
-626.463	-200.000	-0.089	0.454
-625.449	-72.549	0.236	0.089
-624.434	-6.637	-0.140	-0.097
-623.419	-200.000	-0.033	-0.189
-622.405	-99.821	0.143	-0.036
-621.390	-134.751	-0.221	0.027
-620.376	-174.344	0.410	0.012
-619.361	39.760	-0.140	0.128
-618.346	800.000	0.098	0.295
-617.332	-47.860	-0.180	0.089
-616.317	-133.359	-0.314	0.040
-615.303	-108.716	-0.305	0.066
-614.288	800.000	-0.050	-0.212
-613.273	-38.808	0.360	-0.193
-612.259	758.694	-0.070	-0.194
-611.244	71.237	0.043	-0.046
-610.230	-87.992	-0.126	-0.039
-609.215	216.994	0.126	-0.204
-608.201	284.071	0.059	-0.109
-607.186	-113.018	0.250	0.050
-606.171	113.443	0.066	-0.081
-605.157	-38.205	-0.365	0.197
-604.142	60.173	0.072	-0.073
-603.128	-48.463	-0.157	-0.077
-602.113	-116.370	-0.421	-0.079
-601.098	-200.000	0.027	-0.240
-600.084	-57.440	-0.217	-0.097
-599.069	-89.431	-0.447	-0.134
-598.055	146.082	-0.182	0.248
-597.040	210.833	0.179	0.286
-596.025	61.662	0.065	0.066
-595.011	-200.000	0.014	-0.096
-593.996	-200.000	-0.000	-0.040
-592.982	-128.169	-0.336	-0.049
-591.967	75.077	0.140	0.150
-590.952	-132.292	0.185	0.024
-589.938	800.000	0.086	-0.309
-588.923	-188.636	0.264	0.003
-587.909	-29.505	-0.165	-0.096
-586.894	103.645	0.160	0.191
-585.879	-90.487	0.290	0.085
-584.865	121.903	0.232	-0.294
-583.850	-93.197	0.230	-0.065
-582.836	75.311	0.209	-0.224
-581.821	48.159	-0.114	-0.108
-580.806	-155.503	-0.550	0.036
-579.792	800.000	-0.078	0.252
-578.777	168.584	-0.287	-0.415
-577.763	-43.163	0.028	0.014
-576.748	-24.175	-0.255	0.155
-575.733	-83.522	0.312	0.101
-574.719	-200.000	-0.029	-0.247
-573.704	752.401	-0.069	-0.189
-572.690	-102.714	0.332	0.080
-571.675	313.086	-0.040	0.076
-570.661	434.202	0.107	0.237
-569.646	-200.000	0.054	0.352
-568.631	250.095	-0.156	0.269
-567.617	661.090	0.062	-0.161
-566.602	266.111	0.120	-0.213
-565.588	65.783	0.192	-0.198
-564.573	86.535	-0.092	0.103
-563.558	-200.000	0.011	-0.281
-562.544	99.040	-0.211	-0.247
-561.529	780.775	0.051	-0.142
-560.515	167.271	-0.150	-0.216
-559.500	189.456	-0.105	0.160
-558.485	194.001	-0.117	0.180
-557.471	217.025	0.037	-0.060
-556.456	-64.181	-0.143	0.059
-555.442	-57.009	0.131	-0.059
-554.427	-200.000	-0.024	0.245
-553.412	59.927	0.014	0.014
-552.398	127.764	0.126	0.162
-551.383	157.165	-0.057	0.080
-550.369	463.173	-0.053	-0.119
-549.354	-45.260	-0.279	0.140
-548.339	339.253	0.187	0.370
-547.325	-91.497	-0.328	0.095
-546.310	-105.259	-0.199	-0.046
-545.296	800.000	-0.043	-0.173
-544.281	116.777	-0.106	0.132
-543.266	800.000	-0.063	0.257
-542.252	-22.371	0.197	0.121
-541.237	111.760	0.108	0.132
-540.223	-126.867	-0.160	0.024
-539.208	-200.000	-0.017	0.354
-538.193	-110.406	-0.166	-0.035
-537.179	800.000	0.037	-0.128
-536.164	194.070	-0.181	-0.278
-535.150	-114.698	-0.202	-0.039
-534.135	-158.938	0.156	-0.009
-533.121	-169.582	0.283	0.010
-532.106	34.375	0.124	-0.109
-531.091	-116.955	-0.246	0.046
-530.077	-103.035	0.265	-0.064
-529.062	505.560	-0.049	-0.115
-528.048	-91.077	0.184	0.054
-527.033	-50.399	0.138	-0.066
-526.018	-38.035	-0.180	-0.097
-525.004	-176.056	-0.380	-0.010
-523.989	-200.000	-0.001	-0.143
-522.975	-90.402	0.030	0.009
-521.960	-200.000	0.013	-0.111
-520.945	115.435	0.140	-0.174
-519.931	-31.025	-0.329	-0.188
-518.916	-111.895	-0.244	0.050
-517.902	-43.628	0.272	-0.139
-516.887	34.188	-0.204	-0.180
-515.872	250.972	-0.158	-0.272
-514.858	86.336	0.214	-0.239
-513.843	800.000	-0.051	-0.194
-512.829	650.401	-0.067	0.175
-511.814	800.000	-0.097	0.278
-510.799	212.902	-0.153	0.244
-509.785	628.213	0.013	0.032
-508.770	-118.212	-0.397	-0.072
-507.756	29.627	0.088	-0.076
-506.741	-152.585	0.497	-0.036
-505.726	-143.149	-0.222	0.022
-504.712	-200.000	0.011	0.072
-503.697	19.270	-0.130	-0.106
-502.683	-200.000	0.030	0.172
-501.668	-130.767	-0.083	0.011
-500.653	-22.839	0.167	0.102
-499.639	-200.000	-0.068	-0.310
-498.624	-78.341	0.414	-0.144
-497.610	71.573	0.095	-0.100
-496.595	800.000	0.061	-0.172
-495.581	119.304	-0.113	0.142
-494.566	-200.000	0.037	-0.228
-493.551	-200.000	0.013	0.287
-492.537	60.083	0.141	-0.141
-491.522	-200.000	-0.025	-0.254
-490.508	-91.707	-0.214	-0.062
-489.493	-17.719	-0.265	-0.169
-488.478	-103.200	0.380	0.091
-487.464	128.101	-0.032	-0.041
-486.449	93.504	0.192	-0.220
-485.435	12.027	0.018	0.014
-484.420	800.000	-0.021	-0.082
-483.405	18.353	-0.162	-0.131
-482.391	152.843	-0.043	0.060
-481.376	266.863	-0.074	-0.131
-480.362	-124.174	-0.045	-0.007
-479.347	800.000	-0.012	0.051
-478.332	27.357	0.134	0.114
-477.318	177.077	0.074	-0.109
-476.303	67.749	0.225	-0.232
-475.289	538.889	0.080	-0.193
-474.274	231.908	-0.140	0.233
-473.259	-167.071	-0.438	-0.018
-472.245	664.143	0.097	0.252
-471.230	189.402	-0.095	-0.145
-470.216	-120.996	-0.253	-0.043
-469.201	-200.000	-0.007	0.206
-468.186	-59.050	0.363	0.158
-467.172	-200.000	0.027	0.211
-466.157	-200.000	-0.019	-0.398
-465.143	4.794	-0.072	-0.054
-464.128	-200.000	-0.061	0.299
-463.113	8.049	-0.114	0.086
-462.099	-130.751	-0.200	0.027
-461.084	-200.000	0.016	-0.150
-460.070	-5.684	-0.177	-0.123
-459.055	111.471	0.047	-0.058
-458.040	-32.543	-0.169	-0.095
-457.026	153.561	-0.172	0.239
-456.011	400.495	0.051	0.107
-454.997	-200.000	0.041	0.302
-453.982	566.797	0.017	0.042
-452.968	168.384	-0.086	0.123
-451.953	765.357	0.131	-0.361
-450.938	534.137	0.007	-0.018
-449.924	-115.779	0.123	0.023
-448.909	132.582	-0.222	-0.290
-447.895	-152.642	-0.160	-0.012
-446.880	800.000	0.090	-0.286
-445.865	-200.000	-0.021	-0.201
-444.851	-84.101	0.133	-0.043
-443.836	139.866	0.182	-0.243
-442.822	-117.095	-0.104	0.019
-441.807	-73.180	0.114	-0.042
-440.792	-166.470	0.373	0.016
-439.778	-1.286	0.096	0.068
-438.763	-200.000	-0.028	0.235
-437.749	800.000	-0.085	-0.324
-436.734	13.125	0.242	-0.189
-435.719	-200.000	0.000	0.250
-434.705	-127.492	0.209	0.031
-433.690	302.763	0.118	0.221
-432.676	0.883	0.291	-0.211
-431.661	299.554	-0.204	-0.379
-430.646	-36.352	0.099	0.054
-429.632	-117.813	-0.340	0.062
-428.617	800.000	0.035	0.114
-427.603	-200.000	0.015	0.299
-426.588	800.000	-0.073	0.218
-425.573	248.759	0.176	0.300
-424.559	-170.783	0.113	0.004
-423.544	-127.498	-0.056	0.008
-422.530	800.000	0.120	-0.352
-421.515	-200.000	0.003	-0.410
-420.500	191.042	0.228	0.346
-419.486	-137.411	0.125	-0.014
-418.471	170.207	-0.154	-0.222
-417.457	-45.968	0.053	0.026
-416.442	-167.334	0.083	-0.003
-415.428	-200.000	0.008	-0.039
-414.413	-108.010	-0.371	0.081
-413.398	539.895	-0.106	0.255
-412.384	199.545	-0.033	0.051
-411.369	17.664	0.133	-0.106
-410.355	-117.015	0.257	0.047
-409.340	-73.258	0.226	-0.084
-408.325	-16.158	-0.157	0.101
-407.311	-51.776	0.160	-0.075
-406.296	-200.000	-0.029	-0.319
-405.282	-107.210	0.239	-0.053
-404.267	142.584	-0.118	0.158
-403.252	-200.000	-0.001	0.092
-402.238	261.074	-0.056	-0.098
-401.223	-81.866	0.046	-0.015
-400.209	240.398	-0.213	0.358
-399.194	-200.000	0.035	-0.218
-398.179	-152.151	0.086	-0.006
-397.165	-63.388	-0.102	-0.043
-396.150	-200.000	-0.044	0.197
-395.136	800.000	0.110	0.389
-394.121	800.000	0.080	0.239
-393.106	-159.179	0.164	-0.009
-392.092	102.198	0.099	0.117
-391.077	-200.000	-0.021	-0.215
-390.063	-200.000	-0.038	0.265
-389.048	192.523	-0.059	-0.089
-388.033	-69.452	-0.221	-0.086
-387.019	-200.000	0.016	-0.191
-386.004	71.170	0.032	0.034
-384.990	800.000	-0.063	0.236
-383.975	409.848	-0.069	-0.148
-382.960	-162.736	0.122	-0.006
-381.946	800.000	0.087	0.244
-380.931	504.868	-0.153	-0.356
-379.917	-60.247	0.145	-0.062
-378.902	-200.000	0.037	0.222
-377.888	-6.622	0.227	0.156
-376.873	-102.947	0.253	-0.060
-375.858	98.606	-0.118	-0.137
-374.844	-111.593	-0.110	0.023
-373.829	109.302	-0.391	-0.472
-372.815	480.816	-0.087	-0.199
-371.800	516.828	-0.106	-0.250
-370.785	-41.458	-0.222	-0.115
-369.771	-124.148	-0.243	0.038
-368.756	-53.283	0.261	0.121
-367.742	-18.792	0.192	0.120
-366.727	800.000	0.086	-0.290
-365.712	-200.000	-0.002	0.165
-364.698	-200.000	0.018	-0.080
-363.683	329.287	-0.193	-0.375
-362.669	719.099	0.038	-0.101
-361.654	174.803	0.209	0.305
-360.639	800.000	-0.090	-0.369
-359.625	448.942	-0.205	0.454
-358.610	-86.775	-0.177	-0.054
-357.596	-153.166	0.329	-0.023
-356.581	-147.523	0.236	0.020
-355.566	201.348	-0.213	0.330
-354.552	-200.000	0.051	0.283
-353.537	383.117	0.013	0.027
-352.523	-44.309	0.220	0.111
-351.508	268.461	0.109	0.192
-350.493	264.723	-0.084	-0.147
-349.479	800.000	0.036	-0.130
-348.464	149.566	-0.195	-0.266
-347.450	1.835	0.115	0.084
-346.435	-32.288	0.046	0.026
-345.420	620.246	0.031	0.079
-344.406	179.871	0.061	-0.091
-343.391	192.653	0.032	-0.049
-342.377	800.000	-0.177	-0.498
-341.362	-110.564	0.150	-0.031
-340.348	-47.559	0.268	0.131
-339.333	721.165	0.037	0.100
-338.318	800.000	-0.043	-0.121
-337.304	-145.560	0.324	0.029
-336.289	-126.394	-0.263	0.039
-335.275	-200.000	-0.010	0.064
-334.260	131.501	0.280	-0.363
-333.245	800.000	-0.041	-0.131
-332.231	594.992	-0.056	0.140
-331.216	51.032	0.158	0.151
-330.202	800.000	0.079	-0.275
-329.187	727.443	-0.103	0.278
-328.172	540.748	0.112	-0.267
-327.158	-90.755	0.499	-0.145
-326.143	-79.239	0.321	-0.109
-325.129	250.085	-0.067	0.114
-324.114	-96.881	-0.143	-0.038
-323.099	800.000	0.071	0.199
-322.085	666.142	0.108	0.281
-321.070	11.238	-0.281	-0.216
-320.056	-91.046	-0.156	0.045
-319.041	206.223	0.156	-0.244
-318.026	800.000	-0.066	-0.196
-317.012	-142.557	0.134	0.013
-315.997	-200.000	0.000	0.545
-314.983	-143.954	-0.159	0.015
-313.968	-126.210	-0.129	-0.019
-312.953	-185.774	-0.151	0.002
-311.939	669.545	-0.040	0.105
-310.924	142.234	0.157	-0.209
-309.910	-121.292	-0.190	0.032
-308.895	-124.025	-0.188	-0.030
-307.880	-200.000	0.030	-0.177
-306.866	137.468	0.082	0.108
-305.851	-52.376	0.223	-0.104
-304.837	800.000	-0.073	-0.313
-303.822	-63.011	-0.196	-0.082
-302.807	208.571	-0.095	-0.149
-301.793	-200.000	-0.014	0.213
-300.778	-200.000	0.024	0.157
-299.764	-77.388	-0.368	0.128
-298.749	-200.000	-0.017	0.161
-297.735	-200.000	0.007	-0.133
-296.720	-96.361	-0.170	-0.045
-295.705	-39.854	0.280	0.147
-294.691	-22.736	0.185	-0.112
-293.676	800.000	-0.031	0.109
-292.662	349.159	-0.116	-0.230
-291.647	-114.324	-0.245	0.047
-290.632	133.315	-0.202	0.262
-289.618	34.068	0.152	-0.133
-288.603	-81.390	0.341	-0.113
-287.589	-157.220	-0.245	-0.015
-286.574	-200.000	0.076	-0.397
-285.559	245.792	-0.153	-0.259
-284.545	117.735	-0.117	-0.144
-283.530	800.000	-0.136	0.441
-282.516	-124.125	-0.137	-0.022
-281.501	-175.924	0.320	-0.009
-280.486	-19.268	0.213	0.133
-279.472	-54.867	-0.157	0.071
-278.457	403.509	0.180	0.381
-277.443	290.258	0.084	-0.154
-276.428	587.837	0.035	-0.087
-275.413	-200.000	0.052	0.446
-274.399	-45.755	-0.321	0.159
-273.384	-200.000	-0.017	-0.410
-272.370	369.624	0.108	-0.220
-271.355	83.772	0.097	0.106
-270.340	207.326	0.123	0.193
-269.326	-137.218	-0.150	-0.017
-268.311	2.848	0.210	0.153
-267.297	-79.388	-0.243	0.083
-266.282	800.000	0.050	0.173
-265.267	159.555	0.145	0.202
-264.253	-106.049	0.180	-0.041
-263.238	-162.060	-0.296	-0.015
-262.224	-117.739	-0.434	-0.078
-261.209	25.920	0.047	-0.039
-260.195	-200.000	-0.021	-0.130
-259.180	-200.000	-0.011	0.420
-258.165	114.961	-0.115	0.141
-257.151	800.000	0.068	0.264
-256.136	54.771	-0.416	0.402
-255.122	800.000	-0.085	0.323
-254.107	800.000	-0.049	-0.183
-253.092	-94.549	0.321	-0.088
-252.078	618.227	-0.141	0.355
-251.063	-44.095	-0.114	-0.057
-250.049	800.000	-0.003	-0.014
-249.034	-20.787	-0.082	-0.051
-248.019	-85.907	0.387	0.120
-247.005	-200.000	-0.040	0.210
-245.990	-32.483	0.091	0.051
-244.976	-200.000	-0.055	0.336
-243.961	-75.234	0.205	-0.073
-242.946	429.631	0.162	0.352
-241.932	-200.000	-0.066	-0.458
-240.917	-24.981	-0.144	-0.085
-239.903	-108.792	-0.173	-0.037
-238.888	-136.974	-0.412	-0.047
-237.873	-199.098	0.347	-0.002
-236.859	34.412	-0.162	0.142
-235.844	40.448	0.248	0.224
-234.830	208.383	0.091	0.143
-233.815	-17.071	0.073	-0.046
-232.800	-110.594	-0.185	0.038
-231.786	-152.458	-0.098	0.007
-230.771	-61.250	-0.120	-0.051
-229.757	800.000	0.056	0.208
-228.742	-151.695	0.274	0.020
-227.727	-7.156	0.368	0.250
-226.713	134.414	-0.086	0.112
-225.698	108.742	-0.074	0.089
-224.684	281.385	0.171	0.306
-223.669	125.700	-0.125	-0.159
-222.655	72.035	0.151	0.157
-221.640	-200.000	0.033	-0.204
-220.625	391.481	-0.097	-0.203
-219.611	-140.180	0.222	-0.023
-218.596	-200.000	0.005	-0.211
-217.582	13.191	-0.114	0.088
-216.567	36.278	0.214	0.189
-215.552	800.000	0.146	0.511
-214.538	-200.000	0.015	0.167
-213.523	800.000	0.008	0.023
-212.509	80.072	-0.084	0.090
-211.494	347.639	0.035	-0.069
-210.479	234.109	0.152	0.251
-209.465	-31.119	0.171	0.097
-208.450	241.536	-0.159	0.265
-207.436	-85.467	-0.201	-0.063
-206.421	-34.603	0.036	0.020
-205.406	-167.881	0.319	-0.013
-204.392	-8.416	0.129	0.087
-203.377	-125.481	0.289	-0.044
-202.363	800.000	0.080	0.223
-201.348	333.255	-0.186	0.360
-200.333	134.114	0.189	0.245
-199.319	-146.003	-0.247	-0.022
-198.304	79.449	-0.108	0.115
-197.290	800.000	0.067	-0.244
-196.275	86.370	-0.335	-0.370
-195.260	800.000	0.034	0.101
-194.246	-76.197	0.088	0.031
-193.231	-200.000	-0.004	0.294
-192.217	-26.839	-0.075	0.044
-191.202	-200.000	0.042	-0.193
-190.187	173.496	0.018	0.026
-189.173	288.647	-0.102	-0.185
-188.158	-61.363	0.104	-0.044
-187.144	626.821	0.048	-0.122
-186.129	-2.413	0.018	0.013
-185.114	-200.000	0.018	0.312
-184.100	59.938	-0.102	-0.101
-183.085	-105.104	-0.131	-0.030
-182.071	-200.000	0.091	-0.461
-181.056	5.473	-0.086	0.063
-180.042	-98.819	0.226	-0.057
-179.027	-61.843	-0.127	0.053
-178.012	198.778	0.124	-0.191
-176.998	-200.000	0.027	0.418
-175.983	-200.000	-0.010	0.306
-174.969	-200.000	-0.024	0.118
-173.954	312.775	-0.037	0.070
-172.939	-24.069	0.227	0.136
-171.925	800.000	0.100	0.330
-170.910	-163.266	0.141	-0.007
-169.896	-22.964	-0.081	0.049
-168.881	125.797	-0.328	-0.414
-167.866	-141.786	-0.282	-0.028
-166.852	-51.991	0.317	-0.147
-165.837	-161.597	0.117	0.006
-164.823	-200.000	-0.005	-0.388
-163.808	800.000	-0.087	-0.275
-162.793	62.012	-0.086	0.086
-161.779	800.000	0.076	0.236
-160.764	800.000	0.032	0.140
-159.750	-67.443	0.361	-0.142
-158.735	247.283	0.172	0.290
-157.720	88.041	0.208	0.231
-156.706	-60.982	0.108	-0.046
-155.691	-5.073	0.183	0.126
-154.677	57.498	0.169	0.165
-153.662	-138.994	0.183	-0.020
-152.647	-200.000	-0.026	-0.286
-151.633	-28.656	-0.212	-0.122
-150.618	206.459	-0.086	0.134
-149.604	-6.328	-0.089	0.061
-148.589	800.000	0.069	-0.263
-147.574	800.000	-0.071	-0.281
-146.560	800.000	0.053	0.179
-145.545	-200.000	-0.044	-0.199
-144.531	-129.431	0.477	0.066
-143.516	373.107	0.166	0.337
-142.502	32.877	0.212	0.183
-141.487	16.218	0.200	-0.157
-140.472	85.590	-0.043	-0.047
-139.458	84.908	0.271	0.296
-138.443	-200.000	0.027	0.196
-137.429	-91.115	0.077	0.022
-136.414	-5.295	-0.191	0.131
-135.399	-105.739	-0.137	0.031
-134.385	269.271	-0.049	0.087
-133.370	356.255	0.095	-0.188
-132.356	632.668	-0.073	-0.185
-131.341	36.748	-0.149	-0.131
-130.326	-2.721	-0.231	0.161
-129.312	-141.843	-0.196	0.020
-128.297	-200.000	0.046	0.243
-127.283	-0.349	0.048	-0.034
-126.268	117.151	-0.119	-0.146
-125.253	-200.000	0.004	0.265
-124.239	800.000	-0.095	0.387
-123.224	-89.352	0.289	0.085
-122.210	3.709	0.190	0.138
-121.195	-75.833	-0.273	0.096
-120.180	277.669	-0.197	0.350
-119.166	12.660	-0.238	0.183
-118.151	-176.858	0.227	-0.006
-117.137	-126.702	0.357	-0.053
-116.122	207.254	0.042	-0.065
-115.107	616.330	0.112	0.281
-114.093	278.491	-0.068	0.121
-113.078	-195.826	-0.234	0.002
-112.064	-136.995	0.218	-0.025
-111.049	59.724	-0.035	0.034
-110.034	-154.771	-0.400	0.026
-109.020	-18.501	0.112	-0.070
-108.005	-135.302	0.262	-0.031
-106.991	-83.372	0.139	-0.044
-105.976	101.516	-0.139	-0.162
-104.962	-200.000	0.019	0.282
-103.947	800.000	-0.076	-0.257
-102.932	800.000	-0.063	-0.272
-101.918	-137.157	-0.232	-0.026
-100.903	67.642	-0.386	0.393
-99.889	538.965	0.089	0.212
-98.874	-177.069	0.123	-0.003
-97.859	-7.020	0.193	0.131
-96.845	800.000	-0.002	-0.006
-95.830	-157.631	0.261	-0.016
-94.816	-52.857	-0.190	0.087
-93.801	12.566	0.087	-0.067
-92.786	-146.608	0.194	0.017
-91.772	-200.000	0.010	-0.086
-90.757	109.477	0.037	-0.044
-89.743	21.896	-0.243	-0.197
-88.728	-200.000	-0.004	-0.089
-87.713	65.521	-0.032	0.032
-86.699	-45.642	0.155	-0.077
-85.684	-200.000	-0.035	-0.364
-84.670	77.343	-0.218	-0.231
-83.655	35.459	-0.157	-0.137
-82.640	82.382	0.374	-0.404
-81.626	-48.254	0.219	-0.105
-80.611	16.694	0.117	-0.092
-79.597	-132.146	0.316	-0.041
-78.582	-92.519	-0.065	0.018
-77.567	-172.299	0.058	0.002
-76.553	800.000	0.078	-0.267
-75.538	788.452	-0.046	-0.125
-74.524	86.618	0.099	-0.108
-73.509	-121.461	0.140	-0.023
-72.494	113.495	-0.096	-0.116
-71.480	800.000	-0.023	0.087
-70.465	-200.000	0.010	0.064
-69.451	-200.000	0.012	0.094
-68.436	22.771	0.091	0.074
-67.422	800.000	0.075	0.210
-66.407	-68.587	0.309	-0.119
-65.392	144.906	-0.042	0.057
-64.378	-200.000	-0.022	-0.106
-63.363	221.787	0.085	-0.136
-62.349	283.782	-0.060	0.108
-61.334	-3.424	-1.011	-0.701
-60.319	64.242	0.361	0.362
-59.305	-200.000	0.118	-0.694
-58.290	81.986	0.807	0.871
-57.276	564.536	0.588	1.418
-56.261	-200.000	76.188	523.964
-55.246	551.200	1310.265	3129.814
-54.232	146.610	2543.189	3400.510
-53.217	114.777	2335.885	2834.460
-52.203	52.210	1955.587	1855.452
-51.188	45.986	1746.990	1608.900
-50.173	43.017	1702.645	1545.267
-49.159	57.799	1736.268	1690.147
-48.144	63.879	1753.900	1754.046
-47.130	45.995	1718.233	1582.230
-46.115	42.615	1704.404	1543.533
-45.100	42.467	1700.059	1538.400
-44.086	42.480	1697.449	1536.077
-43.071	42.396	1694.931	1533.099
-42.057	42.379	1692.417	1530.634
-41.042	42.481	1689.904	1529.073
-40.027	42.415	1688.633	1527.363
-39.013	42.331	1686.689	1524.906
-37.998	42.280	1685.056	1522.980
-36.984	42.443	1683.350	1522.614
-35.969	42.509	1682.093	1521.918
-34.954	42.610	1680.230	1520.935
-33.940	42.463	1678.293	1518.012
-32.925	42.509	1676.381	1516.566
-31.911	42.515	1674.603	1514.948
-30.896	42.525	1672.776	1513.310
-29.881	42.546	1670.818	1511.635
-28.867	42.465	1669.851	1510.090
-27.852	42.441	1668.319	1508.467
-26.838	42.526	1666.285	1507.200
-25.823	42.502	1664.775	1505.595
-24.809	42.512	1664.088	1504.992
-23.794	42.572	1661.739	1503.259
-22.779	42.725	1660.518	1503.238
-21.765	42.514	1659.276	1500.476
-20.750	42.472	1657.699	1498.679
-19.736	42.555	1656.313	1497.983
-18.721	42.660	1654.571	1497.129
-17.706	42.543	1653.355	1495.101
-16.692	42.617	1650.791	1493.274
-15.677	42.487	1649.516	1491.092
-14.663	42.577	1648.267	1490.571
-13.648	42.524	1647.227	1489.181
-12.633	42.538	1645.769	1487.905
-11.619	42.485	1643.958	1485.818
-10.604	42.552	1642.313	1484.765
-9.590	42.548	1641.088	1483.571
-8.575	42.468	1640.539	1482.429
-7.560	42.505	1639.164	1481.398
-6.546	42.617	1637.361	1480.537
-5.531	42.664	1636.390	1479.943
-4.517	42.554	1635.005	1477.822
-3.502	42.543	1634.151	1476.910
-2.487	42.653	1632.459	1476.132
-1.473	42.184	1620.367	1461.721
-0.458	38.656	1597.821	1415.889
0.556	33.207	1595.096	1371.462
1.571	30.126	1617.589	1367.987
2.586	29.161	1632.300	1373.109
3.600	25.734	1579.048	1303.437
4.615	14.265	1461.515	1128.982
5.629	3.540	1387.049	1002.010
6.644	1.393	1376.820	980.683
7.659	1.276	1375.014	978.559
8.673	1.228	1373.655	977.190
9.688	1.133	1372.179	975.449
10.702	0.992	1369.445	972.508
11.717	4.669	1376.850	1001.389
12.731	15.316	1397.481	1085.561
13.746	23.581	1411.699	1150.326
14.761	24.981	1413.620	1160.866
15.775	25.186	1412.907	1161.508
16.790	25.267	1412.368	1161.485
17.804	25.303	1412.051	1161.354
18.819	25.497	1411.743	1162.254
19.834	25.586	1411.143	1162.231
20.848	25.674	1409.960	1161.721
21.863	25.628	1409.238	1160.731
22.877	25.735	1407.774	1160.109
23.892	25.605	1407.590	1159.020
24.907	25.703	1406.424	1158.588
25.921	25.608	1405.805	1157.360
26.936	25.682	1404.365	1156.549
27.950	25.659	1403.445	1155.544
28.965	25.575	1402.674	1154.267
29.980	25.639	1400.954	1153.160
30.994	25.586	1400.082	1152.001
32.009	25.543	1398.798	1150.562
33.023	25.500	1397.793	1149.359
34.038	25.613	1396.390	1148.827
35.053	25.580	1395.492	1147.776
36.067	25.533	1394.414	1146.490
37.082	25.712	1393.074	1146.424
38.096	25.628	1392.194	1145.067
39.111	25.576	1391.516	1144.077
40.126	25.560	1391.112	1143.542
41.140	25.540	1390.186	1142.550
42.155	25.619	1390.052	1142.841
43.169	25.700	1389.908	1143.139
44.184	25.637	1389.386	1142.204
45.199	25.583	1389.041	1141.481
46.213	25.609	1388.376	1140.993
47.228	25.502	1387.909	1139.837
48.242	25.543	1386.640	1138.951
49.257	25.625	1384.944	1137.972
50.271	25.639	1383.583	1136.842
51.286	25.569	1382.511	1135.419
52.301	25.623	1380.868	1134.310
53.315	25.594	1379.862	1133.202
54.330	25.598	1379.261	1132.634
55.344	25.481	1378.421	1131.109
56.359	25.596	1377.075	1130.627
57.374	25.688	1376.107	1130.308
58.388	25.507	1376.205	1129.153
59.403	25.675	1375.300	1129.366
60.417	25.652	1374.387	1128.370
61.432	25.575	1373.570	1127.118
62.447	25.646	1372.769	1126.802
63.461	25.633	1371.954	1125.956
64.476	25.701	1370.252	1124.884
65.490	25.578	1369.646	1123.516
66.505	25.618	1368.069	1122.372
67.520	25.642	1366.885	1121.455
68.534	25.692	1365.831	1120.799
69.549	25.638	1365.053	1119.725
70.563	25.575	1364.069	1118.431
71.578	25.660	1363.181	1118.130
72.593	25.562	1362.431	1116.809
73.607	25.546	1362.013	1116.266
74.622	25.624	1360.795	1115.651
75.636	25.592	1360.218	1114.884
76.651	25.631	1359.464	1114.408
77.666	25.587	1359.023	1113.673
78.680	25.626	1358.518	1113.403
79.695	25.669	1357.485	1112.724
80.709	25.657	1356.937	1112.104
81.724	25.597	1356.185	1111.020
82.739	25.600	1354.786	1109.795
83.753	25.584	1354.105	1109.040
84.768	25.542	1353.008	1107.781
85.782	25.603	1351.866	1107.123
86.797	25.645	1350.310	1106.012
87.812	25.785	1348.796	1105.534
88.826	25.675	1348.546	1104.555
89.841	25.658	1347.474	1103.475
90.855	25.743	1346.067	1102.745
91.870	25.653	1345.704	1101.797
92.884	25.702	1344.675	1101.159
93.899	25.706	1343.936	1100.483
94.914	25.668	1343.333	1099.659
95.928	25.617	1342.311	1098.413
96.943	25.713	1341.788	1098.471
97.957	25.691	1340.677	1097.333
98.972	25.771	1339.407	1096.682
99.987	25.639	1339.382	1095.765
101.001	25.658	1338.129	1094.759
102.016	25.703	1337.136	1094.119
103.030	25.624	1336.379	1092.926
104.045	25.670	1335.543	1092.420
105.060	25.629	1334.571	1091.281
106.074	25.659	1333.570	1090.550
107.089	25.727	1332.395	1089.901
108.103	25.684	1331.751	1089.023
109.118	25.700	1330.228	1087.774
110.133	25.823	1328.964	1087.389
111.147	25.768	1328.105	1086.259
112.162	25.790	1326.382	1084.885
113.176	25.832	1325.449	1084.275
114.191	25.775	1324.607	1083.147
115.206	25.832	1323.850	1082.780
116.220	25.741	1322.563	1081.082
117.235	25.630	1321.953	1079.825
118.249	25.638	1320.928	1078.938
119.264	25.663	1320.292	1078.473
120.279	25.805	1319.259	1078.382
121.293	25.820	1318.386	1077.663
122.308	25.823	1317.624	1076.962
123.322	25.837	1317.395	1076.768
124.337	25.781	1316.189	1075.348
125.352	25.849	1315.008	1074.693
126.366	25.825	1314.290	1073.873
127.381	25.886	1313.041	1073.120
128.395	25.808	1312.399	1072.037
129.410	25.826	1311.737	1071.508
130.424	25.805	1310.861	1070.570
131.439	25.879	1309.552	1069.848
132.454	25.786	1309.123	1068.851
133.468	25.726	1308.922	1068.237
134.483	25.744	1308.664	1068.036
135.497	25.745	1307.449	1066.954
136.512	25.829	1306.445	1066.542
137.527	25.697	1305.446	1064.847
138.541	25.819	1303.924	1064.235
139.556	25.791	1302.619	1062.912
140.570	25.734	1302.073	1062.032
141.585	25.795	1300.532	1061.043
142.600	25.766	1299.679	1060.083
143.614	25.805	1298.847	1059.539
144.629	25.784	1297.489	1058.216
145.643	25.723	1296.715	1057.133
146.658	25.749	1295.615	1056.292
147.673	25.804	1294.608	1055.701
148.687	25.775	1293.565	1054.589
149.702	25.643	1292.513	1052.865
150.716	25.698	1291.390	1052.177
151.731	25.841	1290.131	1051.894
152.746	25.677	1289.574	1050.388
153.760	25.773	1288.322	1049.834
154.775	25.808	1287.046	1048.907
155.789	25.776	1286.514	1048.192
156.804	25.807	1285.609	1047.542
157.819	25.653	1284.699	1045.817
158.833	25.715	1283.888	1045.425
159.848	25.754	1282.950	1044.791
160.862	25.800	1282.513	1044.609
161.877	25.726	1282.020	1043.690
162.892	25.918	1280.438	1043.419
163.906	25.863	1280.072	1042.710
164.921	25.846	1279.371	1041.952
165.935	25.770	1278.824	1040.975
166.950	25.848	1277.527	1040.272
167.964	25.838	1277.469	1040.079
168.979	25.856	1276.488	1039.293
169.994	25.886	1275.838	1038.844
171.008	25.899	1275.467	1038.522
172.023	25.893	1274.301	1037.445
173.037	25.761	1273.683	1036.094
174.052	25.840	1272.911	1035.828
175.067	25.852	1272.318	1035.322
176.081	25.858	1271.346	1034.472
177.096	25.834	1270.400	1033.478
178.110	25.855	1269.681	1032.919
179.125	26.016	1268.242	1032.580
180.140	25.876	1267.508	1031.092
181.154	25.915	1266.794	1030.643
182.169	25.940	1265.083	1029.301
183.183	25.895	1264.293	1028.307
184.198	25.858	1263.305	1027.205
185.213	25.993	1261.898	1026.740
186.227	25.958	1261.601	1026.204
187.242	26.107	1260.345	1025.941
188.256	25.970	1259.875	1024.689
189.271	25.920	1259.463	1023.979
190.286	26.031	1258.319	1023.591
191.300	25.991	1257.539	1022.636
192.315	25.898	1257.206	1021.746
193.329	25.889	1256.961	1021.406
194.344	26.079	1256.231	1021.798
195.359	25.984	1255.942	1020.936
196.373	25.903	1255.640	1020.144
197.388	25.924	1255.067	1019.705
198.402	25.966	1254.791	1019.629
199.417	25.814	1254.516	1018.457
200.432	25.930	1253.532	1018.218
201.446	26.026	1252.804	1018.079
202.461	26.025	1252.220	1017.511
203.475	26.046	1251.063	1016.597
204.490	26.091	1249.831	1015.761
205.504	26.025	1249.406	1014.952
206.519	26.053	1248.608	1014.377
207.534	25.994	1247.642	1013.170
208.548	26.003	1246.819	1012.458
209.563	26.043	1245.913	1011.861
210.577	26.108	1244.789	1011.221
211.592	26.024	1244.295	1010.260
212.607	26.110	1243.333	1009.869
213.621	26.191	1242.569	1009.614
214.636	26.100	1241.969	1008.526
215.650	26.162	1240.880	1007.901
216.665	26.033	1240.096	1006.454
217.680	26.080	1239.294	1005.978
218.694	26.210	1238.488	1005.961
219.709	26.097	1237.705	1004.606
220.723	26.080	1237.061	1003.897
221.738	26.086	1236.515	1003.400
222.753	25.954	1235.347	1001.629
223.767	26.068	1235.209	1002.061
224.782	26.236	1234.466	1002.305
225.796	26.268	1233.503	1001.610
226.811	26.192	1233.398	1001.015
227.826	26.136	1232.669	1000.023
228.840	26.193	1232.287	999.940
229.855	26.185	1231.529	999.193
230.869	26.262	1230.657	998.826
231.884	26.067	1230.188	997.279
232.899	26.206	1229.134	997.100
233.913	26.091	1229.006	996.276
234.928	26.257	1228.253	996.490
235.942	26.195	1227.592	995.524
236.957	26.303	1226.774	995.368
237.972	26.222	1225.932	994.152
238.986	26.241	1225.371	993.713
240.001	26.357	1224.688	993.712
241.015	26.420	1223.645	993.121
242.030	26.458	1223.064	992.773
243.045	26.372	1222.380	991.655
244.059	26.317	1221.527	990.574
245.074	26.299	1221.001	989.963
246.088	26.436	1220.098	989.890
247.103	26.284	1219.744	988.686
248.117	26.315	1218.443	987.715
249.132	26.325	1217.908	987.245
250.147	26.419	1217.156	987.065
251.161	26.601	1216.021	987.049
252.176	26.444	1215.784	985.912
253.190	26.417	1214.991	985.034
254.205	26.488	1214.500	984.938
255.220	26.445	1214.078	984.273
256.234	26.500	1213.423	983.952
257.249	26.422	1212.561	982.744
258.263	26.544	1211.836	982.733
259.278	26.572	1211.378	982.425
260.293	26.483	1210.671	981.281
261.307	26.608	1209.943	981.280
262.322	26.614	1209.383	980.775
263.336	26.477	1209.288	979.868
264.351	26.511	1208.595	979.406
265.366	26.568	1207.887	979.052
266.380	26.549	1207.038	978.174
267.395	26.508	1206.413	977.360
268.409	26.509	1206.070	977.004
269.424	26.480	1205.420	976.229
270.439	26.497	1205.278	976.123
271.453	26.514	1204.386	975.404
272.468	26.572	1203.352	974.792
273.482	26.593	1202.363	974.021
274.497	26.548	1202.231	973.586
275.512	26.580	1201.737	973.269
276.526	26.527	1200.854	972.185
277.541	26.572	1200.055	971.692
278.555	26.609	1199.940	971.711
279.570	26.576	1199.259	970.899
280.585	26.725	1197.941	970.543
281.599	26.556	1197.433	969.141
282.614	26.544	1196.592	968.308
283.628	26.672	1195.392	967.939
284.643	26.616	1194.889	967.145
285.657	26.638	1193.854	966.340
286.672	26.642	1192.828	965.445
287.687	26.682	1192.386	965.213
288.701	26.607	1191.855	964.300
289.716	26.780	1190.770	964.257
290.730	26.756	1189.963	963.392
291.745	26.755	1189.531	962.949
292.760	26.754	1189.071	962.489
293.774	26.879	1188.327	962.464
294.789	26.740	1188.246	961.575
295.803	26.793	1187.541	961.200
296.818	26.736	1186.811	960.221
297.833	26.891	1185.975	960.279
298.847	26.814	1185.649	959.523
299.862	26.855	1184.364	958.615
300.876	26.840	1183.750	957.954
301.891	26.980	1183.314	958.256
302.906	26.949	1182.991	957.749
303.920	26.905	1181.891	956.538
304.935	26.871	1181.409	955.884
305.949	26.867	1180.509	955.054
306.964	26.913	1180.438	955.152
307.979	26.908	1179.369	954.175
308.993	27.008	1179.035	954.350
310.008	26.864	1178.268	952.888
311.022	26.969	1177.209	952.498
312.037	27.009	1176.111	951.735
313.052	26.894	1175.638	950.666
314.066	26.890	1174.771	949.857
315.081	26.927	1174.080	949.410
316.095	26.926	1173.491	948.845
317.110	27.102	1172.435	948.824
318.125	26.981	1172.212	947.927
319.139	27.002	1171.667	947.516
320.154	27.078	1171.033	947.314
321.168	27.012	1170.522	946.471
322.183	27.095	1169.864	946.286
323.197	26.986	1169.540	945.376
324.212	27.021	1168.941	944.991
325.227	27.080	1168.313	944.703
326.241	27.054	1167.738	944.022
327.256	27.177	1166.613	943.668
328.270	27.082	1166.319	942.851
329.285	27.131	1165.386	942.271
330.300	27.085	1164.576	941.294
331.314	27.130	1163.613	940.665
332.329	27.126	1163.097	940.142
333.343	27.215	1162.158	939.758
334.358	27.188	1161.272	938.821
335.373	27.203	1160.722	938.373
336.387	27.264	1159.543	937.651
337.402	27.292	1159.255	937.479
338.416	27.373	1158.285	937.029
339.431	27.246	1157.847	935.935
340.446	27.294	1157.721	935.998
341.460	27.265	1157.174	935.322
342.475	27.267	1155.973	934.284
343.489	27.225	1155.325	933.460
344.504	27.302	1153.911	932.630
345.519	27.275	1153.697	932.235
346.533	27.384	1152.779	931.970
347.548	27.345	1152.040	931.091
348.562	27.285	1151.089	929.933
349.577	27.386	1150.662	930.023
350.592	27.319	1149.753	928.860
351.606	27.212	1149.186	927.776
352.621	27.364	1148.597	927.991
353.635	27.428	1147.968	927.727
354.650	27.380	1147.092	926.694
355.665	27.462	1146.555	926.594
356.679	27.440	1145.776	925.771
357.694	27.377	1145.523	925.167
358.708	27.422	1144.900	924.808
359.723	27.400	1144.058	923.938
360.738	27.550	1143.150	923.883
361.752	27.333	1143.095	922.656
362.767	27.531	1142.396	923.010
363.781	27.400	1142.103	922.030
364.796	27.659	1141.270	922.584
365.810	27.579	1140.540	921.510
366.825	27.607	1140.113	921.223
367.840	27.562	1139.939	920.776
368.854	27.661	1139.190	920.587
369.869	27.632	1138.194	919.558
370.883	27.552	1137.563	918.564
371.898	27.646	1136.440	918.050
372.913	27.526	1136.227	917.190
373.927	27.604	1135.780	917.138
374.942	27.718	1135.094	917.078
375.956	27.666	1134.804	916.504
376.971	27.705	1134.123	916.065
377.986	27.795	1133.669	916.072
379.000	27.664	1133.135	914.901
380.015	27.701	1132.636	914.603
381.029	27.792	1132.021	914.483
382.044	27.716	1130.853	913.079
383.059	27.722	1130.323	912.596
384.073	27.831	1129.446	912.352
385.088	27.945	1128.705	912.245
386.102	27.910	1127.849	911.296
387.117	27.740	1127.405	910.007
388.132	27.765	1126.202	909.084
389.146	27.864	1125.360	908.815
390.161	27.872	1124.708	908.249
391.175	27.826	1124.331	907.636
392.190	27.865	1123.545	907.112
393.205	27.882	1122.638	906.384
394.219	27.789	1122.376	905.630
395.234	27.910	1121.646	905.564
396.248	28.064	1120.573	905.376
397.263	27.879	1119.941	903.870
398.278	27.929	1119.545	903.722
399.292	28.008	1118.552	903.231
400.307	28.003	1118.112	902.769
401.321	27.885	1117.672	901.752
402.336	27.996	1116.909	901.605
403.350	27.892	1116.112	900.366
404.365	27.969	1115.573	900.231
405.380	28.054	1115.103	900.194
406.394	27.945	1114.419	899.026
407.409	27.985	1113.144	898.112
408.423	28.147	1112.088	897.975
409.438	28.095	1111.927	897.513
410.453	28.026	1111.204	896.510
411.467	28.112	1110.479	896.268
412.482	28.134	1109.780	895.729
413.496	28.087	1109.344	895.071
414.511	28.091	1108.658	894.455
415.526	28.245	1107.660	894.325
416.540	28.128	1107.678	893.690
417.555	28.248	1107.047	893.685
418.569	28.178	1106.346	892.700
419.584	28.120	1106.384	892.371
420.599	28.244	1105.702	892.346
421.613	84.410	1294.003	1352.415
422.628	79.130	1321.456	1352.555
