DTS Sentinel unit serial number:	SN413079Multiplexer serial number:	ORYXHardware model number:	OX4-SRSoftware version number:	ORYX F/W v4.00 Oryx Data Collector v3.7.2.0data status	okinstallation	princeton_trtdifferential loss correction	single-endedforward channel	channel 2reverse channel	N/Adate	2019/09/12time	04:57:11forward acquisition time	60.00reverse acquisition time	0.00gamma	496.2192k internal	0.2326k external	0.2326temperature offset calibration	1.0075default loss term (dB/km)	0.3790temperature slope calibration	1.0000multiplexer offset coefficient	1.0000multiplexer slope coefficient	1.0000fibre end	0.00T internal ref (°C)	31.69T ext. ref 1 (°C)	1.80T ext. ref 2 (°C)	27.07length (m)	temperature (°C)	Stokes	anti-Stokes-747.200	800.000	0.049	-0.208
-746.185	-200.000	0.018	0.126
-745.171	-200.000	0.048	-0.435
-744.156	-200.000	-0.018	0.130
-743.142	800.000	0.056	-0.182
-742.127	-11.399	-0.157	0.104
-741.112	21.979	0.288	0.237
-740.098	92.841	-0.050	-0.057
-739.083	-126.720	-0.338	-0.050
-738.069	-41.249	-0.135	0.070
-737.054	-124.932	-0.169	0.026
-736.039	-151.467	-0.434	0.032
-735.025	-200.000	0.026	0.160
-734.010	15.234	-0.126	-0.100
-732.996	251.052	-0.125	-0.214
-731.981	417.209	-0.229	-0.492
-730.966	-200.000	0.070	-0.426
-729.952	311.860	0.174	-0.330
-728.937	-94.131	0.176	0.049
-727.923	-200.000	0.049	-0.316
-726.908	146.948	0.061	-0.083
-725.894	192.458	-0.089	0.136
-724.879	-156.769	0.311	0.019
-723.864	-14.983	0.090	-0.058
-722.850	-106.580	-0.124	-0.028
-721.835	63.633	0.133	-0.135
-720.821	209.533	0.144	-0.228
-719.806	-12.583	-0.377	-0.248
-718.791	5.274	0.058	0.043
-717.777	800.000	0.093	0.343
-716.762	138.403	-0.275	-0.363
-715.748	800.000	0.049	0.178
-714.733	-200.000	-0.019	-0.261
-713.718	-135.588	0.159	-0.019
-712.704	-83.188	-0.154	0.050
-711.689	640.702	-0.066	-0.170
-710.675	-200.000	-0.038	-0.208
-709.660	-200.000	0.013	-0.167
-708.645	-200.000	-0.005	-0.250
-707.631	245.168	0.009	0.016
-706.616	-200.000	-0.054	-0.250
-705.602	-78.034	-0.169	-0.058
-704.587	-50.218	0.026	-0.012
-703.572	102.757	-0.103	-0.121
-702.558	-200.000	0.025	0.215
-701.543	-47.831	-0.252	0.123
-700.529	-0.981	0.215	0.153
-699.514	-200.000	-0.005	0.043
-698.499	800.000	-0.107	-0.325
-697.485	52.797	0.259	-0.249
-696.470	800.000	0.133	0.434
-695.456	211.463	0.085	-0.135
-694.441	-28.769	-0.101	0.058
-693.426	800.000	0.071	0.229
-692.412	64.390	0.069	0.070
-691.397	-200.000	0.008	-0.538
-690.383	176.688	-0.128	-0.188
-689.368	-63.493	-0.259	-0.107
-688.354	159.002	0.088	0.124
-687.339	734.939	-0.056	0.151
-686.324	775.968	0.049	0.134
-685.310	800.000	-0.030	-0.099
-684.295	800.000	0.047	-0.174
-683.281	-192.564	-0.178	-0.002
-682.266	27.029	0.107	-0.091
-681.251	-2.878	-0.179	0.126
-680.237	46.006	0.216	0.202
-679.222	33.783	-0.247	-0.217
-678.208	-46.584	-0.336	0.166
-677.193	-200.000	0.049	-0.355
-676.178	-200.000	0.019	0.222
-675.164	-69.203	-0.461	-0.178
-674.149	-106.705	0.354	0.079
-673.135	15.249	0.172	-0.135
-672.120	260.031	-0.142	-0.247
-671.105	336.205	-0.051	-0.099
-670.091	800.000	-0.025	0.091
-669.076	-87.659	-0.506	-0.154
-668.062	-116.690	0.324	0.060
-667.047	-24.131	-0.086	-0.052
-666.032	397.711	0.068	-0.143
-665.018	-128.794	-0.235	0.033
-664.003	-63.131	-0.150	-0.062
-662.989	800.000	-0.097	-0.293
-661.974	-127.022	0.307	0.045
-660.959	442.611	0.069	-0.152
-659.945	-159.329	-0.065	-0.004
-658.930	-1.372	-0.246	-0.174
-657.916	177.775	0.250	0.367
-656.901	99.309	-0.155	-0.181
-655.886	-105.123	0.428	-0.098
-654.872	106.134	0.158	0.188
-653.857	-17.927	0.065	-0.041
-652.843	-200.000	-0.076	0.353
-651.828	20.589	-0.161	-0.131
-650.814	267.500	0.081	0.143
-649.799	311.364	-0.124	0.234
-648.784	-200.000	-0.028	-0.216
-647.770	71.566	0.145	0.151
-646.755	-200.000	0.035	0.410
-645.741	-200.000	0.008	0.317
-644.726	-100.507	-0.130	0.032
-643.711	800.000	-0.077	-0.264
-642.697	800.000	0.085	-0.256
-641.682	48.203	0.339	-0.319
-640.668	800.000	-0.086	-0.244
-639.653	-137.858	-0.237	0.027
-638.638	228.422	0.187	-0.306
-637.624	-143.069	-0.238	-0.023
-636.609	800.000	-0.082	-0.304
-635.595	581.558	-0.150	-0.368
-634.580	-38.034	0.384	0.205
-633.565	35.380	-0.227	0.200
-632.551	20.578	0.087	-0.071
-631.536	800.000	-0.105	-0.408
-630.522	800.000	-0.085	-0.241
-629.507	-52.948	-0.144	0.067
-628.492	-14.520	-0.217	0.140
-627.478	211.445	-0.276	-0.436
-626.463	-200.000	-0.002	-0.295
-625.449	-123.617	-0.149	0.024
-624.434	-2.416	-0.110	-0.077
-623.419	-200.000	0.010	0.075
-622.405	-200.000	-0.014	-0.514
-621.390	239.460	0.070	-0.116
-620.376	800.000	-0.076	-0.255
-619.361	-200.000	0.023	0.109
-618.346	-200.000	-0.016	-0.246
-617.332	193.107	-0.047	0.071
-616.317	-200.000	0.044	-0.361
-615.303	10.493	0.053	0.041
-614.288	-142.963	0.202	-0.020
-613.273	-88.530	-0.191	-0.057
-612.259	-121.045	0.248	0.042
-611.244	520.652	-0.092	-0.217
-610.230	-200.000	-0.040	0.189
-609.215	14.550	0.237	0.186
-608.201	37.387	-0.125	0.111
-607.186	42.571	-0.079	-0.072
-606.171	-33.334	-0.039	-0.022
-605.157	-42.702	-0.304	-0.155
-604.142	738.755	0.168	-0.452
-603.128	55.779	-0.104	-0.101
-602.113	-91.731	0.351	0.100
-601.098	-200.000	0.024	-0.286
-600.084	104.599	-0.227	0.268
-599.069	-200.000	0.032	0.152
-598.055	-39.281	-0.235	-0.124
-597.040	305.495	-0.085	-0.158
-596.025	0.120	-0.020	-0.015
-595.011	384.255	-0.036	0.074
-593.996	-95.372	0.196	-0.053
-592.982	-136.608	-0.223	-0.026
-591.967	-44.272	-0.152	0.076
-590.952	-84.170	-0.306	-0.097
-589.938	800.000	-0.017	0.068
-588.923	106.999	-0.316	-0.376
-587.909	-200.000	-0.049	-0.248
-586.894	800.000	-0.131	-0.395
-585.879	-70.662	-0.470	-0.178
-584.865	800.000	-0.116	-0.381
-583.850	-101.536	-0.398	-0.097
-582.836	144.545	-0.370	0.496
-581.821	-80.384	0.256	-0.086
-580.806	-123.122	-0.437	0.070
-579.792	-68.016	-0.135	0.053
-578.777	-200.000	-0.002	-0.088
-577.763	197.656	-0.309	0.473
-576.748	-48.011	0.164	-0.079
-575.733	-80.032	0.258	0.087
-574.719	487.970	-0.172	0.393
-573.704	66.632	0.157	0.160
-572.690	-83.683	0.149	-0.048
-571.675	-200.000	0.002	0.102
-570.661	525.730	0.146	0.345
-569.646	345.565	0.086	0.169
-568.631	-200.000	0.079	-0.486
-567.617	-136.752	-0.079	0.009
-566.602	-200.000	-0.049	-0.348
-565.588	530.611	0.031	-0.074
-564.573	204.445	0.129	-0.200
-563.558	-186.745	-0.276	-0.004
-562.544	-200.000	-0.022	0.126
-561.529	-121.473	0.123	0.020
-560.515	-151.488	-0.193	-0.014
-559.500	243.684	-0.135	-0.228
-558.485	-200.000	0.029	0.138
-557.471	-89.524	0.144	0.042
-556.456	41.699	-0.129	0.117
-555.442	-153.135	-0.335	0.024
-554.427	468.619	-0.087	0.195
-553.412	-52.620	-0.446	0.206
-552.398	-47.394	-0.056	-0.027
-551.383	-200.000	-0.049	0.232
-550.369	216.560	-0.207	0.329
-549.354	-49.423	-0.157	-0.075
-548.339	-79.194	-0.227	0.077
-547.325	-200.000	-0.017	-0.090
-546.310	-134.120	0.154	-0.019
-545.296	800.000	-0.033	0.098
-544.281	-139.408	0.381	-0.041
-543.266	-126.661	0.187	0.028
-542.252	800.000	-0.042	-0.152
-541.237	-102.817	0.070	0.017
-540.223	-93.583	-0.178	-0.049
-539.208	27.977	-0.190	0.161
-538.193	-117.903	-0.226	-0.041
-537.179	-200.000	0.047	-0.331
-536.164	-106.080	0.245	-0.055
-535.150	260.686	0.059	0.101
-534.135	-104.250	0.066	-0.015
-533.121	-154.399	0.360	-0.024
-532.106	-153.057	-0.230	0.016
-531.091	-4.426	0.110	-0.076
-530.077	-10.564	0.375	0.248
-529.062	-200.000	0.001	-0.194
-528.048	-53.105	0.215	-0.099
-527.033	800.000	0.103	-0.342
-526.018	89.168	0.255	-0.284
-525.004	800.000	0.046	0.180
-523.989	800.000	0.072	0.291
-522.975	-200.000	-0.038	-0.316
-521.960	-162.656	0.343	-0.017
-520.945	-59.583	0.082	0.035
-519.931	-160.081	-0.309	0.017
-518.916	110.797	-0.243	-0.293
-517.902	6.334	-0.198	0.147
-516.887	17.787	-0.100	0.079
-515.872	122.407	0.042	-0.052
-514.858	81.580	0.041	-0.045
-513.843	-200.000	-0.007	0.123
-512.829	776.539	-0.052	-0.141
-511.814	15.037	-0.213	-0.167
-510.799	-71.169	0.139	0.052
-509.785	63.057	0.089	0.089
-508.770	-37.836	0.268	0.142
-507.756	40.977	0.089	0.080
-506.741	-62.156	-0.405	-0.169
-505.726	800.000	-0.042	0.163
-504.712	32.124	0.115	-0.099
-503.697	-111.152	-0.080	-0.016
-502.683	-170.863	0.307	0.011
-501.668	-64.469	-0.070	-0.028
-500.653	-139.739	0.233	0.025
-499.639	800.000	0.082	0.278
-498.624	46.987	-0.273	0.253
-497.610	-200.000	-0.042	-0.200
-496.595	-200.000	0.009	-0.331
-495.581	-27.740	0.273	0.158
-494.566	-143.270	0.126	-0.012
-493.551	22.561	0.251	-0.205
-492.537	-54.598	0.133	0.060
-491.522	-103.933	0.046	-0.011
-490.508	141.200	0.093	-0.122
-489.493	44.359	-0.004	-0.004
-488.478	88.161	-0.056	0.062
-487.464	491.701	-0.104	-0.237
-486.449	-11.213	-0.149	-0.098
-485.435	-59.952	-0.066	0.028
-484.420	800.000	-0.128	-0.365
-483.405	-200.000	0.067	-0.353
-482.391	-37.446	0.162	-0.086
-481.376	-200.000	0.021	-0.137
-480.362	800.000	0.102	-0.412
-479.347	-200.000	-0.168	0.000
-478.332	-47.402	0.334	-0.162
-477.318	-17.021	-0.075	-0.047
-476.303	-112.502	-0.277	0.055
-475.289	8.558	-0.249	0.187
-474.274	-145.357	-0.100	0.009
-473.259	-191.849	-0.451	-0.004
-472.245	656.407	0.041	0.106
-471.230	-124.276	-0.148	-0.023
-470.216	114.990	-0.149	0.181
-469.201	-152.026	-0.185	-0.013
-468.186	-1.950	-0.424	0.297
-467.172	-200.000	-0.021	0.091
-466.157	-153.684	-0.136	-0.009
-465.143	800.000	-0.119	-0.428
-464.128	151.529	0.142	0.193
-463.113	-100.215	0.180	-0.045
-462.099	-200.000	0.006	-0.124
-461.084	-200.000	0.015	-0.129
-460.070	-70.193	-0.052	0.020
-459.055	800.000	-0.062	-0.270
-458.040	800.000	0.058	0.181
-457.026	-68.116	0.237	-0.092
-456.011	-9.171	-0.327	0.218
-454.997	90.665	0.243	-0.272
-453.982	-200.000	-0.044	-0.226
-452.968	57.214	-0.060	0.058
-451.953	53.133	0.108	0.103
-450.938	-200.000	-0.027	-0.145
-449.924	429.699	-0.127	-0.273
-448.909	-200.000	-0.018	0.239
-447.895	-159.785	0.265	-0.015
-446.880	-200.000	0.015	0.086
-445.865	-133.063	0.305	0.039
-444.851	484.075	0.142	-0.321
-443.836	-126.625	-0.179	0.027
-442.822	-117.342	0.335	0.061
-441.807	-58.746	0.216	0.093
-440.792	-200.000	0.009	-0.244
-439.778	-157.553	0.293	0.017
-438.763	800.000	0.025	-0.092
-437.749	236.551	-0.130	-0.214
-436.734	72.239	-0.106	0.110
-435.719	-42.846	0.225	0.114
-434.705	-50.358	-0.238	-0.112
-433.690	26.518	-0.290	-0.241
-432.676	-12.974	-0.123	0.080
-431.661	-200.000	0.035	0.251
-430.646	-33.183	0.453	-0.250
-429.632	800.000	-0.011	0.044
-428.617	29.799	0.220	-0.187
-427.603	10.080	0.100	-0.076
-426.588	-41.431	-0.106	0.054
-425.573	-58.156	0.304	0.132
-424.559	-116.597	0.143	-0.026
-423.544	-101.185	0.295	-0.072
-422.530	380.074	0.035	0.071
-421.515	114.182	0.115	0.139
-420.500	-103.032	0.228	-0.054
-419.486	-25.053	0.205	0.121
-418.471	-163.204	0.063	0.003
-417.457	202.236	-0.171	0.262
-416.442	138.213	0.045	0.059
-415.428	-75.624	0.195	0.069
-414.413	800.000	0.019	-0.056
-413.398	165.487	-0.118	0.166
-412.384	59.409	-0.281	0.276
-411.369	-200.000	-0.002	0.102
-410.355	-79.210	-0.281	0.095
-409.340	-200.000	0.100	0.457
-408.325	125.766	-0.138	0.173
-407.311	33.951	-0.206	-0.179
-406.296	-70.044	0.107	-0.040
-405.282	25.332	0.033	0.028
-404.267	4.646	-0.214	0.156
-403.252	-50.804	0.060	0.028
-402.238	800.000	0.016	-0.055
-401.223	116.867	-0.244	0.299
-400.209	87.318	0.137	-0.151
-399.194	333.304	0.224	0.432
-398.179	131.467	-0.138	-0.176
-397.165	160.197	-0.052	-0.073
-396.150	-200.000	0.002	0.434
-395.136	-200.000	0.042	0.203
-394.121	-200.000	-0.016	0.228
-393.106	-100.106	-0.282	0.070
-392.092	308.734	0.104	-0.193
-391.077	-200.000	-0.006	-0.216
-390.063	75.622	0.084	0.088
-389.048	367.897	-0.123	0.248
-388.033	-50.374	-0.085	-0.040
-387.019	4.486	0.293	0.214
-386.004	-72.232	-0.187	0.069
-384.990	122.652	-0.091	-0.113
-383.975	-200.000	-0.010	0.193
-382.960	13.922	-0.170	0.132
-381.946	432.433	0.086	0.185
-380.931	20.639	-0.224	-0.180
-379.917	-200.000	-0.013	0.367
-378.902	2.824	0.197	-0.142
-377.888	-200.000	-0.019	-0.143
-376.873	-200.000	-0.008	-0.144
-375.858	-135.434	0.238	0.028
-374.844	-19.350	0.194	-0.120
-373.829	-200.000	0.036	-0.175
-372.815	-200.000	-0.011	-0.115
-371.800	-43.149	-0.276	-0.139
-370.785	-110.153	-0.482	-0.100
-369.771	800.000	0.118	-0.448
-368.756	-85.283	-0.060	0.019
-367.742	14.241	0.206	-0.160
-366.727	-9.889	0.134	0.089
-365.712	-60.660	0.167	0.070
-364.698	-39.736	0.171	0.089
-363.683	-200.000	0.010	0.094
-362.669	343.681	-0.169	0.330
-361.654	-122.853	0.125	0.020
-360.639	-200.000	-0.011	0.121
-359.625	-200.000	-0.003	-0.315
-358.610	-71.379	-0.434	0.162
-357.596	245.732	0.016	0.027
-356.581	13.838	0.181	0.140
-355.566	330.239	-0.080	0.153
-354.552	-200.000	0.010	-0.076
-353.537	293.117	-0.101	-0.183
-352.523	-111.129	0.189	-0.038
-351.508	170.691	0.081	-0.116
-350.493	40.915	-0.294	-0.263
-349.479	-95.800	0.196	-0.052
-348.464	800.000	-0.043	-0.133
-347.450	-115.185	-0.169	0.032
-346.435	-28.266	-0.049	-0.028
-345.420	-78.587	0.099	-0.033
-344.406	123.636	0.086	0.108
-343.391	791.629	-0.091	0.249
-342.377	-110.969	0.215	-0.044
-341.362	44.840	0.169	0.155
-340.348	361.210	-0.065	-0.128
-339.333	800.000	0.053	0.170
-338.318	680.917	0.118	0.305
-337.304	187.400	0.258	-0.382
-336.289	199.664	-0.070	0.107
-335.275	210.317	0.145	-0.226
-334.260	748.695	0.055	0.147
-333.245	-200.000	0.047	0.236
-332.231	-200.000	-0.018	0.179
-331.216	325.767	-0.135	0.257
-330.202	438.996	0.055	-0.120
-329.187	-34.236	-0.209	-0.114
-328.172	-200.000	0.005	-0.365
-327.158	-87.330	0.331	0.100
-326.143	233.006	-0.231	0.377
-325.129	-200.000	0.037	0.308
-324.114	3.775	0.180	-0.130
-323.099	-65.489	-0.134	-0.053
-322.085	-200.000	-0.030	0.204
-321.070	-200.000	-0.031	0.243
-320.056	-50.950	0.255	-0.119
-319.041	-28.170	0.195	0.112
-318.026	-35.731	-0.332	0.179
-317.012	-20.565	-0.164	-0.100
-315.997	800.000	0.040	0.148
-314.983	116.873	-0.058	-0.070
-313.968	27.255	0.103	0.086
-312.953	-200.000	0.009	0.071
-311.939	201.670	0.247	-0.378
-310.924	800.000	0.096	0.389
-309.910	-200.000	0.022	-0.313
-308.895	-200.000	0.027	0.351
-307.880	65.255	0.068	0.068
-306.866	-58.083	0.397	0.172
-305.851	129.990	0.157	0.200
-304.837	-200.000	0.007	0.060
-303.822	-111.087	0.401	-0.081
-302.807	-109.593	0.225	0.047
-301.793	-16.843	-0.199	0.125
-300.778	-52.800	0.296	0.135
-299.764	-200.000	0.034	0.301
-298.749	582.777	0.200	0.487
-297.735	800.000	-0.101	0.319
-296.720	800.000	-0.105	0.337
-295.705	153.454	0.090	0.122
-294.691	22.007	-0.198	0.160
-293.676	-30.825	0.265	0.148
-292.662	-37.511	0.171	0.090
-291.647	-101.258	-0.068	-0.016
-290.632	-200.000	0.004	0.092
-289.618	-106.111	-0.214	0.048
-288.603	-200.000	-0.031	-0.136
-287.589	660.090	-0.064	-0.162
-286.574	98.318	0.101	0.116
-285.559	-97.125	-0.142	-0.037
-284.545	-182.135	0.205	-0.004
-283.530	-170.130	0.398	-0.014
-282.516	-113.150	-0.172	-0.034
-281.501	-144.671	0.052	0.005
-280.486	96.668	-0.230	-0.261
-279.472	42.765	-0.046	0.042
-278.457	31.779	0.358	0.306
-277.443	-57.039	-0.287	0.125
-276.428	-95.816	0.216	0.057
-275.413	-200.000	0.015	0.070
-274.399	79.625	-0.195	-0.207
-273.384	-200.000	0.050	-0.250
-272.370	311.212	-0.087	0.161
-271.355	-138.062	0.344	-0.038
-270.340	13.162	-0.248	-0.190
-269.326	535.873	-0.091	-0.214
-268.311	-24.925	-0.122	-0.072
-267.297	-200.000	-0.045	0.199
-266.282	110.189	-0.219	0.261
-265.267	-200.000	-0.010	0.092
-264.253	104.577	-0.036	0.042
-263.238	800.000	-0.070	-0.211
-262.224	694.426	0.086	0.222
-261.209	291.354	-0.119	0.214
-260.195	-89.481	0.031	-0.009
-259.180	800.000	-0.015	0.050
-258.165	800.000	-0.056	-0.212
-257.151	434.717	-0.050	-0.107
-256.136	-200.000	0.008	0.140
-255.122	16.286	0.262	0.204
-254.107	-85.247	-0.116	-0.036
-253.092	-200.000	0.013	0.111
-252.078	800.000	0.133	-0.372
-251.063	39.808	-0.085	-0.075
-250.049	217.906	-0.096	-0.151
-249.034	-200.000	0.008	-0.115
-248.019	800.000	-0.062	0.182
-247.005	800.000	-0.110	0.368
-245.990	-200.000	0.133	0.589
-244.976	800.000	0.126	0.448
-243.961	-77.887	0.340	0.116
-242.946	441.575	-0.077	-0.167
-241.932	-200.000	0.024	-0.371
-240.917	-144.221	0.167	-0.015
-239.903	59.364	-0.187	-0.182
-238.888	26.044	0.138	0.114
-237.873	71.705	0.169	0.174
-236.859	-102.682	0.190	-0.045
-235.844	-84.376	-0.365	0.114
-234.830	61.891	-0.323	0.319
-233.815	189.379	0.209	0.310
-232.800	274.539	0.092	-0.160
-231.786	334.456	-0.102	0.196
-230.771	-200.000	-0.057	0.248
-229.757	800.000	0.040	-0.111
-228.742	261.267	0.030	-0.052
-227.727	-200.000	-0.083	-0.361
-226.713	800.000	-0.077	-0.214
-225.698	188.355	0.152	0.224
-224.684	-200.000	-0.017	0.239
-223.669	-185.658	-0.251	0.004
-222.655	489.077	0.166	0.376
-221.640	-200.000	-0.041	0.307
-220.625	-200.000	0.046	-0.257
-219.611	-102.340	-0.226	-0.054
-218.596	1.631	0.139	-0.099
-217.582	-200.000	0.004	-0.042
-216.567	-75.872	-0.409	-0.143
-215.552	-119.515	0.170	-0.029
-214.538	152.958	-0.102	-0.138
-213.523	-200.000	0.040	0.286
-212.509	737.466	0.085	0.226
-211.494	-78.953	0.053	0.018
-210.479	58.730	-0.446	-0.433
-209.465	800.000	-0.038	0.133
-208.450	66.125	-0.088	0.089
-207.436	800.000	-0.062	-0.256
-206.421	78.618	0.243	-0.257
-205.406	669.670	0.072	-0.184
-204.392	-200.000	-0.034	-0.162
-203.377	-8.564	-0.024	0.016
-202.363	-72.349	0.038	0.014
-201.348	-200.000	-0.063	0.338
-200.333	-50.042	-0.106	0.050
-199.319	112.529	0.230	-0.275
-198.304	274.067	0.084	0.147
-197.290	30.539	0.148	-0.125
-196.275	-200.000	-0.006	-0.092
-195.260	473.296	0.070	0.157
-194.246	-109.193	-0.271	-0.057
-193.231	290.080	-0.043	-0.078
-192.217	62.547	-0.060	0.059
-191.202	-24.012	0.162	0.096
-190.187	-77.363	-0.130	-0.045
-189.173	138.288	-0.019	-0.024
-188.158	-161.519	0.324	0.016
-187.144	84.683	0.251	0.272
-186.129	308.784	0.168	0.309
-185.114	-14.590	-0.108	0.069
-184.100	261.661	0.099	-0.168
-183.085	-200.000	-0.027	-0.136
-182.071	454.590	-0.051	0.112
-181.056	71.229	0.061	0.062
-180.042	-90.539	0.510	-0.146
-179.027	-49.816	-0.181	0.085
-178.012	-117.980	-0.219	-0.039
-176.998	37.179	-0.069	0.060
-175.983	800.000	0.091	0.354
-174.969	-16.724	0.183	-0.114
-173.954	100.998	-0.237	-0.272
-172.939	-141.581	0.317	-0.032
-171.925	-92.163	-0.178	-0.050
-170.910	29.417	0.166	-0.139
-169.896	-95.386	0.111	-0.030
-168.881	-73.988	-0.184	0.066
-167.866	-62.064	-0.236	0.097
-166.852	-63.461	-0.252	-0.102
-165.837	120.708	0.072	-0.088
-164.823	-49.151	0.294	-0.139
-163.808	117.796	0.332	-0.403
-162.793	187.962	0.184	0.271
-161.779	14.932	0.020	-0.016
-160.764	-200.000	-0.019	-0.463
-159.750	-112.536	-0.285	-0.056
-158.735	-17.669	0.090	-0.056
-157.720	800.000	0.066	0.249
-156.706	-13.677	0.173	-0.110
-155.691	1.098	-0.106	-0.075
-154.677	18.870	0.373	-0.295
-153.662	-200.000	0.008	-0.127
-152.647	-200.000	-0.026	0.159
-151.633	-88.403	-0.091	0.027
-150.618	20.435	0.392	0.312
-149.604	336.548	-0.123	0.235
-148.589	-200.000	0.100	-0.437
-147.574	236.334	0.208	-0.339
-146.560	-50.004	0.341	-0.159
-145.545	800.000	-0.036	0.132
-144.531	45.575	-0.170	0.154
-143.516	800.000	0.062	-0.209
-142.502	-100.596	-0.208	-0.051
-141.487	800.000	0.037	-0.108
-140.472	-81.358	0.220	-0.071
-139.458	196.566	-0.157	-0.236
-138.443	-98.315	-0.155	0.039
-137.429	-78.728	-0.312	0.105
-136.414	23.645	-0.092	0.074
-135.399	129.857	-0.166	0.210
-134.385	-109.562	-0.336	0.070
-133.370	-102.005	-0.323	-0.077
-132.356	-51.623	0.254	0.117
-131.341	800.000	0.024	-0.101
-130.326	-200.000	0.004	0.195
-129.312	302.733	0.177	0.322
-128.297	-200.000	0.009	0.062
-127.283	-0.628	0.239	-0.167
-126.268	40.580	0.223	-0.198
-125.253	800.000	0.092	0.257
-124.239	20.118	-0.185	0.147
-123.224	58.488	0.229	-0.221
-122.210	-26.783	-0.135	0.078
-121.195	-107.635	0.171	-0.037
-120.180	-200.000	0.021	0.282
-119.166	-200.000	0.036	-0.171
-118.151	-52.049	-0.036	-0.016
-117.137	63.502	-0.157	-0.155
-116.122	-200.000	-0.045	0.370
-115.107	-47.354	-0.088	-0.042
-114.093	-58.075	0.232	0.099
-113.078	-39.293	-0.387	0.200
-112.064	177.872	0.111	-0.160
-111.049	-200.000	0.042	-0.230
-110.034	-60.564	0.148	-0.062
-109.020	190.902	-0.214	-0.316
-108.005	-94.902	0.107	-0.028
-106.991	-147.539	-0.133	-0.011
-105.976	-47.663	-0.071	-0.034
-104.962	-108.100	-0.154	0.033
-103.947	114.001	-0.038	-0.046
-102.932	236.766	0.074	-0.120
-101.918	-200.000	0.015	-0.304
-100.903	-200.000	0.027	0.185
-99.889	-78.716	0.266	0.089
-98.874	-43.107	-0.173	0.086
-97.859	-200.000	-0.019	-0.125
-96.845	145.765	0.035	-0.046
-95.830	800.000	0.052	-0.212
-94.816	15.692	-0.346	0.267
-93.801	-148.287	0.084	-0.007
-92.786	-8.549	-0.058	0.038
-91.772	517.005	0.134	-0.307
-90.757	-47.634	-0.320	0.153
-89.743	221.309	-0.098	0.155
-88.728	4.422	-0.324	-0.234
-87.713	-75.017	0.279	0.098
-86.699	269.730	0.026	0.044
-85.684	8.188	-0.162	-0.120
-84.670	464.686	-0.081	-0.178
-83.655	207.483	-0.061	-0.094
-82.640	279.729	0.067	-0.118
-81.626	4.841	0.262	0.189
-80.611	-200.000	-0.009	0.267
-79.597	-19.104	-0.218	-0.133
-78.582	800.000	0.057	0.180
-77.567	65.295	0.248	0.246
-76.553	197.844	0.151	-0.227
-75.538	-139.447	-0.112	0.012
-74.524	253.872	-0.151	0.253
-73.509	-200.000	-0.019	-0.237
-72.494	-4.948	-0.121	0.082
-71.480	-63.451	0.148	-0.060
-70.465	-62.076	0.020	0.008
-69.451	-200.000	-0.010	-0.310
-68.436	-200.000	0.000	-0.002
-67.422	-37.056	-0.206	0.108
-66.407	118.059	0.043	0.052
-65.392	-49.853	-0.143	0.066
-64.378	-47.667	0.114	0.054
-63.363	156.509	0.116	0.157
-62.349	-39.496	0.092	0.047
-61.334	41.673	-1.078	-0.959
-60.319	403.481	0.387	0.800
-59.305	800.000	-0.261	-1.067
-58.290	24.300	0.842	0.683
-57.276	252.022	0.621	1.039
-56.261	-200.000	97.035	598.966
-55.246	557.819	1370.642	3245.020
-54.232	161.441	2555.324	3509.003
-53.217	106.027	2264.410	2631.514
-52.203	41.068	1892.325	1677.772
-51.188	35.021	1682.456	1446.122
-50.173	32.324	1638.699	1388.578
-49.159	49.889	1685.800	1560.341
-48.144	51.396	1701.847	1586.408
-47.130	34.550	1662.784	1425.470
-46.115	31.829	1648.501	1392.986
-45.100	31.707	1643.935	1388.164
-44.086	31.626	1640.896	1384.943
-43.071	31.545	1638.475	1382.250
-42.057	31.570	1636.434	1380.658
-41.042	31.561	1634.721	1379.093
-40.027	31.569	1632.267	1377.025
-39.013	31.562	1630.326	1375.280
-37.998	31.599	1628.479	1373.940
-36.984	31.510	1627.975	1372.811
-35.969	31.687	1626.050	1372.428
-34.954	31.740	1623.920	1370.966
-33.940	31.665	1622.558	1369.213
-32.925	31.644	1621.604	1368.201
-31.911	31.619	1619.516	1366.198
-30.896	31.647	1617.363	1364.530
-29.881	31.723	1615.695	1363.628
-28.867	31.676	1614.184	1361.952
-27.852	31.678	1612.688	1360.654
-26.838	31.680	1611.268	1359.416
-25.823	31.612	1610.095	1357.876
-24.809	31.722	1608.715	1357.457
-23.794	31.680	1607.080	1355.722
-22.779	31.706	1605.279	1354.334
-21.765	31.687	1603.760	1352.862
-20.750	31.600	1602.588	1351.190
-19.736	31.671	1601.366	1350.622
-18.721	31.780	1599.314	1349.618
-17.706	31.744	1598.112	1348.295
-16.692	31.710	1596.514	1346.645
-15.677	31.680	1595.438	1345.473
-14.663	31.944	1593.738	1345.875
-13.648	31.743	1592.486	1343.329
-12.633	31.786	1591.238	1342.525
-11.619	31.739	1589.172	1340.397
-10.604	31.754	1587.455	1339.004
-9.590	31.694	1586.455	1337.676
-8.575	31.721	1585.141	1336.709
-7.560	31.743	1584.136	1335.963
-6.546	31.734	1583.086	1334.959
-5.531	31.733	1581.846	1333.852
-4.517	31.767	1580.637	1333.022
-3.502	31.724	1579.605	1331.798
-2.487	31.741	1578.180	1330.660
-1.473	31.560	1566.397	1319.401
-0.458	29.084	1547.817	1286.418
0.556	26.021	1549.779	1258.979
1.571	23.924	1573.477	1263.241
2.586	23.540	1586.756	1271.036
3.600	20.542	1531.573	1205.961
4.615	11.095	1420.215	1057.120
5.629	3.162	1355.249	959.365
6.644	1.845	1347.438	945.582
7.659	1.837	1345.759	944.270
8.673	1.736	1345.252	943.207
9.688	1.772	1342.813	941.633
10.702	1.438	1339.911	937.454
11.717	4.946	1346.588	963.764
12.731	14.850	1366.305	1039.670
13.746	23.506	1380.861	1104.820
14.761	25.868	1384.150	1122.085
15.775	26.347	1383.640	1124.550
16.790	26.485	1383.244	1124.992
17.804	26.474	1382.845	1124.499
18.819	26.694	1382.425	1125.423
19.834	26.863	1381.889	1125.936
20.848	26.859	1381.266	1125.305
21.863	26.989	1380.056	1125.026
22.877	26.961	1379.276	1124.116
23.892	26.832	1378.732	1122.772
24.907	26.926	1377.310	1122.096
25.921	26.858	1376.747	1121.118
26.936	26.798	1375.777	1119.859
27.950	26.942	1374.534	1119.636
28.965	26.995	1373.158	1118.744
29.980	26.840	1371.990	1116.741
30.994	26.867	1371.216	1116.174
32.009	26.867	1370.254	1115.292
33.023	26.958	1368.680	1114.472
34.038	26.856	1367.830	1113.056
35.053	26.943	1366.275	1112.225
36.067	26.944	1365.437	1111.454
37.082	26.920	1364.592	1110.519
38.096	26.833	1363.964	1109.377
39.111	26.785	1363.248	1108.401
40.126	26.839	1362.841	1108.302
41.140	26.954	1361.512	1107.830
42.155	26.834	1361.830	1107.256
43.169	26.897	1361.525	1107.292
44.184	26.804	1361.426	1106.545
45.199	26.864	1360.978	1106.454
46.213	26.753	1360.945	1105.651
47.228	26.997	1359.174	1105.598
48.242	26.791	1358.566	1103.753
49.257	26.876	1356.353	1102.373
50.271	26.886	1355.303	1101.485
51.286	26.843	1354.121	1100.163
52.301	26.989	1352.370	1099.530
53.315	26.892	1351.795	1098.377
54.330	26.829	1351.402	1097.577
55.344	26.869	1350.132	1096.695
56.359	26.848	1349.104	1095.634
57.374	26.921	1348.133	1095.189
58.388	26.936	1347.977	1095.056
59.403	26.881	1347.530	1094.265
60.417	26.916	1346.351	1093.420
61.432	26.919	1345.788	1092.888
62.447	26.943	1344.928	1092.232
63.461	26.950	1343.883	1091.330
64.476	26.968	1342.847	1090.504
65.490	26.766	1342.285	1088.735
66.505	26.876	1340.346	1087.725
67.520	26.930	1338.923	1086.798
68.534	26.842	1338.481	1085.817
69.549	26.902	1337.652	1085.405
70.563	26.859	1336.770	1084.340
71.578	26.977	1334.958	1083.477
72.593	27.037	1334.342	1083.241
73.607	26.879	1334.257	1082.131
74.622	26.944	1333.398	1081.727
75.636	27.040	1332.575	1081.537
76.651	26.925	1331.716	1080.056
77.666	26.887	1331.592	1079.637
78.680	26.928	1331.028	1079.329
79.695	26.945	1330.351	1078.785
80.709	26.883	1329.707	1077.799
81.724	26.952	1328.695	1077.294
82.739	26.971	1327.692	1076.496
83.753	26.805	1327.086	1074.923
84.768	26.929	1325.592	1074.356
85.782	27.015	1324.274	1073.699
86.797	26.963	1323.824	1072.928
87.812	27.060	1322.351	1072.216
88.826	26.952	1321.106	1070.471
89.841	26.880	1320.757	1069.670
90.855	27.008	1319.535	1069.344
91.870	26.960	1319.085	1068.597
92.884	26.912	1318.625	1067.851
93.899	26.922	1317.001	1066.499
94.914	26.984	1316.172	1066.098
95.928	27.047	1315.470	1065.804
96.943	26.894	1315.348	1064.715
97.957	27.000	1314.098	1064.227
98.972	26.993	1313.204	1063.367
99.987	26.956	1312.486	1062.479
101.001	26.989	1311.344	1061.651
102.016	27.026	1310.264	1060.897
103.030	26.915	1309.992	1059.935
104.045	26.991	1308.987	1059.476
105.060	26.948	1308.091	1058.405
106.074	27.003	1307.050	1057.788
107.089	27.006	1306.031	1056.889
108.103	26.931	1305.380	1055.829
109.118	27.035	1303.802	1055.065
110.133	27.039	1302.678	1054.088
111.147	27.117	1301.713	1053.666
112.162	27.065	1300.625	1052.387
113.176	27.028	1299.633	1051.279
114.191	27.086	1298.963	1050.983
115.206	27.106	1297.649	1049.941
116.220	26.986	1297.074	1048.690
117.235	27.085	1295.970	1048.275
118.249	26.950	1295.432	1046.970
119.264	27.043	1294.209	1046.421
120.279	27.072	1293.437	1045.874
121.293	26.994	1293.145	1045.097
122.308	27.022	1292.654	1044.768
123.322	27.116	1291.072	1043.936
124.337	27.018	1290.387	1042.729
125.352	27.149	1289.337	1042.536
126.366	27.186	1288.270	1041.797
127.381	27.186	1287.656	1041.205
128.395	27.152	1287.024	1040.407
129.410	27.092	1286.057	1039.191
130.424	27.105	1285.601	1038.805
131.439	27.219	1284.195	1038.230
132.454	27.094	1283.860	1037.153
133.468	27.096	1283.457	1036.748
134.483	27.077	1282.541	1035.806
135.497	27.060	1281.661	1034.904
136.512	27.124	1280.447	1034.198
137.527	27.175	1279.214	1033.404
138.541	27.094	1278.589	1032.346
139.556	27.131	1277.193	1031.339
140.570	27.086	1276.279	1030.252
141.585	27.114	1275.207	1029.456
142.600	27.077	1274.407	1028.509
143.614	27.007	1273.768	1027.506
144.629	27.003	1272.756	1026.576
145.643	27.029	1271.487	1025.610
146.658	26.991	1270.583	1024.575
147.673	27.011	1269.642	1023.835
148.687	26.970	1268.613	1022.685
149.702	26.961	1267.486	1021.635
150.716	27.039	1265.783	1020.611
151.731	26.982	1265.452	1019.934
152.746	27.180	1263.750	1019.580
153.760	27.104	1263.274	1018.681
154.775	27.092	1262.695	1018.055
155.789	27.127	1261.354	1017.083
156.804	27.054	1260.578	1015.958
157.819	27.053	1260.011	1015.404
158.833	27.129	1259.041	1014.956
159.848	27.191	1258.356	1014.663
160.862	27.090	1257.622	1013.420
161.877	27.209	1256.895	1013.405
162.892	27.147	1256.296	1012.487
163.906	27.217	1255.253	1011.947
164.921	27.257	1254.593	1011.545
165.935	27.300	1253.840	1011.092
166.950	27.322	1252.994	1010.441
167.964	27.350	1252.304	1009.948
168.979	27.241	1251.681	1008.756
169.994	27.271	1251.250	1008.482
171.008	27.281	1250.693	1008.002
172.023	27.330	1249.725	1007.404
173.037	27.311	1248.801	1006.463
174.052	27.213	1248.512	1005.600
175.067	27.320	1247.574	1005.344
176.081	27.203	1247.017	1004.164
177.096	27.092	1246.601	1003.127
178.110	27.218	1245.704	1003.012
179.125	27.177	1244.564	1001.779
180.140	27.283	1243.349	1001.293
181.154	27.225	1242.160	999.929
182.169	27.305	1241.228	999.528
183.183	27.234	1240.283	998.291
184.198	27.232	1239.280	997.386
185.213	27.266	1238.618	996.948
186.227	27.270	1237.462	995.952
187.242	27.346	1236.814	995.762
188.256	27.257	1235.947	994.485
189.271	27.322	1235.292	994.226
190.286	27.346	1234.232	993.418
191.300	27.297	1233.502	992.474
192.315	27.152	1233.650	991.716
193.329	27.288	1232.904	991.770
194.344	27.249	1232.898	991.462
195.359	27.228	1232.475	990.919
196.373	27.291	1231.490	990.383
197.388	27.317	1231.105	990.129
198.402	27.195	1231.165	989.424
199.417	27.224	1230.781	989.187
200.432	27.375	1229.885	989.202
201.446	27.362	1229.384	988.638
202.461	27.287	1228.446	987.388
203.475	27.381	1227.502	987.051
204.490	27.282	1226.816	985.876
205.504	27.359	1225.802	985.391
206.519	27.392	1224.989	984.831
207.534	27.483	1223.660	984.165
208.548	27.285	1223.262	982.688
209.563	27.349	1222.279	982.158
210.577	27.478	1220.959	981.708
211.592	27.365	1220.862	980.933
212.607	27.445	1219.860	980.472
213.621	27.491	1219.021	979.959
214.636	27.368	1218.666	978.924
215.650	27.402	1217.754	978.287
216.665	27.389	1216.991	977.519
217.680	27.350	1216.046	976.462
218.694	27.473	1214.804	976.041
219.709	27.463	1214.547	975.693
220.723	27.460	1213.672	974.887
221.738	27.464	1212.626	973.982
222.753	27.425	1212.091	973.260
223.767	27.415	1211.626	972.746
224.782	27.590	1210.863	972.979
225.796	27.497	1210.709	972.274
226.811	27.587	1209.999	972.101
227.826	27.592	1209.394	971.552
228.840	27.527	1208.829	970.669
229.855	27.590	1208.551	970.693
230.869	27.591	1207.298	969.605
231.884	27.508	1206.888	968.748
232.899	27.464	1206.002	967.718
233.913	27.483	1205.779	967.556
234.928	27.453	1205.116	966.779
235.942	27.683	1204.448	967.380
236.957	27.445	1203.934	965.615
237.972	27.671	1202.820	965.835
238.986	27.692	1202.060	965.251
240.001	27.718	1201.559	964.899
241.015	27.648	1200.999	963.996
242.030	27.622	1200.246	963.165
243.045	27.773	1199.298	963.117
244.059	27.683	1198.605	962.005
245.074	27.559	1198.303	961.024
246.088	27.741	1197.045	960.884
247.103	27.743	1196.343	960.246
248.117	27.796	1195.164	959.498
249.132	27.718	1194.660	958.594
250.147	27.771	1194.404	958.582
251.161	27.858	1193.387	958.140
252.176	27.811	1192.776	957.316
253.190	27.794	1192.286	956.749
254.205	27.745	1191.637	955.888
255.220	27.818	1190.899	955.595
256.234	27.779	1190.577	955.048
257.249	27.871	1189.915	954.911
258.263	27.711	1189.604	953.741
259.278	27.781	1188.922	953.474
260.293	27.848	1187.968	952.977
261.307	27.874	1187.737	952.843
262.322	27.893	1187.164	952.397
263.336	27.758	1186.592	951.152
264.351	27.865	1185.452	950.708
265.366	27.883	1184.795	950.194
266.380	27.963	1184.151	950.006
267.395	27.985	1183.663	949.645
268.409	27.859	1183.281	948.600
269.424	27.908	1182.753	948.352
270.439	27.875	1182.161	947.620
271.453	27.893	1181.574	947.156
272.468	27.908	1180.698	946.447
273.482	27.780	1180.007	945.148
274.497	27.906	1179.709	945.480
275.512	27.932	1179.164	945.093
276.526	27.953	1178.401	944.506
277.541	27.958	1177.675	943.865
278.555	27.876	1177.507	943.225
279.570	27.922	1176.659	942.699
280.585	27.967	1175.589	941.990
281.599	27.984	1174.271	940.942
282.614	28.015	1173.565	940.453
283.628	27.997	1172.801	939.664
284.643	28.087	1171.907	939.324
285.657	28.027	1170.887	938.116
286.672	27.975	1170.560	937.502
287.687	27.997	1170.082	937.153
288.701	28.015	1169.404	936.620
289.716	28.184	1168.179	936.419
290.730	28.047	1167.655	935.216
291.745	28.188	1166.985	935.315
292.760	28.139	1166.607	934.680
293.774	28.163	1166.069	934.288
294.789	28.201	1165.682	934.092
295.803	28.183	1164.957	933.333
296.818	28.076	1164.333	932.208
297.833	28.160	1163.681	932.029
298.847	28.185	1163.156	931.657
299.862	28.150	1162.497	930.866
300.876	28.172	1161.890	930.412
301.891	28.243	1161.159	930.102
302.906	28.240	1160.348	929.355
303.920	28.258	1159.555	928.729
304.935	28.264	1158.934	928.182
305.949	28.156	1158.950	927.565
306.964	28.222	1157.935	927.006
307.979	28.350	1157.338	927.093
308.993	28.215	1156.957	926.022
310.008	28.299	1155.741	925.390
311.022	28.269	1155.477	924.945
312.037	28.294	1154.511	924.219
313.052	28.374	1153.531	923.756
314.066	28.243	1152.830	922.450
315.081	28.328	1152.121	922.229
316.095	28.280	1151.310	921.255
317.110	28.343	1150.671	920.983
318.125	28.365	1150.136	920.583
319.139	28.292	1149.534	919.653
320.154	28.313	1149.054	919.293
321.168	28.392	1148.529	919.189
322.183	28.381	1147.818	918.483
323.197	28.335	1147.521	917.931
324.212	28.300	1146.864	917.149
325.227	28.340	1146.505	916.984
326.241	28.335	1146.242	916.667
327.256	28.480	1145.180	916.459
328.270	28.457	1144.224	915.500
329.285	28.534	1143.693	915.380
330.300	28.536	1142.795	914.590
331.314	28.517	1141.993	913.772
332.329	28.500	1141.103	912.893
333.343	28.510	1140.828	912.642
334.358	28.513	1139.793	911.748
335.373	28.518	1139.164	911.189
336.387	28.742	1137.903	911.213
337.402	28.571	1137.780	910.186
338.416	28.614	1137.219	909.868
339.431	28.619	1136.396	909.155
340.446	28.591	1135.896	908.534
341.460	28.568	1135.240	907.816
342.475	28.642	1134.346	907.384
343.489	28.563	1133.961	906.608
344.504	28.573	1132.834	905.674
345.519	28.814	1131.643	905.834
346.533	28.659	1131.162	904.602
347.548	28.772	1129.997	904.148
348.562	28.656	1129.839	903.369
349.577	28.665	1129.077	902.723
350.592	28.657	1128.455	902.109
351.606	28.626	1127.575	901.173
352.621	28.696	1127.094	901.053
353.635	28.765	1125.985	900.424
354.650	28.787	1125.854	900.347
355.665	28.739	1125.126	899.452
356.679	28.860	1124.537	899.495
357.694	28.692	1124.550	898.599
358.708	28.736	1123.350	897.777
359.723	28.716	1122.862	897.209
360.738	28.798	1121.933	896.788
361.752	28.792	1121.495	896.331
362.767	28.879	1120.808	896.126
363.781	28.862	1120.372	895.616
364.796	28.916	1119.876	895.402
365.810	28.889	1119.137	894.599
366.825	28.999	1118.514	894.559
367.840	28.932	1118.458	894.108
368.854	29.006	1117.676	893.766
369.869	28.999	1116.604	892.796
370.883	29.032	1116.315	892.644
371.898	28.946	1115.670	891.631
372.913	28.960	1115.056	891.133
373.927	29.018	1114.742	891.080
374.942	29.043	1113.764	890.340
375.956	29.055	1113.131	889.813
376.971	29.036	1112.725	889.321
377.986	29.061	1112.274	889.003
379.000	29.086	1112.077	888.887
380.015	29.117	1111.077	888.159
381.029	29.112	1110.532	887.618
382.044	29.115	1109.901	887.049
383.059	29.159	1109.303	886.708
384.073	29.171	1108.410	885.971
385.088	29.044	1108.103	885.037
386.102	29.206	1107.066	884.908
387.117	29.104	1106.598	883.969
388.132	28.985	1105.812	882.689
389.146	29.200	1104.626	882.696
390.161	29.183	1104.100	882.118
391.175	29.202	1103.494	881.646
392.190	29.186	1102.602	880.779
393.205	29.192	1102.117	880.339
394.219	29.238	1101.065	879.642
395.234	29.223	1100.466	879.016
396.248	29.325	1099.355	878.534
397.263	29.316	1098.785	877.959
398.278	29.290	1098.514	877.539
399.292	29.443	1097.973	877.761
400.307	29.401	1097.182	876.848
401.321	29.321	1097.010	876.253
402.336	29.317	1096.375	875.652
403.350	29.277	1095.680	874.825
404.365	29.446	1094.451	874.570
405.380	29.488	1093.774	874.152
406.394	29.421	1093.391	873.452
407.409	29.450	1092.536	872.829
408.423	29.477	1091.833	872.314
409.438	29.446	1091.328	871.689
410.453	29.494	1090.639	871.289
411.467	29.417	1090.059	870.386
412.482	29.431	1089.388	869.839
413.496	29.521	1088.368	869.368
414.511	29.449	1087.980	868.642
415.526	29.517	1087.439	868.457
416.540	29.541	1087.613	868.631
417.555	29.615	1086.660	868.141
418.569	29.561	1086.194	867.435
419.584	29.572	1085.890	867.168
420.599	29.624	1085.369	866.922
421.613	104.125	1323.528	1460.998
422.628	96.898	1358.173	1461.096
