DTS Sentinel unit serial number:	SN413079Multiplexer serial number:	ORYXHardware model number:	OX4-SRSoftware version number:	ORYX F/W v4.00 Oryx Data Collector v3.7.2.0data status	okinstallation	princeton_trtdifferential loss correction	single-endedforward channel	channel 2reverse channel	N/Adate	2019/09/15time	10:19:35forward acquisition time	60.00reverse acquisition time	0.00gamma	496.2192k internal	0.2315k external	0.2315temperature offset calibration	1.0018default loss term (dB/km)	0.3790temperature slope calibration	1.0000multiplexer offset coefficient	1.0000multiplexer slope coefficient	1.0000fibre end	0.00T internal ref (°C)	34.25T ext. ref 1 (°C)	5.04T ext. ref 2 (°C)	29.34length (m)	temperature (°C)	Stokes	anti-Stokes-747.200	15.852	-0.154	-0.123
-746.185	27.665	0.064	0.054
-745.171	-200.000	0.001	-0.143
-744.156	118.371	-0.069	-0.087
-743.142	-200.000	0.001	-0.040
-742.127	-94.832	-0.222	0.061
-741.112	152.596	-0.175	-0.242
-740.098	188.337	0.030	0.046
-739.083	-200.000	0.016	-0.197
-738.069	-105.920	0.348	0.080
-737.054	-85.000	-0.147	-0.047
-736.039	510.113	0.049	0.115
-735.025	-31.782	-0.160	0.091
-734.010	393.023	-0.149	-0.314
-732.996	-98.296	-0.112	-0.029
-731.981	-106.188	0.223	0.051
-730.966	-2.941	0.155	0.110
-729.952	-71.794	-0.136	0.051
-728.937	319.991	0.184	0.355
-727.923	-90.192	-0.073	-0.022
-726.908	-6.735	-0.137	-0.095
-725.894	77.370	0.189	-0.203
-724.879	-101.075	-0.282	-0.070
-723.864	-81.587	-0.117	-0.039
-722.850	-38.327	0.161	0.086
-721.835	602.602	0.062	-0.157
-720.821	-129.347	-0.261	0.037
-719.806	-102.038	0.432	-0.106
-718.791	-92.619	0.120	0.034
-717.777	70.927	-0.100	0.105
-716.762	153.851	-0.087	-0.121
-715.748	81.229	-0.043	0.047
-714.733	-126.986	0.272	0.041
-713.718	-69.365	-0.318	0.123
-712.704	-200.000	0.052	-0.353
-711.689	778.303	-0.157	0.435
-710.675	340.105	-0.118	-0.233
-709.660	-68.229	-0.036	-0.014
-708.645	-200.000	0.035	0.167
-707.631	-93.979	-0.118	-0.033
-706.616	22.135	0.037	0.031
-705.602	65.934	-0.075	-0.077
-704.587	-200.000	-0.009	-0.205
-703.572	349.195	-0.142	0.284
-702.558	-200.000	-0.017	-0.204
-701.543	800.000	0.055	0.187
-700.529	15.189	-0.138	-0.109
-699.514	800.000	-0.085	-0.341
-698.499	-200.000	0.038	-0.227
-697.485	729.490	-0.100	-0.270
-696.470	-44.893	0.376	-0.189
-695.456	-126.391	-0.137	0.021
-694.441	-72.756	-0.262	0.098
-693.426	-130.581	0.505	-0.069
-692.412	-200.000	-0.015	0.115
-691.397	-118.153	0.246	-0.044
-690.383	-200.000	0.014	0.131
-689.368	-125.065	-0.517	0.080
-688.354	-200.000	-0.016	-0.420
-687.339	-98.941	0.104	0.027
-686.324	-42.297	-0.097	-0.050
-685.310	-133.627	-0.493	-0.062
-684.295	-77.866	-0.119	0.042
-683.281	800.000	-0.010	0.041
-682.266	-55.587	0.123	0.056
-681.251	-163.547	-0.178	0.009
-680.237	-106.202	0.285	0.065
-679.222	-67.765	-0.098	0.039
-678.208	-200.000	0.003	0.153
-677.193	92.673	0.165	-0.188
-676.178	300.214	0.034	-0.063
-675.164	75.053	-0.054	0.058
-674.149	800.000	-0.128	-0.377
-673.135	58.995	0.153	0.152
-672.120	97.439	-0.092	0.106
-671.105	352.392	-0.140	-0.281
-670.091	-173.368	0.355	0.011
-669.076	-200.000	-0.044	-0.268
-668.062	-7.483	-0.055	-0.038
-667.047	-164.440	0.361	0.017
-666.032	473.216	0.049	-0.111
-665.018	36.262	-0.037	0.033
-664.003	43.512	0.044	0.041
-662.989	-124.711	0.153	0.024
-661.974	-46.763	-0.432	-0.213
-660.959	93.969	-0.054	0.062
-659.945	-35.933	0.047	0.026
-658.930	69.030	0.042	0.044
-657.916	408.874	-0.070	0.150
-656.901	-61.581	-0.132	-0.056
-655.886	-200.000	-0.032	-0.276
-654.872	-49.842	-0.156	-0.075
-653.857	376.137	0.036	-0.075
-652.843	-8.712	-0.037	0.025
-651.828	-110.962	-0.552	0.115
-650.814	-7.127	0.177	0.121
-649.799	800.000	-0.072	-0.248
-648.784	-71.544	0.091	0.034
-647.770	-172.706	-0.306	0.010
-646.755	-200.000	-0.053	-0.262
-645.741	-71.032	0.235	0.089
-644.726	-138.272	-0.367	0.041
-643.711	396.578	0.085	-0.178
-642.697	-57.628	0.175	0.077
-641.682	-200.000	0.054	-0.272
-640.668	-19.654	-0.069	-0.043
-639.653	46.561	-0.067	0.063
-638.638	-47.728	-0.147	-0.072
-637.624	517.873	0.028	0.067
-636.609	-43.935	0.127	-0.065
-635.595	-197.399	0.252	-0.002
-634.580	42.479	-0.115	-0.106
-633.565	410.106	0.046	0.099
-632.551	203.464	-0.123	0.193
-631.536	-97.157	0.016	-0.004
-630.522	212.104	-0.130	-0.207
-629.507	224.906	0.091	-0.149
-628.492	-87.921	-0.118	0.036
-627.478	-69.857	-0.479	0.184
-626.463	-29.705	0.080	0.046
-625.449	-53.226	0.125	0.058
-624.434	188.055	-0.120	0.180
-623.419	65.155	-0.132	0.134
-622.405	45.606	0.169	-0.157
-621.390	480.111	-0.065	-0.149
-620.376	-200.000	0.022	0.404
-619.361	382.019	0.109	-0.226
-618.346	187.017	-0.024	-0.036
-617.332	-200.000	-0.002	0.047
-616.317	265.947	0.176	-0.309
-615.303	-200.000	0.037	0.298
-614.288	348.158	0.017	-0.034
-613.273	-119.931	-0.134	0.023
-612.259	-76.191	0.143	-0.051
-611.244	177.265	0.031	-0.045
-610.230	-200.000	-0.028	-0.359
-609.215	-200.000	0.011	0.341
-608.201	-200.000	0.022	0.205
-607.186	158.280	-0.061	-0.085
-606.171	44.031	0.121	0.112
-605.157	-200.000	-0.013	-0.104
-604.142	-200.000	0.005	0.053
-603.128	800.000	0.038	0.116
-602.113	595.391	-0.060	-0.150
-601.098	800.000	0.082	-0.249
-600.084	-200.000	-0.002	-0.123
-599.069	-124.139	0.212	0.034
-598.055	45.484	0.177	0.164
-597.040	135.358	-0.074	0.097
-596.025	489.360	-0.056	0.128
-595.011	169.324	0.106	0.152
-593.996	-200.000	-0.012	0.076
-592.982	-0.082	-0.071	-0.051
-591.967	234.324	0.151	0.250
-590.952	-200.000	0.008	-0.049
-589.938	-129.262	-0.131	-0.018
-588.923	-54.787	0.102	0.047
-587.909	-98.341	-0.186	-0.048
-586.894	438.492	0.116	0.255
-585.879	109.406	0.288	0.347
-584.865	-155.075	-0.136	-0.009
-583.850	-119.867	0.263	-0.046
-582.836	800.000	0.052	-0.179
-581.821	-163.302	-0.187	-0.009
-580.806	93.536	0.148	-0.169
-579.792	-144.984	-0.199	0.018
-578.777	17.195	-0.234	-0.187
-577.763	133.597	-0.136	0.177
-576.748	800.000	-0.044	0.134
-575.733	491.950	0.054	-0.125
-574.719	117.318	-0.115	0.142
-573.704	44.870	-0.076	-0.071
-572.690	-200.000	-0.013	0.226
-571.675	256.430	0.076	-0.131
-570.661	126.762	-0.138	0.176
-569.646	304.645	-0.012	0.022
-568.631	483.451	-0.129	-0.295
-567.617	231.030	-0.171	0.282
-566.602	-163.471	-0.080	-0.004
-565.588	523.243	-0.056	-0.133
-564.573	-59.801	-0.211	-0.091
-563.558	-58.156	-0.182	-0.080
-562.544	800.000	-0.090	-0.278
-561.529	-100.110	0.321	0.080
-560.515	129.888	-0.268	-0.345
-559.500	-87.807	-0.331	-0.100
-558.485	172.713	0.098	0.142
-557.471	-181.733	-0.240	0.005
-556.456	372.830	0.185	-0.379
-555.442	-101.145	0.341	-0.084
-554.427	222.871	0.077	-0.125
-553.412	648.474	0.087	-0.223
-552.398	800.000	-0.042	-0.158
-551.383	87.594	0.115	-0.128
-550.369	-1.039	0.214	-0.153
-549.354	39.030	0.264	-0.237
-548.339	-79.806	-0.318	0.108
-547.325	189.034	0.123	-0.185
-546.310	-48.791	0.155	-0.075
-545.296	456.712	-0.187	0.417
-544.281	800.000	0.074	0.282
-543.266	621.055	-0.084	-0.212
-542.252	-200.000	0.035	-0.224
-541.237	-1.491	-0.194	0.137
-540.223	249.674	-0.108	0.183
-539.208	-200.000	-0.054	0.410
-538.193	-97.547	0.286	-0.075
-537.179	-200.000	-0.001	0.227
-536.164	7.390	0.245	0.184
-535.150	-34.900	-0.212	0.116
-534.135	71.826	0.139	0.145
-533.121	800.000	0.047	-0.189
-532.106	474.754	0.154	-0.350
-531.091	-125.283	0.689	-0.106
-530.077	-200.000	-0.066	-0.373
-529.062	-63.000	-0.327	0.136
-528.048	44.077	0.308	-0.283
-527.033	-68.278	0.065	0.025
-526.018	43.223	0.040	-0.037
-525.004	39.034	-0.139	0.124
-523.989	-200.000	0.028	-0.184
-522.975	-64.489	-0.114	-0.047
-521.960	-40.499	0.095	0.049
-520.945	67.480	-0.202	0.208
-519.931	135.591	-0.160	0.209
-518.916	-131.138	-0.143	0.019
-517.902	288.270	-0.051	0.093
-516.887	108.770	-0.065	-0.077
-515.872	800.000	-0.116	-0.371
-514.858	-15.023	0.159	-0.102
-513.843	800.000	-0.043	0.173
-512.829	800.000	0.055	0.161
-511.814	115.533	0.235	-0.289
-510.799	800.000	0.018	0.075
-509.785	-159.428	-0.416	0.023
-508.770	800.000	0.087	-0.331
-507.756	143.307	-0.158	0.211
-506.741	26.918	0.089	-0.075
-505.726	800.000	0.022	0.070
-504.712	385.083	-0.101	-0.210
-503.697	351.647	-0.103	-0.205
-502.683	800.000	0.081	0.253
-501.668	-11.905	-0.251	-0.165
-500.653	145.004	-0.191	-0.256
-499.639	-159.048	0.370	-0.021
-498.624	-21.197	0.026	0.016
-497.610	32.975	0.303	-0.264
-496.595	-200.000	-0.001	0.105
-495.581	-74.719	0.224	0.081
-494.566	83.659	-0.084	-0.091
-493.551	-143.787	-0.476	-0.045
-492.537	87.796	-0.328	0.365
-491.522	47.204	0.294	0.275
-490.508	-99.419	-0.352	0.089
-489.493	800.000	0.076	-0.217
-488.478	-200.000	0.001	-0.212
-487.464	-101.908	-0.279	-0.068
-486.449	555.670	-0.126	-0.303
-485.435	-58.414	0.127	0.055
-484.420	800.000	0.042	0.126
-483.405	66.546	0.233	0.238
-482.391	24.970	-0.162	-0.135
-481.376	-92.662	-0.070	0.020
-480.362	-133.087	0.329	0.042
-479.347	43.528	-0.201	-0.184
-478.332	575.461	0.111	0.273
-477.318	-200.000	0.008	-0.107
-476.303	-152.864	-0.150	-0.011
-475.289	-200.000	-0.028	-0.242
-474.274	381.157	0.085	0.175
-473.259	47.651	0.137	0.128
-472.245	-200.000	-0.063	-0.455
-471.230	510.189	-0.033	-0.078
-470.216	109.963	-0.080	0.096
-469.201	800.000	0.074	0.250
-468.186	-200.000	0.008	0.177
-467.172	-200.000	-0.041	-0.215
-466.157	-20.018	-0.011	-0.007
-465.143	207.378	0.060	-0.094
-464.128	-200.000	0.007	0.144
-463.113	27.699	0.195	0.165
-462.099	21.246	-0.076	-0.061
-461.084	7.257	-0.065	0.048
-460.070	-1.091	0.223	-0.158
-459.055	-10.706	-0.466	-0.309
-458.040	-63.026	-0.278	0.115
-457.026	168.280	0.143	0.204
-456.011	91.313	0.053	-0.060
-454.997	-9.972	-0.391	0.260
-453.982	-42.941	-0.310	-0.158
-452.968	-127.130	-0.157	0.023
-451.953	350.987	0.148	0.294
-450.938	27.920	0.257	0.217
-449.924	800.000	0.035	-0.133
-448.909	-200.000	0.001	-0.104
-447.895	800.000	0.076	-0.290
-446.880	-101.535	0.179	-0.044
-445.865	-25.795	0.240	-0.142
-444.851	-120.651	0.224	0.038
-443.836	103.926	-0.114	0.134
-442.822	-200.000	-0.009	0.044
-441.807	94.175	-0.182	0.207
-440.792	642.219	-0.138	0.353
-439.778	-200.000	-0.026	-0.192
-438.763	-200.000	-0.047	-0.317
-437.749	4.721	-0.052	0.038
-436.734	115.427	-0.256	0.313
-435.719	-125.851	-0.072	0.011
-434.705	72.755	-0.113	0.118
-433.690	197.538	-0.047	-0.071
-432.676	-31.078	-0.140	-0.079
-431.661	196.307	0.028	0.042
-430.646	164.232	0.056	0.079
-429.632	-151.887	-0.582	-0.043
-428.617	119.147	-0.019	0.023
-427.603	-33.156	-0.202	-0.112
-426.588	-128.551	0.199	0.028
-425.573	-66.704	-0.265	0.105
-424.559	-200.000	0.002	-0.227
-423.544	18.341	0.163	0.130
-422.530	116.743	0.079	-0.097
-421.515	372.954	0.128	-0.261
-420.500	-89.487	-0.058	-0.017
-419.486	-21.036	0.180	-0.110
-418.471	-200.000	0.038	0.283
-417.457	800.000	-0.071	0.253
-416.442	370.555	-0.128	0.260
-415.428	161.015	-0.204	-0.285
-414.413	-100.458	0.141	0.035
-413.398	119.333	0.115	0.143
-412.384	-200.000	-0.006	0.462
-411.369	-200.000	0.005	-0.310
-410.355	-94.534	0.162	-0.044
-409.340	800.000	0.066	0.194
-408.325	114.179	-0.173	-0.210
-407.311	-121.999	-0.114	-0.019
-406.296	335.141	-0.087	-0.169
-405.282	-131.340	-0.217	-0.029
-404.267	10.431	-0.340	-0.259
-403.252	-164.609	-0.145	0.007
-402.238	-200.000	-0.020	0.134
-401.223	492.251	0.155	0.355
-400.209	-45.369	0.118	0.058
-399.194	187.580	0.228	-0.340
-398.179	-200.000	0.007	-0.189
-397.165	159.068	-0.123	-0.171
-396.150	521.025	0.102	0.240
-395.136	302.583	-0.140	-0.258
-394.121	-200.000	-0.001	-0.106
-393.106	-200.000	0.024	-0.192
-392.092	112.363	0.102	-0.123
-391.077	-200.000	-0.029	-0.168
-390.063	800.000	-0.061	0.260
-389.048	-200.000	-0.021	-0.108
-388.033	-21.215	-0.053	-0.032
-387.019	-123.444	-0.327	0.052
-386.004	800.000	0.053	-0.166
-384.990	150.178	-0.029	-0.039
-383.975	-200.000	0.038	0.188
-382.960	-200.000	-0.009	0.048
-381.946	476.858	-0.093	0.211
-380.931	800.000	0.026	-0.081
-379.917	800.000	0.095	0.317
-378.902	123.023	0.064	0.080
-377.888	-200.000	-0.020	0.119
-376.873	710.548	0.057	0.151
-375.858	303.347	0.185	0.343
-374.844	34.152	0.109	-0.095
-373.829	-200.000	-0.062	-0.533
-372.815	114.831	0.152	-0.185
-371.800	-200.000	-0.005	0.034
-370.785	-92.148	0.268	-0.076
-369.771	-104.339	0.060	-0.014
-368.756	-171.444	-0.135	0.004
-367.742	-158.845	-0.093	-0.005
-366.727	-25.514	0.184	0.109
-365.712	800.000	-0.070	0.211
-364.698	-200.000	0.011	0.178
-363.683	-200.000	-0.012	0.058
-362.669	-145.081	0.344	-0.031
-361.654	-106.843	-0.220	0.049
-360.639	-72.551	-0.116	0.043
-359.625	800.000	-0.117	0.443
-358.610	-41.877	0.115	0.059
-357.596	-200.000	0.025	0.165
-356.581	-200.000	-0.025	-0.142
-355.566	-89.230	-0.258	-0.076
-354.552	160.892	-0.224	-0.312
-353.537	-200.000	-0.007	0.135
-352.523	184.323	0.025	-0.036
-351.508	-175.347	0.202	0.006
-350.493	800.000	0.150	-0.471
-349.479	800.000	-0.098	0.293
-348.464	-200.000	0.005	-0.075
-347.450	800.000	-0.071	-0.252
-346.435	-153.429	-0.123	-0.009
-345.420	-37.460	0.209	-0.111
-344.406	369.155	0.026	0.052
-343.391	-7.352	-0.022	-0.015
-342.377	800.000	-0.021	0.068
-341.362	800.000	0.076	-0.294
-340.348	70.070	-0.115	0.118
-339.333	-200.000	-0.052	0.424
-338.318	-64.951	0.082	0.033
-337.304	-200.000	-0.008	0.215
-336.289	95.657	0.274	-0.312
-335.275	800.000	0.125	0.380
-334.260	-21.565	-0.262	-0.159
-333.245	-200.000	0.055	-0.258
-332.231	800.000	-0.059	0.181
-331.216	-112.168	0.136	0.027
-330.202	800.000	-0.092	0.255
-329.187	800.000	-0.078	0.288
-328.172	79.746	-0.137	-0.146
-327.158	262.343	-0.151	0.261
-326.143	800.000	0.052	-0.195
-325.129	-165.735	0.247	-0.011
-324.114	-11.480	0.293	0.192
-323.099	174.406	0.108	-0.155
-322.085	385.111	-0.088	-0.181
-321.070	-200.000	-0.016	0.097
-320.056	-35.700	0.312	-0.169
-319.041	-77.269	0.498	-0.173
-318.026	231.405	0.277	-0.453
-317.012	-80.073	0.224	0.075
-315.997	48.177	0.101	0.094
-314.983	-96.617	0.537	-0.141
-313.968	-72.206	-0.043	0.016
-312.953	-200.000	0.023	-0.298
-311.939	-102.245	0.111	-0.027
-310.924	-200.000	-0.058	-0.288
-309.910	27.055	-0.168	0.141
-308.895	800.000	-0.083	0.286
-307.880	-116.031	-0.206	0.038
-306.866	800.000	0.092	-0.292
-305.851	800.000	0.039	0.152
-304.837	26.245	0.040	0.034
-303.822	342.934	0.076	-0.148
-302.807	-31.021	0.224	-0.126
-301.793	-66.631	0.139	0.055
-300.778	800.000	-0.147	-0.451
-299.764	-200.000	0.027	-0.231
-298.749	278.946	0.073	0.129
-297.735	-28.004	-0.106	-0.061
-296.720	113.281	-0.216	-0.260
-295.705	176.663	0.210	0.304
-294.691	-21.335	0.039	-0.024
-293.676	79.953	0.161	-0.172
-292.662	800.000	0.043	-0.121
-291.647	-157.574	0.114	-0.007
-290.632	-141.346	0.149	0.015
-289.618	8.333	0.335	0.250
-288.603	-145.020	-0.305	-0.028
-287.589	800.000	-0.020	-0.067
-286.574	17.563	-0.200	0.158
-285.559	-200.000	0.001	0.046
-284.545	206.824	0.075	0.117
-283.530	-200.000	-0.039	-0.194
-282.516	800.000	-0.021	-0.089
-281.501	-200.000	-0.071	-0.348
-280.486	135.678	0.290	-0.376
-279.472	-68.299	-0.176	0.068
-278.457	-129.555	-0.207	-0.028
-277.443	-82.644	-0.248	-0.080
-276.428	-39.342	-0.169	-0.088
-275.413	-200.000	-0.027	0.188
-274.399	231.381	0.048	0.078
-273.384	-111.025	0.299	-0.061
-272.370	800.000	-0.116	-0.358
-271.355	-101.313	-0.148	-0.036
-270.340	-200.000	-0.021	-0.285
-269.326	800.000	0.065	0.205
-268.311	-137.222	-0.082	-0.009
-267.297	-200.000	0.007	-0.163
-266.282	84.262	0.105	-0.114
-265.267	-200.000	0.001	0.046
-264.253	800.000	0.040	0.118
-263.238	71.036	0.117	-0.120
-262.224	295.533	-0.129	-0.234
-261.209	800.000	0.041	-0.116
-260.195	-50.505	0.226	0.106
-259.180	-162.312	-0.095	-0.005
-258.165	-101.724	-0.384	-0.092
-257.151	-114.819	0.684	-0.130
-256.136	92.801	0.238	-0.267
-255.122	16.349	0.136	0.107
-254.107	651.055	0.072	0.183
-253.092	-115.770	-0.245	0.046
-252.078	73.551	0.158	-0.165
-251.063	-200.000	0.037	0.210
-250.049	-45.374	0.303	0.149
-249.034	311.305	-0.135	-0.251
-248.019	185.860	0.096	-0.142
-247.005	128.450	-0.200	0.253
-245.990	-158.393	0.249	-0.014
-244.976	-200.000	0.017	-0.136
-243.961	-91.030	0.274	-0.078
-242.946	800.000	0.011	-0.043
-241.932	32.294	-0.266	-0.228
-240.917	-200.000	-0.064	0.395
-239.903	-2.605	-0.264	0.183
-238.888	213.924	-0.121	-0.190
-237.873	-47.648	0.018	0.009
-236.859	450.109	-0.126	0.277
-235.844	-137.355	0.165	0.019
-234.830	161.035	-0.155	0.216
-233.815	-200.000	-0.007	-0.067
-232.800	-99.027	0.106	-0.027
-231.786	-112.823	-0.144	-0.028
-230.771	-159.213	0.193	-0.011
-229.757	-200.000	0.012	-0.190
-228.742	381.557	0.065	0.133
-227.727	800.000	-0.040	0.115
-226.713	-21.888	-0.116	-0.070
-225.698	-50.769	0.369	0.173
-224.684	373.200	0.183	-0.369
-223.669	-126.639	-0.348	-0.051
-222.655	361.126	0.111	0.221
-221.640	-200.000	-0.037	0.209
-220.625	385.461	-0.091	0.187
-219.611	-200.000	0.012	0.058
-218.596	800.000	-0.104	-0.306
-217.582	-54.822	-0.208	0.093
-216.567	75.404	0.065	0.068
-215.552	-57.795	-0.104	-0.045
-214.538	474.165	-0.046	0.103
-213.523	-97.936	-0.235	-0.060
-212.509	800.000	0.030	-0.099
-211.494	-146.860	-0.130	-0.011
-210.479	-96.340	0.486	0.128
-209.465	85.077	-0.110	0.119
-208.450	-200.000	-0.026	0.365
-207.436	-45.557	-0.245	0.120
-206.421	-102.121	-0.154	0.037
-205.406	800.000	-0.097	0.283
-204.392	-92.099	0.194	0.054
-203.377	-53.305	0.076	0.035
-202.363	263.759	-0.132	0.229
-201.348	800.000	0.066	0.191
-200.333	-200.000	0.019	0.225
-199.319	-1.268	-0.055	0.038
-198.304	-44.463	-0.144	-0.071
-197.290	-49.904	0.110	0.052
-196.275	800.000	-0.066	0.201
-195.260	-200.000	0.017	0.174
-194.246	800.000	0.063	0.183
-193.231	128.485	-0.094	-0.119
-192.217	82.148	0.100	0.108
-191.202	481.374	-0.091	0.205
-190.187	-107.876	0.103	-0.022
-189.173	-128.051	-0.303	0.043
-188.158	250.032	0.044	-0.073
-187.144	800.000	0.055	0.185
-186.129	-115.937	-0.373	0.069
-185.114	58.869	0.185	0.180
-184.100	356.164	-0.071	-0.140
-183.085	-200.000	-0.050	0.236
-182.071	800.000	-0.046	-0.153
-181.056	-200.000	0.013	-0.124
-180.042	330.212	0.064	0.123
-179.027	671.298	-0.089	-0.230
-178.012	141.436	0.182	0.239
-176.998	-133.951	0.267	-0.033
-175.983	-200.000	0.032	0.191
-174.969	267.263	-0.055	-0.096
-173.954	70.721	-0.120	0.124
-172.939	-19.678	0.254	-0.156
-171.925	11.280	-0.108	0.082
-170.910	361.568	-0.165	0.329
-169.896	-129.290	0.334	-0.046
-168.881	-200.000	-0.016	0.368
-167.866	779.822	-0.103	0.280
-166.852	169.911	0.050	0.071
-165.837	-148.416	0.140	-0.011
-164.823	-200.000	0.005	0.291
-163.808	-90.196	-0.093	-0.027
-162.793	-28.860	-0.182	-0.104
-161.779	-48.595	0.293	0.139
-160.764	95.045	0.194	-0.218
-159.750	-56.561	0.125	0.055
-158.735	-141.097	-0.188	-0.019
-157.720	800.000	-0.030	-0.115
-156.706	56.180	-0.154	0.148
-155.691	451.307	0.112	0.244
-154.677	-151.531	0.049	0.004
-153.662	-10.791	0.221	0.145
-152.647	625.148	-0.047	-0.117
-151.633	800.000	-0.046	-0.154
-150.618	38.615	0.117	-0.103
-149.604	-200.000	-0.013	0.279
-148.589	800.000	-0.088	0.254
-147.574	69.176	0.122	0.124
-146.560	155.304	-0.086	0.118
-145.545	-163.638	-0.212	-0.010
-144.531	44.628	0.079	0.072
-143.516	50.039	0.095	0.089
-142.502	800.000	-0.097	-0.332
-141.487	-200.000	0.001	-0.122
-140.472	498.451	-0.079	0.179
-139.458	-118.171	0.057	-0.010
-138.443	27.706	0.146	0.121
-137.429	-54.279	-0.162	-0.073
-136.414	-200.000	0.004	0.353
-135.399	-200.000	-0.002	-0.100
-134.385	31.723	-0.203	0.173
-133.370	-47.267	-0.103	-0.050
-132.356	45.511	0.198	0.181
-131.341	-200.000	0.011	0.343
-130.326	70.500	0.234	0.240
-129.312	-152.982	-0.178	-0.012
-128.297	-126.854	0.036	-0.005
-127.283	-172.372	0.105	0.003
-126.268	-0.682	0.227	-0.159
-125.253	342.027	-0.170	-0.330
-124.239	-87.844	0.339	-0.101
-123.224	-200.000	-0.025	-0.277
-122.210	495.587	0.049	0.111
-121.195	73.141	-0.080	-0.082
-120.180	800.000	0.049	0.152
-119.166	-168.992	0.122	0.004
-118.151	-112.533	-0.083	0.016
-117.137	33.065	-0.163	-0.139
-116.122	-2.851	0.086	-0.059
-115.107	200.011	-0.115	-0.175
-114.093	-200.000	-0.014	-0.187
-113.078	487.162	0.131	0.296
-112.064	471.846	-0.151	-0.336
-111.049	-112.697	0.028	-0.005
-110.034	34.240	-0.239	-0.206
-109.020	33.403	0.160	-0.137
-108.005	83.859	0.173	-0.186
-106.991	90.044	0.126	0.139
-105.976	-200.000	0.054	0.369
-104.962	741.747	0.052	0.138
-103.947	-200.000	-0.008	-0.229
-102.932	-29.550	0.074	-0.042
-101.918	-200.000	0.003	-0.061
-100.903	0.281	0.199	-0.140
-99.889	-200.000	0.015	0.132
-98.874	240.236	0.212	0.349
-97.859	800.000	0.050	-0.172
-96.845	403.309	0.193	-0.401
-95.830	115.097	-0.202	-0.244
-94.816	-89.076	-0.124	-0.036
-93.801	-24.863	0.290	-0.170
-92.786	-32.728	-0.083	0.045
-91.772	-125.205	0.076	0.011
-90.757	11.616	-0.250	-0.190
-89.743	-0.075	-0.064	-0.045
-88.728	-200.000	0.019	-0.202
-87.713	125.184	0.075	0.093
-86.699	236.791	0.101	0.165
-85.684	-27.973	-0.334	0.191
-84.670	212.613	-0.174	0.272
-83.655	-187.743	-0.186	0.002
-82.640	79.213	0.158	-0.167
-81.626	334.900	0.098	0.188
-80.611	418.520	-0.086	0.181
-79.597	-147.395	0.336	0.028
-78.582	117.467	0.168	-0.204
-77.567	-117.796	-0.146	-0.026
-76.553	-166.600	0.118	-0.005
-75.538	-34.259	-0.429	0.232
-74.524	455.897	-0.117	-0.256
-73.509	-200.000	0.002	0.113
-72.494	40.037	0.062	0.055
-71.480	285.762	-0.068	0.121
-70.465	-90.977	-0.101	-0.029
-69.451	508.663	-0.026	0.059
-68.436	-143.350	0.255	-0.024
-67.422	-85.418	0.240	0.074
-66.407	-200.000	-0.052	0.285
-65.392	-200.000	-0.005	0.097
-64.378	-125.793	0.374	0.056
-63.363	-96.541	-0.296	-0.077
-62.349	68.914	-0.362	0.367
-61.334	23.453	-0.965	-0.783
-60.319	44.248	0.240	0.217
-59.305	800.000	-0.278	-0.840
-58.290	213.831	0.590	0.920
-57.276	579.469	0.620	1.498
-56.261	-200.000	97.125	572.019
-55.246	631.247	1401.949	3500.639
-54.232	185.918	2617.953	3838.888
-53.217	114.866	2311.147	2780.299
-52.203	43.823	1922.279	1736.121
-51.188	37.549	1708.769	1495.205
-50.173	34.724	1664.163	1434.937
-49.159	51.802	1712.794	1607.352
-48.144	55.091	1729.530	1648.021
-47.130	37.259	1686.274	1473.086
-46.115	34.307	1671.326	1437.734
-45.100	33.999	1667.083	1431.708
-44.086	34.096	1663.778	1429.547
-43.071	34.062	1661.273	1427.076
-42.057	34.081	1659.136	1425.330
-41.042	34.121	1656.783	1423.553
-40.027	34.122	1654.648	1421.667
-39.013	34.066	1652.667	1419.490
-37.998	34.055	1651.092	1417.997
-36.984	34.144	1649.590	1417.319
-35.969	34.223	1648.294	1416.734
-34.954	34.310	1646.357	1415.661
-33.940	34.352	1644.502	1414.321
-32.925	34.251	1642.759	1412.013
-31.911	34.185	1641.268	1410.187
-30.896	34.278	1639.368	1409.189
-29.881	34.220	1637.883	1407.432
-28.867	34.198	1636.077	1405.655
-27.852	34.237	1634.377	1404.431
-26.838	34.332	1632.397	1403.374
-25.823	34.270	1631.568	1402.150
-24.809	34.259	1630.243	1400.871
-23.794	34.291	1628.547	1399.596
-22.779	34.241	1627.275	1398.076
-21.765	34.290	1625.862	1397.170
-20.750	34.261	1624.214	1395.482
-19.736	34.314	1622.448	1394.303
-18.721	34.338	1621.265	1393.403
-17.706	34.290	1619.903	1391.830
-16.692	34.252	1618.270	1390.089
-15.677	34.316	1616.619	1389.086
-14.663	34.288	1615.441	1387.816
-13.648	34.242	1613.863	1386.068
-12.633	34.298	1612.316	1385.094
-11.619	34.285	1610.916	1383.742
-10.604	34.320	1609.067	1382.349
-9.590	34.317	1608.249	1381.574
-8.575	34.287	1607.337	1380.515
-7.560	34.258	1605.879	1378.999
-6.546	34.284	1604.495	1377.945
-5.531	34.203	1603.866	1376.764
-4.517	34.354	1602.076	1376.263
-3.502	34.242	1601.131	1374.589
-2.487	34.414	1599.147	1374.067
-1.473	34.128	1587.925	1362.322
-0.458	31.316	1568.211	1325.438
0.556	26.537	1567.818	1290.691
1.571	23.981	1591.263	1291.346
2.586	23.263	1605.118	1297.219
3.600	20.816	1552.718	1237.393
4.615	12.992	1443.860	1098.643
5.629	6.174	1380.230	1006.614
6.644	5.102	1372.245	993.877
7.659	4.969	1370.588	991.740
8.673	5.085	1369.119	991.330
9.688	4.993	1367.774	989.683
10.702	4.857	1364.919	986.666
11.717	8.120	1371.165	1011.830
12.731	15.590	1384.968	1069.647
13.746	19.596	1390.230	1099.164
14.761	18.702	1387.992	1091.616
15.775	17.616	1384.939	1082.224
16.790	16.482	1382.374	1072.928
17.804	15.659	1379.780	1065.609
18.819	15.273	1378.414	1062.012
19.834	14.999	1377.335	1059.356
20.848	14.687	1376.285	1056.476
21.863	14.482	1374.915	1054.035
22.877	14.328	1373.501	1051.889
23.892	14.260	1373.182	1051.122
24.907	14.285	1371.485	1049.885
25.921	14.277	1370.721	1049.156
26.936	14.434	1369.716	1049.283
27.950	14.422	1369.054	1048.607
28.965	14.407	1368.378	1047.907
29.980	14.659	1366.483	1047.940
30.994	14.627	1365.553	1046.938
32.009	14.724	1364.410	1046.574
33.023	14.644	1363.208	1045.060
34.038	14.550	1361.956	1043.420
35.053	14.482	1360.699	1041.939
36.067	14.538	1359.467	1041.252
37.082	14.506	1358.034	1039.867
38.096	14.446	1357.607	1039.069
39.111	14.609	1356.649	1039.261
40.126	14.528	1355.888	1038.079
41.140	14.347	1355.304	1036.419
42.155	14.214	1354.932	1035.212
43.169	14.307	1354.437	1035.323
44.184	14.337	1354.034	1035.108
45.199	14.328	1353.506	1034.560
46.213	14.332	1353.370	1034.387
47.228	14.472	1351.882	1034.025
48.242	14.435	1350.815	1032.891
49.257	14.478	1349.142	1031.787
50.271	14.368	1348.092	1030.210
51.286	14.406	1346.708	1029.299
52.301	14.426	1345.250	1028.214
53.315	14.435	1344.184	1027.368
54.330	14.318	1343.091	1025.717
55.344	14.341	1341.876	1024.841
56.359	14.313	1340.750	1023.717
57.374	14.269	1340.146	1022.895
58.388	14.225	1339.593	1022.112
59.403	14.189	1338.795	1021.194
60.417	14.203	1337.988	1020.571
61.432	14.194	1337.117	1019.760
62.447	14.095	1336.585	1018.660
63.461	14.148	1335.164	1017.811
64.476	14.031	1334.726	1016.669
65.490	14.165	1332.971	1016.063
66.505	14.229	1331.317	1015.101
67.520	14.228	1330.292	1014.227
68.534	14.128	1329.325	1012.790
69.549	14.189	1327.965	1012.032
70.563	14.093	1327.343	1010.886
71.578	14.118	1326.053	1009.967
72.593	14.027	1325.121	1008.618
73.607	13.995	1324.769	1008.067
74.622	14.107	1323.325	1007.558
75.636	14.051	1322.897	1006.800
76.651	14.143	1321.664	1006.334
77.666	14.075	1321.947	1006.043
78.680	14.112	1321.289	1005.678
79.695	14.088	1320.290	1004.686
80.709	14.217	1319.520	1004.792
81.724	14.292	1318.462	1004.349
82.739	14.348	1317.327	1003.731
83.753	14.385	1316.995	1003.611
84.768	14.436	1315.868	1002.973
85.782	14.547	1314.864	1002.784
86.797	14.466	1313.445	1001.129
87.812	14.325	1312.468	999.449
88.826	14.400	1311.465	999.046
89.841	14.480	1310.395	998.621
90.855	14.528	1309.146	997.866
91.870	14.555	1308.628	997.549
92.884	14.545	1307.585	996.604
93.899	14.450	1306.809	995.356
94.914	14.641	1306.257	995.990
95.928	14.672	1305.016	995.137
96.943	14.511	1304.276	993.527
97.957	14.593	1303.235	993.137
98.972	14.531	1302.138	991.845
99.987	14.606	1300.817	991.192
101.001	14.519	1300.207	990.126
102.016	14.540	1299.232	989.416
103.030	14.518	1298.718	988.812
104.045	14.620	1297.490	988.389
105.060	14.395	1296.835	986.475
106.074	14.364	1295.031	984.828
107.089	14.238	1293.569	982.885
108.103	14.129	1292.448	981.306
109.118	14.208	1290.892	980.500
110.133	14.255	1289.615	979.724
111.147	14.234	1288.065	978.332
112.162	14.287	1286.709	977.530
113.176	14.307	1286.164	977.149
114.191	14.256	1285.358	976.149
115.206	14.339	1283.854	975.409
116.220	14.237	1282.403	973.624
117.235	14.209	1281.717	972.848
118.249	14.341	1280.826	972.860
119.264	14.266	1279.390	971.245
120.279	14.280	1278.263	970.385
121.293	14.224	1277.244	969.197
122.308	14.190	1276.671	968.484
123.322	14.239	1274.990	967.405
124.337	14.180	1274.039	966.253
125.352	14.202	1272.925	965.455
126.366	14.134	1272.244	964.454
127.381	14.193	1270.832	963.643
128.395	14.177	1270.229	963.008
129.410	14.162	1269.346	962.166
130.424	14.272	1268.440	962.027
131.439	14.230	1267.036	960.635
132.454	14.277	1266.366	960.318
133.468	14.352	1265.001	959.628
134.483	14.416	1264.497	959.527
135.497	14.399	1263.236	958.390
136.512	14.336	1262.219	957.168
137.527	14.410	1260.790	956.425
138.541	14.341	1259.813	955.207
139.556	14.434	1258.236	954.456
140.570	14.403	1257.900	953.942
141.585	14.509	1255.861	952.914
142.600	14.566	1254.921	952.441
143.614	14.492	1254.742	951.802
144.629	14.714	1252.827	951.528
145.643	14.554	1252.042	949.938
146.658	14.468	1250.701	948.348
147.673	14.395	1249.075	946.614
148.687	14.438	1248.042	945.996
149.702	14.455	1246.355	944.729
150.716	14.401	1245.502	943.691
151.731	14.327	1244.692	942.573
152.746	14.351	1243.577	941.784
153.760	14.426	1242.084	940.995
154.775	14.538	1240.967	940.693
155.789	14.560	1239.954	939.968
156.804	14.571	1238.673	938.978
157.819	14.595	1237.615	938.224
158.833	14.654	1237.284	938.223
159.848	14.688	1235.795	937.200
160.862	14.616	1235.199	936.265
161.877	14.575	1233.887	934.954
162.892	14.495	1232.996	933.753
163.906	14.505	1231.934	932.919
164.921	14.526	1231.328	932.495
165.935	14.525	1230.339	931.656
166.950	14.526	1229.997	931.325
167.964	14.496	1229.077	930.373
168.979	14.525	1228.259	929.837
169.994	14.634	1227.024	929.428
171.008	14.591	1226.556	928.752
172.023	14.561	1226.022	928.096
173.037	14.819	1225.029	928.697
174.052	14.815	1224.518	928.207
175.067	14.590	1223.474	926.080
176.081	14.565	1222.055	924.785
177.096	14.648	1220.825	924.236
178.110	14.637	1220.357	923.737
179.125	14.637	1219.017	922.644
180.140	14.673	1217.887	921.903
181.154	14.784	1216.662	921.510
182.169	14.767	1215.805	920.684
183.183	14.717	1214.505	919.342
184.198	14.856	1212.812	918.746
185.213	14.864	1212.196	918.239
186.227	14.990	1210.461	917.535
187.242	14.843	1210.404	916.604
188.256	14.853	1209.361	915.789
189.271	15.007	1208.071	915.574
190.286	14.748	1207.150	913.380
191.300	14.738	1206.185	912.511
192.315	14.575	1205.633	911.123
193.329	14.531	1205.362	910.599
194.344	14.630	1204.166	910.153
195.359	14.825	1203.500	910.634
196.373	14.828	1203.101	910.267
197.388	14.919	1202.763	910.427
198.402	15.037	1202.186	910.552
199.417	15.056	1201.724	910.222
200.432	15.171	1200.675	909.971
201.446	15.220	1199.827	909.515
202.461	15.230	1199.274	909.071
203.475	15.275	1197.916	908.203
204.490	15.157	1196.468	906.387
205.504	15.055	1195.462	904.993
206.519	15.029	1194.197	903.813
207.534	14.982	1192.848	902.461
208.548	15.107	1191.803	902.264
209.563	15.057	1191.379	901.593
210.577	15.076	1190.620	901.043
211.592	15.198	1189.373	900.674
212.607	15.235	1189.142	900.621
213.621	15.199	1188.011	899.492
214.636	15.187	1186.681	898.339
215.650	15.089	1186.440	897.551
216.665	15.340	1185.004	897.728
217.680	15.409	1184.055	897.299
218.694	15.305	1183.790	896.466
219.709	15.430	1182.635	896.177
220.723	15.310	1181.998	894.975
221.738	15.349	1181.553	894.766
222.753	15.371	1180.402	893.934
223.767	15.327	1179.881	893.225
224.782	15.464	1179.152	893.325
225.796	15.493	1179.096	893.355
226.811	15.442	1178.058	892.221
227.826	15.341	1177.328	891.051
228.840	15.434	1176.494	890.833
229.855	15.350	1175.718	889.724
230.869	15.436	1174.874	889.463
231.884	15.399	1174.056	888.570
232.899	15.419	1172.956	887.764
233.913	15.264	1172.517	886.532
234.928	15.509	1171.443	886.935
235.942	15.319	1171.090	885.587
236.957	15.303	1170.134	884.699
237.972	15.408	1169.130	884.418
238.986	15.420	1168.722	884.091
240.001	15.329	1168.461	883.336
241.015	15.533	1166.986	883.217
242.030	15.550	1166.295	882.704
243.045	15.524	1165.420	881.829
244.059	15.499	1164.687	881.064
245.074	15.488	1164.149	880.522
246.088	15.573	1163.176	880.153
247.103	15.676	1162.339	879.984
248.117	15.666	1161.956	879.562
249.132	15.834	1161.042	879.669
250.147	15.945	1159.935	879.331
251.161	16.074	1159.447	879.561
252.176	16.001	1158.937	878.715
253.190	16.011	1158.537	878.385
254.205	15.948	1157.879	877.479
255.220	16.044	1157.334	877.490
256.234	15.996	1156.683	876.667
257.249	15.990	1156.203	876.195
258.263	15.979	1155.150	875.265
259.278	16.016	1154.813	875.123
260.293	16.049	1154.015	874.610
261.307	16.115	1153.664	874.612
262.322	16.147	1152.956	874.162
263.336	16.105	1152.627	873.616
264.351	16.183	1151.616	873.178
265.366	16.269	1150.842	872.959
266.380	16.266	1149.782	872.061
267.395	16.124	1149.527	871.057
268.409	16.158	1148.140	870.102
269.424	16.009	1148.433	869.481
270.439	16.174	1147.248	869.360
271.453	16.043	1146.598	868.113
272.468	15.970	1145.713	866.991
273.482	16.034	1145.171	866.831
274.497	16.116	1144.288	866.510
275.512	16.129	1143.545	865.934
276.526	16.116	1142.683	865.141
277.541	16.162	1142.088	864.851
278.555	16.121	1141.392	864.036
279.570	16.230	1140.781	864.054
280.585	16.231	1140.251	863.580
281.599	16.235	1139.040	862.606
282.614	16.315	1137.817	862.013
283.628	16.252	1136.835	860.875
284.643	16.241	1136.256	860.302
285.657	16.251	1135.389	859.623
286.672	16.350	1134.215	859.157
287.687	16.266	1133.553	858.157
288.701	16.333	1132.882	857.914
289.716	16.401	1131.364	857.032
290.730	16.369	1131.203	856.672
291.745	16.389	1130.676	856.299
292.760	16.270	1130.229	855.281
293.774	16.389	1129.769	855.456
294.789	16.462	1128.961	855.142
295.803	16.471	1128.213	854.545
296.818	16.436	1127.273	853.578
297.833	16.378	1126.435	852.577
298.847	16.495	1125.352	852.274
299.862	16.486	1124.972	851.862
300.876	16.458	1124.644	851.398
301.891	16.555	1123.781	851.160
302.906	16.750	1122.559	851.139
303.920	16.714	1122.127	850.555
304.935	16.668	1122.075	850.209
305.949	16.758	1121.183	849.906
306.964	16.683	1120.486	848.927
307.979	16.625	1119.905	848.123
308.993	16.742	1119.326	848.197
310.008	16.871	1118.124	847.857
311.022	16.721	1117.581	846.618
312.037	16.802	1116.655	846.247
313.052	16.775	1115.541	845.194
314.066	16.773	1114.720	844.484
315.081	16.578	1114.233	843.072
316.095	16.675	1113.091	842.615
317.110	16.691	1112.146	841.903
318.125	16.679	1112.015	841.672
319.139	16.702	1111.258	841.137
320.154	16.641	1110.483	840.174
321.168	16.749	1109.988	840.262
322.183	16.703	1109.457	839.555
323.197	16.645	1109.090	838.915
324.212	16.703	1108.204	838.459
325.227	16.653	1107.537	837.635
326.241	16.762	1106.975	837.673
327.256	16.729	1106.312	836.932
328.270	16.726	1105.158	835.973
329.285	16.790	1103.966	835.312
330.300	16.817	1103.530	835.041
331.314	16.800	1102.420	834.042
332.329	16.700	1101.426	832.725
333.343	16.897	1100.120	832.632
334.358	16.863	1099.598	831.998
335.373	17.015	1098.947	832.176
336.387	17.006	1098.357	831.612
337.402	17.006	1097.179	830.644
338.416	16.943	1096.758	829.947
339.431	17.118	1096.197	830.302
340.446	17.029	1096.034	829.670
341.460	17.139	1094.994	829.348
342.475	17.229	1094.031	828.984
343.489	17.176	1093.183	828.008
344.504	17.277	1092.378	827.819
345.519	17.296	1091.750	827.364
346.533	17.360	1090.773	826.860
347.548	17.307	1090.331	826.196
348.562	17.312	1089.270	825.340
349.577	17.288	1088.445	824.527
350.592	17.208	1087.435	823.300
351.606	17.210	1086.414	822.463
352.621	17.201	1086.039	822.064
353.635	17.065	1085.565	820.974
354.650	17.216	1084.863	821.100
355.665	17.074	1084.119	819.783
356.679	17.128	1083.441	819.457
357.694	17.246	1082.806	819.470
358.708	17.252	1082.340	819.075
359.723	17.229	1081.895	818.554
360.738	17.388	1080.530	818.217
361.752	17.302	1080.441	817.661
362.767	17.334	1079.903	817.335
363.781	17.420	1079.218	817.157
364.796	17.513	1078.419	816.926
365.810	17.566	1078.204	816.949
366.825	17.510	1077.402	815.997
367.840	17.609	1076.891	816.015
368.854	17.670	1076.596	816.007
369.869	17.664	1075.707	815.236
370.883	17.721	1074.393	814.437
371.898	17.719	1073.521	813.696
372.913	17.580	1073.192	812.712
373.927	17.643	1072.901	812.720
374.942	17.571	1072.517	812.016
375.956	17.609	1072.095	811.804
376.971	17.685	1071.330	811.514
377.986	17.709	1070.735	811.105
379.000	17.927	1070.283	811.728
380.015	17.855	1069.790	810.939
381.029	17.827	1069.188	810.278
382.044	17.827	1068.275	809.518
383.059	17.743	1067.799	808.686
384.073	17.878	1066.448	808.229
385.088	17.916	1065.915	807.934
386.102	17.885	1065.113	807.108
387.117	17.806	1064.136	805.922
388.132	17.787	1062.980	804.888
389.146	17.871	1061.899	804.394
390.161	17.776	1061.369	803.474
391.175	17.816	1060.808	803.164
392.190	17.866	1059.916	802.653
393.205	18.002	1059.569	802.960
394.219	17.913	1058.874	801.945
395.234	17.906	1057.611	800.885
396.248	17.933	1056.361	799.995
397.263	17.959	1055.581	799.455
398.278	17.840	1055.209	798.544
399.292	17.749	1054.732	797.686
400.307	17.787	1053.639	796.969
401.321	17.778	1053.397	796.671
402.336	17.858	1052.512	796.303
403.350	17.781	1051.657	795.229
404.365	17.803	1051.248	794.950
405.380	17.854	1050.381	794.464
406.394	18.052	1049.361	794.543
407.409	18.083	1048.840	794.219
408.423	18.212	1048.374	794.399
409.438	18.168	1047.585	793.523
410.453	18.202	1047.255	793.363
411.467	18.390	1046.284	793.427
412.482	18.239	1045.756	792.258
413.496	18.401	1044.815	792.226
414.511	18.212	1044.632	791.140
415.526	18.371	1043.980	791.313
416.540	18.447	1043.754	791.421
417.555	18.370	1043.112	790.511
418.569	18.388	1042.674	790.189
419.584	18.352	1041.948	789.407
420.599	18.393	1041.387	789.100
421.613	147.937	1400.518	1791.325
422.628	135.275	1452.855	1791.447
