DTS Sentinel unit serial number:	SN413079Multiplexer serial number:	ORYXHardware model number:	OX4-SRSoftware version number:	ORYX F/W v4.00 Oryx Data Collector v3.7.2.0data status	okinstallation	princeton_trtdifferential loss correction	single-endedforward channel	channel 2reverse channel	N/Adate	2019/09/14time	03:07:35forward acquisition time	60.00reverse acquisition time	0.00gamma	496.2192k internal	0.2337k external	0.2337temperature offset calibration	1.0124default loss term (dB/km)	0.3790temperature slope calibration	1.0000multiplexer offset coefficient	1.0000multiplexer slope coefficient	1.0000fibre end	0.00T internal ref (°C)	26.58T ext. ref 1 (°C)	3.25T ext. ref 2 (°C)	21.64length (m)	temperature (°C)	Stokes	anti-Stokes-747.200	-145.317	-0.150	0.014
-746.185	-200.000	0.037	0.270
-745.171	157.490	0.248	-0.344
-744.156	258.016	0.039	-0.067
-743.142	-200.000	0.000	0.080
-742.127	265.197	0.159	0.278
-741.112	205.834	-0.136	-0.213
-740.098	800.000	-0.077	-0.221
-739.083	-115.860	-0.081	0.015
-738.069	-96.319	0.179	0.048
-737.054	-130.523	-0.218	0.030
-736.039	-94.669	-0.191	-0.052
-735.025	800.000	0.020	0.060
-734.010	231.748	0.054	0.088
-732.996	16.606	-0.122	-0.097
-731.981	800.000	-0.045	0.153
-730.966	72.470	-0.104	-0.109
-729.952	-200.000	0.006	-0.054
-728.937	800.000	-0.022	0.094
-727.923	-200.000	0.010	-0.287
-726.908	-80.328	0.133	-0.045
-725.894	-200.000	-0.030	-0.224
-724.879	-20.712	-0.137	0.084
-723.864	800.000	-0.022	0.065
-722.850	-200.000	0.002	0.222
-721.835	102.203	-0.118	0.139
-720.821	541.312	-0.052	0.123
-719.806	443.237	-0.043	-0.095
-718.791	68.119	-0.258	-0.265
-717.777	-132.681	-0.045	0.006
-716.762	109.648	-0.075	0.091
-715.748	-36.234	-0.144	0.078
-714.733	340.928	0.019	0.038
-713.718	-56.475	0.214	0.095
-712.704	-191.682	-0.173	0.002
-711.689	407.424	-0.244	-0.518
-710.675	-126.813	-0.375	0.056
-709.660	-133.375	0.218	-0.027
-708.645	-102.909	0.061	0.015
-707.631	-128.054	-0.168	0.024
-706.616	87.120	-0.402	-0.445
-705.602	456.491	-0.067	-0.150
-704.587	800.000	-0.048	-0.164
-703.572	-200.000	-0.066	-0.358
-702.558	-56.496	0.048	0.021
-701.543	-177.494	0.190	-0.005
-700.529	178.887	-0.096	-0.140
-699.514	430.540	0.130	-0.283
-698.499	-48.979	-0.156	-0.075
-697.485	105.282	0.113	-0.134
-696.470	-200.000	-0.011	-0.120
-695.456	-106.681	0.277	0.062
-694.441	702.239	0.121	0.320
-693.426	-107.935	-0.029	0.006
-692.412	121.636	0.015	-0.019
-691.397	-4.142	-0.230	-0.159
-690.383	-1.729	-0.157	0.111
-689.368	-49.371	0.330	0.158
-688.354	-160.744	-0.191	-0.010
-687.339	-200.000	0.048	-0.401
-686.324	-200.000	-0.010	0.124
-685.310	791.795	-0.047	0.130
-684.295	211.909	-0.098	0.155
-683.281	-200.000	0.023	0.134
-682.266	658.511	-0.024	0.061
-681.251	800.000	-0.045	-0.150
-680.237	-148.428	0.129	0.011
-679.222	27.695	-0.069	0.058
-678.208	-71.044	0.168	0.063
-677.193	-22.629	-0.163	0.099
-676.178	-200.000	-0.009	-0.053
-675.164	62.393	-0.032	0.032
-674.149	-22.385	-0.214	-0.130
-673.135	-69.366	-0.469	-0.180
-672.120	207.947	0.349	0.546
-671.105	-76.743	-0.187	-0.066
-670.091	-200.000	0.036	0.178
-669.076	744.807	-0.062	-0.166
-668.062	-200.000	-0.044	-0.280
-667.047	-141.552	0.099	0.010
-666.032	48.099	-0.131	-0.122
-665.018	-200.000	0.003	-0.227
-664.003	96.664	-0.116	-0.133
-662.989	-200.000	0.008	-0.233
-661.974	-105.533	-0.208	-0.047
-660.959	-82.083	-0.255	0.083
-659.945	-200.000	-0.013	0.191
-658.930	311.119	-0.126	-0.236
-657.916	-200.000	0.012	-0.226
-656.901	800.000	-0.076	0.232
-655.886	-47.486	0.147	-0.071
-654.872	-62.194	0.276	-0.115
-653.857	800.000	-0.038	-0.159
-652.843	-105.983	-0.428	-0.096
-651.828	-200.000	0.062	0.000
-650.814	108.264	0.096	0.115
-649.799	82.858	-0.021	-0.023
-648.784	-84.394	-0.201	-0.064
-647.770	144.762	0.077	-0.103
-646.755	-82.864	0.331	0.107
-645.741	800.000	-0.050	0.185
-644.726	-167.578	-0.345	0.014
-643.711	-200.000	-0.007	0.104
-642.697	-9.967	0.127	-0.085
-641.682	800.000	-0.111	0.325
-640.668	-200.000	0.051	0.261
-639.653	60.755	0.225	0.223
-638.638	-132.453	0.028	-0.004
-637.624	-191.362	-0.152	-0.002
-636.609	693.647	-0.029	0.076
-635.595	351.447	0.074	0.146
-634.580	-200.000	0.027	-0.135
-633.565	199.822	0.080	-0.123
-632.551	-145.224	-0.284	0.026
-631.536	-37.946	-0.172	0.091
-630.522	7.145	-0.270	-0.201
-629.507	-73.145	-0.192	-0.070
-628.492	-112.885	-0.235	-0.046
-627.478	-169.277	0.098	-0.004
-626.463	15.400	0.089	0.070
-625.449	-3.268	-0.352	-0.245
-624.434	-42.281	-0.220	0.112
-623.419	175.447	0.082	-0.119
-622.405	-200.000	-0.001	-0.117
-621.390	363.851	0.176	-0.353
-620.376	-200.000	-0.061	-0.446
-619.361	-149.925	-0.166	-0.013
-618.346	800.000	-0.026	-0.107
-617.332	17.569	0.207	-0.165
-616.317	60.927	-0.203	-0.201
-615.303	800.000	0.096	0.304
-614.288	-102.188	-0.451	0.108
-613.273	-33.252	0.118	0.065
-612.259	-48.866	-0.087	-0.042
-611.244	-119.729	0.537	0.093
-610.230	-67.635	-0.222	-0.087
-609.215	-200.000	-0.044	0.197
-608.201	-200.000	0.003	-0.124
-607.186	-200.000	-0.061	-0.310
-606.171	-68.506	0.282	-0.109
-605.157	800.000	-0.071	-0.288
-604.142	3.722	-0.291	0.212
-603.128	-200.000	0.007	-0.275
-602.113	74.698	0.221	-0.232
-601.098	-118.283	-0.065	0.012
-600.084	258.617	0.116	0.200
-599.069	800.000	0.021	0.083
-598.055	42.958	-0.202	-0.184
-597.040	190.065	0.095	-0.142
-596.025	-52.853	0.197	-0.090
-595.011	13.212	-0.203	0.157
-593.996	-4.047	0.103	-0.072
-592.982	-200.000	0.022	0.100
-591.967	-101.090	-0.263	-0.064
-590.952	240.873	-0.041	0.069
-589.938	-42.811	-0.079	0.040
-588.923	111.360	-0.215	0.259
-587.909	160.823	-0.102	0.142
-586.894	204.139	-0.347	-0.536
-585.879	800.000	-0.069	0.257
-584.865	311.840	0.108	0.202
-583.850	102.268	0.025	-0.029
-582.836	-123.531	-0.020	-0.003
-581.821	-170.684	0.407	0.014
-580.806	-129.457	0.409	-0.057
-579.792	-18.955	0.134	-0.083
-578.777	-134.794	0.167	-0.020
-577.763	-11.497	0.215	-0.141
-576.748	-55.957	0.159	0.071
-575.733	52.867	0.134	0.128
-574.719	-36.223	0.311	-0.167
-573.704	18.933	-0.059	-0.047
-572.690	-75.841	-0.331	0.117
-571.675	-0.753	0.077	0.054
-570.661	-156.384	-0.260	-0.016
-569.646	103.274	0.131	-0.153
-568.631	-29.562	0.197	-0.112
-567.617	-8.616	-0.434	-0.291
-566.602	800.000	0.039	-0.158
-565.588	6.703	0.181	-0.134
-564.573	-150.752	0.218	-0.017
-563.558	-133.055	0.159	0.020
-562.544	-200.000	-0.035	0.227
-561.529	27.255	0.220	-0.184
-560.515	800.000	0.025	0.084
-559.500	392.259	-0.054	0.113
-558.485	23.921	0.251	0.206
-557.471	-200.000	-0.061	0.413
-556.456	-130.074	-0.302	-0.041
-555.442	0.932	-0.313	-0.223
-554.427	-151.473	-0.093	0.007
-553.412	74.248	-0.178	-0.186
-552.398	-51.679	0.360	-0.167
-551.383	800.000	-0.104	0.399
-550.369	-200.000	-0.028	0.143
-549.354	116.995	0.128	0.157
-548.339	376.475	0.130	-0.264
-547.325	0.869	-0.099	-0.070
-546.310	-200.000	-0.010	-0.468
-545.296	285.367	0.109	0.196
-544.281	800.000	0.127	-0.483
-543.266	-31.748	0.395	-0.220
-542.252	-90.319	-0.090	-0.026
-541.237	173.231	-0.117	-0.168
-540.223	-200.000	-0.037	-0.278
-539.208	-119.185	0.098	0.017
-538.193	8.780	-0.136	0.102
-537.179	-0.276	-0.152	0.108
-536.164	-61.871	0.302	0.126
-535.150	-73.618	-0.162	-0.059
-534.135	-200.000	-0.043	-0.207
-533.121	-97.942	0.259	0.067
-532.106	314.573	-0.073	0.137
-531.091	-141.464	-0.324	-0.033
-530.077	430.904	-0.187	-0.403
-529.062	-81.301	-0.145	-0.048
-528.048	-88.723	0.264	0.078
-527.033	-59.707	0.225	-0.096
-526.018	-88.003	0.175	-0.052
-525.004	377.952	0.185	0.376
-523.989	-60.862	-0.231	-0.097
-522.975	503.748	0.028	0.064
-521.960	-39.983	-0.121	0.063
-520.945	-200.000	-0.025	-0.339
-519.931	-200.000	-0.007	0.173
-518.916	-45.302	0.111	0.055
-517.902	522.035	-0.042	-0.097
-516.887	668.324	0.076	0.196
-515.872	19.824	0.307	0.246
-514.858	289.715	-0.277	-0.499
-513.843	800.000	0.066	-0.229
-512.829	-118.699	0.138	-0.024
-511.814	-73.688	-0.588	-0.213
-510.799	518.466	0.038	0.088
-509.785	255.042	-0.157	-0.268
-508.770	-200.000	-0.020	0.110
-507.756	-196.105	0.179	-0.001
-506.741	-200.000	0.018	-0.105
-505.726	227.851	-0.050	0.080
-504.712	626.234	0.057	0.143
-503.697	-200.000	0.025	-0.150
-502.683	-79.832	-0.223	-0.075
-501.668	51.288	-0.356	-0.336
-500.653	-200.000	0.026	0.280
-499.639	12.250	0.060	0.046
-498.624	800.000	-0.041	-0.126
-497.610	800.000	-0.093	0.301
-496.595	196.241	0.067	0.101
-495.581	-200.000	-0.010	-0.106
-494.566	-29.046	0.128	-0.073
-493.551	-200.000	0.025	-0.272
-492.537	800.000	-0.134	0.477
-491.522	-99.651	0.104	0.026
-490.508	-200.000	0.087	0.000
-489.493	-0.294	0.354	0.250
-488.478	473.261	0.133	0.297
-487.464	62.312	-0.124	-0.123
-486.449	530.630	0.048	-0.112
-485.435	169.874	-0.145	-0.206
-484.420	155.444	-0.062	-0.085
-483.405	-6.982	-0.139	-0.094
-482.391	215.161	-0.076	-0.120
-481.376	277.910	0.084	-0.149
-480.362	-93.452	0.165	0.045
-479.347	800.000	-0.099	-0.291
-478.332	800.000	0.126	-0.381
-477.318	141.308	0.149	0.196
-476.303	109.681	-0.046	-0.054
-475.289	249.440	0.118	0.199
-474.274	-200.000	-0.017	-0.079
-473.259	-31.614	0.554	0.309
-472.245	207.745	-0.059	-0.092
-471.230	-4.298	-0.204	0.140
-470.216	-118.887	0.292	-0.051
-469.201	72.683	-0.039	0.041
-468.186	-142.084	-0.206	-0.020
-467.172	13.250	-0.234	0.180
-466.157	-170.129	-0.525	0.018
-465.143	-200.000	0.203	0.000
-464.128	-200.000	0.028	0.487
-463.113	-44.676	-0.315	0.156
-462.099	-66.555	-0.012	-0.005
-461.084	584.179	-0.069	-0.169
-460.070	-91.059	0.115	0.033
-459.055	800.000	-0.057	0.160
-458.040	191.572	0.083	-0.124
-457.026	42.198	0.121	0.109
-456.011	556.665	-0.043	0.103
-454.997	-64.363	-0.253	0.102
-453.982	-101.170	0.139	0.034
-452.968	-200.000	0.068	-0.299
-451.953	-129.231	-0.152	0.021
-450.938	290.433	-0.073	0.131
-449.924	735.689	0.196	-0.521
-448.909	162.745	0.084	0.117
-447.895	66.413	0.128	0.129
-446.880	-62.251	-0.236	-0.097
-445.865	-14.528	0.143	-0.092
-444.851	-137.407	-0.149	0.017
-443.836	-40.580	0.444	-0.229
-442.822	-14.569	0.273	-0.174
-441.807	-95.744	-0.321	0.085
-440.792	-43.436	0.110	-0.055
-439.778	123.049	0.116	0.145
-438.763	-88.789	0.318	0.094
-437.749	-200.000	-0.003	-0.024
-436.734	210.712	-0.142	-0.221
-435.719	-200.000	0.013	0.071
-434.705	800.000	0.013	-0.046
-433.690	16.718	-0.183	-0.144
-432.676	24.902	-0.302	-0.248
-431.661	91.880	-0.016	-0.018
-430.646	800.000	0.056	0.164
-429.632	-200.000	0.012	0.078
-428.617	-185.435	-0.221	0.003
-427.603	261.779	0.073	-0.126
-426.588	-69.522	0.430	-0.163
-425.573	-200.000	0.010	0.160
-424.559	-198.011	0.217	0.001
-423.544	-56.753	-0.271	0.119
-422.530	77.727	-0.084	0.088
-421.515	800.000	-0.066	0.203
-420.500	-18.940	0.074	0.046
-419.486	800.000	-0.049	0.180
-418.471	-200.000	-0.006	-0.130
-417.457	31.207	-0.260	0.221
-416.442	-27.332	-0.153	0.088
-415.428	-48.687	0.319	0.152
-414.413	509.062	0.039	0.090
-413.398	129.871	-0.127	-0.161
-412.384	-200.000	-0.023	-0.104
-411.369	-66.037	-0.312	0.123
-410.355	638.899	-0.031	0.077
-409.340	-98.547	-0.209	0.053
-408.325	431.166	-0.126	0.271
-407.311	-32.747	0.368	-0.203
-406.296	-95.146	0.274	-0.073
-405.282	321.097	-0.085	0.160
-404.267	43.616	0.203	0.184
-403.252	99.241	0.048	-0.055
-402.238	-200.000	0.024	-0.268
-401.223	-96.587	-0.265	-0.069
-400.209	800.000	0.018	0.075
-399.194	656.180	-0.047	0.119
-398.179	177.086	-0.147	0.211
-397.165	800.000	-0.059	-0.213
-396.150	218.002	-0.117	-0.184
-395.136	800.000	-0.051	-0.187
-394.121	239.875	0.118	0.194
-393.106	-200.000	0.019	0.263
-392.092	-151.489	0.281	-0.021
-391.077	228.127	-0.143	0.230
-390.063	-52.549	0.342	0.156
-389.048	-200.000	-0.024	0.126
-388.033	71.836	-0.240	0.247
-387.019	44.897	-0.164	0.149
-386.004	-98.846	0.145	-0.037
-384.990	-42.194	0.260	0.131
-383.975	137.894	0.151	0.196
-382.960	-68.773	-0.132	0.050
-381.946	-59.576	-0.282	0.120
-380.931	800.000	-0.068	-0.267
-379.917	50.312	-0.273	0.255
-378.902	800.000	-0.045	0.164
-377.888	233.606	0.084	0.136
-376.873	54.573	0.057	0.054
-375.858	-75.511	-0.011	-0.004
-374.844	-54.967	-0.031	0.014
-373.829	-40.548	-0.263	-0.135
-372.815	-50.933	-0.238	-0.110
-371.800	-76.469	-0.153	0.053
-370.785	-200.000	0.078	-0.344
-369.771	7.087	-0.156	-0.115
-368.756	30.177	0.403	0.340
-367.742	137.993	0.161	-0.208
-366.727	397.156	0.079	-0.163
-365.712	-44.714	0.247	0.122
-364.698	800.000	0.033	0.135
-363.683	-9.783	0.038	0.025
-362.669	800.000	0.040	-0.153
-361.654	317.513	0.020	-0.038
-360.639	-48.722	0.220	-0.104
-359.625	10.332	0.103	0.078
-358.610	209.563	0.098	0.152
-357.596	-200.000	-0.001	0.057
-356.581	-84.892	0.353	-0.109
-355.566	169.299	0.078	-0.110
-354.552	-92.015	-0.144	-0.040
-353.537	-200.000	0.038	0.183
-352.523	381.888	-0.140	-0.284
-351.508	698.413	0.118	0.307
-350.493	-200.000	0.048	-0.000
-349.479	-200.000	-0.016	0.212
-348.464	105.658	0.151	0.176
-347.450	-127.323	0.201	0.029
-346.435	-200.000	0.031	-0.247
-345.420	-200.000	-0.021	0.142
-344.406	37.627	0.175	-0.154
-343.391	800.000	0.011	-0.042
-342.377	119.766	-0.035	0.043
-341.362	167.742	0.058	0.082
-340.348	283.227	0.086	-0.152
-339.333	-35.409	-0.237	0.127
-338.318	-47.240	-0.131	-0.063
-337.304	379.442	-0.114	-0.231
-336.289	167.255	-0.189	-0.265
-335.275	-74.784	0.155	-0.055
-334.260	-200.000	-0.011	0.282
-333.245	269.979	-0.041	-0.071
-332.231	-19.797	-0.090	0.055
-331.216	546.318	0.125	-0.295
-330.202	277.801	0.040	-0.070
-329.187	533.485	-0.091	-0.213
-328.172	-20.150	0.381	-0.232
-327.158	168.675	-0.141	-0.198
-326.143	800.000	0.089	0.380
-325.129	800.000	-0.038	0.129
-324.114	185.294	-0.066	-0.096
-323.099	-8.518	-0.080	0.053
-322.085	7.199	0.121	0.089
-321.070	608.975	-0.082	0.203
-320.056	21.247	-0.166	0.133
-319.041	800.000	-0.113	0.316
-318.026	155.438	-0.110	-0.150
-317.012	-43.892	-0.115	-0.057
-315.997	800.000	0.030	0.127
-314.983	-200.000	-0.018	0.139
-313.968	144.986	-0.099	-0.131
-312.953	391.702	-0.048	-0.099
-311.939	800.000	-0.025	-0.107
-310.924	228.685	-0.143	0.230
-309.910	800.000	-0.074	0.280
-308.895	-109.508	-0.095	-0.020
-307.880	25.081	-0.035	-0.028
-306.866	-200.000	0.000	0.133
-305.851	-196.217	0.274	0.002
-304.837	-200.000	0.021	0.138
-303.822	83.959	-0.040	-0.043
-302.807	75.695	-0.173	0.181
-301.793	260.371	-0.094	-0.160
-300.778	-200.000	-0.025	0.165
-299.764	127.792	-0.180	-0.226
-298.749	-122.816	0.257	-0.041
-297.735	800.000	-0.014	0.048
-296.720	-56.571	-0.297	-0.130
-295.705	-87.513	-0.263	-0.078
-294.691	58.136	0.329	0.318
-293.676	-200.000	0.045	-0.385
-292.662	-60.242	-0.070	0.030
-291.647	-176.681	-0.402	-0.010
-290.632	29.789	-0.006	0.005
-289.618	-30.525	-0.170	0.095
-288.603	-1.694	0.185	-0.128
-287.589	-200.000	-0.002	-0.019
-286.574	-77.677	0.198	0.068
-285.559	97.818	-0.276	-0.313
-284.545	-75.329	-0.260	-0.091
-283.530	-200.000	-0.013	0.071
-282.516	-57.639	0.081	0.035
-281.501	347.881	0.048	-0.092
-280.486	-118.500	0.096	0.017
-279.472	-18.170	-0.268	0.165
-278.457	-200.000	-0.022	-0.171
-277.443	664.272	-0.052	0.133
-276.428	138.876	0.016	0.021
-275.413	166.097	0.068	0.095
-274.399	800.000	-0.019	-0.084
-273.384	312.717	0.099	0.183
-272.370	74.634	-0.288	-0.299
-271.355	572.133	-0.084	0.203
-270.340	-53.049	-0.141	-0.064
-269.326	217.791	0.029	-0.045
-268.311	-40.046	-0.075	-0.038
-267.297	-200.000	-0.018	-0.241
-266.282	577.019	0.021	-0.051
-265.267	107.016	0.100	-0.117
-264.253	98.404	0.198	-0.224
-263.238	1.456	-0.204	0.144
-262.224	407.210	-0.063	-0.130
-261.209	131.459	0.185	0.234
-260.195	-200.000	0.003	-0.327
-259.180	-130.436	0.192	0.026
-258.165	-123.441	0.299	0.047
-257.151	150.996	0.142	-0.190
-256.136	-16.524	0.101	-0.063
-255.122	50.995	0.134	-0.125
-254.107	474.011	-0.156	0.347
-253.092	-66.547	-0.286	0.112
-252.078	189.584	0.088	0.130
-251.063	145.790	0.097	0.129
-250.049	800.000	0.046	-0.152
-249.034	-68.240	0.097	-0.037
-248.019	-114.024	-0.268	-0.051
-247.005	25.635	0.172	-0.141
-245.990	-200.000	-0.024	0.189
-244.976	-200.000	0.016	0.086
-243.961	140.825	0.078	0.102
-242.946	160.240	0.036	-0.050
-241.932	271.746	0.120	-0.207
-240.917	-200.000	0.030	0.138
-239.903	-200.000	-0.021	-0.215
-238.888	800.000	-0.066	0.206
-237.873	-40.424	0.071	-0.036
-236.859	-29.085	-0.075	0.043
-235.844	574.510	-0.198	0.476
-234.830	-20.761	0.144	-0.087
-233.815	-114.198	-0.387	-0.074
-232.800	800.000	0.023	-0.069
-231.786	102.037	0.071	-0.082
-230.771	-63.389	-0.489	0.198
-229.757	88.788	0.169	0.185
-228.742	-200.000	0.004	0.153
-227.727	9.820	-0.140	0.104
-226.713	-86.135	0.349	-0.106
-225.698	-15.859	-0.126	-0.079
-224.684	43.359	0.205	0.184
-223.669	393.084	0.082	0.167
-222.655	-67.203	0.387	-0.150
-221.640	419.156	0.016	-0.034
-220.625	-133.728	-0.379	0.047
-219.611	-200.000	0.018	0.181
-218.596	521.155	-0.162	-0.373
-217.582	-57.612	-0.093	-0.040
-216.567	-54.424	-0.098	-0.044
-215.552	15.179	-0.178	0.137
-214.538	-59.365	0.112	0.047
-213.523	25.931	-0.265	0.218
-212.509	800.000	-0.060	-0.209
-211.494	-200.000	-0.021	-0.104
-210.479	97.128	0.091	0.102
-209.465	-113.160	-0.456	-0.088
-208.450	800.000	0.063	0.241
-207.436	616.277	-0.024	-0.059
-206.421	222.262	-0.116	-0.183
-205.406	800.000	0.028	0.094
-204.392	-53.524	-0.106	-0.048
-203.377	12.526	0.101	0.077
-202.363	-162.541	0.588	-0.029
-201.348	75.570	0.264	-0.274
-200.333	17.395	0.087	0.068
-199.319	-85.897	0.137	-0.042
-198.304	-27.721	-0.114	-0.065
-197.290	-200.000	0.011	-0.051
-196.275	17.983	0.128	-0.101
-195.260	80.469	0.086	0.091
-194.246	-110.149	0.473	-0.097
-193.231	-51.373	0.355	-0.163
-192.217	-43.738	0.111	-0.055
-191.202	566.718	-0.118	-0.281
-190.187	-42.612	0.185	-0.092
-189.173	112.784	-0.155	0.185
-188.158	-200.000	0.009	0.251
-187.144	-186.592	-0.209	0.003
-186.129	-200.000	0.010	0.091
-185.114	-34.657	0.135	-0.072
-184.100	-200.000	-0.009	0.212
-183.085	248.220	-0.090	-0.150
-182.071	-105.843	0.360	-0.080
-181.056	-127.235	-0.195	-0.028
-180.042	6.820	0.137	0.100
-179.027	800.000	-0.099	0.336
-178.012	-132.093	-0.306	0.039
-176.998	152.384	0.130	0.174
-175.983	9.577	-0.104	0.078
-174.969	-118.798	-0.221	0.038
-173.954	-200.000	-0.012	-0.054
-172.939	-74.501	0.100	-0.035
-171.925	175.954	0.089	0.127
-170.910	-110.980	-0.175	-0.035
-169.896	592.620	-0.022	0.053
-168.881	-129.365	0.383	-0.052
-167.866	21.673	0.075	-0.060
-166.852	-99.641	0.067	0.016
-165.837	800.000	0.030	-0.100
-164.823	-142.551	-0.039	-0.004
-163.808	-67.575	0.423	0.163
-162.793	-182.260	0.125	-0.002
-161.779	800.000	-0.050	0.208
-160.764	115.559	0.063	0.075
-159.750	-110.485	0.200	-0.041
-158.735	268.415	-0.051	-0.087
-157.720	288.948	-0.084	0.149
-156.706	29.894	0.143	-0.119
-155.691	800.000	-0.113	0.367
-154.677	199.912	0.234	0.352
-153.662	-170.325	-0.330	0.011
-152.647	-144.595	-0.132	0.012
-151.633	174.809	0.037	-0.053
-150.618	144.746	0.031	0.041
-149.604	-14.501	0.307	-0.194
-148.589	800.000	-0.040	-0.130
-147.574	511.599	-0.072	-0.164
-146.560	-200.000	0.010	0.143
-145.545	-122.512	0.398	0.063
-144.531	76.407	0.055	-0.057
-143.516	-80.160	-0.369	-0.121
-142.502	468.394	0.181	-0.398
-141.487	63.574	0.122	-0.120
-140.472	-200.000	0.016	-0.160
-139.458	219.647	0.148	-0.233
-138.443	54.858	-0.167	-0.158
-137.429	-81.020	-0.112	0.036
-136.414	-149.053	-0.127	0.010
-135.399	200.898	0.077	0.116
-134.385	-200.000	0.009	0.134
-133.370	156.571	-0.069	0.094
-132.356	-200.000	0.022	-0.211
-131.341	429.165	-0.098	-0.207
-130.326	800.000	0.034	0.138
-129.312	-200.000	-0.001	0.152
-128.297	247.803	0.154	-0.256
-127.283	563.481	-0.072	-0.171
-126.268	75.316	-0.293	0.303
-125.253	-200.000	-0.012	-0.195
-124.239	3.056	-0.218	-0.155
-123.224	-73.570	-0.310	0.111
-122.210	360.095	0.119	0.233
-121.195	-89.249	0.187	-0.054
-120.180	-34.722	-0.220	-0.118
-119.166	-200.000	0.039	-0.290
-118.151	-37.331	0.267	0.140
-117.137	110.666	0.020	0.024
-116.122	-104.549	0.186	-0.042
-115.107	-200.000	-0.024	0.281
-114.093	-200.000	0.030	0.209
-113.078	67.041	-0.224	0.223
-112.064	-6.499	0.213	-0.142
-111.049	136.260	0.079	0.101
-110.034	95.623	-0.070	0.079
-109.020	800.000	-0.068	-0.194
-108.005	800.000	-0.090	-0.295
-106.991	-7.981	-0.064	-0.042
-105.976	734.123	-0.065	-0.171
-104.962	-143.555	-0.265	-0.025
-103.947	800.000	-0.065	-0.193
-102.932	-137.168	0.107	-0.012
-101.918	800.000	-0.071	-0.228
-100.903	21.451	0.038	0.030
-99.889	-0.913	0.201	-0.139
-98.874	15.529	-0.168	0.129
-97.859	-200.000	0.073	0.315
-96.845	-200.000	-0.007	-0.112
-95.830	214.036	-0.169	0.262
-94.816	-29.971	-0.172	0.096
-93.801	-36.494	0.282	-0.148
-92.786	-200.000	0.007	-0.283
-91.772	-78.272	0.223	-0.075
-90.757	88.248	-0.086	-0.093
-89.743	227.272	0.066	0.106
-88.728	-50.166	0.183	0.085
-87.713	-65.088	-0.309	0.122
-86.699	-11.798	-0.089	-0.057
-85.684	-200.000	-0.035	0.326
-84.670	-200.000	0.141	0.000
-83.655	38.870	-0.075	-0.065
-82.640	-99.477	0.288	0.071
-81.626	-57.297	-0.218	-0.094
-80.611	-22.685	0.056	0.033
-79.597	-45.002	-0.209	0.102
-78.582	-42.251	0.249	0.124
-77.567	-61.731	0.168	0.069
-76.553	83.725	0.278	0.296
-75.538	152.290	-0.194	0.259
-74.524	193.228	-0.102	-0.150
-73.509	426.180	0.132	0.278
-72.494	-23.619	0.196	-0.115
-71.480	-123.925	-0.036	0.006
-70.465	-200.000	-0.006	-0.083
-69.451	-49.038	0.299	0.140
-68.436	-134.441	-0.143	0.017
-67.422	-45.734	0.085	-0.041
-66.407	228.757	0.127	0.203
-65.392	-200.000	0.008	-0.121
-64.378	800.000	0.020	0.069
-63.363	800.000	0.024	0.080
-62.349	-89.231	0.045	0.013
-61.334	47.782	-1.289	-1.176
-60.319	48.618	0.774	0.709
-59.305	273.558	-0.636	-1.099
-58.290	523.097	0.450	1.033
-57.276	400.059	0.747	1.530
-56.261	-200.000	115.948	647.913
-55.246	512.370	1537.700	3500.620
-54.232	174.495	2719.973	3843.687
-53.217	99.525	2299.415	2599.788
-52.203	35.730	1905.464	1636.328
-51.188	29.701	1696.367	1410.856
-50.173	27.318	1655.166	1358.765
-49.159	48.067	1712.076	1563.646
-48.144	46.578	1725.671	1564.697
-47.130	29.256	1683.353	1396.438
-46.115	26.662	1668.492	1364.543
-45.100	26.518	1663.811	1359.580
-44.086	26.541	1661.194	1357.561
-43.071	26.389	1659.196	1354.735
-42.057	26.439	1656.189	1352.601
-41.042	26.464	1654.212	1351.119
-40.027	26.548	1652.386	1350.199
-39.013	26.436	1650.579	1347.840
-37.998	26.404	1648.957	1346.223
-36.984	26.378	1647.446	1344.737
-35.969	26.527	1646.106	1344.699
-34.954	26.613	1644.022	1343.586
-33.940	26.607	1642.707	1342.407
-32.925	26.577	1640.721	1340.511
-31.911	26.645	1639.220	1339.735
-30.896	26.596	1637.288	1337.742
-29.881	26.542	1635.652	1335.953
-28.867	26.513	1634.505	1334.752
-27.852	26.617	1632.912	1334.165
-26.838	26.642	1631.410	1333.061
-25.823	26.681	1629.875	1332.045
-24.809	26.701	1628.654	1331.140
-23.794	26.601	1627.439	1329.362
-22.779	26.626	1625.768	1328.126
-21.765	26.564	1624.104	1326.259
-20.750	26.598	1622.607	1325.231
-19.736	26.591	1621.178	1323.964
-18.721	26.631	1619.884	1323.150
-17.706	26.558	1618.691	1321.588
-16.692	26.549	1616.826	1319.946
-15.677	26.620	1615.631	1319.433
-14.663	26.726	1613.555	1318.458
-13.648	26.605	1612.842	1316.945
-12.633	26.539	1611.547	1315.353
-11.619	26.489	1610.172	1313.818
-10.604	26.640	1608.010	1313.097
-9.590	26.706	1606.575	1312.347
-8.575	26.659	1605.305	1310.918
-7.560	26.555	1604.365	1309.346
-6.546	26.629	1603.187	1308.868
-5.531	26.523	1602.442	1307.445
-4.517	26.544	1601.047	1306.406
-3.502	26.614	1599.955	1305.965
-2.487	26.701	1598.012	1304.957
-1.473	26.395	1585.784	1292.734
-0.458	23.544	1567.476	1257.577
0.556	21.067	1569.264	1228.051
1.571	18.921	1593.700	1231.703
2.586	18.376	1606.178	1237.297
3.600	16.246	1550.213	1179.215
4.615	9.548	1442.377	1053.414
5.629	4.067	1383.802	976.076
6.644	3.335	1376.344	966.136
7.659	3.111	1375.330	963.939
8.673	3.330	1374.105	964.367
9.688	3.224	1372.744	962.663
10.702	3.213	1369.354	960.132
11.717	5.631	1374.040	978.449
12.731	12.818	1387.508	1033.152
13.746	18.910	1397.304	1078.702
14.761	20.245	1398.257	1087.718
15.775	19.634	1396.653	1082.544
16.790	18.676	1393.583	1074.081
17.804	17.767	1391.682	1066.834
18.819	17.477	1390.374	1063.925
19.834	17.302	1389.226	1061.862
20.848	17.147	1387.838	1059.736
21.863	16.967	1387.021	1057.895
22.877	16.787	1385.649	1055.634
23.892	16.850	1384.420	1055.000
24.907	16.902	1383.426	1054.470
25.921	16.818	1383.086	1053.598
26.936	16.810	1382.564	1053.054
27.950	16.867	1381.334	1052.379
28.965	16.980	1379.937	1051.924
29.980	17.129	1378.652	1051.774
30.994	17.057	1377.908	1050.668
32.009	17.209	1376.696	1050.591
33.023	17.131	1375.413	1049.033
34.038	17.080	1374.264	1047.749
35.053	17.113	1372.584	1046.584
36.067	16.972	1371.954	1045.137
37.082	17.053	1370.662	1044.559
38.096	17.053	1369.816	1043.823
39.111	17.104	1369.117	1043.514
40.126	17.036	1367.796	1041.995
41.140	16.735	1367.386	1039.740
42.155	16.611	1366.538	1038.246
43.169	16.646	1366.467	1038.318
44.184	16.594	1366.014	1037.563
45.199	16.580	1366.043	1037.404
46.213	16.735	1365.054	1037.512
47.228	16.792	1364.507	1037.351
48.242	16.949	1363.069	1037.131
49.257	16.899	1361.500	1035.539
50.271	16.881	1360.185	1034.333
51.286	16.831	1358.884	1032.950
52.301	16.899	1357.187	1031.983
53.315	16.720	1356.609	1030.359
54.330	16.787	1355.419	1029.776
55.344	16.657	1354.396	1028.117
56.359	16.730	1352.765	1027.230
57.374	16.711	1352.432	1026.770
58.388	16.608	1351.559	1025.393
59.403	16.512	1351.217	1024.459
60.417	16.538	1350.510	1023.991
61.432	16.528	1349.497	1023.076
62.447	16.418	1348.278	1021.396
63.461	16.423	1346.574	1020.043
64.476	16.525	1345.336	1019.631
65.490	16.476	1344.684	1018.748
66.505	16.427	1343.034	1017.115
67.520	16.528	1341.869	1016.752
68.534	16.586	1340.840	1016.232
69.549	16.538	1340.070	1015.267
70.563	16.450	1338.772	1013.668
71.578	16.338	1337.480	1011.930
72.593	16.291	1336.779	1011.028
73.607	16.326	1335.927	1010.501
74.622	16.341	1335.392	1010.098
75.636	16.317	1334.599	1009.264
76.651	16.432	1334.025	1009.426
77.666	16.296	1333.852	1008.397
78.680	16.434	1333.354	1008.752
79.695	16.457	1332.385	1008.069
80.709	16.580	1331.601	1008.121
81.724	16.769	1330.463	1008.292
82.739	16.776	1329.834	1007.768
83.753	16.772	1329.356	1007.296
84.768	16.910	1328.451	1007.338
85.782	17.064	1326.829	1006.933
86.797	17.014	1326.258	1006.113
87.812	16.835	1324.783	1003.844
88.826	16.882	1323.159	1002.803
89.841	16.994	1322.154	1002.619
90.855	16.940	1322.023	1002.111
91.870	17.140	1320.460	1002.017
92.884	16.999	1320.133	1000.849
93.899	17.068	1319.515	1000.699
94.914	17.138	1318.270	1000.078
95.928	17.107	1317.523	999.237
96.943	16.996	1316.612	997.805
97.957	16.918	1316.144	996.906
98.972	17.015	1314.704	996.297
99.987	17.121	1313.381	995.828
101.001	17.102	1312.565	995.009
102.016	17.116	1311.404	994.122
103.030	17.096	1310.779	993.446
104.045	16.981	1309.732	991.889
105.060	16.900	1308.177	990.151
106.074	16.678	1307.010	987.885
107.089	16.599	1305.564	986.244
108.103	16.487	1304.322	984.570
109.118	16.510	1302.648	983.351
110.133	16.547	1301.794	982.834
111.147	16.622	1300.446	982.166
112.162	16.579	1298.912	980.671
113.176	16.693	1297.957	980.526
114.191	16.671	1297.216	979.752
115.206	16.689	1296.078	978.906
116.220	16.682	1294.594	977.659
117.235	16.676	1293.546	976.749
118.249	16.655	1292.503	975.753
119.264	16.621	1290.926	974.276
120.279	16.506	1290.089	972.900
121.293	16.575	1288.871	972.289
122.308	16.459	1288.118	970.969
123.322	16.378	1287.077	969.633
124.337	16.299	1286.435	968.613
125.352	16.329	1285.160	967.740
126.366	16.340	1283.959	966.813
127.381	16.384	1282.774	966.087
128.395	16.392	1281.812	965.321
129.410	16.487	1281.076	965.224
130.424	16.558	1280.317	964.974
131.439	16.540	1279.209	963.948
132.454	16.593	1278.194	963.400
133.468	16.713	1277.732	963.652
134.483	16.646	1277.174	962.761
135.497	16.586	1276.328	961.701
136.512	16.583	1274.743	960.402
137.527	16.606	1273.243	959.317
138.541	16.730	1272.020	959.016
139.556	16.831	1270.614	958.441
140.570	16.849	1270.042	958.028
141.585	16.941	1268.902	957.598
142.600	17.000	1267.984	957.154
143.614	16.980	1266.755	956.029
144.629	16.921	1265.911	954.977
145.643	17.044	1264.309	954.377
146.658	16.884	1263.849	953.042
147.673	16.854	1261.767	951.224
148.687	16.741	1261.195	950.073
149.702	16.711	1259.745	948.726
150.716	16.758	1258.082	947.657
151.731	16.739	1257.320	946.893
152.746	16.668	1256.249	945.604
153.760	16.926	1254.366	945.544
154.775	16.855	1253.968	944.762
155.789	16.925	1252.822	944.205
156.804	16.880	1251.652	942.987
157.819	17.087	1250.736	943.369
158.833	17.176	1250.077	943.280
159.848	17.220	1249.174	942.760
160.862	17.126	1248.080	941.329
161.877	16.886	1247.095	939.175
162.892	16.842	1245.659	937.767
163.906	16.768	1245.053	936.819
164.921	16.825	1244.350	936.521
165.935	16.894	1243.033	935.824
166.950	17.028	1242.392	936.002
167.964	17.015	1241.749	935.364
168.979	16.880	1240.548	933.632
169.994	17.020	1239.973	933.884
171.008	16.948	1239.284	932.887
172.023	17.001	1238.756	932.698
173.037	17.147	1238.173	932.983
174.052	17.157	1236.777	931.901
175.067	16.908	1236.075	929.924
176.081	16.928	1234.520	928.783
177.096	16.857	1233.965	927.892
178.110	16.925	1232.475	927.060
179.125	16.961	1231.126	926.163
180.140	17.010	1230.155	925.618
181.154	16.987	1229.414	924.853
182.169	17.073	1228.366	924.453
183.183	17.192	1227.161	924.109
184.198	17.246	1225.806	923.299
185.213	17.176	1224.846	922.117
186.227	17.305	1223.669	921.848
187.242	17.339	1222.945	921.404
188.256	17.374	1222.054	920.842
189.271	17.394	1220.881	919.983
190.286	17.265	1219.609	918.245
191.300	16.961	1218.586	915.756
192.315	16.889	1218.002	914.848
193.329	16.774	1217.386	913.685
194.344	16.942	1216.502	913.847
195.359	17.074	1216.327	914.345
196.373	17.213	1215.448	914.350
197.388	17.254	1215.496	914.527
198.402	17.365	1215.141	914.776
199.417	17.436	1214.597	914.663
200.432	17.621	1213.684	914.891
201.446	17.619	1213.056	914.323
202.461	17.700	1211.885	913.797
203.475	17.602	1211.018	912.538
204.490	17.505	1209.571	910.844
205.504	17.384	1208.605	909.392
206.519	17.392	1207.143	908.256
207.534	17.343	1206.030	907.074
208.548	17.308	1204.959	906.004
209.563	17.481	1203.951	906.084
210.577	17.273	1203.675	904.690
211.592	17.384	1202.525	904.335
212.607	17.624	1201.656	904.876
213.621	17.550	1201.268	904.111
214.636	17.573	1199.954	903.164
215.650	17.618	1198.997	902.603
216.665	17.636	1197.820	901.734
217.680	17.752	1197.409	901.957
218.694	17.828	1196.447	901.552
219.709	17.765	1195.450	900.390
220.723	17.770	1194.421	899.563
221.738	17.710	1194.301	899.078
222.753	17.707	1193.676	898.511
223.767	17.728	1193.035	898.059
224.782	17.801	1192.401	897.886
225.796	17.948	1191.812	898.138
226.811	17.903	1191.076	897.267
227.826	17.794	1189.963	895.775
228.840	17.749	1189.384	895.025
229.855	17.746	1188.492	894.260
230.869	17.761	1187.500	893.510
231.884	17.734	1187.044	892.948
232.899	17.670	1186.545	892.161
233.913	17.549	1185.425	890.603
234.928	17.546	1184.540	889.847
235.942	17.640	1183.535	889.502
236.957	17.623	1182.900	888.860
237.972	17.598	1181.978	887.958
238.986	17.613	1181.524	887.613
240.001	17.702	1180.603	887.305
241.015	17.567	1180.318	886.312
242.030	17.746	1179.168	886.298
243.045	17.781	1178.686	886.044
244.059	17.887	1177.345	885.503
245.074	17.947	1176.954	885.442
246.088	17.933	1176.286	884.789
247.103	17.978	1175.532	884.377
248.117	18.159	1174.490	884.452
249.132	18.147	1174.374	884.222
250.147	18.346	1173.575	884.573
251.161	18.325	1173.076	884.007
252.176	18.417	1172.267	883.795
253.190	18.458	1171.506	883.357
254.205	18.365	1171.852	883.060
255.220	18.549	1170.589	882.976
256.234	18.563	1169.840	882.403
257.249	18.460	1169.417	881.476
258.263	18.476	1168.511	880.801
259.278	18.440	1168.094	880.223
260.293	18.584	1167.407	880.365
261.307	18.629	1166.662	879.958
262.322	18.501	1166.670	879.227
263.336	18.657	1165.752	879.260
264.351	18.677	1164.969	878.695
265.366	18.650	1164.322	877.988
266.380	18.624	1163.365	877.057
267.395	18.654	1162.223	876.274
268.409	18.640	1161.508	875.584
269.424	18.518	1161.163	874.624
270.439	18.542	1160.483	874.157
271.453	18.564	1159.533	873.474
272.468	18.428	1158.591	871.996
273.482	18.491	1157.804	871.647
274.497	18.457	1157.562	871.217
275.512	18.442	1156.744	870.444
276.526	18.496	1155.925	870.025
277.541	18.449	1155.288	869.232
278.555	18.414	1154.791	868.604
279.570	18.545	1154.358	868.866
280.585	18.741	1152.805	868.611
281.599	18.673	1152.509	867.966
282.614	18.684	1150.911	866.744
283.628	18.648	1149.956	865.765
284.643	18.583	1149.194	864.785
285.657	18.659	1148.004	864.196
286.672	18.708	1147.180	863.748
287.687	18.651	1146.400	862.795
288.701	18.704	1145.752	862.500
289.716	18.718	1145.085	861.990
290.730	18.698	1144.212	861.157
291.745	18.746	1143.835	861.037
292.760	18.804	1143.038	860.654
293.774	18.923	1142.388	860.681
294.789	18.930	1142.308	860.582
295.803	19.042	1141.320	860.323
296.818	18.779	1140.602	858.390
297.833	18.778	1139.540	857.511
298.847	18.716	1139.311	856.951
299.862	18.742	1138.117	856.106
300.876	18.890	1137.434	856.255
301.891	18.902	1137.159	856.031
302.906	18.911	1136.053	855.170
303.920	19.035	1135.440	855.250
304.935	19.122	1134.642	855.005
305.949	19.199	1134.359	855.095
306.964	19.136	1134.081	854.498
307.979	19.154	1132.924	853.642
308.993	19.012	1131.891	852.084
310.008	19.142	1131.222	852.148
311.022	19.138	1130.383	851.420
312.037	19.188	1129.834	851.177
313.052	19.044	1128.408	849.319
314.066	19.024	1127.522	848.477
315.081	18.874	1126.741	847.075
316.095	18.877	1125.775	846.290
317.110	18.891	1125.217	845.862
318.125	18.964	1124.489	845.600
319.139	18.941	1123.528	844.691
320.154	18.922	1123.231	844.297
321.168	18.955	1122.163	843.582
322.183	18.955	1121.644	843.117
323.197	19.019	1121.151	842.986
324.212	18.981	1120.652	842.350
325.227	18.995	1119.870	841.758
326.241	19.110	1119.439	841.922
327.256	19.056	1118.189	840.644
328.270	19.121	1117.392	840.287
329.285	19.016	1116.644	839.136
330.300	18.947	1116.089	838.309
331.314	19.027	1114.804	837.658
332.329	19.115	1114.119	837.501
333.343	19.124	1112.658	836.369
334.358	19.214	1112.001	836.238
335.373	19.185	1111.635	835.752
336.387	19.288	1110.488	835.315
337.402	19.369	1109.962	835.234
338.416	19.265	1109.653	834.427
339.431	19.457	1108.373	834.319
340.446	19.359	1108.840	834.121
341.460	19.626	1107.772	834.535
342.475	19.616	1106.972	833.811
343.489	19.629	1106.192	833.212
344.504	19.737	1105.134	832.862
345.519	19.761	1104.089	832.113
346.533	19.691	1103.527	831.280
347.548	19.816	1102.923	831.353
348.562	19.808	1102.019	830.560
349.577	19.582	1101.176	828.768
350.592	19.456	1100.046	827.237
351.606	19.489	1098.994	826.532
352.621	19.475	1098.524	826.042
353.635	19.374	1098.092	825.159
354.650	19.409	1097.432	824.755
355.665	19.484	1096.459	824.312
356.679	19.458	1096.530	824.166
357.694	19.521	1095.791	823.838
358.708	19.601	1094.852	823.440
359.723	19.658	1094.523	823.395
360.738	19.562	1093.764	822.290
361.752	19.584	1093.335	822.004
362.767	19.741	1092.674	822.178
363.781	19.790	1091.733	821.631
364.796	19.789	1091.577	821.434
365.810	19.874	1090.780	821.167
366.825	19.980	1090.211	821.169
367.840	20.068	1089.975	821.337
368.854	20.145	1089.091	820.961
369.869	20.014	1088.762	820.022
370.883	19.974	1087.494	818.805
371.898	20.000	1087.171	818.610
372.913	19.859	1086.602	817.443
373.927	20.027	1085.655	817.453
374.942	20.117	1085.574	817.742
375.956	20.099	1085.034	817.179
376.971	20.111	1084.144	816.494
377.986	20.054	1083.987	816.032
379.000	20.174	1083.225	815.954
380.015	20.256	1082.653	815.835
381.029	20.226	1082.156	815.250
382.044	20.209	1081.168	814.352
383.059	20.330	1080.459	814.311
384.073	20.208	1079.346	812.830
385.088	20.305	1078.393	812.495
386.102	20.291	1077.214	811.470
387.117	20.222	1076.375	810.443
388.132	20.006	1075.897	809.003
389.146	20.080	1074.831	808.476
390.161	19.994	1074.412	807.685
391.175	20.026	1073.469	807.055
392.190	20.263	1072.642	807.464
393.205	20.271	1071.727	806.742
394.219	20.337	1071.437	806.758
395.234	20.343	1070.075	805.689
396.248	20.150	1069.333	804.167
397.263	20.214	1068.126	803.484
398.278	20.031	1067.810	802.325
399.292	20.088	1067.074	801.966
400.307	20.075	1065.934	800.978
401.321	20.113	1065.017	800.393
402.336	20.043	1064.884	799.899
403.350	20.076	1064.136	799.420
404.365	20.172	1063.396	799.235
405.380	20.138	1062.720	798.502
406.394	20.251	1061.919	798.348
407.409	20.224	1061.294	797.681
408.423	20.276	1060.912	797.562
409.438	20.618	1059.994	798.377
410.453	20.456	1059.473	797.169
411.467	20.612	1058.856	797.349
412.482	20.582	1058.126	796.592
413.496	20.771	1057.076	796.597
414.511	20.621	1056.907	795.709
415.526	20.837	1056.569	796.374
416.540	20.819	1056.098	795.864
417.555	20.772	1055.284	794.968
418.569	20.806	1054.656	794.578
419.584	20.791	1053.976	793.930
420.599	20.698	1053.832	793.324
421.613	155.360	1405.040	1798.053
422.628	142.572	1456.168	1798.113
