DTS Sentinel unit serial number:	SN413079Multiplexer serial number:	ORYXHardware model number:	OX4-SRSoftware version number:	ORYX F/W v4.00 Oryx Data Collector v3.7.2.0data status	okinstallation	princeton_trtdifferential loss correction	single-endedforward channel	channel 2reverse channel	N/Adate	2019/09/11time	20:13:11forward acquisition time	60.00reverse acquisition time	0.00gamma	496.2192k internal	0.2315k external	0.2315temperature offset calibration	1.0053default loss term (dB/km)	0.3790temperature slope calibration	1.0000multiplexer offset coefficient	1.0000multiplexer slope coefficient	1.0000fibre end	0.00T internal ref (°C)	38.25T ext. ref 1 (°C)	1.42T ext. ref 2 (°C)	31.57length (m)	temperature (°C)	Stokes	anti-Stokes-747.200	-21.779	-0.165	0.102
-746.185	157.526	0.253	0.355
-745.171	800.000	-0.093	0.369
-744.156	-152.105	-0.420	-0.031
-743.142	-200.000	0.061	0.361
-742.127	-200.000	0.033	0.325
-741.112	-126.428	0.217	0.033
-740.098	-165.812	-0.224	0.010
-739.083	654.998	0.148	0.385
-738.069	-131.475	-0.111	0.015
-737.054	800.000	-0.080	-0.240
-736.039	-104.902	-0.292	-0.068
-735.025	446.048	0.023	0.052
-734.010	-200.000	0.029	0.153
-732.996	68.709	-0.156	-0.162
-731.981	-138.259	0.361	0.041
-730.966	50.113	0.334	-0.320
-729.952	-146.285	-0.125	0.011
-728.937	-133.687	0.143	-0.018
-727.923	132.647	-0.114	-0.149
-726.908	2.684	-0.092	0.067
-725.894	800.000	-0.084	-0.284
-724.879	625.135	-0.093	-0.238
-723.864	18.232	0.091	-0.074
-722.850	280.690	0.101	0.183
-721.835	800.000	-0.028	0.098
-720.821	-98.348	0.220	0.057
-719.806	420.907	0.092	-0.200
-718.791	20.125	0.170	-0.139
-717.777	-200.000	-0.040	-0.232
-716.762	-37.181	0.067	0.036
-715.748	-200.000	0.014	-0.281
-714.733	-200.000	-0.011	-0.303
-713.718	211.568	0.084	-0.134
-712.704	38.990	-0.214	-0.194
-711.689	150.103	-0.225	-0.309
-710.675	-200.000	0.036	-0.167
-709.660	-200.000	-0.013	-0.198
-708.645	800.000	0.056	-0.242
-707.631	800.000	-0.054	0.211
-706.616	-72.561	0.215	0.080
-705.602	800.000	-0.073	-0.267
-704.587	121.275	0.128	-0.161
-703.572	-31.401	0.245	0.140
-702.558	125.735	0.068	-0.087
-701.543	-54.610	0.338	-0.155
-700.529	-200.000	-0.001	-0.074
-699.514	-3.876	0.129	-0.091
-698.499	22.373	-0.121	-0.100
-697.485	-200.000	-0.008	0.189
-696.470	-76.904	-0.114	-0.040
-695.456	-39.526	0.250	-0.132
-694.441	-30.297	0.249	-0.143
-693.426	32.604	-0.139	0.122
-692.412	-115.000	-0.365	0.070
-691.397	-62.332	0.256	0.108
-690.383	-18.000	-0.223	0.141
-689.368	-101.589	0.048	-0.012
-688.354	37.967	-0.210	-0.188
-687.339	215.833	-0.126	-0.202
-686.324	-110.362	-0.032	-0.007
-685.310	-13.821	-0.095	0.062
-684.295	-200.000	-0.002	0.106
-683.281	800.000	0.039	0.146
-682.266	46.170	0.200	-0.188
-681.251	-157.056	-0.210	-0.013
-680.237	-61.740	-0.095	0.040
-679.222	-200.000	0.043	-0.402
-678.208	800.000	0.068	-0.280
-677.193	-124.592	-0.288	0.045
-676.178	-200.000	-0.021	-0.254
-675.164	-200.000	-0.069	0.485
-674.149	146.028	-0.207	-0.281
-673.135	-75.422	-0.373	-0.134
-672.120	-200.000	-0.000	0.646
-671.105	-200.000	-0.051	0.350
-670.091	789.871	0.049	0.135
-669.076	-200.000	-0.011	0.291
-668.062	-47.045	0.074	-0.036
-667.047	-200.000	-0.005	-0.086
-666.032	-200.000	-0.014	0.157
-665.018	508.619	-0.119	0.278
-664.003	617.679	-0.159	-0.402
-662.989	193.536	-0.064	-0.097
-661.974	-200.000	-0.048	-0.368
-660.959	-45.668	-0.062	-0.031
-659.945	800.000	0.156	0.498
-658.930	-127.839	-0.291	0.042
-657.916	-120.132	0.093	0.016
-656.901	380.334	0.157	-0.325
-655.886	142.818	-0.086	0.115
-654.872	-81.117	0.194	-0.065
-653.857	-200.000	0.033	-0.250
-652.843	495.814	0.078	0.182
-651.828	-136.355	-0.216	0.025
-650.814	-200.000	-0.010	-0.306
-649.799	-200.000	-0.032	-0.181
-648.784	-87.939	-0.175	0.053
-647.770	-200.000	0.004	0.397
-646.755	800.000	-0.067	-0.273
-645.741	-200.000	0.030	-0.359
-644.726	800.000	-0.058	-0.240
-643.711	-200.000	-0.019	-0.196
-642.697	278.929	0.135	-0.243
-641.682	800.000	-0.075	-0.227
-640.668	800.000	-0.040	-0.166
-639.653	119.878	0.178	-0.223
-638.638	655.913	0.004	-0.010
-637.624	800.000	-0.222	0.632
-636.609	-200.000	0.048	0.287
-635.595	128.851	0.114	0.147
-634.580	-82.254	-0.095	0.031
-633.565	-200.000	-0.015	-0.262
-632.551	-200.000	-0.002	-0.038
-631.536	-200.000	0.068	0.390
-630.522	-200.000	-0.022	-0.324
-629.507	220.765	-0.054	0.087
-628.492	163.402	0.056	0.079
-627.478	-200.000	-0.013	-0.063
-626.463	316.876	-0.124	-0.235
-625.449	-102.184	-0.207	0.050
-624.434	-44.162	-0.245	0.124
-623.419	-107.314	-0.262	0.058
-622.405	80.198	0.143	0.155
-621.390	-66.851	-0.079	0.031
-620.376	174.393	0.131	0.191
-619.361	394.772	0.069	0.146
-618.346	15.206	0.088	-0.070
-617.332	-12.979	-0.144	-0.095
-616.317	-88.716	-0.342	-0.102
-615.303	-127.186	-0.143	-0.021
-614.288	70.505	0.180	0.188
-613.273	-68.635	-0.090	0.035
-612.259	800.000	-0.052	0.156
-611.244	331.777	0.103	0.201
-610.230	-164.197	0.268	0.012
-609.215	-200.000	0.041	0.216
-608.201	-116.696	0.270	-0.050
-607.186	-29.750	-0.034	-0.020
-606.171	-2.625	0.107	-0.076
-605.157	12.253	-0.093	-0.072
-604.142	-200.000	-0.003	0.189
-603.128	266.522	-0.147	0.259
-602.113	35.870	0.043	-0.038
-601.098	16.231	0.218	-0.174
-600.084	-54.865	0.327	0.148
-599.069	-200.000	-0.008	0.213
-598.055	-151.217	-0.148	-0.011
-597.040	50.517	0.221	-0.210
-596.025	-113.449	0.513	-0.101
-595.011	157.354	0.148	-0.206
-593.996	-84.433	-0.297	-0.095
-592.982	547.951	-0.048	0.117
-591.967	-34.727	-0.277	0.152
-590.952	32.062	0.217	0.188
-589.938	679.977	0.029	0.075
-588.923	-60.162	-0.256	0.110
-587.909	-116.762	-0.379	-0.070
-586.894	53.752	-0.129	-0.125
-585.879	-3.506	-0.021	-0.014
-584.865	800.000	0.047	-0.188
-583.850	-100.744	-0.282	0.070
-582.836	622.920	0.056	0.142
-581.821	-200.000	-0.005	-0.145
-580.806	-32.058	0.196	-0.111
-579.792	350.461	0.028	0.056
-578.777	-200.000	0.014	-0.079
-577.763	-50.359	-0.357	-0.170
-576.748	-200.000	0.015	-0.261
-575.733	-200.000	-0.012	-0.065
-574.719	-200.000	-0.007	0.247
-573.704	644.532	-0.057	0.146
-572.690	-3.586	0.047	-0.033
-571.675	-119.269	0.173	0.030
-570.661	800.000	0.135	-0.380
-569.646	137.525	-0.114	-0.150
-568.631	-161.020	-0.268	-0.014
-567.617	-75.127	-0.127	-0.046
-566.602	-200.000	-0.044	0.251
-565.588	22.146	0.278	-0.228
-564.573	-200.000	0.064	-0.400
-563.558	429.314	0.113	-0.246
-562.544	131.606	-0.046	0.060
-561.529	-21.590	-0.146	-0.090
-560.515	291.869	-0.157	0.287
-559.500	334.756	0.151	-0.295
-558.485	-200.000	-0.045	0.415
-557.471	-76.316	-0.132	0.047
-556.456	-72.769	-0.078	-0.029
-555.442	-200.000	0.018	0.151
-554.427	-42.839	0.152	0.078
-553.412	691.606	0.128	0.339
-552.398	23.756	-0.259	-0.215
-551.383	107.941	0.209	0.251
-550.369	800.000	0.016	0.069
-549.354	-200.000	-0.027	0.194
-548.339	5.675	0.247	0.184
-547.325	-147.083	0.174	0.015
-546.310	800.000	0.129	-0.422
-545.296	70.080	0.136	0.141
-544.281	-78.118	0.343	-0.119
-543.266	-167.023	-0.257	-0.011
-542.252	800.000	-0.034	-0.130
-541.237	573.920	-0.074	0.181
-540.223	-200.000	0.079	-0.489
-539.208	3.388	-0.107	-0.078
-538.193	449.273	-0.092	-0.205
-537.179	800.000	-0.063	-0.222
-536.164	800.000	0.045	-0.133
-535.150	-113.692	-0.253	-0.050
-534.135	625.620	0.007	-0.019
-533.121	23.178	0.170	0.140
-532.106	-162.658	-0.482	-0.024
-531.091	800.000	0.026	0.076
-530.077	-53.525	0.149	-0.068
-529.062	800.000	-0.041	-0.121
-528.048	313.241	-0.079	0.148
-527.033	-116.639	0.163	-0.030
-526.018	105.443	0.149	0.177
-525.004	-17.828	-0.313	0.197
-523.989	-143.545	-0.146	0.014
-522.975	223.306	-0.188	-0.304
-521.960	-81.491	0.185	0.061
-520.945	-59.624	-0.256	-0.110
-519.931	-118.673	0.060	-0.011
-518.916	-200.000	0.003	-0.189
-517.902	-200.000	0.004	-0.504
-516.887	-61.293	0.185	0.078
-515.872	-200.000	-0.016	0.111
-514.858	153.326	0.182	-0.250
-513.843	-82.387	-0.330	0.108
-512.829	619.424	-0.009	-0.023
-511.814	800.000	-0.127	0.367
-510.799	-37.383	0.280	0.150
-509.785	-200.000	0.041	-0.360
-508.770	-90.872	-0.109	0.031
-507.756	279.915	-0.072	-0.128
-506.741	-81.832	0.182	0.060
-505.726	-6.831	-0.306	0.209
-504.712	615.667	0.068	0.170
-503.697	479.625	-0.118	0.269
-502.683	142.861	0.073	-0.098
-501.668	-73.689	-0.206	-0.075
-500.653	-54.773	0.303	0.137
-499.639	-130.849	0.247	0.033
-498.624	-11.461	0.108	0.071
-497.610	-133.379	-0.174	0.022
-496.595	34.984	0.253	-0.222
-495.581	-104.031	0.604	-0.141
-494.566	-200.000	-0.019	0.339
-493.551	-58.323	-0.163	0.071
-492.537	-113.160	-0.208	-0.041
-491.522	-146.356	-0.014	-0.001
-490.508	250.619	-0.178	-0.303
-489.493	800.000	0.064	0.265
-488.478	-145.040	-0.218	0.020
-487.464	-112.840	-0.265	0.053
-486.449	-200.000	-0.034	0.369
-485.435	-89.217	0.331	-0.098
-484.420	-200.000	-0.039	-0.181
-483.405	800.000	0.128	-0.450
-482.391	7.248	-0.290	0.217
-481.376	14.480	-0.154	0.120
-480.362	800.000	-0.047	-0.160
-479.347	800.000	-0.048	-0.174
-478.332	-200.000	-0.039	0.294
-477.318	44.419	0.078	0.071
-476.303	194.862	-0.087	0.133
-475.289	-200.000	0.013	0.158
-474.274	-62.870	0.100	-0.042
-473.259	-58.064	-0.183	-0.080
-472.245	517.563	0.139	-0.325
-471.230	-39.431	-0.071	-0.037
-470.216	-200.000	0.059	-0.465
-469.201	-115.573	-0.219	0.041
-468.186	-95.702	-0.092	0.025
-467.172	256.541	0.079	-0.136
-466.157	191.047	0.107	-0.162
-465.143	523.191	-0.134	-0.315
-464.128	-137.196	0.213	0.024
-463.113	-116.752	0.047	-0.009
-462.099	192.612	-0.071	0.108
-461.084	55.535	0.341	0.331
-460.070	-200.000	-0.052	-0.228
-459.055	50.913	0.256	-0.243
-458.040	-200.000	-0.050	0.321
-457.026	-200.000	0.034	-0.282
-456.011	-200.000	0.005	0.116
-454.997	-200.000	0.043	0.224
-453.982	503.602	-0.303	0.703
-452.968	-41.428	-0.130	-0.067
-451.953	-96.988	0.152	0.040
-450.938	314.839	0.222	-0.418
-449.924	-200.000	0.045	-0.469
-448.909	-200.000	-0.023	0.262
-447.895	5.908	0.200	-0.148
-446.880	67.909	0.444	0.455
-445.865	-11.405	0.086	0.056
-444.851	-200.000	-0.242	0.001
-443.836	-70.288	-0.103	0.039
-442.822	20.120	-0.165	-0.134
-441.807	341.569	0.152	0.297
-440.792	-68.758	0.281	0.109
-439.778	-26.130	0.210	-0.123
-438.763	-200.000	-0.082	0.438
-437.749	1.499	0.189	0.136
-436.734	800.000	0.034	0.113
-435.719	800.000	0.131	0.387
-434.705	125.702	0.242	-0.306
-433.690	-79.678	-0.094	0.032
-432.676	-200.000	-0.012	0.417
-431.661	-137.253	-0.163	0.019
-430.646	-101.517	-0.269	0.065
-429.632	800.000	0.133	0.369
-428.617	79.201	-0.183	-0.196
-427.603	-22.164	0.314	0.191
-426.588	33.024	-0.295	-0.256
-425.573	-200.000	0.076	0.343
-424.559	-200.000	-0.044	0.375
-423.544	-200.000	0.022	-0.200
-422.530	-98.858	-0.322	-0.082
-421.515	-200.000	0.038	0.369
-420.500	-28.834	-0.243	0.140
-419.486	-63.235	0.344	-0.142
-418.471	-161.077	-0.187	0.010
-417.457	90.757	-0.216	0.242
-416.442	8.030	0.142	0.106
-415.428	-200.000	-0.001	0.134
-414.413	-8.947	0.076	-0.051
-413.398	110.593	-0.033	0.040
-412.384	-16.342	-0.220	0.140
-411.369	-0.414	-0.070	0.050
-410.355	800.000	0.067	-0.191
-409.340	113.186	0.174	-0.211
-408.325	-132.810	-0.226	-0.029
-407.311	6.259	0.122	0.090
-406.296	-129.370	-0.468	0.065
-405.282	-58.422	0.387	0.168
-404.267	-200.000	0.034	-0.162
-403.252	11.549	-0.063	0.048
-402.238	177.647	0.175	-0.255
-401.223	-75.778	-0.086	-0.030
-400.209	-81.369	0.354	-0.117
-399.194	-74.912	-0.302	0.108
-398.179	498.386	-0.066	0.152
-397.165	39.748	-0.238	-0.214
-396.150	192.772	0.086	0.129
-395.136	800.000	-0.087	0.268
-394.121	32.364	0.166	0.143
-393.106	396.972	0.098	0.204
-392.092	62.337	0.130	-0.130
-391.077	288.804	-0.171	0.309
-390.063	628.434	-0.050	-0.127
-389.048	-58.869	0.245	0.106
-388.033	-105.422	-0.266	-0.060
-387.019	348.095	0.154	-0.303
-386.004	-200.000	-0.177	0.000
-384.990	138.650	-0.142	-0.186
-383.975	317.482	-0.105	0.198
-382.960	-61.131	-0.096	0.041
-381.946	-38.358	0.013	-0.007
-380.931	800.000	-0.041	0.140
-379.917	304.570	-0.126	-0.233
-378.902	-200.000	0.032	-0.430
-377.888	86.134	0.304	-0.334
-376.873	70.223	-0.109	0.112
-375.858	-200.000	-0.046	0.284
-374.844	-126.366	-0.246	0.037
-373.829	-200.000	-0.052	-0.310
-372.815	800.000	-0.113	-0.384
-371.800	-62.370	0.263	-0.109
-370.785	57.387	0.084	-0.082
-369.771	-88.507	0.204	-0.061
-368.756	-33.737	-0.446	0.246
-367.742	596.754	0.084	-0.207
-366.727	-126.407	-0.357	-0.053
-365.712	-200.000	-0.013	-0.102
-364.698	-141.616	-0.144	0.015
-363.683	189.423	0.114	0.171
-362.669	229.685	-0.187	-0.305
-361.654	92.145	0.324	-0.364
-360.639	800.000	0.010	0.032
-359.625	-96.604	-0.067	-0.018
-358.610	-30.794	0.222	0.125
-357.596	-60.612	-0.081	-0.034
-356.581	-20.116	-0.227	0.140
-355.566	11.884	-0.077	-0.059
-354.552	-94.348	-0.315	0.086
-353.537	459.909	0.107	-0.238
-352.523	-200.000	-0.075	-0.432
-351.508	29.298	-0.192	0.163
-350.493	-200.000	0.003	0.335
-349.479	-93.667	-0.447	-0.123
-348.464	-200.000	0.017	0.341
-347.450	-200.000	0.082	0.447
-346.435	120.937	-0.275	0.341
-345.420	159.955	-0.158	0.220
-344.406	-200.000	-0.022	0.234
-343.391	226.113	0.128	0.206
-342.377	-17.450	0.327	-0.206
-341.362	32.808	0.250	-0.216
-340.348	-46.659	0.235	-0.115
-339.333	-150.297	0.205	-0.016
-338.318	-158.259	-0.114	0.007
-337.304	172.266	-0.216	0.310
-336.289	800.000	-0.068	-0.188
-335.275	537.880	-0.055	-0.131
-334.260	-200.000	0.049	-0.350
-333.245	-0.746	-0.057	-0.040
-332.231	298.363	-0.054	0.099
-331.216	21.671	-0.083	-0.067
-330.202	137.719	-0.124	-0.161
-329.187	-96.145	0.137	0.036
-328.172	21.895	-0.242	0.196
-327.158	-105.086	-0.352	0.080
-326.143	30.930	-0.235	-0.200
-325.129	600.018	0.066	0.164
-324.114	196.581	-0.114	0.174
-323.099	58.447	0.089	0.087
-322.085	31.901	0.246	-0.211
-321.070	269.900	0.147	-0.257
-320.056	-159.408	0.322	0.018
-319.041	4.065	-0.322	0.235
-318.026	-200.000	-0.052	-0.250
-317.012	727.163	0.121	0.322
-315.997	800.000	0.040	0.138
-314.983	-133.211	-0.497	-0.063
-313.968	206.762	-0.156	-0.243
-312.953	-63.329	0.288	-0.118
-311.939	-23.716	0.245	-0.146
-310.924	-200.000	0.003	-0.353
-309.910	359.178	0.152	0.302
-308.895	-87.455	-0.139	0.042
-307.880	23.910	-0.169	-0.139
-306.866	-200.000	-0.023	0.115
-305.851	-63.010	-0.423	0.174
-304.837	238.166	-0.180	-0.298
-303.822	-200.000	0.007	0.159
-302.807	16.772	-0.275	0.217
-301.793	114.621	0.028	-0.034
-300.778	189.355	0.095	0.141
-299.764	-200.000	0.003	0.241
-298.749	150.420	0.071	-0.096
-297.735	153.753	0.222	-0.302
-296.720	800.000	0.165	-0.596
-295.705	-35.827	-0.041	-0.022
-294.691	-47.857	0.230	0.111
-293.676	15.211	0.125	-0.098
-292.662	453.022	0.102	0.225
-291.647	699.953	0.119	-0.312
-290.632	29.006	-0.173	-0.146
-289.618	21.488	-0.061	0.049
-288.603	800.000	-0.014	0.049
-287.589	21.204	-0.111	0.090
-286.574	341.812	-0.150	-0.292
-285.559	288.309	0.133	0.239
-284.545	-55.414	0.177	-0.079
-283.530	332.049	0.177	-0.339
-282.516	-200.000	-0.013	0.306
-281.501	-200.000	-0.004	-0.101
-280.486	587.572	0.068	0.166
-279.472	-163.702	0.193	0.009
-278.457	-200.000	-0.018	0.167
-277.443	279.306	-0.072	-0.128
-276.428	5.623	0.192	-0.141
-275.413	-200.000	0.020	0.110
-274.399	330.016	0.143	-0.274
-273.384	-200.000	-0.033	-0.214
-272.370	-43.958	0.113	-0.056
-271.355	800.000	0.045	0.180
-270.340	800.000	0.084	0.247
-269.326	-102.394	-0.221	0.053
-268.311	-58.222	-0.424	0.184
-267.297	-124.494	0.224	0.035
-266.282	22.065	0.235	-0.190
-265.267	-58.466	-0.077	-0.033
-264.253	99.900	0.077	-0.089
-263.238	244.568	0.048	-0.080
-262.224	-153.467	-0.102	-0.007
-261.209	-17.935	0.168	0.105
-260.195	-64.265	-0.286	-0.116
-259.180	-74.980	0.276	0.098
-258.165	-200.000	-0.038	0.246
-257.151	75.551	0.068	-0.072
-256.136	153.066	0.231	-0.314
-255.122	133.809	-0.039	-0.050
-254.107	-65.472	-0.154	0.061
-253.092	-6.697	0.106	-0.072
-252.078	-18.747	0.084	0.052
-251.063	-78.934	0.219	0.074
-250.049	-141.728	-0.257	0.026
-249.034	-50.121	0.109	-0.051
-248.019	323.337	0.056	0.106
-247.005	-38.265	-0.164	-0.086
-245.990	28.320	-0.147	0.124
-244.976	-127.930	0.320	-0.046
-243.961	800.000	-0.031	-0.086
-242.946	702.795	0.161	-0.420
-241.932	-51.246	0.081	-0.038
-240.917	-71.039	0.233	0.087
-239.903	76.550	0.259	0.272
-238.888	46.264	0.109	-0.100
-237.873	563.857	0.095	-0.229
-236.859	-56.626	-0.223	-0.098
-235.844	-142.955	0.217	0.021
-234.830	800.000	-0.043	-0.145
-233.815	-23.641	-0.181	-0.108
-232.800	-200.000	0.051	-0.532
-231.786	16.277	-0.093	-0.073
-230.771	14.044	-0.094	0.072
-229.757	128.895	-0.084	-0.107
-228.742	124.066	0.088	-0.110
-227.727	-63.698	0.228	-0.093
-226.713	-33.973	-0.125	0.068
-225.698	548.676	-0.170	0.405
-224.684	260.968	-0.227	-0.390
-223.669	133.097	-0.082	0.105
-222.655	536.520	-0.079	0.187
-221.640	109.587	0.033	0.040
-220.625	-200.000	0.004	0.174
-219.611	-101.856	0.276	0.066
-218.596	-200.000	-0.022	0.481
-217.582	-50.455	-0.250	0.117
-216.567	-200.000	-0.009	-0.177
-215.552	72.926	0.161	0.166
-214.538	800.000	-0.014	0.051
-213.523	-162.671	0.180	-0.009
-212.509	800.000	-0.093	-0.402
-211.494	58.134	-0.091	0.088
-210.479	195.147	-0.092	0.138
-209.465	4.806	-0.526	0.383
-208.450	-54.011	-0.280	0.126
-207.436	21.210	0.303	-0.244
-206.421	-200.000	-0.220	-0.001
-205.406	462.146	-0.138	-0.305
-204.392	800.000	-0.082	0.259
-203.377	-56.142	0.284	0.126
-202.363	118.512	-0.106	0.130
-201.348	202.267	0.125	0.191
-200.333	-54.962	0.070	-0.031
-199.319	800.000	0.062	0.224
-198.304	43.490	0.233	0.211
-197.290	-200.000	-0.037	0.210
-196.275	52.254	-0.032	0.031
-195.260	-134.638	0.335	0.041
-194.246	-96.651	0.074	-0.019
-193.231	-157.051	-0.331	0.020
-192.217	-182.114	-0.336	-0.006
-191.202	-97.053	0.212	-0.055
-190.187	800.000	0.084	-0.253
-189.173	-84.117	-0.163	0.051
-188.158	191.339	0.116	-0.173
-187.144	-82.003	-0.150	-0.048
-186.129	429.604	0.052	-0.112
-185.114	15.722	0.097	-0.076
-184.100	40.702	0.100	0.089
-183.085	59.979	-0.041	-0.040
-182.071	334.219	-0.006	-0.011
-181.056	-200.000	0.004	-0.098
-180.042	-43.272	-0.275	-0.138
-179.027	-200.000	0.016	0.264
-178.012	-85.917	0.156	0.048
-176.998	-57.710	-0.105	0.045
-175.983	174.313	0.197	-0.283
-174.969	-142.818	0.322	-0.031
-173.954	33.568	0.205	0.176
-172.939	800.000	0.032	-0.135
-171.925	181.588	0.073	-0.107
-170.910	497.650	0.062	-0.142
-169.896	698.920	-0.074	-0.192
-168.881	800.000	0.100	-0.326
-167.866	22.863	-0.115	0.094
-166.852	40.386	0.175	0.156
-165.837	260.474	0.049	0.085
-164.823	-113.242	-0.094	-0.018
-163.808	800.000	0.019	-0.058
-162.793	-129.504	0.220	-0.030
-161.779	800.000	0.069	0.233
-160.764	-200.000	-0.011	-0.142
-159.750	-200.000	0.002	-0.181
-158.735	-126.537	0.216	-0.032
-157.720	-200.000	-0.032	0.180
-156.706	-83.496	0.362	0.115
-155.691	-200.000	-0.004	0.395
-154.677	800.000	0.056	0.233
-153.662	97.940	0.041	-0.047
-152.647	153.891	0.120	0.163
-151.633	177.719	0.156	-0.225
-150.618	782.203	-0.155	-0.421
-149.604	800.000	-0.009	-0.036
-148.589	-47.795	-0.258	-0.124
-147.574	-38.654	0.047	0.025
-146.560	184.578	0.050	-0.073
-145.545	101.192	0.109	0.125
-144.531	800.000	-0.037	0.115
-143.516	-47.128	-0.228	0.110
-142.502	-46.943	0.205	0.099
-141.487	56.209	-0.072	0.069
-140.472	-40.833	0.110	-0.056
-139.458	346.698	-0.077	0.151
-138.443	146.247	-0.289	0.384
-137.429	-163.937	0.055	-0.003
-136.414	-12.375	0.276	-0.178
-135.399	-56.589	-0.198	0.087
-134.385	357.142	0.117	0.231
-133.370	18.764	0.193	0.153
-132.356	75.083	0.185	-0.193
-131.341	-200.000	0.022	0.222
-130.326	99.674	0.123	0.141
-129.312	31.401	0.158	0.134
-128.297	-200.000	-0.003	0.053
-127.283	-162.234	0.205	-0.010
-126.268	-142.364	-0.295	0.029
-125.253	460.451	-0.095	0.208
-124.239	-200.000	-0.006	0.089
-123.224	-129.457	-0.158	0.022
-122.210	422.644	0.086	0.183
-121.195	-81.159	-0.055	-0.018
-120.180	-200.000	0.102	0.502
-119.166	352.310	-0.090	0.177
-118.151	-123.760	-0.300	-0.047
-117.137	-86.776	0.239	0.072
-116.122	-158.987	-0.210	-0.012
-115.107	-57.063	0.317	0.138
-114.093	452.237	0.211	-0.462
-113.078	45.551	-0.240	-0.219
-112.064	-200.000	0.277	0.000
-111.049	-200.000	-0.008	0.099
-110.034	184.343	0.091	-0.133
-109.020	-77.615	0.106	0.036
-108.005	-20.401	0.289	0.176
-106.991	-31.614	0.239	-0.133
-105.976	-200.000	0.032	-0.557
-104.962	-1.264	-0.240	-0.168
-103.947	-77.095	0.270	-0.093
-102.932	2.583	-0.353	-0.252
-101.918	-109.522	0.442	-0.092
-100.903	77.955	-0.157	-0.165
-99.889	186.085	-0.214	-0.314
-98.874	-46.637	0.079	-0.038
-97.859	-64.568	0.070	-0.028
-96.845	31.108	0.144	-0.122
-95.830	-59.014	-0.119	-0.051
-94.816	108.047	-0.139	0.164
-93.801	-200.000	-0.111	0.570
-92.786	167.144	-0.096	0.135
-91.772	800.000	0.180	-0.496
-90.757	-87.663	-0.412	0.123
-89.743	393.297	0.112	-0.231
-88.728	512.981	0.117	-0.270
-87.713	800.000	-0.044	0.128
-86.699	87.676	0.228	-0.249
-85.684	-200.000	-0.002	-0.275
-84.670	-200.000	-0.029	-0.228
-83.655	800.000	-0.082	-0.230
-82.640	-169.199	-0.277	-0.010
-81.626	800.000	-0.023	0.068
-80.611	-200.000	0.043	0.357
-79.597	-36.477	0.194	-0.103
-78.582	688.961	0.053	-0.137
-77.567	451.913	-0.102	-0.222
-76.553	140.131	0.055	-0.071
-75.538	1.312	0.230	-0.163
-74.524	-86.844	0.189	-0.057
-73.509	137.566	-0.025	0.032
-72.494	-59.716	-0.438	0.185
-71.480	-137.440	0.133	0.015
-70.465	800.000	0.065	-0.277
-69.451	500.213	-0.107	0.244
-68.436	262.407	0.095	0.163
-67.422	-39.737	0.346	-0.179
-66.407	251.782	0.089	0.150
-65.392	800.000	0.019	-0.056
-64.378	50.366	0.170	-0.158
-63.363	-200.000	-0.010	0.172
-62.349	35.026	0.063	0.054
-61.334	8.631	-1.035	-0.769
-60.319	6.182	0.568	0.415
-59.305	766.728	-0.185	-0.497
-58.290	444.319	0.448	0.970
-57.276	614.990	0.703	1.738
-56.261	-200.000	85.668	496.447
-55.246	499.880	1355.954	3083.971
-54.232	151.533	2577.541	3462.449
-53.217	109.423	2312.005	2730.832
-52.203	47.298	1931.887	1774.448
-51.188	41.494	1721.461	1536.584
-50.173	38.700	1676.831	1475.685
-49.159	53.754	1719.922	1628.617
-48.144	57.462	1740.122	1675.972
-47.130	41.352	1697.665	1514.023
-46.115	38.291	1683.778	1478.468
-45.100	38.116	1678.746	1472.674
-44.086	38.066	1676.099	1469.914
-43.071	38.086	1673.375	1467.623
-42.057	38.070	1671.088	1465.435
-41.042	38.139	1669.216	1464.255
-40.027	38.110	1667.237	1462.241
-39.013	38.202	1664.774	1460.710
-37.998	38.145	1662.973	1458.649
-36.984	38.084	1661.970	1457.256
-35.969	38.220	1660.103	1456.578
-34.954	38.253	1658.543	1455.392
-33.940	38.268	1656.414	1453.577
-32.925	38.120	1655.241	1451.392
-31.911	38.322	1653.018	1450.884
-30.896	38.198	1652.087	1449.089
-29.881	38.205	1650.381	1447.589
-28.867	38.232	1648.720	1446.271
-27.852	38.298	1647.239	1445.409
-26.838	38.343	1645.383	1444.056
-25.823	38.312	1644.470	1442.965
-24.809	38.300	1643.086	1441.603
-23.794	38.236	1641.792	1439.941
-22.779	38.289	1640.143	1438.824
-21.765	38.277	1638.942	1437.626
-20.750	38.294	1636.722	1435.746
-19.736	38.273	1635.383	1434.359
-18.721	38.290	1633.755	1433.006
-17.706	38.246	1632.456	1431.484
-16.692	38.250	1630.961	1430.144
-15.677	38.322	1629.357	1429.209
-14.663	38.303	1628.482	1428.243
-13.648	38.341	1627.123	1427.272
-12.633	38.376	1625.401	1425.963
-11.619	38.348	1623.509	1424.041
-10.604	38.243	1622.403	1422.253
-9.590	38.240	1621.247	1421.163
-8.575	38.188	1620.485	1420.058
-7.560	38.289	1618.626	1419.108
-6.546	38.231	1617.653	1417.777
-5.531	38.226	1616.485	1416.662
-4.517	38.220	1615.444	1415.647
-3.502	38.218	1614.373	1414.635
-2.487	38.230	1612.683	1413.189
-1.473	37.761	1600.545	1399.130
-0.458	34.708	1579.075	1358.627
0.556	30.279	1577.344	1320.611
1.571	27.473	1601.045	1320.033
2.586	26.878	1615.367	1327.373
3.600	23.869	1562.574	1262.544
4.615	13.398	1447.864	1100.478
5.629	3.454	1376.855	983.256
6.644	1.591	1367.110	964.411
7.659	1.390	1365.909	962.205
8.673	1.366	1364.951	961.291
9.688	1.332	1363.365	959.877
10.702	1.157	1360.054	956.354
11.717	4.710	1367.623	984.092
12.731	15.209	1387.547	1065.413
13.746	23.570	1401.634	1129.601
14.761	25.246	1403.595	1141.755
15.775	25.487	1403.671	1143.248
16.790	25.536	1403.017	1142.926
17.804	25.512	1402.136	1141.960
18.819	25.794	1402.224	1143.718
19.834	25.936	1401.250	1143.728
20.848	25.911	1400.844	1143.135
21.863	25.931	1399.868	1142.365
22.877	25.917	1398.669	1141.196
23.892	25.950	1398.132	1140.866
24.907	25.957	1397.248	1140.088
25.921	25.961	1396.318	1139.254
26.936	25.944	1395.390	1138.284
27.950	25.862	1394.593	1137.016
28.965	25.922	1393.202	1136.165
29.980	25.876	1391.707	1134.554
30.994	25.966	1390.187	1133.780
32.009	26.052	1388.875	1133.148
33.023	25.877	1388.760	1131.855
34.038	25.893	1387.378	1130.731
35.053	25.856	1386.290	1129.510
36.067	25.985	1385.309	1129.417
37.082	25.943	1384.113	1128.083
38.096	25.841	1383.339	1126.713
39.111	25.959	1382.099	1126.339
40.126	25.852	1381.917	1125.425
41.140	25.897	1381.424	1125.202
42.155	25.901	1380.950	1124.741
43.169	25.912	1380.983	1124.742
44.184	25.835	1381.065	1124.224
45.199	25.828	1380.593	1123.697
46.213	25.967	1379.637	1123.688
47.228	25.926	1378.498	1122.403
48.242	25.847	1377.523	1121.019
49.257	25.901	1376.005	1120.019
50.271	25.948	1374.493	1118.983
51.286	25.906	1372.984	1117.394
52.301	25.972	1371.246	1116.294
53.315	25.907	1371.353	1115.876
54.330	25.858	1370.363	1114.670
55.344	25.909	1369.203	1113.945
56.359	25.891	1368.001	1112.756
57.374	25.896	1367.196	1112.032
58.388	25.911	1367.112	1111.957
59.403	25.942	1366.570	1111.608
60.417	25.914	1365.511	1110.479
61.432	25.846	1365.179	1109.693
62.447	25.896	1364.236	1109.135
63.461	25.894	1363.212	1108.192
64.476	25.809	1362.241	1106.779
65.490	25.981	1360.769	1106.542
66.505	25.962	1359.134	1105.001
67.520	26.021	1357.804	1104.182
68.534	25.932	1357.210	1103.057
69.549	25.981	1356.157	1102.405
70.563	25.889	1355.305	1101.052
71.578	25.984	1353.627	1100.171
72.593	25.994	1353.353	1099.909
73.607	25.833	1352.944	1098.497
74.622	25.858	1352.033	1097.813
75.636	26.015	1350.903	1097.752
76.651	25.945	1350.664	1097.038
77.666	25.853	1350.230	1096.025
78.680	25.927	1350.157	1096.320
79.695	25.963	1348.433	1095.041
80.709	25.897	1348.124	1094.293
81.724	25.996	1346.809	1093.729
82.739	25.949	1345.566	1092.340
83.753	25.932	1344.870	1091.576
84.768	25.879	1344.203	1090.616
85.782	25.918	1342.899	1089.698
86.797	25.874	1341.736	1088.393
87.812	25.937	1340.664	1087.807
88.826	25.917	1339.513	1086.657
89.841	25.926	1338.247	1085.587
90.855	25.958	1337.554	1085.122
91.870	25.974	1336.580	1084.334
92.884	26.025	1335.787	1083.899
93.899	26.026	1335.059	1083.220
94.914	25.889	1334.576	1081.907
95.928	26.036	1333.271	1081.635
96.943	25.914	1333.004	1080.594
97.957	26.027	1332.162	1080.491
98.972	26.000	1331.329	1079.556
99.987	25.986	1330.389	1078.619
101.001	25.943	1329.568	1077.598
102.016	25.920	1328.425	1076.438
103.030	25.995	1327.734	1076.232
104.045	26.062	1326.316	1075.385
105.060	25.946	1325.863	1074.235
106.074	25.975	1324.816	1073.460
107.089	25.943	1323.851	1072.394
108.103	26.003	1322.568	1071.615
109.118	26.040	1321.549	1070.914
110.133	26.029	1320.562	1069.957
111.147	26.139	1319.124	1069.346
112.162	25.969	1318.567	1067.794
113.176	26.109	1317.411	1067.596
114.191	25.966	1316.528	1065.941
115.206	26.092	1315.363	1065.647
116.220	26.078	1314.450	1064.728
117.235	26.028	1313.835	1063.843
118.249	26.017	1313.082	1063.070
119.264	25.960	1312.105	1061.852
120.279	26.113	1310.765	1061.573
121.293	25.943	1310.864	1060.559
122.308	26.102	1309.450	1060.255
123.322	26.023	1308.815	1059.185
124.337	26.038	1307.937	1058.468
125.352	26.065	1306.725	1057.555
126.366	26.144	1306.083	1057.402
127.381	26.107	1305.020	1056.229
128.395	26.184	1304.037	1055.790
129.410	25.994	1303.982	1054.542
130.424	26.190	1302.631	1054.503
131.439	26.164	1301.857	1053.628
132.454	26.030	1301.163	1052.195
133.468	26.052	1300.661	1051.820
134.483	26.112	1300.152	1051.670
135.497	25.990	1299.290	1050.164
136.512	26.155	1297.745	1049.782
137.527	26.136	1297.112	1049.070
138.541	26.137	1295.658	1047.805
139.556	26.084	1294.421	1046.404
140.570	26.074	1293.334	1045.378
141.585	26.046	1292.671	1044.588
142.600	26.070	1291.580	1043.748
143.614	26.139	1290.850	1043.470
144.629	26.005	1289.957	1041.877
145.643	26.048	1288.200	1040.616
146.658	26.001	1287.631	1039.793
147.673	26.034	1286.640	1039.090
148.687	26.066	1285.407	1038.187
149.702	25.942	1284.185	1036.395
150.716	25.995	1283.253	1035.857
151.731	25.919	1282.612	1034.809
152.746	26.035	1281.620	1034.585
153.760	26.040	1280.494	1033.615
154.775	26.067	1279.771	1033.093
155.789	26.086	1278.394	1031.998
156.804	26.059	1277.655	1031.154
157.819	26.076	1276.551	1030.272
158.833	26.091	1276.147	1029.942
159.848	26.080	1274.962	1028.827
160.862	26.115	1274.603	1028.648
161.877	26.187	1273.334	1027.941
162.892	26.112	1272.862	1027.046
163.906	26.130	1272.178	1026.506
164.921	26.132	1271.526	1025.899
165.935	26.222	1270.675	1025.633
166.950	26.129	1270.198	1024.630
167.964	26.070	1269.566	1023.693
168.979	26.182	1268.856	1023.667
169.994	26.167	1268.597	1023.278
171.008	26.231	1267.270	1022.484
172.023	26.208	1267.078	1022.105
173.037	26.233	1266.376	1021.590
174.052	26.277	1265.359	1020.926
175.067	26.230	1264.550	1019.920
176.081	26.215	1263.881	1019.205
177.096	26.285	1263.147	1018.918
178.110	26.196	1262.021	1017.419
179.125	26.263	1261.126	1016.986
180.140	26.257	1260.219	1016.132
181.154	26.211	1259.237	1014.989
182.169	26.181	1258.228	1013.919
183.183	26.132	1257.450	1012.926
184.198	26.324	1255.853	1012.627
185.213	26.235	1255.433	1011.696
186.227	26.179	1254.543	1010.579
187.242	26.336	1253.193	1010.278
188.256	26.339	1252.466	1009.621
189.271	26.285	1251.710	1008.623
190.286	26.260	1251.126	1007.922
191.300	26.253	1250.325	1007.150
192.315	26.168	1250.007	1006.330
193.329	26.241	1250.086	1006.711
194.344	26.256	1249.336	1006.103
195.359	26.337	1248.665	1005.924
196.373	26.273	1248.116	1005.034
197.388	25.997	1248.589	1003.790
198.402	26.152	1247.626	1003.787
199.417	26.221	1247.491	1003.976
200.432	26.217	1246.640	1003.178
201.446	26.221	1245.668	1002.329
202.461	26.331	1244.784	1002.143
203.475	26.214	1244.585	1001.241
204.490	26.273	1243.258	1000.416
205.504	26.306	1241.982	999.483
206.519	26.336	1240.950	998.728
207.534	26.385	1239.738	997.935
208.548	26.175	1239.510	996.504
209.563	26.316	1238.374	996.282
210.577	26.355	1237.720	995.879
211.592	26.355	1236.848	995.090
212.607	26.325	1236.514	994.567
213.621	26.437	1235.660	994.408
214.636	26.317	1234.755	992.934
215.650	26.502	1233.621	992.951
216.665	26.446	1232.758	991.862
217.680	26.322	1232.214	990.656
218.694	26.419	1231.219	990.300
219.709	26.429	1230.835	989.958
220.723	26.470	1230.095	989.497
221.738	26.428	1229.190	988.453
222.753	26.259	1228.925	987.231
223.767	26.351	1227.862	986.788
224.782	26.379	1227.650	986.688
225.796	26.379	1227.055	986.122
226.811	26.507	1226.276	986.106
227.826	26.452	1225.772	985.311
228.840	26.489	1224.826	984.667
229.855	26.506	1224.235	984.197
230.869	26.537	1223.686	983.835
231.884	26.495	1222.975	982.951
232.899	26.519	1221.925	982.148
233.913	26.522	1221.490	981.728
234.928	26.463	1221.298	981.169
235.942	26.535	1220.826	981.089
236.957	26.479	1219.577	979.698
237.972	26.474	1219.128	979.225
238.986	26.432	1218.403	978.328
240.001	26.583	1218.110	978.819
241.015	26.643	1217.022	978.183
242.030	26.612	1216.536	977.540
243.045	26.599	1215.678	976.695
244.059	26.658	1214.687	976.131
245.074	26.594	1214.105	975.233
246.088	26.883	1212.744	975.605
247.103	26.830	1211.772	974.451
248.117	26.819	1211.221	973.864
249.132	26.642	1210.854	972.531
250.147	26.600	1210.192	971.689
251.161	26.776	1209.361	971.880
252.176	26.645	1208.933	970.745
253.190	26.646	1208.190	970.073
254.205	26.699	1207.592	969.791
255.220	26.794	1206.614	969.425
256.234	26.781	1206.483	969.165
257.249	26.697	1205.825	968.100
258.263	26.694	1205.100	967.420
259.278	26.778	1204.737	967.489
260.293	26.818	1203.989	967.016
261.307	26.913	1203.072	966.701
262.322	26.796	1203.056	965.978
263.336	26.914	1201.949	965.630
264.351	26.881	1201.428	964.953
265.366	26.784	1200.753	963.810
266.380	26.814	1200.340	963.553
267.395	26.857	1199.455	962.982
268.409	26.831	1198.990	962.387
269.424	26.858	1198.118	961.747
270.439	26.824	1198.190	961.538
271.453	26.754	1197.539	960.561
272.468	26.873	1196.242	960.067
273.482	26.810	1195.544	959.087
274.497	26.768	1195.762	958.954
275.512	26.920	1194.403	958.583
276.526	26.869	1194.025	957.926
277.541	26.855	1193.379	957.251
278.555	26.942	1192.497	956.916
279.570	26.976	1191.898	956.529
280.585	26.900	1191.187	955.471
281.599	26.885	1190.433	954.703
282.614	26.853	1189.687	953.852
283.628	26.812	1188.457	952.567
284.643	26.910	1187.680	952.377
285.657	26.890	1187.161	951.770
286.672	27.002	1185.858	951.229
287.687	27.025	1184.997	950.572
288.701	26.964	1184.549	949.808
289.716	26.937	1183.846	949.019
290.730	27.030	1183.084	948.811
291.745	27.042	1182.759	948.530
292.760	27.021	1182.302	947.972
293.774	27.096	1181.387	947.545
294.789	26.999	1181.471	947.021
295.803	27.047	1180.533	946.434
296.818	27.052	1179.749	945.752
297.833	27.157	1179.021	945.628
298.847	27.193	1178.250	945.112
299.862	27.173	1177.436	944.271
300.876	27.041	1177.220	943.329
301.891	27.193	1176.615	943.550
302.906	27.181	1175.572	942.569
303.920	27.199	1175.260	942.332
304.935	27.195	1174.149	941.336
305.949	27.171	1173.923	940.947
306.964	27.249	1173.278	940.748
307.979	27.239	1172.103	939.670
308.993	27.244	1171.940	939.484
310.008	27.263	1171.043	938.780
311.022	27.345	1170.431	938.631
312.037	27.298	1169.545	937.594
313.052	27.170	1168.847	936.294
314.066	27.151	1168.366	935.725
315.081	27.257	1167.458	935.462
316.095	27.357	1166.865	935.416
317.110	27.378	1166.052	934.793
318.125	27.301	1165.085	933.536
319.139	27.285	1164.408	932.829
320.154	27.293	1164.294	932.697
321.168	27.420	1163.291	932.461
322.183	27.330	1163.272	931.905
323.197	27.299	1162.492	931.037
324.212	27.250	1162.263	930.521
325.227	27.341	1161.343	930.165
326.241	27.392	1160.935	930.016
327.256	27.417	1159.759	929.123
328.270	27.369	1159.410	928.515
329.285	27.388	1158.318	927.655
330.300	27.406	1157.611	927.099
331.314	27.413	1156.731	926.346
332.329	27.441	1155.704	925.583
333.343	27.540	1155.120	925.537
334.358	27.441	1154.865	924.752
335.373	27.457	1153.976	924.038
336.387	27.511	1153.290	923.680
337.402	27.578	1152.437	923.257
338.416	27.526	1151.713	922.330
339.431	27.453	1151.526	921.728
340.446	27.587	1150.597	921.582
341.460	27.611	1149.981	921.125
342.475	27.622	1149.227	920.499
343.489	27.474	1148.265	918.897
344.504	27.554	1147.652	918.730
345.519	27.574	1146.768	918.044
346.533	27.655	1145.948	917.715
347.548	27.718	1145.002	917.193
348.562	27.723	1144.284	916.559
349.577	27.660	1143.924	915.872
350.592	27.538	1143.124	914.540
351.606	27.568	1142.406	914.034
352.621	27.670	1141.940	914.093
353.635	27.771	1140.935	913.714
354.650	27.642	1140.795	912.873
355.665	27.661	1140.065	912.304
356.679	27.844	1138.931	912.228
357.694	27.742	1138.630	911.396
358.708	27.791	1137.882	910.962
359.723	27.757	1137.239	910.198
360.738	27.797	1136.432	909.673
361.752	27.750	1136.199	909.168
362.767	27.796	1135.698	908.917
363.781	27.866	1134.871	908.523
364.796	27.795	1134.556	907.841
365.810	27.898	1133.979	907.807
366.825	27.871	1133.032	906.835
367.840	27.975	1132.710	907.016
368.854	28.020	1131.985	906.578
369.869	27.928	1131.237	905.441
370.883	27.870	1130.832	904.748
371.898	27.883	1129.805	903.913
372.913	27.967	1129.122	903.700
373.927	27.896	1129.131	903.279
374.942	27.980	1128.362	902.998
375.956	27.976	1128.144	902.724
376.971	27.955	1127.383	901.931
377.986	27.968	1126.834	901.478
379.000	27.921	1126.422	900.833
380.015	28.086	1125.278	900.655
381.029	27.918	1125.145	899.639
382.044	27.941	1124.557	899.202
383.059	28.008	1123.997	899.005
384.073	28.166	1122.666	898.638
385.088	28.034	1122.000	897.379
386.102	28.145	1121.237	897.232
387.117	28.156	1120.328	896.476
388.132	28.000	1119.585	895.042
389.146	28.002	1119.179	894.648
390.161	28.156	1118.354	894.663
391.175	28.222	1117.683	894.370
392.190	28.259	1116.735	893.713
393.205	28.160	1116.331	892.823
394.219	28.183	1115.897	892.513
395.234	28.153	1114.803	891.410
396.248	28.202	1113.791	890.764
397.263	28.303	1112.820	890.395
398.278	28.262	1112.423	889.803
399.292	28.350	1111.633	889.517
400.307	28.302	1111.266	888.914
401.321	28.352	1110.516	888.475
402.336	28.314	1110.182	887.945
403.350	28.338	1109.422	887.376
404.365	28.398	1108.506	886.857
405.380	28.406	1108.132	886.518
406.394	28.342	1107.241	885.417
407.409	28.318	1106.997	885.028
408.423	28.473	1105.843	884.773
409.438	28.429	1105.109	883.895
410.453	28.377	1105.063	883.530
411.467	28.445	1104.018	882.942
412.482	28.436	1103.186	882.159
413.496	28.478	1102.296	881.572
414.511	28.510	1101.767	881.222
415.526	28.417	1101.501	880.484
416.540	28.482	1101.132	880.426
417.555	28.458	1100.280	879.551
418.569	28.491	1099.935	879.356
419.584	28.576	1099.659	879.462
420.599	28.567	1099.179	878.958
421.613	95.866	1310.534	1414.400
422.628	89.654	1341.304	1414.536
