DTS Sentinel unit serial number:	SN413079Multiplexer serial number:	ORYXHardware model number:	OX4-SRSoftware version number:	ORYX F/W v4.00 Oryx Data Collector v3.7.2.0data status	okinstallation	princeton_trtdifferential loss correction	single-endedforward channel	channel 2reverse channel	N/Adate	2019/09/17time	10:15:34forward acquisition time	60.00reverse acquisition time	0.00gamma	496.2192k internal	0.2325k external	0.2325temperature offset calibration	0.9974default loss term (dB/km)	0.3790temperature slope calibration	1.0000multiplexer offset coefficient	1.0000multiplexer slope coefficient	1.0000fibre end	0.00T internal ref (°C)	29.81T ext. ref 1 (°C)	0.16T ext. ref 2 (°C)	25.33length (m)	temperature (°C)	Stokes	anti-Stokes-747.200	-96.683	-0.364	-0.097
-746.185	89.926	0.346	0.390
-745.171	800.000	-0.111	0.340
-744.156	-65.607	-0.254	0.103
-743.142	98.145	-0.154	0.179
-742.127	423.717	-0.080	0.173
-741.112	-9.009	0.303	-0.205
-740.098	445.067	-0.071	0.157
-739.083	800.000	0.074	-0.270
-738.069	-145.027	-0.179	0.016
-737.054	603.521	0.087	0.218
-736.039	135.821	-0.034	0.044
-735.025	297.973	0.164	-0.304
-734.010	800.000	-0.017	0.050
-732.996	-122.653	-0.420	0.069
-731.981	664.501	-0.050	-0.129
-730.966	-200.000	0.006	0.056
-729.952	-162.758	-0.277	-0.014
-728.937	-45.660	-0.171	-0.085
-727.923	-80.700	-0.151	0.051
-726.908	240.327	-0.089	0.150
-725.894	550.063	0.019	-0.046
-724.879	-32.041	-0.412	0.232
-723.864	800.000	0.069	0.291
-722.850	457.035	-0.107	-0.238
-721.835	546.256	0.095	0.229
-720.821	164.840	0.185	-0.263
-719.806	-200.000	0.003	-0.088
-718.791	33.232	0.198	0.173
-717.777	9.018	-0.085	0.064
-716.762	-84.458	-0.528	0.168
-715.748	-13.553	0.238	-0.155
-714.733	-80.782	-0.138	0.046
-713.718	-132.013	-0.226	0.030
-712.704	-23.499	-0.107	-0.065
-711.689	-51.086	0.092	-0.043
-710.675	354.125	0.077	0.154
-709.660	-139.256	-0.197	0.021
-708.645	-200.000	0.010	-0.181
-707.631	-145.850	0.299	0.027
-706.616	800.000	0.068	0.207
-705.602	364.844	0.068	0.139
-704.587	-129.618	0.183	0.025
-703.572	-83.632	-0.250	0.080
-702.558	152.780	0.051	-0.070
-701.543	359.510	0.117	-0.236
-700.529	-134.785	-0.188	-0.023
-699.514	332.512	-0.097	0.189
-698.499	-123.479	0.069	-0.011
-697.485	-200.000	-0.075	-0.435
-696.470	800.000	-0.058	-0.197
-695.456	-22.408	0.172	0.105
-694.441	-91.700	-0.326	0.093
-693.426	347.158	-0.027	0.054
-692.412	0.090	-0.100	0.072
-691.397	-26.259	0.062	0.037
-690.383	159.441	-0.056	0.078
-689.368	11.982	0.127	-0.099
-688.354	149.607	-0.306	-0.417
-687.339	-66.587	0.226	0.090
-686.324	-141.105	0.183	-0.019
-685.310	-200.000	0.030	-0.439
-684.295	-120.217	0.123	-0.021
-683.281	398.908	-0.038	0.081
-682.266	-122.618	-0.181	-0.030
-681.251	-200.000	0.039	-0.345
-680.237	-135.451	0.275	-0.033
-679.222	-12.223	0.223	0.146
-678.208	-200.000	0.005	0.167
-677.193	-140.971	-0.303	-0.031
-676.178	56.841	-0.071	-0.069
-675.164	119.359	0.113	-0.141
-674.149	-13.083	0.281	0.183
-673.135	800.000	-0.143	-0.432
-672.120	-146.595	0.068	0.006
-671.105	-200.000	0.060	0.410
-670.091	33.252	0.295	0.258
-669.076	97.431	-0.267	-0.309
-668.062	-97.162	0.268	0.070
-667.047	366.001	-0.066	-0.133
-666.032	109.544	0.302	-0.364
-665.018	453.482	0.058	0.128
-664.003	800.000	0.047	-0.178
-662.989	472.484	-0.076	0.172
-661.974	-200.000	-0.033	0.255
-660.959	800.000	0.088	0.321
-659.945	800.000	-0.035	-0.126
-658.930	-200.000	-0.001	-0.004
-657.916	-43.455	-0.240	0.122
-656.901	-37.393	0.059	0.031
-655.886	-38.839	-0.157	0.083
-654.872	-36.782	-0.054	-0.029
-653.857	-113.532	0.288	0.057
-652.843	-37.850	0.187	0.100
-651.828	-200.000	0.041	0.222
-650.814	75.844	0.203	-0.216
-649.799	-200.000	-0.001	-0.213
-648.784	-200.000	-0.022	0.241
-647.770	-200.000	0.045	0.478
-646.755	-200.000	0.022	0.122
-645.741	-115.125	-0.308	-0.059
-644.726	317.374	0.217	-0.412
-643.711	800.000	0.013	-0.040
-642.697	-200.000	-0.013	-0.224
-641.682	-200.000	0.013	-0.276
-640.668	274.897	-0.142	0.253
-639.653	-94.497	0.009	-0.002
-638.638	345.756	0.077	0.152
-637.624	797.170	0.058	-0.161
-636.609	800.000	-0.033	0.139
-635.595	-71.317	0.109	0.041
-634.580	-200.000	-0.056	-0.367
-633.565	-7.832	0.066	-0.045
-632.551	-48.063	-0.254	0.123
-631.536	22.086	0.148	0.121
-630.522	-70.579	-0.124	0.047
-629.507	635.237	0.087	0.221
-628.492	404.709	-0.074	-0.157
-627.478	800.000	-0.059	0.220
-626.463	-26.472	0.061	-0.036
-625.449	47.843	-0.347	0.326
-624.434	-63.721	0.113	0.047
-623.419	800.000	-0.143	0.418
-622.405	-25.974	-0.047	-0.028
-621.390	-25.267	0.250	-0.148
-620.376	800.000	0.061	-0.196
-619.361	477.432	-0.152	-0.345
-618.346	68.660	-0.031	0.032
-617.332	-151.728	0.375	-0.028
-616.317	331.196	-0.066	-0.127
-615.303	-171.929	-0.230	-0.008
-614.288	204.360	0.172	-0.267
-613.273	-200.000	-0.018	-0.199
-612.259	-168.680	0.373	0.014
-611.244	-185.292	0.207	-0.003
-610.230	20.834	0.200	0.162
-609.215	57.152	0.078	-0.077
-608.201	-200.000	0.002	-0.115
-607.186	247.636	0.082	0.139
-606.171	-66.423	0.206	0.082
-605.157	-154.048	-0.265	-0.018
-604.142	420.801	-0.117	0.252
-603.128	-92.479	-0.182	0.051
-602.113	497.395	-0.156	-0.361
-601.098	-52.120	0.117	0.054
-600.084	127.634	0.187	0.238
-599.069	-8.076	-0.209	0.141
-598.055	-165.423	0.034	-0.002
-597.040	104.066	-0.190	0.224
-596.025	-119.787	-0.192	0.033
-595.011	-39.625	-0.290	0.152
-593.996	-200.000	0.007	0.045
-592.982	800.000	-0.078	-0.251
-591.967	24.017	-0.190	-0.157
-590.952	-200.000	0.032	-0.488
-589.938	-39.598	-0.283	0.148
-588.923	-188.295	-0.121	0.002
-587.909	-191.305	-0.264	-0.003
-586.894	-153.355	-0.280	-0.020
-585.879	-160.344	-0.094	-0.005
-584.865	612.593	-0.029	-0.073
-583.850	-200.000	0.033	0.153
-582.836	-200.000	0.004	0.132
-581.821	643.156	0.069	-0.177
-580.806	-83.871	-0.092	0.029
-579.792	17.324	-0.201	0.160
-578.777	-40.967	-0.271	0.141
-577.763	187.483	0.182	-0.272
-576.748	273.371	-0.063	0.111
-575.733	-104.599	0.123	0.028
-574.719	-58.638	-0.291	0.127
-573.704	800.000	0.059	-0.163
-572.690	-145.478	0.204	-0.018
-571.675	56.960	-0.116	-0.113
-570.661	-121.523	-0.132	-0.022
-569.646	449.397	-0.240	0.531
-568.631	-194.704	-0.182	-0.001
-567.617	-200.000	-0.026	0.157
-566.602	298.083	-0.076	0.140
-565.588	800.000	-0.120	0.370
-564.573	-124.975	-0.038	-0.006
-563.558	494.035	-0.064	-0.147
-562.544	800.000	-0.113	-0.367
-561.529	-13.702	0.098	0.064
-560.515	148.368	0.051	-0.069
-559.500	58.206	-0.083	-0.082
-558.485	17.697	-0.180	-0.143
-557.471	800.000	-0.022	0.082
-556.456	800.000	-0.063	-0.175
-555.442	-34.599	-0.182	0.100
-554.427	-80.084	-0.303	-0.102
-553.412	301.246	0.041	0.075
-552.398	-15.981	0.100	-0.064
-551.383	270.334	-0.040	-0.070
-550.369	800.000	-0.072	0.266
-549.354	-107.362	-0.357	0.078
-548.339	-143.214	0.233	0.022
-547.325	-177.671	0.117	-0.003
-546.310	63.014	0.242	-0.242
-545.296	-200.000	0.002	-0.045
-544.281	-145.960	-0.245	-0.022
-543.266	229.477	0.064	-0.104
-542.252	-82.033	-0.394	-0.129
-541.237	-79.507	0.279	-0.094
-540.223	222.896	-0.165	0.266
-539.208	-145.354	-0.105	0.009
-538.193	276.707	0.076	-0.134
-537.179	118.374	0.069	-0.085
-536.164	110.932	0.067	-0.081
-535.150	-96.975	-0.253	-0.066
-534.135	-200.000	0.008	0.153
-533.121	295.203	-0.089	-0.164
-532.106	105.209	0.157	0.185
-531.091	-134.167	0.170	-0.021
-530.077	-120.161	0.242	-0.041
-529.062	-200.000	0.005	-0.045
-528.048	174.125	0.085	0.123
-527.033	207.027	0.227	0.354
-526.018	-77.488	-0.223	-0.078
-525.004	152.924	0.226	0.309
-523.989	800.000	0.118	-0.388
-522.975	218.462	0.111	-0.178
-521.960	-101.732	-0.178	-0.043
-520.945	476.011	-0.230	0.520
-519.931	406.378	0.208	0.439
-518.916	-98.158	-0.038	-0.010
-517.902	191.339	-0.134	-0.202
-516.887	29.048	0.034	0.029
-515.872	-200.000	-0.040	0.221
-514.858	-172.197	-0.142	0.005
-513.843	194.884	-0.116	0.176
-512.829	-95.398	0.335	-0.090
-511.814	-146.902	0.343	-0.029
-510.799	133.075	-0.120	0.155
-509.785	13.730	-0.336	-0.261
-508.770	181.479	-0.095	0.140
-507.756	-30.053	0.262	0.149
-506.741	-22.005	-0.150	0.091
-505.726	-156.998	-0.210	-0.013
-504.712	7.171	-0.225	-0.168
-503.697	-200.000	0.013	-0.454
-502.683	-49.868	0.110	0.052
-501.668	-58.443	-0.381	-0.166
-500.653	-200.000	0.074	-0.393
-499.639	-179.223	0.238	-0.005
-498.624	-49.002	-0.238	-0.114
-497.610	-42.303	0.181	0.092
-496.595	236.002	-0.278	-0.459
-495.581	-11.220	-0.145	0.095
-494.566	-200.000	0.001	0.067
-493.551	419.360	0.150	-0.322
-492.537	800.000	-0.105	-0.290
-491.522	493.484	-0.104	-0.237
-490.508	30.243	-0.210	0.179
-489.493	-200.000	0.048	0.370
-488.478	115.016	-0.185	-0.225
-487.464	91.829	0.140	-0.157
-486.449	-200.000	0.010	0.203
-485.435	-200.000	0.045	0.230
-484.420	257.113	-0.043	-0.073
-483.405	-94.667	-0.115	-0.031
-482.391	800.000	-0.046	0.176
-481.376	31.411	0.145	-0.125
-480.362	435.418	0.109	-0.237
-479.347	-31.280	0.085	-0.048
-478.332	73.596	0.320	-0.335
-477.318	-200.000	0.072	-0.458
-476.303	603.987	-0.076	0.188
-475.289	299.782	0.043	-0.078
-474.274	3.368	0.054	0.039
-473.259	-10.897	-0.238	0.157
-472.245	72.602	0.113	0.117
-471.230	278.715	0.137	-0.243
-470.216	-200.000	0.043	-0.318
-469.201	-89.678	0.183	-0.053
-468.186	-200.000	-0.082	-0.433
-467.172	-200.000	-0.036	-0.262
-466.157	-200.000	0.016	0.155
-465.143	342.123	-0.055	-0.107
-464.128	800.000	-0.094	0.327
-463.113	-129.599	-0.113	0.016
-462.099	-33.087	0.150	-0.083
-461.084	206.503	0.168	-0.262
-460.070	-140.495	0.278	-0.029
-459.055	-105.421	-0.488	-0.111
-458.040	-58.121	-0.104	-0.045
-457.026	20.523	0.247	0.200
-456.011	220.562	0.117	-0.188
-454.997	42.218	0.124	-0.112
-453.982	-108.918	0.278	0.059
-452.968	17.615	-0.200	-0.159
-451.953	-49.881	0.143	-0.068
-450.938	106.208	-0.102	-0.120
-449.924	-138.165	-0.368	0.041
-448.909	363.629	-0.042	-0.085
-447.895	-130.739	0.118	-0.016
-446.880	800.000	0.024	0.095
-445.865	-200.000	0.002	-0.091
-444.851	800.000	0.041	-0.156
-443.836	-200.000	-0.013	-0.280
-442.822	-200.000	0.010	0.393
-441.807	-200.000	-0.035	0.167
-440.792	-17.944	0.209	0.131
-439.778	230.053	-0.059	0.095
-438.763	-4.329	-0.072	-0.050
-437.749	800.000	0.044	-0.178
-436.734	230.006	-0.076	0.124
-435.719	-83.605	0.050	-0.016
-434.705	6.973	0.329	-0.244
-433.690	247.919	0.054	0.091
-432.676	764.148	-0.095	0.257
-431.661	30.927	0.122	0.104
-430.646	-106.541	0.183	-0.041
-429.632	171.987	0.093	-0.133
-428.617	331.480	0.156	0.299
-427.603	127.212	-0.218	-0.276
-426.588	-200.000	0.037	-0.433
-425.573	-102.182	-0.259	0.062
-424.559	402.781	-0.106	0.222
-423.544	-188.618	0.051	-0.001
-422.530	-140.498	-0.145	0.015
-421.515	-10.953	-0.168	-0.111
-420.500	800.000	0.070	-0.203
-419.486	-200.000	-0.062	-0.315
-418.471	-102.383	0.235	-0.056
-417.457	40.477	-0.090	-0.080
-416.442	-7.435	-0.270	0.182
-415.428	173.925	-0.217	-0.313
-414.413	-33.763	-0.094	-0.052
-413.398	-149.816	0.296	0.023
-412.384	207.993	-0.259	0.402
-411.369	800.000	-0.016	-0.055
-410.355	-200.000	-0.034	-0.375
-409.340	608.310	-0.030	-0.074
-408.325	-200.000	-0.008	0.186
-407.311	-67.933	0.286	0.111
-406.296	-200.000	-0.009	-0.212
-405.282	-114.698	0.258	0.049
-404.267	-200.000	-0.008	0.133
-403.252	13.190	0.277	0.214
-402.238	-200.000	-0.017	0.103
-401.223	-5.802	-0.074	0.050
-400.209	657.209	0.109	-0.280
-399.194	-200.000	0.001	0.015
-398.179	-200.000	0.029	-0.223
-397.165	117.213	-0.043	0.053
-396.150	800.000	-0.102	0.286
-395.136	-178.432	-0.335	-0.008
-394.121	253.154	0.132	-0.225
-393.106	400.110	-0.128	0.268
-392.092	-30.775	0.310	-0.174
-391.077	64.215	0.263	-0.263
-390.063	230.027	-0.132	-0.214
-389.048	-66.646	0.120	0.047
-388.033	-200.000	-0.020	0.091
-387.019	-79.822	-0.255	-0.085
-386.004	27.089	0.281	-0.235
-384.990	-101.446	-0.198	0.048
-383.975	-200.000	-0.042	0.255
-382.960	-75.252	0.241	-0.086
-381.946	112.012	0.024	-0.029
-380.931	486.437	0.075	0.171
-379.917	-200.000	0.007	0.256
-378.902	6.094	-0.107	0.079
-377.888	-123.139	0.146	0.023
-376.873	329.093	-0.201	0.385
-375.858	-200.000	0.035	-0.170
-374.844	6.144	0.145	0.107
-373.829	133.653	-0.131	0.168
-372.815	-40.972	0.287	0.147
-371.800	-79.179	0.162	0.055
-370.785	-21.595	-0.197	0.120
-369.771	175.365	-0.093	-0.134
-368.756	-54.751	0.252	-0.113
-367.742	148.066	0.076	0.102
-366.727	-200.000	-0.003	0.079
-365.712	-126.359	0.094	-0.014
-364.698	800.000	-0.063	-0.212
-363.683	-200.000	-0.008	0.182
-362.669	-51.211	0.250	-0.116
-361.654	-91.696	-0.159	-0.045
-360.639	99.162	-0.184	0.211
-359.625	-200.000	-0.096	0.469
-358.610	-200.000	-0.010	0.091
-357.596	-0.722	-0.192	0.135
-356.581	-200.000	-0.002	0.204
-355.566	-65.080	0.187	0.075
-354.552	38.826	-0.163	0.144
-353.537	-118.776	0.114	-0.020
-352.523	-125.621	-0.268	0.040
-351.508	800.000	-0.072	-0.230
-350.493	-200.000	0.034	-0.320
-349.479	-80.109	0.099	0.033
-348.464	-53.378	-0.185	0.084
-347.450	-200.000	0.001	-0.244
-346.435	-60.496	-0.177	-0.075
-345.420	169.110	-0.227	-0.322
-344.406	-74.409	0.146	0.052
-343.391	-89.503	-0.173	-0.051
-342.377	44.026	0.213	0.194
-341.362	183.443	-0.133	0.195
-340.348	-39.054	0.106	-0.055
-339.333	-200.000	-0.030	0.211
-338.318	-75.224	0.161	-0.057
-337.304	-4.091	-0.220	0.151
-336.289	800.000	-0.025	-0.102
-335.275	-51.977	0.337	0.155
-334.260	-103.482	0.204	-0.048
-333.245	-193.431	0.063	-0.001
-332.231	-78.074	-0.112	-0.038
-331.216	-8.225	0.160	-0.107
-330.202	-10.828	0.182	-0.119
-329.187	79.486	-0.161	-0.172
-328.172	800.000	-0.061	0.259
-327.158	707.013	0.127	-0.332
-326.143	193.570	0.088	0.132
-325.129	-200.000	0.026	0.204
-324.114	197.242	0.168	0.254
-323.099	315.148	-0.233	-0.437
-322.085	38.084	-0.117	-0.103
-321.070	583.992	-0.168	0.410
-320.056	-54.629	0.193	-0.086
-319.041	-111.972	-0.033	-0.007
-318.026	-200.000	0.023	0.171
-317.012	-200.000	0.038	-0.290
-315.997	-117.435	0.141	-0.025
-314.983	-42.954	-0.195	-0.098
-313.968	581.455	0.032	0.077
-312.953	169.290	-0.066	0.093
-311.939	-200.000	-0.070	-0.319
-310.924	800.000	0.069	0.245
-309.910	202.064	-0.095	0.146
-308.895	-200.000	-0.012	0.296
-307.880	579.015	0.071	0.173
-306.866	-163.871	0.113	0.005
-305.851	-88.505	-0.306	-0.090
-304.837	212.451	0.320	-0.501
-303.822	138.848	0.035	-0.045
-302.807	-109.261	0.088	0.019
-301.793	800.000	0.085	0.283
-300.778	-116.009	-0.216	0.040
-299.764	-112.892	0.409	0.080
-298.749	282.938	-0.165	0.294
-297.735	68.516	0.150	-0.152
-296.720	24.441	-0.133	-0.109
-295.705	-200.000	0.028	-0.144
-294.691	196.612	0.179	-0.270
-293.676	170.963	-0.106	0.150
-292.662	800.000	0.084	0.232
-291.647	-9.577	-0.141	-0.093
-290.632	81.921	0.101	-0.108
-289.618	-63.624	-0.470	0.191
-288.603	800.000	0.138	0.402
-287.589	-63.992	-0.260	-0.105
-286.574	598.099	0.068	-0.167
-285.559	800.000	0.066	-0.211
-284.545	-200.000	-0.006	0.055
-283.530	-10.404	0.282	-0.185
-282.516	-8.672	-0.123	0.082
-281.501	-95.632	0.219	0.058
-280.486	155.382	0.027	-0.037
-279.472	-15.286	0.158	-0.100
-278.457	-200.000	-0.006	0.300
-277.443	-163.968	-0.219	-0.010
-276.428	-80.173	-0.218	0.072
-275.413	-200.000	0.052	-0.318
-274.399	800.000	-0.146	0.494
-273.384	-5.461	0.250	0.170
-272.370	16.777	-0.171	0.134
-271.355	-107.885	-0.118	-0.025
-270.340	3.208	0.129	-0.093
-269.326	-117.242	-0.289	0.052
-268.311	116.979	0.105	0.127
-267.297	141.167	0.249	0.326
-266.282	216.614	0.106	-0.168
-265.267	-200.000	0.021	-0.197
-264.253	739.840	0.060	0.159
-263.238	84.563	0.081	-0.088
-262.224	-138.510	0.286	-0.031
-261.209	13.023	-0.213	0.163
-260.195	-97.544	-0.270	-0.069
-259.180	272.326	0.013	0.023
-258.165	800.000	-0.118	0.334
-257.151	370.811	-0.124	0.250
-256.136	-19.265	0.257	0.158
-255.122	-200.000	0.014	0.093
-254.107	-200.000	-0.029	0.143
-253.092	83.981	0.186	0.201
-252.078	-167.355	0.556	0.022
-251.063	163.372	-0.143	-0.199
-250.049	-112.828	0.255	0.050
-249.034	783.742	-0.112	-0.304
-248.019	-200.000	-0.034	0.267
-247.005	-67.063	-0.218	-0.085
-245.990	88.293	0.078	0.085
-244.976	-151.682	-0.167	-0.012
-243.961	211.810	-0.164	0.255
-242.946	33.992	-0.170	0.146
-241.932	-88.815	-0.203	0.060
-240.917	69.864	-0.264	-0.269
-239.903	2.523	-0.188	0.134
-238.888	53.612	-0.107	0.102
-237.873	95.040	-0.084	-0.095
-236.859	800.000	0.045	-0.180
-235.844	-23.821	-0.062	-0.037
-234.830	-48.180	-0.157	0.075
-233.815	692.354	0.010	0.026
-232.800	-124.424	0.226	-0.035
-231.786	9.905	0.271	-0.203
-230.771	-115.644	0.235	-0.044
-229.757	-18.885	0.018	0.011
-228.742	-200.000	-0.043	-0.411
-227.727	-28.323	-0.071	0.040
-226.713	-82.734	0.549	0.176
-225.698	-101.235	-0.254	-0.061
-224.684	-111.838	-0.099	0.020
-223.669	171.126	0.055	-0.078
-222.655	99.049	0.188	-0.215
-221.640	54.197	0.202	0.192
-220.625	-200.000	0.050	-0.356
-219.611	99.428	-0.183	0.210
-218.596	-200.000	0.015	-0.280
-217.582	-79.411	0.509	-0.170
-216.567	-144.934	-0.172	0.016
-215.552	-107.640	0.173	-0.037
-214.538	-34.727	0.040	-0.022
-213.523	-138.737	0.495	0.053
-212.509	-138.092	0.138	-0.015
-211.494	412.301	0.193	0.405
-210.479	-80.597	0.138	0.045
-209.465	334.258	-0.086	0.165
-208.450	22.721	0.089	-0.072
-207.436	-83.291	-0.159	0.050
-206.421	54.351	-0.218	0.207
-205.406	-16.250	-0.210	-0.132
-204.392	97.395	0.040	0.045
-203.377	38.140	0.157	-0.138
-202.363	800.000	0.030	0.098
-201.348	-196.232	-0.123	-0.001
-200.333	800.000	0.020	-0.085
-199.319	-117.062	-0.080	-0.014
-198.304	-124.035	0.243	0.038
-197.290	125.313	0.127	0.158
-196.275	-97.359	-0.224	-0.058
-195.260	580.350	0.173	-0.418
-194.246	-200.000	0.030	0.387
-193.231	442.468	0.080	-0.174
-192.217	-200.000	-0.003	-0.091
-191.202	-29.863	0.229	-0.129
-190.187	800.000	0.031	-0.096
-189.173	-113.343	-0.294	-0.057
-188.158	-110.122	0.196	0.040
-187.144	800.000	0.018	0.060
-186.129	-50.732	-0.172	-0.080
-185.114	-88.771	-0.148	-0.043
-184.100	-110.753	-0.337	-0.069
-183.085	166.442	0.030	-0.042
-182.071	-50.099	0.209	0.098
-181.056	391.745	0.074	-0.152
-180.042	-1.075	0.404	0.282
-179.027	800.000	0.049	-0.167
-178.012	-200.000	0.038	0.275
-176.998	-61.552	0.333	0.138
-175.983	50.496	0.130	0.121
-174.969	-81.456	0.103	-0.033
-173.954	-175.947	0.016	0.000
-172.939	-98.040	0.355	0.090
-171.925	206.325	0.104	0.160
-170.910	-112.285	-0.259	-0.051
-169.896	-200.000	0.064	0.419
-168.881	523.703	-0.045	-0.104
-167.866	556.651	-0.043	0.103
-166.852	172.010	-0.123	-0.175
-165.837	-105.831	0.196	0.044
-164.823	327.440	-0.031	-0.059
-163.808	-22.876	-0.122	0.072
-162.793	-96.942	-0.226	0.058
-161.779	-51.149	-0.251	0.116
-160.764	-89.507	0.319	0.092
-159.750	-200.000	-0.026	0.207
-158.735	-43.278	0.141	0.070
-157.720	86.062	0.177	-0.192
-156.706	800.000	0.106	0.289
-155.691	-81.335	-0.381	-0.124
-154.677	566.842	0.024	0.058
-153.662	-200.000	0.001	-0.138
-152.647	800.000	0.139	-0.475
-151.633	-90.823	0.031	0.009
-150.618	382.544	0.173	0.351
-149.604	47.494	0.288	0.265
-148.589	-24.369	0.045	0.026
-147.574	-97.432	-0.283	0.072
-146.560	-200.000	0.074	-0.361
-145.545	-113.899	-0.054	-0.010
-144.531	800.000	0.108	-0.404
-143.516	-121.879	0.269	-0.044
-142.502	691.650	0.120	-0.311
-141.487	-101.271	-0.216	0.052
-140.472	-200.000	-0.077	0.418
-139.458	24.674	0.224	0.182
-138.443	194.577	-0.042	-0.062
-137.429	544.886	-0.039	0.092
-136.414	254.649	-0.103	-0.174
-135.399	-30.341	0.271	0.151
-134.385	230.136	0.115	-0.185
-133.370	-200.000	-0.009	-0.150
-132.356	12.314	0.350	0.265
-131.341	-112.824	-0.164	0.032
-130.326	461.598	0.097	-0.214
-129.312	-200.000	0.028	-0.173
-128.297	-200.000	0.036	-0.262
-127.283	800.000	0.065	0.194
-126.268	330.329	0.131	-0.249
-125.253	-190.448	-0.344	0.004
-124.239	-200.000	0.033	0.201
-123.224	-73.915	0.346	0.124
-122.210	-200.000	0.070	0.506
-121.195	340.822	0.136	0.262
-120.180	-126.092	0.260	0.038
-119.166	330.075	0.208	-0.395
-118.151	-200.000	-0.015	-0.446
-117.137	-182.106	0.134	0.002
-116.122	-84.781	0.218	0.067
-115.107	-200.000	-0.016	-0.379
-114.093	265.085	-0.045	0.077
-113.078	-14.149	-0.069	0.044
-112.064	800.000	0.033	0.119
-111.049	-88.787	0.264	0.077
-110.034	-11.475	0.206	-0.133
-109.020	800.000	-0.067	0.200
-108.005	292.210	0.107	-0.192
-106.991	800.000	-0.073	-0.207
-105.976	791.685	0.126	0.341
-104.962	-113.928	0.094	-0.018
-103.947	182.180	-0.231	0.335
-102.932	251.869	0.120	0.201
-101.918	37.576	-0.064	-0.056
-100.903	-25.628	-0.225	0.131
-99.889	-0.807	0.347	-0.242
-98.874	-200.000	-0.028	-0.129
-97.859	349.478	-0.180	-0.349
-96.845	241.459	0.166	-0.272
-95.830	-126.244	-0.027	0.004
-94.816	-200.000	-0.050	-0.296
-93.801	245.269	0.128	-0.212
-92.786	-126.066	0.049	0.007
-91.772	-31.599	-0.153	-0.085
-90.757	-87.656	0.210	-0.062
-89.743	310.436	-0.239	0.440
-88.728	363.985	0.038	-0.075
-87.713	-99.708	0.288	0.071
-86.699	46.626	0.158	0.144
-85.684	86.082	0.169	-0.183
-84.670	800.000	0.225	-0.636
-83.655	687.270	0.098	-0.253
-82.640	118.412	0.096	0.117
-81.626	-55.579	0.345	0.152
-80.611	315.806	-0.036	-0.066
-79.597	-181.071	0.350	0.007
-78.582	-138.141	-0.136	0.015
-77.567	139.558	0.239	-0.310
-76.553	202.997	-0.048	0.072
-75.538	5.007	0.301	-0.218
-74.524	-80.496	0.043	-0.014
-73.509	-34.898	-0.072	0.039
-72.494	-110.523	-0.021	-0.004
-71.480	-200.000	0.004	0.169
-70.465	-200.000	0.047	0.218
-69.451	-94.414	0.178	-0.048
-68.436	-200.000	-0.014	-0.143
-67.422	-21.341	0.150	-0.090
-66.407	800.000	0.046	-0.172
-65.392	-62.568	-0.338	-0.138
-64.378	-200.000	0.015	0.222
-63.363	-200.000	0.050	0.360
-62.349	-76.762	0.423	-0.146
-61.334	35.085	-0.965	-0.830
-60.319	77.634	0.340	0.356
-59.305	-200.000	-0.160	-1.013
-58.290	800.000	0.304	1.079
-57.276	395.621	0.771	1.580
-56.261	-200.000	104.695	571.211
-55.246	453.228	1463.251	3179.650
-54.232	147.043	2660.918	3514.691
-53.217	100.448	2304.021	2626.397
-52.203	38.934	1914.052	1679.231
-51.188	33.001	1701.345	1447.274
-50.173	30.431	1657.858	1391.006
-49.159	48.804	1709.432	1574.444
-48.144	49.164	1725.625	1592.034
-47.130	32.548	1684.250	1429.069
-46.115	29.871	1669.651	1396.454
-45.100	29.731	1664.970	1391.432
-44.086	29.749	1662.169	1389.171
-43.071	29.703	1659.285	1386.356
-42.057	29.657	1656.922	1383.984
-41.042	29.636	1655.088	1382.244
-40.027	29.622	1653.400	1380.668
-39.013	29.658	1650.925	1378.820
-37.998	29.711	1649.532	1377.997
-36.984	29.736	1648.005	1376.848
-35.969	29.873	1646.676	1376.704
-34.954	29.875	1645.241	1375.464
-33.940	29.831	1642.984	1373.194
-32.925	29.845	1641.644	1372.128
-31.911	29.843	1639.894	1370.593
-30.896	29.761	1638.304	1368.608
-29.881	29.830	1635.985	1367.121
-28.867	29.718	1634.886	1365.323
-27.852	29.739	1633.631	1364.374
-26.838	29.810	1631.875	1363.383
-25.823	29.896	1630.578	1362.872
-24.809	29.876	1629.008	1361.361
-23.794	29.816	1628.018	1360.037
-22.779	29.779	1626.707	1358.619
-21.765	29.740	1624.927	1356.793
-20.750	29.734	1622.975	1355.065
-19.736	29.869	1621.739	1354.968
-18.721	29.881	1620.604	1354.052
-17.706	29.846	1618.523	1352.007
-16.692	29.790	1616.886	1350.173
-15.677	29.812	1616.155	1349.667
-14.663	29.866	1614.130	1348.316
-13.648	29.753	1613.590	1346.995
-12.633	29.821	1611.178	1345.422
-11.619	29.939	1609.636	1344.934
-10.604	29.914	1608.694	1343.917
-9.590	29.893	1607.162	1342.430
-8.575	29.899	1605.878	1341.348
-7.560	29.873	1605.039	1340.403
-6.546	29.825	1604.215	1339.317
-5.531	29.805	1603.054	1338.147
-4.517	29.849	1601.586	1337.187
-3.502	29.806	1600.599	1336.000
-2.487	29.852	1599.100	1335.031
-1.473	29.628	1587.336	1323.551
-0.458	26.959	1568.670	1289.008
0.556	21.768	1569.386	1257.719
1.571	19.500	1593.108	1260.082
2.586	19.135	1606.560	1267.922
3.600	17.610	1554.695	1216.002
4.615	9.989	1443.846	1078.505
5.629	1.897	1378.153	977.612
6.644	0.349	1369.735	961.689
7.659	0.115	1368.602	959.316
8.673	0.115	1367.406	958.389
9.688	0.071	1365.595	956.755
10.702	-0.038	1362.563	953.855
11.717	3.742	1368.759	982.172
12.731	12.377	1382.400	1047.112
13.746	17.328	1388.780	1083.477
14.761	17.224	1387.286	1081.548
15.775	16.174	1384.865	1072.890
16.790	15.188	1382.129	1064.420
17.804	14.535	1379.554	1058.198
18.819	14.092	1378.257	1054.300
19.834	13.860	1377.080	1051.838
20.848	13.592	1375.537	1048.872
21.863	13.382	1374.279	1046.494
22.877	13.152	1373.387	1044.263
23.892	13.105	1372.160	1042.939
24.907	13.083	1371.673	1042.339
25.921	13.136	1370.559	1041.734
26.936	13.173	1370.139	1041.560
27.950	13.220	1368.812	1040.756
28.965	13.230	1368.021	1040.120
29.980	13.288	1366.904	1039.546
30.994	13.462	1365.986	1039.850
32.009	13.348	1365.013	1038.299
33.023	13.373	1364.017	1037.608
34.038	13.210	1363.357	1035.994
35.053	13.342	1361.780	1035.530
36.067	13.285	1360.756	1034.305
37.082	13.307	1359.643	1033.500
38.096	13.351	1359.180	1033.336
39.111	13.313	1358.222	1032.276
40.126	13.351	1356.795	1031.335
41.140	13.269	1356.330	1030.379
42.155	13.149	1355.909	1029.225
43.169	13.158	1355.884	1029.172
44.184	13.219	1355.238	1028.970
45.199	13.148	1355.125	1028.349
46.213	13.225	1354.484	1028.252
47.228	13.231	1353.572	1027.502
48.242	13.302	1352.149	1026.771
49.257	13.243	1350.690	1025.208
50.271	13.225	1349.675	1024.236
51.286	13.235	1348.051	1022.975
52.301	13.346	1346.523	1022.412
53.315	13.181	1345.863	1020.803
54.330	13.221	1344.735	1020.103
55.344	13.193	1343.476	1018.884
56.359	13.226	1342.312	1018.115
57.374	13.160	1341.334	1016.878
58.388	13.067	1340.937	1015.915
59.403	13.064	1340.727	1015.647
60.417	12.980	1339.723	1014.278
61.432	13.106	1339.011	1014.425
62.447	13.023	1337.954	1013.026
63.461	13.039	1336.475	1011.914
64.476	12.997	1335.476	1010.808
65.490	13.000	1334.489	1009.990
66.505	13.130	1332.715	1009.354
67.520	13.034	1331.479	1007.741
68.534	13.077	1330.519	1007.187
69.549	13.095	1329.251	1006.251
70.563	13.056	1328.370	1005.259
71.578	13.099	1327.147	1004.505
72.593	13.049	1325.827	1003.113
73.607	13.053	1325.139	1002.528
74.622	13.057	1324.485	1001.967
75.636	13.000	1324.066	1001.217
76.651	12.999	1322.587	1000.006
77.666	13.002	1322.525	999.884
78.680	13.080	1321.950	999.836
79.695	13.048	1320.968	998.808
80.709	13.006	1320.475	998.097
81.724	13.094	1319.264	997.621
82.739	13.124	1318.243	996.945
83.753	13.191	1317.447	996.658
84.768	13.278	1315.945	995.957
85.782	13.165	1315.489	994.845
86.797	13.230	1313.879	993.931
87.812	13.231	1312.494	992.798
88.826	13.163	1311.229	991.347
89.841	13.257	1310.383	991.181
90.855	13.169	1309.653	990.016
91.870	13.263	1308.637	989.725
92.884	13.287	1307.815	989.158
93.899	13.332	1307.050	988.758
94.914	13.342	1306.506	988.320
95.928	13.425	1305.145	987.699
96.943	13.281	1304.513	986.277
97.957	13.385	1303.569	986.093
98.972	13.426	1302.157	985.182
99.987	13.326	1301.096	983.696
101.001	13.219	1300.631	982.624
102.016	13.390	1299.271	982.524
103.030	13.222	1298.719	981.026
104.045	13.430	1297.861	981.521
105.060	13.291	1296.709	979.740
106.074	13.196	1294.991	977.793
107.089	13.198	1293.474	976.575
108.103	13.165	1292.775	975.762
109.118	13.128	1291.726	974.665
110.133	13.093	1290.258	973.265
111.147	13.204	1288.530	972.534
112.162	13.208	1287.278	971.523
113.176	13.264	1286.340	971.056
114.191	13.185	1285.663	969.995
115.206	13.297	1284.653	969.805
116.220	13.194	1283.242	968.050
117.235	13.254	1282.274	967.585
118.249	13.245	1281.271	966.691
119.264	13.138	1280.571	965.452
120.279	13.201	1279.253	964.741
121.293	13.198	1277.940	963.649
122.308	13.221	1276.929	962.936
123.322	13.184	1275.742	961.743
124.337	13.192	1274.943	961.100
125.352	13.039	1274.063	959.463
126.366	13.134	1272.707	958.907
127.381	13.156	1271.681	958.175
128.395	13.124	1270.591	957.087
129.410	13.182	1269.490	956.505
130.424	13.231	1269.009	956.346
131.439	13.246	1267.762	955.408
132.454	13.186	1266.699	954.171
133.468	13.186	1266.005	953.565
134.483	13.196	1265.614	953.246
135.497	13.224	1264.746	952.669
136.512	13.288	1262.925	951.582
137.527	13.264	1261.638	950.389
138.541	13.122	1260.965	948.984
139.556	13.349	1259.108	948.803
140.570	13.232	1258.110	947.294
141.585	13.352	1256.892	946.981
142.600	13.499	1254.995	946.312
143.614	13.445	1254.570	945.596
144.629	13.437	1253.697	944.807
145.643	13.459	1252.493	943.947
146.658	13.412	1250.800	942.317
147.673	13.331	1250.138	941.276
148.687	13.287	1248.724	939.875
149.702	13.326	1247.225	938.888
150.716	13.294	1245.635	937.424
151.731	13.329	1245.135	937.164
152.746	13.272	1243.679	935.663
153.760	13.336	1242.436	935.006
154.775	13.430	1241.151	934.486
155.789	13.479	1240.304	934.045
156.804	13.517	1239.389	933.486
157.819	13.435	1238.380	932.181
158.833	13.547	1237.298	931.918
159.848	13.529	1236.805	931.360
160.862	13.527	1235.303	930.137
161.877	13.411	1234.361	928.695
162.892	13.469	1233.501	928.289
163.906	13.383	1232.685	927.109
164.921	13.478	1231.395	926.589
165.935	13.430	1230.609	925.646
166.950	13.462	1229.896	925.210
167.964	13.485	1228.984	924.570
168.979	13.437	1228.669	923.983
169.994	13.495	1227.536	923.371
171.008	13.592	1226.661	923.172
172.023	13.710	1225.486	922.862
173.037	13.699	1225.222	922.524
174.052	13.610	1224.236	921.206
175.067	13.536	1223.341	920.035
176.081	13.500	1222.513	919.135
177.096	13.467	1221.395	918.026
178.110	13.553	1219.987	917.366
179.125	13.526	1218.919	916.333
180.140	13.660	1217.685	916.061
181.154	13.672	1216.585	915.221
182.169	13.712	1215.508	914.548
183.183	13.701	1214.173	913.404
184.198	13.768	1212.867	912.710
185.213	13.735	1212.183	911.936
186.227	13.711	1210.978	910.817
187.242	13.700	1210.312	910.170
188.256	13.748	1208.981	909.355
189.271	13.907	1207.614	909.118
190.286	13.798	1206.598	907.677
191.300	13.692	1205.884	906.477
192.315	13.700	1205.185	905.916
193.329	13.578	1204.956	904.998
194.344	13.659	1204.160	904.764
195.359	13.706	1203.318	904.306
196.373	13.875	1202.832	904.779
197.388	13.801	1202.576	904.105
198.402	13.921	1201.811	904.103
199.417	14.029	1201.324	904.246
200.432	13.919	1200.334	902.820
201.446	14.066	1199.506	902.918
202.461	14.073	1198.649	902.230
203.475	13.935	1198.192	901.055
204.490	14.079	1196.468	900.463
205.504	14.090	1194.676	899.091
206.519	14.023	1193.884	898.055
207.534	14.111	1192.813	897.647
208.548	13.968	1191.812	896.040
209.563	14.087	1191.200	896.143
210.577	14.163	1190.414	895.879
211.592	14.143	1189.287	894.846
212.607	14.170	1188.702	894.474
213.621	14.111	1187.929	893.496
214.636	14.177	1186.577	892.754
215.650	14.153	1185.953	892.074
216.665	14.242	1185.126	891.853
217.680	14.223	1184.060	890.866
218.694	14.235	1183.936	890.762
219.709	14.289	1182.473	889.868
220.723	14.349	1181.657	889.496
221.738	14.277	1180.921	888.479
222.753	14.120	1180.704	887.403
223.767	14.262	1179.819	887.415
224.782	14.423	1178.802	887.427
225.796	14.337	1178.636	886.769
226.811	14.410	1178.077	886.655
227.826	14.301	1176.985	885.175
228.840	14.394	1176.296	885.075
229.855	14.420	1175.728	884.704
230.869	14.304	1174.675	883.220
231.884	14.358	1173.817	882.784
232.899	14.381	1173.562	882.635
233.913	14.266	1172.568	881.200
234.928	14.341	1171.678	880.850
235.942	14.295	1170.816	879.881
236.957	14.310	1169.687	879.036
237.972	14.371	1169.022	878.780
238.986	14.360	1168.863	878.524
240.001	14.404	1167.791	877.873
241.015	14.388	1166.987	877.104
242.030	14.452	1166.127	876.718
243.045	14.473	1165.809	876.510
244.059	14.499	1164.603	875.662
245.074	14.550	1163.792	875.247
246.088	14.514	1163.301	874.608
247.103	14.552	1162.564	874.174
248.117	14.641	1161.358	873.657
249.132	14.653	1160.780	873.207
250.147	14.814	1160.022	873.402
251.161	14.744	1159.433	872.516
252.176	14.784	1158.793	872.168
253.190	14.819	1158.015	871.687
254.205	14.818	1157.696	871.364
255.220	14.849	1157.356	871.192
256.234	14.860	1156.472	870.507
257.249	14.884	1155.719	869.989
258.263	14.947	1154.703	869.475
259.278	14.914	1154.319	868.936
260.293	15.003	1153.477	868.686
261.307	15.047	1153.484	868.847
262.322	15.018	1152.556	867.921
263.336	15.060	1152.035	867.667
264.351	14.931	1151.833	866.767
265.366	15.028	1150.726	866.361
266.380	15.072	1150.155	866.084
267.395	15.085	1148.567	864.876
268.409	15.073	1148.174	864.444
269.424	15.050	1147.669	863.867
270.439	15.118	1146.855	863.531
271.453	15.018	1146.294	862.515
272.468	15.026	1145.280	861.716
273.482	15.045	1144.650	861.263
274.497	15.152	1144.228	861.421
275.512	15.150	1143.388	860.704
276.526	15.099	1142.337	859.574
277.541	15.183	1141.866	859.576
278.555	15.120	1141.382	858.808
279.570	15.209	1140.807	858.759
280.585	15.202	1140.128	858.132
281.599	15.290	1138.878	857.570
282.614	15.211	1137.969	856.403
283.628	15.325	1136.592	855.874
284.643	15.209	1135.983	854.746
285.657	15.194	1134.907	853.789
286.672	15.156	1134.399	853.133
287.687	15.185	1133.956	852.876
288.701	15.261	1132.449	852.053
289.716	15.295	1131.827	851.679
290.730	15.313	1131.473	851.431
291.745	15.416	1129.959	850.737
292.760	15.315	1129.847	850.067
293.774	15.352	1129.561	849.963
294.789	15.380	1128.955	849.574
295.803	15.427	1128.023	849.033
296.818	15.448	1127.291	848.518
297.833	15.435	1126.753	847.968
298.847	15.460	1125.552	847.118
299.862	15.488	1124.860	846.662
300.876	15.374	1124.664	845.864
301.891	15.539	1123.499	845.744
302.906	15.482	1122.502	844.632
303.920	15.473	1122.490	844.501
304.935	15.617	1121.646	844.519
305.949	15.660	1120.867	844.074
306.964	15.719	1120.335	843.893
307.979	15.629	1119.262	842.560
308.993	15.607	1118.743	841.984
310.008	15.809	1117.761	842.181
311.022	15.767	1117.141	841.430
312.037	15.728	1116.159	840.423
313.052	15.743	1115.430	839.872
314.066	15.619	1114.497	838.477
315.081	15.592	1113.851	837.784
316.095	15.687	1113.101	837.615
317.110	15.664	1112.343	836.857
318.125	15.736	1111.439	836.463
319.139	15.637	1110.975	835.545
320.154	15.669	1110.012	834.906
321.168	15.662	1109.364	834.311
322.183	15.674	1108.991	834.014
323.197	15.751	1108.272	833.782
324.212	15.803	1107.994	833.756
325.227	15.863	1106.912	833.169
326.241	15.783	1106.393	832.306
327.256	15.714	1105.659	831.342
328.270	15.838	1104.989	831.375
329.285	15.656	1104.258	829.854
330.300	15.950	1102.595	829.978
331.314	15.751	1102.096	828.552
332.329	15.783	1100.979	827.793
333.343	15.871	1100.640	827.897
334.358	15.833	1100.009	827.163
335.373	15.908	1099.031	826.722
336.387	15.855	1098.360	825.884
337.402	15.929	1097.350	825.415
338.416	16.040	1096.591	825.317
339.431	16.062	1096.047	824.943
340.446	16.116	1094.886	824.259
341.460	16.149	1094.873	824.336
342.475	16.125	1094.080	823.549
343.489	16.041	1093.031	822.276
344.504	16.055	1092.237	821.674
345.519	16.184	1091.366	821.574
346.533	16.296	1090.437	821.349
347.548	16.302	1089.584	820.666
348.562	16.257	1089.114	820.016
349.577	16.240	1088.006	819.030
350.592	16.172	1087.690	818.390
351.606	16.140	1086.672	817.393
352.621	16.191	1086.065	817.114
353.635	16.206	1084.957	816.278
354.650	16.235	1084.488	815.995
355.665	16.175	1084.148	815.377
356.679	16.244	1083.583	815.215
357.694	16.282	1083.079	814.945
358.708	16.266	1082.147	814.096
359.723	16.281	1081.444	813.565
360.738	16.383	1081.104	813.727
361.752	16.487	1080.149	813.439
362.767	16.365	1079.627	812.389
363.781	16.295	1079.417	811.819
364.796	16.285	1079.167	811.513
365.810	16.367	1078.545	811.369
366.825	16.484	1077.570	811.123
367.840	16.547	1077.117	811.012
368.854	16.537	1076.352	810.316
369.869	16.687	1075.610	810.406
370.883	16.463	1074.808	808.660
371.898	16.521	1074.455	808.596
372.913	16.566	1073.393	807.943
373.927	16.611	1073.037	807.819
374.942	16.681	1071.941	807.257
375.956	16.574	1071.813	806.574
376.971	16.670	1071.083	806.414
377.986	16.725	1070.457	806.134
379.000	16.759	1070.295	806.103
380.015	16.573	1070.135	805.024
381.029	16.765	1069.010	805.019
382.044	16.762	1068.154	804.288
383.059	16.792	1067.419	803.805
384.073	16.791	1066.764	803.240
385.088	16.791	1065.627	802.309
386.102	16.849	1064.683	801.802
387.117	16.825	1064.102	801.180
388.132	16.930	1063.001	800.776
389.146	16.701	1062.131	798.970
390.161	16.740	1061.644	798.715
391.175	16.826	1060.989	798.560
392.190	16.891	1060.386	798.341
393.205	17.013	1059.374	798.083
394.219	16.890	1058.683	796.911
395.234	16.928	1057.972	796.485
396.248	16.865	1056.573	795.064
397.263	16.816	1056.057	794.380
398.278	16.852	1055.203	793.835
399.292	16.797	1054.686	793.115
400.307	16.802	1053.839	792.432
401.321	16.944	1053.345	792.656
402.336	16.895	1052.303	791.571
403.350	16.865	1051.930	791.080
404.365	16.916	1051.103	790.629
405.380	16.819	1050.385	789.567
406.394	17.019	1049.832	790.010
407.409	17.098	1048.752	789.494
408.423	17.084	1048.491	789.167
409.438	17.096	1047.594	788.476
410.453	17.217	1047.003	788.524
411.467	17.266	1046.092	787.993
412.482	17.096	1045.812	786.924
413.496	17.145	1045.346	786.734
414.511	17.251	1044.565	786.565
415.526	17.391	1043.665	786.463
416.540	17.331	1043.830	786.244
417.555	17.284	1043.056	785.372
418.569	17.385	1042.561	785.397
419.584	17.284	1042.388	784.729
420.599	17.438	1041.567	784.755
421.613	102.689	1321.712	1466.777
422.628	94.277	1362.482	1466.872
