DTS Sentinel unit serial number:	SN413079Multiplexer serial number:	ORYXHardware model number:	OX4-SRSoftware version number:	ORYX F/W v4.00 Oryx Data Collector v3.7.2.0data status	okinstallation	princeton_trtdifferential loss correction	single-endedforward channel	channel 2reverse channel	N/Adate	2019/09/12time	18:54:49forward acquisition time	15.00reverse acquisition time	0.00gamma	496.2192k internal	0.2325k external	0.2325temperature offset calibration	1.0132default loss term (dB/km)	0.3790temperature slope calibration	1.0000multiplexer offset coefficient	1.0000multiplexer slope coefficient	1.0000fibre end	0.00T internal ref (°C)	32.87T ext. ref 1 (°C)	3.00T ext. ref 2 (°C)	27.35length (m)	temperature (°C)	Stokes	anti-Stokes-747.200	-101.071	-0.417	0.103
-746.185	11.906	0.555	-0.430
-745.171	-113.550	0.582	-0.115
-744.156	10.805	-0.320	-0.246
-743.142	34.252	0.621	-0.547
-742.127	4.514	-0.798	0.591
-741.112	-55.076	0.455	-0.207
-740.098	-24.058	1.055	0.636
-739.083	19.995	-0.077	-0.063
-738.069	800.000	-0.074	-0.209
-737.054	19.851	-0.790	-0.642
-736.039	-32.288	-0.401	-0.226
-735.025	15.189	0.323	-0.255
-734.010	-23.416	0.361	-0.219
-732.996	505.855	-0.329	-0.770
-731.981	-81.043	0.479	-0.160
-730.966	-70.785	0.900	-0.343
-729.952	242.019	0.146	0.246
-728.937	-111.349	-0.706	0.145
-727.923	-10.462	-0.030	-0.020
-726.908	1.401	0.690	0.500
-725.894	-46.329	-0.340	0.169
-724.879	-77.859	-0.362	-0.126
-723.864	-37.437	0.550	0.296
-722.850	-52.005	0.261	-0.122
-721.835	5.630	-0.129	0.096
-720.821	-187.178	-0.656	-0.009
-719.806	-130.860	1.023	0.138
-718.791	-83.819	0.154	0.050
-717.777	-3.874	-0.614	-0.430
-716.762	-109.450	0.716	0.153
-715.748	-145.472	-0.998	-0.090
-714.733	-109.961	0.196	-0.041
-713.718	133.592	0.702	0.915
-712.704	-108.535	0.315	0.068
-711.689	74.908	-0.620	-0.659
-710.675	-200.000	-0.023	0.372
-709.660	-12.122	0.788	-0.520
-708.645	3.947	-1.396	1.028
-707.631	-48.921	0.883	0.427
-706.616	534.686	0.087	-0.208
-705.602	-49.788	0.315	0.151
-704.587	-159.664	-0.565	0.031
-703.572	-57.338	0.582	0.258
-702.558	245.176	-0.363	0.615
-701.543	-171.076	0.858	0.029
-700.529	-58.372	0.706	0.309
-699.514	-34.430	-0.711	-0.393
-698.499	800.000	-0.211	-0.707
-697.485	328.524	-0.090	0.175
-696.470	26.153	-0.241	0.203
-695.456	800.000	-0.061	-0.196
-694.441	-200.000	0.021	0.103
-693.426	-166.897	-0.793	0.033
-692.412	-141.060	0.715	-0.074
-691.397	-76.743	-0.674	-0.238
-690.383	68.957	-0.321	0.332
-689.368	-4.183	-1.003	0.699
-688.354	99.121	-0.401	-0.466
-687.339	11.455	0.443	-0.342
-686.324	-200.000	-0.010	0.230
-685.310	-200.000	0.074	0.351
-684.295	-52.487	0.955	0.444
-683.281	-100.175	-0.512	-0.128
-682.266	95.224	0.508	-0.583
-681.251	-5.301	-1.034	0.715
-680.237	-142.847	0.316	0.031
-679.222	192.534	0.115	-0.175
-678.208	-121.788	0.132	-0.022
-677.193	90.249	-0.931	1.048
-676.178	800.000	0.202	-0.660
-675.164	149.015	0.144	-0.196
-674.149	103.348	0.602	0.711
-673.135	-61.908	-0.268	0.113
-672.120	-44.475	-0.889	-0.448
-671.105	-153.197	-0.234	0.016
-670.091	800.000	0.275	0.806
-669.076	-200.000	0.000	0.370
-668.062	83.555	-0.380	-0.417
-667.047	-200.000	0.066	0.320
-666.032	-30.304	-0.387	-0.221
-665.018	800.000	-0.198	-0.843
-664.003	100.221	-0.434	-0.506
-662.989	42.177	0.471	0.431
-661.974	-200.000	-0.072	-0.589
-660.959	800.000	-0.133	0.521
-659.945	-200.000	-0.050	0.573
-658.930	-61.450	1.125	0.476
-657.916	80.517	0.361	0.391
-656.901	800.000	-0.166	-0.622
-655.886	800.000	-0.267	-1.013
-654.872	-200.000	0.151	0.753
-653.857	98.814	-0.440	-0.511
-652.843	675.707	0.041	0.108
-651.828	800.000	-0.086	0.352
-650.814	800.000	0.241	0.869
-649.799	-111.702	-0.189	-0.039
-648.784	-26.755	0.494	-0.290
-647.770	-123.871	0.201	-0.032
-646.755	-99.388	0.443	0.112
-645.741	117.461	0.170	0.211
-644.726	7.884	0.501	-0.377
-643.711	-49.737	0.143	-0.068
-642.697	-200.000	0.018	0.293
-641.682	524.406	-0.057	-0.135
-640.668	432.843	0.077	-0.167
-639.653	-115.300	-0.790	-0.150
-638.638	-200.000	-0.075	-0.839
-637.624	4.736	-0.919	0.679
-636.609	20.431	0.158	0.129
-635.595	513.307	0.083	0.194
-634.580	-183.660	0.951	0.016
-633.565	-76.797	0.377	-0.133
-632.551	18.854	-0.498	-0.401
-631.536	-23.715	-0.613	0.369
-630.522	633.654	0.186	0.474
-629.507	800.000	-0.130	-0.415
-628.492	-151.947	0.643	-0.047
-627.478	-54.530	0.455	0.207
-626.463	800.000	-0.246	1.061
-625.449	-135.203	-0.731	-0.088
-624.434	-176.677	0.682	-0.018
-623.419	0.666	-0.495	-0.355
-622.405	44.012	0.302	0.278
-621.390	800.000	-0.219	-0.857
-620.376	-122.394	-0.585	-0.096
-619.361	182.727	0.265	0.393
-618.346	279.756	0.179	0.321
-617.332	-200.000	-0.022	0.197
-616.317	-36.061	0.632	-0.343
-615.303	-200.000	0.055	-1.062
-614.288	103.960	-0.147	0.173
-613.273	-119.972	0.520	0.090
-612.259	-200.000	0.047	0.522
-611.244	-134.723	-0.403	-0.049
-610.230	-103.549	-0.571	0.135
-609.215	800.000	-0.094	-0.296
-608.201	-59.441	0.506	-0.218
-607.186	32.432	0.652	0.565
-606.171	-141.177	0.897	0.092
-605.157	-87.293	0.009	-0.003
-604.142	800.000	-0.280	0.857
-603.128	-89.736	-0.224	0.066
-602.113	-97.236	-0.430	-0.113
-601.098	-200.000	-0.047	-0.349
-600.084	185.663	0.719	-1.072
-599.069	409.608	0.189	-0.403
-598.055	164.469	-0.367	-0.520
-597.040	-46.652	0.529	0.260
-596.025	-114.964	0.117	0.022
-595.011	-137.969	-0.910	-0.102
-593.996	4.653	0.634	0.467
-592.982	-64.271	-0.479	0.196
-591.967	-54.480	-0.525	0.238
-590.952	13.461	-0.507	0.394
-589.938	-200.000	0.030	0.190
-588.923	91.125	-0.419	0.471
-587.909	286.498	0.708	1.282
-586.894	4.183	0.148	0.109
-585.879	-200.000	0.050	0.674
-584.865	54.944	0.150	-0.145
-583.850	-112.059	0.316	-0.064
-582.836	62.354	0.162	-0.162
-581.821	-88.810	-0.495	-0.147
-580.806	169.126	-0.315	-0.451
-579.792	-71.230	-0.553	0.208
-578.777	121.352	0.675	0.843
-577.763	-23.964	-0.497	0.298
-576.748	183.213	0.347	-0.514
-575.733	366.515	-0.225	-0.455
-574.719	151.549	0.450	-0.615
-573.704	177.171	0.529	0.772
-572.690	200.641	0.274	-0.423
-571.675	76.751	-0.810	-0.862
-570.661	-95.995	-0.510	-0.136
-569.646	800.000	0.150	0.615
-568.631	-90.904	0.407	-0.118
-567.617	-81.481	-0.229	-0.076
-566.602	-13.434	0.223	0.145
-565.588	317.515	-0.122	0.230
-564.573	123.701	0.365	0.459
-563.558	35.074	0.592	0.519
-562.544	-74.796	-0.499	0.179
-561.529	10.079	-0.655	-0.499
-560.515	647.767	0.183	0.468
-559.500	-200.000	-0.055	-0.324
-558.485	110.266	-0.397	0.477
-557.471	-200.000	0.011	0.445
-556.456	-45.812	-1.045	0.517
-555.442	727.393	0.136	0.364
-554.427	-57.114	-0.380	-0.168
-553.412	214.928	0.366	-0.581
-552.398	-68.166	0.500	-0.195
-551.383	800.000	0.251	-0.700
-550.369	-72.797	-0.305	-0.113
-549.354	620.560	0.184	-0.463
-548.339	-0.307	-0.298	-0.212
-547.325	123.931	-0.340	-0.427
-546.310	10.557	0.288	0.220
-545.296	-28.623	-0.583	-0.336
-544.281	-140.692	0.612	-0.063
-543.266	0.831	0.359	-0.257
-542.252	416.536	-0.261	0.557
-541.237	15.736	-0.043	-0.034
-540.223	-88.205	-1.069	0.320
-539.208	-26.623	0.334	-0.195
-538.193	-105.085	0.247	0.057
-537.179	-135.023	0.552	0.067
-536.164	800.000	-0.137	0.544
-535.150	61.338	0.444	-0.442
-534.135	-49.769	0.359	0.171
-533.121	65.845	-0.779	-0.790
-532.106	-200.000	-0.003	0.099
-531.091	-200.000	-0.090	0.493
-530.077	800.000	0.078	0.286
-529.062	269.507	-0.203	-0.357
-528.048	50.121	-0.228	0.215
-527.033	144.384	-0.146	0.195
-526.018	153.377	-0.068	0.093
-525.004	75.173	0.506	0.534
-523.989	-200.000	0.022	-0.426
-522.975	28.004	-0.327	0.276
-521.960	297.761	-0.130	0.238
-520.945	46.780	-0.346	0.322
-519.931	374.752	-0.370	0.753
-518.916	800.000	-0.088	-0.323
-517.902	17.129	-0.647	-0.514
-516.887	27.324	0.459	-0.386
-515.872	-200.000	0.034	0.835
-514.858	-100.064	-1.035	0.258
-513.843	106.338	0.335	0.398
-512.829	112.413	0.483	0.584
-511.814	772.790	0.086	-0.234
-510.799	44.255	0.167	0.153
-509.785	800.000	-0.058	0.167
-508.770	800.000	0.156	-0.431
-507.756	-123.928	0.343	-0.054
-506.741	463.050	0.304	-0.680
-505.726	-200.000	0.069	0.781
-504.712	329.670	-0.432	-0.830
-503.697	257.456	-0.389	0.669
-502.683	-200.000	0.008	-0.347
-501.668	65.785	-0.363	-0.367
-500.653	-171.688	-0.259	0.009
-499.639	-15.984	-0.513	-0.326
-498.624	-27.320	-0.563	0.327
-497.610	-53.906	-0.177	-0.081
-496.595	387.687	-0.252	0.521
-495.581	122.466	-0.229	-0.286
-494.566	-147.275	-0.235	0.020
-493.551	-152.097	-0.732	-0.053
-492.537	15.959	-0.526	-0.414
-491.522	154.316	0.554	-0.759
-490.508	-200.000	0.042	0.676
-489.493	-122.573	0.264	-0.043
-488.478	800.000	0.158	0.460
-487.464	373.958	-0.199	-0.405
-486.449	52.373	-0.640	0.610
-485.435	104.353	-0.230	-0.270
-484.420	-131.868	0.386	-0.050
-483.405	-38.741	0.097	0.051
-482.391	104.772	0.213	0.250
-481.376	-87.759	-0.111	-0.034
-480.362	555.763	-0.144	0.348
-479.347	-135.910	0.606	-0.071
-478.332	255.764	-0.075	-0.129
-477.318	-122.266	-0.365	-0.060
-476.303	-200.000	0.022	-0.717
-475.289	207.550	-0.261	-0.406
-474.274	-53.140	-0.102	0.047
-473.259	190.947	0.266	0.400
-472.245	-200.000	0.032	0.498
-471.230	-19.534	0.853	-0.527
-470.216	779.434	-0.157	-0.428
-469.201	-27.111	-0.428	0.249
-468.186	800.000	-0.094	-0.287
-467.172	-22.280	0.519	-0.314
-466.157	-200.000	-0.024	0.107
-465.143	286.600	-0.189	0.341
-464.128	49.717	-0.840	0.790
-463.113	-200.000	0.066	-0.355
-462.099	-200.000	0.050	-0.571
-461.084	-106.856	-0.303	0.067
-460.070	-200.000	0.069	-0.394
-459.055	55.330	-1.032	-0.996
-458.040	-200.000	-0.058	0.285
-457.026	358.618	-0.255	0.509
-456.011	-80.764	-0.161	-0.054
-454.997	-3.478	0.732	0.508
-453.982	46.727	-0.272	-0.252
-452.968	340.824	-0.069	0.134
-451.953	-160.224	-0.680	0.037
-450.938	-200.000	-0.048	0.378
-449.924	-0.443	0.289	-0.205
-448.909	-200.000	0.021	-0.554
-447.895	372.733	0.267	0.542
-446.880	-36.192	0.230	0.124
-445.865	128.721	-0.154	-0.196
-444.851	800.000	-0.125	-0.393
-443.836	46.560	0.388	0.359
-442.822	800.000	-0.075	0.210
-441.807	-200.000	0.018	0.109
-440.792	-81.600	-0.505	-0.166
-439.778	83.173	0.379	-0.411
-438.763	355.450	-0.450	-0.893
-437.749	-39.482	0.388	0.203
-436.734	-200.000	-0.113	-0.608
-435.719	800.000	0.139	-0.387
-434.705	93.825	-0.583	0.659
-433.690	800.000	0.102	0.432
-432.676	-59.987	-0.690	0.294
-431.661	800.000	-0.088	0.301
-430.646	-22.348	0.848	0.512
-429.632	-167.652	-0.352	-0.014
-428.617	157.548	-0.214	0.295
-427.603	-18.937	0.210	0.130
-426.588	-68.733	0.856	-0.330
-425.573	800.000	-0.058	0.247
-424.559	634.403	-0.392	-0.990
-423.544	-8.837	0.689	0.460
-422.530	26.779	-0.444	0.371
-421.515	676.585	0.385	0.997
-420.500	-169.779	-0.127	-0.005
-419.486	-127.693	0.467	0.067
-418.471	6.950	0.439	0.326
-417.457	54.799	-0.294	-0.282
-416.442	-111.196	0.547	0.112
-415.428	-68.428	0.105	-0.041
-414.413	94.000	-0.159	0.180
-413.398	-200.000	0.043	-0.620
-412.384	218.936	-0.111	0.177
-411.369	103.704	-0.083	-0.097
-410.355	226.591	0.138	-0.222
-409.340	270.867	-0.097	-0.169
-408.325	-200.000	-0.009	-0.421
-407.311	319.410	-0.133	-0.251
-406.296	150.018	0.308	0.417
-405.282	-200.000	-0.123	-0.763
-404.267	-61.872	-0.553	-0.230
-403.252	-38.565	-0.603	-0.317
-402.238	800.000	0.096	-0.310
-401.223	-88.976	-0.298	0.088
-400.209	19.527	0.296	0.237
-399.194	-65.733	-0.412	-0.164
-398.179	-200.000	-0.005	-0.804
-397.165	105.589	0.532	-0.626
-396.150	8.615	0.234	-0.176
-395.136	226.835	0.207	0.334
-394.121	-31.085	-0.371	0.209
-393.106	-44.262	-0.197	-0.098
-392.092	-3.163	-0.298	0.206
-391.077	-200.000	-0.083	-0.485
-390.063	800.000	-0.274	-0.886
-389.048	-200.000	-0.219	-1.057
-388.033	41.885	0.160	0.145
-387.019	-30.050	-0.432	-0.245
-386.004	800.000	0.069	0.208
-384.990	-41.382	-0.679	-0.348
-383.975	-9.813	0.381	0.252
-382.960	-139.758	1.031	-0.109
-381.946	-129.554	0.459	-0.063
-380.931	-200.000	-0.024	-0.527
-379.917	121.599	-0.049	0.061
-378.902	264.230	0.423	-0.733
-377.888	128.105	-0.356	-0.451
-376.873	684.768	-0.224	0.580
-375.858	255.939	0.452	0.772
-374.844	5.115	-0.430	0.315
-373.829	168.433	-0.424	-0.601
-372.815	265.123	-0.249	-0.432
-371.800	-88.233	0.131	-0.039
-370.785	-200.000	-0.028	-0.366
-369.771	309.973	-0.193	0.360
-368.756	-69.480	0.159	0.061
-367.742	648.748	0.201	-0.512
-366.727	-200.000	0.019	0.261
-365.712	-107.883	0.417	0.090
-364.698	-37.440	-0.391	0.207
-363.683	-81.392	-0.614	0.201
-362.669	-33.015	-0.280	-0.154
-361.654	-142.479	-0.692	0.068
-360.639	24.326	-0.149	0.122
-359.625	-200.000	-0.038	-0.254
-358.610	355.213	0.022	-0.043
-357.596	-200.000	0.056	-0.266
-356.581	-13.486	0.130	0.084
-355.566	-142.643	-0.464	-0.045
-354.552	-88.487	-0.940	-0.279
-353.537	-200.000	0.093	-0.543
-352.523	-183.704	0.710	-0.012
-351.508	134.734	0.618	0.797
-350.493	-29.787	0.693	0.392
-349.479	-103.358	0.180	-0.042
-348.464	800.000	0.089	0.286
-347.450	-200.000	0.008	0.148
-346.435	-103.487	0.768	-0.180
-345.420	9.706	0.429	0.323
-344.406	-200.000	-0.022	-0.346
-343.391	-200.000	0.053	-0.638
-342.377	-77.740	-0.341	-0.117
-341.362	-84.175	0.230	-0.073
-340.348	15.101	-0.133	0.103
-339.333	154.825	-0.337	-0.460
-338.318	43.646	0.133	0.121
-337.304	-200.000	0.116	-0.662
-336.289	-123.173	-2.141	-0.341
-335.275	-200.000	0.120	-0.622
-334.260	-93.857	1.236	-0.338
-333.245	-46.868	-0.689	-0.335
-332.231	47.050	-0.405	0.374
-331.216	-44.680	0.552	0.273
-330.202	605.559	0.074	-0.182
-329.187	143.602	-0.298	0.394
-328.172	800.000	0.193	0.739
-327.158	-200.000	-0.000	0.078
-326.143	474.043	-0.056	-0.124
-325.129	-120.281	-0.406	0.069
-324.114	1.986	0.195	0.140
-323.099	800.000	-0.215	-0.627
-322.085	-126.566	-0.803	0.118
-321.070	-124.963	-0.177	0.027
-320.056	549.477	0.158	0.376
-319.041	-53.613	0.213	0.096
-318.026	-63.559	0.111	0.045
-317.012	-73.064	-0.267	0.097
-315.997	-200.000	0.036	-0.265
-314.983	116.181	-0.098	0.119
-313.968	-200.000	-0.193	0.881
-312.953	251.309	0.346	0.584
-311.939	549.700	0.045	0.106
-310.924	-158.124	0.445	-0.026
-309.910	126.405	0.183	0.230
-308.895	-112.745	-1.054	0.208
-307.880	-73.996	0.339	0.122
-306.866	-7.323	-0.223	0.150
-305.851	35.188	0.557	0.484
-304.837	68.256	-0.206	-0.209
-303.822	-74.456	-0.282	-0.101
-302.807	22.335	-0.339	-0.274
-301.793	147.157	-0.265	0.354
-300.778	124.546	-0.324	-0.404
-299.764	800.000	0.133	-0.502
-298.749	-48.535	-0.374	0.179
-297.735	-78.062	0.113	0.039
-296.720	16.056	-0.490	0.383
-295.705	500.168	-0.554	-1.267
-294.691	56.912	0.243	0.235
-293.676	81.653	-0.663	-0.711
-292.662	307.723	-0.257	-0.475
-291.647	151.240	-0.213	-0.288
-290.632	397.264	0.202	0.419
-289.618	149.340	0.381	-0.511
-288.603	-59.954	0.594	0.251
-287.589	800.000	0.171	0.638
-286.574	-56.399	0.796	-0.350
-285.559	-73.782	-0.606	-0.219
-284.545	-102.038	0.305	0.073
-283.530	146.512	-0.620	0.826
-282.516	-86.217	0.344	0.105
-281.501	277.736	-0.075	-0.133
-280.486	-150.992	0.758	0.057
-279.472	-19.320	0.105	0.065
-278.457	682.842	0.035	-0.090
-277.443	200.853	0.279	0.425
-276.428	-200.000	-0.008	0.041
-275.413	-31.745	0.646	0.359
-274.399	-82.538	0.664	0.213
-273.384	110.436	-0.360	0.428
-272.370	30.606	0.532	-0.451
-271.355	-12.192	-0.118	0.076
-270.340	61.697	0.158	0.156
-269.326	131.910	-0.221	-0.281
-268.311	17.227	-0.243	-0.191
-267.297	253.432	0.056	-0.094
-266.282	-200.000	-0.041	-0.297
-265.267	-200.000	0.068	-0.300
-264.253	-38.992	0.384	-0.200
-263.238	264.458	-0.467	-0.805
-262.224	34.317	-0.538	0.465
-261.209	-200.000	-0.027	0.468
-260.195	-47.578	0.497	0.239
-259.180	179.254	0.265	-0.384
-258.165	-200.000	0.149	0.848
-257.151	-113.574	-0.781	0.151
-256.136	128.531	-0.032	0.040
-255.122	800.000	-0.184	0.693
-254.107	-200.000	-0.041	0.829
-253.092	-193.361	0.242	-0.002
-252.078	5.613	-0.615	-0.450
-251.063	123.364	0.157	-0.195
-250.049	-20.791	0.570	0.346
-249.034	-130.725	0.676	0.090
-248.019	-72.836	0.558	0.203
-247.005	-109.308	0.400	-0.084
-245.990	800.000	-0.180	-0.596
-244.976	-200.000	0.088	0.729
-243.961	-98.315	1.191	-0.302
-242.946	38.084	-0.705	0.620
-241.932	-95.135	1.097	-0.293
-240.917	-64.826	-0.258	0.103
-239.903	-112.584	0.501	0.099
-238.888	178.588	0.532	0.769
-237.873	-200.000	-0.051	-0.388
-236.859	468.964	0.215	-0.478
-235.844	-89.303	0.388	-0.113
-234.830	-109.071	-0.702	0.148
-233.815	227.674	0.251	0.404
-232.800	-66.079	-0.813	0.321
-231.786	-97.000	0.920	0.238
-230.771	800.000	0.160	-0.488
-229.757	-132.859	0.786	0.099
-228.742	64.049	0.826	-0.822
-227.727	5.002	0.293	0.213
-226.713	501.230	-0.078	-0.178
-225.698	-57.531	0.531	-0.230
-224.684	-56.541	0.620	0.272
-223.669	44.322	0.027	-0.024
-222.655	-86.930	-0.509	-0.154
-221.640	-84.153	0.598	0.188
-220.625	-200.000	-0.029	-0.202
-219.611	-109.535	0.209	-0.044
-218.596	-94.615	-0.494	0.133
-217.582	208.175	-0.263	-0.407
-216.567	-46.659	0.537	0.260
-215.552	70.895	0.440	-0.450
-214.538	-200.000	-0.039	-0.387
-213.523	-33.346	0.083	0.046
-212.509	-91.789	-0.706	0.198
-211.494	-200.000	0.053	-0.418
-210.479	80.403	0.510	0.542
-209.465	-110.980	-0.526	-0.107
-208.450	-200.000	-0.062	0.567
-207.436	800.000	-0.050	-0.141
-206.421	-175.105	-0.427	-0.012
-205.406	-90.945	0.543	0.154
-204.392	-59.399	0.412	0.175
-203.377	-98.819	-0.389	-0.098
-202.363	-200.000	-0.040	-0.289
-201.348	-200.000	0.051	-0.388
-200.333	116.317	0.177	-0.214
-199.319	-200.000	-0.007	-0.044
-198.304	2.416	0.256	-0.183
-197.290	-6.872	0.174	-0.117
-196.275	-39.366	-0.484	-0.251
-195.260	-200.000	0.028	0.371
-194.246	370.886	0.324	0.649
-193.231	-200.000	-0.102	-0.967
-192.217	-76.996	0.527	-0.182
-191.202	-148.603	0.349	0.028
-190.187	-200.000	-0.129	0.895
-189.173	-140.503	0.507	0.052
-188.158	466.534	-0.294	-0.651
-187.144	-200.000	0.014	-0.221
-186.129	-200.000	-0.067	-0.959
-185.114	-200.000	-0.187	0.904
-184.100	156.824	0.288	0.393
-183.085	-137.840	-0.490	0.054
-182.071	-200.000	0.119	-1.056
-181.056	1.028	-0.445	0.315
-180.042	-58.211	-0.370	0.159
-179.027	319.596	0.299	0.561
-178.012	-200.000	-0.011	-0.090
-176.998	59.572	-0.434	-0.422
-175.983	-0.415	0.454	-0.318
-174.969	103.375	-0.531	0.614
-173.954	-200.000	-0.016	-0.379
-172.939	102.438	0.709	0.818
-171.925	373.425	-0.170	-0.341
-170.910	-61.026	1.096	0.457
-169.896	-200.000	0.100	0.718
-168.881	-57.534	-0.657	-0.284
-167.866	-113.511	0.328	0.063
-166.852	-118.279	-0.791	-0.139
-165.837	-114.795	-0.307	0.058
-164.823	86.423	-0.233	0.253
-163.808	-200.000	-0.037	0.404
-162.793	321.685	-0.226	0.424
-161.779	12.529	0.386	-0.293
-160.764	338.715	0.076	-0.147
-159.750	-200.000	0.038	0.453
-158.735	524.360	-0.295	0.684
-157.720	-27.499	0.058	0.033
-156.706	800.000	0.178	-0.660
-155.691	280.834	0.264	0.466
-154.677	800.000	0.094	-0.309
-153.662	96.841	0.473	0.535
-152.647	-142.205	-0.658	-0.064
-151.633	-3.012	0.607	-0.418
-150.618	-65.106	-1.003	-0.399
-149.604	155.249	0.312	0.423
-148.589	239.422	0.268	0.439
-147.574	130.147	-0.212	-0.268
-146.560	332.148	0.314	0.597
-145.545	-129.965	0.877	-0.118
-144.531	800.000	-0.097	-0.406
-143.516	-85.484	-0.367	0.113
-142.502	65.711	-0.392	0.391
-141.487	-200.000	-0.039	0.817
-140.472	83.805	-0.417	-0.448
-139.458	-200.000	-0.019	0.549
-138.443	-200.000	0.061	1.010
-137.429	301.066	-0.181	0.329
-136.414	-176.225	0.492	-0.013
-135.399	41.851	-0.376	-0.336
-134.385	407.183	0.179	-0.372
-133.370	-129.492	-0.409	-0.056
-132.356	212.090	0.363	0.564
-131.341	322.778	-0.308	0.578
-130.326	800.000	-0.307	0.904
-129.312	-34.129	-0.380	0.206
-128.297	-200.000	0.037	-0.251
-127.283	286.748	-0.271	-0.481
-126.268	262.015	0.291	-0.497
-125.253	133.224	0.390	-0.497
-124.239	-200.000	-0.033	-0.251
-123.224	-200.000	-0.098	-0.444
-122.210	343.179	-0.422	0.813
-121.195	-69.893	-0.456	0.171
-120.180	-2.831	0.621	0.428
-119.166	-75.685	-0.833	-0.291
-118.151	8.458	-0.255	0.189
-117.137	-23.884	-0.298	0.175
-116.122	73.201	-0.396	0.408
-115.107	-46.414	0.563	0.272
-114.093	1.909	0.449	0.319
-113.078	-163.939	-0.388	0.018
-112.064	-200.000	0.058	0.303
-111.049	-200.000	0.038	1.186
-110.034	-199.457	-0.449	-0.002
-109.020	-200.000	0.101	-0.571
-108.005	-40.229	-0.388	0.199
-106.991	205.244	0.188	0.288
-105.976	306.580	-0.177	-0.325
-104.962	60.387	-0.377	-0.367
-103.947	35.776	0.179	0.155
-102.932	-200.000	-0.124	-1.069
-101.918	-39.197	-0.702	-0.363
-100.903	800.000	-0.239	0.737
-99.889	-32.798	-1.252	-0.685
-98.874	558.974	-0.036	-0.086
-97.859	-50.040	0.793	-0.370
-96.845	-200.000	0.129	-0.594
-95.830	102.126	-0.271	-0.311
-94.816	800.000	-0.147	0.612
-93.801	-129.809	-0.474	-0.064
-92.786	-114.779	-0.162	-0.031
-91.772	77.823	-0.154	-0.161
-90.757	67.319	0.179	-0.180
-89.743	-127.585	0.735	-0.105
-88.728	-200.000	-0.065	0.485
-87.713	800.000	0.111	-0.422
-86.699	800.000	0.394	1.332
-85.684	-200.000	-0.086	-0.411
-84.670	800.000	-0.139	-0.431
-83.655	-200.000	0.073	-0.541
-82.640	-200.000	0.037	-0.724
-81.626	27.016	0.189	-0.156
-80.611	800.000	-0.143	-0.539
-79.597	-200.000	-0.067	0.795
-78.582	1.556	0.755	-0.534
-77.567	11.213	0.368	-0.277
-76.553	-200.000	-0.027	0.324
-75.538	-53.738	0.460	0.206
-74.524	-99.554	0.904	0.223
-73.509	70.530	-0.468	-0.476
-72.494	-159.880	-0.342	-0.018
-71.480	-157.907	0.436	-0.025
-70.465	1.839	-0.217	-0.154
-69.451	800.000	-0.122	-0.412
-68.436	27.970	-0.430	0.357
-67.422	196.724	0.431	0.645
-66.407	-147.689	-0.139	0.011
-65.392	-125.486	0.692	-0.103
-64.378	50.901	-0.381	0.355
-63.363	351.785	-0.253	0.493
-62.349	151.578	-0.116	0.155
-61.334	-39.326	-1.345	-0.694
-60.319	-193.161	0.787	0.007
-59.305	800.000	0.371	-1.078
-58.290	800.000	0.199	0.790
-57.276	454.022	0.596	1.297
-56.261	-200.000	95.802	582.832
-55.246	662.897	1362.892	3452.450
-54.232	202.405	2531.730	3838.214
-53.217	112.273	2248.237	2670.317
-52.203	42.497	1878.888	1678.816
-51.188	35.976	1673.823	1446.747
-50.173	33.353	1628.628	1388.419
-49.159	52.233	1678.573	1571.877
-48.144	52.823	1693.394	1590.075
-47.130	35.632	1655.127	1427.802
-46.115	32.825	1640.172	1394.137
-45.100	32.709	1636.339	1389.973
-44.086	32.857	1632.624	1387.847
-43.071	32.487	1630.780	1383.505
-42.057	32.671	1627.223	1381.781
-41.042	32.709	1626.596	1381.476
-40.027	32.667	1624.596	1379.413
-39.013	32.602	1622.260	1376.903
-37.998	32.661	1621.357	1376.508
-36.984	32.753	1619.116	1375.227
-35.969	33.060	1616.595	1375.262
-34.954	32.916	1615.665	1373.368
-33.940	32.909	1613.459	1371.391
-32.925	32.815	1611.265	1368.791
-31.911	33.000	1610.434	1369.371
-30.896	32.959	1608.998	1367.797
-29.881	32.828	1607.485	1365.509
-28.867	32.728	1605.501	1363.044
-27.852	32.738	1604.829	1362.491
-26.838	32.773	1602.578	1360.778
-25.823	33.142	1601.447	1362.425
-24.809	32.716	1600.848	1358.790
-23.794	33.056	1597.662	1358.479
-22.779	32.762	1596.810	1355.591
-21.765	32.998	1595.293	1355.940
-20.750	32.813	1594.599	1353.972
-19.736	32.682	1593.002	1351.625
-18.721	32.998	1590.560	1351.756
-17.706	32.888	1589.932	1350.386
-16.692	32.837	1588.091	1348.400
-15.677	32.982	1586.268	1347.840
-14.663	33.042	1584.967	1347.104
-13.648	32.933	1584.307	1345.711
-12.633	32.875	1582.242	1343.494
-11.619	32.946	1580.615	1342.559
-10.604	32.849	1579.824	1341.148
-9.590	33.096	1577.628	1340.984
-8.575	32.932	1576.506	1338.811
-7.560	32.740	1576.295	1337.217
-6.546	33.052	1574.083	1337.498
-5.531	32.931	1573.104	1335.759
-4.517	32.779	1572.527	1334.142
-3.502	32.767	1571.152	1332.834
-2.487	32.729	1569.559	1331.162
-1.473	32.301	1558.558	1318.781
-0.458	29.783	1537.631	1283.571
0.556	27.314	1537.976	1252.029
1.571	24.674	1561.605	1252.677
2.586	24.166	1573.446	1258.480
3.600	21.323	1521.127	1197.078
4.615	12.629	1411.394	1055.126
5.629	4.560	1346.803	957.218
6.644	2.809	1339.625	941.300
7.659	2.975	1338.357	941.342
8.673	3.222	1336.592	941.524
9.688	2.994	1334.033	938.250
10.702	2.730	1332.271	935.314
11.717	6.343	1338.743	961.884
12.731	15.836	1356.112	1032.789
13.746	23.336	1367.804	1087.839
14.761	25.004	1368.993	1098.935
15.775	24.983	1369.036	1098.738
16.790	24.820	1368.994	1097.609
17.804	24.805	1368.099	1096.705
18.819	25.115	1367.930	1098.368
19.834	25.018	1366.409	1096.461
20.848	24.945	1366.282	1095.810
21.863	25.062	1366.441	1096.561
22.877	25.088	1364.891	1095.379
23.892	25.361	1363.742	1096.027
24.907	25.393	1362.581	1095.190
25.921	25.617	1361.110	1095.275
26.936	25.094	1361.624	1092.403
27.950	25.158	1359.774	1091.216
28.965	25.281	1358.380	1090.748
29.980	25.256	1358.596	1090.672
30.994	25.251	1357.301	1089.506
32.009	25.359	1355.559	1088.662
33.023	25.356	1355.463	1088.471
34.038	25.307	1353.775	1086.722
35.053	25.343	1352.631	1085.929
36.067	25.567	1351.359	1086.163
37.082	25.439	1350.912	1084.932
38.096	25.436	1349.439	1083.640
39.111	25.261	1349.889	1082.850
40.126	25.355	1348.325	1082.063
41.140	24.966	1348.513	1079.772
42.155	25.205	1348.261	1080.914
43.169	24.979	1347.722	1079.026
44.184	25.162	1347.164	1079.585
45.199	25.026	1347.044	1078.578
46.213	24.795	1347.052	1077.098
47.228	25.218	1345.768	1078.521
48.242	25.144	1345.397	1077.684
49.257	25.057	1343.624	1075.645
50.271	25.471	1341.036	1075.955
51.286	25.300	1341.070	1074.866
52.301	25.371	1339.644	1074.049
53.315	25.468	1337.671	1072.954
54.330	25.372	1336.683	1071.492
55.344	25.301	1336.904	1071.150
56.359	25.338	1335.485	1070.141
57.374	25.398	1334.096	1069.291
58.388	25.419	1333.925	1069.184
59.403	25.422	1332.973	1068.341
60.417	25.205	1333.847	1067.660
61.432	25.173	1332.510	1066.302
62.447	25.338	1332.012	1066.789
63.461	25.144	1330.910	1064.663
64.476	25.174	1329.280	1063.443
65.490	25.351	1328.306	1063.614
66.505	25.062	1327.841	1061.441
67.520	25.101	1325.925	1060.046
68.534	25.162	1325.421	1059.906
69.549	25.164	1323.575	1058.353
70.563	25.183	1322.875	1057.807
71.578	25.557	1320.845	1058.294
72.593	25.087	1322.256	1056.561
73.607	25.030	1320.219	1054.501
74.622	25.289	1319.646	1055.479
75.636	25.354	1320.209	1056.216
76.651	25.197	1318.696	1053.987
77.666	25.122	1318.602	1053.380
78.680	25.127	1318.168	1052.968
79.695	25.247	1316.686	1052.395
80.709	25.313	1315.508	1051.749
81.724	25.258	1316.165	1051.856
82.739	25.381	1314.732	1051.338
83.753	25.579	1314.024	1051.837
84.768	25.263	1313.437	1049.430
85.782	25.434	1312.676	1049.730
86.797	25.576	1310.667	1048.856
87.812	25.036	1310.418	1045.414
88.826	25.351	1309.589	1046.494
89.841	25.368	1307.422	1044.770
90.855	25.560	1306.446	1045.013
91.870	25.279	1306.428	1043.277
92.884	25.542	1304.494	1043.162
93.899	25.737	1304.420	1044.145
94.914	25.562	1303.758	1042.505
95.928	25.685	1302.435	1042.070
96.943	25.696	1301.410	1041.219
97.957	25.570	1300.520	1039.690
98.972	25.415	1300.267	1038.498
99.987	25.695	1298.961	1038.982
101.001	25.324	1299.462	1037.146
102.016	25.383	1297.751	1036.030
103.030	25.394	1297.609	1035.887
104.045	25.385	1297.195	1035.412
105.060	25.272	1295.937	1033.668
106.074	25.213	1293.779	1031.511
107.089	25.257	1292.774	1030.873
108.103	24.951	1292.222	1028.586
109.118	25.380	1290.003	1029.187
110.133	25.293	1288.290	1027.231
111.147	25.455	1286.997	1027.036
112.162	25.397	1287.358	1026.902
113.176	25.523	1286.255	1026.649
114.191	25.224	1285.662	1024.380
115.206	25.215	1283.756	1022.721
116.220	25.219	1283.474	1022.425
117.235	25.093	1282.248	1020.640
118.249	25.083	1280.514	1019.114
119.264	25.188	1280.077	1019.276
120.279	25.322	1279.710	1019.652
121.293	25.347	1279.877	1019.835
122.308	25.111	1279.170	1017.841
123.322	25.085	1277.917	1016.610
124.337	25.333	1276.594	1016.871
125.352	25.230	1276.261	1015.932
126.366	25.184	1274.988	1014.572
127.381	25.354	1273.657	1014.382
128.395	25.260	1272.200	1012.600
129.410	25.046	1272.016	1011.156
130.424	25.076	1271.512	1010.836
131.439	25.199	1270.315	1010.489
132.454	24.859	1269.995	1008.231
133.468	25.109	1269.879	1009.456
134.483	25.248	1269.392	1009.764
135.497	25.501	1268.281	1010.213
136.512	25.259	1267.916	1008.470
137.527	25.255	1266.113	1006.928
138.541	25.617	1263.592	1006.857
139.556	25.216	1264.166	1004.981
140.570	25.382	1262.477	1004.477
141.585	25.192	1262.805	1003.584
142.600	25.349	1260.699	1002.702
143.614	25.470	1260.193	1002.885
144.629	25.368	1259.407	1001.601
145.643	25.388	1257.621	1000.202
146.658	25.159	1258.138	999.252
147.673	25.460	1255.442	998.697
148.687	25.662	1255.239	999.568
149.702	25.249	1254.078	996.260
150.716	24.904	1252.281	992.833
151.731	24.968	1251.069	992.137
152.746	24.874	1250.311	990.930
153.760	25.295	1249.847	992.802
154.775	25.401	1249.932	993.367
155.789	25.402	1248.672	992.284
156.804	25.278	1247.678	990.721
157.819	25.239	1246.169	989.220
158.833	25.326	1244.445	988.246
159.848	25.568	1244.082	989.202
160.862	25.463	1243.364	987.963
161.877	25.299	1243.115	986.776
162.892	25.616	1242.025	987.564
163.906	24.918	1241.529	983.252
164.921	25.330	1240.850	984.891
165.935	25.371	1239.960	984.318
166.950	25.443	1238.695	983.625
167.964	25.079	1239.267	981.993
168.979	25.127	1237.793	981.006
169.994	25.640	1235.974	982.278
171.008	25.533	1236.407	981.952
172.023	25.502	1235.338	980.842
173.037	25.683	1234.547	981.114
174.052	25.554	1234.156	980.018
175.067	25.520	1233.932	979.565
176.081	25.201	1232.690	976.755
177.096	25.250	1231.574	976.054
178.110	25.255	1230.975	975.517
179.125	25.301	1229.119	974.211
180.140	25.251	1228.126	973.066
181.154	25.369	1226.483	972.319
182.169	25.122	1226.794	971.144
183.183	25.341	1225.999	971.610
184.198	25.405	1225.211	971.247
185.213	25.181	1224.563	969.436
186.227	25.423	1222.624	969.119
187.242	25.558	1221.527	968.896
188.256	25.561	1220.766	968.218
189.271	25.505	1219.691	966.980
190.286	25.565	1218.589	966.347
191.300	25.203	1218.378	964.148
192.315	25.305	1218.403	964.627
193.329	25.356	1217.932	964.444
194.344	25.348	1217.156	963.700
195.359	25.310	1216.532	962.917
196.373	25.154	1215.065	960.834
197.388	25.087	1215.673	960.874
198.402	25.302	1214.829	961.272
199.417	25.400	1215.238	962.036
200.432	25.713	1214.283	962.869
201.446	25.347	1213.770	960.421
202.461	25.564	1212.426	960.432
203.475	25.325	1211.801	958.573
204.490	25.023	1211.238	956.435
205.504	25.209	1208.903	955.493
206.519	25.450	1208.641	956.486
207.534	25.135	1207.741	954.013
208.548	24.776	1207.473	951.806
209.563	24.950	1205.402	951.015
210.577	24.809	1205.440	950.210
211.592	25.155	1204.140	950.939
212.607	25.199	1204.209	951.140
213.621	25.310	1203.853	951.367
214.636	25.139	1202.315	949.161
215.650	25.145	1201.329	948.330
216.665	25.249	1200.937	948.484
217.680	25.579	1199.886	949.314
218.694	25.748	1198.469	949.000
219.709	25.318	1198.251	946.479
220.723	25.178	1197.120	944.762
221.738	25.214	1198.123	945.661
222.753	25.245	1196.392	944.376
223.767	25.130	1196.062	943.426
224.782	25.603	1194.363	944.486
225.796	25.765	1194.350	945.242
226.811	25.641	1193.920	944.167
227.826	25.201	1193.263	941.254
228.840	25.413	1192.228	941.469
229.855	25.181	1192.440	940.335
230.869	25.138	1192.235	939.865
231.884	25.299	1190.272	939.075
232.899	24.901	1189.828	936.565
233.913	25.235	1188.706	937.343
234.928	25.485	1187.944	937.960
235.942	25.059	1188.214	935.867
236.957	25.160	1185.259	933.983
237.972	25.139	1185.453	933.946
238.986	25.163	1184.499	933.236
240.001	25.036	1184.476	932.474
241.015	25.165	1182.944	931.857
242.030	25.131	1182.852	931.524
243.045	25.457	1182.712	933.025
244.059	25.460	1182.106	932.480
245.074	25.429	1181.639	931.868
246.088	25.253	1180.922	930.310
247.103	25.494	1180.895	931.451
248.117	25.595	1178.886	930.311
249.132	25.719	1177.655	929.894
250.147	25.806	1177.383	930.046
251.161	26.114	1176.955	931.218
252.176	26.044	1176.484	930.400
253.190	25.882	1176.782	929.716
254.205	25.974	1176.079	929.556
255.220	25.994	1175.175	928.862
256.234	25.888	1174.618	927.793
257.249	25.947	1173.619	927.228
258.263	26.126	1173.312	927.822
259.278	26.055	1171.942	926.293
260.293	25.880	1172.134	925.464
261.307	25.775	1171.853	924.620
262.322	26.088	1170.886	925.381
263.336	26.111	1170.283	924.938
264.351	25.720	1169.959	922.599
265.366	26.060	1168.874	923.401
266.380	26.313	1167.546	923.566
267.395	26.068	1166.759	921.610
268.409	25.698	1167.376	920.123
269.424	25.890	1166.229	920.118
270.439	25.891	1165.174	919.211
271.453	25.839	1164.779	918.553
272.468	25.680	1163.628	916.751
273.482	25.633	1162.396	915.460
274.497	25.833	1161.712	915.856
275.512	25.653	1162.319	915.342
276.526	25.620	1160.768	913.872
277.541	25.811	1160.225	914.332
278.555	25.673	1159.844	913.250
279.570	26.103	1158.487	914.277
280.585	25.815	1159.890	913.844
281.599	26.072	1157.666	913.314
282.614	25.624	1156.954	910.403
283.628	25.635	1156.799	910.256
284.643	25.752	1155.500	909.747
285.657	25.821	1154.347	909.104
286.672	25.893	1153.998	909.113
287.687	25.891	1152.290	907.677
288.701	25.901	1151.920	907.358
289.716	25.895	1150.452	906.092
290.730	25.917	1150.898	906.473
291.745	25.758	1149.737	904.676
292.760	25.796	1149.940	904.949
293.774	25.834	1148.903	904.241
294.789	26.290	1148.424	906.073
295.803	26.111	1147.367	904.260
296.818	25.842	1147.234	902.728
297.833	26.111	1145.899	902.946
298.847	26.112	1146.144	903.062
299.862	25.882	1143.932	900.093
300.876	26.119	1143.490	900.849
301.891	26.065	1143.240	900.300
302.906	26.119	1142.918	900.235
303.920	26.262	1141.673	899.889
304.935	26.266	1140.669	899.038
305.949	26.351	1139.969	898.829
306.964	26.083	1141.064	898.277
307.979	26.378	1140.100	898.906
308.993	26.116	1138.866	896.557
310.008	26.156	1137.983	895.980
311.022	25.873	1138.066	894.562
312.037	26.197	1136.219	894.634
313.052	26.129	1135.876	893.950
314.066	25.903	1135.136	892.171
315.081	25.720	1133.070	889.560
316.095	25.785	1132.151	889.084
317.110	25.902	1131.602	889.149
318.125	25.568	1131.703	887.500
319.139	25.794	1131.814	888.628
320.154	25.999	1130.745	888.716
321.168	25.755	1130.662	887.374
322.183	25.568	1129.894	885.768
323.197	26.003	1128.885	887.040
324.212	25.854	1128.637	886.035
325.227	25.718	1128.965	885.545
326.241	26.213	1127.617	886.842
327.256	25.945	1126.302	884.414
328.270	25.979	1125.185	883.624
329.285	25.561	1125.829	882.001
330.300	25.891	1124.411	882.428
331.314	25.982	1123.586	882.147
332.329	25.711	1122.679	880.032
333.343	25.616	1122.490	879.345
334.358	25.839	1122.166	880.102
335.373	26.168	1121.198	880.868
336.387	26.366	1119.185	880.176
337.402	26.169	1119.215	879.161
338.416	25.936	1119.079	877.844
339.431	26.307	1118.022	878.738
340.446	26.582	1117.533	879.615
341.460	26.609	1116.780	879.073
342.475	26.568	1115.992	878.178
343.489	26.365	1116.331	877.380
344.504	26.625	1114.300	876.967
345.519	26.301	1114.005	875.089
346.533	26.531	1112.737	875.128
347.548	26.546	1111.816	874.400
348.562	26.419	1112.306	874.093
349.577	26.061	1111.250	871.453
350.592	26.340	1109.001	870.957
351.606	26.184	1108.565	869.789
352.621	26.298	1107.024	869.053
353.635	26.015	1107.421	867.922
354.650	25.991	1107.142	867.512
355.665	25.731	1107.205	866.234
356.679	26.165	1105.208	866.677
357.694	26.032	1106.077	866.643
358.708	26.233	1104.424	866.235
359.723	26.382	1103.503	866.150
360.738	26.228	1103.599	865.411
361.752	26.328	1102.399	864.874
362.767	26.032	1103.506	864.248
363.781	26.111	1101.703	863.139
364.796	26.269	1100.894	863.183
365.810	26.719	1099.401	864.084
366.825	26.746	1100.041	864.639
367.840	26.761	1099.724	864.384
368.854	26.442	1099.679	862.748
369.869	26.598	1098.252	862.296
370.883	26.600	1096.850	861.129
371.898	26.459	1095.993	859.708
372.913	26.236	1096.625	859.071
373.927	26.563	1095.982	860.042
374.942	26.826	1094.970	860.420
375.956	26.473	1095.121	858.788
376.971	26.352	1094.318	857.509
377.986	26.332	1094.250	857.285
379.000	26.942	1092.288	858.557
380.015	26.735	1092.629	857.772
381.029	26.903	1091.809	857.846
382.044	26.679	1091.759	856.670
383.059	26.611	1090.313	855.139
384.073	26.521	1089.893	854.309
385.088	26.603	1088.514	853.542
386.102	26.724	1088.265	853.838
387.117	26.533	1086.926	851.814
388.132	26.347	1086.572	850.586
389.146	26.409	1085.547	849.999
390.161	26.323	1083.878	848.213
391.175	26.383	1083.767	848.332
392.190	26.308	1082.957	847.273
393.205	26.604	1082.850	848.501
394.219	26.808	1081.305	848.169
395.234	26.618	1080.143	846.298
396.248	26.238	1080.274	844.549
397.263	26.397	1079.639	844.717
398.278	26.485	1077.870	843.674
399.292	26.338	1079.087	843.864
400.307	26.447	1078.057	843.489
401.321	26.465	1076.581	842.345
402.336	26.124	1076.618	840.714
403.350	25.900	1075.336	838.594
404.365	26.532	1074.773	841.018
405.380	26.319	1073.787	839.182
406.394	26.413	1073.200	839.089
407.409	26.435	1072.251	838.373
408.423	26.644	1071.780	838.899
409.438	26.491	1071.992	838.283
410.453	26.557	1071.110	837.824
411.467	26.784	1070.599	838.400
412.482	26.595	1068.856	836.089
413.496	26.741	1069.273	837.013
414.511	26.908	1067.781	836.541
415.526	27.059	1067.036	836.578
416.540	26.775	1068.229	836.133
417.555	26.592	1067.505	834.648
418.569	26.696	1065.877	833.778
419.584	26.583	1065.721	833.066
420.599	26.618	1065.929	833.314
421.613	152.641	1404.430	1791.922
422.628	140.449	1453.715	1792.009
