DTS Sentinel unit serial number:	SN413079Multiplexer serial number:	ORYXHardware model number:	OX4-SRSoftware version number:	ORYX F/W v4.00 Oryx Data Collector v3.7.2.0data status	okinstallation	princeton_trtdifferential loss correction	single-endedforward channel	channel 2reverse channel	N/Adate	2019/09/11time	12:41:10forward acquisition time	60.00reverse acquisition time	0.00gamma	496.2192k internal	0.2295k external	0.2295temperature offset calibration	0.9964default loss term (dB/km)	0.3790temperature slope calibration	1.0000multiplexer offset coefficient	1.0000multiplexer slope coefficient	1.0000fibre end	0.00T internal ref (°C)	40.87T ext. ref 1 (°C)	0.23T ext. ref 2 (°C)	38.68length (m)	temperature (°C)	Stokes	anti-Stokes-747.200	28.551	0.192	0.166
-746.185	84.303	0.068	-0.076
-745.171	-112.237	0.097	0.020
-744.156	-20.380	-0.356	0.224
-743.142	419.266	0.069	0.150
-742.127	12.574	-0.111	0.087
-741.112	128.516	-0.122	-0.158
-740.098	800.000	-0.087	0.268
-739.083	-55.298	0.380	0.174
-738.069	-29.209	-0.229	0.134
-737.054	1.590	-0.273	0.201
-736.039	800.000	-0.043	-0.167
-735.025	800.000	-0.057	0.181
-734.010	23.739	-0.265	0.223
-732.996	6.287	-0.277	0.210
-731.981	-70.277	-0.448	-0.174
-730.966	-105.047	-0.177	-0.041
-729.952	391.267	0.160	-0.339
-728.937	-44.578	-0.227	0.116
-727.923	-175.955	-0.305	-0.008
-726.908	800.000	-0.032	-0.103
-725.894	5.911	0.140	0.106
-724.879	402.090	0.023	-0.050
-723.864	-56.963	0.098	-0.044
-722.850	-14.923	-0.074	0.048
-721.835	-200.000	-0.050	-0.266
-720.821	87.721	-0.128	-0.145
-719.806	75.483	-0.176	-0.190
-718.791	116.364	-0.172	-0.215
-717.777	-200.000	0.037	-0.327
-716.762	308.952	-0.143	-0.274
-715.748	-60.091	0.093	-0.041
-714.733	727.461	0.142	-0.386
-713.718	-77.815	0.299	-0.105
-712.704	-45.902	0.053	0.027
-711.689	-126.392	0.093	-0.014
-710.675	800.000	-0.094	0.373
-709.660	-58.611	-0.049	0.022
-708.645	38.648	-0.114	0.104
-707.631	-12.130	0.240	-0.160
-706.616	634.256	-0.102	-0.264
-705.602	-127.797	-0.211	0.031
-704.587	-62.865	-0.340	0.144
-703.572	-200.000	-0.013	-0.102
-702.558	15.700	-0.188	0.151
-701.543	800.000	0.045	0.181
-700.529	-200.000	-0.022	0.153
-699.514	-111.554	0.126	0.026
-698.499	-200.000	-0.016	-0.233
-697.485	-26.063	-0.120	-0.072
-696.470	-67.021	-0.049	-0.020
-695.456	163.502	0.102	0.147
-694.441	137.999	0.213	-0.284
-693.426	473.420	-0.022	-0.049
-692.412	-19.850	-0.086	-0.054
-691.397	168.941	-0.065	-0.095
-690.383	800.000	0.099	-0.298
-689.368	47.959	-0.221	-0.211
-688.354	-131.512	-0.124	-0.017
-687.339	133.612	0.227	-0.299
-686.324	-200.000	0.005	-0.243
-685.310	-116.045	0.070	-0.013
-684.295	-200.000	-0.102	0.457
-683.281	183.466	0.092	0.139
-682.266	-200.000	0.024	-0.174
-681.251	-48.362	-0.037	-0.018
-680.237	415.940	-0.076	0.166
-679.222	-90.167	-0.135	-0.040
-678.208	-200.000	-0.040	0.230
-677.193	-52.165	0.029	0.014
-676.178	197.995	-0.121	-0.189
-675.164	61.402	-0.152	0.154
-674.149	68.421	-0.217	-0.227
-673.135	575.430	-0.183	0.456
-672.120	25.544	0.146	-0.124
-671.105	70.618	-0.179	-0.189
-670.091	-126.598	-0.150	0.023
-669.076	164.819	0.061	0.088
-668.062	-37.721	-0.310	-0.168
-667.047	-200.000	-0.035	0.166
-666.032	172.551	-0.252	-0.370
-665.018	-200.000	0.038	-0.374
-664.003	24.580	0.154	0.130
-662.989	187.423	0.121	0.185
-661.974	-138.238	0.354	-0.040
-660.959	444.469	0.038	0.085
-659.945	-76.194	-0.087	-0.031
-658.930	-165.918	0.285	0.012
-657.916	154.926	0.049	0.069
-656.901	-31.706	0.177	0.101
-655.886	122.596	-0.087	-0.111
-654.872	-89.941	-0.258	-0.077
-653.857	-16.458	-0.086	0.056
-652.843	-10.273	-0.219	-0.148
-651.828	800.000	-0.153	-0.485
-650.814	428.556	0.196	-0.431
-649.799	-26.754	-0.086	-0.051
-648.784	-142.581	0.207	0.021
-647.770	-40.570	-0.095	0.050
-646.755	-169.122	-0.188	0.007
-645.741	-72.466	0.072	-0.027
-644.726	14.470	0.126	0.100
-643.711	-200.000	0.064	-0.391
-642.697	-200.000	-0.041	-0.264
-641.682	-131.564	-0.020	-0.003
-640.668	-155.472	-0.381	0.025
-639.653	230.648	-0.086	-0.144
-638.638	-19.073	-0.261	-0.165
-637.624	10.561	0.166	-0.129
-636.609	60.665	-0.255	0.257
-635.595	-129.303	-0.328	-0.046
-634.580	66.157	-0.281	-0.290
-633.565	-47.150	0.123	0.061
-632.551	-107.134	-0.346	-0.078
-631.536	107.904	-0.104	-0.126
-630.522	-114.795	0.136	0.026
-629.507	800.000	0.077	-0.320
-628.492	-7.910	-0.153	0.105
-627.478	276.316	-0.017	-0.031
-626.463	175.704	-0.078	0.115
-625.449	48.802	-0.219	-0.209
-624.434	209.052	0.089	-0.142
-623.419	-143.813	-0.139	0.013
-622.405	-114.354	-0.071	0.014
-621.390	-105.636	-0.307	0.071
-620.376	-79.208	-0.300	0.103
-619.361	-179.750	-0.285	0.006
-618.346	7.093	-0.054	0.041
-617.332	-172.506	-0.379	0.012
-616.317	800.000	-0.071	0.244
-615.303	-11.506	-0.229	-0.153
-614.288	-200.000	0.009	0.113
-613.273	31.987	0.056	-0.049
-612.259	-200.000	-0.037	0.445
-611.244	-26.730	0.243	0.145
-610.230	-11.413	0.168	-0.113
-609.215	-56.074	-0.110	0.050
-608.201	-48.448	0.267	-0.131
-607.186	-85.270	0.381	0.121
-606.171	15.437	0.248	-0.198
-605.157	-200.000	0.005	-0.072
-604.142	-132.133	-0.178	-0.024
-603.128	658.739	0.063	-0.164
-602.113	243.428	0.039	-0.067
-601.098	27.305	0.053	-0.045
-600.084	-69.870	-0.155	0.060
-599.069	-19.216	0.221	0.139
-598.055	-200.000	0.033	0.163
-597.040	-29.077	-0.225	0.131
-596.025	73.304	-0.044	0.047
-595.011	147.415	0.308	-0.421
-593.996	45.315	0.068	-0.064
-592.982	-18.624	-0.062	-0.039
-591.967	120.080	0.117	-0.148
-590.952	50.620	-0.082	-0.079
-589.938	-36.779	-0.372	-0.203
-588.923	342.960	0.055	-0.109
-587.909	170.141	-0.155	-0.225
-586.894	-200.000	-0.007	0.266
-585.879	7.396	0.147	0.111
-584.865	-1.780	-0.034	0.024
-583.850	-33.878	0.033	-0.018
-582.836	120.148	-0.164	0.207
-581.821	-14.853	0.285	0.186
-580.806	384.014	-0.062	-0.130
-579.792	226.879	-0.102	-0.168
-578.777	-24.073	0.143	-0.086
-577.763	-84.355	0.126	-0.041
-576.748	-2.096	0.042	-0.030
-575.733	-33.507	-0.343	-0.192
-574.719	-200.000	0.035	-0.230
-573.704	56.039	-0.214	0.211
-572.690	19.017	0.212	0.173
-571.675	-200.000	-0.001	0.119
-570.661	-200.000	-0.006	-0.217
-569.646	0.798	0.319	-0.232
-568.631	-100.515	0.036	-0.009
-567.617	493.460	0.117	0.273
-566.602	151.599	-0.082	0.114
-565.588	-32.394	-0.144	0.082
-564.573	-110.515	0.310	0.065
-563.558	-164.876	0.248	0.011
-562.544	225.920	-0.085	-0.139
-561.529	800.000	0.076	0.291
-560.515	-200.000	-0.036	0.172
-559.500	141.789	-0.160	-0.215
-558.485	19.159	0.042	-0.034
-557.471	147.820	-0.106	0.145
-556.456	102.223	-0.177	0.210
-555.442	76.300	-0.158	-0.170
-554.427	-200.000	0.054	0.410
-553.412	-200.000	0.060	-0.282
-552.398	206.194	-0.068	-0.107
-551.383	-103.663	0.270	0.064
-550.369	800.000	0.044	0.149
-549.354	800.000	-0.032	0.114
-548.339	-31.249	0.118	-0.067
-547.325	-98.983	0.218	-0.056
-546.310	-118.526	-0.372	-0.067
-545.296	-182.843	0.040	-0.001
-544.281	-200.000	-0.040	0.208
-543.266	800.000	-0.031	0.122
-542.252	-200.000	-0.042	0.210
-541.237	-19.440	0.197	0.124
-540.223	-84.025	0.107	0.034
-539.208	-35.742	-0.098	-0.054
-538.193	-200.000	0.073	0.368
-537.179	-110.313	-0.204	-0.043
-536.164	33.981	-0.176	-0.156
-535.150	175.712	0.227	0.333
-534.135	-170.674	-0.299	-0.010
-533.121	-200.000	-0.003	-0.052
-532.106	800.000	-0.134	0.429
-531.091	243.398	0.175	0.298
-530.077	800.000	-0.077	0.238
-529.062	-128.734	0.329	0.047
-528.048	136.662	0.228	-0.301
-527.033	-172.973	-0.076	0.002
-526.018	-133.809	0.376	-0.047
-525.004	-179.592	0.053	-0.001
-523.989	75.717	-0.151	0.162
-522.975	61.721	-0.112	-0.113
-521.960	-126.794	-0.229	0.034
-520.945	-68.233	0.085	-0.034
-519.931	-35.684	0.123	-0.067
-518.916	-200.000	-0.019	-0.250
-517.902	428.866	-0.120	0.264
-516.887	-200.000	-0.014	0.261
-515.872	144.454	0.102	-0.137
-514.858	-91.415	0.069	0.020
-513.843	-58.091	-0.194	0.086
-512.829	-200.000	0.016	0.108
-511.814	-200.000	0.024	0.248
-510.799	118.399	-0.227	-0.283
-509.785	566.712	0.027	0.067
-508.770	-192.720	-0.318	-0.003
-507.756	-200.000	0.064	0.322
-506.741	-56.280	-0.122	0.055
-505.726	800.000	0.060	0.199
-504.712	92.863	0.300	-0.344
-503.697	-200.000	-0.000	-0.084
-502.683	800.000	-0.024	-0.094
-501.668	-146.912	0.277	-0.024
-500.653	-81.435	0.158	-0.053
-499.639	-200.000	0.033	0.223
-498.624	41.370	-0.296	-0.271
-497.610	800.000	-0.100	-0.292
-496.595	7.784	0.325	-0.246
-495.581	-200.000	0.025	0.189
-494.566	28.218	0.180	-0.154
-493.551	-200.000	-0.001	0.262
-492.537	18.652	-0.169	0.137
-491.522	297.546	-0.168	0.312
-490.508	-158.704	-0.363	0.021
-489.493	-200.000	0.057	0.258
-488.478	-111.426	0.350	-0.072
-487.464	216.259	0.093	0.149
-486.449	-93.054	-0.301	-0.085
-485.435	494.701	0.056	-0.131
-484.420	150.726	0.093	0.127
-483.405	64.060	0.155	0.157
-482.391	300.274	0.060	-0.112
-481.376	-200.000	-0.018	-0.216
-480.362	-200.000	-0.037	-0.391
-479.347	800.000	-0.077	0.321
-478.332	125.483	-0.120	-0.153
-477.318	561.193	-0.112	0.275
-476.303	-157.065	-0.320	0.020
-475.289	800.000	0.032	-0.096
-474.274	100.167	-0.142	-0.167
-473.259	800.000	0.064	-0.240
-472.245	-85.055	0.127	0.040
-471.230	-0.233	-0.031	-0.022
-470.216	-92.019	0.288	0.082
-469.201	143.846	0.171	0.231
-468.186	-137.368	0.097	0.011
-467.172	-200.000	-0.016	-0.225
-466.157	-140.243	0.150	-0.016
-465.143	-46.510	-0.145	-0.072
-464.128	38.293	-0.144	0.130
-463.113	11.476	0.169	-0.131
-462.099	800.000	0.041	0.180
-461.084	96.792	0.079	0.092
-460.070	81.728	0.219	-0.240
-459.055	-42.744	-0.150	0.077
-458.040	-171.654	-0.307	0.010
-457.026	44.538	0.188	0.175
-456.011	677.133	0.097	0.255
-454.997	-200.000	0.085	0.514
-453.982	262.430	0.098	-0.172
-452.968	94.732	-0.163	0.187
-451.953	-200.000	0.053	0.244
-450.938	-200.000	0.023	0.202
-449.924	-138.350	-0.240	-0.027
-448.909	16.099	0.071	0.056
-447.895	800.000	-0.070	0.282
-446.880	40.031	-0.248	-0.225
-445.865	800.000	0.052	-0.153
-444.851	-32.986	-0.005	0.003
-443.836	800.000	-0.067	-0.247
-442.822	218.003	0.236	-0.381
-441.807	1.754	-0.142	-0.104
-440.792	-89.159	-0.162	-0.048
-439.778	195.408	-0.114	-0.174
-438.763	-95.435	-0.260	0.071
-437.749	119.520	-0.107	-0.134
-436.734	348.617	0.101	0.200
-435.719	800.000	0.023	0.069
-434.705	-119.783	-0.121	-0.021
-433.690	800.000	-0.017	0.054
-432.676	-131.673	0.047	0.006
-431.661	-194.754	0.093	-0.001
-430.646	91.368	-0.146	0.166
-429.632	-145.136	-0.058	0.005
-428.617	325.348	-0.091	-0.176
-427.603	-125.668	0.350	0.053
-426.588	469.769	-0.070	-0.160
-425.573	188.345	0.230	-0.347
-424.559	-134.871	0.179	0.022
-423.544	165.465	0.144	0.205
-422.530	-20.992	0.251	-0.155
-421.515	58.487	0.137	-0.135
-420.500	-61.779	0.074	-0.031
-419.486	257.504	0.047	0.082
-418.471	28.148	0.175	0.149
-417.457	-200.000	0.045	0.210
-416.442	174.233	0.112	-0.164
-415.428	-172.805	-0.522	-0.016
-414.413	386.396	0.108	-0.226
-413.398	-200.000	-0.017	-0.467
-412.384	47.699	0.305	0.287
-411.369	485.289	0.136	0.311
-410.355	-200.000	-0.011	0.229
-409.340	-200.000	0.062	-0.324
-408.325	206.750	0.080	-0.125
-407.311	-124.567	0.220	-0.035
-406.296	-29.959	0.393	0.226
-405.282	-200.000	0.022	0.133
-404.267	48.165	-0.153	-0.144
-403.252	-200.000	-0.049	0.402
-402.238	-112.759	-0.137	-0.028
-401.223	-70.853	0.172	-0.065
-400.209	-107.878	-0.386	0.085
-399.194	-200.000	-0.014	-0.156
-398.179	-30.668	-0.096	0.055
-397.165	123.255	-0.070	-0.089
-396.150	42.406	0.132	-0.121
-395.136	45.011	0.153	-0.142
-394.121	-200.000	0.012	-0.279
-393.106	-99.961	0.222	-0.056
-392.092	-122.625	0.167	-0.027
-391.077	-62.079	0.265	0.112
-390.063	-97.245	0.199	-0.052
-389.048	800.000	0.046	0.191
-388.033	-200.000	-0.051	0.287
-387.019	3.016	-0.246	0.180
-386.004	-200.000	-0.020	-0.279
-384.990	98.162	0.100	0.116
-383.975	-101.819	-0.038	-0.009
-382.960	-13.025	0.081	0.053
-381.946	-116.181	0.343	-0.064
-380.931	160.506	0.156	0.219
-379.917	-200.000	-0.046	0.424
-378.902	-69.621	-0.221	-0.085
-377.888	770.178	0.043	-0.119
-376.873	-0.350	-0.228	-0.163
-375.858	68.909	0.085	-0.088
-374.844	-90.355	0.385	0.113
-373.829	-156.883	-0.348	0.022
-372.815	-77.792	0.258	-0.090
-371.800	683.752	-0.104	0.272
-370.785	-200.000	0.045	0.234
-369.771	-104.318	-0.144	-0.034
-368.756	67.259	0.127	0.130
-367.742	-80.799	0.174	0.058
-366.727	800.000	-0.073	-0.248
-365.712	33.287	0.179	-0.156
-364.698	-71.040	-0.302	-0.114
-363.683	411.590	-0.047	0.101
-362.669	260.720	0.041	0.071
-361.654	-200.000	-0.013	0.081
-360.639	-122.682	-0.267	0.044
-359.625	-76.241	-0.114	-0.041
-358.610	800.000	0.063	0.175
-357.596	30.883	-0.258	0.223
-356.581	800.000	-0.079	0.233
-355.566	-200.000	-0.104	-0.510
-354.552	8.938	0.114	-0.087
-353.537	169.341	0.247	-0.355
-352.523	-200.000	0.039	-0.232
-351.508	-8.509	0.198	-0.134
-350.493	114.905	-0.132	-0.162
-349.479	-89.844	-0.073	-0.022
-348.464	35.442	0.057	-0.050
-347.450	18.297	-0.309	-0.248
-346.435	-22.574	-0.245	-0.149
-345.420	-200.000	-0.019	0.256
-344.406	209.562	-0.059	-0.093
-343.391	-200.000	-0.053	0.289
-342.377	182.484	0.061	-0.090
-341.362	-37.214	-0.185	0.100
-340.348	136.079	-0.124	0.163
-339.333	153.282	0.067	-0.092
-338.318	-95.023	-0.259	0.070
-337.304	-66.441	0.266	0.106
-336.289	120.535	-0.043	-0.054
-335.275	-200.000	-0.015	0.099
-334.260	416.731	0.108	0.231
-333.245	94.640	0.092	-0.105
-332.231	-200.000	-0.028	-0.246
-331.216	24.028	0.209	0.174
-330.202	-200.000	0.021	0.269
-329.187	82.854	-0.169	-0.185
-328.172	4.137	-0.184	0.135
-327.158	490.664	-0.037	-0.084
-326.143	5.368	-0.121	-0.090
-325.129	51.697	0.316	-0.302
-324.114	48.285	-0.151	-0.142
-323.099	-200.000	-0.016	-0.281
-322.085	298.615	0.087	0.161
-321.070	51.366	-0.176	0.168
-320.056	-23.215	-0.149	0.090
-319.041	800.000	0.102	-0.373
-318.026	-0.583	-0.072	-0.052
-317.012	-177.238	0.070	-0.002
-315.997	-200.000	-0.021	0.106
-314.983	-144.438	0.398	0.037
-313.968	-39.766	0.390	0.205
-312.953	-103.828	-0.356	-0.084
-311.939	-200.000	-0.013	0.076
-310.924	-102.400	-0.029	-0.007
-309.910	-75.427	0.177	-0.063
-308.895	122.248	-0.108	-0.135
-307.880	218.311	0.238	-0.382
-306.866	65.105	-0.292	0.296
-305.851	217.396	0.183	-0.292
-304.837	-146.511	0.279	-0.024
-303.822	-200.000	-0.014	0.150
-302.807	-153.227	0.221	-0.016
-301.793	295.710	-0.110	0.202
-300.778	347.976	-0.137	-0.271
-299.764	391.738	-0.057	-0.119
-298.749	23.118	-0.046	-0.038
-297.735	-200.000	-0.049	0.339
-296.720	-110.294	-0.181	0.038
-295.705	-14.212	0.323	0.209
-294.691	-36.902	-0.097	0.052
-293.676	-200.000	0.001	-0.052
-292.662	-17.329	0.152	-0.096
-291.647	102.738	-0.144	0.169
-290.632	-142.367	0.157	-0.016
-289.618	77.652	0.060	-0.064
-288.603	152.594	0.170	0.233
-287.589	-42.496	-0.132	0.067
-286.574	-73.530	-0.100	0.037
-285.559	-78.998	-0.525	-0.179
-284.545	36.729	0.026	0.023
-283.530	800.000	0.045	0.135
-282.516	-200.000	-0.005	-0.112
-281.501	272.517	0.239	-0.423
-280.486	-34.342	-0.380	-0.209
-279.472	14.996	-0.022	0.017
-278.457	-5.267	-0.229	0.158
-277.443	-43.249	-0.381	0.194
-276.428	76.341	-0.160	0.170
-275.413	-200.000	-0.007	0.148
-274.399	-83.514	0.053	0.017
-273.384	96.994	0.397	-0.456
-272.370	-99.728	-0.018	-0.005
-271.355	159.398	0.030	0.042
-270.340	-200.000	-0.041	0.258
-269.326	-119.200	0.146	0.025
-268.311	-127.611	-0.472	0.069
-267.297	-200.000	0.022	-0.113
-266.282	-26.182	-0.260	-0.153
-265.267	-85.663	-0.082	0.025
-264.253	0.199	0.268	-0.192
-263.238	-33.619	-0.164	0.091
-262.224	577.718	0.097	-0.238
-261.209	-111.744	0.147	0.030
-260.195	-159.100	-0.376	-0.021
-259.180	-33.582	-0.209	0.116
-258.165	220.861	-0.045	-0.073
-257.151	-200.000	-0.005	-0.115
-256.136	172.776	0.082	-0.118
-255.122	220.353	-0.284	0.457
-254.107	167.631	0.040	-0.057
-253.092	-112.684	0.077	0.015
-252.078	131.920	0.163	-0.210
-251.063	-135.302	0.316	0.038
-250.049	153.506	-0.158	-0.217
-249.034	48.638	0.159	0.150
-248.019	138.172	-0.091	0.120
-247.005	-193.835	0.140	-0.001
-245.990	-74.824	0.292	-0.105
-244.976	-96.019	0.036	-0.009
-243.961	429.202	-0.099	-0.214
-242.946	-32.687	0.365	-0.203
-241.932	-139.221	-0.280	0.030
-240.917	475.153	-0.069	0.155
-239.903	-200.000	0.007	-0.048
-238.888	-27.052	0.195	-0.114
-237.873	-200.000	0.010	0.259
-236.859	-200.000	0.019	-0.189
-235.844	-200.000	-0.001	-0.295
-234.830	-43.642	0.189	0.096
-233.815	800.000	0.046	0.192
-232.800	-68.339	0.429	-0.167
-231.786	-200.000	0.015	-0.253
-230.771	-24.573	-0.064	-0.038
-229.757	-157.293	0.199	0.012
-228.742	-194.801	0.096	0.001
-227.727	196.033	-0.028	0.042
-226.713	-74.353	0.175	-0.063
-225.698	-4.670	-0.249	-0.172
-224.684	70.212	-0.305	-0.315
-223.669	800.000	-0.058	-0.180
-222.655	-200.000	-0.002	-0.126
-221.640	316.918	0.218	-0.412
-220.625	113.892	-0.144	-0.175
-219.611	331.739	0.072	0.140
-218.596	-120.462	-0.374	-0.064
-217.582	35.437	0.098	0.086
-216.567	-46.179	-0.259	0.128
-215.552	-94.076	0.241	0.066
-214.538	-51.107	0.106	-0.050
-213.523	43.863	-0.158	-0.145
-212.509	-88.882	-0.290	0.086
-211.494	12.153	0.126	-0.097
-210.479	-200.000	-0.028	0.335
-209.465	95.008	-0.131	-0.150
-208.450	130.543	0.147	0.188
-207.436	-200.000	0.009	-0.406
-206.421	-59.304	-0.336	0.145
-205.406	-127.071	0.388	-0.057
-204.392	-31.037	0.087	-0.049
-203.377	-200.000	-0.058	-0.267
-202.363	-103.711	-0.123	-0.029
-201.348	155.740	0.156	0.214
-200.333	61.011	-0.089	0.088
-199.319	800.000	-0.005	-0.016
-198.304	-200.000	-0.012	-0.282
-197.290	800.000	0.073	-0.258
-196.275	211.004	-0.072	-0.114
-195.260	654.808	0.100	0.256
-194.246	-200.000	0.040	-0.244
-193.231	-136.978	0.580	0.066
-192.217	561.026	0.134	0.324
-191.202	-47.413	-0.124	-0.061
-190.187	-10.230	-0.109	0.073
-189.173	-74.653	-0.187	-0.067
-188.158	-88.611	-0.260	0.077
-187.144	512.870	-0.064	0.148
-186.129	-20.185	-0.273	0.168
-185.114	-44.763	-0.188	-0.094
-184.100	25.223	0.028	-0.023
-183.085	263.628	0.034	-0.060
-182.071	-153.034	0.272	0.019
-181.056	-200.000	0.044	0.257
-180.042	-15.628	-0.145	-0.092
-179.027	-107.614	-0.104	0.023
-178.012	57.948	0.394	0.385
-176.998	384.804	0.026	0.054
-175.983	-51.353	-0.017	-0.008
-174.969	51.433	-0.058	0.055
-173.954	346.820	0.052	-0.103
-172.939	-118.760	-0.112	0.020
-171.925	-141.068	0.161	0.016
-170.910	800.000	0.155	0.453
-169.896	-87.814	0.177	-0.053
-168.881	800.000	-0.156	0.434
-167.866	8.132	-0.191	-0.143
-166.852	136.011	-0.088	-0.114
-165.837	153.403	0.277	0.379
-164.823	-103.942	-0.176	0.041
-163.808	180.729	0.188	-0.276
-162.793	-40.955	-0.163	0.084
-161.779	800.000	-0.052	0.165
-160.764	-110.368	0.246	0.051
-159.750	75.713	-0.082	-0.087
-158.735	17.818	0.295	-0.234
-157.720	114.648	-0.097	0.118
-156.706	37.670	-0.061	-0.054
-155.691	41.586	-0.172	0.156
-154.677	551.839	0.059	0.142
-153.662	-80.713	0.347	-0.115
-152.647	-128.742	0.429	-0.060
-151.633	-200.000	-0.015	0.073
-150.618	-147.175	0.400	-0.034
-149.604	-76.318	0.276	0.097
-148.589	-200.000	-0.010	-0.102
-147.574	800.000	-0.059	-0.164
-146.560	-69.008	-0.262	0.101
-145.545	249.066	-0.146	-0.247
-144.531	-25.930	0.129	0.076
-143.516	-4.594	-0.159	-0.110
-142.502	800.000	-0.013	0.048
-141.487	-26.212	-0.171	0.100
-140.472	800.000	0.065	0.247
-139.458	94.292	0.157	0.178
-138.443	-171.725	-0.414	-0.014
-137.429	-200.000	0.033	-0.484
-136.414	-44.970	0.179	0.089
-135.399	-200.000	-0.018	0.258
-134.385	65.072	-0.099	-0.100
-133.370	24.924	0.102	-0.084
-132.356	-24.496	0.309	-0.184
-131.341	98.534	0.042	-0.049
-130.326	101.133	0.232	0.269
-129.312	-36.241	-0.026	-0.014
-128.297	142.360	-0.019	-0.026
-127.283	137.218	0.243	-0.317
-126.268	-15.142	-0.137	-0.087
-125.253	-84.752	0.261	-0.082
-124.239	800.000	-0.040	0.155
-123.224	447.343	-0.116	-0.254
-122.210	245.329	0.103	0.174
-121.195	800.000	0.007	0.022
-120.180	-156.780	0.218	0.013
-119.166	-1.843	0.144	-0.101
-118.151	-200.000	-0.075	-0.347
-117.137	-200.000	-0.046	0.360
-116.122	-81.557	0.099	0.032
-115.107	-75.382	-0.135	-0.048
-114.093	44.435	0.077	0.070
-113.078	-1.500	-0.110	0.078
-112.064	509.516	0.072	0.167
-111.049	266.037	0.018	-0.031
-110.034	-62.299	0.218	-0.090
-109.020	393.000	0.143	-0.296
-108.005	-165.104	-0.276	0.012
-106.991	-35.945	0.174	-0.094
-105.976	-200.000	-0.015	0.292
-104.962	137.976	0.147	0.192
-103.947	-28.617	0.118	0.068
-102.932	-200.000	0.046	-0.310
-101.918	-53.893	0.216	-0.098
-100.903	800.000	0.085	0.354
-99.889	7.707	0.121	0.090
-98.874	-130.719	-0.143	-0.019
-97.859	-200.000	0.049	-0.308
-96.845	688.975	0.134	-0.350
-95.830	-47.885	-0.151	-0.073
-94.816	-97.075	0.394	-0.103
-93.801	-200.000	0.013	0.393
-92.786	599.448	0.146	0.361
-91.772	800.000	-0.039	0.157
-90.757	60.513	-0.201	0.199
-89.743	-116.696	0.037	0.007
-88.728	667.132	0.130	-0.335
-87.713	-89.857	0.163	-0.047
-86.699	-87.356	0.462	-0.140
-85.684	86.899	0.123	-0.135
-84.670	-53.025	0.210	-0.096
-83.655	114.533	-0.177	-0.215
-82.640	-63.042	0.398	-0.164
-81.626	-200.000	0.049	-0.314
-80.611	6.588	-0.135	-0.100
-79.597	297.503	-0.042	-0.077
-78.582	390.890	-0.163	-0.337
-77.567	-131.013	0.364	-0.048
-76.553	67.648	-0.229	-0.233
-75.538	800.000	0.033	-0.139
-74.524	-6.671	0.104	-0.071
-73.509	-200.000	0.057	-0.265
-72.494	-103.496	-0.373	0.087
-71.480	62.769	-0.051	-0.051
-70.465	-48.067	0.250	-0.120
-69.451	227.179	0.194	-0.314
-68.436	800.000	-0.049	-0.178
-67.422	-54.190	-0.309	-0.140
-66.407	132.393	0.058	0.074
-65.392	-46.481	-0.075	-0.037
-64.378	410.981	0.050	-0.105
-63.363	98.515	-0.142	-0.163
-62.349	-56.252	-0.091	-0.040
-61.334	25.747	-0.903	-0.748
-60.319	99.363	0.116	-0.134
-59.305	-200.000	-0.098	-0.659
-58.290	22.822	0.944	0.770
-57.276	800.000	0.402	1.628
-56.261	-200.000	75.645	511.946
-55.246	534.135	1320.756	3113.826
-54.232	143.575	2580.758	3419.895
-53.217	109.682	2370.473	2826.820
-52.203	50.152	1984.209	1863.724
-51.188	44.199	1770.244	1615.497
-50.173	41.305	1724.340	1551.060
-49.159	55.255	1758.361	1691.255
-48.144	60.757	1777.143	1752.345
-47.130	44.046	1740.772	1587.153
-46.115	40.901	1726.988	1550.045
-45.100	40.856	1721.892	1545.067
-44.086	40.747	1719.614	1542.115
-43.071	40.733	1717.305	1539.871
-42.057	40.757	1714.480	1537.462
-41.042	40.754	1712.600	1535.691
-40.027	40.831	1710.500	1534.344
-39.013	40.678	1708.698	1531.489
-37.998	40.758	1707.074	1530.588
-36.984	40.723	1705.878	1529.185
-35.969	40.847	1704.271	1528.635
-34.954	41.009	1702.150	1527.915
-33.940	40.841	1700.204	1524.825
-32.925	40.803	1698.398	1522.850
-31.911	40.929	1696.902	1522.415
-30.896	40.861	1695.266	1520.362
-29.881	40.857	1693.184	1518.404
-28.867	40.906	1691.067	1516.818
-27.852	40.939	1690.003	1516.058
-26.838	40.884	1688.353	1514.100
-25.823	40.937	1686.698	1512.958
-24.809	40.852	1685.722	1511.377
-23.794	40.954	1684.217	1510.746
-22.779	40.973	1682.668	1509.439
-21.765	40.942	1680.617	1507.306
-20.750	40.952	1678.910	1505.788
-19.736	40.918	1677.780	1504.458
-18.721	40.964	1676.172	1503.304
-17.706	40.868	1675.158	1501.608
-16.692	40.975	1672.945	1500.375
-15.677	40.796	1672.057	1498.168
-14.663	40.878	1670.557	1497.382
-13.648	40.845	1669.007	1495.684
-12.633	40.822	1667.827	1494.397
-11.619	40.881	1666.151	1493.274
-10.604	40.889	1663.970	1491.325
-9.590	40.897	1662.652	1490.141
-8.575	40.907	1661.428	1489.063
-7.560	40.910	1660.035	1487.778
-6.546	40.969	1658.509	1486.793
-5.531	40.850	1657.797	1485.203
-4.517	40.909	1656.685	1484.586
-3.502	40.904	1655.558	1483.482
-2.487	40.938	1653.976	1482.261
-1.473	41.002	1643.319	1473.125
-0.458	38.999	1623.793	1440.882
0.556	33.473	1623.750	1407.305
1.571	30.786	1647.663	1407.618
2.586	29.947	1661.936	1413.284
3.600	25.868	1606.228	1335.629
4.615	13.580	1482.962	1148.377
5.629	2.439	1406.793	1015.688
6.644	0.366	1396.501	994.507
7.659	0.193	1394.869	992.117
8.673	0.209	1393.241	990.974
9.688	0.142	1391.818	989.432
10.702	-0.186	1389.129	985.280
11.717	3.580	1397.709	1016.111
12.731	14.904	1419.013	1106.842
13.746	22.627	1433.172	1169.216
14.761	23.391	1433.443	1174.400
15.775	23.616	1432.485	1174.999
16.790	23.590	1432.215	1174.504
17.804	23.601	1431.479	1173.870
18.819	23.840	1431.411	1175.291
19.834	23.930	1430.460	1175.000
20.848	23.933	1429.583	1174.191
21.863	23.998	1428.289	1173.455
22.877	23.896	1427.855	1172.321
23.892	23.884	1426.901	1171.355
24.907	23.875	1425.900	1170.375
25.921	23.873	1425.090	1169.594
26.936	23.989	1423.904	1169.274
27.950	23.942	1422.663	1167.847
28.965	23.913	1421.635	1166.707
29.980	23.828	1420.634	1165.227
30.994	23.871	1418.890	1163.971
32.009	23.891	1417.923	1163.205
33.023	23.906	1416.890	1162.357
34.038	23.916	1415.392	1161.088
35.053	23.831	1414.431	1159.643
36.067	24.045	1413.360	1160.061
37.082	23.981	1412.316	1158.678
38.096	23.962	1411.337	1157.650
39.111	23.932	1410.966	1157.050
40.126	23.758	1410.395	1155.351
41.140	23.937	1409.442	1155.631
42.155	23.897	1408.825	1154.762
43.169	23.877	1409.498	1155.080
44.184	23.855	1409.022	1154.442
45.199	23.897	1408.278	1154.004
46.213	23.989	1407.516	1153.873
47.228	23.951	1406.521	1152.710
48.242	23.996	1404.975	1151.636
49.257	23.927	1403.978	1150.270
50.271	23.892	1402.587	1148.803
51.286	23.842	1401.121	1147.179
52.301	23.967	1399.568	1146.607
53.315	23.978	1398.991	1146.106
54.330	23.939	1398.076	1145.000
55.344	23.940	1397.122	1144.126
56.359	23.976	1395.864	1143.228
57.374	23.826	1395.194	1141.614
58.388	23.846	1394.961	1141.449
59.403	23.802	1394.227	1140.465
60.417	23.899	1393.258	1140.196
61.432	23.899	1392.784	1139.706
62.447	23.953	1392.061	1139.361
63.461	23.940	1390.705	1138.064
64.476	23.903	1389.689	1136.895
65.490	23.977	1388.049	1135.930
66.505	23.973	1386.430	1134.479
67.520	23.984	1385.518	1133.700
68.534	23.939	1384.470	1132.459
69.549	23.994	1383.203	1131.670
70.563	23.900	1382.645	1130.514
71.578	24.007	1381.495	1130.152
72.593	23.862	1381.141	1128.842
73.607	23.959	1380.405	1128.760
74.622	23.834	1379.641	1127.244
75.636	23.904	1378.814	1126.910
76.651	23.865	1377.861	1125.785
77.666	23.916	1377.443	1125.663
78.680	23.887	1376.833	1124.884
79.695	23.969	1375.530	1124.236
80.709	23.984	1374.908	1123.721
81.724	23.918	1374.271	1122.690
82.739	23.917	1372.895	1121.455
83.753	23.885	1372.130	1120.535
84.768	24.000	1371.107	1120.325
85.782	23.891	1370.031	1118.657
86.797	23.951	1368.990	1118.084
87.812	23.896	1367.734	1116.616
88.826	24.087	1366.030	1116.322
89.841	23.928	1365.479	1114.778
90.855	23.952	1364.308	1113.872
91.870	24.004	1363.480	1113.425
92.884	24.074	1362.630	1113.072
93.899	23.967	1361.673	1111.517
94.914	24.009	1361.010	1111.146
95.928	23.887	1360.419	1109.799
96.943	24.028	1359.462	1109.804
97.957	23.847	1359.293	1108.437
98.972	23.931	1358.084	1107.879
99.987	24.000	1357.049	1107.365
101.001	23.878	1355.942	1105.602
102.016	23.964	1354.763	1105.076
103.030	23.875	1354.431	1104.156
104.045	23.846	1353.954	1103.490
105.060	24.008	1352.239	1102.998
106.074	24.010	1351.275	1102.130
107.089	24.016	1350.155	1101.152
108.103	24.055	1349.283	1100.585
109.118	24.065	1347.739	1099.293
110.133	24.098	1346.691	1098.546
111.147	24.007	1345.402	1096.830
112.162	24.069	1344.370	1096.277
113.176	24.165	1343.123	1095.756
114.191	24.007	1342.626	1094.278
115.206	24.022	1341.598	1093.436
116.220	24.076	1340.363	1092.667
117.235	23.968	1339.687	1091.354
118.249	23.919	1338.666	1090.123
119.264	23.992	1337.571	1089.584
120.279	24.074	1336.919	1089.457
121.293	24.055	1336.372	1088.801
122.308	24.142	1335.268	1088.335
123.322	24.101	1334.321	1087.217
124.337	24.115	1333.769	1086.757
125.352	24.072	1332.598	1085.445
126.366	24.214	1331.645	1085.437
127.381	24.038	1330.791	1083.572
128.395	24.087	1329.799	1082.972
129.410	24.153	1329.083	1082.692
130.424	24.128	1328.382	1081.871
131.439	24.053	1328.048	1081.047
132.454	24.079	1326.451	1079.811
133.468	24.134	1325.932	1079.628
134.483	24.116	1325.196	1078.821
135.497	24.061	1324.833	1078.102
136.512	24.120	1323.234	1077.061
137.527	24.143	1322.069	1076.153
138.541	24.166	1320.799	1075.163
139.556	24.138	1319.859	1074.136
140.570	24.049	1318.869	1072.698
141.585	24.163	1317.648	1072.299
142.600	24.057	1316.622	1070.731
143.614	24.114	1315.769	1070.286
144.629	24.160	1314.815	1069.689
145.643	24.068	1313.245	1067.763
146.658	24.052	1313.033	1067.400
147.673	23.967	1311.424	1065.488
148.687	23.905	1310.745	1064.476
149.702	24.006	1309.363	1063.864
150.716	23.997	1308.194	1062.765
151.731	23.964	1307.555	1061.956
152.746	24.022	1306.190	1061.098
153.760	24.034	1305.155	1060.234
154.775	24.187	1303.679	1059.850
155.789	24.107	1303.129	1058.835
156.804	24.127	1302.074	1058.002
157.819	24.117	1301.259	1057.187
158.833	24.073	1300.745	1056.413
159.848	24.120	1300.199	1056.159
160.862	24.117	1299.077	1055.135
161.877	24.112	1298.079	1054.202
162.892	24.102	1297.333	1053.442
163.906	24.075	1296.689	1052.666
164.921	24.050	1295.840	1051.736
165.935	24.125	1294.591	1051.072
166.950	24.091	1294.412	1050.635
167.964	24.180	1293.235	1050.109
168.979	24.196	1292.982	1049.905
169.994	24.107	1292.378	1048.797
171.008	24.110	1291.681	1048.159
172.023	24.272	1291.043	1048.501
173.037	24.218	1290.178	1047.386
174.052	24.178	1289.569	1046.566
175.067	24.234	1288.472	1045.913
176.081	24.197	1287.875	1045.114
177.096	24.125	1286.798	1043.726
178.110	24.237	1286.105	1043.729
179.125	24.242	1284.755	1042.570
180.140	24.184	1284.203	1041.694
181.154	24.177	1283.370	1040.883
182.169	24.264	1281.379	1039.684
183.183	24.072	1280.882	1038.071
184.198	24.128	1279.657	1037.309
185.213	24.190	1278.844	1036.919
186.227	24.283	1277.506	1036.282
187.242	24.222	1276.926	1035.367
188.256	24.279	1276.343	1035.136
189.271	24.216	1275.448	1033.952
190.286	24.319	1274.214	1033.454
191.300	24.307	1273.527	1032.741
192.315	24.187	1273.583	1031.998
193.329	24.089	1273.246	1031.065
194.344	24.278	1272.590	1031.539
195.359	24.287	1271.748	1030.814
196.373	24.237	1271.621	1030.331
197.388	24.073	1271.096	1028.869
198.402	24.187	1270.728	1029.138
199.417	24.173	1269.946	1028.331
200.432	24.196	1270.146	1028.535
201.446	24.259	1269.421	1028.222
202.461	24.242	1268.315	1027.136
203.475	24.361	1267.454	1027.035
204.490	24.237	1266.302	1025.296
205.504	24.268	1265.172	1024.469
206.519	24.292	1264.257	1023.774
207.534	24.262	1263.616	1022.990
208.548	24.346	1262.485	1022.470
209.563	24.273	1261.892	1021.479
210.577	24.289	1260.687	1020.505
211.592	24.320	1260.028	1020.056
212.607	24.361	1259.248	1019.571
213.621	24.425	1258.786	1019.474
214.636	24.442	1257.729	1018.623
215.650	24.369	1256.721	1017.298
216.665	24.371	1256.053	1016.682
217.680	24.366	1255.253	1015.918
218.694	24.348	1254.314	1014.961
219.709	24.299	1253.704	1014.099
220.723	24.448	1252.902	1014.207
221.738	24.395	1252.406	1013.414
222.753	24.344	1251.411	1012.230
223.767	24.361	1250.763	1011.716
224.782	24.403	1250.216	1011.419
225.796	24.440	1249.911	1011.293
226.811	24.590	1248.692	1011.066
227.826	24.461	1248.505	1010.095
228.840	24.411	1248.299	1009.559
229.855	24.456	1247.223	1008.854
230.869	24.429	1246.226	1007.802
231.884	24.453	1245.632	1007.372
232.899	24.519	1244.494	1006.734
233.913	24.411	1244.612	1006.132
234.928	24.621	1243.890	1006.639
235.942	24.482	1243.560	1005.505
236.957	24.592	1242.302	1005.013
237.972	24.501	1241.566	1003.821
238.986	24.477	1241.183	1003.284
240.001	24.581	1240.688	1003.380
241.015	24.559	1239.580	1002.274
242.030	24.672	1238.814	1002.198
243.045	24.623	1238.220	1001.355
244.059	24.773	1237.316	1001.376
245.074	24.668	1236.485	1000.027
246.088	24.607	1235.925	999.143
247.103	24.639	1235.163	998.618
248.117	24.586	1234.355	997.578
249.132	24.639	1233.718	997.272
250.147	24.778	1232.617	997.068
251.161	24.729	1232.021	996.228
252.176	24.712	1231.211	995.391
253.190	24.772	1230.463	995.031
254.205	24.751	1229.865	994.343
255.220	24.743	1229.162	993.639
256.234	24.784	1228.616	993.338
257.249	24.720	1228.019	992.413
258.263	24.712	1227.561	991.912
259.278	24.893	1227.044	992.410
260.293	24.836	1226.428	991.504
261.307	24.833	1225.916	990.990
262.322	24.855	1225.097	990.363
263.336	24.780	1224.286	989.203
264.351	24.778	1224.000	988.875
265.366	24.743	1223.420	988.124
266.380	24.902	1222.431	988.113
267.395	24.848	1221.633	987.086
268.409	24.806	1221.653	986.779
269.424	24.887	1220.613	986.302
270.439	24.876	1220.275	985.879
271.453	24.686	1220.130	984.631
272.468	24.784	1218.787	983.996
273.482	24.779	1217.908	983.172
274.497	24.763	1217.684	982.817
275.512	24.932	1216.994	983.099
276.526	24.854	1216.483	982.173
277.541	24.915	1215.381	981.528
278.555	24.873	1215.008	980.913
279.570	24.900	1214.302	980.404
280.585	24.876	1213.332	979.403
281.599	24.913	1212.424	978.785
282.614	24.846	1212.025	978.008
283.628	25.071	1210.346	977.798
284.643	24.909	1209.729	976.328
285.657	24.895	1208.737	975.363
286.672	24.954	1208.191	975.162
287.687	25.038	1207.130	974.673
288.701	25.003	1206.571	973.947
289.716	25.013	1205.790	973.285
290.730	24.852	1205.360	971.977
291.745	24.933	1204.678	971.778
292.760	24.979	1204.040	971.426
293.774	25.130	1203.254	971.528
294.789	25.054	1202.944	970.780
295.803	24.983	1202.867	970.249
296.818	25.003	1201.866	969.463
297.833	24.976	1201.033	968.559
298.847	25.070	1200.180	968.289
299.862	25.097	1199.308	967.647
300.876	25.109	1198.646	967.093
301.891	25.083	1198.459	966.715
302.906	25.141	1197.603	966.251
303.920	25.132	1196.846	965.507
304.935	25.271	1196.305	965.736
305.949	25.133	1195.464	964.231
306.964	25.262	1194.917	964.393
307.979	25.270	1194.124	963.712
308.993	25.231	1193.701	963.076
310.008	25.275	1192.636	962.365
311.022	25.246	1191.921	961.553
312.037	25.271	1191.053	960.898
313.052	25.196	1190.326	959.826
314.066	25.292	1189.331	959.451
315.081	25.207	1188.969	958.619
316.095	25.293	1188.041	958.246
317.110	25.302	1187.318	957.626
318.125	25.343	1186.817	957.359
319.139	25.262	1186.459	956.553
320.154	25.359	1185.667	956.344
321.168	25.275	1185.061	955.327
322.183	25.243	1184.375	954.518
323.197	25.280	1183.785	954.154
324.212	25.209	1183.499	953.462
325.227	25.338	1182.840	953.533
326.241	25.420	1182.128	953.309
327.256	25.367	1181.693	952.592
328.270	25.275	1180.867	951.355
329.285	25.342	1179.992	950.922
330.300	25.394	1178.935	950.258
331.314	25.347	1178.475	949.558
332.329	25.337	1177.410	948.562
333.343	25.412	1176.821	948.397
334.358	25.496	1175.820	947.953
335.373	25.437	1175.128	946.998
336.387	25.490	1174.581	946.755
337.402	25.522	1173.807	946.215
338.416	25.544	1173.259	945.805
339.431	25.662	1172.477	945.707
340.446	25.521	1171.729	944.280
341.460	25.576	1171.117	943.992
342.475	25.635	1170.261	943.529
343.489	25.670	1169.353	942.895
344.504	25.468	1168.570	941.123
345.519	25.708	1167.159	941.159
346.533	25.720	1166.384	940.513
347.548	25.625	1166.241	939.819
348.562	25.570	1165.650	938.975
349.577	25.616	1164.926	938.549
350.592	25.710	1163.709	937.971
351.606	25.548	1163.600	936.961
352.621	25.553	1163.122	936.519
353.635	25.551	1162.343	935.796
354.650	25.659	1161.523	935.613
355.665	25.717	1160.962	935.382
356.679	25.707	1160.342	934.745
357.694	25.904	1159.571	935.068
358.708	25.762	1158.737	933.575
359.723	25.695	1158.034	932.579
360.738	25.685	1157.577	932.076
361.752	25.812	1156.845	932.060
362.767	25.749	1156.530	931.399
363.781	25.775	1156.071	931.079
364.796	25.834	1155.330	930.709
365.810	25.820	1154.946	930.241
366.825	25.922	1153.850	929.802
367.840	25.819	1153.792	929.142
368.854	25.861	1152.855	928.526
369.869	25.942	1152.133	928.276
370.883	25.792	1151.568	926.969
371.898	25.772	1150.987	926.313
372.913	25.783	1150.338	925.765
373.927	25.915	1149.633	925.798
374.942	26.001	1148.895	925.560
375.956	25.943	1148.808	925.114
376.971	25.811	1148.376	924.007
377.986	25.819	1147.753	923.464
379.000	26.028	1146.882	923.752
380.015	26.009	1146.729	923.451
381.029	26.096	1145.609	922.912
382.044	26.018	1145.022	921.956
383.059	26.081	1144.106	921.460
384.073	25.984	1143.583	920.460
385.088	25.948	1142.628	919.426
386.102	26.043	1142.117	919.419
387.117	25.972	1141.203	918.241
388.132	26.016	1140.406	917.741
389.146	26.021	1139.681	917.101
390.161	26.091	1138.904	916.750
391.175	26.101	1138.283	916.223
392.190	25.973	1137.940	915.214
393.205	26.062	1136.896	914.745
394.219	26.053	1136.185	914.044
395.234	26.188	1135.368	913.991
396.248	26.256	1134.166	913.289
397.263	26.290	1133.291	912.675
398.278	26.221	1132.965	911.981
399.292	26.199	1132.221	911.190
400.307	26.311	1131.468	911.071
401.321	26.246	1131.100	910.366
402.336	26.297	1130.306	909.901
403.350	26.231	1129.819	909.098
404.365	26.256	1128.954	908.448
405.380	26.347	1128.405	908.381
406.394	26.285	1127.687	907.411
407.409	26.305	1127.040	906.911
408.423	26.159	1126.429	905.606
409.438	26.340	1125.367	905.582
410.453	26.423	1124.418	905.153
411.467	26.437	1123.602	904.487
412.482	26.384	1123.326	903.917
413.496	26.463	1122.320	903.421
414.511	26.419	1121.670	902.602
415.526	26.320	1121.643	902.004
416.540	26.395	1120.970	901.757
417.555	26.412	1120.774	901.605
418.569	26.422	1120.297	901.189
419.584	26.516	1119.241	900.730
420.599	26.475	1119.005	900.255
421.613	85.325	1299.345	1371.821
422.628	80.261	1325.607	1371.940
