DTS Sentinel unit serial number:	SN413079Multiplexer serial number:	ORYXHardware model number:	OX4-SRSoftware version number:	ORYX F/W v4.00 Oryx Data Collector v3.7.2.0data status	okinstallation	princeton_trtdifferential loss correction	single-endedforward channel	channel 2reverse channel	N/Adate	2019/09/11time	19:05:11forward acquisition time	60.00reverse acquisition time	0.00gamma	496.2192k internal	0.2297k external	0.2297temperature offset calibration	1.0039default loss term (dB/km)	0.3790temperature slope calibration	1.0000multiplexer offset coefficient	1.0000multiplexer slope coefficient	1.0000fibre end	0.00T internal ref (°C)	42.00T ext. ref 1 (°C)	1.27T ext. ref 2 (°C)	34.29length (m)	temperature (°C)	Stokes	anti-Stokes-747.200	-139.362	0.055	0.006
-746.185	800.000	0.118	0.381
-745.171	-134.697	0.207	0.026
-744.156	-200.000	0.031	0.349
-743.142	402.333	0.213	0.457
-742.127	-109.756	-0.406	0.087
-741.112	-5.856	0.237	-0.166
-740.098	343.045	-0.156	0.313
-739.083	-46.308	-0.060	-0.030
-738.069	-200.000	0.022	0.194
-737.054	-108.439	-0.164	0.036
-736.039	362.373	0.085	-0.174
-735.025	800.000	-0.033	0.139
-734.010	-65.050	-0.172	-0.071
-732.996	-67.921	-0.199	-0.079
-731.981	-125.791	-0.164	-0.025
-730.966	166.321	-0.204	0.294
-729.952	-113.040	-0.658	-0.133
-728.937	-49.100	-0.129	-0.063
-727.923	800.000	-0.112	-0.347
-726.908	-122.059	0.098	0.016
-725.894	-108.003	-0.325	0.072
-724.879	-200.000	-0.011	-0.644
-723.864	-39.020	0.036	-0.019
-722.850	-200.000	0.036	-0.238
-721.835	-200.000	0.025	0.133
-720.821	-36.596	-0.074	-0.041
-719.806	800.000	0.068	-0.220
-718.791	800.000	-0.049	-0.169
-717.777	82.023	-0.174	0.193
-716.762	-148.652	-0.122	-0.010
-715.748	94.837	0.010	0.012
-714.733	-200.000	0.188	0.000
-713.718	2.620	0.209	0.154
-712.704	800.000	-0.034	-0.108
-711.689	-200.000	-0.025	-0.149
-710.675	-115.209	-0.228	-0.044
-709.660	-200.000	0.101	-0.482
-708.645	24.164	0.249	-0.210
-707.631	-108.777	-0.095	0.021
-706.616	746.214	0.038	-0.104
-705.602	155.075	-0.151	-0.212
-704.587	-200.000	0.003	-0.076
-703.572	-80.291	0.278	-0.095
-702.558	-59.983	-0.377	0.164
-701.543	-2.412	-0.337	-0.241
-700.529	800.000	0.058	-0.238
-699.514	-123.250	-0.239	-0.039
-698.499	328.876	-0.080	0.157
-697.485	-105.883	0.212	0.049
-696.470	-167.227	-0.333	-0.014
-695.456	-200.000	-0.016	0.214
-694.441	-71.979	0.280	0.106
-693.426	-56.979	0.149	-0.067
-692.412	-200.000	-0.011	0.167
-691.397	-28.031	0.041	-0.024
-690.383	-102.662	-0.066	0.016
-689.368	-39.211	0.098	-0.053
-688.354	-137.674	-0.278	0.032
-687.339	152.008	-0.167	0.232
-686.324	-16.517	-0.086	-0.055
-685.310	81.878	-0.099	-0.109
-684.295	-200.000	0.001	-0.139
-683.281	-76.359	0.099	0.035
-682.266	159.631	-0.258	-0.366
-681.251	102.325	-0.118	-0.141
-680.237	97.479	0.056	-0.065
-679.222	-13.675	0.126	0.083
-678.208	-200.000	0.051	0.332
-677.193	201.454	0.204	-0.320
-676.178	52.213	0.269	-0.261
-675.164	-149.506	-0.333	0.027
-674.149	-200.000	-0.026	0.132
-673.135	-130.070	0.092	0.013
-672.120	-155.285	-0.313	0.021
-671.105	550.593	-0.072	0.177
-670.091	233.174	-0.036	-0.060
-669.076	296.891	-0.085	0.158
-668.062	-67.931	-0.229	0.091
-667.047	-70.650	-0.248	0.095
-666.032	-70.910	-0.131	-0.050
-665.018	-200.000	0.004	-0.052
-664.003	800.000	-0.096	-0.278
-662.989	-50.397	-0.305	0.147
-661.974	128.204	0.112	-0.145
-660.959	-165.449	-0.216	-0.010
-659.945	800.000	0.108	-0.324
-658.930	-139.595	0.305	-0.033
-657.916	-47.293	0.303	-0.150
-656.901	800.000	0.141	-0.407
-655.886	-68.382	0.148	0.058
-654.872	800.000	0.135	-0.479
-653.857	-200.000	-0.002	-0.120
-652.843	-94.736	-0.181	0.050
-651.828	27.977	-0.225	0.193
-650.814	-200.000	-0.005	-0.222
-649.799	-64.145	-0.199	0.083
-648.784	-200.000	0.009	0.043
-647.770	-193.325	-0.276	0.002
-646.755	-200.000	-0.301	0.000
-645.741	229.869	-0.081	-0.135
-644.726	216.657	0.136	-0.221
-643.711	-200.000	0.024	-0.202
-642.697	244.117	0.156	-0.267
-641.682	-200.000	-0.037	0.267
-640.668	42.075	0.285	-0.263
-639.653	800.000	-0.081	-0.241
-638.638	110.300	-0.199	-0.243
-637.624	800.000	-0.041	0.145
-636.609	523.735	-0.106	0.254
-635.595	-200.000	0.025	-0.224
-634.580	453.148	0.084	0.190
-633.565	-200.000	-0.000	-0.081
-632.551	341.517	-0.052	-0.102
-631.536	126.328	-0.050	0.065
-630.522	375.390	-0.156	0.324
-629.507	8.325	0.132	-0.101
-628.492	241.899	-0.155	-0.263
-627.478	-103.522	0.231	0.055
-626.463	-16.524	-0.289	0.186
-625.449	-44.567	-0.180	0.091
-624.434	-4.776	0.067	0.047
-623.419	-122.239	-0.377	-0.063
-622.405	-25.359	-0.101	-0.061
-621.390	-18.546	0.291	0.185
-620.376	-200.000	0.008	-0.056
-619.361	669.162	-0.114	0.299
-618.346	33.784	-0.126	-0.111
-617.332	-127.318	-0.113	0.017
-616.317	190.905	-0.111	-0.169
-615.303	134.818	0.129	-0.170
-614.288	-13.066	-0.091	0.060
-613.273	112.452	-0.228	-0.281
-612.259	174.745	-0.140	0.206
-611.244	175.280	0.227	0.334
-610.230	376.942	0.161	0.334
-609.215	-200.000	-0.022	0.112
-608.201	-7.180	0.287	0.198
-607.186	-126.941	-0.147	-0.022
-606.171	-32.789	0.073	0.041
-605.157	-1.911	0.201	-0.144
-604.142	21.948	-0.262	-0.217
-603.128	-147.756	0.105	-0.009
-602.113	-27.385	-0.404	0.239
-601.098	-37.798	0.019	-0.010
-600.084	-200.000	0.032	0.491
-599.069	319.537	-0.109	-0.210
-598.055	-94.004	0.204	0.057
-597.040	-121.891	0.021	0.003
-596.025	800.000	-0.109	-0.401
-595.011	-75.420	0.139	0.050
-593.996	-147.462	0.284	0.024
-592.982	-47.495	0.074	0.037
-591.967	800.000	0.087	-0.321
-590.952	-200.000	-0.027	0.192
-589.938	230.221	-0.180	-0.299
-588.923	279.378	-0.082	0.149
-587.909	800.000	-0.200	0.594
-586.894	-46.445	-0.100	0.050
-585.879	60.280	0.217	-0.218
-584.865	-82.780	-0.254	0.083
-583.850	123.659	0.158	-0.202
-582.836	-139.329	0.157	-0.017
-581.821	-73.601	0.094	0.035
-580.806	136.282	-0.068	0.089
-579.792	-30.740	-0.112	0.064
-578.777	-68.807	0.229	-0.090
-577.763	114.585	-0.044	-0.054
-576.748	-94.309	-0.118	0.033
-575.733	800.000	-0.033	0.137
-574.719	-200.000	-0.031	-0.274
-573.704	21.574	0.097	0.080
-572.690	230.877	0.058	0.096
-571.675	177.032	0.146	-0.216
-570.661	-45.923	0.442	-0.221
-569.646	12.267	-0.433	0.339
-568.631	-13.427	0.206	-0.135
-567.617	19.886	0.046	-0.038
-566.602	699.257	-0.127	0.339
-565.588	-145.533	-0.135	0.012
-564.573	800.000	0.104	-0.299
-563.558	-74.215	-0.091	-0.033
-562.544	186.294	0.133	0.201
-561.529	94.987	-0.122	0.141
-560.515	183.843	0.022	0.033
-559.500	-56.734	-0.247	-0.111
-558.485	263.263	-0.106	0.186
-557.471	-142.745	0.326	-0.032
-556.456	-86.240	-0.167	0.052
-555.442	-200.000	-0.001	-0.077
-554.427	347.561	-0.256	0.511
-553.412	-200.000	0.009	-0.341
-552.398	14.047	-0.153	-0.121
-551.383	800.000	0.081	-0.340
-550.369	-102.607	0.156	0.038
-549.354	-200.000	-0.051	-0.304
-548.339	800.000	-0.064	0.244
-547.325	-200.000	-0.003	-0.173
-546.310	-104.679	-0.362	0.085
-545.296	90.787	-0.146	0.166
-544.281	-200.000	-0.020	-0.156
-543.266	-20.447	0.036	0.022
-542.252	-64.014	0.121	-0.050
-541.237	-5.313	-0.074	0.051
-540.223	420.485	-0.085	-0.184
-539.208	82.156	0.045	-0.050
-538.193	-200.000	-0.029	-0.138
-537.179	-7.481	-0.186	-0.128
-536.164	-73.410	-0.389	-0.144
-535.150	61.043	0.033	0.033
-534.135	410.094	-0.158	-0.340
-533.121	-200.000	0.001	-0.184
-532.106	-200.000	-0.005	-0.335
-531.091	11.785	0.124	-0.097
-530.077	742.590	0.070	0.190
-529.062	2.142	-0.089	0.065
-528.048	10.827	0.144	-0.111
-527.033	-100.730	0.496	0.124
-526.018	-24.463	0.309	-0.186
-525.004	-56.020	0.186	0.084
-523.989	104.456	-0.246	-0.293
-522.975	670.142	-0.089	0.233
-521.960	-146.308	-0.186	-0.017
-520.945	-138.267	0.258	-0.029
-519.931	800.000	0.031	0.102
-518.916	-14.341	0.156	-0.102
-517.902	-49.285	-0.314	-0.152
-516.887	327.216	-0.081	0.156
-515.872	69.849	0.226	-0.236
-514.858	-200.000	-0.004	-0.025
-513.843	-32.224	0.092	0.052
-512.829	800.000	0.087	0.335
-511.814	93.705	-0.222	0.254
-510.799	40.101	-0.281	-0.256
-509.785	50.839	0.044	-0.042
-508.770	15.583	-0.272	-0.217
-507.756	6.373	-0.111	-0.084
-506.741	110.408	0.254	0.308
-505.726	8.508	-0.183	0.139
-504.712	138.676	-0.142	0.189
-503.697	-57.470	-0.298	0.132
-502.683	400.243	0.083	0.177
-501.668	23.805	0.202	-0.168
-500.653	459.714	0.045	-0.102
-499.639	79.652	-0.182	0.197
-498.624	-140.659	-0.517	0.054
-497.610	2.493	-0.040	-0.030
-496.595	-104.041	0.236	0.056
-495.581	-50.052	0.049	-0.024
-494.566	-13.223	-0.332	0.218
-493.551	-120.450	0.166	-0.029
-492.537	-200.000	0.032	0.204
-491.522	-200.000	-0.067	-0.328
-490.508	-116.901	0.534	0.099
-489.493	209.414	-0.027	-0.043
-488.478	-200.000	0.001	0.180
-487.464	-90.606	0.280	0.082
-486.449	-200.000	0.006	0.179
-485.435	800.000	-0.030	-0.086
-484.420	38.359	-0.105	0.094
-483.405	-28.785	0.098	0.057
-482.391	-200.000	0.007	-0.331
-481.376	-68.572	0.200	-0.078
-480.362	128.492	-0.165	-0.212
-479.347	488.903	-0.030	0.070
-478.332	-60.467	-0.180	0.077
-477.318	-177.886	-0.174	-0.004
-476.303	30.776	-0.193	-0.167
-475.289	-135.747	0.087	0.010
-474.274	-87.863	-0.134	0.041
-473.259	-182.593	0.213	-0.004
-472.245	-164.431	0.189	-0.009
-471.230	55.367	0.307	-0.300
-470.216	-200.000	-0.011	-0.131
-469.201	-159.443	-0.093	-0.005
-468.186	-200.000	-0.010	-0.093
-467.172	13.014	0.052	-0.041
-466.157	75.171	0.228	-0.243
-465.143	800.000	0.086	0.260
-464.128	26.401	0.183	-0.155
-463.113	0.730	-0.126	0.091
-462.099	-23.924	0.006	0.004
-461.084	97.580	0.072	0.083
-460.070	105.734	-0.104	0.124
-459.055	800.000	-0.109	-0.397
-458.040	40.576	-0.276	-0.251
-457.026	-200.000	0.026	0.170
-456.011	-108.967	0.286	-0.062
-454.997	-47.712	-0.248	-0.122
-453.982	213.609	-0.119	-0.190
-452.968	-89.199	0.013	0.004
-451.953	-128.442	0.183	0.026
-450.938	-73.541	0.262	0.096
-449.924	131.173	0.163	-0.211
-448.909	-97.478	-0.146	0.038
-447.895	24.170	-0.309	0.258
-446.880	55.620	0.075	0.073
-445.865	-200.000	0.037	-0.167
-444.851	28.799	-0.185	0.158
-443.836	-200.000	-0.037	-0.234
-442.822	-200.000	-0.034	-0.218
-441.807	-200.000	0.016	-0.357
-440.792	80.805	-0.140	-0.152
-439.778	-18.869	0.174	0.110
-438.763	36.522	-0.240	0.214
-437.749	103.414	-0.221	0.262
-436.734	-13.685	0.022	-0.014
-435.719	-100.562	0.090	0.023
-434.705	800.000	-0.013	0.057
-433.690	800.000	-0.039	-0.144
-432.676	-200.000	0.012	0.110
-431.661	157.642	-0.014	-0.020
-430.646	-92.581	-0.184	-0.052
-429.632	-200.000	0.040	0.319
-428.617	778.152	-0.060	-0.164
-427.603	-200.000	-0.050	-0.349
-426.588	173.828	0.038	-0.055
-425.573	139.186	0.109	-0.145
-424.559	-153.442	0.054	-0.004
-423.544	309.362	-0.094	-0.177
-422.530	-108.962	0.160	-0.034
-421.515	800.000	-0.053	0.168
-420.500	0.039	0.113	-0.082
-419.486	-131.116	0.510	-0.069
-418.471	-178.636	0.157	0.004
-417.457	787.432	-0.125	0.345
-416.442	800.000	0.058	-0.201
-415.428	-200.000	0.032	-0.491
-414.413	143.807	-0.118	-0.159
-413.398	-137.125	-0.368	0.042
-412.384	-182.112	-0.325	0.006
-411.369	-119.872	0.211	0.037
-410.355	180.816	-0.068	0.101
-409.340	-78.995	-0.156	0.054
-408.325	-189.689	0.315	0.004
-407.311	-114.953	-0.244	-0.047
-406.296	-26.749	-0.213	-0.125
-405.282	-200.000	0.032	-0.457
-404.267	-25.525	-0.358	-0.213
-403.252	-76.024	0.132	0.047
-402.238	-200.000	-0.055	0.284
-401.223	-74.425	0.078	-0.028
-400.209	-200.000	0.058	-0.382
-399.194	29.949	-0.134	0.115
-398.179	24.678	0.145	0.121
-397.165	339.199	0.160	0.314
-396.150	-200.000	0.030	-0.259
-395.136	370.844	-0.051	-0.104
-394.121	-58.862	0.118	0.052
-393.106	-200.000	-0.028	0.204
-392.092	71.138	0.123	0.129
-391.077	344.368	0.074	-0.146
-390.063	-121.695	0.123	-0.021
-389.048	25.063	0.321	0.268
-388.033	-97.232	0.108	0.028
-387.019	800.000	0.071	0.209
-386.004	-200.000	0.122	-0.553
-384.990	-36.150	0.143	0.078
-383.975	427.610	0.196	-0.426
-382.960	123.380	-0.119	0.151
-381.946	-118.611	-0.359	0.064
-380.931	-200.000	-0.036	-0.352
-379.917	-41.081	0.120	0.063
-378.902	326.218	-0.084	0.163
-377.888	-200.000	0.006	0.223
-376.873	411.656	0.028	0.061
-375.858	800.000	0.005	0.023
-374.844	-82.239	0.255	-0.084
-373.829	-160.581	-0.349	-0.019
-372.815	-200.000	-0.048	-0.253
-371.800	800.000	-0.161	0.523
-370.785	177.297	-0.031	-0.046
-369.771	-200.000	0.009	-0.281
-368.756	-200.000	0.015	-0.116
-367.742	41.700	-0.111	-0.101
-366.727	-43.052	-0.120	-0.061
-365.712	800.000	0.068	0.197
-364.698	-200.000	0.026	0.137
-363.683	138.199	0.364	0.480
-362.669	165.682	-0.075	0.107
-361.654	-36.427	0.172	0.093
-360.639	398.678	0.054	0.113
-359.625	-181.351	-0.273	-0.005
-358.610	14.963	-0.183	-0.144
-357.596	116.239	-0.151	0.187
-356.581	-137.793	0.283	0.032
-355.566	-43.349	0.131	-0.067
-354.552	383.993	-0.070	-0.145
-353.537	268.411	0.056	0.098
-352.523	-165.078	0.096	-0.004
-351.508	40.374	-0.211	0.191
-350.493	285.913	-0.062	0.113
-349.479	-16.100	-0.223	-0.143
-348.464	6.334	-0.313	0.233
-347.450	-29.401	-0.319	-0.183
-346.435	433.517	-0.053	0.115
-345.420	38.982	-0.025	-0.022
-344.406	800.000	-0.016	-0.057
-343.391	-200.000	-0.003	0.241
-342.377	200.630	0.082	0.127
-341.362	100.324	0.027	-0.032
-340.348	21.511	0.072	0.059
-339.333	0.127	-0.015	-0.010
-338.318	-60.811	0.220	0.094
-337.304	-46.231	-0.154	-0.076
-336.289	142.764	0.209	-0.279
-335.275	376.489	-0.048	-0.099
-334.260	241.580	0.066	0.110
-333.245	-200.000	-0.021	0.123
-332.231	-114.110	-0.169	-0.033
-331.216	-7.372	-0.222	-0.151
-330.202	800.000	-0.107	0.455
-329.187	800.000	0.018	0.067
-328.172	295.833	0.097	-0.178
-327.158	-200.000	0.025	-0.245
-326.143	128.413	-0.107	0.137
-325.129	308.057	0.039	0.073
-324.114	-41.678	-0.242	0.125
-323.099	-11.922	0.397	-0.261
-322.085	128.174	-0.104	0.134
-321.070	8.507	0.107	0.081
-320.056	9.294	-0.058	0.044
-319.041	-200.000	0.023	0.151
-318.026	-200.000	0.005	-0.121
-317.012	7.910	0.200	0.151
-315.997	561.620	-0.056	-0.136
-314.983	-170.930	0.231	-0.008
-313.968	-57.791	-0.209	0.092
-312.953	-155.690	0.236	0.015
-311.939	263.287	0.137	-0.239
-310.924	800.000	-0.025	-0.096
-309.910	231.221	-0.146	0.241
-308.895	800.000	0.010	0.030
-307.880	221.535	-0.112	0.180
-306.866	253.388	-0.198	0.340
-305.851	62.797	-0.130	-0.131
-304.837	-157.823	0.056	0.003
-303.822	582.969	-0.075	0.184
-302.807	-22.772	0.257	-0.156
-301.793	800.000	0.042	0.147
-300.778	-74.692	-0.212	0.077
-299.764	171.059	-0.132	-0.191
-298.749	311.954	0.182	0.342
-297.735	-200.000	0.031	0.138
-296.720	144.450	-0.103	-0.138
-295.705	-60.479	0.023	-0.010
-294.691	-200.000	-0.013	-0.131
-293.676	-14.224	0.250	-0.162
-292.662	-15.018	-0.226	0.146
-291.647	-97.878	0.368	-0.095
-290.632	-200.000	-0.037	-0.324
-289.618	-45.368	-0.224	0.112
-288.603	-85.370	-0.161	0.051
-287.589	-192.742	0.402	-0.004
-286.574	-75.812	0.337	-0.120
-285.559	44.175	0.135	0.125
-284.545	78.717	0.046	-0.050
-283.530	-200.000	0.008	-0.041
-282.516	800.000	-0.101	-0.410
-281.501	-200.000	0.006	-0.192
-280.486	-169.276	-0.307	-0.011
-279.472	-200.000	0.042	-0.521
-278.457	-164.789	0.127	0.006
-277.443	-59.533	0.327	-0.141
-276.428	20.070	-0.120	-0.097
-275.413	800.000	-0.080	-0.251
-274.399	-20.147	0.190	0.117
-273.384	-56.669	0.045	-0.020
-272.370	-200.000	-0.054	-0.455
-271.355	314.222	-0.090	-0.170
-270.340	-200.000	-0.033	-0.255
-269.326	-135.738	0.150	0.018
-268.311	-200.000	-0.071	-0.340
-267.297	800.000	0.077	0.271
-266.282	-200.000	-0.049	0.255
-265.267	155.420	0.114	-0.157
-264.253	-200.000	0.027	-0.275
-263.238	-62.960	0.072	-0.030
-262.224	785.759	0.134	0.367
-261.209	-115.855	-0.181	-0.034
-260.195	-200.000	-0.044	0.352
-259.180	10.067	-0.218	-0.166
-258.165	-103.141	0.247	-0.059
-257.151	-122.107	-0.433	-0.071
-256.136	-200.000	0.014	0.221
-255.122	-32.622	0.082	0.046
-254.107	-68.969	-0.126	0.049
-253.092	0.488	-0.376	0.269
-252.078	-115.176	0.143	-0.027
-251.063	-31.421	0.542	-0.305
-250.049	-43.369	0.060	-0.030
-249.034	-152.495	-0.089	0.006
-248.019	48.041	0.331	-0.310
-247.005	-152.946	0.141	0.010
-245.990	-69.533	0.066	-0.025
-244.976	214.250	-0.142	0.225
-243.961	800.000	0.073	0.311
-242.946	-59.432	-0.162	0.070
-241.932	-200.000	-0.024	0.164
-240.917	-200.000	-0.015	0.258
-239.903	448.472	0.089	-0.196
-238.888	-200.000	-0.027	0.171
-237.873	498.628	0.087	0.201
-236.859	-45.837	0.170	0.084
-235.844	-200.000	-0.033	0.178
-234.830	795.899	-0.048	0.132
-233.815	-171.378	0.339	-0.011
-232.800	746.541	-0.057	0.154
-231.786	521.316	-0.074	-0.175
-230.771	-65.059	0.195	0.079
-229.757	-118.806	-0.077	-0.014
-228.742	-20.458	0.174	0.107
-227.727	-200.000	0.001	-0.290
-226.713	-80.450	-0.097	0.033
-225.698	-200.000	-0.023	0.279
-224.684	-22.430	-0.186	0.112
-223.669	800.000	0.055	0.202
-222.655	93.693	0.049	0.056
-221.640	-43.068	0.105	0.053
-220.625	-200.000	-0.030	-0.163
-219.611	-200.000	-0.006	0.151
-218.596	-200.000	-0.011	0.099
-217.582	-39.976	-0.087	-0.045
-216.567	-149.186	0.189	-0.015
-215.552	638.588	-0.263	0.669
-214.538	2.309	-0.029	-0.021
-213.523	254.460	-0.075	-0.129
-212.509	40.007	-0.101	-0.091
-211.494	-97.000	0.368	-0.096
-210.479	-4.763	0.176	0.121
-209.465	-200.000	0.033	-0.220
-208.450	85.754	0.264	0.290
-207.436	-200.000	-0.042	-0.312
-206.421	800.000	-0.141	-0.461
-205.406	-200.000	0.046	-0.238
-204.392	102.817	0.014	-0.016
-203.377	106.341	-0.163	0.193
-202.363	-200.000	-0.010	0.057
-201.348	-133.758	0.095	-0.012
-200.333	-63.569	-0.287	0.118
-199.319	346.208	0.082	0.162
-198.304	111.450	-0.239	0.288
-197.290	-200.000	0.032	0.321
-196.275	67.603	-0.083	-0.085
-195.260	-134.936	0.107	-0.013
-194.246	-84.963	0.199	0.062
-193.231	134.590	-0.099	0.128
-192.217	-200.000	-0.024	0.316
-191.202	-84.676	-0.226	0.071
-190.187	261.813	-0.182	0.316
-189.173	-68.138	0.379	0.147
-188.158	-6.051	0.069	-0.047
-187.144	15.053	0.206	0.161
-186.129	-14.782	0.219	0.141
-185.114	-98.777	-0.184	-0.047
-184.100	364.597	0.087	0.175
-183.085	-158.443	-0.060	-0.003
-182.071	-83.546	0.182	0.058
-181.056	165.313	0.112	0.158
-180.042	113.030	0.183	-0.221
-179.027	59.736	-0.082	-0.081
-178.012	-54.955	-0.288	0.130
-176.998	-134.833	0.144	0.017
-175.983	-127.276	-0.198	0.029
-174.969	102.163	0.025	-0.029
-173.954	0.365	0.225	0.160
-172.939	-200.000	0.024	-0.122
-171.925	740.051	-0.076	-0.203
-170.910	-200.000	0.004	-0.227
-169.896	-77.385	-0.088	0.031
-168.881	657.398	-0.077	0.197
-167.866	-109.804	-0.333	-0.070
-166.852	-200.000	0.011	0.128
-165.837	-200.000	0.084	-0.532
-164.823	-200.000	0.033	0.173
-163.808	-173.868	0.201	0.006
-162.793	-88.358	0.013	-0.004
-161.779	-124.210	0.569	0.089
-160.764	-44.317	0.158	0.079
-159.750	-11.610	-0.114	-0.074
-158.735	306.563	0.156	-0.290
-157.720	192.850	-0.145	-0.218
-156.706	-200.000	-0.009	0.361
-155.691	399.913	0.097	-0.202
-154.677	-46.696	0.302	0.148
-153.662	-85.257	0.397	-0.124
-152.647	148.869	-0.228	0.307
-151.633	-200.000	-0.038	0.235
-150.618	539.211	-0.083	0.196
-149.604	-151.187	0.284	0.021
-148.589	-46.560	0.039	0.019
-147.574	-103.702	0.166	-0.039
-146.560	-91.958	0.345	0.097
-145.545	286.318	0.071	-0.128
-144.531	-200.000	-0.023	0.416
-143.516	-200.000	-0.042	-0.249
-142.502	-200.000	-0.030	0.159
-141.487	-2.497	-0.271	-0.189
-140.472	-200.000	0.023	0.218
-139.458	-200.000	-0.004	-0.151
-138.443	41.337	0.137	0.123
-137.429	-200.000	0.062	0.328
-136.414	800.000	0.075	0.282
-135.399	77.233	-0.251	0.266
-134.385	-115.222	-0.349	0.066
-133.370	100.270	0.134	0.154
-132.356	-5.602	0.180	0.123
-131.341	-0.309	0.161	0.114
-130.326	-200.000	0.010	0.045
-129.312	119.875	0.122	0.151
-128.297	88.877	-0.046	-0.051
-127.283	-200.000	-0.071	-0.355
-126.268	94.855	-0.263	-0.299
-125.253	60.095	-0.152	0.150
-124.239	77.437	0.374	0.397
-123.224	46.407	-0.303	-0.280
-122.210	177.337	0.115	0.167
-121.195	-200.000	0.014	-0.112
-120.180	800.000	0.066	-0.213
-119.166	-172.801	0.105	0.003
-118.151	-200.000	-0.064	-0.292
-117.137	-119.066	0.226	0.039
-116.122	-100.135	-0.155	0.039
-115.107	-200.000	-0.073	-0.440
-114.093	-175.817	0.131	-0.003
-113.078	18.891	-0.291	-0.233
-112.064	800.000	-0.041	0.158
-111.049	237.776	-0.097	-0.160
-110.034	-136.268	-0.062	0.007
-109.020	235.668	0.098	-0.161
-108.005	-200.000	-0.013	-0.331
-106.991	-113.693	-0.034	0.007
-105.976	-200.000	0.013	-0.262
-104.962	236.121	-0.135	-0.223
-103.947	-23.049	0.270	-0.162
-102.932	-30.308	0.178	-0.100
-101.918	-66.414	0.325	-0.129
-100.903	-9.698	-0.315	0.209
-99.889	18.783	0.084	-0.067
-98.874	88.933	0.104	0.116
-97.859	267.640	-0.152	-0.265
-96.845	413.957	-0.131	0.277
-95.830	-52.296	-0.100	-0.046
-94.816	-200.000	-0.027	-0.128
-93.801	-43.795	0.298	0.150
-92.786	-111.960	-0.346	-0.070
-91.772	-108.187	-0.060	-0.013
-90.757	-118.714	-0.144	-0.025
-89.743	-38.781	0.318	-0.167
-88.728	409.570	0.071	-0.150
-87.713	-48.017	-0.402	-0.194
-86.699	800.000	0.153	0.500
-85.684	-200.000	0.038	0.252
-84.670	82.840	-0.164	-0.178
-83.655	800.000	-0.100	-0.341
-82.640	6.451	-0.172	-0.127
-81.626	148.594	0.127	-0.171
-80.611	-106.016	0.187	-0.042
-79.597	184.764	0.321	0.474
-78.582	-71.445	-0.347	0.129
-77.567	-28.529	0.246	-0.141
-76.553	-200.000	0.031	-0.136
-75.538	-8.169	0.072	-0.048
-74.524	492.392	0.085	0.194
-73.509	28.730	0.310	0.261
-72.494	34.022	-0.123	0.107
-71.480	366.337	-0.116	-0.232
-70.465	122.656	0.248	0.309
-69.451	-200.000	0.016	0.321
-68.436	-134.473	-0.129	-0.016
-67.422	98.075	-0.177	0.203
-66.407	218.570	0.072	0.114
-65.392	-2.671	-0.081	0.057
-64.378	100.467	-0.198	0.228
-63.363	105.729	-0.221	0.260
-62.349	-94.454	-0.099	-0.027
-61.334	51.080	-0.703	-0.663
-60.319	175.651	0.216	0.311
-59.305	-200.000	-0.054	-0.906
-58.290	113.266	0.745	0.898
-57.276	454.751	0.594	1.310
-56.261	-200.000	76.555	525.649
-55.246	553.885	1315.058	3143.859
-54.232	147.696	2546.387	3411.335
-53.217	114.869	2333.682	2829.450
-52.203	51.699	1954.455	1847.850
-51.188	45.331	1746.984	1601.943
-50.173	42.479	1702.137	1538.941
-49.159	57.550	1735.792	1685.868
-48.144	63.510	1754.173	1749.519
-47.130	45.305	1718.705	1575.563
-46.115	42.046	1704.922	1537.885
-45.100	41.943	1700.129	1532.714
-44.086	41.922	1697.781	1530.379
-43.071	41.972	1695.006	1528.195
-42.057	41.922	1692.033	1525.078
-41.042	41.897	1690.277	1523.238
-40.027	41.849	1688.573	1521.282
-39.013	41.814	1686.846	1519.395
-37.998	41.889	1685.199	1518.423
-36.984	41.942	1683.486	1517.224
-35.969	42.019	1681.982	1516.391
-34.954	42.075	1680.104	1515.062
-33.940	41.969	1678.451	1512.708
-32.925	41.996	1676.367	1510.972
-31.911	41.994	1674.617	1509.320
-30.896	41.992	1673.093	1507.874
-29.881	41.993	1670.790	1505.741
-28.867	42.028	1669.806	1505.061
-27.852	41.963	1668.216	1503.079
-26.838	41.968	1666.463	1501.475
-25.823	42.073	1664.858	1500.760
-24.809	42.093	1663.831	1499.925
-23.794	42.003	1662.563	1498.045
-22.779	42.038	1660.634	1496.512
-21.765	41.980	1659.408	1494.911
-20.750	41.998	1657.579	1493.340
-19.736	42.042	1656.078	1492.257
-18.721	42.061	1654.719	1491.116
-17.706	41.986	1653.488	1489.392
-16.692	41.994	1651.231	1487.360
-15.677	41.983	1650.020	1486.123
-14.663	42.000	1648.515	1484.835
-13.648	42.093	1647.215	1484.297
-12.633	42.095	1645.550	1482.753
-11.619	42.099	1643.988	1481.318
-10.604	42.037	1642.342	1479.317
-9.590	41.983	1641.283	1477.902
-8.575	41.910	1640.084	1476.227
-7.560	42.015	1638.566	1475.578
-6.546	42.078	1637.380	1474.916
-5.531	42.066	1636.447	1473.924
-4.517	42.036	1635.025	1472.366
-3.502	41.968	1634.066	1470.947
-2.487	42.130	1632.113	1470.317
-1.473	41.614	1619.943	1455.533
-0.458	38.138	1597.399	1410.177
0.556	32.803	1594.364	1365.699
1.571	29.563	1618.110	1362.069
2.586	28.634	1632.101	1366.811
3.600	25.228	1578.646	1297.345
4.615	14.018	1460.968	1125.064
5.629	3.499	1386.966	1000.071
6.644	1.515	1376.782	979.865
7.659	1.257	1375.479	977.188
8.673	1.146	1374.141	975.434
9.688	1.152	1372.825	974.454
10.702	0.963	1369.567	970.840
11.717	4.604	1377.188	999.599
12.731	15.217	1397.900	1083.496
13.746	23.448	1411.962	1147.820
14.761	25.012	1413.928	1159.446
15.775	25.265	1413.699	1160.792
16.790	25.323	1412.807	1160.332
17.804	25.306	1412.054	1159.500
18.819	25.514	1411.968	1160.674
19.834	25.650	1411.004	1160.654
20.848	25.687	1410.018	1159.981
21.863	25.671	1409.658	1159.479
22.877	25.638	1408.644	1158.330
23.892	25.677	1408.113	1158.039
24.907	25.701	1407.048	1157.217
25.921	25.661	1405.886	1155.900
26.936	25.616	1404.567	1154.425
27.950	25.641	1404.135	1154.130
28.965	25.701	1402.465	1153.037
29.980	25.681	1400.952	1151.566
30.994	25.565	1400.204	1150.109
32.009	25.711	1398.542	1149.573
33.023	25.688	1397.191	1148.216
34.038	25.714	1396.159	1147.427
35.053	25.667	1395.339	1146.355
36.067	25.623	1394.292	1145.113
37.082	25.568	1393.554	1144.053
38.096	25.644	1392.586	1143.641
39.111	25.565	1391.897	1142.472
40.126	25.613	1391.318	1142.205
41.140	25.628	1390.010	1141.124
42.155	25.646	1389.856	1141.010
43.169	25.596	1390.243	1140.906
44.184	25.564	1390.185	1140.559
45.199	25.613	1389.107	1139.881
46.213	25.623	1388.836	1139.620
47.228	25.573	1387.707	1138.280
48.242	25.582	1386.496	1137.245
49.257	25.598	1384.895	1135.927
50.271	25.649	1383.309	1134.846
51.286	25.667	1382.194	1133.951
52.301	25.638	1380.908	1132.613
53.315	25.646	1380.077	1131.877
54.330	25.640	1379.084	1130.924
55.344	25.581	1378.042	1129.604
56.359	25.627	1376.927	1128.878
57.374	25.559	1376.647	1128.123
58.388	25.580	1375.961	1127.592
59.403	25.591	1375.201	1126.937
60.417	25.633	1374.830	1126.796
61.432	25.618	1373.937	1125.868
62.447	25.685	1373.030	1125.445
63.461	25.649	1371.835	1124.139
64.476	25.636	1371.042	1123.312
65.490	25.654	1369.653	1122.184
66.505	25.647	1367.747	1120.480
67.520	25.613	1367.007	1119.562
68.534	25.678	1365.917	1118.980
69.549	25.671	1364.865	1117.970
70.563	25.643	1363.844	1116.864
71.578	25.671	1362.990	1116.242
72.593	25.660	1362.225	1115.448
73.607	25.599	1361.586	1114.445
74.622	25.680	1360.529	1113.982
75.636	25.638	1360.174	1113.334
76.651	25.652	1359.373	1112.669
77.666	25.595	1358.887	1111.816
78.680	25.568	1358.312	1111.085
79.695	25.596	1357.658	1110.624
80.709	25.591	1356.666	1109.680
81.724	25.639	1355.798	1109.167
82.739	25.649	1354.948	1108.439
83.753	25.602	1353.806	1107.114
84.768	25.740	1351.978	1106.370
85.782	25.678	1351.220	1105.270
86.797	25.712	1350.279	1104.612
87.812	25.716	1349.264	1103.711
88.826	25.732	1347.987	1102.668
89.841	25.627	1347.148	1101.240
90.855	25.662	1346.334	1100.693
91.870	25.732	1345.443	1100.290
92.884	25.661	1344.381	1098.895
93.899	25.711	1343.840	1098.657
94.914	25.659	1343.584	1098.036
95.928	25.696	1341.979	1096.851
96.943	25.687	1341.298	1096.146
97.957	25.714	1340.848	1095.844
98.972	25.845	1339.401	1095.359
99.987	25.605	1338.990	1093.467
101.001	25.681	1337.973	1093.005
102.016	25.640	1336.866	1091.753
103.030	25.812	1335.762	1091.795
104.045	25.673	1335.470	1090.619
105.060	25.725	1334.391	1089.957
106.074	25.730	1333.055	1088.798
107.089	25.750	1332.143	1088.081
108.103	25.780	1330.982	1087.218
109.118	25.666	1330.207	1085.797
110.133	25.707	1329.245	1085.162
111.147	25.727	1328.098	1084.251
112.162	25.789	1326.647	1083.343
113.176	25.777	1325.577	1082.303
114.191	25.858	1324.625	1081.919
115.206	25.789	1323.582	1080.552
116.220	25.830	1322.246	1079.614
117.235	25.763	1321.887	1078.823
118.249	25.872	1320.413	1078.181
119.264	25.782	1319.931	1077.152
120.279	25.830	1318.909	1076.507
121.293	25.897	1318.193	1076.230
122.308	25.820	1317.323	1074.965
123.322	25.792	1316.911	1074.366
124.337	25.872	1315.982	1073.986
125.352	25.964	1314.746	1073.430
126.366	25.868	1313.788	1071.983
127.381	25.855	1313.256	1071.379
128.395	25.927	1312.331	1070.958
129.410	25.900	1311.254	1069.826
130.424	25.915	1310.630	1069.310
131.439	25.850	1310.037	1068.345
132.454	25.818	1309.288	1067.448
133.468	25.813	1308.678	1066.829
134.483	25.818	1308.057	1066.257
135.497	25.776	1307.725	1065.643
136.512	25.813	1306.169	1064.501
137.527	25.845	1305.031	1063.665
138.541	25.841	1303.500	1062.300
139.556	25.857	1302.502	1061.487
140.570	25.862	1301.717	1060.782
141.585	25.875	1300.456	1059.738
142.600	25.762	1299.670	1058.344
143.614	25.889	1298.865	1058.335
144.629	25.865	1297.804	1057.237
145.643	25.895	1296.318	1056.111
146.658	25.786	1295.447	1054.666
147.673	25.763	1294.379	1053.569
148.687	25.710	1293.596	1052.528
149.702	25.760	1292.491	1051.832
150.716	25.691	1291.357	1050.411
151.731	25.692	1290.207	1049.387
152.746	25.770	1288.995	1048.765
153.760	25.858	1288.310	1048.629
154.775	25.865	1287.109	1047.598
155.789	25.804	1286.182	1046.398
156.804	25.737	1285.396	1045.278
157.819	25.722	1285.009	1044.782
158.833	25.848	1283.656	1044.321
159.848	25.814	1283.180	1043.644
160.862	25.960	1282.398	1043.759
161.877	25.852	1281.270	1042.125
162.892	25.812	1280.790	1041.409
163.906	25.813	1279.906	1040.608
164.921	25.904	1279.134	1040.414
165.935	25.952	1278.405	1040.005
166.950	25.877	1277.887	1039.057
167.964	25.934	1277.126	1038.672
168.979	25.868	1276.566	1037.747
169.994	25.962	1275.650	1037.450
171.008	25.976	1274.783	1036.737
172.023	26.029	1274.060	1036.360
173.037	25.931	1273.610	1035.339
174.052	26.007	1272.997	1035.183
175.067	25.948	1272.100	1034.026
176.081	25.890	1271.290	1032.945
177.096	25.866	1270.807	1032.322
178.110	25.972	1269.341	1031.647
179.125	25.960	1268.569	1030.859
180.140	25.887	1267.557	1029.527
181.154	25.825	1267.000	1028.629
182.169	25.840	1265.798	1027.648
183.183	25.962	1264.302	1027.042
184.198	25.900	1263.667	1026.079
185.213	25.992	1262.663	1025.699
186.227	26.042	1261.667	1025.081
187.242	26.070	1260.784	1024.432
188.256	26.158	1259.735	1023.990
189.271	26.042	1259.059	1022.692
190.286	26.031	1258.589	1022.159
191.300	25.942	1258.175	1021.225
192.315	26.003	1257.623	1021.034
193.329	26.038	1256.979	1020.617
194.344	26.024	1256.757	1020.267
195.359	26.027	1256.219	1019.759
196.373	25.990	1255.323	1018.732
197.388	25.925	1255.109	1018.097
198.402	25.964	1254.861	1018.029
199.417	25.989	1253.969	1017.354
200.432	26.033	1253.789	1017.369
201.446	26.116	1252.376	1016.601
202.461	26.027	1251.696	1015.458
203.475	25.990	1251.321	1014.851
204.490	25.935	1250.711	1013.958
205.504	25.982	1249.261	1012.961
206.519	26.107	1248.352	1012.832
207.534	26.031	1247.285	1011.451
208.548	26.032	1246.478	1010.717
209.563	26.181	1245.205	1010.427
210.577	26.073	1244.685	1009.313
211.592	26.049	1244.485	1008.922
212.607	26.112	1243.280	1008.209
213.621	26.167	1242.515	1007.807
214.636	26.195	1241.499	1007.050
215.650	26.116	1241.006	1006.123
216.665	26.067	1240.017	1004.958
217.680	26.055	1239.352	1004.263
218.694	26.036	1238.159	1003.102
219.709	26.139	1237.819	1003.310
220.723	26.242	1236.652	1002.850
221.738	26.054	1236.051	1001.230
222.753	26.076	1235.439	1000.765
223.767	26.216	1234.601	1000.774
224.782	26.236	1234.253	1000.513
225.796	26.306	1233.549	1000.241
226.811	26.125	1233.256	998.918
227.826	26.132	1232.752	998.458
228.840	26.187	1232.390	998.381
229.855	26.148	1231.569	997.409
230.869	26.244	1230.417	996.921
231.884	26.351	1229.489	996.670
232.899	26.172	1229.114	995.291
233.913	26.177	1228.576	994.793
234.928	26.238	1228.322	994.839
235.942	26.334	1227.243	994.403
236.957	26.248	1226.767	993.454
237.972	26.289	1226.033	992.997
238.986	26.200	1225.469	991.967
240.001	26.355	1224.848	992.226
241.015	26.363	1224.002	991.495
242.030	26.374	1223.727	991.246
243.045	26.337	1222.450	989.924
244.059	26.569	1221.063	989.981
245.074	26.363	1221.054	988.759
246.088	26.434	1220.183	988.352
247.103	26.442	1219.322	987.613
248.117	26.422	1218.513	986.761
249.132	26.425	1217.638	985.982
250.147	26.467	1216.953	985.570
251.161	26.462	1216.216	984.858
252.176	26.449	1215.715	984.294
253.190	26.588	1214.862	984.270
254.205	26.493	1214.547	983.414
255.220	26.641	1213.401	983.203
256.234	26.502	1213.276	982.257
257.249	26.492	1213.078	981.958
258.263	26.424	1211.920	980.564
259.278	26.400	1211.387	979.918
260.293	26.516	1210.844	980.017
261.307	26.491	1210.092	979.189
262.322	26.595	1209.546	979.222
263.336	26.523	1208.990	978.296
264.351	26.559	1208.734	978.195
265.366	26.569	1207.840	977.439
266.380	26.477	1206.875	976.076
267.395	26.605	1206.111	976.065
268.409	26.539	1205.824	975.388
269.424	26.524	1205.172	974.691
270.439	26.467	1204.832	974.024
271.453	26.537	1204.509	974.056
272.468	26.476	1203.236	972.610
273.482	26.538	1202.262	972.068
274.497	26.523	1202.435	972.043
275.512	26.627	1201.449	971.719
276.526	26.623	1200.999	971.247
277.541	26.669	1199.849	970.481
278.555	26.604	1199.860	970.054
279.570	26.654	1198.919	969.476
280.585	26.570	1198.109	968.286
281.599	26.661	1197.145	967.906
282.614	26.677	1196.185	967.128
283.628	26.721	1195.322	966.582
284.643	26.728	1194.266	965.676
285.657	26.677	1193.231	964.483
286.672	26.687	1192.425	963.801
287.687	26.761	1191.893	963.678
288.701	26.852	1191.410	963.690
289.716	26.850	1190.448	962.813
290.730	26.813	1189.856	962.054
291.745	26.859	1189.106	961.602
292.760	26.831	1188.356	960.763
293.774	26.855	1188.250	960.719
294.789	26.773	1187.861	959.889
295.803	26.882	1187.067	959.737
296.818	26.793	1186.319	958.577
297.833	26.844	1185.577	958.164
298.847	26.882	1184.820	957.669
299.862	26.868	1183.949	956.802
300.876	26.881	1183.411	956.355
301.891	26.916	1183.034	956.149
302.906	26.912	1182.670	955.747
303.920	27.035	1181.185	955.110
304.935	27.071	1180.438	954.610
305.949	27.046	1180.285	954.271
306.964	26.968	1179.665	953.277
307.979	26.974	1179.217	952.864
308.993	27.008	1178.380	952.277
310.008	26.997	1177.674	951.568
311.022	26.842	1177.430	950.475
312.037	26.893	1176.432	949.850
313.052	26.787	1175.993	948.857
314.066	27.001	1174.544	948.724
315.081	27.008	1173.589	947.906
316.095	27.151	1172.860	947.977
317.110	27.050	1172.609	947.161
318.125	27.099	1171.924	946.785
319.139	26.949	1171.671	945.714
320.154	27.070	1171.060	945.764
321.168	26.948	1170.540	944.627
322.183	27.085	1169.728	944.600
323.197	27.044	1168.966	943.689
324.212	27.018	1168.247	942.891
325.227	27.064	1167.625	942.545
326.241	27.106	1167.470	942.552
327.256	27.181	1166.522	942.091
328.270	27.025	1165.807	940.624
329.285	27.113	1165.140	940.456
330.300	27.228	1163.916	939.978
331.314	27.163	1163.067	938.878
332.329	27.172	1162.513	938.393
333.343	27.219	1161.913	938.066
334.358	27.284	1160.958	937.549
335.373	27.177	1160.611	936.635
336.387	27.175	1159.959	936.013
337.402	27.274	1158.901	935.586
338.416	27.314	1158.441	935.338
339.431	27.234	1157.933	934.434
340.446	27.264	1157.230	933.940
341.460	27.437	1156.439	934.107
342.475	27.345	1155.891	933.107
343.489	27.314	1154.919	932.084
344.504	27.299	1153.838	931.052
345.519	27.387	1153.308	930.993
346.533	27.369	1152.135	929.869
347.548	27.334	1151.688	929.246
348.562	27.391	1151.064	928.952
349.577	27.411	1150.061	928.164
350.592	27.294	1149.498	927.029
351.606	27.241	1148.829	926.139
352.621	27.351	1147.967	925.920
353.635	27.271	1147.596	925.133
354.650	27.571	1146.752	925.896
355.665	27.512	1145.880	924.808
356.679	27.541	1145.458	924.534
357.694	27.528	1145.110	924.105
358.708	27.535	1144.215	923.340
359.723	27.353	1143.842	922.035
360.738	27.391	1143.363	921.756
361.752	27.466	1142.971	921.742
362.767	27.505	1141.997	921.068
363.781	27.490	1141.976	920.895
364.796	27.541	1141.041	920.320
365.810	27.539	1140.400	919.710
366.825	27.504	1140.066	919.183
367.840	27.543	1139.618	918.935
368.854	27.623	1138.534	918.384
369.869	27.740	1137.652	918.182
370.883	27.641	1137.047	917.113
371.898	27.459	1136.517	915.688
372.913	27.684	1135.978	916.307
373.927	27.612	1135.615	915.568
374.942	27.688	1135.332	915.641
375.956	27.726	1134.289	914.909
376.971	27.665	1133.940	914.239
377.986	27.676	1133.290	913.691
379.000	27.786	1132.714	913.698
380.015	27.741	1132.210	912.982
381.029	27.731	1131.590	912.352
382.044	27.647	1131.269	911.594
383.059	27.819	1130.372	911.649
384.073	27.745	1129.640	910.608
385.088	27.797	1128.396	909.785
386.102	27.868	1128.016	909.751
387.117	27.830	1126.807	908.508
388.132	27.894	1125.684	907.839
389.146	27.744	1125.554	906.907
390.161	27.807	1125.261	906.906
391.175	27.927	1124.130	906.508
392.190	27.856	1123.479	905.550
393.205	27.824	1122.944	904.882
394.219	27.914	1122.180	904.630
395.234	27.938	1121.085	903.787
396.248	27.967	1120.021	902.992
397.263	27.957	1119.473	902.424
398.278	27.941	1119.099	901.961
399.292	27.904	1118.423	901.156
400.307	27.979	1117.875	901.006
401.321	27.975	1117.311	900.448
402.336	27.935	1116.400	899.437
403.350	28.086	1115.469	899.352
404.365	28.210	1114.897	899.419
405.380	28.082	1114.402	898.310
406.394	28.015	1113.888	897.491
407.409	28.117	1112.822	897.052
408.423	28.130	1112.479	896.762
409.438	28.099	1111.838	896.012
410.453	28.222	1110.873	895.759
411.467	28.175	1110.262	894.957
412.482	28.054	1109.774	893.891
413.496	28.083	1109.110	893.419
414.511	28.260	1108.035	893.338
415.526	28.289	1107.670	893.104
416.540	28.190	1107.574	892.464
417.555	28.131	1107.201	891.797
418.569	28.100	1106.656	891.131
419.584	28.290	1105.901	891.366
420.599	28.232	1105.903	891.010
421.613	86.301	1297.003	1363.279
422.628	80.899	1324.835	1363.386
