DTS Sentinel unit serial number:	SN413079Multiplexer serial number:	ORYXHardware model number:	OX4-SRSoftware version number:	ORYX F/W v4.00 Oryx Data Collector v3.7.2.0data status	okinstallation	princeton_trtdifferential loss correction	single-endedforward channel	channel 2reverse channel	N/Adate	2019/09/15time	09:51:35forward acquisition time	60.00reverse acquisition time	0.00gamma	496.2192k internal	0.2316k external	0.2316temperature offset calibration	1.0016default loss term (dB/km)	0.3790temperature slope calibration	1.0000multiplexer offset coefficient	1.0000multiplexer slope coefficient	1.0000fibre end	0.00T internal ref (°C)	34.06T ext. ref 1 (°C)	4.98T ext. ref 2 (°C)	29.83length (m)	temperature (°C)	Stokes	anti-Stokes-747.200	-73.167	0.298	-0.111
-746.185	-50.568	0.126	0.060
-745.171	2.889	-0.268	0.197
-744.156	104.504	0.253	-0.302
-743.142	-47.246	-0.289	-0.143
-742.127	534.167	-0.105	0.253
-741.112	-107.418	0.181	-0.040
-740.098	-19.621	0.096	-0.060
-739.083	-104.358	0.303	-0.071
-738.069	-129.803	0.066	0.009
-737.054	590.782	-0.117	0.292
-736.039	-200.000	-0.027	-0.423
-735.025	50.335	0.153	0.146
-734.010	54.314	-0.148	-0.145
-732.996	800.000	-0.080	-0.230
-731.981	88.592	-0.080	-0.091
-730.966	111.117	-0.198	0.241
-729.952	800.000	-0.105	0.356
-728.937	800.000	0.081	-0.268
-727.923	14.276	-0.125	0.098
-726.908	123.617	-0.213	0.271
-725.894	-200.000	0.014	-0.198
-724.879	636.006	0.087	-0.225
-723.864	-200.000	0.005	-0.622
-722.850	-8.752	-0.100	0.068
-721.835	163.110	-0.118	0.167
-720.821	201.194	-0.280	-0.436
-719.806	28.999	-0.149	-0.128
-718.791	800.000	-0.024	0.080
-717.777	-200.000	-0.075	-0.391
-716.762	23.067	-0.152	-0.126
-715.748	730.924	-0.074	0.200
-714.733	-166.080	0.094	-0.004
-713.718	-61.502	-0.314	0.133
-712.704	61.228	0.107	0.107
-711.689	800.000	-0.103	-0.370
-710.675	-150.268	0.149	-0.012
-709.660	800.000	-0.091	-0.293
-708.645	-44.398	-0.168	-0.085
-707.631	-34.216	0.204	-0.113
-706.616	-15.429	0.131	0.085
-705.602	48.575	0.083	0.078
-704.587	114.243	-0.118	-0.145
-703.572	-7.931	-0.132	-0.090
-702.558	69.325	0.251	0.261
-701.543	-149.427	0.100	-0.008
-700.529	187.954	-0.101	-0.153
-699.514	274.921	0.044	0.079
-698.499	-59.146	0.143	-0.062
-697.485	-200.000	0.002	0.019
-696.470	800.000	0.057	0.176
-695.456	-200.000	-0.042	0.192
-694.441	-51.421	-0.134	-0.063
-693.426	-53.540	-0.182	-0.084
-692.412	800.000	-0.041	-0.134
-691.397	521.990	0.111	0.264
-690.383	-200.000	-0.003	-0.046
-689.368	122.160	0.193	-0.243
-688.354	-77.376	0.297	-0.104
-687.339	-10.808	-0.157	0.105
-686.324	-74.158	0.070	-0.026
-685.310	-200.000	-0.035	0.367
-684.295	-200.000	-0.051	0.344
-683.281	368.677	-0.108	-0.222
-682.266	-131.631	0.088	-0.012
-681.251	-200.000	-0.067	0.379
-680.237	71.641	-0.246	0.258
-679.222	-200.000	0.007	0.274
-678.208	426.285	-0.089	-0.193
-677.193	57.198	0.138	-0.136
-676.178	800.000	0.057	-0.243
-675.164	-13.179	-0.314	0.206
-674.149	-175.493	0.171	0.005
-673.135	-42.167	0.107	-0.055
-672.120	-165.465	-0.130	0.006
-671.105	-9.370	0.264	0.178
-670.091	-70.390	-0.174	0.067
-669.076	57.177	-0.049	0.048
-668.062	334.719	0.083	-0.163
-667.047	-21.181	-0.191	0.118
-666.032	20.252	0.238	-0.194
-665.018	22.542	-0.217	-0.179
-664.003	-76.104	0.173	-0.062
-662.989	-120.464	-0.158	-0.027
-661.974	-58.651	-0.208	-0.091
-660.959	490.836	-0.033	-0.075
-659.945	533.902	0.107	-0.257
-658.930	-88.653	0.168	0.050
-657.916	380.628	0.177	-0.367
-656.901	800.000	-0.041	-0.159
-655.886	-89.427	-0.112	-0.033
-654.872	183.312	-0.153	0.229
-653.857	193.762	-0.219	0.334
-652.843	-200.000	-0.034	0.363
-651.828	35.266	0.266	0.236
-650.814	-100.809	0.205	0.051
-649.799	6.576	-0.028	-0.021
-648.784	14.393	0.223	-0.175
-647.770	347.574	0.165	0.328
-646.755	-145.799	-0.418	0.038
-645.741	800.000	0.117	0.432
-644.726	-115.752	0.144	-0.027
-643.711	-46.061	0.206	0.103
-642.697	98.251	-0.207	-0.240
-641.682	-200.000	0.034	-0.352
-640.668	791.616	0.118	0.328
-639.653	52.495	0.054	0.052
-638.638	225.574	0.273	-0.446
-637.624	-200.000	-0.001	-0.007
-636.609	5.013	0.152	0.113
-635.595	800.000	0.037	-0.112
-634.580	-70.656	0.547	0.209
-633.565	98.148	-0.163	0.190
-632.551	-132.371	-0.344	-0.045
-631.536	13.752	-0.120	-0.094
-630.522	800.000	-0.132	0.374
-629.507	-66.549	-0.147	-0.059
-628.492	83.000	0.084	-0.092
-627.478	-102.543	0.101	-0.024
-626.463	341.221	0.114	0.226
-625.449	-109.715	0.156	-0.033
-624.434	-16.189	-0.225	0.144
-623.419	800.000	-0.055	0.181
-622.405	-144.576	-0.276	0.026
-621.390	24.842	0.206	-0.172
-620.376	800.000	0.146	-0.447
-619.361	104.846	-0.100	-0.119
-618.346	-93.280	-0.219	0.061
-617.332	-131.290	-0.204	-0.027
-616.317	-108.017	-0.178	-0.039
-615.303	-188.622	0.055	0.001
-614.288	660.432	-0.043	-0.111
-613.273	800.000	-0.077	0.292
-612.259	-34.704	0.313	0.172
-611.244	40.075	0.089	0.080
-610.230	-121.728	-0.202	0.034
-609.215	-18.976	-0.279	-0.175
-608.201	-155.360	-0.475	0.031
-607.186	225.835	0.014	-0.023
-606.171	-53.669	0.045	-0.021
-605.157	-53.511	-0.099	0.046
-604.142	-122.076	-0.136	0.022
-603.128	-29.706	0.167	0.096
-602.113	-53.912	-0.296	-0.136
-601.098	-85.168	0.311	-0.098
-600.084	-48.534	0.267	-0.129
-599.069	-101.135	0.233	-0.057
-598.055	-69.375	-0.058	0.022
-597.040	-35.237	0.047	-0.026
-596.025	57.715	-0.099	-0.097
-595.011	-200.000	-0.129	-0.617
-593.996	276.495	0.099	-0.177
-592.982	73.423	-0.059	0.062
-591.967	423.632	0.071	-0.154
-590.952	800.000	0.074	-0.230
-589.938	166.474	-0.083	-0.119
-588.923	800.000	-0.131	-0.370
-587.909	-9.543	-0.160	-0.107
-586.894	283.195	-0.089	0.160
-585.879	233.281	-0.018	-0.030
-584.865	441.991	0.097	0.215
-583.850	-200.000	-0.028	-0.322
-582.836	346.345	-0.124	-0.246
-581.821	800.000	0.086	0.331
-580.806	18.261	-0.262	-0.210
-579.792	132.911	-0.130	-0.169
-578.777	378.054	-0.087	-0.179
-577.763	-14.495	-0.164	0.106
-576.748	72.383	0.077	-0.081
-575.733	396.402	-0.066	0.139
-574.719	800.000	0.050	0.191
-573.704	105.639	0.132	0.157
-572.690	-68.187	-0.314	0.123
-571.675	-120.715	0.155	-0.026
-570.661	120.111	-0.239	-0.298
-569.646	-163.064	-0.520	0.025
-568.631	200.461	0.146	-0.226
-567.617	800.000	-0.020	0.065
-566.602	-180.915	-0.112	-0.002
-565.588	37.657	-0.275	-0.245
-564.573	17.253	-0.054	0.043
-563.558	-33.213	0.056	0.031
-562.544	33.128	-0.301	-0.263
-561.529	-173.411	0.410	0.012
-560.515	700.556	0.042	0.112
-559.500	19.438	0.012	0.009
-558.485	800.000	0.038	-0.130
-557.471	-8.563	-0.145	-0.098
-556.456	-126.043	-0.413	-0.062
-555.442	-46.773	0.182	-0.090
-554.427	-200.000	-0.008	0.123
-553.412	-200.000	-0.021	0.257
-552.398	-174.361	0.381	-0.011
-551.383	-54.821	0.269	-0.122
-550.369	-63.693	0.395	-0.163
-549.354	41.610	-0.138	-0.125
-548.339	242.342	0.082	-0.137
-547.325	76.861	-0.023	0.024
-546.310	-112.366	-0.300	-0.060
-545.296	368.201	0.088	-0.178
-544.281	24.960	0.154	-0.128
-543.266	-34.750	-0.109	0.060
-542.252	-200.000	-0.019	-0.167
-541.237	-136.121	-0.185	0.022
-540.223	-200.000	-0.010	0.088
-539.208	160.877	-0.179	-0.252
-538.193	-89.123	-0.110	-0.033
-537.179	4.113	-0.125	-0.092
-536.164	-55.578	0.183	-0.082
-535.150	-39.538	-0.233	0.122
-534.135	85.447	-0.142	0.156
-533.121	67.464	0.179	-0.183
-532.106	-46.601	-0.162	-0.080
-531.091	-200.000	0.031	-0.154
-530.077	-200.000	0.013	0.090
-529.062	76.414	0.057	-0.061
-528.048	-79.313	-0.401	-0.136
-527.033	-101.847	0.135	0.033
-526.018	383.208	0.080	0.165
-525.004	-34.044	-0.170	-0.094
-523.989	-21.577	0.181	-0.111
-522.975	7.473	-0.205	0.154
-521.960	800.000	0.097	-0.282
-520.945	304.303	0.084	-0.156
-519.931	22.762	0.132	-0.108
-518.916	-200.000	-0.016	-0.138
-517.902	152.242	-0.189	0.260
-516.887	7.952	0.104	0.078
-515.872	-82.213	0.271	0.089
-514.858	275.674	0.131	0.233
-513.843	800.000	-0.054	-0.236
-512.829	75.046	-0.119	0.125
-511.814	-19.117	0.166	0.103
-510.799	651.560	0.067	0.172
-509.785	-11.803	-0.182	0.120
-508.770	-186.349	-0.286	-0.004
-507.756	125.300	0.049	0.062
-506.741	-200.000	-0.077	0.341
-505.726	-38.173	0.201	0.107
-504.712	230.983	0.089	0.146
-503.697	-1.778	0.253	0.179
-502.683	120.219	0.121	0.151
-501.668	117.235	-0.123	-0.152
-500.653	-200.000	-0.005	0.073
-499.639	800.000	0.040	0.150
-498.624	-200.000	0.016	0.184
-497.610	-50.000	0.259	0.123
-496.595	-60.428	-0.310	-0.132
-495.581	445.741	0.117	-0.259
-494.566	-70.484	-0.213	-0.081
-493.551	66.427	0.087	-0.089
-492.537	800.000	-0.071	0.286
-491.522	-150.033	0.187	-0.015
-490.508	373.947	0.064	0.132
-489.493	-200.000	0.071	-0.348
-488.478	800.000	0.024	-0.094
-487.464	20.527	0.113	0.092
-486.449	359.303	0.137	-0.275
-485.435	135.219	-0.060	-0.079
-484.420	-96.109	-0.311	-0.083
-483.405	-36.715	-0.161	0.087
-482.391	-109.354	0.327	0.070
-481.376	155.370	-0.298	0.412
-480.362	-75.913	0.391	-0.139
-479.347	-200.000	-0.294	-0.001
-478.332	-4.732	-0.114	0.079
-477.318	122.824	-0.025	0.031
-476.303	-42.705	-0.248	0.127
-475.289	92.412	0.070	-0.079
-474.274	-200.000	-0.020	-0.109
-473.259	-200.000	-0.009	-0.044
-472.245	-88.907	0.094	0.028
-471.230	66.898	-0.103	-0.105
-470.216	37.955	0.240	-0.214
-469.201	-88.670	0.326	-0.097
-468.186	-37.374	0.273	-0.146
-467.172	-187.693	-0.131	0.002
-466.157	18.613	-0.096	0.077
-465.143	-200.000	-0.029	-0.159
-464.128	214.271	0.132	-0.210
-463.113	800.000	-0.034	-0.147
-462.099	32.392	0.320	0.276
-461.084	-100.362	0.082	0.020
-460.070	-58.724	0.270	-0.117
-459.055	-103.564	0.405	0.095
-458.040	170.318	0.029	0.042
-457.026	-166.005	-0.040	-0.002
-456.011	63.723	0.122	0.123
-454.997	33.883	-0.301	0.262
-453.982	-43.770	-0.405	0.204
-452.968	196.811	-0.167	0.255
-451.953	178.345	-0.060	0.087
-450.938	17.580	0.170	-0.135
-449.924	-200.000	-0.042	0.236
-448.909	34.169	0.178	0.155
-447.895	-200.000	-0.009	0.503
-446.880	-200.000	0.050	0.455
-445.865	-81.264	-0.553	-0.183
-444.851	-50.668	0.335	-0.158
-443.836	-34.650	0.176	0.096
-442.822	-200.000	-0.010	0.103
-441.807	260.849	0.006	-0.011
-440.792	184.196	-0.148	-0.219
-439.778	800.000	0.051	-0.192
-438.763	575.899	0.103	0.251
-437.749	427.302	-0.033	0.071
-436.734	800.000	-0.052	-0.217
-435.719	59.922	0.077	0.076
-434.705	-102.972	-0.183	-0.043
-433.690	144.734	-0.056	0.075
-432.676	271.517	-0.112	0.197
-431.661	89.288	0.166	0.185
-430.646	800.000	0.045	0.168
-429.632	-73.994	0.136	0.049
-428.617	36.508	-0.182	0.161
-427.603	-200.000	0.027	-0.173
-426.588	-200.000	0.054	-0.379
-425.573	-157.959	-0.134	0.008
-424.559	272.031	0.210	-0.370
-423.544	518.987	-0.104	-0.245
-422.530	-200.000	0.010	0.252
-421.515	-100.769	-0.066	0.016
-420.500	800.000	-0.053	0.226
-419.486	-200.000	0.121	-0.759
-418.471	-128.745	-0.228	-0.032
-417.457	-24.874	-0.099	-0.059
-416.442	800.000	-0.036	0.120
-415.428	-200.000	-0.098	0.488
-414.413	-112.517	0.253	0.050
-413.398	-7.604	0.156	0.106
-412.384	303.617	0.099	-0.183
-411.369	-200.000	0.024	-0.221
-410.355	-200.000	-0.069	0.324
-409.340	-24.534	0.170	-0.101
-408.325	145.993	0.108	-0.145
-407.311	-29.174	-0.260	-0.149
-406.296	-200.000	0.016	0.112
-405.282	188.317	-0.034	0.051
-404.267	100.835	-0.211	0.245
-403.252	-63.926	0.235	-0.096
-402.238	319.711	0.094	0.177
-401.223	79.026	-0.106	0.113
-400.209	-10.088	0.070	-0.046
-399.194	-122.643	-0.086	0.014
-398.179	800.000	-0.080	0.278
-397.165	-200.000	-0.043	-0.441
-396.150	186.962	0.131	-0.195
-395.136	-200.000	0.012	-0.315
-394.121	-50.707	-0.134	-0.063
-393.106	-200.000	-0.025	-0.287
-392.092	-136.026	0.332	-0.039
-391.077	131.095	-0.105	0.135
-390.063	758.351	0.063	-0.170
-389.048	-200.000	0.012	-0.208
-388.033	47.343	-0.074	0.069
-387.019	-74.173	0.233	-0.084
-386.004	-152.265	-0.241	-0.017
-384.990	-70.536	-0.386	0.146
-383.975	-200.000	0.062	-0.314
-382.960	-6.225	-0.034	0.023
-381.946	39.534	0.119	0.107
-380.931	145.861	-0.173	0.231
-379.917	800.000	0.055	0.168
-378.902	800.000	-0.116	0.361
-377.888	540.597	-0.108	-0.257
-376.873	-147.657	0.559	-0.047
-375.858	-200.000	0.023	-0.191
-374.844	-59.389	0.159	-0.068
-373.829	-160.427	-0.178	-0.010
-372.815	-111.311	0.288	0.059
-371.800	-86.046	0.086	0.026
-370.785	37.923	0.075	0.067
-369.771	-132.730	-0.226	0.029
-368.756	235.764	-0.082	-0.135
-367.742	-111.579	-0.147	-0.030
-366.727	800.000	0.095	0.351
-365.712	-200.000	-0.003	0.251
-364.698	-200.000	0.001	0.127
-363.683	594.131	-0.060	0.149
-362.669	156.532	-0.057	-0.078
-361.654	-50.889	-0.366	0.172
-360.639	-200.000	-0.052	0.253
-359.625	258.780	0.181	-0.311
-358.610	-66.829	-0.245	0.097
-357.596	366.880	-0.089	-0.180
-356.581	-145.646	0.035	-0.003
-355.566	-200.000	-0.061	-0.277
-354.552	-105.456	0.113	0.026
-353.537	242.313	0.080	0.134
-352.523	26.410	-0.058	-0.049
-351.508	18.424	-0.195	-0.156
-350.493	800.000	0.060	-0.230
-349.479	194.445	-0.015	-0.022
-348.464	150.772	-0.121	-0.165
-347.450	-42.774	-0.259	-0.131
-346.435	158.061	0.181	-0.250
-345.420	199.615	-0.063	-0.097
-344.406	91.789	-0.144	-0.161
-343.391	309.757	-0.027	-0.051
-342.377	417.903	-0.073	-0.155
-341.362	-40.282	-0.129	-0.067
-340.348	85.736	0.059	0.064
-339.333	800.000	0.052	-0.209
-338.318	-133.206	0.362	0.046
-337.304	-38.379	0.336	0.177
-336.289	-161.978	0.171	-0.009
-335.275	-4.532	0.213	0.147
-334.260	70.831	-0.070	0.072
-333.245	-101.277	-0.213	-0.052
-332.231	501.215	0.048	-0.110
-331.216	37.055	-0.139	0.123
-330.202	-200.000	-0.045	-0.320
-329.187	18.490	0.095	-0.076
-328.172	148.433	0.020	0.027
-327.158	148.451	-0.101	-0.137
-326.143	40.149	0.206	0.184
-325.129	244.469	-0.082	0.137
-324.114	-144.025	-0.379	-0.035
-323.099	-198.925	0.235	0.001
-322.085	-165.263	-0.260	-0.011
-321.070	-104.217	-0.171	-0.040
-320.056	-73.331	-0.092	-0.034
-319.041	-140.601	-0.130	0.013
-318.026	-136.680	0.209	0.024
-317.012	-98.793	0.165	-0.042
-315.997	-78.628	0.216	0.074
-314.983	514.322	0.106	-0.246
-313.968	613.268	0.142	0.354
-312.953	215.471	-0.125	0.197
-311.939	183.182	-0.183	-0.269
-310.924	-200.000	-0.002	-0.235
-309.910	65.557	-0.301	-0.303
-308.895	-89.136	0.250	0.073
-307.880	-84.416	-0.483	-0.152
-306.866	800.000	0.071	0.268
-305.851	-83.267	0.429	-0.137
-304.837	-181.255	-0.206	-0.004
-303.822	-68.602	0.176	-0.068
-302.807	34.545	0.268	0.233
-301.793	-136.620	0.232	-0.027
-300.778	33.200	-0.263	0.227
-299.764	0.128	0.092	0.065
-298.749	800.000	-0.044	-0.176
-297.735	-76.111	-0.170	0.060
-296.720	800.000	0.113	0.332
-295.705	-86.329	-0.202	-0.062
-294.691	8.727	-0.214	-0.160
-293.676	-65.901	0.192	0.076
-292.662	-40.109	-0.096	0.050
-291.647	-64.814	0.241	-0.097
-290.632	31.178	0.157	-0.134
-289.618	1.950	0.131	0.094
-288.603	800.000	-0.092	-0.396
-287.589	-42.762	0.064	0.033
-286.574	-14.764	0.126	-0.081
-285.559	212.846	0.153	-0.241
-284.545	-200.000	-0.040	-0.194
-283.530	800.000	-0.079	0.291
-282.516	132.221	0.157	-0.201
-281.501	-200.000	0.025	0.170
-280.486	-200.000	-0.032	-0.378
-279.472	85.147	0.296	-0.323
-278.457	-200.000	-0.025	-0.236
-277.443	90.172	0.095	0.106
-276.428	-138.882	0.287	-0.031
-275.413	-134.847	-0.419	0.050
-274.399	142.276	0.205	0.270
-273.384	-117.432	0.314	0.057
-272.370	800.000	0.038	-0.136
-271.355	-104.767	0.328	0.075
-270.340	-153.648	0.183	0.013
-269.326	104.495	0.249	0.292
-268.311	-34.671	-0.230	0.125
-267.297	18.593	0.196	0.156
-266.282	-200.000	-0.003	0.100
-265.267	-200.000	-0.009	0.499
-264.253	-200.000	0.013	0.127
-263.238	644.412	-0.049	-0.125
-262.224	72.916	-0.079	-0.082
-261.209	-200.000	0.012	0.079
-260.195	-161.575	0.182	0.009
-259.180	-38.143	-0.193	-0.102
-258.165	8.653	-0.156	-0.117
-257.151	-66.646	0.286	-0.113
-256.136	-200.000	0.019	0.139
-255.122	238.074	0.095	-0.158
-254.107	193.090	0.018	0.027
-253.092	-200.000	-0.044	-0.235
-252.078	-11.203	-0.056	0.037
-251.063	-200.000	-0.092	0.636
-250.049	800.000	-0.048	-0.180
-249.034	-200.000	0.001	-0.252
-248.019	501.860	0.046	0.105
-247.005	6.999	-0.076	-0.056
-245.990	-141.357	-0.244	-0.025
-244.976	601.263	-0.085	-0.210
-243.961	-96.329	0.407	-0.107
-242.946	21.479	0.195	0.158
-241.932	-4.708	0.087	0.060
-240.917	-200.000	-0.038	0.169
-239.903	101.134	-0.105	0.122
-238.888	34.534	-0.137	-0.119
-237.873	800.000	0.056	0.165
-236.859	-200.000	0.028	0.126
-235.844	187.183	0.246	-0.365
-234.830	800.000	-0.047	-0.146
-233.815	-149.829	0.153	-0.012
-232.800	-159.656	-0.403	-0.022
-231.786	800.000	0.026	0.093
-230.771	-200.000	0.035	-0.163
-229.757	-140.135	-0.157	-0.016
-228.742	33.366	-0.232	0.200
-227.727	800.000	0.091	0.380
-226.713	-200.000	-0.017	-0.326
-225.698	-200.000	-0.037	-0.212
-224.684	-200.000	0.006	-0.090
-223.669	-200.000	-0.036	0.406
-222.655	-200.000	-0.005	0.030
-221.640	396.951	0.058	0.120
-220.625	-168.951	-0.211	-0.008
-219.611	-200.000	0.045	0.486
-218.596	613.940	0.067	0.166
-217.582	-200.000	-0.017	0.238
-216.567	800.000	-0.047	-0.168
-215.552	-72.860	-0.125	-0.046
-214.538	59.739	0.037	-0.036
-213.523	190.391	0.086	-0.128
-212.509	345.151	-0.118	-0.230
-211.494	-30.023	-0.186	0.105
-210.479	-116.351	0.337	-0.062
-209.465	-200.000	0.003	-0.040
-208.450	-72.774	0.194	0.071
-207.436	-98.780	0.263	-0.066
-206.421	727.313	-0.075	0.198
-205.406	272.212	0.188	0.329
-204.392	-50.356	-0.260	-0.122
-203.377	272.910	0.125	-0.219
-202.363	800.000	0.040	-0.135
-201.348	-111.230	-0.156	-0.032
-200.333	778.258	-0.082	0.223
-199.319	169.534	-0.238	0.337
-198.304	-9.399	-0.081	0.053
-197.290	159.087	0.038	-0.052
-196.275	19.373	0.329	0.262
-195.260	664.461	-0.068	0.173
-194.246	295.997	0.117	0.213
-193.231	-60.117	0.134	0.057
-192.217	29.780	-0.143	0.121
-191.202	2.330	0.114	-0.082
-190.187	-169.602	-0.218	-0.008
-189.173	-200.000	0.040	-0.229
-188.158	-87.756	-0.407	0.121
-187.144	250.815	-0.178	0.299
-186.129	80.562	-0.410	0.437
-185.114	800.000	-0.100	0.327
-184.100	271.063	-0.078	-0.136
-183.085	15.073	0.163	0.127
-182.071	-200.000	-0.006	0.147
-181.056	800.000	0.025	-0.086
-180.042	-10.348	0.163	-0.107
-179.027	92.734	-0.325	0.364
-178.012	-44.710	0.384	0.190
-176.998	-160.137	-0.095	-0.005
-175.983	183.806	0.140	0.205
-174.969	158.659	-0.168	-0.231
-173.954	-132.489	-0.016	-0.002
-172.939	-5.992	0.207	-0.141
-171.925	-27.571	0.262	0.151
-170.910	-182.407	0.329	0.006
-169.896	56.308	0.100	-0.096
-168.881	-11.539	0.053	-0.035
-167.866	800.000	0.092	0.257
-166.852	800.000	-0.071	-0.282
-165.837	571.978	0.105	-0.253
-164.823	-200.000	0.031	0.169
-163.808	-137.077	-0.122	-0.014
-162.793	43.750	-0.085	-0.077
-161.779	148.691	0.052	0.069
-160.764	800.000	-0.107	0.318
-159.750	17.044	0.120	-0.094
-158.735	-73.639	0.283	-0.102
-157.720	16.422	-0.085	-0.067
-156.706	800.000	-0.116	0.404
-155.691	-96.185	0.074	0.019
-154.677	-128.290	-0.301	0.042
-153.662	-200.000	-0.025	0.272
-152.647	-118.176	-0.282	0.050
-151.633	-200.000	0.030	-0.373
-150.618	-200.000	0.036	-0.239
-149.604	-200.000	-0.021	-0.444
-148.589	73.129	0.144	0.149
-147.574	154.102	0.064	-0.087
-146.560	131.001	0.053	0.068
-145.545	-74.664	-0.113	-0.040
-144.531	504.394	0.044	0.102
-143.516	-37.901	-0.244	0.128
-142.502	675.355	0.115	0.296
-141.487	-200.000	0.001	-0.073
-140.472	-200.000	-0.017	-0.193
-139.458	-121.296	0.141	-0.023
-138.443	-200.000	-0.015	0.238
-137.429	27.871	-0.124	0.103
-136.414	-5.649	-0.098	0.066
-135.399	-76.818	-0.146	-0.050
-134.385	-102.728	-0.323	-0.076
-133.370	46.903	-0.138	0.127
-132.356	-132.095	0.226	-0.029
-131.341	197.628	-0.158	-0.238
-130.326	-34.071	0.175	0.095
-129.312	-94.779	-0.175	0.047
-128.297	132.490	-0.138	0.176
-127.283	-200.000	-0.025	0.206
-126.268	344.657	-0.036	0.071
-125.253	-200.000	0.006	0.252
-124.239	398.704	0.114	0.236
-123.224	230.485	0.068	-0.110
-122.210	-27.840	0.114	0.065
-121.195	800.000	0.068	0.194
-120.180	-12.468	0.194	-0.125
-119.166	-49.284	0.151	0.071
-118.151	453.195	-0.160	-0.350
-117.137	-28.973	-0.330	0.187
-116.122	-25.257	0.251	-0.147
-115.107	-119.594	-0.200	-0.034
-114.093	544.987	0.027	0.065
-113.078	68.032	-0.134	0.135
-112.064	753.100	-0.103	0.276
-111.049	-98.278	0.045	0.011
-110.034	-200.000	0.044	-0.279
-109.020	-42.137	-0.115	0.058
-108.005	-106.465	0.083	0.018
-106.991	-200.000	0.067	0.000
-105.976	-22.038	0.131	0.078
-104.962	800.000	-0.033	-0.113
-103.947	-200.000	0.038	0.208
-102.932	-21.400	0.267	-0.161
-101.918	-27.922	-0.164	0.094
-100.903	385.878	-0.131	-0.267
-99.889	-190.404	0.378	-0.004
-98.874	-51.197	0.218	-0.101
-97.859	-95.029	-0.350	-0.093
-96.845	64.238	0.109	-0.109
-95.830	-110.317	-0.378	-0.078
-94.816	-77.594	0.204	0.070
-93.801	30.970	-0.087	0.074
-92.786	131.704	0.097	0.124
-91.772	-22.453	-0.234	-0.140
-90.757	60.396	-0.020	-0.019
-89.743	-99.344	0.016	0.004
-88.728	-200.000	-0.122	0.584
-87.713	91.787	-0.125	-0.139
-86.699	6.676	-0.151	0.111
-85.684	-200.000	0.023	-0.121
-84.670	-17.806	-0.138	-0.085
-83.655	-16.129	-0.188	-0.118
-82.640	41.899	-0.220	0.197
-81.626	-49.879	0.429	0.201
-80.611	166.215	0.045	-0.064
-79.597	-74.609	0.395	0.140
-78.582	-200.000	-0.010	-0.080
-77.567	-178.996	0.023	-0.001
-76.553	-108.254	0.050	0.011
-75.538	-165.428	0.115	-0.005
-74.524	-200.000	0.006	0.096
-73.509	285.444	0.169	-0.301
-72.494	81.846	0.072	0.076
-71.480	-65.240	0.163	-0.065
-70.465	118.812	-0.092	0.113
-69.451	-107.572	0.017	-0.004
-68.436	57.608	-0.229	-0.221
-67.422	-200.000	0.022	-0.124
-66.407	-77.768	0.150	0.051
-65.392	111.661	-0.135	-0.161
-64.378	-200.000	-0.038	-0.220
-63.363	-109.392	-0.365	0.076
-62.349	336.890	-0.092	-0.176
-61.334	132.364	-0.875	-1.112
-60.319	481.955	0.127	0.284
-59.305	800.000	-0.293	-0.848
-58.290	689.803	0.331	0.855
-57.276	307.343	0.892	1.639
-56.261	-200.000	97.444	572.958
-55.246	625.591	1406.442	3498.561
-54.232	185.011	2623.254	3837.128
-53.217	113.996	2313.573	2774.283
-52.203	43.574	1923.847	1734.809
-51.188	37.319	1710.796	1494.701
-50.173	34.511	1666.013	1434.436
-49.159	51.742	1714.425	1607.886
-48.144	54.709	1731.863	1646.778
-47.130	37.060	1688.571	1473.080
-46.115	34.204	1673.419	1438.267
-45.100	33.965	1668.510	1432.188
-44.086	33.972	1665.507	1429.606
-43.071	33.950	1663.150	1427.365
-42.057	33.940	1660.703	1425.130
-41.042	33.976	1658.816	1423.728
-40.027	34.025	1656.323	1421.895
-39.013	33.847	1654.910	1419.296
-37.998	33.921	1653.159	1418.291
-36.984	33.922	1651.811	1417.084
-35.969	34.065	1650.012	1416.550
-34.954	34.144	1648.414	1415.710
-33.940	34.080	1646.404	1413.456
-32.925	34.079	1644.968	1412.158
-31.911	33.996	1643.372	1410.114
-30.896	34.138	1641.386	1409.405
-29.881	34.037	1639.742	1407.188
-28.867	34.053	1637.995	1405.755
-27.852	34.022	1636.885	1404.517
-26.838	34.095	1634.887	1403.285
-25.823	34.167	1633.536	1402.601
-24.809	34.166	1632.171	1401.368
-23.794	34.024	1631.293	1399.511
-22.779	34.118	1629.513	1398.622
-21.765	34.116	1627.609	1396.913
-20.750	34.061	1626.004	1395.076
-19.736	34.044	1624.854	1393.914
-18.721	34.087	1623.188	1392.746
-17.706	34.076	1622.059	1391.638
-16.692	34.007	1620.108	1389.404
-15.677	34.085	1618.327	1388.390
-14.663	34.054	1617.565	1387.460
-13.648	34.161	1616.085	1386.913
-12.633	34.073	1614.634	1384.973
-11.619	34.138	1612.731	1383.759
-10.604	34.180	1610.790	1382.343
-9.590	34.150	1609.942	1381.344
-8.575	34.103	1609.220	1380.325
-7.560	34.005	1607.870	1378.403
-6.546	34.028	1606.706	1377.519
-5.531	34.121	1605.247	1376.886
-4.517	34.033	1604.006	1375.130
-3.502	33.981	1603.019	1373.853
-2.487	34.147	1601.563	1373.750
-1.473	33.907	1590.300	1362.310
-0.458	31.168	1571.232	1326.488
0.556	26.540	1570.164	1292.561
1.571	24.050	1594.545	1294.433
2.586	23.464	1607.920	1300.873
3.600	20.917	1555.187	1240.006
4.615	12.962	1445.635	1099.725
5.629	6.201	1381.747	1007.824
6.644	5.069	1373.384	994.425
7.659	4.957	1372.070	992.671
8.673	4.964	1370.969	991.830
9.688	4.921	1369.213	990.199
10.702	4.821	1366.309	987.377
11.717	8.144	1373.113	1013.358
12.731	15.745	1386.899	1072.057
13.746	19.606	1392.184	1100.703
14.761	18.697	1389.136	1092.412
15.775	17.443	1386.621	1082.370
16.790	16.418	1383.862	1073.607
17.804	15.567	1381.556	1066.329
18.819	15.288	1380.029	1063.287
19.834	14.932	1379.056	1060.184
20.848	14.732	1377.323	1057.492
21.863	14.427	1376.397	1054.755
22.877	14.369	1374.760	1053.043
23.892	14.283	1373.991	1051.821
24.907	14.268	1373.246	1051.059
25.921	14.268	1372.871	1050.681
26.936	14.395	1371.478	1050.319
27.950	14.317	1370.800	1049.218
28.965	14.469	1369.358	1048.978
29.980	14.466	1368.628	1048.309
30.994	14.635	1367.212	1048.189
32.009	14.645	1365.639	1046.957
33.023	14.523	1364.603	1045.304
34.038	14.579	1363.178	1044.473
35.053	14.455	1362.338	1042.957
36.067	14.431	1360.889	1041.608
37.082	14.502	1360.237	1041.462
38.096	14.580	1358.894	1040.828
39.111	14.543	1358.214	1039.983
40.126	14.404	1357.474	1038.456
41.140	14.333	1356.375	1037.081
42.155	14.279	1355.475	1035.965
43.169	14.206	1356.008	1035.825
44.184	14.185	1355.103	1034.914
45.199	14.261	1355.003	1035.218
46.213	14.312	1354.012	1034.687
47.228	14.475	1353.189	1034.975
48.242	14.454	1352.462	1034.203
49.257	14.457	1350.464	1032.602
50.271	14.414	1349.182	1031.260
51.286	14.453	1347.461	1030.098
52.301	14.453	1346.389	1029.185
53.315	14.435	1344.984	1027.912
54.330	14.282	1344.672	1026.637
55.344	14.247	1343.198	1025.204
56.359	14.229	1342.437	1024.425
57.374	14.299	1341.314	1023.903
58.388	14.280	1340.406	1023.004
59.403	14.128	1339.995	1021.666
60.417	14.081	1339.656	1021.028
61.432	14.118	1338.616	1020.373
62.447	14.175	1337.591	1019.851
63.461	14.140	1336.218	1018.498
64.476	14.046	1335.705	1017.441
65.490	14.075	1333.952	1016.195
66.505	14.195	1332.192	1015.495
67.520	14.206	1331.091	1014.637
68.534	14.229	1330.318	1014.096
69.549	14.115	1329.354	1012.579
70.563	14.025	1328.927	1011.616
71.578	14.005	1327.001	1009.939
72.593	13.947	1326.243	1008.919
73.607	14.040	1325.467	1008.804
74.622	14.022	1324.715	1008.035
75.636	13.995	1323.941	1007.191
76.651	14.013	1323.138	1006.599
77.666	14.003	1322.587	1006.031
78.680	14.032	1322.459	1006.022
79.695	14.116	1321.480	1005.695
80.709	14.082	1320.916	1004.974
81.724	14.204	1319.854	1004.815
82.739	14.372	1318.388	1004.618
83.753	14.415	1317.996	1004.491
84.768	14.388	1317.575	1003.917
85.782	14.444	1316.097	1003.042
86.797	14.367	1315.228	1001.830
87.812	14.334	1313.673	1000.356
88.826	14.367	1312.621	999.664
89.841	14.457	1311.159	998.999
90.855	14.432	1310.475	998.239
91.870	14.439	1309.606	997.533
92.884	14.520	1308.614	997.173
93.899	14.490	1308.633	996.919
94.914	14.584	1307.172	996.281
95.928	14.583	1306.812	995.912
96.943	14.447	1305.595	994.088
97.957	14.361	1304.660	992.776
98.972	14.444	1303.642	992.405
99.987	14.431	1302.403	991.300
101.001	14.453	1301.656	990.770
102.016	14.581	1300.395	990.482
103.030	14.612	1299.577	989.961
104.045	14.454	1298.978	988.476
105.060	14.408	1297.760	987.192
106.074	14.382	1295.772	985.434
107.089	14.271	1294.939	984.060
108.103	14.154	1293.893	982.489
109.118	14.253	1292.142	981.654
110.133	14.170	1291.009	980.216
111.147	14.214	1289.392	979.161
112.162	14.182	1287.965	977.801
113.176	14.191	1287.256	977.230
114.191	14.236	1286.147	976.568
115.206	14.242	1284.977	975.629
116.220	14.303	1283.395	974.700
117.235	14.333	1282.620	974.197
118.249	14.277	1281.834	973.190
119.264	14.229	1280.812	972.047
120.279	14.261	1278.994	970.764
121.293	14.224	1278.518	970.102
122.308	14.113	1277.228	968.395
123.322	14.169	1276.376	967.985
124.337	14.168	1274.952	966.817
125.352	14.180	1273.594	965.771
126.366	14.087	1272.747	964.501
127.381	14.113	1271.936	963.950
128.395	14.246	1270.523	963.566
129.410	14.210	1269.858	962.771
130.424	14.177	1268.926	961.787
131.439	14.280	1268.091	961.661
132.454	14.352	1267.325	961.414
133.468	14.336	1266.264	960.431
134.483	14.375	1265.694	960.140
135.497	14.344	1264.461	958.938
136.512	14.404	1263.049	958.131
137.527	14.296	1262.081	956.688
138.541	14.316	1260.369	955.424
139.556	14.389	1259.265	954.919
140.570	14.297	1258.474	953.709
141.585	14.477	1257.078	953.597
142.600	14.336	1256.409	952.199
143.614	14.608	1255.117	952.689
144.629	14.633	1254.107	951.981
145.643	14.644	1252.641	950.843
146.658	14.583	1251.366	949.443
147.673	14.346	1250.579	947.414
148.687	14.343	1249.263	946.321
149.702	14.334	1247.870	945.127
150.716	14.219	1246.580	943.417
151.731	14.301	1245.245	942.787
152.746	14.436	1244.020	942.541
153.760	14.426	1242.977	941.612
154.775	14.471	1241.669	940.788
155.789	14.456	1240.958	940.080
156.804	14.560	1239.547	939.513
157.819	14.526	1239.098	938.903
158.833	14.654	1237.957	938.672
159.848	14.676	1237.080	938.051
160.862	14.694	1236.263	937.449
161.877	14.524	1235.090	935.521
162.892	14.523	1233.945	934.566
163.906	14.390	1233.078	933.080
164.921	14.458	1232.120	932.657
165.935	14.526	1231.307	932.334
166.950	14.529	1230.858	931.933
167.964	14.561	1230.034	931.403
168.979	14.598	1229.221	930.910
169.994	14.624	1228.318	930.292
171.008	14.670	1227.800	930.074
172.023	14.710	1226.633	929.328
173.037	14.688	1226.092	928.715
174.052	14.628	1225.375	927.753
175.067	14.520	1224.495	926.409
176.081	14.488	1223.059	925.059
177.096	14.501	1222.456	924.594
178.110	14.528	1221.744	924.127
179.125	14.569	1219.974	922.932
180.140	14.633	1218.949	922.428
181.154	14.590	1217.779	921.221
182.169	14.748	1216.382	920.959
183.183	14.759	1215.427	920.212
184.198	14.863	1213.948	919.585
185.213	14.761	1213.026	918.241
186.227	14.866	1211.802	917.811
187.242	14.811	1211.173	916.955
188.256	14.833	1209.918	916.043
189.271	14.840	1208.954	915.267
190.286	14.721	1207.722	913.605
191.300	14.643	1206.873	912.456
192.315	14.494	1206.118	910.991
193.329	14.569	1205.359	910.744
194.344	14.629	1204.824	910.590
195.359	14.813	1204.031	910.908
196.373	14.802	1203.960	910.714
197.388	14.823	1203.561	910.449
198.402	14.946	1202.916	910.549
199.417	15.005	1202.342	910.357
200.432	15.049	1201.324	909.743
201.446	15.005	1200.514	908.813
202.461	15.104	1199.838	908.753
203.475	15.166	1198.529	908.021
204.490	15.076	1197.420	906.611
205.504	15.088	1195.878	905.426
206.519	15.074	1194.347	904.112
207.534	14.937	1193.407	902.585
208.548	15.053	1192.485	902.429
209.563	14.994	1191.623	901.384
210.577	14.959	1191.076	900.698
211.592	15.079	1190.004	900.457
212.607	15.218	1189.290	900.584
213.621	15.113	1188.783	899.553
214.636	15.159	1187.693	898.894
215.650	15.120	1186.799	897.929
216.665	15.239	1185.366	897.407
217.680	15.336	1184.717	897.351
218.694	15.323	1184.114	896.746
219.709	15.382	1183.110	896.224
220.723	15.197	1182.735	894.869
221.738	15.307	1181.882	894.735
222.753	15.326	1181.073	894.146
223.767	15.276	1180.477	893.345
224.782	15.207	1180.258	892.734
225.796	15.479	1178.980	893.139
226.811	15.459	1178.264	892.409
227.826	15.344	1177.863	891.414
228.840	15.300	1177.447	890.790
229.855	15.394	1176.331	890.363
230.869	15.416	1175.448	889.734
231.884	15.316	1174.542	888.437
232.899	15.201	1173.617	887.053
233.913	15.336	1172.875	887.128
234.928	15.226	1172.424	886.124
235.942	15.323	1171.166	885.610
236.957	15.274	1170.662	884.889
237.972	15.339	1169.735	884.456
238.986	15.316	1168.940	883.653
240.001	15.278	1168.601	883.120
241.015	15.321	1167.403	882.362
242.030	15.476	1166.643	882.523
243.045	15.468	1165.656	881.658
244.059	15.393	1165.169	880.815
245.074	15.455	1164.605	880.637
246.088	15.465	1164.178	880.290
247.103	15.583	1162.749	879.748
248.117	15.606	1162.465	879.578
249.132	15.655	1161.630	879.122
250.147	15.725	1160.963	878.907
251.161	15.807	1160.023	878.545
252.176	15.798	1159.519	878.041
253.190	15.856	1159.206	878.026
254.205	15.884	1158.490	877.552
255.220	15.955	1157.890	877.389
256.234	16.011	1157.066	876.980
257.249	15.994	1156.055	876.048
258.263	15.953	1155.528	875.355
259.278	15.974	1155.073	875.045
260.293	16.041	1154.417	874.817
261.307	16.125	1153.582	874.544
262.322	16.126	1153.444	874.365
263.336	16.040	1152.457	873.095
264.351	16.136	1151.887	873.081
265.366	16.159	1151.207	872.607
266.380	16.161	1150.619	872.096
267.395	16.143	1149.585	871.143
268.409	16.125	1148.930	870.477
269.424	16.029	1148.301	869.427
270.439	16.046	1148.033	869.234
271.453	16.206	1146.701	868.976
272.468	16.075	1145.701	867.467
273.482	16.092	1144.914	866.883
274.497	16.038	1144.640	866.317
275.512	16.104	1143.655	865.836
276.526	16.103	1142.726	865.051
277.541	16.022	1142.461	864.361
278.555	16.091	1141.753	864.101
279.570	16.176	1141.119	863.979
280.585	16.303	1140.204	863.859
281.599	16.214	1139.434	862.743
282.614	16.128	1138.582	861.581
283.628	16.183	1137.243	860.776
284.643	16.226	1136.503	860.356
285.657	16.302	1135.591	859.980
286.672	16.242	1134.559	858.813
287.687	16.129	1134.108	857.821
288.701	16.357	1132.655	857.804
289.716	16.329	1131.883	857.002
290.730	16.350	1131.444	856.700
291.745	16.331	1130.819	856.057
292.760	16.269	1130.231	855.221
293.774	16.457	1129.784	855.761
294.789	16.376	1129.407	854.988
295.803	16.456	1128.262	854.452
296.818	16.305	1127.696	853.183
297.833	16.418	1126.910	853.083
298.847	16.358	1126.494	852.391
299.862	16.447	1125.465	851.985
300.876	16.484	1124.684	851.506
301.891	16.546	1124.121	851.314
302.906	16.599	1123.152	850.774
303.920	16.672	1122.238	850.371
304.935	16.664	1122.252	850.269
305.949	16.685	1121.332	849.599
306.964	16.694	1120.805	849.170
307.979	16.782	1119.805	848.778
308.993	16.638	1119.201	847.522
310.008	16.648	1118.447	846.928
311.022	16.765	1117.886	847.014
312.037	16.734	1116.982	846.100
313.052	16.589	1116.197	844.706
314.066	16.638	1115.028	843.992
315.081	16.625	1114.049	843.108
316.095	16.609	1113.232	842.340
317.110	16.645	1112.726	842.061
318.125	16.557	1112.291	841.219
319.139	16.501	1111.590	840.333
320.154	16.548	1110.738	839.850
321.168	16.602	1110.157	839.608
322.183	16.611	1109.438	839.030
323.197	16.735	1108.942	839.196
324.212	16.755	1108.161	838.631
325.227	16.727	1107.874	838.200
326.241	16.704	1107.005	837.356
327.256	16.708	1106.478	836.904
328.270	16.610	1105.518	835.618
329.285	16.760	1104.327	835.381
330.300	16.695	1103.404	834.291
331.314	16.773	1102.537	833.947
332.329	16.689	1101.573	832.732
333.343	16.780	1100.852	832.560
334.358	16.771	1100.270	832.000
335.373	16.746	1099.792	831.444
336.387	16.868	1098.618	831.080
337.402	16.934	1097.379	830.390
338.416	16.869	1097.450	830.052
339.431	16.984	1096.251	829.635
340.446	17.058	1095.626	829.451
341.460	17.068	1095.417	829.268
342.475	17.045	1094.508	828.397
343.489	17.188	1093.517	828.267
344.504	17.225	1092.226	827.398
345.519	17.236	1091.487	826.819
346.533	17.156	1090.941	825.942
347.548	17.233	1090.160	825.654
348.562	17.234	1089.347	824.966
349.577	17.228	1088.583	824.290
350.592	17.123	1087.781	823.099
351.606	16.998	1087.183	821.966
352.621	17.080	1086.362	821.673
353.635	17.084	1085.762	821.162
354.650	17.064	1084.970	820.398
355.665	17.094	1084.374	820.016
356.679	17.157	1083.453	819.554
357.694	17.207	1083.013	819.389
358.708	17.190	1082.530	818.867
359.723	17.243	1081.731	818.444
360.738	17.274	1081.412	818.281
361.752	17.357	1080.360	817.811
362.767	17.408	1079.939	817.666
363.781	17.368	1079.102	816.769
364.796	17.281	1079.259	816.395
365.810	17.439	1078.267	816.331
366.825	17.465	1077.727	815.977
367.840	17.542	1077.313	815.962
368.854	17.519	1076.949	815.503
369.869	17.621	1075.645	814.931
370.883	17.553	1074.869	813.943
371.898	17.670	1073.659	813.514
372.913	17.589	1073.371	812.838
373.927	17.497	1073.294	812.267
374.942	17.590	1072.836	812.293
375.956	17.607	1072.319	811.913
376.971	17.638	1071.276	811.195
377.986	17.724	1070.906	811.257
379.000	17.694	1070.392	810.652
380.015	17.877	1070.004	811.157
381.029	17.780	1069.180	809.996
382.044	17.807	1068.376	809.446
383.059	17.757	1068.040	808.884
384.073	17.831	1066.937	808.327
385.088	17.894	1066.086	807.908
386.102	17.890	1064.895	806.916
387.117	17.791	1064.177	805.834
388.132	17.738	1062.745	804.425
389.146	17.783	1062.176	804.137
390.161	17.712	1061.765	803.421
391.175	17.796	1060.904	803.091
392.190	17.739	1060.292	802.288
393.205	17.848	1059.746	802.320
394.219	17.760	1059.427	801.593
395.234	17.857	1058.028	800.919
396.248	17.758	1057.105	799.682
397.263	17.807	1056.089	799.074
398.278	17.736	1055.346	798.109
399.292	17.779	1054.585	797.663
400.307	17.760	1054.049	797.100
401.321	17.713	1053.308	796.248
402.336	17.722	1052.329	795.481
403.350	17.755	1051.775	795.148
404.365	17.822	1051.282	795.014
405.380	17.850	1050.667	794.607
406.394	17.903	1049.728	794.077
407.409	17.906	1048.971	793.444
408.423	18.111	1048.374	793.878
409.438	18.062	1047.736	793.096
410.453	18.159	1046.831	792.792
411.467	18.188	1046.514	792.616
412.482	18.146	1045.902	791.885
413.496	18.148	1045.233	791.321
414.511	18.131	1044.902	790.918
415.526	18.426	1044.169	791.659
416.540	18.313	1043.801	790.787
417.555	18.270	1043.412	790.225
418.569	18.357	1042.657	789.982
419.584	18.268	1042.599	789.459
420.599	18.282	1041.954	788.966
421.613	147.654	1400.403	1789.644
422.628	135.037	1452.608	1789.759
