DTS Sentinel unit serial number:	SN413079Multiplexer serial number:	ORYXHardware model number:	OX4-SRSoftware version number:	ORYX F/W v4.00 Oryx Data Collector v3.7.2.0data status	okinstallation	princeton_trtdifferential loss correction	single-endedforward channel	channel 2reverse channel	N/Adate	2019/09/11time	22:01:10forward acquisition time	60.00reverse acquisition time	0.00gamma	496.2192k internal	0.2324k external	0.2324temperature offset calibration	1.0072default loss term (dB/km)	0.3790temperature slope calibration	1.0000multiplexer offset coefficient	1.0000multiplexer slope coefficient	1.0000fibre end	0.00T internal ref (°C)	35.50T ext. ref 1 (°C)	1.76T ext. ref 2 (°C)	29.50length (m)	temperature (°C)	Stokes	anti-Stokes-747.200	-112.599	0.401	0.081
-746.185	115.021	-0.161	0.198
-745.171	570.065	0.070	-0.173
-744.156	627.172	-0.112	0.284
-743.142	-76.291	0.081	0.029
-742.127	115.582	0.055	0.068
-741.112	800.000	-0.059	-0.232
-740.098	-107.448	-0.161	0.036
-739.083	-17.370	0.198	0.126
-738.069	-200.000	0.008	-0.110
-737.054	569.532	0.073	-0.178
-736.039	154.885	-0.162	0.224
-735.025	67.648	0.135	-0.139
-734.010	-32.037	-0.189	-0.107
-732.996	-200.000	-0.025	0.128
-731.981	800.000	0.023	-0.072
-730.966	-200.000	0.221	-0.001
-729.952	188.799	-0.106	-0.159
-728.937	202.351	-0.072	-0.111
-727.923	193.307	0.065	0.099
-726.908	-91.196	-0.088	0.026
-725.894	800.000	-0.055	0.186
-724.879	73.204	-0.255	0.269
-723.864	33.512	0.118	-0.103
-722.850	-200.000	-0.001	0.035
-721.835	-103.469	0.382	0.091
-720.821	38.959	0.077	-0.069
-719.806	-200.000	-0.060	-0.429
-718.791	598.377	-0.136	-0.340
-717.777	262.645	0.124	-0.218
-716.762	536.449	-0.060	-0.145
-715.748	541.551	0.135	-0.325
-714.733	183.896	0.210	-0.314
-713.718	27.622	-0.168	-0.142
-712.704	205.353	-0.140	-0.220
-711.689	65.872	0.016	0.016
-710.675	-64.576	0.339	0.139
-709.660	-200.000	-0.006	-0.117
-708.645	91.779	-0.142	-0.161
-707.631	-200.000	0.009	0.195
-706.616	-200.000	-0.034	-0.267
-705.602	-55.321	0.124	-0.056
-704.587	-34.496	0.155	-0.085
-703.572	-44.180	0.202	0.102
-702.558	-200.000	-0.032	-0.217
-701.543	99.380	-0.014	0.016
-700.529	70.924	-0.066	-0.069
-699.514	800.000	0.100	-0.326
-698.499	162.973	-0.093	0.132
-697.485	800.000	0.106	0.413
-696.470	-200.000	0.027	-0.121
-695.456	-137.741	0.082	0.009
-694.441	-43.100	-0.256	0.131
-693.426	167.857	0.067	0.096
-692.412	-200.000	-0.034	0.231
-691.397	-36.428	-0.119	0.064
-690.383	-200.000	0.009	-0.090
-689.368	-81.552	0.178	0.059
-688.354	-200.000	-0.000	-0.135
-687.339	263.837	-0.117	-0.206
-686.324	-70.934	0.195	-0.074
-685.310	68.978	-0.196	-0.203
-684.295	-17.654	-0.049	-0.031
-683.281	-200.000	0.030	0.307
-682.266	199.856	0.105	-0.162
-681.251	-37.410	0.225	0.121
-680.237	-200.000	0.008	-0.176
-679.222	-42.027	-0.097	0.050
-678.208	-200.000	0.010	0.133
-677.193	-200.000	-0.007	-0.084
-676.178	89.725	0.135	0.152
-675.164	15.593	-0.118	0.093
-674.149	-33.334	0.061	0.034
-673.135	45.309	-0.086	0.080
-672.120	-99.884	-0.217	0.054
-671.105	-16.598	0.180	-0.115
-670.091	62.485	-0.308	0.310
-669.076	381.337	0.192	-0.396
-668.062	-107.943	0.059	-0.013
-667.047	110.155	0.088	0.106
-666.032	-164.278	0.277	0.013
-665.018	506.411	-0.083	-0.194
-664.003	-54.641	0.040	-0.018
-662.989	2.384	-0.178	0.129
-661.974	-108.374	-0.259	-0.056
-660.959	-200.000	-0.024	-0.359
-659.945	64.662	0.189	0.192
-658.930	-200.000	0.007	0.245
-657.916	-44.641	-0.153	-0.077
-656.901	800.000	0.136	-0.523
-655.886	-122.432	0.110	-0.018
-654.872	-165.933	-0.392	0.017
-653.857	69.750	0.173	-0.180
-652.843	-132.648	-0.076	-0.010
-651.828	-25.600	0.358	0.212
-650.814	-19.389	0.280	-0.174
-649.799	186.769	-0.142	0.212
-648.784	-121.879	-0.220	-0.037
-647.770	124.364	0.133	-0.169
-646.755	490.836	-0.119	-0.275
-645.741	-61.613	-0.096	-0.040
-644.726	-171.405	0.079	0.003
-643.711	-7.510	-0.031	-0.021
-642.697	-86.059	0.311	-0.097
-641.682	-144.444	-0.393	0.037
-640.668	800.000	0.060	-0.181
-639.653	-200.000	0.006	0.130
-638.638	-11.934	-0.150	-0.099
-637.624	228.169	0.023	-0.037
-636.609	121.783	0.190	-0.238
-635.595	-118.577	0.113	0.020
-634.580	350.573	0.127	-0.252
-633.565	-68.865	-0.112	-0.043
-632.551	-200.000	0.044	0.237
-631.536	-165.458	-0.319	0.014
-630.522	-92.891	0.069	0.019
-629.507	255.859	0.080	-0.137
-628.492	-168.806	-0.113	0.004
-627.478	-200.000	-0.027	-0.176
-626.463	-200.000	0.034	-0.324
-625.449	-146.436	0.313	0.027
-624.434	-5.641	-0.082	-0.057
-623.419	-200.000	-0.002	0.121
-622.405	248.936	-0.119	0.203
-621.390	-41.570	-0.154	-0.080
-620.376	-200.000	0.021	-0.318
-619.361	45.973	-0.384	-0.357
-618.346	-126.810	-0.106	-0.016
-617.332	275.775	0.124	-0.222
-616.317	-16.680	-0.249	-0.158
-615.303	-200.000	-0.026	0.132
-614.288	-131.725	0.262	0.035
-613.273	44.392	-0.094	-0.087
-612.259	-125.641	-0.116	0.018
-611.244	79.203	0.035	-0.038
-610.230	-4.752	0.492	-0.341
-609.215	-32.346	-0.062	-0.035
-608.201	377.842	0.155	0.317
-607.186	800.000	0.074	0.243
-606.171	799.917	-0.091	-0.252
-605.157	80.762	0.265	-0.286
-604.142	800.000	0.014	0.046
-603.128	83.813	-0.061	0.067
-602.113	-30.145	-0.157	0.090
-601.098	-94.071	0.426	0.117
-600.084	38.195	0.220	-0.197
-599.069	-28.744	-0.196	-0.113
-598.055	-200.000	0.004	0.292
-597.040	357.133	0.128	0.257
-596.025	-200.000	0.042	-0.210
-595.011	-200.000	0.012	0.055
-593.996	-24.573	-0.146	-0.087
-592.982	-200.000	-0.083	0.765
-591.967	-116.711	0.201	0.037
-590.952	9.428	-0.194	0.147
-589.938	296.391	-0.147	-0.271
-588.923	-58.104	0.075	-0.033
-587.909	279.640	-0.171	-0.306
-586.894	800.000	0.023	-0.073
-585.879	184.995	0.172	-0.256
-584.865	723.535	0.020	-0.054
-583.850	-200.000	-0.032	0.223
-582.836	-38.712	0.270	-0.143
-581.821	-52.140	0.493	-0.229
-580.806	-85.104	-0.335	0.105
-579.792	328.986	-0.213	0.410
-578.777	-124.843	-0.194	-0.030
-577.763	-200.000	0.069	-0.350
-576.748	-88.965	0.300	-0.089
-575.733	800.000	0.081	-0.275
-574.719	137.657	0.164	-0.215
-573.704	-200.000	0.052	0.274
-572.690	800.000	0.057	0.228
-571.675	102.374	0.241	-0.282
-570.661	-103.927	0.093	-0.022
-569.646	-31.071	-0.118	-0.066
-568.631	-81.110	0.318	-0.105
-567.617	25.140	0.046	-0.038
-566.602	165.920	0.243	0.345
-565.588	-60.767	-0.126	0.053
-564.573	367.815	0.130	0.264
-563.558	707.605	0.120	-0.318
-562.544	16.775	-0.201	-0.159
-561.529	-157.107	-0.202	-0.012
-560.515	-72.152	-0.102	-0.038
-559.500	238.200	0.183	0.305
-558.485	723.180	0.137	0.366
-557.471	-166.484	-0.244	0.010
-556.456	-94.258	0.248	-0.068
-555.442	-79.480	-0.121	0.041
-554.427	538.853	0.059	-0.141
-553.412	-200.000	0.021	0.119
-552.398	-16.033	-0.252	-0.161
-551.383	-200.000	0.007	-0.109
-550.369	-118.065	0.401	0.072
-549.354	187.994	0.041	-0.062
-548.339	379.335	0.069	0.141
-547.325	642.897	0.013	0.033
-546.310	-108.127	-0.440	0.095
-545.296	486.895	0.030	0.069
-544.281	-37.365	0.355	0.190
-543.266	20.192	-0.039	-0.031
-542.252	363.148	0.075	0.150
-541.237	800.000	-0.063	0.190
-540.223	-70.919	-0.043	0.016
-539.208	149.302	-0.183	0.248
-538.193	-125.038	-0.047	-0.007
-537.179	-200.000	-0.044	0.215
-536.164	-141.739	-0.098	-0.010
-535.150	-200.000	-0.025	0.123
-534.135	-56.362	-0.173	-0.077
-533.121	800.000	-0.021	-0.068
-532.106	3.661	0.298	0.217
-531.091	-161.344	0.250	-0.013
-530.077	-95.964	0.291	0.077
-529.062	217.293	-0.090	-0.144
-528.048	626.760	-0.135	-0.341
-527.033	152.368	0.040	0.054
-526.018	-200.000	0.013	-0.215
-525.004	-112.787	0.339	-0.067
-523.989	111.147	-0.180	-0.217
-522.975	-83.965	-0.164	-0.052
-521.960	99.521	-0.129	-0.150
-520.945	-200.000	-0.051	0.306
-519.931	-200.000	-0.067	-0.298
-518.916	438.388	-0.071	0.154
-517.902	-165.469	0.266	0.012
-516.887	193.915	-0.273	-0.413
-515.872	-99.939	0.024	-0.006
-514.858	77.419	0.221	-0.235
-513.843	-63.339	-0.091	-0.037
-512.829	81.742	-0.088	0.096
-511.814	-10.307	0.284	0.188
-510.799	800.000	-0.066	-0.288
-509.785	150.181	-0.106	0.144
-508.770	-200.000	-0.039	0.311
-507.756	800.000	0.087	-0.362
-506.741	381.532	-0.034	-0.070
-505.726	-86.687	-0.182	0.056
-504.712	-17.725	-0.225	0.141
-503.697	131.570	-0.069	-0.089
-502.683	-200.000	-0.000	-0.086
-501.668	800.000	0.047	-0.132
-500.653	421.450	-0.096	0.207
-499.639	65.195	-0.146	-0.148
-498.624	-159.987	0.204	-0.011
-497.610	330.898	-0.138	-0.266
-496.595	-118.794	0.276	0.049
-495.581	142.177	-0.175	0.232
-494.566	-98.846	0.268	0.068
-493.551	-56.414	-0.217	-0.096
-492.537	172.403	-0.160	0.230
-491.522	191.990	0.208	-0.314
-490.508	35.035	0.292	0.255
-489.493	-76.754	-0.115	-0.040
-488.478	-156.202	-0.229	-0.014
-487.464	-117.224	-0.161	-0.029
-486.449	-200.000	0.059	-0.363
-485.435	-200.000	-0.011	-0.185
-484.420	-6.739	-0.214	0.145
-483.405	-200.000	0.088	0.421
-482.391	245.786	-0.094	0.158
-481.376	196.708	0.162	-0.247
-480.362	160.340	0.112	-0.156
-479.347	233.235	0.161	-0.265
-478.332	800.000	-0.048	-0.166
-477.318	-200.000	-0.007	-0.536
-476.303	-120.774	-0.250	0.042
-475.289	-74.469	-0.384	0.138
-474.274	-200.000	-0.071	0.487
-473.259	800.000	0.042	0.142
-472.245	-77.783	-0.248	-0.086
-471.230	-82.311	0.345	0.112
-470.216	800.000	0.086	0.338
-469.201	-20.593	-0.058	0.035
-468.186	-200.000	0.023	-0.212
-467.172	665.976	0.054	0.140
-466.157	263.266	0.085	-0.148
-465.143	800.000	-0.066	0.284
-464.128	4.352	-0.092	-0.068
-463.113	-123.163	0.136	-0.022
-462.099	-150.569	0.177	-0.014
-461.084	-58.267	-0.183	-0.080
-460.070	333.901	-0.059	0.113
-459.055	-109.054	-0.459	0.097
-458.040	107.877	-0.038	-0.045
-457.026	-42.648	-0.224	-0.114
-456.011	720.593	-0.077	0.203
-454.997	-168.259	0.340	0.013
-453.982	130.749	0.192	-0.245
-452.968	-104.233	0.114	0.026
-451.953	111.076	0.173	-0.207
-450.938	800.000	-0.032	-0.126
-449.924	-63.181	-0.304	0.125
-448.909	5.182	-0.345	0.253
-447.895	-200.000	-0.002	-0.212
-446.880	23.656	0.337	0.277
-445.865	-38.733	0.181	0.095
-444.851	250.130	-0.003	-0.006
-443.836	-86.099	-0.280	-0.086
-442.822	443.172	-0.166	-0.363
-441.807	-200.000	-0.029	-0.158
-440.792	-200.000	-0.005	-0.041
-439.778	-108.521	0.107	-0.023
-438.763	76.394	0.138	-0.146
-437.749	-75.122	0.113	-0.040
-436.734	-200.000	-0.077	-0.428
-435.719	-200.000	0.041	-0.201
-434.705	-59.093	-0.172	-0.074
-433.690	405.123	0.083	-0.175
-432.676	-58.486	0.132	-0.057
-431.661	-0.975	0.137	-0.096
-430.646	-83.281	0.179	-0.057
-429.632	-38.701	0.168	0.088
-428.617	147.584	-0.077	-0.103
-427.603	-13.222	-0.202	0.131
-426.588	704.942	0.038	0.099
-425.573	-1.468	0.176	0.124
-424.559	-200.000	-0.013	0.207
-423.544	-200.000	0.021	-0.232
-422.530	54.769	-0.316	0.304
-421.515	28.012	-0.150	0.126
-420.500	-47.620	-0.177	-0.086
-419.486	-132.813	0.068	-0.009
-418.471	800.000	0.076	-0.277
-417.457	152.378	-0.102	-0.138
-416.442	-124.214	-0.408	-0.064
-415.428	-200.000	0.009	0.075
-414.413	-200.000	0.135	0.000
-413.398	293.814	0.045	0.082
-412.384	-177.833	-0.370	-0.009
-411.369	-124.638	0.045	-0.007
-410.355	-200.000	0.013	-0.171
-409.340	-84.238	0.087	0.027
-408.325	800.000	0.065	-0.207
-407.311	16.747	0.111	-0.088
-406.296	160.254	0.063	0.088
-405.282	-66.820	-0.230	-0.091
-404.267	-67.957	0.289	-0.113
-403.252	-97.575	-0.137	-0.035
-402.238	104.103	0.132	0.155
-401.223	85.373	0.153	0.167
-400.209	-200.000	0.010	-0.172
-399.194	141.779	-0.109	-0.144
-398.179	-200.000	0.012	0.076
-397.165	800.000	-0.118	0.383
-396.150	-152.261	-0.261	-0.019
-395.136	536.296	-0.133	-0.314
-394.121	482.955	0.108	-0.244
-393.106	199.030	-0.130	-0.198
-392.092	-59.189	-0.195	-0.084
-391.077	140.057	0.177	0.232
-390.063	-59.398	0.207	-0.089
-389.048	-200.000	0.013	0.116
-388.033	154.447	-0.092	-0.126
-387.019	-36.882	0.070	-0.037
-386.004	-36.434	-0.033	-0.018
-384.990	-142.970	0.320	0.031
-383.975	-19.227	0.117	-0.072
-382.960	9.424	-0.151	0.113
-381.946	70.310	0.182	0.187
-380.931	129.930	-0.310	0.395
-379.917	295.000	-0.106	0.193
-378.902	-200.000	-0.017	-0.152
-377.888	113.853	-0.028	-0.034
-376.873	123.679	0.129	-0.161
-375.858	-200.000	0.061	-0.321
-374.844	-44.318	0.232	0.116
-373.829	796.280	0.098	-0.267
-372.815	-200.000	-0.007	-0.229
-371.800	30.970	-0.215	-0.183
-370.785	-0.998	-0.111	0.078
-369.771	-200.000	0.024	-0.226
-368.756	-200.000	0.016	-0.135
-367.742	-200.000	0.006	0.199
-366.727	-125.470	-0.504	-0.076
-365.712	-10.870	-0.186	0.122
-364.698	-74.424	-0.134	-0.048
-363.683	-200.000	0.007	0.185
-362.669	-200.000	-0.040	0.212
-361.654	143.171	0.128	-0.169
-360.639	800.000	-0.040	-0.142
-359.625	-60.287	-0.209	0.088
-358.610	800.000	0.062	0.214
-357.596	800.000	0.036	-0.137
-356.581	-36.470	0.148	0.079
-355.566	-38.986	-0.138	0.072
-354.552	-200.000	-0.042	0.279
-353.537	-200.000	-0.079	0.367
-352.523	-70.602	0.129	0.048
-351.508	-200.000	0.037	-0.452
-350.493	50.653	-0.024	0.023
-349.479	-166.769	-0.190	-0.008
-348.464	-76.828	0.295	0.103
-347.450	98.803	0.107	0.122
-346.435	-200.000	0.017	0.276
-345.420	148.152	-0.127	0.170
-344.406	-24.180	0.303	0.180
-343.391	324.254	0.100	0.189
-342.377	-200.000	-0.031	0.212
-341.362	-127.128	0.244	-0.036
-340.348	-78.498	0.284	-0.097
-339.333	-114.801	0.143	0.027
-338.318	256.246	0.267	0.455
-337.304	-200.000	-0.014	0.211
-336.289	173.643	-0.046	0.065
-335.275	800.000	-0.097	0.306
-334.260	-29.312	-0.205	0.117
-333.245	-169.828	-0.185	-0.007
-332.231	-108.820	0.059	0.012
-331.216	62.541	0.144	0.143
-330.202	-200.000	-0.010	-0.112
-329.187	335.857	0.016	-0.030
-328.172	-39.833	-0.214	0.111
-327.158	-34.590	-0.140	-0.076
-326.143	-98.662	0.339	-0.086
-325.129	18.774	0.190	-0.151
-324.114	253.805	0.149	-0.253
-323.099	-55.711	0.117	-0.052
-322.085	-200.000	-0.010	-0.308
-321.070	800.000	-0.088	0.261
-320.056	-200.000	-0.012	0.096
-319.041	21.380	0.139	0.112
-318.026	800.000	-0.100	0.323
-317.012	105.012	0.033	-0.039
-315.997	168.322	0.075	0.106
-314.983	154.130	-0.072	0.098
-313.968	-168.733	0.047	0.002
-312.953	47.542	-0.131	0.121
-311.939	-157.691	0.205	0.012
-310.924	124.150	0.129	0.161
-309.910	378.120	-0.087	-0.176
-308.895	43.310	-0.116	-0.106
-307.880	-200.000	-0.236	-0.000
-306.866	23.115	-0.181	0.148
-305.851	-103.923	-0.645	0.149
-304.837	-200.000	-0.019	-0.141
-303.822	79.492	0.297	-0.316
-302.807	-57.315	-0.299	0.131
-301.793	100.708	0.075	-0.086
-300.778	-104.698	-0.311	0.071
-299.764	-80.952	0.151	0.050
-298.749	-97.119	0.131	-0.034
-297.735	-117.739	0.119	0.021
-296.720	-62.890	0.372	0.153
-295.705	22.795	-0.078	0.063
-294.691	15.881	0.152	-0.119
-293.676	-200.000	-0.060	-0.449
-292.662	-118.207	-0.198	0.035
-291.647	-200.000	-0.014	0.084
-290.632	-200.000	-0.007	-0.033
-289.618	-78.975	-0.321	-0.108
-288.603	-137.801	-0.166	0.018
-287.589	-200.000	-0.006	0.154
-286.574	224.666	-0.088	-0.141
-285.559	-200.000	0.000	-0.100
-284.545	5.282	-0.181	-0.132
-283.530	374.848	-0.226	0.456
-282.516	364.726	-0.064	0.128
-281.501	539.195	-0.056	0.133
-280.486	214.667	0.078	0.123
-279.472	101.369	0.162	0.187
-278.457	800.000	0.080	0.238
-277.443	-124.820	-0.367	-0.056
-276.428	-172.153	0.057	0.002
-275.413	-38.924	-0.179	-0.093
-274.399	-156.108	0.094	-0.006
-273.384	36.657	-0.235	0.205
-272.370	-200.000	0.029	-0.186
-271.355	-66.971	0.104	-0.041
-270.340	800.000	0.094	-0.261
-269.326	-4.862	-0.148	-0.101
-268.311	204.695	0.336	-0.516
-267.297	-200.000	0.025	-0.235
-266.282	666.010	-0.109	0.278
-265.267	34.320	-0.095	0.082
-264.253	636.567	0.051	-0.127
-263.238	800.000	0.040	-0.153
-262.224	-163.388	-0.357	-0.017
-261.209	629.199	0.079	0.198
-260.195	-49.915	0.183	0.086
-259.180	-132.261	0.333	-0.043
-258.165	-147.654	-0.131	-0.011
-257.151	70.167	-0.182	-0.187
-256.136	21.656	0.109	-0.088
-255.122	-71.730	0.275	0.101
-254.107	-200.000	-0.015	-0.205
-253.092	-111.390	-0.103	-0.021
-252.078	146.248	-0.075	0.100
-251.063	248.033	0.254	-0.425
-250.049	-137.513	0.104	0.012
-249.034	-90.549	0.251	0.072
-248.019	-200.000	-0.041	-0.257
-247.005	-135.302	0.298	-0.035
-245.990	362.922	0.063	0.126
-244.976	800.000	0.031	-0.120
-243.961	67.091	0.027	0.027
-242.946	-124.444	-0.210	-0.032
-241.932	-62.554	0.067	-0.028
-240.917	800.000	-0.069	0.193
-239.903	-116.331	-0.047	-0.009
-238.888	171.225	-0.172	0.244
-237.873	540.291	-0.023	0.054
-236.859	-200.000	-0.003	0.189
-235.844	800.000	-0.070	0.256
-234.830	-98.449	-0.160	0.040
-233.815	800.000	0.071	0.275
-232.800	676.045	-0.026	-0.068
-231.786	-200.000	-0.015	-0.151
-230.771	-109.043	0.278	0.059
-229.757	-200.000	0.028	0.144
-228.742	38.170	-0.124	-0.109
-227.727	-200.000	-0.004	-0.190
-226.713	82.434	-0.242	-0.259
-225.698	800.000	-0.030	0.092
-224.684	673.541	0.178	0.456
-223.669	399.535	-0.068	-0.141
-222.655	-123.008	-0.054	0.009
-221.640	-101.371	-0.069	-0.017
-220.625	-126.378	-0.319	0.047
-219.611	24.014	0.256	0.209
-218.596	154.233	-0.046	-0.062
-217.582	46.915	-0.195	-0.180
-216.567	-43.675	-0.225	0.112
-215.552	-35.520	0.506	0.272
-214.538	-200.000	-0.027	0.348
-213.523	-39.583	0.294	-0.152
-212.509	-159.348	-0.215	-0.012
-211.494	112.290	-0.112	0.134
-210.479	-49.260	-0.295	-0.139
-209.465	-64.783	-0.236	-0.094
-208.450	511.065	-0.028	-0.065
-207.436	800.000	-0.116	0.324
-206.421	386.952	-0.153	-0.312
-205.406	710.203	-0.065	-0.170
-204.392	-101.631	0.221	0.053
-203.377	146.479	0.056	0.074
-202.363	3.423	0.080	-0.057
-201.348	-39.584	-0.242	0.125
-200.333	20.102	0.134	0.106
-199.319	184.054	-0.132	0.193
-198.304	226.366	0.089	0.142
-197.290	2.488	-0.183	0.131
-196.275	371.656	0.054	0.108
-195.260	-200.000	0.019	-0.161
-194.246	723.170	0.074	0.195
-193.231	-200.000	0.007	0.192
-192.217	2.614	0.115	0.082
-191.202	-137.354	-0.213	-0.024
-190.187	373.571	0.046	0.092
-189.173	-9.044	0.216	0.143
-188.158	13.686	-0.235	0.180
-187.144	543.879	0.041	0.096
-186.129	-96.477	0.300	0.078
-185.114	101.723	0.089	0.102
-184.100	-200.000	-0.022	0.282
-183.085	-127.264	0.238	-0.034
-182.071	44.726	0.178	-0.162
-181.056	-108.246	0.263	0.056
-180.042	-200.000	-0.051	-0.259
-179.027	185.891	-0.139	0.204
-178.012	-200.000	-0.038	0.333
-176.998	326.225	-0.086	-0.163
-175.983	-33.140	-0.281	-0.154
-174.969	86.097	0.230	0.250
-173.954	-156.871	0.155	-0.009
-172.939	-100.320	0.083	0.020
-171.925	-77.559	-0.113	0.039
-170.910	429.664	-0.048	-0.102
-169.896	-148.441	0.211	0.017
-168.881	-83.711	-0.259	-0.082
-167.866	-55.388	-0.064	-0.028
-166.852	2.340	0.229	-0.164
-165.837	160.529	0.157	0.216
-164.823	-23.766	0.275	0.163
-163.808	146.033	0.146	-0.193
-162.793	85.269	-0.198	-0.214
-161.779	800.000	0.047	-0.191
-160.764	800.000	-0.058	0.176
-159.750	-45.348	0.182	0.089
-158.735	300.182	0.088	-0.161
-157.720	-43.123	0.041	-0.020
-156.706	180.114	0.174	0.252
-155.691	-14.073	0.032	0.020
-154.677	298.519	0.061	0.110
-153.662	-200.000	-0.071	-0.399
-152.647	16.320	0.306	0.238
-151.633	-39.792	-0.368	0.190
-150.618	-200.000	-0.029	0.183
-149.604	-200.000	0.006	-0.026
-148.589	403.853	0.080	0.166
-147.574	-91.064	0.428	0.121
-146.560	403.484	0.063	0.131
-145.545	800.000	-0.095	-0.291
-144.531	13.095	0.202	-0.154
-143.516	11.006	-0.154	-0.116
-142.502	96.789	-0.145	-0.164
-141.487	252.459	-0.010	0.017
-140.472	46.867	0.130	0.119
-139.458	-0.258	-0.169	0.119
-138.443	-105.965	-0.325	-0.072
-137.429	-121.719	0.171	-0.028
-136.414	38.922	0.113	-0.100
-135.399	-200.000	-0.002	0.124
-134.385	-200.000	-0.175	-0.001
-133.370	-35.176	0.194	-0.104
-132.356	-153.990	0.163	-0.011
-131.341	553.319	-0.130	0.309
-130.326	22.676	-0.155	-0.125
-129.312	167.903	0.072	0.101
-128.297	-157.750	0.090	-0.005
-127.283	39.362	0.110	0.097
-126.268	-145.372	0.299	0.027
-125.253	40.537	0.259	-0.229
-124.239	697.468	-0.056	0.146
-123.224	130.159	0.163	0.205
-122.210	535.158	-0.100	0.233
-121.195	291.904	-0.030	0.053
-120.180	38.266	-0.266	-0.233
-119.166	-200.000	0.074	0.352
-118.151	448.300	-0.077	0.167
-117.137	-0.393	0.251	-0.176
-116.122	-46.222	0.117	-0.057
-115.107	41.513	-0.157	0.140
-114.093	-106.832	0.015	-0.003
-113.078	-90.851	-0.334	-0.095
-112.064	69.049	0.206	0.209
-111.049	-122.663	0.238	0.038
-110.034	483.381	0.104	0.233
-109.020	20.827	-0.273	0.218
-108.005	76.732	-0.307	0.321
-106.991	800.000	-0.085	-0.306
-105.976	-132.185	0.196	0.025
-104.962	37.796	0.126	-0.110
-103.947	-200.000	0.023	-0.102
-102.932	-200.000	0.196	-0.000
-101.918	-139.019	0.077	-0.008
-100.903	-23.651	0.206	-0.122
-99.889	-102.490	0.210	-0.049
-98.874	-11.328	0.076	0.049
-97.859	1.124	0.096	0.068
-96.845	-200.000	0.233	-0.000
-95.830	242.886	-0.038	0.063
-94.816	544.799	-0.014	-0.034
-93.801	285.581	-0.086	-0.152
-92.786	-23.794	0.195	0.115
-91.772	-145.804	0.275	-0.024
-90.757	186.394	0.075	-0.109
-89.743	172.341	-0.025	-0.035
-88.728	59.249	0.159	0.154
-87.713	94.267	-0.075	0.084
-86.699	51.367	0.029	0.027
-85.684	45.391	-0.171	-0.155
-84.670	20.225	-0.085	0.068
-83.655	-29.734	-0.164	0.092
-82.640	297.404	-0.077	-0.139
-81.626	735.380	0.059	-0.155
-80.611	1.058	-0.075	-0.053
-79.597	-137.599	-0.275	-0.030
-78.582	-200.000	-0.002	-0.211
-77.567	-47.745	0.105	0.050
-76.553	800.000	0.066	-0.211
-75.538	-8.483	0.330	0.218
-74.524	-200.000	0.022	0.211
-73.509	-62.786	-0.349	-0.142
-72.494	-80.579	-0.093	0.031
-71.480	411.087	-0.154	0.321
-70.465	-200.000	0.029	0.127
-69.451	-200.000	-0.025	-0.409
-68.436	-76.918	0.334	0.115
-67.422	-200.000	0.045	0.295
-66.407	596.130	-0.078	0.190
-65.392	800.000	0.025	0.088
-64.378	-20.491	-0.068	0.041
-63.363	578.100	0.138	-0.331
-62.349	-21.606	-0.277	0.166
-61.334	97.750	-0.645	-0.728
-60.319	-82.185	0.629	0.201
-59.305	-200.000	-0.129	-0.889
-58.290	194.724	0.653	0.973
-57.276	182.733	0.855	1.239
-56.261	-200.000	94.847	574.366
-55.246	574.358	1367.261	3277.289
-54.232	154.659	2584.248	3487.543
-53.217	111.515	2284.588	2706.928
-52.203	45.442	1902.443	1724.939
-51.188	38.931	1690.365	1483.589
-50.173	36.012	1645.451	1422.594
-49.159	53.650	1693.661	1596.708
-48.144	57.533	1711.104	1642.109
-47.130	38.644	1667.133	1460.824
-46.115	35.517	1652.850	1425.092
-45.100	35.384	1647.844	1419.730
-44.086	35.382	1644.963	1417.178
-43.071	35.338	1642.570	1414.737
-42.057	35.236	1639.953	1411.672
-41.042	35.389	1638.148	1411.188
-40.027	35.520	1636.003	1410.247
-39.013	35.309	1634.515	1407.365
-37.998	35.352	1632.470	1405.862
-36.984	35.372	1631.124	1404.796
-35.969	35.484	1629.852	1404.459
-34.954	35.525	1628.261	1403.331
-33.940	35.478	1626.837	1401.710
-32.925	35.491	1625.071	1400.227
-31.911	35.428	1623.630	1398.471
-30.896	35.516	1621.339	1397.078
-29.881	35.423	1620.128	1395.303
-28.867	35.548	1618.322	1394.603
-27.852	35.480	1616.909	1392.838
-26.838	35.474	1615.538	1391.554
-25.823	35.490	1613.834	1390.152
-24.809	35.498	1612.935	1389.374
-23.794	35.488	1610.873	1387.471
-22.779	35.576	1609.514	1386.884
-21.765	35.609	1607.583	1385.400
-20.750	35.518	1606.300	1383.588
-19.736	35.611	1604.512	1382.659
-18.721	35.668	1603.168	1381.858
-17.706	35.580	1601.780	1379.976
-16.692	35.500	1600.413	1378.164
-15.677	35.540	1598.872	1377.071
-14.663	35.571	1597.338	1375.917
-13.648	35.488	1596.210	1374.300
-12.633	35.560	1594.728	1373.482
-11.619	35.474	1592.977	1371.304
-10.604	35.596	1591.242	1370.629
-9.590	35.570	1590.356	1369.624
-8.575	35.519	1589.387	1368.374
-7.560	35.447	1588.313	1366.880
-6.546	35.509	1586.947	1366.089
-5.531	35.570	1585.629	1365.340
-4.517	35.453	1584.743	1363.688
-3.502	35.449	1584.098	1363.054
-2.487	35.689	1581.447	1362.415
-1.473	35.350	1570.349	1350.419
-0.458	32.557	1551.588	1314.764
0.556	29.200	1551.643	1284.075
1.571	26.815	1575.606	1286.887
2.586	26.414	1589.844	1295.525
3.600	23.714	1537.080	1233.692
4.615	13.414	1424.171	1076.323
5.629	3.672	1355.638	963.872
6.644	1.992	1346.030	946.540
7.659	1.795	1344.779	944.355
8.673	1.673	1343.607	942.693
9.688	1.580	1341.958	940.876
10.702	1.411	1339.051	937.711
11.717	5.128	1346.072	965.575
12.731	15.501	1366.056	1044.669
13.746	23.783	1379.987	1107.055
14.761	25.639	1382.463	1120.513
15.775	25.961	1381.846	1121.922
16.790	26.075	1381.180	1121.990
17.804	25.989	1380.698	1120.965
18.819	26.265	1380.875	1122.724
19.834	26.448	1379.747	1122.843
20.848	26.369	1379.325	1121.909
21.863	26.478	1377.962	1121.378
22.877	26.401	1377.895	1120.749
23.892	26.499	1376.251	1119.921
24.907	26.440	1376.186	1119.403
25.921	26.413	1374.849	1118.046
26.936	26.497	1373.444	1117.325
27.950	26.455	1372.500	1116.198
28.965	26.490	1371.383	1115.409
29.980	26.360	1370.450	1113.751
30.994	26.392	1368.796	1112.503
32.009	26.395	1367.777	1111.593
33.023	26.387	1366.794	1110.649
34.038	26.407	1365.935	1109.972
35.053	26.484	1364.159	1108.906
36.067	26.363	1363.705	1107.699
37.082	26.436	1362.610	1107.154
38.096	26.465	1361.469	1106.310
39.111	26.338	1361.248	1105.251
40.126	26.453	1360.534	1105.280
41.140	26.482	1359.666	1104.656
42.155	26.385	1359.500	1103.827
43.169	26.407	1359.702	1104.032
44.184	26.388	1359.202	1103.410
45.199	26.377	1358.951	1103.041
46.213	26.387	1358.113	1102.323
47.228	26.448	1356.983	1101.684
48.242	26.473	1355.781	1100.758
49.257	26.395	1354.796	1099.386
50.271	26.419	1353.415	1098.315
51.286	26.429	1351.657	1096.856
52.301	26.512	1350.183	1096.064
53.315	26.352	1349.746	1094.643
54.330	26.467	1349.138	1094.746
55.344	26.429	1347.919	1093.435
56.359	26.431	1346.762	1092.409
57.374	26.384	1346.380	1091.717
58.388	26.532	1344.842	1091.270
59.403	26.419	1345.294	1090.858
60.417	26.396	1344.211	1089.741
61.432	26.347	1343.698	1088.938
62.447	26.394	1342.499	1088.148
63.461	26.499	1341.430	1087.820
64.476	26.413	1340.521	1086.469
65.490	26.512	1339.017	1085.748
66.505	26.429	1338.058	1084.377
67.520	26.447	1337.025	1083.549
68.534	26.452	1335.738	1082.442
69.549	26.423	1335.040	1081.609
70.563	26.506	1333.758	1080.970
71.578	26.507	1332.735	1080.052
72.593	26.391	1332.736	1079.264
73.607	26.517	1331.527	1078.943
74.622	26.403	1331.010	1077.748
75.636	26.486	1330.270	1077.545
76.651	26.407	1329.703	1076.520
77.666	26.393	1329.267	1075.990
78.680	26.408	1328.667	1075.497
79.695	26.403	1327.613	1074.521
80.709	26.402	1327.146	1074.038
81.724	26.355	1326.289	1072.972
82.739	26.410	1325.137	1072.273
83.753	26.372	1324.521	1071.451
84.768	26.388	1323.016	1070.240
85.782	26.530	1321.799	1069.996
86.797	26.415	1320.945	1068.534
87.812	26.425	1319.992	1067.726
88.826	26.453	1318.788	1066.822
89.841	26.550	1317.515	1066.271
90.855	26.468	1316.789	1065.104
91.870	26.343	1316.276	1063.858
92.884	26.408	1315.276	1063.337
93.899	26.486	1314.508	1063.084
94.914	26.560	1313.596	1062.685
95.928	26.482	1312.713	1061.419
96.943	26.501	1311.840	1060.732
97.957	26.481	1311.185	1059.989
98.972	26.645	1310.164	1060.030
99.987	26.508	1309.394	1058.513
101.001	26.461	1308.453	1057.382
102.016	26.518	1307.409	1056.777
103.030	26.500	1306.924	1056.189
104.045	26.455	1306.125	1055.185
105.060	26.477	1305.112	1054.405
106.074	26.434	1304.467	1053.541
107.089	26.539	1302.949	1052.829
108.103	26.680	1301.315	1052.235
109.118	26.596	1300.633	1051.105
110.133	26.542	1299.813	1050.033
111.147	26.606	1299.033	1049.681
112.162	26.588	1297.680	1048.392
113.176	26.600	1296.844	1047.693
114.191	26.576	1296.078	1046.845
115.206	26.573	1295.031	1045.886
116.220	26.535	1294.175	1044.885
117.235	26.555	1293.210	1044.130
118.249	26.489	1292.302	1042.923
119.264	26.642	1291.225	1042.841
120.279	26.571	1290.188	1041.505
121.293	26.655	1289.668	1041.477
122.308	26.597	1289.060	1040.557
123.322	26.638	1287.742	1039.638
124.337	26.569	1287.208	1038.722
125.352	26.572	1286.313	1037.923
126.366	26.564	1285.507	1037.136
127.381	26.611	1284.740	1036.695
128.395	26.628	1283.647	1035.817
129.410	26.713	1282.897	1035.604
130.424	26.665	1282.232	1034.702
131.439	26.643	1281.299	1033.731
132.454	26.612	1280.417	1032.754
133.468	26.698	1279.808	1032.663
134.483	26.647	1279.273	1031.847
135.497	26.674	1278.426	1031.226
136.512	26.647	1277.204	1029.996
137.527	26.640	1275.891	1028.808
138.541	26.657	1275.161	1028.221
139.556	26.569	1274.114	1026.790
140.570	26.593	1273.191	1026.092
141.585	26.641	1272.073	1025.370
142.600	26.573	1270.975	1024.010
143.614	26.581	1270.186	1023.329
144.629	26.651	1269.303	1022.921
145.643	26.457	1268.347	1020.964
146.658	26.466	1267.282	1020.069
147.673	26.461	1266.625	1019.424
148.687	26.448	1265.586	1018.421
149.702	26.574	1263.923	1017.703
150.716	26.537	1262.864	1016.550
151.731	26.634	1261.838	1016.178
152.746	26.528	1260.989	1014.811
153.760	26.680	1259.640	1014.491
154.775	26.650	1258.733	1013.500
155.789	26.611	1257.926	1012.543
156.804	26.697	1257.019	1012.201
157.819	26.609	1256.451	1011.165
158.833	26.626	1255.709	1010.575
159.848	26.604	1255.149	1009.910
160.862	26.768	1253.859	1009.697
161.877	26.619	1253.684	1008.637
162.892	26.625	1252.504	1007.634
163.906	26.629	1252.236	1007.351
164.921	26.617	1251.512	1006.612
165.935	26.632	1250.567	1005.843
166.950	26.756	1249.796	1005.825
167.964	26.797	1249.124	1005.424
168.979	26.729	1248.835	1004.724
169.994	26.712	1248.218	1004.043
171.008	26.681	1247.490	1003.195
172.023	26.736	1246.824	1002.880
173.037	26.767	1246.178	1002.443
174.052	26.649	1245.481	1001.137
175.067	26.655	1244.748	1000.492
176.081	26.774	1243.597	1000.139
177.096	26.688	1243.245	999.294
178.110	26.653	1242.001	998.009
179.125	26.753	1240.660	997.397
180.140	26.916	1239.481	997.256
181.154	26.708	1238.909	995.563
182.169	26.734	1237.811	994.734
183.183	26.738	1237.085	994.086
184.198	26.762	1235.929	993.199
185.213	26.874	1235.142	993.093
186.227	26.796	1234.291	991.896
187.242	26.928	1233.182	991.639
188.256	26.861	1232.363	990.523
189.271	26.783	1231.736	989.510
190.286	26.774	1231.291	989.015
191.300	26.928	1230.032	988.756
192.315	26.827	1229.846	987.968
193.329	26.854	1229.855	988.036
194.344	26.811	1229.195	987.181
195.359	26.840	1228.531	986.716
196.373	26.763	1228.127	985.886
197.388	26.817	1227.547	985.630
198.402	26.751	1227.566	985.201
199.417	26.795	1226.859	984.782
200.432	26.761	1226.561	984.269
201.446	26.812	1225.500	983.608
202.461	26.905	1224.787	983.457
203.475	26.756	1224.062	981.981
204.490	26.828	1223.032	981.455
205.504	26.912	1221.800	980.835
206.519	26.872	1221.008	979.897
207.534	26.857	1220.273	979.137
208.548	26.840	1219.459	978.307
209.563	26.804	1218.846	977.532
210.577	26.935	1217.815	977.326
211.592	26.873	1217.196	976.412
212.607	26.885	1216.060	975.473
213.621	26.879	1215.721	975.083
214.636	27.006	1215.065	975.157
215.650	26.872	1214.417	973.826
216.665	27.039	1212.764	973.314
217.680	26.927	1211.902	971.935
218.694	26.973	1211.263	971.582
219.709	26.966	1210.706	971.011
220.723	26.843	1210.833	970.371
221.738	26.928	1209.601	969.749
222.753	26.834	1208.367	968.174
223.767	26.910	1208.162	968.329
224.782	27.065	1207.454	968.504
225.796	27.090	1207.264	968.397
226.811	27.014	1206.573	967.352
227.826	27.082	1206.072	967.228
228.840	27.002	1205.283	966.087
229.855	27.109	1204.331	965.803
230.869	27.136	1203.570	965.254
231.884	27.016	1203.128	964.176
232.899	26.995	1202.577	963.535
233.913	27.012	1202.056	963.125
234.928	27.064	1201.758	963.079
235.942	27.129	1200.978	962.709
236.957	27.050	1200.244	961.620
237.972	27.041	1199.591	960.961
238.986	27.102	1198.468	960.302
240.001	27.062	1198.586	960.100
241.015	27.172	1197.566	959.780
242.030	27.071	1197.102	958.790
243.045	27.128	1195.950	958.081
244.059	27.105	1195.151	957.233
245.074	27.213	1194.479	957.182
246.088	27.296	1193.434	956.694
247.103	27.335	1192.448	956.026
248.117	27.101	1192.379	954.656
249.132	27.175	1191.201	954.015
250.147	27.169	1190.958	953.708
251.161	27.236	1189.577	952.868
252.176	27.164	1189.802	952.587
253.190	27.257	1189.029	952.367
254.205	27.214	1188.156	951.363
255.220	27.320	1187.401	951.227
256.234	27.275	1187.230	950.771
257.249	27.297	1186.178	949.958
258.263	27.222	1185.892	949.254
259.278	27.315	1185.302	949.182
260.293	27.320	1184.915	948.814
261.307	27.397	1183.840	948.271
262.322	27.349	1183.475	947.645
263.336	27.303	1182.653	946.664
264.351	27.204	1182.329	945.807
265.366	27.266	1181.760	945.588
266.380	27.308	1181.053	945.158
267.395	27.242	1180.533	944.312
268.409	27.328	1179.371	943.747
269.424	27.466	1178.855	943.964
270.439	27.213	1178.925	942.630
271.453	27.323	1178.015	942.386
272.468	27.387	1176.685	941.573
273.482	27.364	1176.238	941.010
274.497	27.384	1176.101	940.922
275.512	27.451	1175.616	940.795
276.526	27.415	1175.037	940.065
277.541	27.511	1173.854	939.531
278.555	27.558	1172.983	938.988
279.570	27.474	1173.101	938.567
280.585	27.481	1172.014	937.651
281.599	27.450	1171.153	936.718
282.614	27.379	1170.507	935.758
283.628	27.432	1169.148	934.860
284.643	27.548	1168.334	934.720
285.657	27.467	1167.462	933.526
286.672	27.448	1166.915	932.908
287.687	27.567	1165.879	932.608
288.701	27.538	1165.509	932.079
289.716	27.635	1164.893	932.001
290.730	27.650	1164.126	931.379
291.745	27.484	1163.782	930.174
292.760	27.571	1162.810	929.761
293.774	27.669	1162.324	929.788
294.789	27.732	1161.614	929.457
295.803	27.688	1161.161	928.793
296.818	27.596	1160.877	928.011
297.833	27.537	1160.069	926.983
298.847	27.654	1159.259	926.851
299.862	27.731	1158.426	926.495
300.876	27.649	1157.772	925.471
301.891	27.696	1157.477	925.393
302.906	27.797	1156.524	925.060
303.920	27.662	1155.749	923.677
304.935	27.697	1155.540	923.603
305.949	27.629	1154.940	922.698
306.964	27.797	1154.185	922.865
307.979	27.781	1153.176	921.895
308.993	27.821	1153.026	921.896
310.008	27.808	1152.177	921.071
311.022	27.853	1151.328	920.536
312.037	27.778	1151.082	919.879
313.052	27.723	1149.916	918.587
314.066	27.777	1148.839	917.921
315.081	27.845	1148.188	917.659
316.095	27.718	1147.677	916.534
317.110	27.849	1146.944	916.524
318.125	27.745	1146.495	915.563
319.139	27.789	1145.904	915.230
320.154	27.883	1145.504	915.298
321.168	27.895	1144.878	914.779
322.183	27.837	1144.097	913.783
323.197	27.764	1143.900	913.181
324.212	27.857	1142.855	912.728
325.227	27.910	1142.680	912.774
326.241	27.863	1142.611	912.402
327.256	27.892	1141.105	911.267
328.270	27.917	1140.045	910.461
329.285	27.914	1139.720	910.107
330.300	27.892	1138.742	909.136
331.314	27.883	1138.121	908.514
332.329	27.890	1137.560	908.021
333.343	28.046	1136.492	907.862
334.358	28.020	1135.982	907.245
335.373	28.126	1134.896	906.824
336.387	28.128	1134.488	906.426
337.402	28.100	1133.829	905.685
338.416	28.021	1133.194	904.702
339.431	28.103	1132.881	904.781
340.446	28.160	1131.809	904.125
341.460	28.108	1131.542	903.573
342.475	28.118	1130.309	902.560
343.489	28.128	1129.412	901.812
344.504	28.046	1129.236	901.187
345.519	28.052	1128.195	900.308
346.533	28.136	1127.240	899.879
347.548	28.069	1126.538	898.912
348.562	28.187	1125.994	898.976
349.577	28.169	1125.287	898.245
350.592	28.180	1124.070	897.247
351.606	28.050	1123.922	896.411
352.621	28.239	1123.305	896.767
353.635	28.207	1122.739	896.081
354.650	28.356	1121.698	895.898
355.665	28.207	1121.346	894.810
356.679	28.254	1120.770	894.499
357.694	28.213	1120.505	894.008
358.708	28.249	1119.710	893.472
359.723	28.250	1118.810	892.676
360.738	28.231	1118.158	891.988
361.752	28.347	1117.228	891.731
362.767	28.350	1117.012	891.493
363.781	28.294	1117.007	891.140
364.796	28.373	1116.432	890.983
365.810	28.366	1115.464	890.098
366.825	28.468	1114.649	889.866
367.840	28.503	1114.359	889.724
368.854	28.362	1114.147	888.794
369.869	28.415	1113.021	888.072
370.883	28.393	1112.385	887.380
371.898	28.461	1111.887	887.232
372.913	28.431	1111.290	886.535
373.927	28.532	1110.526	886.332
374.942	28.425	1110.348	885.597
375.956	28.508	1109.913	885.573
376.971	28.566	1109.386	885.355
377.986	28.494	1108.680	884.364
379.000	28.571	1107.983	884.099
380.015	28.548	1107.788	883.758
381.029	28.436	1107.283	882.734
382.044	28.579	1106.382	882.626
383.059	28.609	1105.658	882.115
384.073	28.564	1104.857	881.184
385.088	28.545	1104.171	880.465
386.102	28.594	1103.408	880.013
387.117	28.573	1102.316	878.966
388.132	28.574	1101.480	878.226
389.146	28.633	1101.227	878.231
390.161	28.702	1100.258	877.711
391.175	28.670	1099.843	877.147
392.190	28.730	1099.281	876.908
393.205	28.715	1098.277	875.956
394.219	28.648	1097.573	874.999
395.234	28.769	1096.830	874.906
396.248	28.759	1095.939	874.069
397.263	28.813	1095.323	873.758
398.278	28.792	1094.908	873.248
399.292	28.926	1094.195	873.241
400.307	28.693	1094.125	872.001
401.321	28.766	1092.630	871.078
402.336	28.775	1092.262	870.749
403.350	28.721	1091.946	870.164
404.365	28.844	1091.207	870.083
405.380	28.829	1090.404	869.292
406.394	28.877	1089.656	868.845
407.409	28.864	1089.265	868.399
408.423	28.921	1088.480	867.963
409.438	28.880	1087.571	866.967
410.453	29.156	1086.613	867.430
411.467	28.991	1085.970	866.063
412.482	29.021	1085.472	865.730
413.496	28.985	1084.861	864.996
414.511	28.917	1084.621	864.410
415.526	29.021	1083.802	864.168
416.540	28.990	1083.512	863.717
417.555	28.987	1083.088	863.287
418.569	28.991	1082.251	862.562
419.584	29.042	1082.218	862.699
420.599	29.039	1081.967	862.406
421.613	101.378	1315.247	1439.494
422.628	94.347	1349.231	1439.595
