DTS Sentinel unit serial number:	SN413079Multiplexer serial number:	ORYXHardware model number:	OX4-SRSoftware version number:	ORYX F/W v4.00 Oryx Data Collector v3.7.2.0data status	okinstallation	princeton_trtdifferential loss correction	single-endedforward channel	channel 2reverse channel	N/Adate	2019/09/18time	03:23:34forward acquisition time	60.00reverse acquisition time	0.00gamma	496.2192k internal	0.2350k external	0.2350temperature offset calibration	0.9980default loss term (dB/km)	0.3790temperature slope calibration	1.0000multiplexer offset coefficient	1.0000multiplexer slope coefficient	1.0000fibre end	0.00T internal ref (°C)	22.80T ext. ref 1 (°C)	0.17T ext. ref 2 (°C)	17.12length (m)	temperature (°C)	Stokes	anti-Stokes-747.200	66.211	-0.340	0.344
-746.185	-149.087	-0.376	0.030
-745.171	211.880	-0.129	0.202
-744.156	-21.700	-0.166	-0.101
-743.142	-54.042	-0.168	0.076
-742.127	-200.000	0.069	0.304
-741.112	-2.055	-0.232	-0.163
-740.098	142.296	0.023	0.030
-739.083	-77.643	-0.327	0.113
-738.069	503.141	-0.127	0.294
-737.054	-55.793	0.342	0.153
-736.039	45.320	-0.274	0.252
-735.025	13.398	0.126	0.098
-734.010	745.957	-0.149	-0.400
-732.996	800.000	-0.084	0.269
-731.981	35.868	-0.175	0.154
-730.966	-31.574	-0.098	-0.055
-729.952	23.747	-0.124	-0.102
-728.937	55.462	-0.168	-0.162
-727.923	800.000	0.046	-0.180
-726.908	574.059	0.049	-0.119
-725.894	-200.000	-0.047	0.267
-724.879	-99.456	-0.465	-0.117
-723.864	-152.614	-0.175	-0.012
-722.850	-200.000	-0.035	0.218
-721.835	215.435	0.071	-0.112
-720.821	384.555	-0.103	0.212
-719.806	-200.000	-0.004	0.083
-718.791	-111.725	-0.293	-0.059
-717.777	52.327	-0.092	-0.087
-716.762	-200.000	-0.240	-0.001
-715.748	67.035	0.074	0.075
-714.733	314.718	0.072	0.135
-713.718	55.116	-0.288	0.278
-712.704	-136.600	-0.164	-0.019
-711.689	175.384	0.047	-0.068
-710.675	-44.641	-0.254	0.126
-709.660	800.000	0.031	-0.115
-708.645	-85.436	0.374	0.116
-707.631	-200.000	-0.006	-0.103
-706.616	-149.363	-0.060	-0.005
-705.602	800.000	-0.053	-0.175
-704.587	52.486	-0.234	0.223
-703.572	85.918	-0.146	-0.160
-702.558	149.222	-0.179	0.242
-701.543	-200.000	-0.000	-0.164
-700.529	-200.000	-0.008	0.177
-699.514	40.829	-0.227	0.204
-698.499	261.717	-0.056	0.097
-697.485	800.000	0.073	-0.217
-696.470	-55.315	-0.285	-0.127
-695.456	-114.885	-0.295	0.056
-694.441	800.000	-0.046	0.185
-693.426	-105.294	-0.365	-0.083
-692.412	-79.297	0.188	-0.063
-691.397	-88.601	-0.050	-0.015
-690.383	2.140	-0.288	-0.208
-689.368	206.412	-0.068	0.105
-688.354	800.000	0.049	0.170
-687.339	-179.484	0.108	-0.002
-686.324	-80.396	0.114	0.038
-685.310	800.000	0.070	-0.214
-684.295	-37.682	-0.351	0.186
-683.281	10.437	0.244	-0.185
-682.266	-200.000	-0.009	-0.583
-681.251	-61.620	0.207	0.086
-680.237	24.332	0.181	-0.149
-679.222	696.069	-0.112	-0.294
-678.208	388.179	0.166	-0.342
-677.193	106.582	-0.177	-0.209
-676.178	324.139	0.063	-0.121
-675.164	197.396	0.109	0.166
-674.149	-22.982	-0.156	-0.093
-673.135	565.532	-0.060	-0.145
-672.120	800.000	-0.030	-0.117
-671.105	-32.130	-0.223	0.124
-670.091	132.996	-0.188	0.242
-669.076	-68.191	0.185	0.072
-668.062	-77.595	0.070	0.024
-667.047	75.572	-0.107	-0.113
-666.032	274.589	0.059	0.103
-665.018	800.000	0.075	0.208
-664.003	-6.167	-0.414	0.281
-662.989	-200.000	0.002	-0.178
-661.974	480.474	-0.069	0.157
-660.959	342.022	-0.025	-0.048
-659.945	45.594	0.171	0.157
-658.930	-177.109	0.150	0.004
-657.916	147.014	-0.232	-0.311
-656.901	158.589	0.193	-0.266
-655.886	242.123	0.026	-0.044
-654.872	428.518	-0.111	0.238
-653.857	253.707	-0.058	0.098
-652.843	800.000	-0.051	-0.174
-651.828	800.000	-0.026	0.075
-650.814	800.000	0.047	0.164
-649.799	13.007	-0.067	0.052
-648.784	-200.000	0.058	-0.446
-647.770	736.763	-0.038	-0.101
-646.755	71.930	-0.116	-0.120
-645.741	207.438	0.050	0.078
-644.726	-30.781	-0.168	0.094
-643.711	157.079	0.105	-0.144
-642.697	-115.616	-0.207	-0.039
-641.682	-75.178	-0.254	0.090
-640.668	800.000	-0.056	-0.218
-639.653	-200.000	-0.013	-0.204
-638.638	-36.380	-0.147	-0.079
-637.624	168.692	0.120	-0.170
-636.609	-200.000	0.003	0.020
-635.595	109.560	-0.106	-0.126
-634.580	-63.597	-0.327	0.133
-633.565	-200.000	0.047	-0.206
-632.551	79.646	-0.095	-0.101
-631.536	121.897	0.107	0.133
-630.522	32.298	0.093	0.080
-629.507	-68.911	0.180	0.069
-628.492	20.637	0.122	-0.098
-627.478	-68.305	-0.285	0.110
-626.463	80.399	-0.064	0.069
-625.449	-71.125	-0.245	-0.092
-624.434	306.400	-0.062	-0.115
-623.419	-59.945	-0.133	-0.057
-622.405	-200.000	0.014	-0.179
-621.390	-32.644	-0.242	0.134
-620.376	-42.065	-0.209	-0.106
-619.361	-148.931	0.141	-0.011
-618.346	-15.081	-0.027	-0.017
-617.332	-86.319	-0.142	-0.043
-616.317	800.000	-0.041	0.149
-615.303	-94.819	-0.092	-0.025
-614.288	581.816	0.087	-0.211
-613.273	166.303	0.159	0.223
-612.259	25.418	-0.185	0.153
-611.244	228.069	0.131	-0.211
-610.230	-200.000	-0.053	0.327
-609.215	42.377	-0.153	0.138
-608.201	432.044	0.094	0.202
-607.186	-79.875	-0.252	-0.084
-606.171	351.088	-0.215	-0.423
-605.157	96.255	-0.041	-0.046
-604.142	-48.946	-0.295	0.140
-603.128	127.936	0.211	-0.266
-602.113	800.000	0.105	0.312
-601.098	800.000	0.095	-0.280
-600.084	-200.000	-0.010	0.097
-599.069	-140.051	0.209	-0.022
-598.055	-96.368	0.261	-0.069
-597.040	-188.502	-0.200	0.002
-596.025	-200.000	0.013	-0.280
-595.011	-200.000	0.012	-0.175
-593.996	27.229	-0.196	-0.163
-592.982	800.000	-0.049	-0.172
-591.967	-10.592	-0.266	-0.175
-590.952	202.406	0.185	-0.284
-589.938	-200.000	0.028	-0.265
-588.923	-7.158	0.301	-0.202
-587.909	800.000	-0.083	-0.271
-586.894	-46.653	-0.121	-0.059
-585.879	92.860	-0.151	-0.169
-584.865	55.134	0.112	0.108
-583.850	-91.349	-0.275	0.078
-582.836	-200.000	0.010	0.186
-581.821	-200.000	-0.018	-0.154
-580.806	9.443	-0.253	-0.190
-579.792	800.000	-0.061	-0.231
-578.777	-82.410	0.130	-0.042
-577.763	352.037	0.090	0.176
-576.748	800.000	0.067	-0.277
-575.733	-60.222	-0.113	-0.048
-574.719	800.000	0.055	-0.233
-573.704	337.785	-0.095	0.183
-572.690	-7.679	-0.299	-0.201
-571.675	-51.437	0.105	0.049
-570.661	-127.584	-0.587	0.084
-569.646	-75.921	0.315	-0.110
-568.631	-200.000	0.034	-0.304
-567.617	-16.877	0.116	-0.072
-566.602	39.028	0.222	-0.197
-565.588	800.000	-0.087	0.248
-564.573	12.737	0.044	-0.034
-563.558	106.291	-0.083	0.098
-562.544	-46.930	0.287	0.139
-561.529	-127.383	-0.214	-0.031
-560.515	-200.000	0.012	0.123
-559.500	-72.985	0.292	-0.106
-558.485	579.130	-0.125	-0.302
-557.471	-92.068	-0.255	-0.071
-556.456	7.392	-0.116	0.086
-555.442	668.791	-0.076	0.196
-554.427	-40.487	0.161	0.083
-553.412	800.000	0.103	-0.348
-552.398	-55.867	0.235	-0.104
-551.383	127.030	-0.240	0.301
-550.369	-66.316	0.205	0.081
-549.354	-200.000	0.023	-0.101
-548.339	107.823	-0.259	-0.305
-547.325	-1.806	-0.140	0.098
-546.310	22.211	-0.056	-0.045
-545.296	-200.000	0.050	0.412
-544.281	-37.189	0.126	-0.067
-543.266	-4.128	0.259	-0.178
-542.252	-112.681	0.183	-0.036
-541.237	550.498	0.050	-0.118
-540.223	-200.000	0.015	-0.437
-539.208	800.000	-0.015	-0.040
-538.193	69.376	-0.097	0.099
-537.179	223.489	0.102	0.163
-536.164	-71.537	-0.359	-0.133
-535.150	800.000	-0.045	0.188
-534.135	-141.699	0.121	-0.012
-533.121	84.942	0.081	-0.088
-532.106	800.000	-0.059	-0.167
-531.091	-200.000	0.037	0.306
-530.077	92.605	-0.102	0.114
-529.062	384.093	-0.067	0.136
-528.048	-126.065	0.229	-0.034
-527.033	-84.113	-0.130	-0.041
-526.018	417.943	0.145	0.307
-525.004	-99.263	-0.157	0.039
-523.989	-17.331	-0.186	0.116
-522.975	248.098	0.178	0.298
-521.960	-124.624	-0.161	-0.025
-520.945	-16.260	-0.297	-0.187
-519.931	800.000	-0.069	-0.282
-518.916	-200.000	0.043	-0.311
-517.902	194.826	-0.132	0.199
-516.887	-65.260	-0.216	0.086
-515.872	-92.333	-0.369	0.103
-514.858	-171.808	0.059	-0.002
-513.843	262.892	-0.049	0.084
-512.829	-138.015	-0.320	0.035
-511.814	-200.000	0.022	0.283
-510.799	-200.000	0.042	-0.205
-509.785	-71.484	-0.188	0.070
-508.770	-84.787	-0.234	0.073
-507.756	-200.000	-0.009	-0.210
-506.741	496.835	0.074	-0.169
-505.726	665.231	0.039	-0.100
-504.712	-173.612	-0.251	0.007
-503.697	800.000	-0.131	-0.368
-502.683	-200.000	-0.011	-0.183
-501.668	800.000	0.042	0.166
-500.653	-200.000	0.024	0.213
-499.639	-61.770	0.268	-0.111
-498.624	396.121	0.136	0.281
-497.610	800.000	-0.096	-0.330
-496.595	-200.000	-0.012	-0.228
-495.581	-89.252	-0.307	0.090
-494.566	108.254	0.152	0.179
-493.551	-84.469	-0.124	0.039
-492.537	-200.000	0.062	-0.297
-491.522	-200.000	-0.004	0.174
-490.508	82.140	-0.178	-0.191
-489.493	219.842	0.073	-0.116
-488.478	-38.461	0.108	0.057
-487.464	-200.000	-0.000	0.430
-486.449	-184.620	-0.104	0.002
-485.435	157.433	-0.274	-0.375
-484.420	44.729	0.136	-0.123
-483.405	2.317	0.032	0.023
-482.391	648.477	0.029	0.074
-481.376	-105.426	0.098	0.022
-480.362	-145.544	-0.208	0.018
-479.347	102.472	0.075	0.087
-478.332	-200.000	-0.014	0.196
-477.318	97.451	-0.099	-0.113
-476.303	-200.000	-0.023	0.123
-475.289	65.166	-0.186	-0.186
-474.274	56.969	0.133	-0.128
-473.259	-200.000	-0.016	0.434
-472.245	800.000	0.009	-0.036
-471.230	-123.865	0.183	-0.029
-470.216	-152.098	0.107	-0.008
-469.201	-157.620	0.298	0.018
-468.186	-35.445	-0.090	0.048
-467.172	-107.638	0.396	-0.085
-466.157	-152.757	0.190	-0.013
-465.143	-167.961	0.095	0.004
-464.128	218.959	-0.020	0.031
-463.113	102.163	0.122	-0.141
-462.099	-104.070	-0.156	-0.036
-461.084	53.137	-0.018	0.017
-460.070	-56.514	-0.180	0.079
-459.055	53.470	0.271	0.257
-458.040	-43.796	-0.039	0.020
-457.026	145.949	-0.030	-0.039
-456.011	224.485	0.047	-0.076
-454.997	-123.259	0.191	-0.030
-453.982	-200.000	-0.008	0.251
-452.968	-200.000	-0.010	-0.047
-451.953	235.089	0.026	0.043
-450.938	-104.913	0.400	0.091
-449.924	7.744	-0.209	-0.154
-448.909	228.390	-0.043	0.070
-447.895	-178.783	0.230	-0.005
-446.880	-200.000	-0.002	0.105
-445.865	-146.131	-0.227	-0.020
-444.851	11.885	0.069	0.053
-443.836	281.584	0.093	-0.164
-442.822	438.231	-0.098	0.211
-441.807	32.872	0.127	0.109
-440.792	9.739	0.222	-0.166
-439.778	112.483	-0.234	0.280
-438.763	-3.937	-0.056	0.038
-437.749	61.167	-0.100	0.098
-436.734	-193.142	0.283	0.002
-435.719	203.205	0.309	-0.472
-434.705	136.821	-0.172	0.221
-433.690	-200.000	-0.015	0.084
-432.676	-90.727	-0.219	-0.062
-431.661	-200.000	0.031	0.353
-430.646	241.663	-0.207	-0.342
-429.632	-144.036	-0.170	0.016
-428.617	571.066	-0.050	0.120
-427.603	800.000	-0.061	0.240
-426.588	-55.384	0.194	0.086
-425.573	88.283	0.156	-0.171
-424.559	800.000	0.023	0.073
-423.544	-94.182	0.284	-0.077
-422.530	800.000	0.099	0.274
-421.515	-65.879	-0.143	0.056
-420.500	-28.172	0.253	0.144
-419.486	-22.737	-0.456	0.271
-418.471	277.871	-0.101	0.178
-417.457	800.000	-0.024	0.086
-416.442	-68.911	-0.170	0.065
-415.428	41.206	-0.175	-0.156
-414.413	-36.563	-0.404	-0.214
-413.398	-121.391	0.277	0.045
-412.384	800.000	-0.133	-0.426
-411.369	153.706	0.126	-0.170
-410.355	-53.506	-0.354	-0.160
-409.340	-89.191	0.281	0.082
-408.325	75.316	0.448	0.465
-407.311	800.000	0.065	-0.244
-406.296	361.375	-0.130	-0.257
-405.282	-200.000	0.053	0.229
-404.267	-95.566	0.429	0.113
-403.252	-176.788	0.100	-0.002
-402.238	27.182	0.111	0.092
-401.223	-200.000	-0.052	0.329
-400.209	52.274	-0.124	-0.117
-399.194	120.039	0.119	0.146
-398.179	-200.000	-0.034	-0.304
-397.165	-92.513	-0.116	0.032
-396.150	213.166	-0.128	-0.200
-395.136	183.997	0.139	-0.202
-394.121	-54.937	-0.339	0.150
-393.106	-123.700	0.270	-0.042
-392.092	-98.019	0.211	-0.054
-391.077	-162.326	-0.291	0.014
-390.063	479.309	-0.065	-0.145
-389.048	-64.818	0.242	-0.097
-388.033	156.994	0.076	0.104
-387.019	-129.181	-0.175	-0.024
-386.004	29.200	-0.077	0.064
-384.990	418.419	-0.181	-0.382
-383.975	261.949	0.192	0.327
-382.960	-113.975	0.430	0.082
-381.946	800.000	0.167	0.559
-380.931	-40.957	0.094	0.048
-379.917	-200.000	0.014	-0.203
-378.902	-74.284	0.016	0.006
-377.888	31.883	-0.082	0.070
-376.873	31.334	0.360	-0.304
-375.858	229.086	-0.179	-0.287
-374.844	-200.000	-0.009	-0.196
-373.829	725.795	0.066	0.173
-372.815	88.197	0.059	-0.065
-371.800	-90.331	-0.306	-0.087
-370.785	-200.000	0.031	-0.249
-369.771	-146.955	-0.142	0.012
-368.756	-200.000	-0.017	0.078
-367.742	55.214	-0.144	0.137
-366.727	-200.000	-0.034	-0.158
-365.712	589.501	0.091	0.222
-364.698	60.968	0.179	0.175
-363.683	-49.887	-0.167	0.078
-362.669	-10.712	-0.436	-0.284
-361.654	800.000	0.045	-0.144
-360.639	-200.000	-0.022	0.134
-359.625	798.586	-0.086	-0.232
-358.610	-200.000	0.004	-0.241
-357.596	21.884	0.200	0.160
-356.581	-127.360	-0.153	-0.022
-355.566	-133.890	-0.270	-0.033
-354.552	-32.037	0.209	0.115
-353.537	-95.364	-0.127	-0.034
-352.523	-139.213	-0.371	0.039
-351.508	452.749	0.042	0.091
-350.493	513.773	0.146	-0.334
-349.479	661.747	0.063	-0.160
-348.464	-26.996	0.477	0.274
-347.450	-29.811	0.192	-0.108
-346.435	56.154	-0.199	-0.189
-345.420	-41.519	-0.271	0.137
-344.406	-163.230	-0.128	-0.006
-343.391	-67.572	0.291	0.112
-342.377	-200.000	0.003	0.177
-341.362	-200.000	-0.014	0.242
-340.348	-79.767	0.193	0.064
-339.333	612.397	-0.133	0.327
-338.318	-175.552	-0.177	-0.005
-337.304	328.953	-0.193	0.365
-336.289	0.724	0.180	-0.127
-335.275	223.534	-0.084	-0.133
-334.260	29.293	0.228	0.191
-333.245	-55.839	0.372	0.163
-332.231	28.166	0.132	0.109
-331.216	-25.613	0.213	0.124
-330.202	-74.803	-0.147	0.052
-329.187	-87.970	-0.091	-0.027
-328.172	-53.502	0.154	0.069
-327.158	184.885	0.051	-0.074
-326.143	800.000	-0.094	0.394
-325.129	-200.000	-0.040	0.360
-324.114	-200.000	0.015	-0.139
-323.099	-46.361	0.269	0.130
-322.085	270.249	-0.081	0.140
-321.070	234.649	0.148	0.240
-320.056	-200.000	-0.013	-0.281
-319.041	-123.339	0.115	-0.018
-318.026	-43.961	0.434	-0.214
-317.012	-200.000	0.001	0.220
-315.997	-84.734	0.244	0.076
-314.983	800.000	0.090	-0.267
-313.968	81.133	-0.153	-0.162
-312.953	260.712	0.053	-0.090
-311.939	-120.142	0.312	0.052
-310.924	-58.326	0.256	-0.109
-309.910	179.556	0.039	-0.055
-308.895	369.587	0.138	0.275
-307.880	-155.430	-0.123	-0.008
-306.866	142.910	-0.188	-0.245
-305.851	-72.809	-0.058	-0.021
-304.837	-125.526	-0.259	-0.039
-303.822	19.110	0.110	0.087
-302.807	-115.218	0.273	0.051
-301.793	367.009	0.117	-0.231
-300.778	-13.971	-0.167	-0.106
-299.764	-41.007	0.403	0.204
-298.749	-50.751	-0.253	0.117
-297.735	571.717	-0.056	-0.134
-296.720	800.000	-0.096	0.410
-295.705	-62.432	-0.030	0.012
-294.691	-56.875	-0.069	0.030
-293.676	762.058	0.059	0.158
-292.662	31.236	0.233	-0.196
-291.647	80.047	-0.213	0.224
-290.632	-200.000	0.002	0.370
-289.618	336.165	-0.193	0.367
-288.603	29.425	0.057	-0.047
-287.589	-127.759	0.086	-0.012
-286.574	-35.096	0.241	0.129
-285.559	-200.000	-0.023	0.101
-284.545	69.648	-0.218	-0.221
-283.530	51.772	0.098	-0.091
-282.516	597.519	-0.190	0.462
-281.501	141.359	0.120	-0.156
-280.486	800.000	-0.093	-0.300
-279.472	647.111	-0.056	0.141
-278.457	-200.000	0.039	0.283
-277.443	-33.104	0.277	-0.150
-276.428	-200.000	0.034	-0.180
-275.413	800.000	-0.056	-0.236
-274.399	-101.034	-0.261	-0.063
-273.384	30.380	0.057	0.048
-272.370	291.089	0.189	0.336
-271.355	-90.632	-0.333	-0.094
-270.340	129.531	0.208	0.261
-269.326	120.699	-0.183	0.223
-268.311	398.331	-0.101	0.207
-267.297	109.747	0.142	-0.167
-266.282	-117.464	-0.052	0.009
-265.267	213.568	0.118	0.183
-264.253	431.091	-0.069	0.145
-263.238	-165.526	-0.386	0.016
-262.224	-200.000	0.002	0.284
-261.209	-48.099	0.104	-0.049
-260.195	-131.951	0.446	0.057
-259.180	-22.983	-0.268	0.158
-258.165	-25.830	-0.223	-0.129
-257.151	-46.850	0.211	0.101
-256.136	-34.457	0.231	0.124
-255.122	58.549	-0.068	0.065
-254.107	-82.432	0.081	-0.026
-253.092	58.286	-0.056	-0.054
-252.078	629.176	-0.099	-0.245
-251.063	800.000	0.062	0.185
-250.049	-3.662	-0.077	-0.052
-249.034	43.597	-0.077	-0.069
-248.019	285.697	-0.185	-0.326
-247.005	-71.337	0.464	0.170
-245.990	-122.811	-0.376	0.059
-244.976	800.000	-0.058	0.174
-243.961	-148.739	0.315	0.025
-242.946	-79.126	-0.290	-0.097
-241.932	427.859	-0.035	-0.075
-240.917	399.526	-0.102	-0.209
-239.903	-145.309	0.055	0.005
-238.888	-200.000	0.011	-0.346
-237.873	-52.665	0.111	-0.050
-236.859	274.955	0.025	-0.043
-235.844	-94.401	-0.212	0.057
-234.830	-46.050	0.107	-0.051
-233.815	-20.380	0.085	0.051
-232.800	260.181	0.134	-0.226
-231.786	800.000	0.044	0.128
-230.771	243.968	0.140	0.230
-229.757	800.000	-0.012	-0.040
-228.742	-108.236	0.280	-0.059
-227.727	-200.000	-0.021	0.150
-226.713	-68.323	-0.032	-0.012
-225.698	-200.000	0.026	0.198
-224.684	-66.181	0.055	-0.022
-223.669	-55.863	0.112	0.049
-222.655	-52.592	-0.067	0.030
-221.640	42.230	-0.228	-0.202
-220.625	67.910	0.019	0.019
-219.611	-11.332	-0.051	0.033
-218.596	181.624	0.097	-0.140
-217.582	-83.451	0.335	0.105
-216.567	519.180	-0.176	0.402
-215.552	-153.944	-0.081	-0.005
-214.538	-92.312	0.399	-0.110
-213.523	-133.176	-0.147	0.018
-212.509	-77.521	-0.100	0.034
-211.494	-130.554	-0.552	0.073
-210.479	-32.651	-0.198	-0.107
-209.465	-96.036	-0.275	0.072
-208.450	481.678	-0.082	-0.181
-207.436	160.734	0.032	0.044
-206.421	-70.103	0.227	0.085
-205.406	-88.889	-0.233	-0.068
-204.392	-77.980	-0.255	0.086
-203.377	177.336	0.126	-0.179
-202.363	-55.794	-0.349	0.152
-201.348	153.330	0.217	-0.290
-200.333	-103.686	-0.023	0.005
-199.319	-120.068	0.409	-0.068
-198.304	800.000	0.053	0.196
-197.290	3.080	-0.085	0.060
-196.275	-151.275	0.333	-0.024
-195.260	-179.893	0.434	-0.009
-194.246	-9.678	0.164	0.107
-193.231	-122.782	-0.539	-0.085
-192.217	-200.000	-0.019	0.183
-191.202	-19.431	0.316	-0.191
-190.187	-23.108	-0.338	0.199
-189.173	-74.158	-0.095	0.034
-188.158	385.208	0.006	-0.012
-187.144	113.101	0.153	0.182
-186.129	-200.000	-0.078	0.482
-185.114	-86.176	0.269	-0.081
-184.100	-200.000	-0.026	-0.203
-183.085	-200.000	0.042	-0.440
-182.071	-151.243	0.436	-0.032
-181.056	-200.000	-0.022	-0.392
-180.042	155.569	0.125	-0.168
-179.027	-79.018	0.193	-0.064
-178.012	800.000	-0.059	0.225
-176.998	-121.190	-0.338	-0.055
-175.983	-103.521	0.129	0.030
-174.969	-11.030	0.209	0.135
-173.954	132.463	-0.042	-0.053
-172.939	-129.468	0.090	0.012
-171.925	26.036	0.089	0.072
-170.910	737.346	0.073	0.192
-169.896	77.925	-0.106	-0.110
-168.881	-120.063	0.510	0.085
-167.866	-130.494	-0.161	0.021
-166.852	646.221	-0.087	0.217
-165.837	112.178	-0.131	0.155
-164.823	221.326	-0.066	0.103
-163.808	-98.238	0.262	-0.066
-162.793	-200.000	0.028	-0.362
-161.779	110.394	0.189	-0.221
-160.764	645.182	-0.043	0.107
-159.750	-115.237	0.176	0.033
-158.735	-183.984	-0.106	0.002
-157.720	800.000	0.042	-0.122
-156.706	-200.000	0.018	0.403
-155.691	86.788	0.138	-0.149
-154.677	271.748	0.048	-0.083
-153.662	-200.000	0.029	0.191
-152.647	-15.347	-0.183	-0.114
-151.633	-200.000	-0.051	0.267
-150.618	303.328	0.037	0.067
-149.604	68.106	-0.097	-0.097
-148.589	800.000	0.053	0.163
-147.574	-75.317	-0.104	-0.036
-146.560	-33.708	0.341	0.184
-145.545	200.182	0.090	-0.136
-144.531	800.000	0.156	-0.538
-143.516	-125.276	-0.018	0.003
-142.502	40.999	0.221	0.195
-141.487	-200.000	0.047	0.234
-140.472	115.945	-0.219	-0.261
-139.458	800.000	0.087	0.252
-138.443	-200.000	0.015	0.216
-137.429	74.554	-0.102	0.104
-136.414	-200.000	-0.022	0.153
-135.399	164.667	0.045	-0.062
-134.385	787.483	0.077	0.205
-133.370	-200.000	-0.038	-0.207
-132.356	-161.372	0.167	0.008
-131.341	20.501	-0.056	-0.044
-130.326	-164.023	-0.227	-0.010
-129.312	299.261	-0.071	-0.127
-128.297	-90.933	-0.296	0.083
-127.283	219.812	-0.067	0.105
-126.268	-200.000	0.001	-0.127
-125.253	-176.806	0.071	-0.002
-124.239	800.000	-0.133	-0.382
-123.224	800.000	0.055	-0.234
-122.210	407.600	0.040	0.082
-121.195	166.731	-0.180	-0.249
-120.180	-85.450	-0.188	-0.057
-119.166	-200.000	-0.089	0.387
-118.151	-45.990	0.205	-0.099
-117.137	157.089	-0.127	0.171
-116.122	13.620	0.378	0.286
-115.107	-200.000	0.043	-0.186
-114.093	-137.238	-0.099	0.011
-113.078	7.462	0.317	-0.231
-112.064	-139.838	0.373	-0.038
-111.049	-109.899	0.233	-0.048
-110.034	335.397	-0.198	0.374
-109.020	-91.344	-0.140	-0.039
-108.005	-200.000	0.005	-0.022
-106.991	-15.001	-0.208	-0.130
-105.976	-137.629	0.124	-0.014
-104.962	-36.056	-0.171	0.090
-103.947	105.287	-0.055	0.063
-102.932	-200.000	-0.035	-0.250
-101.918	364.230	0.060	0.118
-100.903	-117.546	-0.176	-0.031
-99.889	-111.152	0.015	0.003
-98.874	-125.584	0.056	0.008
-97.859	184.498	-0.072	0.104
-96.845	-105.502	-0.266	0.059
-95.830	-62.947	0.206	-0.083
-94.816	198.177	0.094	0.140
-93.801	-155.350	0.091	0.006
-92.786	-2.400	0.170	0.116
-91.772	10.790	0.460	0.341
-90.757	-123.168	0.293	-0.046
-89.743	176.257	-0.242	0.343
-88.728	143.786	0.077	-0.100
-87.713	-72.622	0.299	-0.107
-86.699	-7.214	0.163	0.107
-85.684	266.560	0.056	0.096
-84.670	800.000	0.083	-0.243
-83.655	4.547	-0.041	-0.030
-82.640	-155.120	-0.392	0.025
-81.626	-200.000	0.061	0.291
-80.611	-162.716	-0.096	-0.005
-79.597	-87.890	0.199	-0.058
-78.582	-200.000	0.013	-0.258
-77.567	-42.107	-0.138	-0.069
-76.553	800.000	-0.031	-0.129
-75.538	-59.419	0.187	0.078
-74.524	800.000	0.085	0.354
-73.509	-47.882	-0.101	-0.047
-72.494	295.103	0.215	-0.383
-71.480	233.067	0.188	0.301
-70.465	73.050	0.162	-0.165
-69.451	-62.631	0.249	-0.100
-68.436	347.257	0.088	-0.168
-67.422	-99.210	-0.072	0.018
-66.407	647.220	0.115	-0.286
-65.392	-127.195	-0.292	0.041
-64.378	246.921	-0.045	0.074
-63.363	-40.077	-0.203	0.103
-62.349	-114.953	0.269	0.050
-61.334	47.627	-1.145	-1.038
-60.319	73.882	0.861	0.878
-59.305	420.039	-0.525	-1.094
-58.290	800.000	0.496	1.585
-57.276	800.000	0.486	1.616
-56.261	-200.000	127.720	669.393
-55.246	407.637	1610.654	3308.712
-54.232	137.904	2777.835	3536.914
-53.217	89.743	2308.009	2503.571
-52.203	31.953	1909.493	1598.602
-51.188	25.803	1704.251	1379.770
-50.173	23.749	1665.359	1332.835
-49.159	45.764	1736.039	1559.260
-48.144	43.025	1746.835	1547.885
-47.130	25.406	1698.156	1371.586
-46.115	22.886	1682.496	1339.799
-45.100	22.757	1677.582	1334.853
-44.086	22.674	1675.071	1332.180
-43.071	22.636	1672.733	1329.979
-42.057	22.623	1670.519	1328.068
-41.042	22.662	1668.261	1326.509
-40.027	22.717	1666.120	1325.167
-39.013	22.720	1664.542	1323.888
-37.998	22.685	1662.827	1322.204
-36.984	22.763	1661.455	1321.646
-35.969	22.863	1659.979	1321.166
-34.954	22.778	1658.783	1319.527
-33.940	22.754	1657.257	1318.086
-32.925	22.734	1655.345	1316.357
-31.911	22.773	1653.725	1315.314
-30.896	22.781	1651.657	1313.675
-29.881	22.713	1651.064	1312.646
-28.867	22.699	1649.824	1311.503
-27.852	22.781	1647.754	1310.415
-26.838	22.852	1646.286	1309.718
-25.823	22.841	1644.589	1308.234
-24.809	22.774	1643.704	1306.985
-23.794	22.792	1642.553	1306.151
-22.779	22.864	1640.697	1305.154
-21.765	22.849	1639.101	1303.725
-20.750	22.828	1637.413	1302.173
-19.736	22.832	1636.205	1301.193
-18.721	22.764	1634.740	1299.472
-17.706	22.875	1633.237	1299.043
-16.692	22.867	1631.749	1297.752
-15.677	22.841	1630.261	1296.320
-14.663	22.847	1628.893	1295.228
-13.648	22.823	1628.204	1294.455
-12.633	22.875	1626.002	1293.035
-11.619	22.818	1625.108	1291.852
-10.604	22.826	1623.163	1290.317
-9.590	22.854	1621.808	1289.393
-8.575	22.818	1620.798	1288.275
-7.560	22.806	1619.924	1287.442
-6.546	22.810	1618.746	1286.480
-5.531	22.818	1617.617	1285.589
-4.517	22.756	1616.471	1284.176
-3.502	22.824	1614.950	1283.413
-2.487	22.902	1612.876	1282.279
-1.473	22.526	1601.205	1270.242
-0.458	19.768	1582.035	1235.311
0.556	14.866	1584.671	1206.444
1.571	12.691	1609.626	1209.375
2.586	12.620	1622.278	1218.251
3.600	11.719	1567.077	1170.247
4.615	6.483	1459.998	1055.205
5.629	1.213	1401.385	978.814
6.644	0.206	1394.591	967.512
7.659	0.131	1393.839	966.424
8.673	0.154	1392.675	965.680
9.688	0.179	1390.357	964.146
10.702	-0.127	1387.032	959.801
11.717	2.610	1390.611	979.709
12.731	9.476	1400.750	1030.856
13.746	15.004	1409.580	1072.796
14.761	16.691	1411.187	1084.742
15.775	16.170	1409.313	1079.868
16.790	15.083	1406.724	1070.840
17.804	14.475	1404.410	1065.102
18.819	14.075	1402.740	1061.192
19.834	13.837	1401.939	1058.972
20.848	13.550	1400.620	1056.049
21.863	13.435	1398.719	1053.792
22.877	13.212	1397.676	1051.495
23.892	13.141	1396.768	1050.265
24.907	13.189	1396.382	1050.192
25.921	13.170	1395.311	1049.171
26.936	13.226	1394.204	1048.598
27.950	13.318	1392.992	1048.177
28.965	13.286	1392.145	1047.249
29.980	13.281	1391.250	1046.448
30.994	13.426	1390.462	1046.684
32.009	13.450	1389.279	1045.846
33.023	13.453	1387.771	1044.642
34.038	13.335	1386.912	1043.159
35.053	13.351	1385.852	1042.365
36.067	13.336	1384.826	1041.408
37.082	13.273	1383.846	1040.186
38.096	13.360	1383.050	1040.039
39.111	13.364	1382.086	1039.250
40.126	13.385	1381.038	1038.502
41.140	13.233	1380.457	1037.017
42.155	13.251	1379.594	1036.392
43.169	13.135	1379.656	1035.619
44.184	13.069	1379.733	1035.174
45.199	13.180	1378.896	1035.150
46.213	13.185	1378.512	1034.799
47.228	13.372	1377.433	1035.067
48.242	13.344	1376.201	1033.873
49.257	13.187	1374.887	1031.818
50.271	13.282	1372.847	1030.788
51.286	13.337	1371.497	1030.025
52.301	13.274	1370.561	1028.839
53.315	13.248	1369.521	1027.803
54.330	13.116	1368.954	1026.467
55.344	13.167	1367.511	1025.610
56.359	13.218	1366.129	1024.801
57.374	13.224	1365.027	1023.920
58.388	13.116	1364.387	1022.680
59.403	13.097	1364.067	1022.234
60.417	13.204	1362.678	1021.761
61.432	13.159	1361.918	1020.824
62.447	13.037	1361.214	1019.452
63.461	13.088	1359.737	1018.571
64.476	13.087	1358.850	1017.810
65.490	13.156	1357.247	1016.942
66.505	13.022	1355.948	1015.060
67.520	13.117	1354.535	1014.495
68.534	13.130	1353.501	1013.711
69.549	13.250	1352.234	1013.409
70.563	13.116	1351.830	1012.190
71.578	13.090	1350.225	1010.741
72.593	13.035	1349.466	1009.747
73.607	12.903	1348.397	1008.051
74.622	12.991	1348.020	1008.216
75.636	12.940	1347.398	1007.353
76.651	13.095	1346.133	1007.266
77.666	13.004	1345.909	1006.451
78.680	12.954	1345.064	1005.426
79.695	13.136	1343.911	1005.583
80.709	13.083	1343.573	1004.921
81.724	13.092	1342.450	1004.044
82.739	13.215	1341.271	1003.820
83.753	13.304	1340.342	1003.574
84.768	13.184	1340.025	1002.522
85.782	13.277	1337.888	1001.400
86.797	13.174	1337.179	1000.157
87.812	13.132	1335.736	998.733
88.826	13.177	1334.648	998.107
89.841	13.278	1333.572	997.821
90.855	13.260	1332.131	996.546
91.870	13.328	1331.080	996.080
92.884	13.346	1330.286	995.506
93.899	13.378	1329.622	995.116
94.914	13.414	1328.732	994.578
95.928	13.308	1328.055	993.346
96.943	13.324	1326.759	992.387
97.957	13.327	1325.760	991.566
98.972	13.346	1324.782	990.860
99.987	13.341	1323.674	989.914
101.001	13.298	1322.707	988.848
102.016	13.305	1321.970	988.251
103.030	13.297	1321.053	987.432
104.045	13.310	1319.975	986.614
105.060	13.332	1319.302	986.158
106.074	13.303	1317.403	984.479
107.089	13.220	1315.870	982.752
108.103	13.078	1315.302	981.393
109.118	13.243	1313.575	981.002
110.133	13.167	1312.237	979.460
111.147	13.278	1311.020	979.124
112.162	13.206	1309.108	977.186
113.176	13.242	1308.648	976.967
114.191	13.281	1307.499	976.254
115.206	13.297	1306.337	975.392
116.220	13.229	1305.386	974.194
117.235	13.227	1304.247	973.250
118.249	13.211	1303.182	972.276
119.264	13.239	1301.832	971.345
120.279	13.222	1300.642	970.270
121.293	13.321	1299.581	969.976
122.308	13.142	1299.150	968.516
123.322	13.127	1297.971	967.468
124.337	13.203	1296.847	966.985
125.352	13.214	1295.381	965.871
126.366	13.218	1294.001	964.784
127.381	13.131	1293.435	963.767
128.395	13.250	1291.913	963.242
129.410	13.153	1291.446	962.240
130.424	13.281	1290.575	962.250
131.439	13.289	1289.284	961.254
132.454	13.318	1288.147	960.489
133.468	13.239	1287.796	959.679
134.483	13.288	1286.709	959.071
135.497	13.195	1285.648	957.655
136.512	13.215	1284.675	956.962
137.527	13.212	1283.141	955.717
138.541	13.202	1282.195	954.874
139.556	13.174	1280.898	953.659
140.570	13.159	1279.622	952.538
141.585	13.362	1277.907	952.344
142.600	13.380	1276.493	951.311
143.614	13.395	1276.133	951.047
144.629	13.442	1275.096	950.458
145.643	13.389	1273.630	948.975
146.658	13.309	1272.703	947.746
147.673	13.390	1270.776	946.689
148.687	13.437	1269.648	946.033
149.702	13.330	1268.631	944.579
150.716	13.266	1267.353	943.179
151.731	13.339	1266.311	942.736
152.746	13.335	1265.131	941.752
153.760	13.427	1263.323	940.848
154.775	13.459	1262.198	940.109
155.789	13.490	1261.436	939.635
156.804	13.537	1260.046	938.783
157.819	13.458	1259.790	938.059
158.833	13.458	1258.542	937.047
159.848	13.485	1257.572	936.394
160.862	13.660	1256.198	936.276
161.877	13.596	1254.789	934.782
162.892	13.465	1254.391	933.667
163.906	13.482	1253.894	933.308
164.921	13.592	1252.170	932.564
165.935	13.530	1251.416	931.570
166.950	13.472	1250.755	930.666
167.964	13.512	1250.126	930.343
168.979	13.606	1249.366	930.221
169.994	13.627	1248.958	929.957
171.008	13.538	1247.956	928.627
172.023	13.552	1247.187	928.054
173.037	13.678	1245.926	927.734
174.052	13.671	1245.337	927.176
175.067	13.683	1243.969	926.141
176.081	13.617	1243.123	925.061
177.096	13.655	1242.389	924.649
178.110	13.678	1241.113	923.744
179.125	13.716	1239.783	922.884
180.140	13.631	1238.703	921.524
181.154	13.782	1237.357	921.283
182.169	13.714	1236.417	920.122
183.183	13.782	1235.318	919.599
184.198	13.806	1233.847	918.559
185.213	13.739	1233.050	917.511
186.227	13.766	1231.922	916.743
187.242	13.775	1231.003	916.024
188.256	13.879	1229.755	915.587
189.271	13.865	1228.719	914.658
190.286	13.716	1227.899	913.148
191.300	13.702	1227.038	912.347
192.315	13.745	1225.987	911.725
193.329	13.707	1225.522	911.090
194.344	13.764	1224.609	910.643
195.359	13.758	1224.569	910.498
196.373	13.853	1223.755	910.336
197.388	13.859	1223.210	909.879
198.402	13.959	1222.863	910.091
199.417	14.012	1222.077	909.715
200.432	14.029	1221.035	908.953
201.446	14.012	1220.434	908.331
202.461	14.093	1219.437	907.953
203.475	14.095	1218.675	907.312
204.490	14.061	1217.042	905.831
205.504	14.041	1215.927	904.811
206.519	14.033	1214.471	903.607
207.534	13.984	1213.936	902.860
208.548	14.089	1212.779	902.494
209.563	14.077	1212.131	901.863
210.577	14.112	1211.494	901.501
211.592	14.078	1210.532	900.521
212.607	14.159	1209.625	900.206
213.621	14.239	1208.377	899.627
214.636	14.247	1207.633	899.040
215.650	14.190	1206.459	897.776
216.665	14.237	1205.565	897.287
217.680	14.354	1204.664	897.168
218.694	14.269	1204.119	896.221
219.709	14.362	1203.109	895.892
220.723	14.318	1202.502	895.123
221.738	14.156	1202.420	894.115
222.753	14.255	1201.054	893.549
223.767	14.284	1200.545	893.250
224.782	14.434	1199.527	893.218
225.796	14.507	1199.048	893.171
226.811	14.442	1198.308	892.194
227.826	14.521	1197.398	891.859
228.840	14.356	1196.981	890.586
229.855	14.354	1196.416	890.080
230.869	14.417	1195.056	889.324
231.884	14.335	1194.427	888.341
232.899	14.392	1193.785	888.089
233.913	14.356	1192.560	886.907
234.928	14.357	1192.703	886.939
235.942	14.420	1191.240	886.105
236.957	14.398	1190.314	885.220
237.972	14.390	1189.727	884.664
238.986	14.468	1189.261	884.652
240.001	14.429	1188.429	883.753
241.015	14.518	1187.539	883.483
242.030	14.470	1186.798	882.597
243.045	14.488	1186.139	882.124
244.059	14.571	1185.508	882.017
245.074	14.517	1184.265	880.727
246.088	14.618	1183.466	880.591
247.103	14.674	1182.632	880.186
248.117	14.716	1182.006	879.866
249.132	14.782	1181.217	879.547
250.147	14.791	1180.341	878.866
251.161	14.703	1180.034	878.094
252.176	14.793	1179.092	877.791
253.190	14.814	1178.806	877.607
254.205	14.781	1178.201	876.908
255.220	14.971	1177.173	877.059
256.234	14.878	1176.667	876.121
257.249	14.926	1175.957	875.762
258.263	14.830	1175.462	874.814
259.278	14.898	1174.296	874.223
260.293	15.048	1173.989	874.706
261.307	14.983	1173.960	874.265
262.322	15.007	1173.016	873.610
263.336	15.020	1172.217	873.004
264.351	15.058	1171.702	872.741
265.366	15.122	1170.535	872.128
266.380	15.155	1169.601	871.527
267.395	15.123	1169.511	871.218
268.409	15.067	1168.514	870.109
269.424	14.977	1168.309	869.412
270.439	15.092	1167.606	869.409
271.453	15.088	1166.680	868.618
272.468	15.098	1165.391	867.633
273.482	15.109	1164.720	867.114
274.497	15.097	1164.350	866.702
275.512	15.178	1163.578	866.468
276.526	15.161	1162.423	865.444
277.541	15.124	1162.148	864.973
278.555	15.147	1161.721	864.695
279.570	15.290	1160.664	864.570
280.585	15.201	1160.266	863.737
281.599	15.302	1158.619	862.958
282.614	15.357	1157.630	862.424
283.628	15.342	1156.943	861.759
284.643	15.226	1155.964	860.360
285.657	15.166	1155.027	859.278
286.672	15.392	1154.001	859.595
287.687	15.222	1153.387	858.191
288.701	15.257	1152.366	857.538
289.716	15.355	1151.674	857.447
290.730	15.347	1151.150	856.937
291.745	15.373	1150.465	856.489
292.760	15.361	1149.849	855.888
293.774	15.342	1149.082	855.146
294.789	15.464	1148.391	855.178
295.803	15.561	1147.717	855.096
296.818	15.517	1147.007	854.266
297.833	15.408	1145.989	852.881
298.847	15.498	1145.586	852.962
299.862	15.556	1144.690	852.511
300.876	15.672	1144.155	852.628
301.891	15.491	1143.769	851.344
302.906	15.473	1142.947	850.567
303.920	15.592	1141.928	850.339
304.935	15.615	1141.888	850.349
305.949	15.759	1140.387	849.881
306.964	15.704	1139.651	848.982
307.979	15.681	1139.165	848.427
308.993	15.769	1138.201	848.078
310.008	15.778	1137.635	847.630
311.022	15.687	1137.004	846.624
312.037	15.766	1135.837	846.077
313.052	15.863	1134.495	845.490
314.066	15.843	1133.665	844.697
315.081	15.630	1133.660	843.548
316.095	15.691	1132.837	843.167
317.110	15.654	1132.156	842.403
318.125	15.707	1131.501	842.106
319.139	15.654	1130.415	840.958
320.154	15.793	1129.403	840.825
321.168	15.878	1128.700	840.650
322.183	15.824	1128.589	840.226
323.197	15.776	1127.755	839.288
324.212	15.681	1127.493	838.545
325.227	15.903	1126.738	839.017
326.241	15.852	1125.905	838.068
327.256	15.770	1125.095	836.982
328.270	15.736	1124.480	836.283
329.285	15.775	1123.204	835.454
330.300	15.811	1122.246	834.848
331.314	15.868	1121.484	834.486
332.329	15.814	1120.468	833.390
333.343	15.930	1119.607	833.249
334.358	15.961	1118.432	832.454
335.373	15.918	1117.863	831.747
336.387	15.999	1117.447	831.763
337.402	15.945	1116.464	830.689
338.416	15.959	1115.683	830.105
339.431	16.103	1114.916	830.171
340.446	16.058	1114.267	829.395
341.460	16.081	1113.463	828.833
342.475	16.144	1112.566	828.401
343.489	16.144	1112.085	827.968
344.504	16.170	1110.799	827.068
345.519	16.298	1109.804	826.879
346.533	16.213	1109.542	826.196
347.548	16.368	1108.439	826.058
348.562	16.264	1107.836	825.030
349.577	16.344	1106.991	824.718
350.592	16.275	1105.801	823.419
351.606	16.276	1105.183	822.892
352.621	16.269	1104.894	822.569
353.635	16.308	1104.172	822.148
354.650	16.303	1103.379	821.462
355.665	16.366	1103.040	821.444
356.679	16.269	1102.234	820.298
357.694	16.442	1101.559	820.566
358.708	16.268	1101.183	819.367
359.723	16.361	1099.974	818.848
360.738	16.376	1099.630	818.591
361.752	16.420	1099.040	818.294
362.767	16.430	1098.795	818.087
363.781	16.470	1098.076	817.669
364.796	16.460	1097.137	816.852
365.810	16.535	1096.498	816.666
366.825	16.629	1096.181	816.811
367.840	16.629	1095.507	816.236
368.854	16.707	1094.749	815.975
369.869	16.606	1094.042	814.892
370.883	16.617	1093.298	814.317
371.898	16.529	1092.736	813.405
372.913	16.658	1091.906	813.334
373.927	16.672	1091.425	812.971
374.942	16.573	1091.298	812.327
375.956	16.698	1090.564	812.307
376.971	16.620	1089.893	811.362
377.986	16.748	1089.195	811.387
379.000	16.724	1088.873	810.960
380.015	16.764	1087.929	810.373
381.029	16.758	1087.728	810.126
382.044	16.760	1086.704	809.299
383.059	16.790	1086.199	808.995
384.073	16.790	1085.610	808.486
385.088	16.819	1084.498	807.723
386.102	16.829	1083.296	806.807
387.117	16.822	1082.406	806.035
388.132	16.857	1081.383	805.371
389.146	16.934	1080.261	804.831
390.161	16.868	1079.894	804.170
391.175	16.970	1079.258	804.111
392.190	16.982	1078.753	803.721
393.205	17.095	1077.625	803.341
394.219	17.097	1076.535	802.467
395.234	16.949	1076.239	801.477
396.248	16.955	1075.198	800.658
397.263	17.153	1073.787	800.472
398.278	17.008	1073.402	799.429
399.292	17.020	1072.672	798.875
400.307	16.970	1072.062	798.115
401.321	16.930	1071.651	797.549
402.336	17.012	1071.074	797.432
403.350	16.894	1069.995	796.004
404.365	17.129	1069.509	796.676
405.380	17.055	1068.770	795.710
406.394	17.102	1067.754	795.101
407.409	17.215	1066.929	794.947
408.423	17.158	1066.506	794.295
409.438	17.203	1066.208	794.213
410.453	17.236	1065.244	793.577
411.467	17.315	1064.322	793.189
412.482	17.385	1063.369	792.735
413.496	17.307	1063.118	792.116
414.511	17.392	1062.454	791.946
415.526	17.455	1061.562	791.502
416.540	17.381	1061.437	790.995
417.555	17.490	1060.979	791.093
418.569	17.325	1060.721	790.061
419.584	17.379	1060.101	789.780
420.599	17.417	1059.492	789.435
421.613	108.232	1331.292	1489.566
422.628	99.875	1370.831	1489.611
