DTS Sentinel unit serial number:	SN413079Multiplexer serial number:	ORYXHardware model number:	OX4-SRSoftware version number:	ORYX F/W v4.00 Oryx Data Collector v3.7.2.0data status	okinstallation	princeton_trtdifferential loss correction	single-endedforward channel	channel 2reverse channel	N/Adate	2019/09/16time	18:27:35forward acquisition time	60.00reverse acquisition time	0.00gamma	496.2192k internal	0.2321k external	0.2321temperature offset calibration	0.9950default loss term (dB/km)	0.3790temperature slope calibration	1.0000multiplexer offset coefficient	1.0000multiplexer slope coefficient	1.0000fibre end	0.00T internal ref (°C)	36.72T ext. ref 1 (°C)	15.81T ext. ref 2 (°C)	30.20length (m)	temperature (°C)	Stokes	anti-Stokes-747.200	800.000	0.031	0.125
-746.185	-200.000	-0.031	0.518
-745.171	591.337	-0.061	0.152
-744.156	800.000	0.069	0.244
-743.142	143.508	0.094	0.127
-742.127	-200.000	0.036	-0.208
-741.112	136.831	-0.183	0.241
-740.098	-114.567	-0.207	0.040
-739.083	2.639	-0.031	-0.023
-738.069	-200.000	0.000	-0.089
-737.054	-200.000	0.064	0.299
-736.039	186.669	-0.220	-0.331
-735.025	-200.000	-0.032	0.199
-734.010	103.347	-0.328	0.389
-732.996	-152.251	-0.272	-0.020
-731.981	-67.380	-0.147	0.058
-730.966	72.144	0.219	-0.230
-729.952	-40.119	-0.324	-0.171
-728.937	-122.376	-0.108	-0.018
-727.923	116.754	0.209	-0.259
-726.908	-159.434	-0.134	0.008
-725.894	-55.055	-0.229	0.104
-724.879	117.043	-0.098	0.121
-723.864	78.066	-0.023	-0.025
-722.850	-200.000	-0.021	0.219
-721.835	-48.176	-0.451	-0.220
-720.821	-200.000	0.034	-0.188
-719.806	199.240	-0.087	0.135
-718.791	800.000	-0.039	-0.135
-717.777	213.862	-0.164	-0.261
-716.762	-121.625	-0.154	0.026
-715.748	231.628	0.068	0.112
-714.733	-87.413	0.347	0.106
-713.718	800.000	-0.073	-0.287
-712.704	-129.478	-0.464	0.065
-711.689	-200.000	-0.022	0.178
-710.675	-200.000	0.012	-0.228
-709.660	203.723	0.098	-0.154
-708.645	-34.575	0.365	-0.201
-707.631	-122.053	0.355	-0.059
-706.616	-200.000	0.069	-0.436
-705.602	118.832	-0.286	0.357
-704.587	0.113	0.099	-0.071
-703.572	776.998	-0.097	0.268
-702.558	-20.490	0.328	0.204
-701.543	-200.000	0.030	0.209
-700.529	1.571	-0.251	0.182
-699.514	20.720	0.180	-0.147
-698.499	-3.470	-0.163	-0.114
-697.485	-151.541	-0.197	-0.015
-696.470	7.516	-0.222	-0.167
-695.456	-114.688	0.472	-0.091
-694.441	-200.000	-0.030	0.198
-693.426	-200.000	-0.044	0.240
-692.412	-200.000	-0.076	-0.425
-691.397	800.000	-0.092	-0.350
-690.383	-200.000	0.012	0.302
-689.368	59.612	0.117	0.117
-688.354	-58.139	0.174	0.076
-687.339	-200.000	0.116	0.543
-686.324	203.681	0.135	0.210
-685.310	-200.000	-0.021	-0.157
-684.295	52.008	-0.142	-0.136
-683.281	-200.000	0.069	0.314
-682.266	-200.000	0.028	-0.220
-681.251	-200.000	-0.005	-0.147
-680.237	800.000	-0.050	-0.196
-679.222	-200.000	0.009	-0.197
-678.208	135.393	-0.091	0.120
-677.193	341.234	0.052	0.103
-676.178	184.589	-0.123	-0.184
-675.164	-200.000	0.027	0.127
-674.149	-65.889	-0.229	0.092
-673.135	-145.269	-0.100	-0.009
-672.120	283.389	0.130	-0.235
-671.105	-22.416	0.349	0.213
-670.091	-106.526	-0.251	0.056
-669.076	-96.502	-0.267	0.071
-668.062	-11.079	0.019	-0.013
-667.047	800.000	-0.068	0.241
-666.032	-200.000	-0.017	0.101
-665.018	800.000	-0.007	-0.020
-664.003	-48.234	0.233	0.113
-662.989	145.706	-0.168	-0.226
-661.974	251.611	0.125	0.214
-660.959	54.434	0.067	-0.065
-659.945	71.597	-0.030	-0.031
-658.930	800.000	-0.051	-0.154
-657.916	69.228	0.232	0.240
-656.901	30.433	-0.298	-0.256
-655.886	-47.225	0.238	-0.117
-654.872	515.443	0.117	0.275
-653.857	80.389	0.191	-0.207
-652.843	30.438	0.109	-0.094
-651.828	89.276	-0.131	-0.147
-650.814	800.000	0.025	-0.100
-649.799	-94.433	0.123	-0.034
-648.784	-17.814	-0.099	-0.063
-647.770	800.000	0.043	-0.165
-646.755	328.681	-0.009	0.018
-645.741	345.855	0.135	0.267
-644.726	20.335	-0.034	-0.028
-643.711	95.059	-0.108	-0.124
-642.697	-95.522	0.170	0.046
-641.682	-200.000	-0.061	-0.312
-640.668	-79.146	0.042	0.014
-639.653	127.733	-0.234	-0.299
-638.638	23.577	-0.276	-0.229
-637.624	-200.000	-0.005	-0.088
-636.609	174.329	0.186	0.271
-635.595	407.883	-0.018	0.039
-634.580	288.717	-0.080	-0.146
-633.565	800.000	0.083	-0.250
-632.551	-200.000	-0.071	0.552
-631.536	527.115	-0.067	-0.160
-630.522	223.269	-0.171	-0.278
-629.507	-142.382	-0.187	-0.019
-628.492	-200.000	0.009	0.131
-627.478	-84.452	0.293	-0.093
-626.463	306.739	0.155	0.290
-625.449	47.911	-0.039	-0.036
-624.434	252.395	0.089	0.152
-623.419	-200.000	0.025	-0.210
-622.405	-36.794	-0.164	-0.088
-621.390	-200.000	-0.033	-0.161
-620.376	-8.588	0.387	0.261
-619.361	9.760	0.052	-0.039
-618.346	-122.886	0.310	-0.050
-617.332	800.000	-0.067	-0.220
-616.317	-183.631	0.201	-0.003
-615.303	226.253	-0.072	0.118
-614.288	271.454	-0.054	0.096
-613.273	67.621	0.166	-0.171
-612.259	-139.014	0.126	-0.014
-611.244	-186.895	-0.149	-0.002
-610.230	-125.337	0.427	-0.065
-609.215	88.114	-0.293	-0.327
-608.201	-200.000	0.031	-0.202
-607.186	90.101	0.132	0.149
-606.171	77.585	-0.232	0.249
-605.157	-124.301	-0.490	0.077
-604.142	18.632	-0.229	-0.184
-603.128	800.000	-0.061	-0.263
-602.113	259.254	0.251	-0.436
-601.098	800.000	-0.031	-0.107
-600.084	40.984	-0.131	-0.119
-599.069	-140.952	0.388	-0.040
-598.055	-75.118	-0.087	-0.031
-597.040	-200.000	-0.022	-0.126
-596.025	-138.648	0.221	0.024
-595.011	146.847	0.154	-0.209
-593.996	263.063	-0.088	-0.153
-592.982	-200.000	0.013	-0.165
-591.967	-77.591	-0.098	0.034
-590.952	-109.187	-0.195	-0.042
-589.938	620.670	0.081	-0.206
-588.923	-200.000	0.016	-0.238
-587.909	-200.000	0.013	0.167
-586.894	-200.000	-0.039	0.290
-585.879	83.614	-0.271	0.297
-584.865	116.593	-0.161	-0.198
-583.850	-110.279	0.118	-0.025
-582.836	-111.340	-0.181	-0.037
-581.821	163.798	0.135	-0.191
-580.806	-15.509	0.176	0.113
-579.792	12.078	0.086	-0.067
-578.777	-200.000	-0.032	0.195
-577.763	-36.874	0.152	0.082
-576.748	2.839	-0.189	-0.138
-575.733	800.000	0.027	-0.114
-574.719	29.526	-0.282	0.241
-573.704	-83.806	-0.066	0.021
-572.690	29.826	-0.227	-0.194
-571.675	2.708	-0.338	0.246
-570.661	-169.502	-0.117	-0.004
-569.646	-183.886	-0.320	0.005
-568.631	-36.962	0.295	-0.159
-567.617	754.658	-0.086	0.233
-566.602	-200.000	-0.113	0.593
-565.588	785.782	-0.107	0.293
-564.573	-79.634	0.147	0.050
-563.558	-74.075	-0.274	0.100
-562.544	800.000	0.094	0.308
-561.529	-114.054	0.368	-0.072
-560.515	-52.446	-0.196	0.091
-559.500	-72.582	0.062	0.023
-558.485	428.186	0.052	-0.112
-557.471	-144.223	0.257	-0.024
-556.456	-200.000	0.002	0.095
-555.442	17.951	0.091	0.073
-554.427	137.702	-0.111	-0.146
-553.412	-200.000	0.068	-0.443
-552.398	-200.000	-0.014	0.077
-551.383	308.065	0.185	-0.346
-550.369	-200.000	-0.023	-0.276
-549.354	56.684	0.044	0.043
-548.339	-200.000	-0.011	-0.402
-547.325	800.000	-0.074	-0.301
-546.310	98.428	-0.282	-0.326
-545.296	-100.785	0.151	0.037
-544.281	-19.872	0.417	-0.259
-543.266	498.295	0.068	-0.156
-542.252	-200.000	0.020	0.199
-541.237	-31.070	0.089	-0.050
-540.223	165.218	-0.174	-0.247
-539.208	-200.000	-0.056	0.295
-538.193	800.000	-0.031	0.102
-537.179	58.588	0.267	0.263
-536.164	11.085	-0.305	0.234
-535.150	-31.351	-0.097	-0.055
-534.135	-200.000	-0.022	0.222
-533.121	-81.812	-0.153	-0.050
-532.106	21.606	-0.151	-0.123
-531.091	-0.846	-0.114	0.081
-530.077	-200.000	-0.007	-0.507
-529.062	-28.873	0.125	-0.072
-528.048	75.645	0.120	-0.127
-527.033	138.347	0.323	0.425
-526.018	-68.491	0.239	0.093
-525.004	120.727	0.034	0.042
-523.989	136.802	-0.161	0.211
-522.975	-200.000	0.000	0.100
-521.960	703.503	0.157	0.416
-520.945	212.855	0.186	0.295
-519.931	800.000	0.103	-0.309
-518.916	-26.744	0.261	0.153
-517.902	-200.000	0.058	0.302
-516.887	800.000	-0.041	0.145
-515.872	196.312	0.127	0.194
-514.858	-5.514	-0.169	0.116
-513.843	118.819	-0.139	0.173
-512.829	145.368	-0.141	0.189
-511.814	800.000	-0.146	-0.422
-510.799	720.241	-0.071	-0.190
-509.785	-200.000	-0.050	0.547
-508.770	-151.026	-0.366	-0.028
-507.756	-2.068	0.304	0.214
-506.741	-83.200	-0.525	-0.169
-505.726	-132.162	-0.280	-0.036
-504.712	-6.700	0.097	-0.066
-503.697	-103.263	0.297	0.070
-502.683	-110.868	0.184	0.038
-501.668	-200.000	-0.004	0.450
-500.653	-50.988	-0.237	-0.111
-499.639	691.364	0.050	0.130
-498.624	-124.121	0.258	-0.041
-497.610	83.478	-0.178	0.194
-496.595	-200.000	-0.019	-0.164
-495.581	571.498	0.095	-0.232
-494.566	223.333	0.125	-0.202
-493.551	-74.757	0.193	0.069
-492.537	204.611	-0.122	0.189
-491.522	-148.394	-0.224	-0.018
-490.508	278.564	-0.114	-0.204
-489.493	-59.317	0.287	-0.124
-488.478	-60.632	-0.387	-0.164
-487.464	91.018	0.072	0.081
-486.449	68.991	-0.074	-0.076
-485.435	-12.006	-0.213	-0.139
-484.420	-200.000	-0.055	-0.407
-483.405	-17.416	0.151	-0.095
-482.391	-200.000	0.021	-0.122
-481.376	-200.000	-0.009	0.049
-480.362	-50.179	0.327	-0.155
-479.347	39.454	0.146	0.131
-478.332	356.396	-0.024	0.048
-477.318	207.734	0.067	-0.105
-476.303	-200.000	0.085	0.393
-475.289	99.139	0.125	0.145
-474.274	-118.084	0.084	-0.015
-473.259	258.509	-0.308	-0.532
-472.245	408.518	0.012	-0.025
-471.230	-128.187	-0.087	0.012
-470.216	-96.948	0.109	-0.029
-469.201	-72.512	-0.076	-0.028
-468.186	227.908	0.129	-0.210
-467.172	118.189	0.135	0.166
-466.157	-14.575	0.080	0.052
-465.143	-200.000	0.035	0.445
-464.128	350.484	0.057	-0.113
-463.113	-12.715	0.245	0.159
-462.099	-126.516	-0.215	0.032
-461.084	-200.000	0.012	0.133
-460.070	-174.748	-0.396	-0.011
-459.055	-145.065	0.245	0.022
-458.040	134.532	0.056	-0.072
-457.026	-200.000	-0.019	-0.087
-456.011	646.982	-0.099	0.254
-454.997	-15.607	0.157	0.100
-453.982	-102.637	0.120	0.029
-452.968	-18.493	0.191	0.119
-451.953	130.688	-0.114	-0.146
-450.938	-66.829	-0.194	0.077
-449.924	208.762	-0.088	-0.138
-448.909	46.628	0.138	-0.128
-447.895	-108.718	-0.106	-0.023
-446.880	-168.849	0.091	-0.003
-445.865	323.505	-0.079	-0.151
-444.851	-200.000	0.069	0.351
-443.836	-97.491	0.188	-0.049
-442.822	800.000	0.077	-0.296
-441.807	-169.987	-0.114	-0.004
-440.792	-21.633	0.315	0.192
-439.778	216.032	0.039	0.063
-438.763	249.709	-0.086	-0.146
-437.749	-200.000	0.044	-0.279
-436.734	-200.000	-0.002	-0.106
-435.719	800.000	0.047	0.189
-434.705	-200.000	0.040	-0.212
-433.690	-44.660	0.086	0.043
-432.676	-111.495	0.209	0.042
-431.661	-24.059	0.243	-0.145
-430.646	132.029	0.157	-0.202
-429.632	800.000	-0.076	0.255
-428.617	112.873	-0.050	-0.060
-427.603	-200.000	-0.028	-0.176
-426.588	-23.125	-0.208	-0.125
-425.573	-193.353	-0.194	-0.002
-424.559	44.136	0.162	0.149
-423.544	-45.169	-0.165	-0.082
-422.530	-22.296	0.053	-0.032
-421.515	-111.620	-0.063	0.013
-420.500	-60.380	0.151	0.064
-419.486	11.036	-0.153	-0.117
-418.471	128.061	0.157	0.200
-417.457	-200.000	0.025	0.124
-416.442	-117.726	-0.352	-0.063
-415.428	93.118	0.074	-0.083
-414.413	-23.467	0.090	0.054
-413.398	-70.974	-0.104	0.039
-412.384	-134.132	0.461	0.057
-411.369	-200.000	0.055	0.268
-410.355	21.722	0.350	0.284
-409.340	-200.000	0.072	0.321
-408.325	37.027	0.223	-0.197
-407.311	264.228	-0.168	-0.292
-406.296	-86.188	-0.183	-0.056
-405.282	120.869	0.082	0.102
-404.267	-23.977	0.235	-0.140
-403.252	-108.397	-0.319	0.069
-402.238	417.931	0.149	0.318
-401.223	-139.897	0.179	-0.019
-400.209	136.226	0.113	0.147
-399.194	141.252	0.066	-0.087
-398.179	104.972	-0.142	0.168
-397.165	479.451	-0.064	0.144
-396.150	127.456	-0.242	-0.306
-395.136	464.097	0.123	-0.275
-394.121	-200.000	-0.075	-0.387
-393.106	234.274	0.080	0.132
-392.092	781.124	0.033	0.091
-391.077	624.138	0.091	-0.228
-390.063	677.492	0.144	0.372
-389.048	55.836	-0.231	-0.223
-388.033	-43.439	-0.253	-0.127
-387.019	-59.373	-0.369	-0.158
-386.004	27.838	0.067	0.056
-384.990	310.543	-0.071	0.133
-383.975	-200.000	0.024	0.167
-382.960	-1.775	0.091	-0.064
-381.946	-200.000	0.038	-0.167
-380.931	403.943	-0.043	-0.091
-379.917	-200.000	-0.018	-0.246
-378.902	-12.413	-0.138	-0.090
-377.888	-24.287	-0.097	0.058
-376.873	-158.083	0.458	0.027
-375.858	-62.805	-0.134	-0.055
-374.844	180.428	0.075	0.110
-373.829	800.000	0.053	0.228
-372.815	-200.000	0.007	-0.077
-371.800	-90.339	-0.293	-0.085
-370.785	-14.695	-0.320	-0.205
-369.771	-75.948	0.210	0.074
-368.756	112.317	0.115	-0.139
-367.742	-152.414	0.108	-0.008
-366.727	-2.571	-0.043	-0.030
-365.712	429.577	0.068	-0.146
-364.698	705.477	0.107	-0.281
-363.683	800.000	-0.058	-0.189
-362.669	166.713	-0.093	0.131
-361.654	-200.000	-0.020	-0.243
-360.639	-32.218	0.335	0.186
-359.625	76.065	0.157	0.165
-358.610	-157.978	-0.221	0.013
-357.596	-104.604	-0.171	0.039
-356.581	767.715	0.178	0.481
-355.566	81.608	-0.312	0.336
-354.552	-73.139	0.101	-0.037
-353.537	-64.470	-0.194	-0.078
-352.523	-200.000	0.005	-0.036
-351.508	-1.766	-0.272	-0.191
-350.493	-18.138	0.446	0.278
-349.479	-148.681	0.167	-0.014
-348.464	-38.525	0.338	-0.178
-347.450	-129.386	-0.227	0.031
-346.435	393.369	-0.131	0.271
-345.420	800.000	-0.039	-0.132
-344.406	-200.000	0.001	0.072
-343.391	-200.000	-0.039	0.257
-342.377	380.214	-0.070	0.142
-341.362	120.796	-0.157	0.194
-340.348	800.000	-0.033	-0.132
-339.333	-35.342	-0.257	0.139
-338.318	800.000	-0.041	0.147
-337.304	-77.224	0.131	0.046
-336.289	-129.459	0.071	0.010
-335.275	783.849	-0.017	0.046
-334.260	800.000	-0.044	-0.149
-333.245	800.000	-0.122	-0.364
-332.231	20.775	0.124	0.100
-331.216	82.282	-0.102	0.110
-330.202	222.505	-0.042	0.067
-329.187	659.905	-0.053	0.135
-328.172	-200.000	0.078	-0.382
-327.158	-82.433	0.036	0.012
-326.143	455.630	0.112	-0.247
-325.129	437.804	0.036	-0.077
-324.114	-200.000	0.111	-0.000
-323.099	-102.689	-0.140	-0.033
-322.085	-200.000	0.011	-0.258
-321.070	-200.000	-0.054	-0.274
-320.056	56.488	0.274	-0.265
-319.041	-97.282	0.548	-0.142
-318.026	-200.000	-0.002	-0.212
-317.012	20.097	0.403	0.324
-315.997	-52.994	-0.067	-0.031
-314.983	-51.490	-0.130	-0.060
-313.968	-200.000	-0.013	0.117
-312.953	92.229	-0.174	-0.194
-311.939	-200.000	-0.028	-0.144
-310.924	-200.000	0.016	0.141
-309.910	-200.000	-0.062	0.388
-308.895	-200.000	0.011	0.162
-307.880	-200.000	-0.007	0.110
-306.866	270.358	-0.121	0.211
-305.851	667.988	0.112	-0.288
-304.837	-98.693	-0.037	0.009
-303.822	-129.318	0.150	-0.021
-302.807	49.125	0.157	0.147
-301.793	239.285	0.148	-0.244
-300.778	-200.000	0.055	-0.341
-299.764	-200.000	-0.057	-0.327
-298.749	-98.796	-0.244	0.062
-297.735	-102.182	-0.144	0.034
-296.720	-41.021	-0.097	-0.050
-295.705	-96.695	-0.273	-0.071
-294.691	254.233	-0.141	-0.240
-293.676	-200.000	-0.014	-0.060
-292.662	800.000	0.063	-0.252
-291.647	99.247	0.110	-0.126
-290.632	-122.153	-0.191	-0.031
-289.618	58.230	0.168	-0.164
-288.603	-20.916	-0.406	-0.247
-287.589	74.177	0.156	-0.163
-286.574	185.161	-0.109	-0.160
-285.559	-14.853	0.203	0.129
-284.545	460.300	0.102	0.225
-283.530	-0.077	-0.161	0.114
-282.516	-200.000	-0.038	-0.186
-281.501	-200.000	-0.000	0.164
-280.486	73.607	0.054	0.057
-279.472	-82.392	0.300	0.097
-278.457	-200.000	-0.015	0.094
-277.443	640.288	0.067	-0.169
-276.428	14.406	0.251	0.194
-275.413	800.000	-0.058	0.217
-274.399	-200.000	0.241	-0.001
-273.384	-38.222	0.269	0.142
-272.370	159.683	0.085	-0.118
-271.355	-200.000	0.048	-0.292
-270.340	189.251	-0.206	0.306
-269.326	800.000	-0.108	0.311
-268.311	-127.382	-0.120	0.017
-267.297	-141.005	-0.109	0.011
-266.282	800.000	0.067	-0.193
-265.267	800.000	0.112	0.335
-264.253	-200.000	0.016	0.134
-263.238	-152.569	0.116	0.008
-262.224	-170.810	-0.161	-0.005
-261.209	474.015	-0.060	-0.134
-260.195	-108.085	0.197	-0.042
-259.180	287.755	0.107	-0.191
-258.165	-10.839	-0.322	0.211
-257.151	-200.000	-0.016	0.156
-256.136	339.527	0.093	0.180
-255.122	117.562	-0.241	0.294
-254.107	-7.099	0.268	0.181
-253.092	-163.746	-0.155	0.007
-252.078	800.000	0.134	-0.369
-251.063	73.505	-0.257	0.267
-250.049	41.952	0.209	0.188
-249.034	-200.000	0.009	-0.056
-248.019	-200.000	-0.000	-0.213
-247.005	-200.000	-0.050	-0.362
-245.990	279.324	0.120	-0.212
-244.976	-151.132	-0.135	0.010
-243.961	-119.636	-0.252	0.043
-242.946	-200.000	-0.003	-0.114
-241.932	-113.487	-0.118	-0.023
-240.917	32.985	0.056	-0.048
-239.903	-200.000	-0.017	0.336
-238.888	441.632	-0.052	0.112
-237.873	47.539	0.145	0.134
-236.859	123.618	-0.272	0.338
-235.844	31.352	-0.125	0.107
-234.830	800.000	-0.057	0.241
-233.815	-200.000	-0.006	-0.211
-232.800	-65.092	-0.115	0.046
-231.786	-200.000	0.001	-0.058
-230.771	-200.000	0.004	0.019
-229.757	800.000	-0.082	-0.237
-228.742	-136.883	0.105	-0.012
-227.727	194.363	-0.050	-0.076
-226.713	-24.943	0.203	0.119
-225.698	716.146	-0.045	-0.118
-224.684	-16.292	0.064	-0.040
-223.669	-200.000	0.032	-0.152
-222.655	-15.538	-0.368	0.233
-221.640	30.276	-0.226	0.191
-220.625	-124.427	-0.050	0.008
-219.611	-27.430	-0.467	-0.269
-218.596	-141.276	0.167	-0.017
-217.582	108.445	-0.127	-0.150
-216.567	-20.982	0.028	0.017
-215.552	-98.214	-0.352	0.089
-214.538	-200.000	-0.021	-0.172
-213.523	-151.361	0.356	0.026
-212.509	800.000	-0.035	0.107
-211.494	-108.108	0.087	-0.019
-210.479	372.264	-0.122	0.245
-209.465	-200.000	0.036	-0.162
-208.450	219.585	-0.129	0.205
-207.436	33.832	-0.091	0.078
-206.421	-125.928	0.396	-0.059
-205.406	-200.000	0.020	0.404
-204.392	800.000	-0.037	-0.161
-203.377	141.791	-0.321	0.421
-202.363	-76.162	-0.290	0.101
-201.348	800.000	0.056	0.211
-200.333	182.515	0.029	-0.043
-199.319	-5.753	0.205	-0.139
-198.304	-129.723	-0.111	0.015
-197.290	225.526	-0.128	-0.205
-196.275	-183.068	-0.063	-0.001
-195.260	799.865	-0.026	0.070
-194.246	-200.000	-0.005	-0.138
-193.231	-200.000	-0.017	-0.161
-192.217	731.700	-0.088	-0.232
-191.202	-54.671	-0.286	-0.128
-190.187	-200.000	0.004	-0.393
-189.173	-172.913	0.401	-0.012
-188.158	258.319	0.133	0.227
-187.144	-137.006	-0.059	-0.007
-186.129	224.737	0.076	-0.121
-185.114	122.820	-0.084	-0.104
-184.100	74.992	-0.075	0.078
-183.085	32.049	0.284	0.242
-182.071	-200.000	-0.016	0.191
-181.056	-200.000	0.096	0.488
-180.042	-200.000	-0.315	-0.000
-179.027	106.077	0.105	0.123
-178.012	721.330	-0.075	-0.196
-176.998	204.146	0.114	-0.175
-175.983	-200.000	0.016	0.489
-174.969	235.561	-0.050	-0.082
-173.954	-32.751	-0.250	0.137
-172.939	137.214	-0.256	0.330
-171.925	-200.000	-0.022	0.096
-170.910	-111.315	-0.171	-0.035
-169.896	290.031	0.099	-0.177
-168.881	100.566	0.247	0.284
-167.866	-200.000	-0.007	-0.085
-166.852	34.197	0.316	0.272
-165.837	-167.115	-0.053	-0.002
-164.823	170.495	0.220	-0.311
-163.808	-31.082	-0.172	-0.096
-162.793	563.240	-0.093	0.222
-161.779	-200.000	0.038	0.348
-160.764	-129.733	-0.033	-0.004
-159.750	-200.000	0.028	-0.127
-158.735	96.516	0.128	0.144
-157.720	38.762	0.230	0.203
-156.706	-106.899	0.111	0.024
-155.691	538.846	0.046	-0.108
-154.677	-200.000	-0.004	0.099
-153.662	-79.295	-0.275	0.092
-152.647	-34.686	0.256	0.138
-151.633	2.072	-0.218	0.155
-150.618	800.000	0.045	-0.153
-149.604	84.593	-0.048	-0.052
-148.589	-7.237	-0.272	-0.182
-147.574	800.000	0.066	0.188
-146.560	-200.000	0.209	-0.000
-145.545	640.631	-0.131	0.330
-144.531	296.995	0.046	0.083
-143.516	760.195	0.054	0.144
-142.502	-55.523	0.212	0.094
-141.487	-174.640	0.093	0.003
-140.472	-200.000	0.075	0.396
-139.458	-82.661	-0.462	0.148
-138.443	-109.872	-0.223	0.046
-137.429	-200.000	-0.032	-0.211
-136.414	537.132	-0.216	0.507
-135.399	205.022	-0.122	-0.186
-134.385	153.546	-0.192	-0.259
-133.370	116.649	-0.068	0.082
-132.356	43.383	-0.076	0.069
-131.341	-194.504	-0.464	0.004
-130.326	132.806	-0.053	-0.068
-129.312	-119.817	0.237	-0.040
-128.297	800.000	-0.091	0.328
-127.283	-140.938	-0.248	-0.025
-126.268	-1.510	-0.156	-0.108
-125.253	102.517	-0.129	0.149
-124.239	-186.379	0.094	-0.001
-123.224	310.912	-0.079	0.147
-122.210	-200.000	0.083	0.482
-121.195	503.055	0.066	0.150
-120.180	630.493	0.166	0.414
-119.166	1.971	-0.062	-0.044
-118.151	-135.174	0.139	0.016
-117.137	-3.617	-0.156	0.107
-116.122	-200.000	0.030	-0.139
-115.107	82.765	-0.019	0.020
-114.093	-50.606	0.174	0.081
-113.078	201.776	0.064	0.098
-112.064	129.681	0.104	-0.132
-111.049	171.585	-0.117	0.166
-110.034	673.918	-0.100	0.255
-109.020	432.981	0.042	0.089
-108.005	134.470	-0.316	0.404
-106.991	211.505	0.139	-0.215
-105.976	-42.662	-0.187	-0.094
-104.962	-10.303	-0.361	-0.236
-103.947	70.759	0.084	0.086
-102.932	-124.819	-0.115	0.017
-101.918	-53.632	-0.086	-0.039
-100.903	320.385	-0.058	-0.109
-99.889	-177.330	-0.341	-0.008
-98.874	-200.000	0.034	0.185
-97.859	367.634	-0.020	-0.039
-96.845	-200.000	0.003	0.031
-95.830	-109.566	-0.132	0.027
-94.816	-86.119	0.299	-0.091
-93.801	800.000	-0.048	0.149
-92.786	-2.033	-0.292	0.202
-91.772	-114.003	-0.263	-0.050
-90.757	-116.390	0.159	-0.029
-89.743	-143.887	-0.248	-0.023
-88.728	-200.000	0.017	-0.139
-87.713	-106.036	0.163	0.036
-86.699	10.532	0.136	-0.102
-85.684	-200.000	0.022	0.179
-84.670	145.540	-0.026	-0.034
-83.655	-200.000	-0.027	0.488
-82.640	519.663	0.044	0.103
-81.626	-36.470	0.405	0.215
-80.611	-89.116	0.220	0.064
-79.597	-200.000	-0.030	-0.155
-78.582	-58.418	-0.297	-0.127
-77.567	248.724	-0.113	0.188
-76.553	800.000	-0.056	0.159
-75.538	800.000	0.079	0.319
-74.524	-34.826	0.126	-0.068
-73.509	472.299	0.039	-0.087
-72.494	-128.036	0.147	0.021
-71.480	-200.000	-0.006	0.488
-70.465	-181.637	0.121	0.002
-69.451	151.344	-0.117	0.157
-68.436	800.000	0.047	0.196
-67.422	46.703	0.156	0.143
-66.407	41.769	0.163	0.145
-65.392	24.865	0.155	0.127
-64.378	800.000	0.025	0.081
-63.363	-31.375	0.214	-0.119
-62.349	-200.000	-0.072	0.353
-61.334	3.625	-1.022	-0.734
-60.319	147.695	0.285	0.379
-59.305	-200.000	-0.112	-1.086
-58.290	127.438	0.739	0.923
-57.276	365.140	0.718	1.424
-56.261	-200.000	91.565	536.251
-55.246	507.336	1390.635	3174.845
-54.232	151.836	2591.969	3476.566
-53.217	110.128	2311.342	2730.155
-52.203	46.406	1925.982	1757.262
-51.188	40.068	1714.766	1516.095
-50.173	37.146	1670.609	1455.119
-49.159	53.693	1716.540	1621.144
-48.144	56.979	1734.436	1662.921
-47.130	39.824	1692.293	1494.141
-46.115	36.824	1677.034	1458.059
-45.100	36.642	1672.741	1452.903
-44.086	36.656	1669.344	1450.000
-43.071	36.571	1667.381	1447.599
-42.057	36.509	1664.961	1444.983
-41.042	36.527	1662.753	1443.138
-40.027	36.619	1660.522	1441.831
-39.013	36.529	1659.241	1439.994
-37.998	36.610	1657.494	1439.021
-36.984	36.629	1655.508	1437.382
-35.969	36.790	1653.861	1437.091
-34.954	36.746	1652.884	1435.855
-33.940	36.728	1651.297	1434.287
-32.925	36.751	1649.068	1432.468
-31.911	36.735	1647.684	1431.092
-30.896	36.664	1646.053	1429.089
-29.881	36.690	1644.229	1427.644
-28.867	36.753	1642.202	1426.290
-27.852	36.640	1641.451	1424.753
-26.838	36.672	1639.735	1423.440
-25.823	36.727	1638.489	1422.703
-24.809	36.783	1636.909	1421.691
-23.794	36.717	1635.461	1419.893
-22.779	36.783	1633.318	1418.454
-21.765	36.759	1631.836	1416.936
-20.750	36.711	1630.674	1415.524
-19.736	36.771	1629.241	1414.658
-18.721	36.846	1627.260	1413.432
-17.706	36.789	1625.985	1411.855
-16.692	36.805	1624.078	1410.258
-15.677	36.722	1623.648	1409.226
-14.663	36.717	1622.249	1407.918
-13.648	36.846	1620.392	1407.188
-12.633	36.794	1619.110	1405.640
-11.619	36.749	1617.612	1403.954
-10.604	36.651	1616.625	1402.337
-9.590	36.791	1614.484	1401.431
-8.575	36.749	1613.528	1400.246
-7.560	36.654	1612.573	1398.675
-6.546	36.700	1611.285	1397.832
-5.531	36.687	1610.018	1396.585
-4.517	36.725	1608.996	1395.914
-3.502	36.783	1608.281	1395.664
-2.487	36.817	1606.384	1394.206
-1.473	36.355	1594.648	1380.656
-0.458	33.095	1573.778	1339.475
0.556	26.641	1571.598	1300.179
1.571	23.913	1594.698	1299.271
2.586	23.145	1608.390	1304.649
3.600	22.435	1560.445	1260.564
4.615	19.703	1462.018	1162.598
5.629	16.594	1403.568	1095.914
6.644	15.884	1395.161	1084.678
7.659	15.829	1393.829	1083.196
8.673	15.773	1392.785	1081.929
9.688	15.764	1390.596	1080.070
10.702	15.579	1387.700	1076.540
11.717	17.063	1389.555	1087.404
12.731	19.335	1393.446	1104.927
13.746	19.320	1391.799	1103.425
14.761	17.636	1387.636	1089.275
15.775	16.378	1384.996	1079.072
16.790	15.317	1381.711	1069.657
17.804	14.318	1380.017	1061.884
18.819	13.912	1377.958	1057.617
19.834	13.492	1376.612	1053.818
20.848	13.254	1375.464	1051.335
21.863	13.063	1373.724	1048.697
22.877	12.811	1372.783	1046.288
23.892	12.847	1371.745	1045.634
24.907	12.811	1370.720	1044.530
25.921	12.795	1369.871	1043.687
26.936	12.851	1369.242	1043.476
27.950	12.836	1368.572	1042.777
28.965	12.941	1367.222	1042.320
29.980	13.102	1365.574	1041.984
30.994	13.155	1364.443	1041.364
32.009	13.132	1363.279	1040.236
33.023	13.119	1362.017	1039.100
34.038	13.053	1360.814	1037.676
35.053	13.000	1359.207	1036.029
36.067	13.004	1358.449	1035.380
37.082	12.999	1357.495	1034.533
38.096	13.136	1356.106	1034.241
39.111	13.052	1355.481	1033.146
40.126	12.939	1354.992	1031.975
41.140	12.771	1353.891	1029.994
42.155	12.791	1352.604	1029.053
43.169	12.763	1353.186	1029.228
44.184	12.930	1352.008	1029.284
45.199	12.733	1351.925	1027.900
46.213	12.783	1351.776	1028.003
47.228	12.892	1350.919	1027.944
48.242	12.959	1349.346	1027.074
49.257	12.917	1347.723	1025.485
50.271	12.960	1346.131	1024.447
51.286	12.940	1345.007	1023.382
52.301	12.888	1343.465	1021.795
53.315	12.935	1342.220	1021.048
54.330	12.839	1341.325	1019.684
55.344	12.851	1339.317	1018.143
56.359	12.891	1338.986	1018.045
57.374	12.839	1338.007	1016.889
58.388	12.734	1337.352	1015.655
59.403	12.828	1336.843	1015.758
60.417	12.849	1335.437	1014.731
61.432	12.756	1335.376	1014.018
62.447	12.640	1334.426	1012.493
63.461	12.596	1333.307	1011.285
64.476	12.627	1332.005	1010.401
65.490	12.653	1330.696	1009.475
66.505	12.708	1329.285	1008.654
67.520	12.830	1327.654	1008.073
68.534	12.751	1327.028	1007.027
69.549	12.712	1326.108	1005.998
70.563	12.705	1325.011	1005.036
71.578	12.642	1323.860	1003.689
72.593	12.666	1322.774	1002.928
73.607	12.634	1322.118	1002.143
74.622	12.720	1321.301	1001.961
75.636	12.665	1320.749	1001.119
76.651	12.576	1319.893	999.839
77.666	12.638	1319.231	999.623
78.680	12.691	1318.631	999.403
79.695	12.690	1318.088	998.899
80.709	12.718	1317.636	998.635
81.724	12.773	1316.098	997.714
82.739	12.876	1315.260	997.618
83.753	12.847	1314.757	996.971
84.768	12.953	1312.971	996.170
85.782	12.953	1312.595	995.796
86.797	12.970	1311.243	994.787
87.812	12.990	1309.564	993.545
88.826	12.928	1308.962	992.626
89.841	12.858	1307.925	991.330
90.855	12.962	1306.634	990.888
91.870	12.953	1305.794	990.108
92.884	12.928	1305.190	989.412
93.899	12.940	1304.650	988.989
94.914	13.077	1303.076	988.526
95.928	13.128	1302.438	988.263
96.943	13.111	1301.251	987.171
97.957	13.007	1300.998	986.273
98.972	13.020	1299.393	985.045
99.987	12.885	1298.692	983.621
101.001	13.027	1297.551	983.518
102.016	12.927	1296.365	981.936
103.030	12.993	1295.523	981.604
104.045	12.943	1294.302	980.296
105.060	12.993	1293.370	979.796
106.074	12.880	1291.850	977.888
107.089	12.883	1290.812	977.034
108.103	12.738	1289.844	975.360
109.118	12.720	1288.453	974.116
110.133	12.764	1287.148	973.301
111.147	12.767	1285.611	972.068
112.162	12.750	1284.564	971.091
113.176	12.957	1283.332	971.293
114.191	12.930	1282.128	970.140
115.206	12.938	1281.221	969.413
116.220	12.864	1280.052	968.009
117.235	12.818	1279.000	966.859
118.249	12.893	1278.022	966.470
119.264	12.902	1276.399	965.211
120.279	12.775	1275.681	963.841
121.293	12.780	1274.702	963.041
122.308	12.732	1273.572	961.823
123.322	12.777	1272.233	960.993
124.337	12.770	1270.978	959.919
125.352	12.786	1270.052	959.224
126.366	12.776	1268.777	958.121
127.381	12.727	1267.957	957.132
128.395	12.851	1266.398	956.589
129.410	12.821	1265.961	956.003
130.424	12.755	1265.290	955.027
131.439	12.769	1264.736	954.608
132.454	12.898	1263.116	954.048
133.468	13.027	1262.005	953.868
134.483	12.858	1261.942	952.756
135.497	12.902	1260.833	952.088
136.512	12.967	1259.070	951.051
137.527	13.026	1257.709	950.279
138.541	12.886	1256.479	948.459
139.556	12.980	1255.430	948.120
140.570	12.947	1254.330	947.019
141.585	13.085	1252.793	946.566
142.600	13.052	1251.410	945.251
143.614	13.116	1250.444	944.804
144.629	13.095	1249.795	944.105
145.643	13.139	1248.693	943.443
146.658	12.982	1247.531	941.585
147.673	12.937	1246.265	940.292
148.687	12.889	1244.809	938.836
149.702	13.042	1243.045	938.292
150.716	12.866	1241.976	936.402
151.731	13.011	1240.837	936.283
152.746	12.971	1239.867	935.239
153.760	13.012	1238.769	934.564
154.775	12.980	1237.497	933.337
155.789	13.119	1236.113	932.999
156.804	13.057	1235.662	932.222
157.819	13.123	1234.406	931.567
158.833	13.183	1233.369	931.038
159.848	13.107	1232.620	929.965
160.862	13.192	1231.669	929.645
161.877	13.129	1230.382	928.236
162.892	13.015	1229.069	926.526
163.906	12.996	1228.539	925.933
164.921	13.069	1227.661	925.601
165.935	13.171	1226.553	925.257
166.950	13.034	1226.038	924.016
167.964	13.079	1225.365	923.678
168.979	13.100	1224.482	923.048
169.994	13.128	1223.794	922.604
171.008	13.241	1222.973	922.539
172.023	13.188	1222.308	921.660
173.037	13.227	1221.597	921.259
174.052	13.306	1220.439	920.742
175.067	13.175	1219.711	919.384
176.081	13.119	1218.436	918.029
177.096	13.167	1217.213	917.294
178.110	13.158	1216.280	916.459
179.125	13.175	1215.112	915.591
180.140	13.195	1213.682	914.542
181.154	13.243	1212.535	913.867
182.169	13.247	1211.672	913.153
183.183	13.307	1210.028	912.169
184.198	13.393	1209.209	911.942
185.213	13.301	1208.069	910.496
186.227	13.379	1206.855	909.929
187.242	13.407	1205.968	909.333
188.256	13.381	1205.244	908.566
189.271	13.409	1204.369	907.976
190.286	13.352	1202.935	906.505
191.300	13.236	1201.989	905.078
192.315	13.296	1201.635	905.058
193.329	13.235	1200.880	904.073
194.344	13.313	1199.885	903.671
195.359	13.331	1199.606	903.483
196.373	13.401	1198.964	903.299
197.388	13.360	1198.760	902.839
198.402	13.621	1198.107	903.695
199.417	13.673	1197.045	903.093
200.432	13.653	1196.256	902.314
201.446	13.627	1195.743	901.703
202.461	13.640	1194.808	900.989
203.475	13.578	1194.205	900.117
204.490	13.679	1192.333	899.174
205.504	13.542	1191.304	897.579
206.519	13.610	1190.054	896.923
207.534	13.604	1189.165	896.141
208.548	13.604	1187.824	895.050
209.563	13.612	1187.180	894.529
210.577	13.626	1186.514	894.025
211.592	13.574	1185.354	892.795
212.607	13.644	1184.398	892.369
213.621	13.690	1183.553	891.901
214.636	13.795	1182.213	891.380
215.650	13.797	1181.357	890.662
216.665	13.779	1180.696	889.992
217.680	13.868	1179.753	889.677
218.694	13.827	1179.903	889.490
219.709	13.762	1178.651	888.121
220.723	13.831	1177.786	887.762
221.738	13.871	1177.017	887.316
222.753	13.913	1176.280	886.906
223.767	13.880	1175.654	886.178
224.782	13.872	1174.741	885.373
225.796	13.942	1173.881	885.020
226.811	14.054	1173.052	884.909
227.826	13.930	1172.788	883.974
228.840	13.937	1171.904	883.266
229.855	13.960	1171.443	882.964
230.869	13.986	1170.162	882.057
231.884	13.951	1169.703	881.445
232.899	13.944	1168.909	880.734
233.913	13.751	1168.386	879.240
234.928	13.944	1167.388	879.431
235.942	13.884	1166.648	878.479
236.957	13.911	1165.840	877.934
237.972	13.939	1164.922	877.312
238.986	13.958	1164.429	876.967
240.001	13.926	1163.695	876.166
241.015	14.010	1162.485	875.621
242.030	13.913	1162.028	874.689
243.045	14.003	1161.215	874.472
244.059	14.000	1160.636	873.942
245.074	14.139	1159.425	873.682
246.088	14.120	1158.703	872.962
247.103	14.094	1157.968	872.194
248.117	14.149	1157.377	871.960
249.132	14.330	1156.579	872.233
250.147	14.225	1156.258	871.362
251.161	14.298	1155.481	871.080
252.176	14.296	1154.854	870.521
253.190	14.262	1154.662	870.120
254.205	14.395	1153.472	869.842
255.220	14.340	1152.961	869.092
256.234	14.496	1152.177	869.236
257.249	14.341	1151.550	867.878
258.263	14.488	1150.681	867.914
259.278	14.416	1150.600	867.404
260.293	14.526	1149.639	867.171
261.307	14.699	1148.835	867.386
262.322	14.545	1148.492	866.253
263.336	14.711	1147.532	866.312
264.351	14.635	1146.981	865.424
265.366	14.671	1146.298	865.022
266.380	14.607	1145.692	864.156
267.395	14.618	1144.711	863.396
268.409	14.716	1143.827	863.158
269.424	14.608	1143.583	862.341
270.439	14.634	1142.794	861.805
271.453	14.690	1142.180	861.554
272.468	14.557	1141.317	860.139
273.482	14.608	1140.360	859.607
274.497	14.667	1140.082	859.625
275.512	14.630	1139.503	858.920
276.526	14.553	1138.631	857.795
277.541	14.654	1137.971	857.738
278.555	14.575	1137.513	856.909
279.570	14.654	1136.594	856.547
280.585	14.684	1135.844	856.063
281.599	14.833	1134.731	855.910
282.614	14.838	1133.619	855.022
283.628	14.774	1132.518	853.788
284.643	14.801	1131.798	853.305
285.657	14.798	1131.119	852.703
286.672	14.911	1129.739	852.163
287.687	14.855	1128.903	851.172
288.701	14.885	1128.402	850.874
289.716	14.765	1127.786	849.724
290.730	14.843	1126.909	849.383
291.745	14.856	1126.367	848.966
292.760	14.870	1125.823	848.550
293.774	14.970	1124.946	848.320
294.789	14.828	1124.885	847.482
295.803	15.024	1123.691	847.501
296.818	14.974	1123.335	846.901
297.833	14.931	1122.153	845.718
298.847	14.990	1121.255	845.268
299.862	14.962	1120.442	844.438
300.876	15.055	1119.766	844.322
301.891	14.990	1119.533	843.743
302.906	15.060	1118.910	843.551
303.920	15.150	1117.883	843.158
304.935	15.043	1117.813	842.491
305.949	15.142	1117.158	842.422
306.964	15.302	1115.815	842.136
307.979	15.152	1115.396	840.994
308.993	15.239	1114.200	840.453
310.008	15.236	1113.623	839.927
311.022	15.420	1112.830	840.175
312.037	15.221	1111.803	838.333
313.052	15.185	1111.212	837.630
314.066	15.252	1110.064	837.025
315.081	15.174	1108.940	835.716
316.095	15.233	1108.484	835.596
317.110	15.238	1107.918	835.118
318.125	15.164	1107.211	834.142
319.139	15.191	1106.767	833.869
320.154	15.164	1106.108	833.164
321.168	15.351	1105.080	833.247
322.183	15.339	1104.352	832.561
323.197	15.274	1103.789	831.741
324.212	15.241	1103.467	831.261
325.227	15.279	1102.687	830.787
326.241	15.280	1102.176	830.335
327.256	15.256	1101.044	829.293
328.270	15.245	1100.102	828.452
329.285	15.273	1099.719	828.232
330.300	15.187	1098.563	826.861
331.314	15.276	1097.447	826.389
332.329	15.368	1096.576	826.111
333.343	15.481	1095.516	825.795
334.358	15.416	1094.943	824.971
335.373	15.461	1094.150	824.521
336.387	15.475	1093.522	824.046
337.402	15.419	1092.823	823.172
338.416	15.478	1092.234	822.945
339.431	15.440	1091.652	822.243
340.446	15.629	1090.941	822.564
341.460	15.686	1090.197	822.206
342.475	15.677	1089.421	821.505
343.489	15.676	1088.317	820.593
344.504	15.666	1087.708	820.017
345.519	15.730	1086.590	819.410
346.533	15.772	1085.761	818.916
347.548	15.791	1085.158	818.484
348.562	15.810	1084.695	818.155
349.577	15.713	1083.940	817.041
350.592	15.788	1082.866	816.521
351.606	15.620	1082.401	815.287
352.621	15.666	1081.795	814.979
353.635	15.619	1081.201	814.231
354.650	15.638	1080.074	813.403
355.665	15.673	1079.152	812.805
356.679	15.835	1078.588	813.093
357.694	15.840	1077.972	812.578
358.708	15.915	1077.175	812.269
359.723	15.803	1077.243	811.707
360.738	15.822	1076.363	811.065
361.752	15.813	1076.074	810.733
362.767	15.815	1075.476	810.219
363.781	15.863	1074.738	809.824
364.796	15.982	1073.921	809.708
365.810	15.947	1073.696	809.298
366.825	16.048	1072.643	808.919
367.840	16.174	1072.155	809.081
368.854	16.069	1072.054	808.433
369.869	16.111	1070.941	807.720
370.883	16.030	1070.020	806.566
371.898	16.046	1069.501	806.182
372.913	16.148	1068.707	805.999
373.927	16.148	1067.898	805.317
374.942	16.095	1067.928	805.015
375.956	16.159	1067.453	804.892
376.971	16.057	1066.973	803.972
377.986	16.314	1066.156	804.509
379.000	16.208	1066.023	803.832
380.015	16.305	1064.929	803.399
381.029	16.277	1064.586	802.937
382.044	16.322	1063.815	802.500
383.059	16.295	1062.848	801.567
384.073	16.379	1062.062	801.305
385.088	16.314	1061.191	800.268
386.102	16.313	1060.089	799.361
387.117	16.425	1059.220	799.165
388.132	16.336	1058.075	797.809
389.146	16.333	1057.541	797.323
390.161	16.238	1056.900	796.319
391.175	16.153	1056.606	795.627
392.190	16.371	1055.754	795.943
393.205	16.394	1055.121	795.502
394.219	16.454	1054.041	794.900
395.234	16.343	1053.612	793.987
396.248	16.338	1052.478	793.037
397.263	16.320	1051.376	792.052
398.278	16.276	1050.791	791.337
399.292	16.400	1049.940	791.205
400.307	16.387	1049.285	790.580
401.321	16.441	1048.510	790.180
402.336	16.350	1048.100	789.374
403.350	16.417	1047.080	788.850
404.365	16.421	1046.622	788.453
405.380	16.489	1046.006	788.237
406.394	16.442	1045.284	787.404
407.409	16.579	1044.387	787.297
408.423	16.539	1043.911	786.682
409.438	16.611	1042.808	786.115
410.453	16.568	1042.597	785.687
411.467	16.696	1041.591	785.451
412.482	16.743	1040.930	785.103
413.496	16.845	1040.060	784.851
414.511	16.658	1039.778	783.703
415.526	16.720	1039.549	783.749
416.540	16.845	1038.792	783.683
417.555	16.890	1037.806	783.081
418.569	16.812	1037.900	782.722
419.584	16.838	1037.362	782.366
420.599	16.853	1036.691	781.859
421.613	96.362	1310.854	1428.541
422.628	88.323	1350.795	1428.627
