DTS Sentinel unit serial number:	SN413079Multiplexer serial number:	ORYXHardware model number:	OX4-SRSoftware version number:	ORYX F/W v4.00 Oryx Data Collector v3.7.2.0data status	okinstallation	princeton_trtdifferential loss correction	single-endedforward channel	channel 2reverse channel	N/Adate	2019/09/13time	19:59:35forward acquisition time	60.00reverse acquisition time	0.00gamma	496.2192k internal	0.2332k external	0.2332temperature offset calibration	1.0143default loss term (dB/km)	0.3790temperature slope calibration	1.0000multiplexer offset coefficient	1.0000multiplexer slope coefficient	1.0000fibre end	0.00T internal ref (°C)	29.80T ext. ref 1 (°C)	3.31T ext. ref 2 (°C)	24.24length (m)	temperature (°C)	Stokes	anti-Stokes-747.200	-143.381	0.270	0.026
-746.185	41.633	-0.136	0.124
-745.171	-58.845	-0.271	-0.118
-744.156	-49.989	-0.216	0.103
-743.142	-200.000	-0.008	-0.116
-742.127	0.355	-0.096	0.069
-741.112	-38.558	0.094	-0.050
-740.098	234.135	0.213	0.354
-739.083	-104.336	0.125	0.029
-738.069	145.673	-0.132	0.178
-737.054	7.466	-0.274	-0.206
-736.039	296.737	-0.022	0.041
-735.025	-129.320	0.240	-0.034
-734.010	-75.746	0.374	0.133
-732.996	26.166	-0.370	-0.310
-731.981	800.000	0.018	-0.070
-730.966	190.470	0.045	0.069
-729.952	49.714	-0.277	0.262
-728.937	187.041	-0.097	0.145
-727.923	-89.496	-0.145	-0.043
-726.908	136.421	-0.238	-0.312
-725.894	800.000	-0.072	0.285
-724.879	-5.979	-0.285	-0.196
-723.864	-200.000	-0.019	-0.093
-722.850	-98.824	0.139	0.036
-721.835	-99.167	0.293	0.075
-720.821	349.241	-0.066	-0.131
-719.806	393.637	-0.126	-0.263
-718.791	-125.781	-0.292	-0.044
-717.777	214.137	-0.109	-0.173
-716.762	-8.821	0.059	-0.040
-715.748	-31.805	0.332	-0.187
-714.733	-114.301	-0.352	0.068
-713.718	-153.527	-0.024	0.002
-712.704	672.864	0.087	-0.226
-711.689	-75.618	0.179	-0.064
-710.675	-200.000	0.015	-0.163
-709.660	84.499	0.089	0.098
-708.645	-82.626	-0.115	-0.037
-707.631	800.000	-0.029	0.095
-706.616	48.048	0.103	-0.097
-705.602	-200.000	-0.007	-0.196
-704.587	-200.000	-0.228	0.001
-703.572	-110.234	0.206	-0.043
-702.558	19.849	0.153	0.124
-701.543	125.637	0.294	-0.372
-700.529	338.022	0.105	-0.205
-699.514	-117.291	0.204	0.037
-698.499	253.836	0.096	-0.164
-697.485	800.000	-0.019	-0.072
-696.470	29.691	0.122	0.104
-695.456	-47.385	0.213	-0.104
-694.441	-51.271	-0.333	0.157
-693.426	-200.000	0.015	-0.236
-692.412	80.947	0.087	-0.094
-691.397	-178.777	-0.238	-0.005
-690.383	-11.463	-0.022	-0.015
-689.368	19.335	-0.130	-0.105
-688.354	-74.447	-0.176	0.064
-687.339	27.965	0.107	-0.091
-686.324	73.232	-0.252	-0.265
-685.310	-200.000	-0.045	-0.252
-684.295	-121.255	0.424	0.071
-683.281	25.720	-0.315	-0.263
-682.266	-149.960	-0.220	-0.017
-681.251	-104.670	-0.270	0.062
-680.237	104.383	-0.091	-0.108
-679.222	-93.795	0.086	0.024
-678.208	29.737	0.206	-0.176
-677.193	-200.000	-0.005	0.123
-676.178	27.237	0.152	0.128
-675.164	800.000	-0.073	-0.284
-674.149	800.000	0.025	0.070
-673.135	-120.419	-0.075	0.013
-672.120	-28.331	0.127	-0.074
-671.105	-19.685	-0.105	-0.065
-670.091	572.056	0.080	0.196
-669.076	-85.806	-0.095	-0.030
-668.062	95.525	-0.138	0.157
-667.047	43.927	0.261	-0.240
-666.032	-46.816	0.060	0.030
-665.018	-200.000	0.001	0.051
-664.003	-42.093	-0.401	-0.206
-662.989	-176.654	0.204	0.005
-661.974	-200.000	0.006	-0.291
-660.959	800.000	-0.056	-0.237
-659.945	62.424	0.290	-0.291
-658.930	-63.356	-0.313	-0.129
-657.916	-200.000	-0.004	0.071
-656.901	95.878	0.193	-0.221
-655.886	-115.707	-0.270	-0.051
-654.872	-111.223	0.103	0.021
-653.857	-41.594	-0.337	0.174
-652.843	61.342	0.137	0.137
-651.828	8.657	-0.298	0.225
-650.814	-96.154	0.248	-0.066
-649.799	7.091	-0.154	-0.115
-648.784	-117.181	-0.121	0.022
-647.770	104.349	-0.238	-0.280
-646.755	-32.615	-0.462	-0.258
-645.741	397.334	0.183	0.384
-644.726	-200.000	-0.062	0.292
-643.711	412.352	0.051	-0.109
-642.697	-200.000	0.014	-0.152
-641.682	-200.000	0.040	0.280
-640.668	-37.342	0.147	-0.079
-639.653	800.000	-0.059	-0.193
-638.638	-50.358	0.261	-0.124
-637.624	-72.947	-0.319	0.117
-636.609	16.588	-0.164	-0.130
-635.595	63.903	0.186	-0.187
-634.580	15.818	0.204	-0.161
-633.565	127.995	-0.072	-0.092
-632.551	800.000	-0.021	0.072
-631.536	1.321	-0.317	-0.228
-630.522	-50.673	-0.097	0.046
-629.507	-176.957	0.158	0.004
-628.492	-126.883	0.299	-0.044
-627.478	800.000	-0.069	-0.217
-626.463	-137.556	-0.150	-0.017
-625.449	-94.695	0.118	-0.032
-624.434	-67.563	-0.344	-0.135
-623.419	-144.361	-0.295	0.027
-622.405	19.795	0.195	-0.157
-621.390	-19.340	-0.523	-0.325
-620.376	-96.463	0.088	0.023
-619.361	-61.640	0.270	-0.113
-618.346	-23.162	0.206	-0.124
-617.332	-126.542	-0.059	-0.009
-616.317	105.279	-0.144	0.171
-615.303	273.009	-0.012	0.021
-614.288	139.332	-0.099	0.130
-613.273	-200.000	-0.067	-0.299
-612.259	244.620	-0.021	-0.036
-611.244	-125.906	-0.173	0.026
-610.230	136.004	-0.177	-0.230
-609.215	-47.766	0.082	0.040
-608.201	-42.278	-0.269	0.137
-607.186	-102.694	-0.364	-0.087
-606.171	-200.000	-0.011	0.494
-605.157	-200.000	-0.010	-0.204
-604.142	112.388	-0.066	-0.080
-603.128	502.625	0.182	-0.421
-602.113	713.011	0.097	0.258
-601.098	103.949	0.072	0.085
-600.084	800.000	0.076	0.327
-599.069	28.160	0.118	-0.099
-598.055	200.701	-0.024	-0.038
-597.040	-200.000	-0.263	0.000
-596.025	-200.000	-0.017	0.204
-595.011	-7.417	-0.158	0.107
-593.996	-45.232	-0.360	-0.179
-592.982	-45.867	-0.099	-0.049
-591.967	399.443	-0.057	0.119
-590.952	298.363	-0.019	0.034
-589.938	182.248	-0.078	0.114
-588.923	-200.000	0.023	0.205
-587.909	83.338	-0.121	-0.131
-586.894	-15.925	-0.248	0.158
-585.879	-200.000	0.034	0.184
-584.865	10.663	0.263	-0.201
-583.850	114.739	-0.062	0.075
-582.836	-26.455	0.203	-0.119
-581.821	121.445	0.124	0.155
-580.806	244.253	-0.095	0.160
-579.792	213.770	0.132	0.209
-578.777	72.036	-0.031	0.032
-577.763	259.253	-0.038	0.066
-576.748	-200.000	0.084	0.460
-575.733	149.762	0.178	0.241
-574.719	800.000	0.102	0.331
-573.704	-200.000	-0.045	0.426
-572.690	-114.574	-0.363	-0.069
-571.675	529.762	0.128	-0.303
-570.661	-200.000	0.032	-0.151
-569.646	236.999	0.182	0.301
-568.631	711.181	-0.126	0.332
-567.617	-88.154	0.292	-0.088
-566.602	300.705	0.091	0.168
-565.588	800.000	-0.034	0.128
-564.573	247.915	-0.204	-0.345
-563.558	-106.797	0.243	0.054
-562.544	-41.662	0.260	-0.133
-561.529	-69.341	-0.136	-0.052
-560.515	140.773	0.127	0.167
-559.500	220.237	-0.193	0.310
-558.485	-200.000	-0.003	-0.164
-557.471	-22.476	0.310	0.187
-556.456	256.896	-0.080	0.136
-555.442	-132.749	-0.357	0.046
-554.427	39.579	-0.141	-0.126
-553.412	254.175	-0.108	0.185
-552.398	-98.876	0.059	-0.015
-551.383	289.188	0.036	-0.064
-550.369	-200.000	-0.042	0.224
-549.354	5.905	-0.152	-0.112
-548.339	-76.710	-0.277	0.097
-547.325	139.879	0.168	-0.220
-546.310	-140.976	-0.267	0.027
-545.296	10.676	0.194	0.147
-544.281	-175.014	0.166	-0.005
-543.266	22.699	-0.207	-0.169
-542.252	-200.000	0.050	-0.282
-541.237	7.712	0.092	-0.069
-540.223	-200.000	-0.034	0.208
-539.208	-200.000	0.002	-0.243
-538.193	95.015	0.258	-0.293
-537.179	170.332	0.137	-0.195
-536.164	-63.042	-0.116	0.048
-535.150	58.592	0.123	-0.120
-534.135	-200.000	0.146	0.000
-533.121	2.881	0.223	-0.162
-532.106	-81.056	0.190	-0.063
-531.091	-112.693	0.269	0.053
-530.077	-129.589	0.255	0.035
-529.062	-98.591	0.297	-0.076
-528.048	-200.000	0.001	0.292
-527.033	-200.000	0.044	0.582
-526.018	-200.000	-0.021	0.223
-525.004	167.616	-0.211	0.300
-523.989	45.295	0.231	0.212
-522.975	44.122	-0.150	0.137
-521.960	5.675	-0.202	0.149
-520.945	-85.034	-0.211	-0.066
-519.931	336.066	0.006	-0.012
-518.916	56.903	0.411	-0.399
-517.902	577.345	-0.082	0.201
-516.887	141.692	-0.063	0.083
-515.872	-145.657	-0.353	0.031
-514.858	213.055	0.174	0.274
-513.843	613.838	0.050	0.125
-512.829	4.719	0.166	-0.121
-511.814	-132.642	0.208	-0.027
-510.799	-138.308	-0.233	0.026
-509.785	-31.784	-0.198	-0.111
-508.770	-200.000	0.051	-0.249
-507.756	800.000	0.107	0.444
-506.741	24.863	0.322	0.266
-505.726	-200.000	-0.009	-0.069
-504.712	-157.744	-0.186	0.011
-503.697	60.647	-0.067	0.066
-502.683	-87.494	-0.210	-0.063
-501.668	800.000	-0.035	-0.110
-500.653	-120.346	0.170	-0.029
-499.639	800.000	-0.030	-0.100
-498.624	90.182	-0.192	-0.214
-497.610	-114.984	-0.099	0.019
-496.595	800.000	-0.072	0.248
-495.581	-200.000	-0.035	-0.187
-494.566	23.235	0.289	0.237
-493.551	97.617	-0.067	-0.077
-492.537	-166.718	0.276	-0.011
-491.522	-26.948	-0.107	0.062
-490.508	208.879	-0.082	0.128
-489.493	82.046	-0.083	0.089
-488.478	-100.460	0.265	-0.065
-487.464	239.437	0.077	0.128
-486.449	-92.951	-0.254	-0.070
-485.435	60.086	0.098	-0.096
-484.420	535.139	-0.100	-0.236
-483.405	-50.984	-0.465	0.217
-482.391	-177.799	-0.175	0.004
-481.376	-200.000	0.021	-0.191
-480.362	-157.725	-0.316	0.019
-479.347	-17.596	0.166	0.104
-478.332	199.657	0.031	0.048
-477.318	440.220	-0.050	-0.108
-476.303	-138.030	0.170	0.019
-475.289	-171.870	0.114	0.004
-474.274	-34.305	-0.044	-0.024
-473.259	800.000	0.023	-0.070
-472.245	-31.512	-0.069	0.038
-471.230	-200.000	-0.040	0.223
-470.216	300.543	-0.089	0.164
-469.201	-200.000	-0.081	0.422
-468.186	-200.000	0.015	-0.233
-467.172	-3.666	0.195	0.135
-466.157	1.803	-0.236	0.170
-465.143	42.787	-0.045	-0.041
-464.128	96.032	0.123	0.140
-463.113	4.646	0.055	-0.040
-462.099	608.193	-0.023	0.057
-461.084	-167.797	-0.332	0.013
-460.070	-46.663	-0.240	-0.117
-459.055	-12.531	0.266	0.173
-458.040	-54.556	-0.236	0.106
-457.026	194.905	0.080	0.121
-456.011	615.729	0.082	0.205
-454.997	-117.136	0.094	-0.017
-453.982	800.000	0.055	-0.216
-452.968	78.744	0.160	-0.170
-451.953	-63.276	-0.352	0.144
-450.938	416.320	0.149	0.316
-449.924	-44.230	-0.382	-0.191
-448.909	-167.170	0.283	0.011
-447.895	-200.000	0.041	-0.229
-446.880	-23.128	0.181	-0.108
-445.865	-108.275	-0.040	0.008
-444.851	-58.975	0.200	-0.086
-443.836	127.171	0.066	-0.083
-442.822	-66.007	0.207	0.082
-441.807	-119.289	-0.158	-0.027
-440.792	-24.840	0.254	0.150
-439.778	-36.088	-0.367	0.197
-438.763	210.363	-0.191	-0.299
-437.749	181.800	0.104	0.152
-436.734	-75.128	0.360	0.128
-435.719	-166.230	0.179	-0.008
-434.705	31.401	-0.232	-0.198
-433.690	-200.000	-0.053	0.385
-432.676	-21.693	-0.113	0.068
-431.661	19.040	-0.285	-0.227
-430.646	-49.092	-0.123	0.058
-429.632	51.683	-0.099	-0.093
-428.617	-200.000	-0.012	-0.170
-427.603	-176.381	0.375	0.010
-426.588	-149.432	-0.066	0.005
-425.573	-62.800	0.361	0.148
-424.559	520.659	0.051	-0.119
-423.544	158.177	-0.317	-0.437
-422.530	-200.000	0.028	0.270
-421.515	47.310	-0.110	-0.102
-420.500	-37.615	0.055	-0.029
-419.486	-159.287	-0.133	-0.007
-418.471	346.871	0.065	-0.127
-417.457	-29.833	-0.186	0.105
-416.442	-200.000	-0.034	-0.380
-415.428	-139.158	-0.205	0.022
-414.413	-96.401	0.138	-0.036
-413.398	-200.000	-0.017	0.077
-412.384	800.000	-0.119	-0.453
-411.369	713.648	0.099	-0.261
-410.355	77.661	-0.343	-0.362
-409.340	-39.340	0.378	-0.197
-408.325	-79.400	0.112	-0.038
-407.311	-1.444	0.128	-0.089
-406.296	-64.894	-0.107	-0.043
-405.282	167.982	0.109	-0.155
-404.267	190.681	-0.246	0.367
-403.252	-112.238	-0.216	0.043
-402.238	65.856	0.016	-0.016
-401.223	-166.925	0.244	-0.010
-400.209	4.376	0.236	0.171
-399.194	-200.000	-0.021	0.267
-398.179	-38.146	0.195	0.103
-397.165	199.133	0.071	-0.108
-396.150	-200.000	-0.037	-0.396
-395.136	-117.025	-0.194	-0.035
-394.121	-200.000	-0.004	-0.220
-393.106	-51.469	-0.122	0.057
-392.092	-113.845	-0.253	-0.049
-391.077	-10.830	-0.101	-0.066
-390.063	-150.973	-0.188	0.014
-389.048	276.030	0.110	-0.193
-388.033	-48.675	0.162	-0.077
-387.019	6.343	0.067	-0.050
-386.004	-200.000	0.009	0.368
-384.990	-157.026	-0.072	0.004
-383.975	800.000	-0.107	0.415
-382.960	599.824	0.073	0.180
-381.946	-106.631	-0.449	-0.099
-380.931	-115.157	0.283	-0.053
-379.917	195.110	0.199	-0.300
-378.902	-83.142	0.198	-0.063
-377.888	20.667	-0.270	-0.217
-376.873	88.719	0.079	0.087
-375.858	58.456	-0.244	-0.237
-374.844	5.549	-0.031	-0.023
-373.829	262.131	0.110	-0.190
-372.815	-200.000	0.146	-0.000
-371.800	-13.640	-0.225	0.144
-370.785	-183.629	0.150	0.003
-369.771	800.000	-0.095	0.279
-368.756	-115.295	-0.151	-0.028
-367.742	15.662	0.290	-0.226
-366.727	-200.000	-0.036	-0.173
-365.712	734.312	0.030	0.079
-364.698	-200.000	0.001	0.153
-363.683	290.468	-0.077	-0.139
-362.669	-37.089	-0.119	-0.063
-361.654	108.925	-0.073	-0.086
-360.639	120.657	0.165	-0.204
-359.625	-200.000	0.003	-0.061
-358.610	-44.113	0.180	0.090
-357.596	19.638	0.230	0.184
-356.581	27.472	0.131	-0.109
-355.566	108.796	-0.181	0.214
-354.552	678.513	0.041	0.105
-353.537	53.420	-0.073	-0.069
-352.523	-16.642	0.257	0.161
-351.508	800.000	0.081	0.294
-350.493	125.337	0.142	-0.177
-349.479	-45.088	0.128	0.063
-348.464	91.825	-0.128	0.143
-347.450	-200.000	-0.092	0.434
-346.435	-145.893	0.293	0.026
-345.420	-53.927	0.212	0.096
-344.406	73.068	0.201	0.208
-343.391	325.354	0.077	0.145
-342.377	-87.934	-0.227	-0.068
-341.362	196.350	0.169	-0.255
-340.348	29.779	0.203	-0.172
-339.333	-72.689	0.261	-0.095
-338.318	712.246	0.074	-0.194
-337.304	800.000	-0.044	-0.129
-336.289	-52.018	0.212	0.097
-335.275	68.430	0.117	-0.119
-334.260	-38.564	-0.206	0.108
-333.245	-31.975	-0.368	-0.204
-332.231	-130.751	0.376	0.050
-331.216	-171.354	0.053	0.002
-330.202	311.619	0.177	-0.329
-329.187	250.234	-0.268	-0.450
-328.172	-49.575	-0.312	-0.147
-327.158	-141.555	0.300	0.030
-326.143	-200.000	0.036	0.336
-325.129	-200.000	-0.001	0.182
-324.114	727.929	-0.108	-0.286
-323.099	-98.453	0.326	0.083
-322.085	-200.000	-0.001	0.087
-321.070	-42.412	-0.035	0.018
-320.056	64.010	0.085	-0.085
-319.041	-93.490	0.290	0.079
-318.026	-83.281	-0.133	-0.042
-317.012	717.697	-0.093	0.246
-315.997	-200.000	0.040	0.193
-314.983	8.721	-0.185	0.138
-313.968	367.321	-0.027	0.054
-312.953	139.090	-0.126	0.164
-311.939	-48.403	0.158	0.075
-310.924	-68.242	0.345	-0.133
-309.910	-31.718	-0.227	-0.126
-308.895	-96.879	-0.260	0.068
-307.880	-200.000	-0.000	-0.053
-306.866	-81.530	0.247	0.080
-305.851	-200.000	-0.038	-0.241
-304.837	-200.000	0.001	-0.204
-303.822	-120.854	-0.427	0.071
-302.807	-141.059	0.474	0.048
-301.793	-40.512	0.083	0.042
-300.778	-68.344	0.228	0.088
-299.764	88.597	-0.053	-0.058
-298.749	-67.851	0.287	0.111
-297.735	-113.552	-0.242	0.047
-296.720	-77.365	0.229	-0.079
-295.705	-80.275	0.346	-0.114
-294.691	-118.488	0.631	0.110
-293.676	334.666	-0.156	-0.298
-292.662	27.122	0.247	0.205
-291.647	112.483	0.115	-0.138
-290.632	-41.745	-0.283	-0.143
-289.618	-157.069	-0.198	0.012
-288.603	51.690	-0.347	0.326
-287.589	-128.343	-0.398	0.056
-286.574	272.012	-0.148	0.257
-285.559	-200.000	0.000	-0.178
-284.545	782.016	0.102	-0.275
-283.530	-200.000	-0.038	-0.192
-282.516	80.793	-0.144	-0.154
-281.501	-200.000	0.051	0.239
-280.486	-200.000	-0.010	0.211
-279.472	-200.000	0.013	-0.420
-278.457	-153.072	-0.196	0.014
-277.443	186.892	-0.233	0.343
-276.428	-122.951	-0.272	0.043
-275.413	158.711	0.084	0.115
-274.399	-55.072	0.235	-0.105
-273.384	-61.069	0.156	0.065
-272.370	-57.531	-0.230	0.100
-271.355	-126.383	0.196	0.029
-270.340	-64.687	0.060	-0.024
-269.326	-200.000	-0.018	0.206
-268.311	800.000	-0.042	0.131
-267.297	-122.796	0.135	-0.021
-266.282	-200.000	0.068	-0.357
-265.267	-152.988	0.236	-0.016
-264.253	114.735	0.274	0.330
-263.238	-200.000	-0.004	-0.065
-262.224	461.207	0.112	-0.246
-261.209	-48.081	-0.344	-0.164
-260.195	-200.000	-0.053	0.354
-259.180	-40.692	-0.207	-0.106
-258.165	42.045	0.276	-0.247
-257.151	-200.000	-0.001	-0.183
-256.136	-200.000	-0.029	-0.351
-255.122	-200.000	-0.027	-0.391
-254.107	232.061	0.155	-0.252
-253.092	48.346	0.093	-0.086
-252.078	-200.000	0.010	0.192
-251.063	19.915	0.147	-0.117
-250.049	-137.718	0.142	-0.016
-249.034	10.298	0.010	-0.008
-248.019	-102.160	-0.227	-0.054
-247.005	-59.491	0.134	-0.057
-245.990	800.000	-0.061	0.247
-244.976	-60.647	0.072	-0.030
-243.961	142.118	-0.294	0.384
-242.946	543.184	0.101	0.238
-241.932	6.665	-0.169	-0.124
-240.917	-200.000	-0.053	-0.372
-239.903	-179.861	0.273	0.006
-238.888	-54.260	-0.199	-0.089
-237.873	120.565	-0.019	-0.023
-236.859	-100.090	-0.312	0.077
-235.844	21.980	-0.310	-0.250
-234.830	273.438	0.202	-0.353
-233.815	101.640	-0.315	-0.362
-232.800	416.215	-0.089	-0.187
-231.786	29.062	0.204	-0.171
-230.771	99.939	0.241	-0.275
-229.757	-73.019	-0.348	0.126
-228.742	-200.000	-0.076	-0.336
-227.727	22.388	-0.174	-0.140
-226.713	188.573	-0.113	-0.166
-225.698	-64.312	0.285	-0.114
-224.684	-69.888	-0.395	0.148
-223.669	-99.803	-0.137	-0.034
-222.655	-29.395	0.264	-0.149
-221.640	94.535	-0.087	-0.098
-220.625	332.817	-0.124	-0.236
-219.611	267.453	0.123	0.212
-218.596	-93.334	0.229	0.063
-217.582	108.807	-0.224	-0.264
-216.567	61.710	0.160	0.157
-215.552	-13.444	0.224	-0.143
-214.538	-89.034	0.102	-0.030
-213.523	657.321	0.113	0.285
-212.509	618.930	-0.079	0.195
-211.494	-18.339	0.170	-0.105
-210.479	31.633	0.111	0.094
-209.465	-111.655	-0.388	0.078
-208.450	364.705	0.146	0.290
-207.436	-16.827	0.150	0.094
-206.421	-26.775	-0.122	-0.070
-205.406	493.364	-0.150	-0.338
-204.392	-48.893	-0.162	0.077
-203.377	49.567	-0.097	-0.090
-202.363	-117.255	0.166	-0.030
-201.348	231.329	0.113	0.183
-200.333	-58.198	0.149	0.064
-199.319	-116.437	-0.159	0.029
-198.304	-132.673	-0.292	-0.037
-197.290	203.146	0.102	0.156
-196.275	-111.071	-0.404	0.082
-195.260	96.231	-0.229	0.258
-194.246	-196.824	0.087	-0.001
-193.231	-75.249	0.156	0.055
-192.217	-200.000	-0.003	0.170
-191.202	299.389	0.065	-0.118
-190.187	32.985	-0.189	-0.161
-189.173	-21.649	0.523	-0.313
-188.158	10.350	-0.153	0.114
-187.144	558.899	0.087	0.206
-186.129	8.266	-0.148	-0.110
-185.114	-40.634	-0.255	-0.130
-184.100	-200.000	0.035	0.221
-183.085	-37.166	0.322	0.170
-182.071	7.272	-0.301	0.221
-181.056	-200.000	0.085	0.461
-180.042	800.000	0.072	0.201
-179.027	334.729	0.038	0.072
-178.012	57.533	0.240	0.231
-176.998	-200.000	-0.049	0.253
-175.983	-170.692	0.427	-0.015
-174.969	481.853	0.088	-0.196
-173.954	-200.000	0.001	0.167
-172.939	-70.127	-0.225	0.084
-171.925	0.875	0.086	0.061
-170.910	-7.561	-0.297	-0.197
-169.896	800.000	-0.020	-0.062
-168.881	118.679	-0.244	0.296
-167.866	800.000	0.019	0.064
-166.852	-95.348	0.472	-0.125
-165.837	-200.000	-0.027	-0.132
-164.823	46.865	-0.094	-0.086
-163.808	742.999	0.063	-0.167
-162.793	68.089	-0.054	0.054
-161.779	-200.000	-0.048	0.285
-160.764	800.000	0.075	-0.219
-159.750	-76.311	0.229	0.079
-158.735	-200.000	-0.003	0.062
-157.720	-96.892	0.388	-0.100
-156.706	41.010	0.118	-0.105
-155.691	-200.000	0.004	0.294
-154.677	-200.000	0.011	-0.321
-153.662	-128.727	-0.364	0.051
-152.647	-112.355	0.173	0.034
-151.633	548.980	-0.043	-0.100
-150.618	-127.361	-0.067	-0.010
-149.604	147.115	-0.045	-0.060
-148.589	-125.662	0.200	-0.030
-147.574	-92.771	0.099	-0.027
-146.560	800.000	-0.065	-0.176
-145.545	-106.822	-0.216	-0.047
-144.531	-4.050	0.230	0.156
-143.516	227.644	-0.314	-0.502
-142.502	-104.539	0.099	0.023
-141.487	-200.000	0.004	0.268
-140.472	800.000	-0.098	0.385
-139.458	-102.296	-0.232	0.055
-138.443	-57.832	-0.138	0.059
-137.429	392.120	-0.045	0.091
-136.414	13.780	-0.096	0.073
-135.399	43.859	-0.164	0.148
-134.385	800.000	0.058	0.167
-133.370	617.221	0.114	0.280
-132.356	-78.227	0.333	-0.113
-131.341	-200.000	-0.001	0.016
-130.326	26.571	0.068	-0.056
-129.312	-142.154	0.292	-0.028
-128.297	800.000	0.036	-0.099
-127.283	-200.000	0.024	-0.176
-126.268	-32.573	0.086	0.047
-125.253	31.988	-0.217	0.184
-124.239	13.555	-0.327	0.250
-123.224	-2.493	0.124	-0.086
-122.210	-48.101	-0.089	0.042
-121.195	-69.354	0.253	-0.095
-120.180	219.755	-0.280	0.440
-119.166	-74.870	0.155	0.055
-118.151	-200.000	-0.008	-0.062
-117.137	137.194	-0.242	-0.311
-116.122	-63.825	-0.087	-0.035
-115.107	800.000	-0.021	0.062
-114.093	-181.302	0.176	0.003
-113.078	-48.297	-0.227	-0.107
-112.064	-28.218	-0.150	0.085
-111.049	62.732	0.135	-0.132
-110.034	-79.766	0.147	0.049
-109.020	-71.547	0.101	-0.037
-108.005	137.746	-0.118	-0.152
-106.991	-200.000	0.004	-0.065
-105.976	800.000	-0.019	0.082
-104.962	-200.000	0.035	-0.252
-103.947	-145.375	0.168	0.015
-102.932	468.892	-0.026	0.057
-101.918	-200.000	0.077	0.341
-100.903	-34.781	-0.249	0.134
-99.889	-200.000	-0.008	0.136
-98.874	523.588	0.007	0.016
-97.859	-34.240	0.244	-0.132
-96.845	800.000	0.123	0.405
-95.830	-35.627	0.270	0.144
-94.816	800.000	-0.022	0.088
-93.801	334.470	0.186	-0.353
-92.786	-92.336	-0.186	-0.051
-91.772	-119.677	0.146	-0.025
-90.757	-70.628	0.205	-0.076
-89.743	-117.676	-0.132	-0.023
-88.728	-90.127	-0.215	0.061
-87.713	-109.727	0.196	0.040
-86.699	-53.041	-0.194	-0.088
-85.684	-56.349	0.199	0.087
-84.670	131.370	-0.208	-0.262
-83.655	-56.051	0.236	0.103
-82.640	-200.000	-0.039	0.309
-81.626	-200.000	0.065	-0.463
-80.611	280.099	0.181	0.317
-79.597	-200.000	-0.003	-0.019
-78.582	419.268	0.102	0.214
-77.567	-37.693	0.147	0.077
-76.553	595.327	-0.126	0.306
-75.538	-200.000	0.026	0.270
-74.524	-200.000	0.002	-0.051
-73.509	312.615	0.024	-0.044
-72.494	-4.225	0.091	0.061
-71.480	800.000	-0.032	-0.102
-70.465	-200.000	0.070	0.307
-69.451	800.000	-0.105	-0.322
-68.436	14.628	-0.295	-0.225
-67.422	-109.658	-0.295	0.061
-66.407	-84.967	0.223	-0.068
-65.392	13.129	0.230	-0.174
-64.378	-200.000	-0.035	-0.315
-63.363	479.138	-0.041	-0.090
-62.349	-200.000	-0.019	-0.178
-61.334	98.069	-0.860	-0.970
-60.319	161.381	0.420	0.575
-59.305	348.694	-0.476	-0.920
-58.290	496.906	0.590	1.330
-57.276	240.574	0.693	1.132
-56.261	-200.000	109.373	617.298
-55.246	523.901	1493.534	3438.328
-54.232	178.943	2685.695	3844.740
-53.217	106.441	2280.757	2647.436
-52.203	39.081	1894.564	1658.661
-51.188	33.089	1685.528	1430.413
-50.173	30.362	1643.328	1374.388
-49.159	49.758	1697.691	1566.308
-48.144	49.751	1713.237	1580.534
-47.130	32.577	1669.504	1412.754
-46.115	29.885	1655.472	1380.769
-45.100	29.750	1651.022	1375.996
-44.086	29.752	1647.796	1373.267
-43.071	29.639	1645.879	1370.777
-42.057	29.651	1643.352	1368.712
-41.042	29.692	1640.844	1366.872
-40.027	29.701	1639.385	1365.669
-39.013	29.736	1636.813	1363.728
-37.998	29.619	1635.957	1362.096
-36.984	29.642	1634.380	1360.899
-35.969	29.770	1632.793	1360.465
-34.954	29.948	1630.771	1360.037
-33.940	29.794	1629.077	1357.438
-32.925	29.814	1627.701	1356.387
-31.911	29.726	1626.441	1354.638
-30.896	29.786	1624.441	1353.356
-29.881	29.782	1622.441	1351.605
-28.867	29.764	1620.702	1349.972
-27.852	29.783	1619.229	1348.832
-26.838	29.791	1618.060	1347.859
-25.823	29.898	1616.755	1347.502
-24.809	29.882	1615.653	1346.411
-23.794	29.782	1614.558	1344.719
-22.779	29.794	1613.009	1343.460
-21.765	29.743	1610.957	1341.333
-20.750	29.740	1609.628	1340.150
-19.736	29.885	1608.206	1339.960
-18.721	29.855	1606.400	1338.187
-17.706	29.853	1605.237	1337.149
-16.692	29.765	1603.819	1335.284
-15.677	29.822	1602.554	1334.586
-14.663	29.843	1601.278	1333.618
-13.648	29.834	1599.521	1332.040
-12.633	29.866	1598.042	1330.983
-11.619	29.832	1596.123	1329.092
-10.604	29.741	1595.157	1327.580
-9.590	29.821	1593.957	1327.100
-8.575	29.895	1592.786	1326.606
-7.560	29.833	1591.390	1324.943
-6.546	29.877	1589.999	1324.052
-5.531	29.814	1589.812	1323.392
-4.517	29.822	1587.932	1321.829
-3.502	29.773	1587.273	1320.880
-2.487	29.942	1585.142	1320.257
-1.473	29.521	1572.932	1307.061
-0.458	26.242	1553.250	1267.686
0.556	23.460	1552.967	1232.117
1.571	20.789	1576.491	1231.799
2.586	20.266	1588.381	1237.252
3.600	17.803	1534.004	1177.810
4.615	10.441	1427.156	1048.223
5.629	4.373	1367.043	966.294
6.644	3.408	1359.414	954.840
7.659	3.239	1358.858	953.320
8.673	3.221	1357.972	952.506
9.688	3.382	1355.498	951.677
10.702	3.322	1352.761	949.303
11.717	6.102	1357.616	969.801
12.731	13.815	1371.287	1027.396
13.746	19.884	1381.901	1073.004
14.761	20.956	1382.391	1079.929
15.775	20.312	1379.883	1073.893
16.790	19.222	1377.735	1065.388
17.804	18.367	1375.718	1058.453
18.819	18.032	1374.670	1055.487
19.834	17.908	1373.582	1053.790
20.848	17.641	1372.548	1051.259
21.863	17.624	1370.875	1049.780
22.877	17.442	1369.808	1047.749
23.892	17.458	1368.813	1046.991
24.907	17.448	1368.032	1046.244
25.921	17.343	1367.651	1045.213
26.936	17.555	1365.898	1045.079
27.950	17.527	1365.023	1044.149
28.965	17.648	1364.595	1044.467
29.980	17.792	1363.351	1044.310
30.994	17.866	1362.034	1043.659
32.009	17.814	1361.162	1042.578
33.023	17.844	1359.394	1041.319
34.038	17.676	1358.279	1039.347
35.053	17.591	1357.209	1037.919
36.067	17.640	1356.184	1037.343
37.082	17.652	1355.274	1036.624
38.096	17.711	1354.893	1036.602
39.111	17.764	1353.473	1035.747
40.126	17.667	1352.840	1034.578
41.140	17.380	1351.767	1031.928
42.155	17.287	1350.963	1030.657
43.169	17.150	1350.671	1029.515
44.184	17.268	1350.025	1029.645
45.199	17.188	1350.267	1029.251
46.213	17.362	1349.482	1029.619
47.228	17.501	1349.001	1030.002
48.242	17.509	1347.652	1028.928
49.257	17.516	1346.121	1027.708
50.271	17.572	1344.647	1026.830
51.286	17.563	1343.336	1025.684
52.301	17.595	1342.030	1024.792
53.315	17.557	1340.272	1023.128
54.330	17.456	1339.477	1021.824
55.344	17.198	1338.955	1019.790
56.359	17.311	1337.621	1019.361
57.374	17.323	1336.979	1018.849
58.388	17.227	1335.528	1017.084
59.403	17.151	1335.498	1016.516
60.417	17.165	1334.914	1016.060
61.432	17.191	1333.656	1015.169
62.447	16.979	1332.977	1013.298
63.461	17.053	1331.435	1012.478
64.476	17.050	1330.219	1011.444
65.490	17.024	1329.031	1010.296
66.505	17.030	1327.421	1009.021
67.520	17.198	1325.724	1008.635
68.534	17.100	1325.196	1007.567
69.549	17.134	1323.961	1006.742
70.563	17.024	1323.208	1005.425
71.578	16.914	1322.002	1003.767
72.593	16.935	1321.019	1003.058
73.607	16.936	1320.540	1002.609
74.622	16.877	1319.884	1001.674
75.636	16.992	1318.875	1001.498
76.651	16.982	1318.751	1001.256
77.666	16.907	1318.557	1000.578
78.680	17.029	1317.676	1000.542
79.695	17.088	1317.084	1000.352
80.709	17.178	1316.441	1000.302
81.724	17.224	1315.694	999.923
82.739	17.329	1314.949	999.881
83.753	17.543	1314.043	1000.361
84.768	17.583	1313.234	999.892
85.782	17.692	1312.030	999.530
86.797	17.763	1310.504	998.691
87.812	17.545	1309.623	996.657
88.826	17.491	1308.536	995.422
89.841	17.573	1307.951	995.373
90.855	17.699	1306.946	995.253
91.870	17.685	1305.781	994.197
92.884	17.741	1305.030	993.861
93.899	17.769	1304.490	993.525
94.914	17.890	1303.254	993.201
95.928	17.801	1303.036	992.433
96.943	17.815	1301.570	991.308
97.957	17.624	1301.193	989.826
98.972	17.590	1300.371	988.911
99.987	17.692	1298.656	988.110
101.001	17.627	1298.193	987.295
102.016	17.607	1297.116	986.276
103.030	17.627	1296.087	985.521
104.045	17.633	1295.323	984.887
105.060	17.664	1293.684	983.732
106.074	17.380	1292.014	980.740
107.089	17.198	1290.295	978.301
108.103	17.104	1289.461	977.041
109.118	17.102	1288.522	976.229
110.133	17.155	1286.828	975.164
111.147	17.136	1285.839	974.220
112.162	17.292	1284.103	973.712
113.176	17.312	1283.108	972.986
114.191	17.264	1282.614	972.250
115.206	17.304	1281.257	971.361
116.220	17.309	1279.881	970.261
117.235	17.188	1279.160	968.943
118.249	17.125	1277.919	967.558
119.264	17.082	1276.957	966.497
120.279	17.106	1275.691	965.591
121.293	17.113	1274.535	964.669
122.308	16.928	1273.755	962.946
123.322	16.940	1272.472	961.959
124.337	16.903	1271.295	960.771
125.352	16.999	1270.053	960.292
126.366	16.942	1268.763	958.910
127.381	16.985	1267.658	958.232
128.395	16.962	1267.170	957.647
129.410	17.009	1266.334	957.198
130.424	17.092	1265.267	956.776
131.439	17.219	1264.695	956.973
132.454	17.241	1263.882	956.393
133.468	17.230	1262.976	955.566
134.483	17.233	1262.396	955.058
135.497	17.302	1261.159	954.423
136.512	17.300	1259.739	953.253
137.527	17.318	1258.675	952.466
138.541	17.425	1257.197	951.862
139.556	17.359	1256.533	950.904
140.570	17.533	1254.970	950.611
141.585	17.409	1254.488	949.467
142.600	17.571	1252.949	949.122
143.614	17.710	1252.560	949.518
144.629	17.712	1251.691	948.787
145.643	17.779	1250.043	947.823
146.658	17.559	1248.898	945.650
147.673	17.433	1247.237	943.610
148.687	17.404	1246.057	942.475
149.702	17.329	1244.823	941.044
150.716	17.316	1243.693	940.036
151.731	17.364	1242.332	939.187
152.746	17.442	1241.451	938.871
153.760	17.388	1240.392	937.687
154.775	17.504	1238.835	937.068
155.789	17.552	1238.259	936.811
156.804	17.572	1237.401	936.187
157.819	17.690	1236.394	935.990
158.833	17.768	1235.610	935.747
159.848	17.956	1234.664	935.975
160.862	17.766	1234.039	934.380
161.877	17.529	1232.626	931.926
162.892	17.373	1231.458	930.110
163.906	17.318	1230.292	928.846
164.921	17.282	1229.123	927.683
165.935	17.415	1229.122	928.329
166.950	17.541	1228.129	928.181
167.964	17.560	1227.362	927.622
168.979	17.486	1226.759	926.682
169.994	17.470	1225.937	925.892
171.008	17.615	1224.717	925.678
172.023	17.642	1224.329	925.448
173.037	17.782	1223.978	925.862
174.052	17.712	1223.047	924.699
175.067	17.437	1221.799	922.183
176.081	17.419	1220.740	921.201
177.096	17.376	1219.982	920.318
178.110	17.544	1218.669	920.154
179.125	17.468	1217.415	918.716
180.140	17.585	1216.039	918.226
181.154	17.636	1215.253	917.828
182.169	17.654	1214.366	917.174
183.183	17.879	1213.290	917.489
184.198	17.817	1212.167	916.222
185.213	17.884	1210.874	915.527
186.227	17.944	1209.598	914.800
187.242	17.908	1208.737	913.878
188.256	17.963	1208.214	913.693
189.271	17.960	1207.201	912.830
190.286	17.803	1206.161	911.124
191.300	17.469	1205.092	908.454
192.315	17.296	1203.916	906.567
193.329	17.361	1203.465	906.491
194.344	17.520	1202.861	906.803
195.359	17.483	1202.856	906.525
196.373	17.763	1201.763	907.105
197.388	17.802	1201.617	907.122
198.402	18.078	1201.318	908.288
199.417	18.090	1200.443	907.606
200.432	18.148	1199.948	907.462
201.446	18.293	1199.236	907.610
202.461	18.242	1198.450	906.665
203.475	18.319	1196.853	905.785
204.490	18.104	1195.807	903.777
205.504	18.030	1194.300	902.169
206.519	17.992	1193.450	901.246
207.534	17.899	1192.275	899.785
208.548	17.936	1191.460	899.288
209.563	17.918	1191.111	898.848
210.577	17.989	1189.567	897.977
211.592	18.178	1188.533	898.110
212.607	18.205	1188.060	897.816
213.621	18.129	1187.611	896.999
214.636	18.183	1186.459	896.334
215.650	18.096	1185.615	895.159
216.665	18.247	1184.940	895.362
217.680	18.379	1183.955	895.227
218.694	18.362	1183.327	894.586
219.709	18.357	1182.677	893.986
220.723	18.265	1181.892	892.836
221.738	18.276	1181.329	892.389
222.753	18.193	1180.560	891.294
223.767	18.334	1179.626	891.248
224.782	18.334	1179.387	890.985
225.796	18.583	1177.980	891.136
226.811	18.518	1177.631	890.457
227.826	18.373	1176.753	888.962
228.840	18.222	1176.300	887.759
229.855	18.327	1175.080	887.303
230.869	18.216	1174.717	886.378
231.884	18.353	1173.237	885.891
232.899	18.198	1172.678	884.587
233.913	18.173	1171.636	883.595
234.928	18.129	1171.142	882.915
235.942	18.163	1170.488	882.519
236.957	18.187	1169.660	881.943
237.972	18.165	1169.281	881.462
238.986	18.101	1168.138	880.197
240.001	18.117	1167.696	879.868
241.015	18.244	1166.732	879.716
242.030	18.319	1166.155	879.589
243.045	18.290	1165.545	878.901
244.059	18.392	1164.615	878.645
245.074	18.536	1163.239	878.267
246.088	18.467	1162.977	877.641
247.103	18.554	1162.404	877.571
248.117	18.639	1161.822	877.490
249.132	18.846	1160.904	877.778
250.147	19.008	1160.464	878.194
251.161	19.088	1159.997	878.174
252.176	19.151	1158.957	877.625
253.190	19.261	1158.487	877.754
254.205	19.112	1158.344	876.808
255.220	19.149	1157.585	876.344
256.234	19.169	1157.065	875.977
257.249	19.077	1156.413	874.939
258.263	19.190	1155.753	874.936
259.278	19.193	1155.218	874.466
260.293	19.150	1154.060	873.294
261.307	19.090	1153.499	872.487
262.322	19.233	1153.015	872.770
263.336	19.347	1152.218	872.669
264.351	19.370	1151.653	872.278
265.366	19.361	1151.104	871.742
266.380	19.304	1150.410	870.848
267.395	19.250	1149.607	869.893
268.409	19.180	1148.677	868.758
269.424	19.147	1147.976	867.985
270.439	19.137	1147.572	867.550
271.453	19.217	1146.722	867.236
272.468	19.055	1145.860	865.692
273.482	19.069	1144.808	864.891
274.497	19.025	1144.528	864.382
275.512	19.055	1143.954	864.021
276.526	19.095	1142.958	863.394
277.541	19.109	1142.001	862.665
278.555	19.130	1141.613	862.402
279.570	19.217	1141.081	862.360
280.585	19.471	1139.946	862.693
281.599	19.498	1138.872	861.938
282.614	19.301	1138.217	860.385
283.628	19.199	1137.127	858.973
284.643	19.300	1136.066	858.600
285.657	19.150	1135.666	857.476
286.672	19.184	1134.283	856.528
287.687	19.305	1133.574	856.517
288.701	19.208	1133.177	855.660
289.716	19.220	1131.992	854.747
290.730	19.312	1131.267	854.578
291.745	19.268	1130.740	853.888
292.760	19.401	1130.266	854.115
293.774	19.421	1129.622	853.649
294.789	19.551	1129.386	854.038
295.803	19.556	1128.759	853.515
296.818	19.418	1127.382	851.715
297.833	19.337	1127.140	851.056
298.847	19.457	1126.071	850.766
299.862	19.382	1125.414	849.827
300.876	19.460	1124.671	849.574
301.891	19.546	1124.091	849.483
302.906	19.649	1123.342	849.349
303.920	19.726	1122.682	849.155
304.935	19.825	1122.255	849.239
305.949	19.835	1121.957	848.990
306.964	19.865	1120.986	848.325
307.979	19.657	1120.458	846.832
308.993	19.668	1119.893	846.386
310.008	19.781	1118.779	846.022
311.022	19.804	1118.406	845.777
312.037	19.745	1117.211	844.509
313.052	19.659	1116.378	843.383
314.066	19.525	1115.427	841.938
315.081	19.358	1114.784	840.566
316.095	19.354	1113.955	839.845
317.110	19.388	1113.190	839.361
318.125	19.517	1112.264	839.213
319.139	19.301	1112.068	837.943
320.154	19.435	1111.128	837.810
321.168	19.468	1110.473	837.405
322.183	19.459	1109.876	836.837
323.197	19.600	1109.131	836.881
324.212	19.505	1108.741	836.057
325.227	19.606	1108.075	835.970
326.241	19.649	1107.310	835.526
327.256	19.593	1106.485	834.557
328.270	19.535	1105.720	833.628
329.285	19.493	1104.956	832.773
330.300	19.495	1104.289	832.205
331.314	19.462	1102.982	830.991
332.329	19.700	1101.670	831.071
333.343	19.756	1100.784	830.601
334.358	19.892	1100.188	830.730
335.373	19.798	1099.675	829.818
336.387	19.848	1099.186	829.616
337.402	19.856	1098.548	829.096
338.416	20.006	1097.709	829.110
339.431	20.102	1097.024	828.979
340.446	20.115	1096.606	828.652
341.460	20.135	1096.271	828.421
342.475	20.166	1095.261	827.729
343.489	20.300	1094.622	827.816
344.504	20.263	1093.747	826.902
345.519	20.386	1092.362	826.367
346.533	20.328	1091.805	825.598
347.548	20.448	1091.518	825.879
348.562	20.351	1090.684	824.711
349.577	20.266	1089.463	823.316
350.592	20.114	1088.750	821.983
351.606	20.055	1087.678	820.819
352.621	20.021	1086.953	820.040
353.635	19.912	1086.653	819.223
354.650	20.076	1085.712	819.220
355.665	19.979	1085.010	818.159
356.679	20.072	1084.539	818.168
357.694	20.057	1083.992	817.613
358.708	20.143	1083.299	817.425
359.723	20.198	1082.642	817.116
360.738	20.099	1082.608	816.551
361.752	20.271	1081.459	816.420
362.767	20.187	1080.892	815.527
363.781	20.368	1080.310	815.866
364.796	20.440	1079.654	815.634
365.810	20.564	1079.363	815.924
366.825	20.626	1078.998	815.868
367.840	20.754	1078.568	816.071
368.854	20.792	1078.130	815.843
369.869	20.632	1077.435	814.500
370.883	20.587	1076.367	813.409
371.898	20.587	1075.092	812.374
372.913	20.476	1075.018	811.726
373.927	20.524	1074.896	811.787
374.942	20.759	1073.674	811.889
375.956	20.698	1073.150	811.136
376.971	20.657	1072.544	810.416
377.986	20.832	1071.914	810.684
379.000	20.891	1071.680	810.705
380.015	20.944	1071.097	810.441
381.029	20.915	1070.512	809.794
382.044	20.916	1069.634	809.062
383.059	20.822	1069.315	808.313
384.073	20.829	1068.143	807.388
385.088	20.866	1067.223	806.791
386.102	20.933	1066.237	806.285
387.117	20.724	1065.329	804.559
388.132	20.605	1064.688	803.454
389.146	20.612	1063.570	802.571
390.161	20.661	1062.679	802.057
391.175	20.598	1062.277	801.390
392.190	20.668	1061.820	801.296
393.205	20.918	1061.123	801.851
394.219	20.851	1060.071	800.679
395.234	20.853	1059.166	799.934
396.248	20.765	1057.785	798.414
397.263	20.716	1056.999	797.528
398.278	20.646	1056.251	796.572
399.292	20.511	1055.413	795.251
400.307	20.595	1054.891	795.171
401.321	20.518	1054.376	794.363
402.336	20.653	1053.987	794.616
403.350	20.661	1053.071	793.889
404.365	20.550	1052.613	792.967
405.380	20.604	1051.929	792.630
406.394	20.714	1050.935	792.311
407.409	20.925	1049.856	792.385
408.423	21.008	1049.580	792.487
409.438	21.053	1049.220	792.346
410.453	21.184	1048.284	792.163
411.467	21.173	1047.814	791.691
412.482	21.140	1047.295	791.080
413.496	21.305	1046.457	791.121
414.511	21.351	1045.669	790.663
415.526	21.265	1045.924	790.400
416.540	21.516	1045.294	790.985
417.555	21.426	1044.305	789.764
418.569	21.283	1044.337	789.072
419.584	21.284	1043.560	788.417
420.599	21.205	1042.857	787.462
421.613	155.862	1402.847	1797.935
422.628	142.726	1455.272	1798.051
