DTS Sentinel unit serial number:	SN413079Multiplexer serial number:	ORYXHardware model number:	OX4-SRSoftware version number:	ORYX F/W v4.00 Oryx Data Collector v3.7.2.0data status	okinstallation	princeton_trtdifferential loss correction	single-endedforward channel	channel 2reverse channel	N/Adate	2019/09/15time	22:19:35forward acquisition time	60.00reverse acquisition time	0.00gamma	496.2192k internal	0.2335k external	0.2335temperature offset calibration	0.9943default loss term (dB/km)	0.3790temperature slope calibration	1.0000multiplexer offset coefficient	1.0000multiplexer slope coefficient	1.0000fibre end	0.00T internal ref (°C)	29.39T ext. ref 1 (°C)	8.66T ext. ref 2 (°C)	22.77length (m)	temperature (°C)	Stokes	anti-Stokes-747.200	427.553	0.071	0.154
-746.185	-165.938	-0.287	-0.012
-745.171	-32.534	0.180	-0.101
-744.156	-73.010	0.150	0.055
-743.142	-90.301	0.217	0.063
-742.127	-200.000	0.047	0.371
-741.112	-97.467	-0.307	-0.080
-740.098	-106.623	0.047	0.010
-739.083	647.267	-0.056	-0.143
-738.069	14.371	0.060	0.047
-737.054	-11.692	-0.316	0.209
-736.039	-17.829	-0.264	-0.167
-735.025	684.299	-0.049	-0.128
-734.010	800.000	-0.087	0.371
-732.996	47.628	0.199	0.187
-731.981	-28.150	0.123	0.072
-730.966	72.816	-0.141	-0.148
-729.952	-6.868	0.278	0.190
-728.937	-85.428	-0.228	-0.071
-727.923	-200.000	0.044	-0.314
-726.908	-200.000	0.022	-0.265
-725.894	64.085	-0.176	-0.178
-724.879	-155.304	-0.125	-0.008
-723.864	41.716	-0.168	0.153
-722.850	106.149	0.082	-0.098
-721.835	-200.000	-0.008	-0.202
-720.821	133.127	-0.066	-0.086
-719.806	91.744	-0.101	0.114
-718.791	-200.000	-0.044	-0.209
-717.777	-200.000	0.003	-0.241
-716.762	26.515	0.303	-0.255
-715.748	-69.712	0.369	-0.142
-714.733	53.830	-0.284	-0.274
-713.718	800.000	0.097	0.304
-712.704	-148.213	0.144	0.012
-711.689	-109.065	-0.242	-0.052
-710.675	800.000	0.005	0.019
-709.660	-60.158	-0.077	-0.033
-708.645	-122.670	0.221	0.036
-707.631	-121.306	-0.128	-0.021
-706.616	-200.000	0.008	0.186
-705.602	800.000	0.037	0.140
-704.587	-86.063	-0.169	0.052
-703.572	-59.129	0.301	-0.130
-702.558	-200.000	-0.003	-0.357
-701.543	-135.453	-0.166	0.020
-700.529	-200.000	0.066	0.362
-699.514	-163.908	-0.086	-0.004
-698.499	75.440	-0.185	-0.196
-697.485	-50.260	-0.121	-0.057
-696.470	15.633	0.104	-0.082
-695.456	242.659	-0.059	0.098
-694.441	159.748	0.260	-0.362
-693.426	471.266	-0.163	-0.368
-692.412	-200.000	0.007	-0.125
-691.397	-45.119	0.112	-0.056
-690.383	201.931	-0.141	-0.218
-689.368	-67.580	-0.490	0.193
-688.354	177.115	-0.101	-0.148
-687.339	270.297	0.085	0.150
-686.324	-31.012	0.327	-0.185
-685.310	148.861	-0.059	0.079
-684.295	391.692	0.041	-0.085
-683.281	-123.733	0.121	-0.019
-682.266	-10.811	-0.456	-0.302
-681.251	800.000	0.059	0.234
-680.237	343.527	-0.072	0.141
-679.222	-22.767	0.226	-0.137
-678.208	43.657	0.070	-0.064
-677.193	-110.943	-0.367	0.076
-676.178	-25.778	-0.116	0.068
-675.164	-12.396	-0.219	-0.143
-674.149	-200.000	-0.038	-0.353
-673.135	484.308	0.146	0.334
-672.120	200.003	0.041	0.063
-671.105	-200.000	0.020	-0.427
-670.091	111.826	-0.200	-0.241
-669.076	-72.447	0.493	-0.182
-668.062	-24.797	0.217	0.129
-667.047	60.025	-0.283	0.280
-666.032	-200.000	0.017	0.111
-665.018	-200.000	0.044	-0.372
-664.003	-200.000	0.002	-0.071
-662.989	65.945	-0.150	-0.152
-661.974	-200.000	0.017	0.118
-660.959	-200.000	-0.030	-0.283
-659.945	26.637	0.169	0.141
-658.930	253.389	0.111	0.189
-657.916	24.537	0.161	-0.133
-656.901	247.197	0.154	0.260
-655.886	-64.132	-0.223	-0.091
-654.872	-91.863	-0.231	0.066
-653.857	44.870	0.178	-0.164
-652.843	129.142	-0.139	0.177
-651.828	-200.000	-0.020	0.351
-650.814	588.385	0.040	0.099
-649.799	271.307	-0.089	0.156
-648.784	116.100	0.176	0.215
-647.770	800.000	0.102	0.349
-646.755	-75.483	0.229	-0.081
-645.741	-57.203	0.066	-0.029
-644.726	-61.111	-0.093	-0.039
-643.711	-86.609	-0.279	-0.086
-642.697	-175.695	-0.260	-0.007
-641.682	45.060	-0.233	0.215
-640.668	206.010	-0.101	-0.158
-639.653	147.397	0.024	-0.033
-638.638	-200.000	-0.002	0.232
-637.624	-154.044	-0.418	-0.028
-636.609	-76.813	0.121	-0.042
-635.595	19.735	-0.289	0.233
-634.580	-165.154	-0.034	-0.002
-633.565	366.886	-0.075	0.152
-632.551	8.946	-0.200	-0.151
-631.536	-96.403	-0.098	-0.026
-630.522	-106.197	0.178	0.040
-629.507	62.256	0.234	0.234
-628.492	714.357	-0.030	-0.080
-627.478	187.067	0.145	0.216
-626.463	-128.908	0.198	-0.028
-625.449	-3.887	0.109	-0.076
-624.434	47.946	-0.041	-0.038
-623.419	88.060	-0.081	0.089
-622.405	-200.000	-0.014	-0.061
-621.390	-71.920	0.317	-0.118
-620.376	168.043	-0.108	-0.154
-619.361	456.352	-0.143	-0.317
-618.346	-133.435	0.210	-0.026
-617.332	-200.000	-0.019	0.090
-616.317	-102.962	-0.138	-0.033
-615.303	-200.000	-0.014	0.190
-614.288	212.534	0.149	-0.234
-613.273	33.940	0.199	-0.173
-612.259	151.568	0.243	-0.330
-611.244	135.334	0.248	0.322
-610.230	800.000	-0.153	-0.461
-609.215	474.217	-0.057	-0.129
-608.201	-200.000	0.034	-0.224
-607.186	-6.534	0.273	-0.186
-606.171	-176.991	0.072	-0.002
-605.157	67.983	-0.253	-0.259
-604.142	471.351	-0.107	-0.241
-603.128	-200.000	-0.026	-0.274
-602.113	53.011	-0.249	0.238
-601.098	134.582	0.109	-0.142
-600.084	21.080	0.075	-0.061
-599.069	457.383	-0.095	-0.212
-598.055	-200.000	-0.048	0.354
-597.040	347.801	-0.110	0.217
-596.025	-57.918	-0.248	0.108
-595.011	800.000	-0.099	0.305
-593.996	281.096	-0.147	-0.263
-592.982	437.708	0.123	-0.267
-591.967	-200.000	0.037	-0.335
-590.952	-48.332	-0.104	-0.050
-589.938	-106.350	-0.144	-0.032
-588.923	-180.790	0.140	0.003
-587.909	85.912	0.160	0.176
-586.894	800.000	0.038	-0.127
-585.879	-200.000	-0.035	-0.251
-584.865	-200.000	0.010	-0.059
-583.850	-126.715	-0.526	0.078
-582.836	28.869	-0.196	-0.166
-581.821	30.791	-0.159	0.136
-580.806	-57.481	-0.072	0.032
-579.792	-121.334	-0.457	0.076
-578.777	430.419	-0.143	-0.310
-577.763	12.677	-0.110	0.084
-576.748	-99.370	-0.370	0.093
-575.733	-36.603	-0.085	-0.046
-574.719	107.744	-0.077	0.092
-573.704	-61.434	-0.241	-0.101
-572.690	40.465	-0.263	-0.237
-571.675	-9.570	0.278	0.185
-570.661	-89.540	-0.215	-0.063
-569.646	-11.344	0.171	-0.113
-568.631	800.000	-0.122	-0.354
-567.617	800.000	-0.086	0.272
-566.602	203.004	0.136	0.210
-565.588	-38.858	-0.173	-0.091
-564.573	800.000	-0.091	0.310
-563.558	-92.136	0.180	0.051
-562.544	-138.534	0.127	-0.014
-561.529	-143.637	0.188	-0.018
-560.515	44.020	-0.216	0.197
-559.500	63.567	-0.237	-0.237
-558.485	283.535	0.089	0.159
-557.471	-30.659	-0.227	0.128
-556.456	-9.955	-0.102	0.068
-555.442	-180.097	-0.416	-0.009
-554.427	12.914	-0.132	-0.101
-553.412	14.458	-0.080	-0.062
-552.398	800.000	0.063	-0.228
-551.383	341.265	0.160	-0.312
-550.369	23.036	0.099	0.081
-549.354	-76.501	0.064	-0.022
-548.339	-200.000	-0.021	-0.150
-547.325	-104.725	-0.524	-0.120
-546.310	103.974	-0.101	-0.118
-545.296	-12.379	0.057	-0.037
-544.281	-62.100	-0.354	-0.147
-543.266	-109.921	-0.212	-0.044
-542.252	142.270	0.071	-0.093
-541.237	-131.080	-0.093	-0.012
-540.223	648.083	-0.072	0.184
-539.208	109.246	0.133	-0.158
-538.193	-174.754	-0.073	-0.002
-537.179	-28.537	-0.259	-0.148
-536.164	-88.596	0.094	0.028
-535.150	403.445	-0.111	-0.232
-534.135	-200.000	-0.022	-0.222
-533.121	150.384	-0.160	-0.217
-532.106	57.827	0.108	-0.105
-531.091	16.363	-0.158	-0.125
-530.077	29.144	-0.049	0.041
-529.062	-13.757	0.222	0.143
-528.048	-59.210	-0.095	0.041
-527.033	715.908	-0.017	-0.046
-526.018	-200.000	0.026	0.285
-525.004	-39.768	-0.227	0.118
-523.989	-165.745	-0.058	-0.002
-522.975	-92.673	-0.127	-0.035
-521.960	-27.538	-0.178	0.103
-520.945	118.220	-0.108	0.132
-519.931	-65.091	-0.247	-0.099
-518.916	122.051	0.129	0.161
-517.902	471.096	-0.216	-0.485
-516.887	-34.213	-0.389	-0.213
-515.872	-14.253	-0.105	0.068
-514.858	-200.000	0.002	0.193
-513.843	459.989	-0.138	-0.306
-512.829	-141.268	0.220	-0.022
-511.814	800.000	0.024	-0.093
-510.799	800.000	0.062	0.182
-509.785	-146.008	-0.136	-0.012
-508.770	-200.000	0.031	0.205
-507.756	800.000	0.044	0.133
-506.741	-156.812	0.164	0.010
-505.726	2.894	0.113	0.082
-504.712	798.267	0.033	-0.092
-503.697	-79.883	0.096	0.032
-502.683	800.000	0.048	0.148
-501.668	308.646	0.187	0.348
-500.653	-200.000	0.008	-0.231
-499.639	-84.790	-0.161	-0.050
-498.624	-5.314	0.259	0.177
-497.610	-97.155	-0.152	0.039
-496.595	800.000	-0.109	-0.377
-495.581	535.584	-0.152	-0.358
-494.566	15.659	0.164	-0.128
-493.551	91.976	0.163	-0.182
-492.537	-200.000	-0.004	0.174
-491.522	177.261	0.140	0.202
-490.508	246.849	-0.057	0.095
-489.493	-17.327	-0.152	0.095
-488.478	716.906	-0.063	0.166
-487.464	176.018	0.082	0.118
-486.449	127.691	0.129	-0.163
-485.435	228.561	-0.138	-0.223
-484.420	-42.970	-0.112	-0.057
-483.405	35.169	0.235	-0.204
-482.391	-42.223	-0.048	0.024
-481.376	57.073	0.128	-0.125
-480.362	-159.895	-0.171	0.009
-479.347	95.122	0.342	0.387
-478.332	-85.873	0.231	-0.071
-477.318	70.677	0.237	0.244
-476.303	-56.633	-0.213	0.094
-475.289	-92.455	-0.151	-0.042
-474.274	-125.483	-0.220	0.033
-473.259	-6.751	-0.055	-0.037
-472.245	-146.718	-0.393	-0.034
-471.230	800.000	-0.103	-0.363
-470.216	62.577	0.121	-0.120
-469.201	-12.581	-0.161	0.104
-468.186	130.540	0.301	-0.383
-467.172	-34.369	-0.296	-0.161
-466.157	527.086	0.140	-0.329
-465.143	103.154	-0.077	-0.090
-464.128	-200.000	0.063	0.420
-463.113	800.000	0.082	0.312
-462.099	-200.000	0.004	-0.101
-461.084	-42.919	0.439	0.221
-460.070	326.769	0.076	0.145
-459.055	4.851	0.040	-0.029
-458.040	-56.916	-0.219	0.096
-457.026	98.116	0.235	-0.269
-456.011	61.328	-0.189	-0.187
-454.997	-107.158	0.067	-0.015
-453.982	-28.550	0.225	-0.129
-452.968	-200.000	0.019	-0.345
-451.953	-200.000	-0.002	0.072
-450.938	-200.000	0.061	0.405
-449.924	-97.872	0.171	-0.044
-448.909	-200.000	0.002	0.527
-447.895	-159.757	-0.017	-0.001
-446.880	-39.891	-0.184	-0.095
-445.865	800.000	-0.045	0.145
-444.851	-4.397	-0.247	-0.170
-443.836	411.362	-0.098	0.207
-442.822	-200.000	0.011	0.346
-441.807	82.168	0.212	0.228
-440.792	-120.861	-0.222	0.037
-439.778	51.257	-0.291	-0.274
-438.763	40.596	-0.174	-0.156
-437.749	-67.010	-0.042	0.017
-436.734	-200.000	-0.017	0.172
-435.719	800.000	-0.011	-0.037
-434.705	-94.698	0.085	-0.023
-433.690	-43.216	0.142	-0.072
-432.676	-120.173	0.082	0.014
-431.661	-0.672	-0.108	-0.076
-430.646	-19.299	-0.263	-0.162
-429.632	-111.305	0.060	0.012
-428.617	64.654	0.202	0.202
-427.603	-106.404	0.176	0.039
-426.588	150.746	-0.111	-0.149
-425.573	43.669	0.193	0.175
-424.559	415.788	-0.068	-0.144
-423.544	371.621	0.050	0.100
-422.530	-200.000	0.008	-0.126
-421.515	-200.000	-0.005	-0.440
-420.500	213.576	-0.194	0.303
-419.486	-18.648	0.053	-0.033
-418.471	-152.209	0.223	-0.016
-417.457	-200.000	0.015	-0.093
-416.442	109.849	0.080	0.095
-415.428	-200.000	0.023	-0.172
-414.413	179.505	-0.107	0.155
-413.398	800.000	0.021	0.070
-412.384	92.034	-0.117	-0.131
-411.369	58.924	-0.081	0.079
-410.355	26.376	0.161	-0.133
-409.340	100.750	0.155	0.179
-408.325	459.897	-0.041	-0.090
-407.311	-95.594	0.196	0.052
-406.296	-200.000	-0.010	0.106
-405.282	800.000	0.056	0.194
-404.267	-81.029	0.083	0.027
-403.252	238.419	0.144	-0.238
-402.238	19.251	-0.195	0.155
-401.223	-63.593	0.453	-0.184
-400.209	310.122	0.158	-0.293
-399.194	-200.000	-0.010	-0.123
-398.179	-200.000	0.038	-0.418
-397.165	457.272	-0.078	-0.173
-396.150	-0.868	0.149	0.105
-395.136	498.774	-0.129	0.295
-394.121	24.168	0.233	0.191
-393.106	-200.000	-0.016	-0.105
-392.092	800.000	0.040	0.129
-391.077	-64.283	0.183	0.074
-390.063	-152.058	-0.171	0.012
-389.048	66.639	0.287	0.290
-388.033	-54.165	0.167	0.075
-387.019	-84.796	-0.247	0.077
-386.004	244.601	0.130	0.216
-384.990	8.310	0.292	-0.217
-383.975	467.017	-0.025	0.055
-382.960	-161.795	0.266	-0.013
-381.946	-69.454	-0.315	0.120
-380.931	-159.750	-0.134	-0.007
-379.917	350.663	0.116	0.227
-378.902	-159.846	-0.231	0.013
-377.888	194.251	-0.087	-0.130
-376.873	427.946	-0.089	0.191
-375.858	-156.466	-0.252	-0.016
-374.844	-96.006	0.254	0.067
-373.829	-13.289	0.072	0.046
-372.815	-200.000	0.021	0.262
-371.800	-41.233	0.101	-0.052
-370.785	-200.000	-0.059	0.298
-369.771	406.129	-0.105	0.220
-368.756	382.903	-0.072	-0.146
-367.742	-90.250	0.350	-0.101
-366.727	-17.662	-0.226	0.140
-365.712	346.249	0.107	-0.208
-364.698	52.766	-0.445	0.421
-363.683	13.772	0.157	-0.121
-362.669	-200.000	0.033	0.224
-361.654	-21.003	0.250	-0.152
-360.639	-200.000	-0.068	-0.420
-359.625	800.000	-0.005	0.015
-358.610	-73.059	0.168	-0.061
-357.596	29.120	0.048	0.040
-356.581	-200.000	-0.021	0.258
-355.566	-115.329	-0.257	0.048
-354.552	61.965	-0.060	0.059
-353.537	134.093	-0.083	0.107
-352.523	88.025	-0.164	-0.180
-351.508	-200.000	0.024	0.256
-350.493	-139.164	-0.189	-0.020
-349.479	48.079	-0.035	0.032
-348.464	241.516	-0.154	0.255
-347.450	-85.571	0.205	0.063
-346.435	83.360	-0.132	-0.142
-345.420	-23.731	0.401	-0.238
-344.406	-69.969	-0.101	0.038
-343.391	315.196	-0.074	-0.138
-342.377	180.257	0.056	-0.081
-341.362	145.293	0.170	0.224
-340.348	-103.593	0.332	-0.077
-339.333	-59.400	-0.018	-0.008
-338.318	-137.850	-0.235	-0.026
-337.304	-105.785	-0.230	-0.051
-336.289	-47.629	0.030	0.014
-335.275	67.992	-0.308	-0.311
-334.260	-111.808	-0.476	-0.095
-333.245	800.000	-0.017	0.056
-332.231	44.228	0.162	0.147
-331.216	-75.605	0.171	0.060
-330.202	800.000	0.045	-0.124
-329.187	395.751	-0.135	-0.279
-328.172	-200.000	0.028	-0.233
-327.158	-200.000	-0.016	-0.389
-326.143	800.000	0.206	0.583
-325.129	-123.387	0.204	0.032
-324.114	-200.000	0.000	0.054
-323.099	-172.017	0.110	-0.004
-322.085	-32.677	0.188	-0.104
-321.070	-200.000	-0.007	0.108
-320.056	15.195	0.022	0.017
-319.041	41.616	0.193	0.173
-318.026	-170.377	0.211	-0.007
-317.012	800.000	-0.041	-0.130
-315.997	366.980	-0.048	0.096
-314.983	166.569	-0.211	0.295
-313.968	86.408	0.181	-0.197
-312.953	-130.094	-0.300	-0.040
-311.939	62.104	-0.135	0.133
-310.924	-129.520	0.078	-0.011
-309.910	-24.639	-0.101	-0.059
-308.895	197.976	0.156	0.235
-307.880	154.304	0.116	0.157
-306.866	102.028	0.229	-0.265
-305.851	-200.000	-0.005	0.092
-304.837	-62.775	-0.106	0.043
-303.822	3.711	-0.137	0.099
-302.807	-65.883	-0.256	-0.101
-301.793	347.385	0.127	0.247
-300.778	-38.118	-0.185	0.097
-299.764	800.000	0.032	0.098
-298.749	617.921	0.140	-0.347
-297.735	133.049	-0.093	-0.119
-296.720	-48.301	-0.242	-0.115
-295.705	-102.110	-0.255	-0.061
-294.691	493.551	-0.037	0.083
-293.676	214.441	0.158	0.247
-292.662	800.000	-0.063	0.247
-291.647	744.310	-0.149	-0.394
-290.632	54.984	-0.088	0.084
-289.618	277.981	-0.114	-0.201
-288.603	-18.396	0.071	0.044
-287.589	534.729	0.065	-0.152
-286.574	-80.585	0.144	0.047
-285.559	785.616	-0.057	-0.155
-284.545	-166.922	-0.142	-0.006
-283.530	800.000	0.056	-0.238
-282.516	-85.677	0.291	0.089
-281.501	-86.820	0.380	0.115
-280.486	269.749	-0.241	0.418
-279.472	-33.190	0.272	0.149
-278.457	153.236	0.300	0.406
-277.443	133.421	-0.072	0.092
-276.428	-71.783	0.144	0.053
-275.413	-200.000	-0.008	-0.238
-274.399	-122.164	-0.238	-0.038
-273.384	-200.000	0.020	-0.350
-272.370	33.091	0.252	0.216
-271.355	27.562	0.205	0.170
-270.340	83.797	0.064	0.069
-269.326	183.120	0.186	0.270
-268.311	-146.386	0.229	0.020
-267.297	-32.628	0.145	0.080
-266.282	43.799	0.072	0.065
-265.267	-54.583	0.223	0.100
-264.253	134.891	0.103	-0.132
-263.238	-200.000	-0.057	0.294
-262.224	-179.874	-0.219	0.005
-261.209	6.226	-0.133	-0.097
-260.195	23.121	0.089	0.072
-259.180	-118.901	0.141	-0.024
-258.165	-200.000	-0.001	-0.241
-257.151	239.075	0.079	-0.129
-256.136	323.619	-0.138	0.260
-255.122	-117.545	-0.169	0.030
-254.107	134.191	0.077	-0.098
-253.092	-148.473	0.248	0.020
-252.078	445.410	0.094	0.203
-251.063	90.724	0.119	-0.131
-250.049	-162.479	0.305	0.015
-249.034	800.000	0.050	-0.152
-248.019	123.684	0.016	0.020
-247.005	-55.522	0.230	-0.101
-245.990	-80.441	-0.221	-0.073
-244.976	800.000	0.049	-0.163
-243.961	85.063	-0.124	0.134
-242.946	73.869	0.207	0.214
-241.932	0.427	0.172	-0.121
-240.917	800.000	0.062	-0.179
-239.903	172.171	0.193	-0.273
-238.888	800.000	0.113	0.396
-237.873	708.921	0.117	-0.305
-236.859	503.690	-0.191	0.435
-235.844	800.000	-0.082	-0.303
-234.830	-12.794	-0.304	0.195
-233.815	-56.343	-0.286	0.125
-232.800	794.827	-0.110	-0.299
-231.786	-200.000	0.065	-0.321
-230.771	69.500	0.252	-0.255
-229.757	19.931	-0.247	-0.196
-228.742	62.196	0.401	0.394
-227.727	-76.462	0.268	-0.093
-226.713	-122.865	-0.188	0.030
-225.698	-181.683	0.373	-0.007
-224.684	-125.334	-0.289	0.043
-223.669	-69.491	-0.090	-0.034
-222.655	800.000	-0.102	0.298
-221.640	-8.705	0.387	0.256
-220.625	421.013	0.098	-0.207
-219.611	-151.390	0.114	0.008
-218.596	-58.787	-0.210	-0.090
-217.582	-200.000	-0.007	-0.117
-216.567	-200.000	-0.017	0.073
-215.552	-173.354	0.327	-0.010
-214.538	-5.381	-0.057	0.039
-213.523	800.000	-0.075	0.316
-212.509	187.159	0.217	0.318
-211.494	800.000	-0.166	-0.487
-210.479	147.598	0.254	0.336
-209.465	-19.251	0.177	0.108
-208.450	-7.520	0.140	0.093
-207.436	-161.778	-0.122	0.006
-206.421	-200.000	-0.009	-0.196
-205.406	-200.000	0.077	-0.345
-204.392	-83.425	0.290	0.091
-203.377	171.465	0.048	-0.067
-202.363	-9.014	-0.189	-0.124
-201.348	-69.756	0.252	-0.095
-200.333	800.000	-0.087	-0.298
-199.319	-200.000	0.024	0.177
-198.304	-79.165	-0.117	0.039
-197.290	99.826	0.155	-0.177
-196.275	-123.642	0.194	-0.030
-195.260	169.030	0.010	0.014
-194.246	67.638	0.238	0.239
-193.231	-200.000	-0.050	0.270
-192.217	-104.024	0.174	-0.040
-191.202	-81.793	0.162	-0.052
-190.187	-200.000	-0.014	0.288
-189.173	-80.925	-0.415	0.135
-188.158	263.280	-0.176	0.300
-187.144	53.516	0.190	0.179
-186.129	-200.000	-0.027	-0.151
-185.114	202.630	0.026	-0.039
-184.100	800.000	0.093	0.291
-183.085	-26.034	-0.155	-0.090
-182.071	238.040	0.161	-0.263
-181.056	573.266	0.130	-0.311
-180.042	-87.012	-0.369	0.110
-179.027	-111.947	-0.402	-0.080
-178.012	-172.832	0.203	0.006
-176.998	-44.187	-0.317	-0.156
-175.983	-200.000	0.037	-0.201
-174.969	-81.990	0.200	0.064
-173.954	112.743	-0.250	-0.297
-172.939	-63.241	0.072	0.029
-171.925	124.115	0.055	-0.068
-170.910	472.786	0.145	0.322
-169.896	-93.197	-0.130	0.035
-168.881	148.465	-0.101	0.134
-167.866	290.776	0.207	0.369
-166.852	209.947	0.080	0.123
-165.837	88.589	0.117	0.128
-164.823	55.877	0.144	-0.138
-163.808	-183.545	0.413	-0.007
-162.793	51.912	0.100	0.094
-161.779	133.988	-0.208	0.264
-160.764	8.783	0.251	-0.186
-159.750	9.248	-0.149	0.111
-158.735	126.145	-0.259	0.321
-157.720	344.621	0.097	-0.188
-156.706	-134.991	0.257	0.030
-155.691	-55.374	0.357	-0.158
-154.677	141.353	0.135	0.176
-153.662	-200.000	-0.042	0.275
-152.647	37.357	-0.058	-0.051
-151.633	34.836	-0.175	-0.151
-150.618	-200.000	0.011	-0.219
-149.604	-107.940	0.161	-0.034
-148.589	800.000	0.095	0.322
-147.574	142.502	0.176	-0.229
-146.560	-75.724	0.104	0.036
-145.545	-46.953	0.145	-0.070
-144.531	568.399	0.121	0.290
-143.516	-105.698	0.218	0.048
-142.502	-35.161	0.354	0.189
-141.487	-64.916	-0.306	0.121
-140.472	295.483	-0.087	-0.157
-139.458	-185.572	0.367	0.005
-138.443	-45.160	-0.344	-0.168
-137.429	12.001	0.042	-0.032
-136.414	-60.474	0.272	-0.113
-135.399	519.672	0.063	0.144
-134.385	288.561	0.061	0.108
-133.370	159.644	0.250	-0.341
-132.356	61.718	-0.209	-0.204
-131.341	127.274	-0.198	0.247
-130.326	800.000	-0.078	0.232
-129.312	-114.666	0.281	-0.053
-128.297	317.927	0.161	-0.299
-127.283	-168.536	0.225	0.008
-126.268	508.402	0.075	0.172
-125.253	-200.000	0.032	0.141
-124.239	14.446	0.029	-0.022
-123.224	233.955	0.182	0.294
-122.210	247.234	0.063	0.105
-121.195	800.000	0.086	-0.338
-120.180	-200.000	-0.001	-0.189
-119.166	746.176	-0.033	0.086
-118.151	-120.910	-0.295	-0.049
-117.137	-39.704	0.175	0.090
-116.122	284.853	0.102	0.181
-115.107	-155.087	-0.227	-0.015
-114.093	-200.000	-0.006	-0.340
-113.078	-182.664	-0.243	-0.004
-112.064	-200.000	-0.027	0.193
-111.049	-27.121	-0.276	-0.158
-110.034	356.666	0.131	-0.256
-109.020	-51.451	-0.091	0.042
-108.005	-53.182	0.214	0.096
-106.991	211.789	0.087	-0.134
-105.976	446.585	-0.080	0.172
-104.962	391.125	0.098	0.200
-103.947	-10.165	-0.357	0.232
-102.932	800.000	0.051	-0.185
-101.918	-200.000	0.042	0.239
-100.903	-34.175	-0.122	-0.066
-99.889	800.000	0.075	0.269
-98.874	316.823	0.140	0.259
-97.859	-32.239	-0.100	-0.055
-96.845	-76.383	-0.206	-0.071
-95.830	-200.000	0.018	-0.331
-94.816	57.459	0.095	0.091
-93.801	-32.930	-0.075	0.041
-92.786	-34.946	0.312	0.167
-91.772	349.348	-0.089	-0.172
-90.757	223.543	0.110	0.174
-89.743	102.437	0.153	-0.175
-88.728	-45.153	0.358	0.174
-87.713	-81.978	-0.142	0.046
-86.699	-85.577	-0.271	0.082
-85.684	-64.180	-0.505	-0.202
-84.670	-200.000	-0.013	-0.103
-83.655	-91.592	0.210	-0.059
-82.640	600.033	-0.135	-0.328
-81.626	232.696	0.128	-0.206
-80.611	-151.667	0.130	-0.009
-79.597	-200.000	-0.033	0.238
-78.582	-16.598	-0.170	0.105
-77.567	-5.206	-0.240	0.162
-76.553	-128.876	0.234	-0.032
-75.538	-200.000	-0.057	0.428
-74.524	-200.000	0.019	0.196
-73.509	-114.820	0.076	-0.014
-72.494	-200.000	-0.061	0.472
-71.480	-59.026	-0.146	0.062
-70.465	-87.687	0.238	0.070
-69.451	230.109	-0.143	-0.229
-68.436	154.946	-0.213	0.287
-67.422	800.000	-0.046	0.149
-66.407	-142.190	0.173	-0.017
-65.392	-116.237	-0.019	0.003
-64.378	323.657	0.088	-0.164
-63.363	316.182	-0.044	0.081
-62.349	626.139	0.077	-0.190
-61.334	27.074	-0.984	-0.808
-60.319	43.517	0.466	0.416
-59.305	799.853	-0.440	-1.186
-58.290	800.000	0.381	1.221
-57.276	800.000	0.427	1.459
-56.261	-200.000	109.223	613.271
-55.246	462.692	1487.918	3248.281
-54.232	148.256	2667.353	3520.559
-53.217	100.533	2270.018	2577.699
-52.203	38.444	1884.004	1641.917
-51.188	32.613	1675.774	1416.705
-50.173	30.095	1633.201	1362.176
-49.159	49.777	1687.100	1554.644
-48.144	50.481	1702.505	1574.029
-47.130	32.250	1660.305	1400.695
-46.115	29.505	1646.268	1368.484
-45.100	29.255	1641.348	1362.491
-44.086	29.317	1638.523	1360.546
-43.071	29.297	1636.113	1358.347
-42.057	29.213	1633.731	1355.701
-41.042	29.306	1631.595	1354.553
-40.027	29.311	1629.783	1353.038
-39.013	29.228	1627.910	1350.819
-37.998	29.217	1626.552	1349.559
-36.984	29.302	1624.756	1348.631
-35.969	29.362	1623.673	1348.117
-34.954	29.468	1621.364	1346.921
-33.940	29.441	1620.406	1345.874
-32.925	29.383	1619.038	1344.262
-31.911	29.318	1616.991	1342.042
-30.896	29.368	1615.468	1341.081
-29.881	29.397	1613.870	1339.917
-28.867	29.324	1612.470	1338.167
-27.852	29.375	1610.992	1337.258
-26.838	29.415	1609.302	1336.096
-25.823	29.438	1607.548	1334.748
-24.809	29.363	1606.611	1333.375
-23.794	29.365	1605.591	1332.494
-22.779	29.336	1603.955	1330.870
-21.765	29.411	1602.072	1329.797
-20.750	29.333	1600.920	1328.229
-19.736	29.363	1599.908	1327.555
-18.721	29.497	1598.237	1327.078
-17.706	29.457	1596.776	1325.526
-16.692	29.486	1594.979	1324.184
-15.677	29.420	1593.595	1322.512
-14.663	29.441	1592.538	1321.731
-13.648	29.465	1590.686	1320.312
-12.633	29.423	1589.410	1318.902
-11.619	29.331	1588.199	1317.187
-10.604	29.438	1586.573	1316.554
-9.590	29.458	1585.124	1315.436
-8.575	29.416	1584.225	1314.340
-7.560	29.460	1582.960	1313.553
-6.546	29.585	1581.485	1313.166
-5.531	29.449	1580.737	1311.526
-4.517	29.455	1579.676	1310.638
-3.502	29.436	1578.187	1309.212
-2.487	29.498	1576.568	1308.256
-1.473	29.090	1564.482	1295.308
-0.458	25.939	1545.750	1257.804
0.556	19.789	1546.206	1223.914
1.571	17.394	1569.407	1224.944
2.586	16.847	1582.251	1230.888
3.600	16.025	1532.011	1185.917
4.615	12.784	1433.833	1088.442
5.629	9.461	1377.684	1024.603
6.644	8.744	1370.234	1014.434
7.659	8.672	1369.704	1013.497
8.673	8.659	1368.560	1012.479
9.688	8.584	1366.268	1010.219
10.702	8.413	1363.197	1006.782
11.717	10.131	1365.665	1019.350
12.731	13.996	1372.469	1048.777
13.746	16.820	1377.334	1070.262
14.761	17.148	1376.002	1071.202
15.775	16.203	1373.524	1063.230
16.790	15.026	1370.971	1053.750
17.804	14.378	1368.481	1047.669
18.819	13.889	1366.680	1043.129
19.834	13.482	1365.809	1039.817
20.848	13.329	1364.308	1037.618
21.863	13.060	1363.222	1035.012
22.877	12.986	1361.848	1033.420
23.892	12.939	1361.177	1032.525
24.907	12.929	1360.421	1031.795
25.921	12.908	1359.349	1030.759
26.936	12.995	1358.678	1030.704
27.950	13.017	1357.734	1030.035
28.965	13.076	1356.425	1029.319
29.980	13.110	1355.517	1028.748
30.994	13.207	1354.380	1028.398
32.009	13.142	1353.207	1027.014
33.023	13.175	1351.738	1026.012
34.038	13.123	1350.310	1024.514
35.053	13.132	1348.955	1023.451
36.067	13.203	1347.646	1022.810
37.082	13.013	1346.947	1021.014
38.096	13.103	1345.957	1020.727
39.111	13.190	1345.374	1020.729
40.126	13.167	1343.942	1019.413
41.140	12.988	1343.481	1017.869
42.155	12.928	1343.257	1017.241
43.169	12.887	1343.126	1016.797
44.184	12.985	1342.176	1016.590
45.199	12.792	1342.338	1015.436
46.213	13.014	1341.403	1016.002
47.228	13.216	1339.948	1016.057
48.242	12.973	1340.025	1014.528
49.257	13.059	1337.734	1013.235
50.271	13.081	1335.986	1011.953
51.286	13.084	1335.053	1011.178
52.301	13.034	1333.848	1009.867
53.315	12.986	1333.082	1008.903
54.330	12.892	1331.801	1007.273
55.344	12.976	1330.330	1006.582
56.359	12.869	1329.425	1005.157
57.374	12.972	1328.606	1005.077
58.388	12.906	1327.680	1003.883
59.403	12.849	1327.399	1003.237
60.417	12.823	1326.701	1002.464
61.432	12.796	1325.924	1001.620
62.447	12.830	1325.008	1001.046
63.461	12.866	1323.358	999.933
64.476	12.766	1322.325	998.457
65.490	12.754	1321.065	997.341
66.505	12.794	1319.876	996.602
67.520	12.802	1318.637	995.623
68.534	12.736	1318.252	994.847
69.549	12.773	1317.021	994.054
70.563	12.824	1315.349	993.013
71.578	12.715	1314.628	991.723
72.593	12.703	1313.757	990.903
73.607	12.731	1312.761	990.238
74.622	12.727	1311.794	989.395
75.636	12.739	1311.248	988.967
76.651	12.747	1310.237	988.163
77.666	12.653	1310.550	987.748
78.680	12.665	1309.966	987.295
79.695	12.779	1308.551	986.825
80.709	12.846	1307.877	986.630
81.724	12.905	1307.267	986.431
82.739	12.991	1306.420	986.223
83.753	12.890	1306.019	985.227
84.768	13.063	1304.514	985.037
85.782	13.100	1303.606	984.488
86.797	13.090	1302.120	983.216
87.812	12.960	1300.780	981.342
88.826	13.025	1299.925	980.998
89.841	12.995	1298.933	979.986
90.855	13.015	1298.022	979.330
91.870	13.031	1296.978	978.553
92.884	12.997	1296.579	977.963
93.899	13.101	1295.747	977.863
94.914	13.143	1294.941	977.414
95.928	13.164	1293.897	976.665
96.943	13.083	1293.210	975.581
97.957	13.035	1292.189	974.446
98.972	13.027	1291.207	973.571
99.987	13.047	1289.960	972.659
101.001	13.135	1288.803	972.219
102.016	12.979	1288.041	970.644
103.030	13.094	1286.574	970.127
104.045	13.196	1285.791	970.046
105.060	12.974	1285.222	968.232
106.074	12.958	1283.699	966.902
107.089	12.951	1281.737	965.299
108.103	12.868	1280.775	964.002
109.118	12.793	1279.778	962.730
110.133	12.803	1278.329	961.613
111.147	12.780	1277.406	960.702
112.162	12.986	1275.504	960.384
113.176	12.923	1274.583	959.236
114.191	12.986	1273.277	958.536
115.206	12.929	1272.206	957.318
116.220	12.967	1271.147	956.652
117.235	12.864	1270.155	955.229
118.249	12.888	1269.293	954.632
119.264	12.925	1267.780	953.625
120.279	12.867	1266.747	952.425
121.293	12.841	1265.739	951.437
122.308	12.863	1264.706	950.701
123.322	12.832	1263.767	949.733
124.337	12.905	1262.675	949.249
125.352	12.858	1261.685	948.149
126.366	12.855	1260.341	947.041
127.381	12.798	1259.149	945.734
128.395	12.837	1258.493	945.382
129.410	12.773	1257.404	944.112
130.424	12.880	1256.905	944.264
131.439	12.957	1255.623	943.659
132.454	13.022	1254.894	943.401
133.468	12.850	1254.234	941.836
134.483	12.978	1253.352	941.825
135.497	12.926	1252.541	940.833
136.512	12.978	1250.746	939.696
137.527	12.987	1249.226	938.524
138.541	12.919	1248.183	937.273
139.556	13.115	1246.253	936.849
140.570	13.210	1245.443	936.697
141.585	13.111	1244.659	935.465
142.600	13.102	1243.355	934.349
143.614	13.242	1242.675	934.550
144.629	13.322	1241.348	933.921
145.643	13.254	1240.203	932.594
146.658	13.176	1238.966	931.139
147.673	13.010	1237.849	929.282
148.687	13.013	1236.734	928.380
149.702	13.037	1235.385	927.420
150.716	13.017	1234.014	926.197
151.731	13.075	1232.757	925.496
152.746	13.016	1232.092	924.587
153.760	13.202	1230.670	924.475
154.775	13.185	1229.606	923.503
155.789	13.215	1228.771	922.958
156.804	13.220	1227.665	922.074
157.819	13.180	1226.944	921.232
158.833	13.298	1225.603	920.796
159.848	13.280	1224.798	920.012
160.862	13.302	1223.501	919.081
161.877	13.142	1222.696	917.504
162.892	13.102	1221.510	916.312
163.906	13.093	1220.802	915.649
164.921	13.222	1219.590	915.372
165.935	13.246	1218.457	914.576
166.950	13.181	1218.306	914.020
167.964	13.214	1217.497	913.515
168.979	13.216	1216.618	912.783
169.994	13.120	1216.060	911.758
171.008	13.271	1215.185	911.852
172.023	13.342	1214.391	911.566
173.037	13.434	1213.618	911.415
174.052	13.372	1212.455	910.121
175.067	13.226	1211.315	908.382
176.081	13.186	1210.570	907.518
177.096	13.331	1209.290	907.278
178.110	13.335	1208.166	906.374
179.125	13.273	1207.379	905.365
180.140	13.288	1206.317	904.573
181.154	13.390	1205.055	904.102
182.169	13.308	1203.938	902.734
183.183	13.396	1202.809	902.288
184.198	13.433	1201.374	901.333
185.213	13.504	1200.332	900.858
186.227	13.522	1199.484	900.240
187.242	13.495	1198.777	899.482
188.256	13.538	1197.638	898.782
189.271	13.449	1197.262	897.938
190.286	13.440	1195.556	896.529
191.300	13.358	1194.430	895.161
192.315	13.291	1193.894	894.321
193.329	13.331	1193.062	893.834
194.344	13.433	1192.506	893.887
195.359	13.451	1192.050	893.567
196.373	13.559	1191.629	893.753
197.388	13.497	1191.357	893.135
198.402	13.680	1190.760	893.598
199.417	13.725	1190.037	893.215
200.432	13.702	1189.382	892.521
201.446	13.770	1188.544	892.182
202.461	13.760	1187.515	891.276
203.475	13.813	1186.575	890.774
204.490	13.797	1185.091	889.495
205.504	13.742	1183.793	888.149
206.519	13.750	1182.755	887.336
207.534	13.778	1181.237	886.267
208.548	13.720	1180.769	885.530
209.563	13.763	1179.719	884.889
210.577	13.650	1178.987	883.660
211.592	13.832	1177.957	883.779
212.607	13.933	1177.529	883.919
213.621	13.843	1176.497	882.589
214.636	13.732	1176.033	881.569
215.650	13.779	1174.825	880.838
216.665	13.868	1173.675	880.368
217.680	14.040	1172.536	880.347
218.694	13.981	1172.202	879.706
219.709	14.042	1171.554	879.466
220.723	13.897	1170.863	878.103
221.738	13.983	1169.817	877.697
222.753	13.982	1169.381	877.284
223.767	13.944	1168.589	876.415
224.782	14.012	1168.043	876.282
225.796	14.004	1167.240	875.563
226.811	14.064	1166.775	875.454
227.826	14.048	1165.682	874.468
228.840	14.074	1164.993	874.011
229.855	14.016	1164.804	873.487
230.869	14.011	1163.322	872.275
231.884	14.038	1162.829	871.966
232.899	14.094	1161.467	871.161
233.913	13.974	1161.169	870.234
234.928	13.952	1160.288	869.380
235.942	13.910	1159.504	868.499
236.957	13.954	1159.071	868.325
237.972	13.985	1158.371	867.885
238.986	14.008	1157.812	867.513
240.001	13.993	1157.061	866.794
241.015	14.028	1155.894	866.025
242.030	14.158	1154.820	865.819
243.045	14.171	1154.297	865.421
244.059	14.324	1153.423	865.481
245.074	14.141	1153.124	864.229
246.088	14.184	1152.145	863.645
247.103	14.152	1151.643	863.024
248.117	14.253	1150.894	862.911
249.132	14.319	1149.937	862.460
250.147	14.509	1149.085	862.726
251.161	14.464	1148.717	862.144
252.176	14.520	1147.819	861.683
253.190	14.565	1146.924	861.166
254.205	14.598	1147.000	861.317
255.220	14.593	1146.302	860.688
256.234	14.584	1145.413	859.902
257.249	14.576	1145.330	859.721
258.263	14.597	1144.111	858.836
259.278	14.634	1143.472	858.471
260.293	14.663	1142.991	858.184
261.307	14.714	1142.481	857.987
262.322	14.763	1141.812	857.659
263.336	14.760	1141.116	857.048
264.351	14.801	1140.654	856.834
265.366	14.713	1140.031	855.837
266.380	14.722	1139.452	855.374
267.395	14.897	1137.709	854.886
268.409	14.658	1138.010	853.812
269.424	14.723	1136.785	853.152
270.439	14.815	1136.361	853.225
271.453	14.698	1135.696	852.056
272.468	14.599	1134.650	850.692
273.482	14.655	1133.976	850.397
274.497	14.708	1133.527	850.255
275.512	14.701	1132.930	849.693
276.526	14.729	1131.757	848.880
277.541	14.795	1131.088	848.642
278.555	14.699	1130.720	847.800
279.570	14.831	1129.639	847.586
280.585	14.946	1128.978	847.595
281.599	14.981	1127.460	846.561
282.614	14.871	1126.896	845.503
283.628	14.781	1126.116	844.392
284.643	14.851	1125.378	844.116
285.657	14.972	1124.431	843.940
286.672	14.840	1123.767	842.704
287.687	14.952	1122.627	842.337
288.701	14.975	1121.917	841.846
289.716	15.036	1120.765	841.212
290.730	14.935	1120.357	840.324
291.745	15.048	1120.063	840.600
292.760	15.014	1119.010	839.563
293.774	15.116	1118.350	839.504
294.789	15.090	1118.307	839.269
295.803	15.088	1117.851	838.841
296.818	15.108	1116.443	837.811
297.833	15.083	1115.577	836.959
298.847	15.110	1115.017	836.601
299.862	15.135	1114.344	836.150
300.876	15.011	1113.578	834.883
301.891	15.135	1113.026	835.013
302.906	15.211	1112.121	834.637
303.920	15.241	1111.772	834.451
304.935	15.409	1110.818	834.495
305.949	15.362	1109.975	833.556
306.964	15.412	1109.550	833.410
307.979	15.292	1109.116	832.413
308.993	15.358	1108.214	831.994
310.008	15.235	1107.741	830.951
311.022	15.474	1106.500	831.132
312.037	15.375	1105.713	829.979
313.052	15.303	1104.871	828.915
314.066	15.264	1103.949	827.957
315.081	15.343	1103.002	827.566
316.095	15.296	1102.325	826.753
317.110	15.223	1102.092	826.147
318.125	15.250	1101.036	825.414
319.139	15.267	1100.513	825.031
320.154	15.278	1099.902	824.557
321.168	15.341	1099.212	824.273
322.183	15.333	1098.647	823.737
323.197	15.259	1098.153	822.933
324.212	15.381	1097.044	822.627
325.227	15.441	1096.554	822.478
326.241	15.415	1095.849	821.752
327.256	15.415	1095.126	821.135
328.270	15.389	1094.360	820.360
329.285	15.418	1093.274	819.619
330.300	15.468	1092.417	819.144
331.314	15.449	1091.337	818.171
332.329	15.417	1090.543	817.348
333.343	15.514	1089.720	817.129
334.358	15.516	1089.181	816.664
335.373	15.582	1088.316	816.261
336.387	15.465	1087.825	815.256
337.402	15.701	1086.689	815.476
338.416	15.741	1085.988	815.069
339.431	15.608	1085.307	813.845
340.446	15.696	1084.703	813.744
341.460	15.713	1084.489	813.593
342.475	15.818	1083.207	813.068
343.489	15.827	1082.655	812.628
344.504	15.869	1082.068	812.317
345.519	15.869	1080.834	811.317
346.533	15.831	1080.294	810.656
347.548	15.913	1079.705	810.540
348.562	15.966	1078.708	809.971
349.577	15.899	1078.278	809.259
350.592	15.770	1077.103	807.684
351.606	15.702	1076.698	806.982
352.621	15.813	1075.398	806.471
353.635	15.838	1074.871	806.121
354.650	15.811	1074.297	805.492
355.665	15.861	1073.605	805.140
356.679	15.835	1073.376	804.771
357.694	15.901	1072.488	804.353
358.708	15.944	1072.039	804.148
359.723	15.965	1071.390	803.689
360.738	15.902	1070.943	802.984
361.752	15.950	1070.255	802.626
362.767	15.958	1069.519	802.040
363.781	16.106	1068.701	802.059
364.796	16.055	1068.324	801.463
365.810	16.220	1067.724	801.727
366.825	16.273	1066.968	801.338
367.840	16.344	1066.287	801.092
368.854	16.269	1065.992	800.447
369.869	16.304	1065.561	800.217
370.883	16.220	1064.476	798.932
371.898	16.200	1063.523	798.056
372.913	16.196	1063.261	797.768
373.927	16.197	1062.830	797.379
374.942	16.316	1062.457	797.591
375.956	16.294	1061.501	796.697
376.971	16.232	1061.373	796.239
377.986	16.386	1060.462	796.209
379.000	16.344	1059.858	795.490
380.015	16.368	1059.518	795.275
381.029	16.498	1059.026	795.450
382.044	16.480	1058.266	794.722
383.059	16.407	1057.751	793.921
384.073	16.462	1056.696	793.318
385.088	16.517	1055.978	792.968
386.102	16.429	1055.025	791.769
387.117	16.283	1054.063	790.292
388.132	16.346	1053.118	789.808
389.146	16.403	1052.501	789.545
390.161	16.454	1051.684	789.101
391.175	16.408	1050.909	788.232
392.190	16.483	1050.346	788.093
393.205	16.546	1049.524	787.698
394.219	16.454	1048.773	786.636
395.234	16.592	1047.806	786.481
396.248	16.465	1046.899	785.142
397.263	16.474	1045.860	784.334
398.278	16.575	1044.949	784.050
399.292	16.479	1044.582	783.261
400.307	16.534	1043.672	782.763
401.321	16.462	1042.788	781.700
402.336	16.603	1042.481	782.052
403.350	16.563	1041.615	781.147
404.365	16.550	1040.925	780.503
405.380	16.701	1039.930	780.380
406.394	16.659	1039.492	779.792
407.409	16.629	1039.099	779.289
408.423	16.726	1038.107	778.921
409.438	16.816	1037.275	778.643
410.453	16.831	1037.238	778.614
411.467	16.812	1036.298	777.752
412.482	16.879	1035.552	777.434
413.496	16.847	1034.943	776.758
414.511	16.841	1034.546	776.367
415.526	16.966	1033.871	776.363
416.540	16.969	1033.672	776.156
417.555	17.019	1032.987	775.804
418.569	16.954	1032.384	774.984
419.584	17.109	1031.753	775.151
420.599	17.052	1031.129	774.352
421.613	103.733	1323.477	1472.645
422.628	94.933	1366.021	1472.755
