DTS Sentinel unit serial number:	SN413079Multiplexer serial number:	ORYXHardware model number:	OX4-SRSoftware version number:	ORYX F/W v4.00 Oryx Data Collector v3.7.2.0data status	okinstallation	princeton_trtdifferential loss correction	single-endedforward channel	channel 2reverse channel	N/Adate	2019/09/17time	02:07:35forward acquisition time	60.00reverse acquisition time	0.00gamma	496.2192k internal	0.2328k external	0.2328temperature offset calibration	0.9977default loss term (dB/km)	0.3790temperature slope calibration	1.0000multiplexer offset coefficient	1.0000multiplexer slope coefficient	1.0000fibre end	0.00T internal ref (°C)	29.69T ext. ref 1 (°C)	0.12T ext. ref 2 (°C)	24.59length (m)	temperature (°C)	Stokes	anti-Stokes-747.200	10.040	0.100	-0.077
-746.185	70.018	0.261	0.271
-745.171	206.121	0.075	-0.118
-744.156	-95.855	-0.056	-0.015
-743.142	-110.679	0.255	0.053
-742.127	178.701	-0.069	-0.101
-741.112	206.714	0.113	0.177
-740.098	87.863	-0.224	0.250
-739.083	-142.617	-0.135	-0.013
-738.069	282.106	-0.034	0.062
-737.054	-200.000	-0.020	0.138
-736.039	79.590	-0.287	-0.311
-735.025	-200.000	0.022	0.140
-734.010	-48.620	-0.190	-0.092
-732.996	185.001	-0.132	0.197
-731.981	-200.000	-0.056	0.360
-730.966	-18.509	-0.353	0.222
-729.952	-73.617	-0.178	-0.065
-728.937	175.802	-0.192	0.280
-727.923	-82.174	-0.253	0.083
-726.908	234.154	-0.083	-0.138
-725.894	-174.311	-0.412	0.012
-724.879	-9.244	0.032	0.021
-723.864	-47.139	0.095	-0.047
-722.850	-94.107	-0.077	0.021
-721.835	-200.000	-0.007	-0.216
-720.821	-200.000	-0.035	-0.176
-719.806	-77.851	0.174	-0.061
-718.791	432.789	-0.083	0.182
-717.777	-85.603	-0.215	-0.067
-716.762	71.368	-0.198	0.206
-715.748	-160.850	0.254	-0.014
-714.733	-68.066	-0.348	-0.137
-713.718	-3.904	0.265	-0.185
-712.704	77.801	-0.077	-0.082
-711.689	-131.937	0.042	0.005
-710.675	800.000	-0.093	0.353
-709.660	800.000	0.139	-0.471
-708.645	-200.000	-0.002	0.234
-707.631	138.069	0.130	-0.172
-706.616	247.838	-0.053	-0.089
-705.602	800.000	-0.070	-0.258
-704.587	-129.313	0.269	-0.038
-703.572	28.745	-0.119	0.101
-702.558	61.754	-0.114	-0.114
-701.543	-200.000	0.011	-0.089
-700.529	800.000	-0.042	-0.166
-699.514	-39.559	0.233	0.123
-698.499	222.677	0.184	-0.298
-697.485	143.079	-0.230	-0.308
-696.470	-11.010	-0.207	0.138
-695.456	-200.000	-0.008	0.063
-694.441	-200.000	0.004	0.185
-693.426	-200.000	-0.034	-0.394
-692.412	37.088	0.148	0.132
-691.397	-29.297	0.196	0.113
-690.383	151.139	-0.165	-0.226
-689.368	800.000	0.025	-0.106
-688.354	-200.000	-0.045	-0.253
-687.339	-92.432	0.125	-0.035
-686.324	-83.494	-0.099	-0.032
-685.310	-200.000	-0.046	-0.365
-684.295	-200.000	0.001	-0.097
-683.281	20.325	-0.097	0.079
-682.266	-200.000	0.000	0.089
-681.251	-119.312	-0.363	-0.063
-680.237	-200.000	0.063	0.291
-679.222	59.984	0.142	0.141
-678.208	86.700	-0.196	0.218
-677.193	85.436	-0.236	0.261
-676.178	168.992	-0.131	0.188
-675.164	110.906	-0.124	-0.150
-674.149	142.563	-0.066	-0.088
-673.135	116.945	0.144	-0.178
-672.120	-200.000	-0.036	-0.192
-671.105	3.776	0.262	-0.192
-670.091	-200.000	-0.009	0.290
-669.076	-22.357	-0.258	0.157
-668.062	-109.616	-0.144	0.030
-667.047	-30.845	0.302	0.171
-666.032	375.461	0.137	0.281
-665.018	-81.832	0.178	-0.059
-664.003	800.000	-0.032	0.134
-662.989	-64.954	-0.129	-0.052
-661.974	86.424	-0.204	-0.226
-660.959	-100.361	-0.277	0.069
-659.945	28.629	-0.201	0.171
-658.930	60.876	0.182	-0.181
-657.916	800.000	-0.117	-0.385
-656.901	127.030	-0.106	0.135
-655.886	293.504	0.102	-0.186
-654.872	800.000	0.103	-0.316
-653.857	82.455	-0.188	-0.205
-652.843	188.073	-0.070	0.105
-651.828	413.377	0.129	-0.275
-650.814	-200.000	-0.029	-0.162
-649.799	-83.246	-0.138	0.045
-648.784	-200.000	-0.011	0.107
-647.770	-81.505	-0.293	0.097
-646.755	96.409	0.122	-0.140
-645.741	-81.560	-0.403	0.133
-644.726	-172.254	0.392	0.013
-643.711	180.023	-0.038	-0.055
-642.697	-111.245	0.366	-0.075
-641.682	758.504	-0.033	0.090
-640.668	-38.779	0.314	0.166
-639.653	800.000	0.072	0.248
-638.638	-126.871	-0.517	0.077
-637.624	47.317	-0.108	-0.101
-636.609	-23.850	-0.153	0.092
-635.595	800.000	0.052	-0.198
-634.580	95.625	-0.150	0.172
-633.565	181.498	0.192	0.283
-632.551	70.883	0.138	0.143
-631.536	578.238	-0.100	-0.246
-630.522	-66.992	0.240	-0.095
-629.507	309.136	-0.236	0.442
-628.492	144.446	-0.172	-0.230
-627.478	-56.716	0.149	0.066
-626.463	-81.191	0.273	0.090
-625.449	-106.136	0.336	0.076
-624.434	146.500	-0.035	0.047
-623.419	-32.761	0.167	-0.093
-622.405	-156.453	-0.178	0.011
-621.390	-200.000	0.000	0.120
-620.376	24.105	-0.250	0.207
-619.361	-114.460	-0.349	0.067
-618.346	142.187	-0.192	-0.256
-617.332	183.823	-0.121	0.180
-616.317	-64.449	0.234	-0.095
-615.303	-76.265	0.274	-0.097
-614.288	-52.859	0.166	-0.077
-613.273	98.342	0.189	-0.219
-612.259	-24.440	-0.155	-0.093
-611.244	729.242	0.083	-0.223
-610.230	342.914	-0.092	-0.181
-609.215	147.217	-0.150	-0.202
-608.201	-196.525	-0.220	-0.001
-607.186	100.756	-0.068	-0.079
-606.171	-200.000	-0.070	-0.363
-605.157	-108.716	-0.224	0.048
-604.142	-15.399	-0.106	-0.068
-603.128	215.840	-0.171	0.272
-602.113	-105.852	0.130	-0.029
-601.098	-69.122	0.189	0.073
-600.084	800.000	0.142	0.434
-599.069	-143.912	0.246	-0.023
-598.055	-136.137	-0.229	0.027
-597.040	-200.000	-0.044	0.238
-596.025	141.573	-0.211	-0.280
-595.011	-200.000	-0.031	-0.265
-593.996	-103.756	0.223	0.052
-592.982	36.999	-0.139	-0.123
-591.967	-64.980	0.055	0.022
-590.952	-200.000	-0.022	-0.248
-589.938	0.892	0.244	-0.175
-588.923	48.597	-0.137	0.128
-587.909	-200.000	-0.051	0.296
-586.894	-73.143	-0.275	-0.101
-585.879	27.167	-0.152	-0.128
-584.865	-54.004	-0.121	-0.055
-583.850	800.000	0.042	-0.174
-582.836	-49.130	-0.083	-0.040
-581.821	-97.303	-0.156	-0.041
-580.806	29.727	0.146	-0.124
-579.792	192.609	0.058	0.088
-578.777	-143.169	0.189	0.018
-577.763	-108.457	-0.206	-0.044
-576.748	-151.785	-0.182	0.013
-575.733	273.698	-0.159	-0.281
-574.719	-16.409	0.123	-0.078
-573.704	-200.000	0.032	0.365
-572.690	-71.245	-0.139	0.052
-571.675	-11.312	0.253	-0.167
-570.661	-170.059	0.204	-0.007
-569.646	79.468	0.194	-0.208
-568.631	65.503	0.116	-0.117
-567.617	512.972	-0.041	-0.095
-566.602	-122.269	-0.173	0.028
-565.588	-124.558	0.323	-0.050
-564.573	153.936	0.062	0.086
-563.558	103.048	0.092	-0.107
-562.544	1.985	0.149	0.107
-561.529	-105.948	0.403	0.091
-560.515	-175.389	-0.412	0.011
-559.500	149.207	-0.062	0.084
-558.485	-192.684	0.163	0.002
-557.471	-143.425	0.060	0.006
-556.456	-32.593	-0.154	-0.086
-555.442	-57.747	-0.101	0.044
-554.427	377.959	0.048	-0.098
-553.412	-33.510	0.057	0.031
-552.398	54.832	-0.109	-0.106
-551.383	-107.790	-0.060	0.013
-550.369	-34.515	0.385	0.211
-549.354	-200.000	-0.004	0.133
-548.339	226.904	0.087	0.141
-547.325	388.070	0.103	-0.213
-546.310	25.824	0.232	0.193
-545.296	624.941	0.149	-0.375
-544.281	-80.266	0.176	-0.059
-543.266	800.000	0.048	-0.203
-542.252	-99.253	-0.075	-0.019
-541.237	149.752	0.135	0.184
-540.223	-16.944	0.397	0.251
-539.208	327.946	0.068	-0.130
-538.193	800.000	-0.081	0.339
-537.179	-104.992	-0.320	0.073
-536.164	599.944	0.060	-0.150
-535.150	98.937	0.169	0.195
-534.135	84.032	-0.058	0.063
-533.121	1.384	-0.128	-0.092
-532.106	154.341	0.134	-0.183
-531.091	800.000	0.083	-0.309
-530.077	-200.000	0.005	-0.186
-529.062	-200.000	-0.031	-0.223
-528.048	-146.270	0.031	0.003
-527.033	-200.000	0.007	0.091
-526.018	-176.323	-0.172	0.004
-525.004	311.718	0.250	-0.469
-523.989	90.761	-0.075	-0.084
-522.975	617.454	0.108	0.271
-521.960	-74.898	-0.145	0.052
-520.945	-121.350	-0.075	-0.012
-519.931	346.309	-0.070	0.138
-518.916	-200.000	0.178	0.000
-517.902	1.578	-0.119	0.086
-516.887	-69.966	-0.178	0.068
-515.872	-70.666	-0.112	0.042
-514.858	-49.642	0.236	0.112
-513.843	-200.000	0.006	0.111
-512.829	-27.974	0.148	0.086
-511.814	800.000	0.063	-0.228
-510.799	304.674	-0.042	-0.077
-509.785	63.196	-0.142	0.143
-508.770	-68.185	0.129	0.050
-507.756	-89.339	-0.198	0.058
-506.741	5.008	0.055	-0.040
-505.726	-99.404	-0.432	-0.109
-504.712	-45.652	-0.116	-0.057
-503.697	4.920	0.255	0.188
-502.683	-38.123	-0.111	-0.059
-501.668	-12.546	-0.092	-0.060
-500.653	66.933	-0.181	0.184
-499.639	43.433	0.092	0.084
-498.624	-112.273	-0.328	0.066
-497.610	142.994	-0.109	0.145
-496.595	-5.607	0.172	0.118
-495.581	-12.188	-0.045	0.030
-494.566	-200.000	-0.053	0.311
-493.551	139.876	-0.098	-0.129
-492.537	-66.283	-0.212	0.084
-491.522	-200.000	0.083	0.370
-490.508	94.818	-0.179	0.204
-489.493	-137.916	-0.121	-0.013
-488.478	-126.231	0.192	-0.029
-487.464	103.679	-0.170	0.199
-486.449	-63.936	-0.157	0.064
-485.435	-59.347	-0.397	-0.170
-484.420	166.341	0.119	-0.168
-483.405	800.000	-0.046	-0.133
-482.391	762.603	0.061	-0.165
-481.376	-149.540	-0.276	-0.022
-480.362	-55.598	-0.265	-0.118
-479.347	-168.185	0.306	-0.012
-478.332	395.731	0.084	0.175
-477.318	172.409	0.174	-0.250
-476.303	4.611	-0.034	-0.025
-475.289	-186.374	-0.050	-0.001
-474.274	9.673	-0.304	0.230
-473.259	-50.373	0.174	-0.082
-472.245	-57.884	-0.230	-0.100
-471.230	499.832	0.081	0.187
-470.216	58.434	-0.317	-0.310
-469.201	-175.753	0.060	-0.002
-468.186	131.364	0.108	-0.138
-467.172	-143.707	0.152	0.014
-466.157	126.609	-0.105	0.133
-465.143	-109.730	0.330	-0.069
-464.128	-200.000	0.053	-0.403
-463.113	-200.000	0.020	-0.343
-462.099	-48.644	0.235	0.113
-461.084	-146.181	-0.176	0.015
-460.070	800.000	0.022	0.060
-459.055	234.543	-0.118	0.193
-458.040	-53.683	-0.264	0.120
-457.026	-200.000	-0.001	-0.226
-456.011	-200.000	-0.056	0.313
-454.997	-96.066	0.119	0.031
-453.982	-179.482	0.217	0.005
-452.968	-30.391	0.325	0.184
-451.953	-50.752	0.156	-0.073
-450.938	-200.000	-0.060	-0.332
-449.924	-200.000	-0.054	0.337
-448.909	-31.121	-0.060	-0.034
-447.895	205.485	0.097	-0.150
-446.880	800.000	-0.029	-0.080
-445.865	430.656	-0.104	0.225
-444.851	-119.294	0.209	-0.036
-443.836	663.802	0.084	-0.217
-442.822	-200.000	0.022	-0.405
-441.807	-200.000	-0.023	-0.190
-440.792	24.296	0.036	0.030
-439.778	800.000	0.046	0.171
-438.763	76.068	-0.220	0.232
-437.749	800.000	0.015	-0.053
-436.734	104.918	0.143	0.168
-435.719	800.000	-0.038	0.133
-434.705	-87.059	-0.139	0.042
-433.690	637.721	-0.087	0.220
-432.676	-132.216	0.196	-0.025
-431.661	-140.986	0.138	-0.014
-430.646	368.863	0.138	0.278
-429.632	-200.000	0.001	0.194
-428.617	-60.101	-0.308	0.131
-427.603	157.088	-0.101	-0.139
-426.588	-200.000	0.075	-0.334
-425.573	800.000	0.078	-0.292
-424.559	366.404	0.033	-0.067
-423.544	-53.503	-0.422	0.192
-422.530	800.000	-0.029	-0.114
-421.515	800.000	0.039	0.125
-420.500	-129.037	-0.167	0.023
-419.486	-48.775	0.078	0.037
-418.471	-200.000	-0.065	-0.512
-417.457	-175.835	-0.262	0.007
-416.442	800.000	-0.075	0.246
-415.428	-200.000	-0.069	0.323
-414.413	194.027	-0.105	0.159
-413.398	114.869	-0.073	-0.089
-412.384	-200.000	-0.021	0.093
-411.369	-38.013	-0.177	0.093
-410.355	301.845	-0.134	0.247
-409.340	-108.859	-0.095	0.020
-408.325	367.264	0.210	-0.422
-407.311	-112.776	0.185	0.036
-406.296	800.000	0.009	0.029
-405.282	800.000	-0.060	0.241
-404.267	-76.424	-0.172	-0.060
-403.252	-116.782	-0.107	0.020
-402.238	-200.000	0.045	-0.262
-401.223	-102.628	-0.260	0.062
-400.209	210.747	-0.062	-0.097
-399.194	181.301	-0.114	-0.167
-398.179	329.534	0.131	-0.250
-397.165	-26.642	0.090	0.052
-396.150	125.918	-0.109	0.136
-395.136	-47.544	-0.288	-0.139
-394.121	-78.131	0.126	-0.043
-393.106	191.761	0.170	-0.254
-392.092	50.947	-0.145	-0.136
-391.077	5.597	0.144	0.106
-390.063	-150.181	-0.455	0.035
-389.048	297.197	0.086	0.157
-388.033	-101.084	-0.239	-0.058
-387.019	-107.826	-0.240	-0.052
-386.004	217.925	-0.046	-0.073
-384.990	-200.000	0.032	-0.226
-383.975	34.304	0.177	-0.153
-382.960	-200.000	0.083	-0.391
-381.946	25.625	-0.129	0.107
-380.931	268.948	-0.200	-0.349
-379.917	-81.294	0.465	0.152
-378.902	-137.774	0.262	-0.029
-377.888	297.741	0.021	0.039
-376.873	650.615	0.060	-0.153
-375.858	-118.953	0.133	-0.023
-374.844	557.150	-0.118	0.282
-373.829	10.388	-0.203	-0.153
-372.815	-161.857	0.188	0.009
-371.800	23.120	-0.097	-0.079
-370.785	-66.416	0.331	0.131
-369.771	-200.000	-0.010	-0.211
-368.756	125.164	0.047	-0.059
-367.742	77.364	0.099	0.104
-366.727	-200.000	0.009	0.218
-365.712	-200.000	-0.004	-0.047
-364.698	37.939	0.020	0.017
-363.683	128.125	-0.160	-0.202
-362.669	800.000	-0.130	0.473
-361.654	-200.000	0.069	0.350
-360.639	-37.991	0.535	0.282
-359.625	-72.290	-0.108	-0.040
-358.610	21.774	-0.106	0.086
-357.596	-158.184	0.296	-0.017
-356.581	-36.557	0.158	-0.084
-355.566	483.818	-0.032	-0.073
-354.552	84.245	-0.240	-0.260
-353.537	5.404	0.222	-0.162
-352.523	-114.178	0.233	0.045
-351.508	48.883	0.124	0.116
-350.493	-200.000	0.024	0.243
-349.479	144.985	-0.168	-0.223
-348.464	800.000	0.120	-0.364
-347.450	-200.000	0.014	-0.132
-346.435	-200.000	0.034	0.245
-345.420	-200.000	0.018	-0.101
-344.406	79.924	0.144	-0.154
-343.391	8.435	0.251	-0.187
-342.377	-28.138	-0.267	0.153
-341.362	203.450	0.161	0.248
-340.348	-104.259	-0.209	0.048
-339.333	-58.450	-0.270	-0.116
-338.318	22.121	0.135	0.109
-337.304	-67.532	-0.234	0.091
-336.289	184.046	0.117	-0.172
-335.275	-45.572	-0.101	0.050
-334.260	-58.494	0.110	-0.047
-333.245	-200.000	0.007	-0.293
-332.231	192.399	0.191	0.286
-331.216	-96.758	0.089	-0.023
-330.202	-182.489	-0.293	0.005
-329.187	-200.000	0.010	0.202
-328.172	800.000	0.059	-0.232
-327.158	-200.000	0.039	-0.284
-326.143	-45.399	0.112	0.055
-325.129	470.866	0.035	-0.077
-324.114	-159.417	-0.115	-0.006
-323.099	59.924	0.075	0.073
-322.085	-107.493	0.039	-0.008
-321.070	-200.000	-0.005	0.226
-320.056	-200.000	0.010	-0.257
-319.041	-81.884	-0.194	0.063
-318.026	229.537	0.042	0.067
-317.012	-94.753	0.187	0.050
-315.997	-26.521	-0.090	-0.052
-314.983	290.892	-0.089	-0.160
-313.968	800.000	0.067	-0.256
-312.953	64.456	-0.052	-0.052
-311.939	-107.458	0.215	0.047
-310.924	29.949	0.039	0.033
-309.910	265.560	-0.053	-0.092
-308.895	116.303	-0.122	-0.148
-307.880	800.000	0.073	-0.256
-306.866	381.045	-0.090	-0.183
-305.851	-200.000	-0.011	-0.183
-304.837	38.600	-0.061	-0.054
-303.822	-25.551	-0.207	0.121
-302.807	193.129	-0.099	-0.148
-301.793	376.498	0.060	0.122
-300.778	11.782	-0.092	0.070
-299.764	800.000	-0.064	0.182
-298.749	-23.774	0.268	-0.159
-297.735	-146.278	-0.304	-0.026
-296.720	23.482	0.051	-0.042
-295.705	-93.641	0.126	-0.034
-294.691	800.000	-0.042	0.127
-293.676	95.137	0.108	0.122
-292.662	-67.244	0.149	0.058
-291.647	-123.692	-0.307	-0.048
-290.632	-109.835	0.332	-0.069
-289.618	252.611	0.024	-0.041
-288.603	89.522	-0.142	0.157
-287.589	-90.571	0.199	-0.057
-286.574	31.293	-0.052	0.044
-285.559	64.829	-0.076	-0.076
-284.545	-200.000	0.004	-0.227
-283.530	56.454	0.219	0.211
-282.516	800.000	-0.178	0.534
-281.501	-157.922	-0.195	0.011
-280.486	-200.000	0.039	-0.348
-279.472	154.049	0.068	0.092
-278.457	-177.313	0.158	0.004
-277.443	-200.000	-0.044	0.311
-276.428	-52.024	-0.226	-0.104
-275.413	-194.055	0.109	-0.001
-274.399	-114.378	0.245	-0.047
-273.384	300.751	0.020	0.036
-272.370	-57.712	0.100	0.043
-271.355	247.400	0.162	-0.271
-270.340	-200.000	-0.024	0.128
-269.326	-200.000	0.049	-0.213
-268.311	-44.196	0.244	0.121
-267.297	35.719	0.322	0.280
-266.282	89.782	-0.093	-0.103
-265.267	-200.000	-0.025	0.117
-264.253	-183.349	-0.128	-0.002
-263.238	800.000	0.121	0.419
-262.224	800.000	0.055	-0.193
-261.209	-95.481	0.165	0.044
-260.195	-13.868	0.177	-0.113
-259.180	-1.052	0.138	0.097
-258.165	-128.403	-0.309	-0.043
-257.151	-60.665	-0.393	0.165
-256.136	180.209	0.021	-0.030
-255.122	95.752	0.063	0.071
-254.107	-22.361	0.375	0.225
-253.092	-100.529	0.159	0.039
-252.078	800.000	0.066	-0.191
-251.063	0.736	-0.307	-0.217
-250.049	-191.240	0.159	-0.002
-249.034	-161.080	-0.077	0.004
-248.019	-93.361	-0.291	0.080
-247.005	281.434	0.090	-0.159
-245.990	-92.666	-0.055	-0.015
-244.976	55.671	0.047	-0.045
-243.961	-159.245	0.209	0.012
-242.946	136.972	-0.052	-0.067
-241.932	-43.623	-0.287	0.143
-240.917	181.329	-0.127	-0.185
-239.903	-200.000	-0.006	-0.033
-238.888	-78.282	-0.287	0.097
-237.873	-188.417	0.130	-0.002
-236.859	-101.270	0.122	0.030
-235.844	472.411	0.040	0.089
-234.830	-200.000	-0.003	-0.036
-233.815	43.020	-0.260	-0.234
-232.800	-200.000	0.061	0.311
-231.786	-200.000	-0.018	-0.097
-230.771	192.026	-0.059	-0.088
-229.757	-38.429	0.253	-0.132
-228.742	276.365	-0.116	0.204
-227.727	-200.000	-0.131	0.591
-226.713	-148.704	-0.164	0.013
-225.698	-9.709	-0.150	0.098
-224.684	-200.000	-0.016	-0.321
-223.669	-200.000	0.025	0.217
-222.655	-80.480	-0.290	-0.096
-221.640	727.819	0.078	0.207
-220.625	-101.466	-0.195	0.047
-219.611	120.899	-0.293	0.360
-218.596	-123.370	0.219	-0.035
-217.582	800.000	0.026	-0.107
-216.567	188.779	-0.018	-0.026
-215.552	-200.000	0.022	-0.353
-214.538	-105.905	0.201	-0.045
-213.523	-130.200	0.105	0.014
-212.509	800.000	-0.045	-0.164
-211.494	-0.285	0.319	0.224
-210.479	19.772	-0.206	0.163
-209.465	110.972	0.200	0.237
-208.450	-128.370	0.276	0.039
-207.436	-41.715	-0.248	-0.126
-206.421	-123.549	0.130	0.020
-205.406	800.000	-0.128	-0.479
-204.392	11.328	-0.149	-0.113
-203.377	-200.000	-0.124	0.554
-202.363	25.642	-0.163	0.134
-201.348	800.000	-0.110	0.329
-200.333	-200.000	0.026	0.136
-199.319	-139.373	0.270	-0.029
-198.304	-34.450	-0.136	0.073
-197.290	-88.051	0.209	0.062
-196.275	85.537	-0.210	-0.228
-195.260	168.576	-0.112	0.158
-194.246	322.748	0.030	0.056
-193.231	800.000	0.036	-0.108
-192.217	358.037	-0.067	0.132
-191.202	381.856	-0.075	-0.152
-190.187	-200.000	0.029	-0.321
-189.173	-81.251	0.287	0.093
-188.158	800.000	0.025	-0.070
-187.144	235.262	0.173	0.281
-186.129	119.855	-0.238	-0.291
-185.114	261.143	0.128	-0.218
-184.100	51.917	-0.059	-0.056
-183.085	-166.714	0.237	0.010
-182.071	-178.033	-0.329	-0.008
-181.056	47.193	0.124	-0.114
-180.042	-101.975	0.368	0.088
-179.027	254.147	-0.124	0.210
-178.012	48.770	-0.034	0.032
-176.998	-162.895	0.102	0.005
-175.983	-53.535	0.333	0.150
-174.969	37.626	0.033	0.028
-173.954	63.178	0.138	0.136
-172.939	77.971	-0.331	0.348
-171.925	-64.980	-0.229	0.091
-170.910	-200.000	-0.011	0.182
-169.896	800.000	0.064	0.209
-168.881	-36.132	-0.184	0.098
-167.866	189.063	-0.105	-0.155
-166.852	86.002	0.044	-0.048
-165.837	-138.046	0.049	-0.005
-164.823	-77.430	0.091	-0.031
-163.808	-200.000	0.030	-0.271
-162.793	52.402	0.277	-0.260
-161.779	-134.110	-0.394	0.048
-160.764	84.823	0.085	0.092
-159.750	-177.991	0.689	-0.016
-158.735	-135.519	0.252	0.030
-157.720	800.000	0.023	-0.083
-156.706	-100.751	0.092	0.022
-155.691	100.214	-0.007	0.008
-154.677	-132.871	-0.157	0.020
-153.662	-30.566	-0.158	0.088
-152.647	800.000	-0.010	-0.044
-151.633	56.589	0.080	0.076
-150.618	-4.358	-0.236	-0.161
-149.604	50.524	-0.167	-0.156
-148.589	135.482	0.037	-0.047
-147.574	298.793	0.064	0.116
-146.560	255.250	-0.106	-0.178
-145.545	-75.887	0.257	-0.090
-144.531	705.544	0.110	0.285
-143.516	76.330	0.057	-0.060
-142.502	-53.656	0.175	-0.079
-141.487	173.952	0.202	0.287
-140.472	-69.049	-0.060	0.023
-139.458	-200.000	-0.008	0.132
-138.443	93.361	0.208	0.232
-137.429	-10.986	0.137	-0.089
-136.414	287.753	-0.149	0.265
-135.399	-104.284	-0.378	-0.086
-134.385	173.416	0.028	0.040
-133.370	-200.000	-0.049	0.222
-132.356	-133.614	-0.244	-0.030
-131.341	-37.351	-0.062	0.033
-130.326	-200.000	-0.018	-0.270
-129.312	-200.000	0.042	0.190
-128.297	-110.536	0.123	0.025
-127.283	-21.733	0.047	0.028
-126.268	266.216	0.030	-0.051
-125.253	71.445	-0.150	0.153
-124.239	346.713	-0.076	-0.147
-123.224	800.000	-0.060	0.171
-122.210	-200.000	0.006	-0.165
-121.195	-200.000	-0.014	0.125
-120.180	247.147	0.181	0.300
-119.166	-200.000	-0.008	-0.072
-118.151	-126.410	0.419	-0.061
-117.137	-200.000	-0.036	0.267
-116.122	68.887	-0.145	0.147
-115.107	6.839	0.135	0.099
-114.093	-200.000	-0.061	0.271
-113.078	-92.905	-0.320	0.088
-112.064	433.350	-0.088	-0.189
-111.049	100.341	-0.191	0.218
-110.034	-74.881	-0.149	-0.053
-109.020	-200.000	-0.024	-0.353
-108.005	23.997	0.068	-0.055
-106.991	18.598	-0.109	-0.086
-105.976	-147.071	-0.271	-0.023
-104.962	800.000	0.053	-0.205
-103.947	-16.220	-0.333	-0.208
-102.932	66.615	0.241	0.241
-101.918	49.409	-0.180	0.166
-100.903	-200.000	-0.026	-0.128
-99.889	-200.000	0.018	0.244
-98.874	368.114	-0.064	0.127
-97.859	-200.000	0.068	0.339
-96.845	95.465	0.260	0.292
-95.830	5.084	-0.311	0.225
-94.816	-108.907	0.210	-0.044
-93.801	343.290	-0.031	0.059
-92.786	775.816	0.119	0.320
-91.772	756.113	-0.066	-0.176
-90.757	800.000	-0.052	0.181
-89.743	135.959	0.155	-0.198
-88.728	-94.115	0.261	0.070
-87.713	194.470	0.046	0.069
-86.699	82.838	-0.165	0.176
-85.684	800.000	-0.059	-0.214
-84.670	-160.198	0.468	0.025
-83.655	109.785	0.120	0.141
-82.640	800.000	0.101	-0.393
-81.626	-43.316	-0.127	-0.063
-80.611	-102.915	-0.143	0.033
-79.597	-200.000	-0.036	0.239
-78.582	-26.965	-0.161	0.093
-77.567	-110.949	0.124	-0.025
-76.553	-152.725	0.187	0.013
-75.538	153.826	-0.301	-0.404
-74.524	-78.857	-0.105	-0.035
-73.509	800.000	-0.135	0.426
-72.494	127.747	0.116	0.145
-71.480	800.000	0.074	0.255
-70.465	131.596	0.081	-0.102
-69.451	-60.626	0.324	-0.135
-68.436	-200.000	-0.031	0.182
-67.422	-200.000	-0.017	0.287
-66.407	-49.415	-0.115	0.054
-65.392	-20.027	-0.278	0.168
-64.378	-32.963	-0.324	-0.176
-63.363	800.000	0.076	0.229
-62.349	-66.871	0.274	-0.106
-61.334	8.212	-1.201	-0.885
-60.319	-31.543	0.286	0.158
-59.305	531.707	-0.454	-1.053
-58.290	800.000	0.341	1.252
-57.276	291.661	0.831	1.483
-56.261	-200.000	107.311	586.008
-55.246	452.868	1471.146	3192.615
-54.232	147.434	2662.485	3517.197
-53.217	99.907	2290.482	2603.403
-52.203	38.683	1902.324	1665.187
-51.188	32.836	1690.721	1435.581
-50.173	30.251	1647.769	1379.858
-49.159	48.859	1700.483	1565.089
-48.144	49.432	1715.561	1583.230
-47.130	32.427	1674.229	1418.271
-46.115	29.868	1659.243	1386.378
-45.100	29.543	1654.852	1380.225
-44.086	29.595	1651.982	1378.167
-43.071	29.549	1649.218	1375.461
-42.057	29.481	1646.874	1372.947
-41.042	29.518	1644.779	1371.420
-40.027	29.571	1642.742	1370.061
-39.013	29.561	1640.726	1368.246
-37.998	29.540	1639.156	1366.731
-36.984	29.528	1638.413	1365.969
-35.969	29.718	1636.657	1365.852
-34.954	29.778	1634.826	1364.715
-33.940	29.634	1633.391	1362.402
-32.925	29.752	1631.435	1361.587
-31.911	29.682	1630.360	1360.119
-30.896	29.729	1627.693	1358.184
-29.881	29.640	1626.865	1356.784
-28.867	29.803	1624.447	1355.911
-27.852	29.574	1623.421	1353.324
-26.838	29.624	1622.208	1352.625
-25.823	29.691	1620.644	1351.757
-24.809	29.681	1619.309	1350.513
-23.794	29.693	1617.936	1349.407
-22.779	29.725	1616.088	1348.041
-21.765	29.639	1614.963	1346.425
-20.750	29.648	1613.067	1344.852
-19.736	29.675	1612.066	1344.164
-18.721	29.827	1609.695	1343.235
-17.706	29.791	1608.691	1342.086
-16.692	29.705	1607.148	1340.121
-15.677	29.698	1606.286	1339.295
-14.663	29.766	1604.423	1338.186
-13.648	29.747	1602.483	1336.378
-12.633	29.704	1602.143	1335.726
-11.619	29.700	1600.065	1333.915
-10.604	29.721	1598.454	1332.672
-9.590	29.787	1597.598	1332.377
-8.575	29.819	1596.119	1331.319
-7.560	29.639	1595.272	1329.268
-6.546	29.680	1593.725	1328.219
-5.531	29.709	1593.130	1327.877
-4.517	29.675	1592.151	1326.766
-3.502	29.746	1590.403	1325.770
-2.487	29.750	1588.732	1324.351
-1.473	29.383	1577.186	1312.066
-0.458	26.872	1557.547	1278.012
0.556	21.821	1559.830	1248.916
1.571	19.745	1583.613	1252.818
2.586	19.404	1596.836	1260.675
3.600	17.798	1544.100	1207.576
4.615	9.894	1433.938	1069.166
5.629	1.910	1368.293	969.520
6.644	0.247	1360.004	953.045
7.659	0.136	1359.164	951.668
8.673	0.089	1358.394	950.749
9.688	0.028	1356.465	948.931
10.702	-0.171	1353.245	945.343
11.717	3.607	1359.334	973.365
12.731	12.351	1373.072	1038.615
13.746	17.496	1379.615	1076.072
14.761	17.306	1378.042	1073.554
15.775	16.194	1375.216	1064.245
16.790	15.300	1372.359	1056.309
17.804	14.451	1370.324	1049.310
18.819	14.062	1369.133	1045.857
19.834	13.822	1367.664	1043.134
20.848	13.575	1366.221	1040.391
21.863	13.346	1365.005	1037.933
22.877	13.156	1363.690	1035.649
23.892	13.135	1362.951	1034.869
24.907	13.070	1362.431	1033.972
25.921	13.159	1361.335	1033.609
26.936	13.187	1360.047	1032.713
27.950	13.252	1359.416	1032.548
28.965	13.269	1358.603	1031.948
29.980	13.437	1357.396	1031.986
30.994	13.478	1356.576	1031.524
32.009	13.433	1355.922	1030.661
33.023	13.431	1354.778	1029.684
34.038	13.393	1353.849	1028.652
35.053	13.355	1353.000	1027.680
36.067	13.353	1351.376	1026.344
37.082	13.382	1350.565	1025.815
38.096	13.377	1349.549	1024.922
39.111	13.408	1349.130	1024.707
40.126	13.248	1348.501	1023.143
41.140	13.191	1347.228	1021.737
42.155	13.141	1346.985	1021.150
43.169	13.107	1346.533	1020.508
44.184	13.168	1346.137	1020.498
45.199	13.124	1346.237	1020.211
46.213	13.235	1345.095	1019.940
47.228	13.332	1344.031	1019.642
48.242	13.271	1342.884	1018.304
49.257	13.254	1341.509	1017.065
50.271	13.346	1339.814	1016.260
51.286	13.373	1338.534	1015.360
52.301	13.318	1337.330	1014.020
53.315	13.221	1336.607	1012.788
54.330	13.197	1335.817	1011.953
55.344	13.137	1334.585	1010.561
56.359	13.291	1333.010	1010.225
57.374	13.193	1332.108	1008.854
58.388	13.097	1331.919	1008.031
59.403	13.168	1331.292	1007.904
60.417	13.121	1330.486	1006.915
61.432	13.086	1329.717	1006.034
62.447	13.035	1328.331	1004.585
63.461	13.040	1327.258	1003.715
64.476	12.984	1326.298	1002.559
65.490	13.136	1325.118	1002.504
66.505	13.146	1322.862	1000.767
67.520	13.218	1322.052	1000.501
68.534	13.185	1321.168	999.544
69.549	13.172	1320.234	998.670
70.563	13.139	1318.739	997.251
71.578	13.126	1317.839	996.404
72.593	13.067	1317.062	995.375
73.607	13.103	1316.297	994.923
74.622	13.053	1315.703	994.084
75.636	12.975	1314.816	992.861
76.651	13.047	1313.978	992.572
77.666	13.026	1313.364	991.896
78.680	13.054	1313.093	991.771
79.695	13.111	1311.439	990.774
80.709	13.088	1311.181	990.353
81.724	13.106	1310.542	989.890
82.739	13.200	1309.377	989.484
83.753	13.283	1308.314	989.090
84.768	13.353	1307.170	988.556
85.782	13.349	1306.251	987.753
86.797	13.323	1304.756	986.381
87.812	13.314	1303.103	984.991
88.826	13.175	1302.604	983.696
89.841	13.241	1301.526	983.185
90.855	13.391	1300.393	983.138
91.870	13.371	1299.777	982.466
92.884	13.348	1299.087	981.720
93.899	13.348	1298.197	980.963
94.914	13.388	1297.791	980.804
95.928	13.415	1296.308	979.757
96.943	13.427	1295.609	979.213
97.957	13.380	1294.817	978.247
98.972	13.359	1293.641	977.147
99.987	13.333	1292.678	976.182
101.001	13.367	1291.168	975.156
102.016	13.373	1290.458	974.569
103.030	13.360	1289.750	973.873
104.045	13.444	1288.745	973.520
105.060	13.369	1287.662	972.175
106.074	13.190	1286.794	970.385
107.089	13.198	1285.062	969.036
108.103	13.234	1283.319	967.849
109.118	13.183	1282.726	967.016
110.133	13.228	1281.031	965.915
111.147	13.175	1279.891	964.662
112.162	13.193	1278.544	963.667
113.176	13.135	1278.124	962.930
114.191	13.382	1276.268	962.882
115.206	13.292	1275.643	961.804
116.220	13.314	1274.114	960.691
117.235	13.336	1273.192	960.041
118.249	13.290	1272.670	959.293
119.264	13.295	1271.136	958.081
120.279	13.257	1270.124	957.017
121.293	13.276	1269.160	956.314
122.308	13.203	1268.146	955.040
123.322	13.310	1266.575	954.392
124.337	13.264	1265.764	953.429
125.352	13.296	1264.426	952.526
126.366	13.052	1264.155	950.830
127.381	13.106	1263.160	950.310
128.395	13.138	1261.831	949.406
129.410	13.123	1260.974	948.591
130.424	13.165	1260.162	948.142
131.439	13.244	1258.710	947.414
132.454	13.167	1258.154	946.471
133.468	13.241	1257.295	946.167
134.483	13.258	1256.503	945.585
135.497	13.239	1255.781	944.850
136.512	13.253	1253.922	943.445
137.527	13.273	1252.848	942.667
138.541	13.282	1251.177	941.381
139.556	13.374	1249.728	940.731
140.570	13.299	1249.406	939.978
141.585	13.342	1247.558	938.748
142.600	13.371	1246.572	938.087
143.614	13.376	1245.820	937.467
144.629	13.443	1244.958	937.113
145.643	13.474	1243.770	936.313
146.658	13.361	1242.357	934.529
147.673	13.449	1240.914	933.855
148.687	13.348	1239.814	932.377
149.702	13.350	1238.353	931.206
150.716	13.370	1237.375	930.500
151.731	13.333	1236.432	929.499
152.746	13.321	1235.619	928.739
153.760	13.525	1233.770	928.413
154.775	13.404	1232.682	926.833
155.789	13.489	1231.783	926.553
156.804	13.546	1230.928	926.145
157.819	13.571	1229.777	925.337
158.833	13.544	1228.944	924.479
159.848	13.638	1227.859	924.102
160.862	13.685	1226.813	923.494
161.877	13.506	1225.797	921.654
162.892	13.442	1225.093	920.688
163.906	13.417	1223.997	919.644
164.921	13.469	1222.971	919.082
165.935	13.417	1222.473	918.334
166.950	13.464	1221.868	918.057
167.964	13.525	1220.557	917.332
168.979	13.590	1219.938	917.145
169.994	13.546	1219.412	916.423
171.008	13.594	1218.542	915.953
172.023	13.634	1217.976	915.671
173.037	13.643	1216.958	914.874
174.052	13.666	1215.740	914.002
175.067	13.583	1215.215	913.073
176.081	13.638	1213.969	912.356
177.096	13.574	1213.289	911.410
178.110	13.657	1212.075	910.875
179.125	13.683	1210.807	909.986
180.140	13.619	1210.027	908.969
181.154	13.754	1207.897	908.029
182.169	13.655	1207.501	907.103
183.183	13.675	1206.346	906.266
184.198	13.727	1205.101	905.535
185.213	13.702	1203.771	904.321
186.227	13.701	1203.037	903.681
187.242	13.742	1202.175	903.182
188.256	13.893	1200.513	902.671
189.271	13.838	1199.717	901.696
190.286	13.745	1198.823	900.439
191.300	13.640	1198.061	899.216
192.315	13.673	1197.323	898.763
193.329	13.684	1196.933	898.447
194.344	13.714	1196.501	898.209
195.359	13.776	1195.563	897.758
196.373	13.817	1194.878	897.390
197.388	13.882	1194.436	897.327
198.402	13.932	1193.961	897.161
199.417	14.031	1193.135	896.993
200.432	13.970	1192.394	896.028
201.446	14.151	1191.058	895.923
202.461	14.056	1190.413	894.848
203.475	14.009	1189.607	893.907
204.490	14.035	1188.467	893.111
205.504	13.932	1187.202	891.531
206.519	14.027	1185.854	890.947
207.534	13.966	1184.732	889.699
208.548	14.096	1183.615	889.480
209.563	14.056	1182.769	888.549
210.577	14.170	1181.774	888.334
211.592	14.174	1181.609	888.148
212.607	14.138	1180.650	887.156
213.621	14.184	1179.677	886.593
214.636	14.234	1178.602	885.974
215.650	14.182	1178.094	885.239
216.665	14.270	1176.794	884.652
217.680	14.230	1175.971	883.743
218.694	14.321	1174.964	883.389
219.709	14.423	1174.316	883.366
220.723	14.287	1173.748	882.140
221.738	14.361	1172.652	881.626
222.753	14.323	1172.325	881.105
223.767	14.309	1171.852	880.595
224.782	14.311	1171.403	880.190
225.796	14.421	1170.642	880.123
226.811	14.477	1169.560	879.526
227.826	14.518	1169.017	879.255
228.840	14.398	1168.423	878.099
229.855	14.373	1167.631	877.294
230.869	14.386	1166.686	876.576
231.884	14.278	1165.954	875.381
232.899	14.317	1164.996	874.789
233.913	14.292	1164.309	874.062
234.928	14.199	1164.067	873.319
235.942	14.319	1162.857	872.959
236.957	14.386	1162.381	872.874
237.972	14.313	1161.325	871.623
238.986	14.490	1160.535	871.881
240.001	14.362	1160.405	871.035
241.015	14.408	1159.143	870.250
242.030	14.438	1158.318	869.713
243.045	14.479	1157.467	869.213
244.059	14.460	1156.919	868.623
245.074	14.530	1155.852	868.107
246.088	14.563	1155.190	867.707
247.103	14.574	1154.268	866.995
248.117	14.537	1153.646	866.259
249.132	14.754	1152.869	866.726
250.147	14.760	1152.321	866.265
251.161	14.741	1151.498	865.474
252.176	14.737	1151.518	865.388
253.190	14.835	1150.335	864.934
254.205	14.897	1149.861	864.821
255.220	14.844	1149.630	864.295
256.234	14.867	1148.918	863.805
257.249	14.870	1148.028	863.074
258.263	14.954	1146.808	862.515
259.278	15.040	1146.286	862.484
260.293	14.921	1146.223	861.751
261.307	15.015	1145.267	861.439
262.322	14.957	1144.727	860.657
263.336	14.917	1144.272	860.031
264.351	14.994	1143.515	859.786
265.366	15.188	1142.374	859.848
266.380	15.116	1141.785	858.959
267.395	15.039	1141.139	858.002
268.409	15.029	1140.564	857.441
269.424	15.009	1140.010	856.846
270.439	15.116	1139.090	856.625
271.453	15.135	1138.569	856.255
272.468	15.005	1137.657	854.832
273.482	15.072	1136.938	854.557
274.497	15.168	1136.234	854.439
275.512	15.165	1135.774	854.003
276.526	15.091	1135.250	853.158
277.541	15.129	1134.193	852.483
278.555	15.149	1133.613	852.070
279.570	15.241	1132.901	851.930
280.585	15.281	1131.981	851.364
281.599	15.281	1131.102	850.630
282.614	15.296	1130.128	849.897
283.628	15.164	1128.954	848.269
284.643	15.233	1128.199	847.979
285.657	15.259	1127.344	847.394
286.672	15.279	1126.444	846.742
287.687	15.191	1125.691	845.657
288.701	15.325	1125.183	845.873
289.716	15.263	1124.356	844.867
290.730	15.227	1123.970	844.319
291.745	15.411	1122.883	844.356
292.760	15.399	1122.423	843.874
293.774	15.461	1121.412	843.350
294.789	15.524	1121.320	843.524
295.803	15.507	1120.534	842.772
296.818	15.385	1120.245	841.866
297.833	15.415	1118.973	840.987
298.847	15.460	1118.379	840.694
299.862	15.450	1117.596	839.979
300.876	15.362	1116.997	839.016
301.891	15.603	1116.040	839.424
302.906	15.539	1115.176	838.381
303.920	15.556	1114.945	838.220
304.935	15.643	1113.996	837.866
305.949	15.720	1113.249	837.612
306.964	15.604	1112.677	836.532
307.979	15.716	1111.791	836.350
308.993	15.746	1110.697	835.600
310.008	15.732	1110.577	835.364
311.022	15.832	1109.761	835.174
312.037	15.668	1109.307	833.944
313.052	15.624	1107.827	832.540
314.066	15.770	1106.720	832.359
315.081	15.654	1106.304	831.396
316.095	15.628	1105.787	830.806
317.110	15.545	1104.737	829.536
318.125	15.693	1104.305	829.868
319.139	15.609	1103.326	828.642
320.154	15.760	1102.439	828.648
321.168	15.701	1102.486	828.319
322.183	15.764	1101.775	828.022
323.197	15.680	1101.096	827.026
324.212	15.761	1100.284	826.739
325.227	15.774	1099.856	826.409
326.241	15.769	1098.999	825.669
327.256	15.773	1098.403	825.166
328.270	15.748	1097.188	824.060
329.285	15.811	1096.623	823.867
330.300	15.823	1095.558	823.057
331.314	15.853	1094.584	822.398
332.329	15.862	1093.973	821.911
333.343	15.876	1093.060	821.219
334.358	15.889	1092.135	820.513
335.373	15.978	1091.663	820.522
336.387	15.950	1090.655	819.553
337.402	15.830	1090.507	818.786
338.416	15.991	1089.757	818.933
339.431	16.049	1088.798	818.421
340.446	15.982	1088.122	817.515
341.460	16.162	1087.154	817.590
342.475	16.252	1086.598	817.534
343.489	16.212	1085.514	816.457
344.504	16.313	1084.703	816.259
345.519	16.339	1083.856	815.678
346.533	16.196	1083.220	814.438
347.548	16.308	1082.516	814.375
348.562	16.348	1081.540	813.762
349.577	16.304	1081.046	813.106
350.592	16.077	1080.182	811.293
351.606	16.220	1079.387	811.309
352.621	16.149	1078.753	810.422
353.635	16.141	1078.400	810.043
354.650	16.231	1077.250	809.543
355.665	16.132	1076.693	808.574
356.679	16.266	1076.169	808.754
357.694	16.296	1075.508	808.330
358.708	16.281	1074.749	807.615
359.723	16.355	1074.256	807.528
360.738	16.275	1073.619	806.594
361.752	16.293	1073.347	806.406
362.767	16.377	1072.332	805.971
363.781	16.344	1071.929	805.438
364.796	16.514	1071.317	805.720
365.810	16.389	1070.614	804.524
366.825	16.516	1070.149	804.710
367.840	16.433	1069.972	804.107
368.854	16.562	1068.775	803.750
369.869	16.611	1067.929	803.274
370.883	16.655	1067.452	803.054
371.898	16.507	1066.849	801.830
372.913	16.580	1066.226	801.637
373.927	16.579	1065.760	801.207
374.942	16.726	1065.094	801.332
375.956	16.738	1064.551	800.911
376.971	16.704	1063.927	800.210
377.986	16.691	1063.516	799.770
379.000	16.833	1063.000	799.977
380.015	16.803	1062.095	799.085
381.029	16.720	1061.496	798.172
382.044	16.830	1061.048	798.283
383.059	16.715	1060.487	797.252
384.073	16.898	1059.449	797.258
385.088	16.911	1058.432	796.487
386.102	16.959	1057.185	795.702
387.117	16.822	1056.760	794.667
388.132	16.836	1055.985	794.080
389.146	16.807	1055.051	793.174
390.161	16.752	1054.590	792.498
391.175	16.803	1053.837	792.102
392.190	16.954	1053.091	792.175
393.205	16.885	1052.505	791.345
394.219	16.956	1051.441	790.803
395.234	16.904	1050.477	789.765
396.248	16.854	1049.870	789.008
397.263	16.945	1048.466	788.304
398.278	16.835	1048.056	787.416
399.292	16.865	1047.162	786.814
400.307	16.804	1046.714	786.128
401.321	16.923	1045.943	786.028
402.336	16.930	1045.451	785.620
403.350	16.838	1044.907	784.719
404.365	17.000	1044.001	784.714
405.380	16.943	1043.242	783.814
406.394	17.124	1042.329	783.896
407.409	17.055	1041.783	783.096
408.423	17.061	1041.454	782.808
409.438	17.136	1040.799	782.593
410.453	17.250	1039.591	782.137
411.467	17.336	1038.774	781.848
412.482	17.184	1038.315	780.738
413.496	17.319	1037.409	780.604
414.511	17.271	1037.243	780.190
415.526	17.333	1036.796	780.069
416.540	17.329	1036.325	779.627
417.555	17.330	1036.064	779.370
418.569	17.195	1035.713	778.418
419.584	17.356	1034.727	778.344
420.599	17.436	1034.257	778.287
421.613	103.472	1321.977	1469.314
422.628	94.800	1363.876	1469.403
