DTS Sentinel unit serial number:	SN413079Multiplexer serial number:	ORYXHardware model number:	OX4-SRSoftware version number:	ORYX F/W v4.00 Oryx Data Collector v3.7.2.0data status	okinstallation	princeton_trtdifferential loss correction	single-endedforward channel	channel 2reverse channel	N/Adate	2019/09/14time	12:31:35forward acquisition time	60.00reverse acquisition time	0.00gamma	496.2192k internal	0.2306k external	0.2306temperature offset calibration	1.0150default loss term (dB/km)	0.3790temperature slope calibration	1.0000multiplexer offset coefficient	1.0000multiplexer slope coefficient	1.0000fibre end	0.00T internal ref (°C)	37.94T ext. ref 1 (°C)	4.76T ext. ref 2 (°C)	34.61length (m)	temperature (°C)	Stokes	anti-Stokes-747.200	-98.346	-0.225	0.059
-746.185	-200.000	0.042	0.314
-745.171	-62.305	0.061	0.026
-744.156	-200.000	0.037	0.262
-743.142	-23.047	0.151	0.093
-742.127	-200.000	0.005	0.284
-741.112	65.339	0.189	-0.194
-740.098	-200.000	0.090	0.569
-739.083	-200.000	0.059	0.271
-738.069	-33.773	0.055	-0.031
-737.054	150.629	0.028	0.038
-736.039	800.000	-0.094	-0.374
-735.025	-167.792	0.227	-0.009
-734.010	-50.815	-0.376	-0.180
-732.996	800.000	-0.082	-0.248
-731.981	-138.489	-0.580	-0.065
-730.966	-52.451	-0.235	-0.111
-729.952	-49.595	-0.068	0.033
-728.937	-79.239	-0.248	0.085
-727.923	800.000	0.093	0.279
-726.908	-104.595	-0.212	-0.050
-725.894	-53.879	-0.158	0.073
-724.879	-179.381	-0.387	-0.009
-723.864	57.147	0.086	-0.085
-722.850	-200.000	0.029	0.228
-721.835	-200.000	-0.019	0.249
-720.821	-73.315	0.207	-0.077
-719.806	433.703	-0.122	-0.268
-718.791	565.858	0.046	-0.113
-717.777	133.838	0.260	0.342
-716.762	-64.782	-0.396	0.163
-715.748	253.220	0.213	0.369
-714.733	-41.027	0.019	-0.010
-713.718	460.690	-0.105	-0.237
-712.704	730.872	-0.126	-0.342
-711.689	-90.308	-0.244	-0.072
-710.675	-83.745	-0.118	0.038
-709.660	-96.080	-0.386	-0.104
-708.645	-25.399	0.083	0.050
-707.631	249.725	-0.099	-0.171
-706.616	-142.453	0.188	-0.019
-705.602	-96.778	-0.337	0.090
-704.587	-200.000	0.010	-0.267
-703.572	627.232	-0.130	0.332
-702.558	-28.122	0.263	-0.155
-701.543	-96.913	0.106	-0.028
-700.529	246.128	-0.154	0.263
-699.514	800.000	0.022	-0.073
-698.499	207.478	0.180	0.285
-697.485	21.929	-0.242	0.201
-696.470	-200.000	-0.027	0.155
-695.456	209.973	-0.118	0.188
-694.441	44.792	-0.166	-0.155
-693.426	763.024	0.111	0.307
-692.412	110.605	0.242	-0.296
-691.397	-95.308	0.224	-0.061
-690.383	-137.671	-0.210	0.024
-689.368	140.241	-0.202	0.270
-688.354	-47.800	-0.293	-0.144
-687.339	-200.000	0.018	-0.123
-686.324	-200.000	-0.006	0.065
-685.310	87.131	0.052	0.058
-684.295	-81.877	-0.156	-0.052
-683.281	384.720	0.069	-0.144
-682.266	-9.030	-0.207	-0.140
-681.251	18.195	0.171	-0.138
-680.237	800.000	0.036	-0.111
-679.222	-114.206	-0.105	-0.021
-678.208	507.822	-0.055	0.131
-677.193	-168.959	-0.432	-0.016
-676.178	122.185	0.127	0.162
-675.164	137.485	-0.052	0.068
-674.149	-200.000	-0.008	0.198
-673.135	-17.835	-0.123	-0.078
-672.120	-59.290	-0.275	0.120
-671.105	14.140	-0.042	-0.033
-670.091	-21.699	-0.084	-0.052
-669.076	800.000	-0.027	0.092
-668.062	-200.000	-0.018	-0.200
-667.047	384.957	-0.040	-0.084
-666.032	231.863	0.082	-0.137
-665.018	76.084	-0.138	0.148
-664.003	-130.601	0.274	-0.037
-662.989	-100.175	-0.098	0.025
-661.974	-200.000	-0.053	-0.245
-660.959	264.917	-0.155	-0.274
-659.945	235.662	-0.132	-0.221
-658.930	-72.614	-0.261	-0.098
-657.916	28.976	-0.030	0.026
-656.901	15.949	-0.245	-0.196
-655.886	-132.145	0.229	-0.030
-654.872	-200.000	-0.015	0.110
-653.857	304.666	-0.133	0.251
-652.843	27.853	-0.136	-0.116
-651.828	6.244	0.309	0.233
-650.814	-81.084	0.039	0.013
-649.799	337.151	0.102	-0.202
-648.784	172.041	-0.103	0.149
-647.770	-200.000	0.009	-0.354
-646.755	423.033	0.230	-0.500
-645.741	-200.000	0.006	-0.033
-644.726	-159.373	-0.558	0.032
-643.711	421.369	0.090	0.195
-642.697	-200.000	-0.012	0.334
-641.682	11.707	0.102	-0.079
-640.668	58.736	0.265	0.264
-639.653	-6.366	-0.344	0.237
-638.638	132.522	-0.277	-0.362
-637.624	3.155	-0.265	-0.195
-636.609	-101.248	-0.195	0.048
-635.595	-36.906	0.066	-0.036
-634.580	-58.530	-0.088	0.039
-633.565	800.000	0.109	0.332
-632.551	-73.329	0.222	-0.082
-631.536	-28.936	-0.072	-0.042
-630.522	-200.000	-0.008	-0.078
-629.507	800.000	-0.047	-0.137
-628.492	-19.121	0.350	-0.220
-627.478	-12.347	0.103	-0.068
-626.463	270.232	-0.160	-0.285
-625.449	-78.646	-0.121	0.042
-624.434	141.619	0.050	0.068
-623.419	-113.723	0.368	0.073
-622.405	-200.000	0.028	-0.243
-621.390	397.380	0.060	0.126
-620.376	800.000	-0.032	0.111
-619.361	-23.531	-0.225	-0.137
-618.346	-200.000	-0.006	-0.285
-617.332	-200.000	0.030	-0.208
-616.317	-71.994	0.280	-0.105
-615.303	-28.335	0.282	0.165
-614.288	51.345	-0.194	-0.186
-613.273	-200.000	-0.039	0.208
-612.259	115.325	-0.059	-0.073
-611.244	-130.630	-0.053	0.007
-610.230	16.153	0.141	0.112
-609.215	67.979	0.125	0.129
-608.201	123.327	0.026	-0.033
-607.186	-200.000	0.017	0.276
-606.171	216.407	-0.208	0.334
-605.157	-58.338	0.267	0.118
-604.142	169.592	-0.135	-0.195
-603.128	-93.099	-0.547	0.154
-602.113	-200.000	0.046	-0.394
-601.098	-94.879	-0.053	0.015
-600.084	-200.000	0.021	-0.243
-599.069	-128.972	0.193	-0.027
-598.055	-113.155	0.365	0.073
-597.040	258.092	-0.095	-0.165
-596.025	800.000	-0.064	-0.244
-595.011	-200.000	-0.019	-0.212
-593.996	94.303	0.191	0.219
-592.982	-114.998	0.136	0.026
-591.967	237.207	0.028	-0.047
-590.952	799.930	-0.029	0.080
-589.938	-140.568	0.311	0.033
-588.923	-112.862	-0.203	0.041
-587.909	97.632	-0.051	-0.060
-586.894	-75.527	0.161	-0.058
-585.879	75.630	-0.174	0.186
-584.865	68.357	-0.178	0.184
-583.850	641.714	-0.011	0.029
-582.836	-56.241	0.204	-0.092
-581.821	-142.781	0.144	0.014
-580.806	-72.935	-0.293	-0.109
-579.792	75.022	-0.185	-0.197
-578.777	-6.580	0.075	-0.052
-577.763	800.000	0.016	0.051
-576.748	3.203	-0.193	-0.142
-575.733	-77.991	-0.137	0.048
-574.719	78.278	-0.171	0.185
-573.704	-126.695	-0.238	0.036
-572.690	567.737	0.129	-0.317
-571.675	185.826	0.183	-0.275
-570.661	-134.409	-0.173	-0.021
-569.646	377.100	-0.031	0.064
-568.631	-200.000	-0.024	-0.176
-567.617	53.030	0.175	-0.169
-566.602	-47.227	-0.147	0.072
-565.588	-164.932	-0.258	-0.012
-564.573	-189.712	0.236	0.003
-563.558	-200.000	0.005	0.220
-562.544	-61.537	-0.150	0.064
-561.529	-65.225	0.180	-0.073
-560.515	491.851	-0.095	-0.220
-559.500	-200.000	0.013	0.155
-558.485	23.717	-0.192	-0.160
-557.471	-39.656	-0.332	0.175
-556.456	-149.309	-0.069	0.006
-555.442	-200.000	-0.008	0.175
-554.427	800.000	0.062	0.221
-553.412	58.145	-0.082	-0.081
-552.398	-123.175	-0.227	-0.037
-551.383	290.413	0.044	0.081
-550.369	29.054	-0.071	0.061
-549.354	135.570	0.294	-0.386
-548.339	800.000	0.009	0.032
-547.325	183.288	0.016	0.024
-546.310	-38.952	0.137	0.073
-545.296	414.079	-0.150	-0.323
-544.281	-70.888	0.097	0.037
-543.266	800.000	-0.087	-0.327
-542.252	-50.393	0.129	-0.062
-541.237	204.262	-0.143	-0.224
-540.223	227.663	0.287	-0.471
-539.208	-116.864	0.280	0.052
-538.193	-100.592	-0.319	-0.079
-537.179	-1.262	0.173	-0.124
-536.164	610.111	-0.094	0.237
-535.150	-72.880	-0.291	-0.108
-534.135	62.833	-0.285	-0.288
-533.121	-148.248	0.181	-0.015
-532.106	-200.000	-0.016	-0.082
-531.091	-72.634	0.076	0.028
-530.077	56.644	-0.128	-0.125
-529.062	-43.804	0.241	-0.122
-528.048	-23.457	0.135	-0.082
-527.033	473.277	-0.037	0.083
-526.018	800.000	-0.060	0.235
-525.004	50.112	-0.248	0.237
-523.989	-200.000	0.004	-0.139
-522.975	-200.000	0.007	-0.180
-521.960	-200.000	-0.013	-0.180
-520.945	-146.137	0.159	0.014
-519.931	-200.000	0.011	0.233
-518.916	172.724	0.255	-0.370
-517.902	-200.000	-0.004	0.099
-516.887	177.420	0.208	0.306
-515.872	-55.198	-0.233	0.106
-514.858	138.668	-0.100	0.133
-513.843	-67.277	-0.325	-0.129
-512.829	311.951	0.108	0.204
-511.814	-101.347	-0.313	0.077
-510.799	-200.000	-0.010	-0.089
-509.785	-200.000	-0.056	-0.425
-508.770	800.000	0.018	-0.068
-507.756	93.409	-0.107	0.122
-506.741	-76.858	-0.138	0.049
-505.726	-200.000	0.070	-0.556
-504.712	-176.773	-0.189	-0.005
-503.697	248.843	0.118	0.201
-502.683	47.689	-0.144	-0.135
-501.668	-41.410	-0.160	0.083
-500.653	44.121	0.106	0.098
-499.639	-200.000	0.007	-0.144
-498.624	-200.000	0.080	0.000
-497.610	-200.000	0.019	0.122
-496.595	-200.000	-0.032	0.222
-495.581	800.000	-0.067	0.198
-494.566	-200.000	-0.021	-0.208
-493.551	26.696	0.293	-0.247
-492.537	800.000	0.038	0.121
-491.522	10.837	-0.300	0.231
-490.508	307.675	-0.078	-0.147
-489.493	213.356	0.095	-0.152
-488.478	-67.591	0.013	0.005
-487.464	800.000	0.063	0.256
-486.449	-55.526	0.089	0.040
-485.435	-51.665	-0.212	-0.100
-484.420	-118.424	0.201	-0.036
-483.405	-48.208	0.073	0.036
-482.391	800.000	-0.099	-0.372
-481.376	800.000	-0.062	0.180
-480.362	-56.880	0.121	-0.054
-479.347	800.000	0.022	0.087
-478.332	-88.100	-0.469	0.142
-477.318	10.895	0.186	-0.143
-476.303	127.389	0.167	0.213
-475.289	-200.000	-0.023	0.348
-474.274	-99.329	-0.510	-0.130
-473.259	-28.788	-0.145	0.084
-472.245	-200.000	-0.011	0.182
-471.230	697.986	-0.051	0.135
-470.216	-113.708	-0.163	0.032
-469.201	-80.184	-0.096	0.032
-468.186	55.710	-0.102	0.100
-467.172	162.948	-0.164	0.232
-466.157	-48.361	-0.141	0.069
-465.143	-64.808	-0.094	-0.038
-464.128	-200.000	0.046	0.290
-463.113	49.666	-0.048	0.045
-462.099	-200.000	0.013	-0.309
-461.084	1.355	0.108	-0.078
-460.070	67.841	0.041	0.042
-459.055	279.179	-0.042	0.075
-458.040	108.212	0.101	0.121
-457.026	-200.000	-0.088	-0.000
-456.011	68.306	-0.106	0.109
-454.997	-74.031	-0.158	-0.058
-453.982	-51.529	-0.227	0.106
-452.968	800.000	-0.049	-0.171
-451.953	70.204	-0.065	0.067
-450.938	-32.446	-0.247	-0.139
-449.924	-200.000	0.055	-0.348
-448.909	28.882	0.116	-0.099
-447.895	-135.081	-0.131	0.016
-446.880	104.261	-0.059	-0.070
-445.865	10.752	0.008	0.006
-444.851	626.186	0.052	-0.132
-443.836	707.420	0.168	-0.446
-442.822	16.795	0.049	-0.039
-441.807	693.782	0.226	0.596
-440.792	320.486	0.038	-0.072
-439.778	52.144	-0.075	0.072
-438.763	-200.000	0.012	0.235
-437.749	557.892	0.061	0.147
-436.734	-76.256	-0.163	0.058
-435.719	-157.013	-0.124	0.008
-434.705	-129.161	-0.228	0.032
-433.690	-95.170	0.224	0.061
-432.676	68.825	0.236	-0.244
-431.661	-14.562	0.044	-0.028
-430.646	24.662	-0.210	-0.175
-429.632	-200.000	0.026	-0.314
-428.617	-71.119	0.137	0.052
-427.603	800.000	-0.054	0.203
-426.588	237.041	-0.092	0.154
-425.573	-143.524	-0.235	-0.022
-424.559	800.000	0.064	-0.255
-423.544	-18.498	0.140	-0.088
-422.530	-200.000	0.040	0.316
-421.515	-56.203	0.152	0.068
-420.500	512.402	-0.019	0.044
-419.486	25.455	-0.168	0.140
-418.471	30.516	-0.388	-0.333
-417.457	739.032	-0.047	0.126
-416.442	-154.085	-0.073	-0.005
-415.428	338.538	0.170	-0.333
-414.413	203.863	0.101	-0.157
-413.398	800.000	0.192	-0.613
-412.384	-46.448	-0.139	-0.069
-411.369	222.697	-0.099	0.160
-410.355	-87.915	0.120	-0.036
-409.340	229.413	0.028	0.046
-408.325	13.885	-0.133	0.104
-407.311	31.251	0.111	0.095
-406.296	209.814	-0.051	0.080
-405.282	81.467	-0.042	-0.045
-404.267	74.959	-0.295	0.312
-403.252	619.972	-0.139	0.352
-402.238	-188.520	-0.018	-0.000
-401.223	-118.354	0.202	0.036
-400.209	-200.000	-0.072	-0.409
-399.194	-30.769	-0.247	0.140
-398.179	-11.666	0.119	-0.079
-397.165	-88.061	-0.096	-0.029
-396.150	-180.282	0.096	-0.002
-395.136	-161.428	0.440	-0.023
-394.121	328.805	-0.132	-0.255
-393.106	-200.000	0.023	-0.123
-392.092	-51.046	0.066	0.031
-391.077	115.913	-0.047	-0.058
-390.063	-95.734	-0.029	-0.008
-389.048	-200.000	-0.007	0.184
-388.033	114.636	0.058	0.071
-387.019	255.003	0.072	0.123
-386.004	691.268	0.111	0.292
-384.990	-75.268	-0.297	-0.106
-383.975	-125.015	0.164	-0.025
-382.960	179.036	0.118	0.173
-381.946	-78.911	0.292	0.100
-380.931	567.667	0.097	0.236
-379.917	800.000	0.025	0.073
-378.902	800.000	-0.032	-0.135
-377.888	619.362	-0.039	0.099
-376.873	-53.352	0.097	0.045
-375.858	-59.227	-0.219	-0.095
-374.844	800.000	-0.073	-0.319
-373.829	139.034	0.139	0.184
-372.815	-66.968	0.095	0.038
-371.800	-68.290	0.127	-0.049
-370.785	145.968	-0.067	0.090
-369.771	-25.543	0.156	-0.092
-368.756	-200.000	0.041	0.292
-367.742	19.873	-0.103	-0.083
-366.727	110.170	-0.192	-0.231
-365.712	800.000	-0.061	0.183
-364.698	-200.000	0.028	0.169
-363.683	213.158	0.043	0.069
-362.669	-200.000	0.048	-0.275
-361.654	221.649	-0.149	-0.241
-360.639	167.201	-0.201	0.286
-359.625	-200.000	0.055	-0.391
-358.610	-96.508	0.168	0.044
-357.596	-61.360	0.201	-0.085
-356.581	4.096	0.086	-0.063
-355.566	53.558	-0.049	-0.047
-354.552	293.491	-0.049	0.090
-353.537	-28.845	-0.214	0.123
-352.523	135.847	0.234	-0.305
-351.508	-76.577	0.244	0.086
-350.493	800.000	-0.119	-0.334
-349.479	-200.000	-0.001	0.248
-348.464	100.743	-0.293	0.341
-347.450	27.610	-0.049	-0.041
-346.435	102.396	0.246	0.287
-345.420	20.416	-0.184	0.149
-344.406	-187.411	0.227	-0.003
-343.391	800.000	0.085	0.257
-342.377	-69.325	0.338	-0.130
-341.362	-70.399	0.238	0.090
-340.348	-173.153	-0.322	-0.010
-339.333	8.478	-0.121	0.091
-338.318	333.692	0.070	0.135
-337.304	40.824	-0.047	-0.042
-336.289	3.519	0.015	0.011
-335.275	800.000	-0.105	0.310
-334.260	-145.856	0.127	0.011
-333.245	-200.000	-0.021	-0.297
-332.231	-28.622	-0.103	-0.059
-331.216	460.341	0.103	0.230
-330.202	451.439	-0.107	-0.237
-329.187	-2.315	0.112	-0.079
-328.172	-116.408	-0.226	-0.042
-327.158	-59.172	-0.160	0.069
-326.143	-200.000	0.009	0.204
-325.129	684.105	-0.026	0.069
-324.114	51.824	0.221	-0.210
-323.099	800.000	0.015	-0.051
-322.085	-57.563	-0.274	-0.120
-321.070	-32.525	-0.136	-0.076
-320.056	49.558	-0.181	-0.171
-319.041	369.395	0.164	-0.333
-318.026	-105.972	-0.046	-0.010
-317.012	30.581	0.314	0.268
-315.997	0.861	0.087	0.062
-314.983	138.848	-0.090	-0.118
-313.968	-200.000	0.014	0.148
-312.953	-70.940	-0.116	0.044
-311.939	16.968	0.110	0.087
-310.924	-86.233	-0.241	-0.074
-309.910	-27.820	0.331	-0.192
-308.895	-4.300	0.150	-0.104
-307.880	-200.000	-0.048	-0.257
-306.866	26.013	0.196	-0.164
-305.851	491.948	-0.037	0.086
-304.837	-118.043	0.502	-0.090
-303.822	-78.534	0.209	0.072
-302.807	0.360	-0.090	-0.064
-301.793	158.586	-0.070	-0.098
-300.778	-82.339	0.134	-0.044
-299.764	28.266	-0.157	0.133
-298.749	52.905	0.201	0.192
-297.735	94.975	-0.181	0.205
-296.720	-178.609	0.151	0.003
-295.705	238.603	0.059	-0.098
-294.691	800.000	-0.035	0.107
-293.676	-200.000	0.022	0.230
-292.662	614.966	0.109	0.274
-291.647	417.229	0.068	0.144
-290.632	-128.390	0.113	-0.016
-289.618	-114.073	0.377	0.073
-288.603	-200.000	0.002	0.245
-287.589	9.626	-0.246	0.186
-286.574	142.827	-0.035	0.046
-285.559	-200.000	-0.043	0.466
-284.545	116.525	-0.076	0.093
-283.530	91.719	-0.158	0.178
-282.516	-82.222	-0.174	-0.057
-281.501	-136.306	0.060	0.007
-280.486	20.113	0.025	0.021
-279.472	17.077	-0.077	0.061
-278.457	184.528	0.079	-0.117
-277.443	227.625	-0.046	0.076
-276.428	40.463	-0.215	-0.193
-275.413	-93.412	0.291	0.080
-274.399	510.158	0.022	-0.050
-273.384	262.593	0.082	0.142
-272.370	673.154	-0.058	0.150
-271.355	503.531	0.124	-0.287
-270.340	145.386	-0.208	-0.278
-269.326	-184.895	-0.034	-0.001
-268.311	70.281	0.243	0.250
-267.297	-37.340	-0.357	0.191
-266.282	315.641	-0.148	0.278
-265.267	-200.000	-0.004	0.038
-264.253	56.532	0.125	0.121
-263.238	672.401	-0.086	-0.224
-262.224	174.302	-0.170	-0.246
-261.209	628.204	0.105	-0.265
-260.195	-170.290	0.268	0.009
-259.180	-200.000	0.035	0.295
-258.165	800.000	0.006	-0.026
-257.151	-52.588	0.150	0.069
-256.136	-80.332	-0.261	0.087
-255.122	-124.502	0.193	0.030
-254.107	48.046	0.118	-0.110
-253.092	-99.717	-0.284	-0.071
-252.078	-35.865	0.180	-0.097
-251.063	81.546	-0.091	0.099
-250.049	-77.654	-0.099	0.034
-249.034	691.012	-0.107	0.280
-248.019	-125.962	0.189	-0.028
-247.005	375.574	0.114	-0.232
-245.990	701.833	0.062	-0.162
-244.976	-200.000	-0.038	0.186
-243.961	-68.370	0.198	-0.077
-242.946	4.537	-0.043	-0.032
-241.932	458.199	0.037	0.081
-240.917	-181.303	-0.276	-0.005
-239.903	-0.322	0.324	-0.229
-238.888	-200.000	0.026	-0.205
-237.873	-120.230	-0.275	0.047
-236.859	153.543	-0.235	-0.321
-235.844	-43.492	0.147	0.074
-234.830	54.386	-0.207	0.199
-233.815	-68.248	0.204	0.079
-232.800	-28.412	-0.115	0.066
-231.786	-62.189	0.268	0.112
-230.771	-200.000	-0.001	-0.165
-229.757	121.890	0.028	-0.035
-228.742	12.156	-0.357	-0.274
-227.727	192.275	-0.074	0.111
-226.713	-51.327	0.009	-0.004
-225.698	4.707	0.340	-0.249
-224.684	-200.000	0.014	0.193
-223.669	-2.873	-0.313	0.218
-222.655	-192.725	0.335	-0.003
-221.640	-67.587	-0.168	-0.066
-220.625	19.686	0.239	0.192
-219.611	-70.163	0.139	-0.053
-218.596	-200.000	-0.009	0.090
-217.582	-200.000	-0.012	-0.214
-216.567	549.972	-0.116	-0.276
-215.552	316.071	0.166	-0.312
-214.538	33.907	0.189	0.164
-213.523	287.478	-0.165	-0.298
-212.509	-43.504	0.341	0.172
-211.494	615.818	0.037	0.092
-210.479	-139.914	-0.229	0.024
-209.465	-78.012	0.197	0.068
-208.450	229.184	0.079	-0.128
-207.436	-5.877	-0.332	0.227
-206.421	0.695	-0.116	0.083
-205.406	-5.992	0.176	0.120
-204.392	-110.445	-0.302	-0.063
-203.377	-200.000	0.044	-0.244
-202.363	147.912	0.214	0.288
-201.348	404.554	-0.080	0.167
-200.333	146.090	0.069	-0.092
-199.319	-200.000	-0.004	0.177
-198.304	-200.000	0.007	0.059
-197.290	592.228	0.087	0.214
-196.275	-200.000	-0.026	-0.118
-195.260	-200.000	0.027	0.203
-194.246	133.844	0.198	-0.255
-193.231	800.000	-0.013	-0.048
-192.217	334.750	0.042	-0.082
-191.202	800.000	-0.022	-0.071
-190.187	-10.292	0.128	-0.085
-189.173	-108.322	0.122	0.026
-188.158	-3.956	-0.271	0.187
-187.144	-200.000	0.001	0.164
-186.129	-73.715	0.249	0.090
-185.114	-200.000	-0.035	0.268
-184.100	-200.000	0.053	0.267
-183.085	-147.275	0.158	0.013
-182.071	800.000	0.014	-0.054
-181.056	-123.250	0.056	0.009
-180.042	99.172	-0.212	0.244
-179.027	-200.000	-0.015	0.276
-178.012	-7.729	0.018	0.012
-176.998	-5.522	0.315	-0.215
-175.983	-6.395	0.187	-0.127
-174.969	-165.720	0.246	0.011
-173.954	-133.498	-0.246	0.031
-172.939	149.402	-0.024	-0.032
-171.925	-196.814	0.060	-0.000
-170.910	-113.794	0.208	0.040
-169.896	0.017	0.135	0.096
-168.881	-200.000	0.055	0.240
-167.866	800.000	0.065	0.229
-166.852	80.108	0.108	0.115
-165.837	-200.000	0.003	0.368
-164.823	-26.891	-0.333	-0.194
-163.808	26.969	0.165	0.138
-162.793	371.037	0.096	0.193
-161.779	136.282	0.069	0.089
-160.764	-112.931	0.132	-0.026
-159.750	386.214	0.106	-0.217
-158.735	-118.022	0.223	-0.040
-157.720	-108.285	-0.293	-0.063
-156.706	-137.536	-0.147	0.017
-155.691	-20.940	0.061	-0.037
-154.677	800.000	0.073	-0.289
-153.662	162.273	0.095	-0.132
-152.647	-32.247	0.093	-0.052
-151.633	102.793	-0.172	-0.201
-150.618	228.213	0.078	0.126
-149.604	187.894	-0.084	0.125
-148.589	36.170	0.285	0.250
-147.574	167.979	0.234	0.331
-146.560	397.303	-0.031	0.064
-145.545	-16.028	-0.049	-0.031
-144.531	17.053	0.242	-0.191
-143.516	394.107	-0.126	0.261
-142.502	14.662	-0.194	-0.151
-141.487	50.862	-0.142	0.134
-140.472	-200.000	0.004	0.160
-139.458	246.965	-0.320	0.537
-138.443	40.508	-0.114	0.102
-137.429	-200.000	0.002	0.175
-136.414	352.120	-0.023	-0.046
-135.399	-200.000	-0.046	0.253
-134.385	-43.766	-0.201	-0.101
-133.370	-69.076	-0.207	-0.079
-132.356	184.963	-0.104	-0.154
-131.341	-200.000	0.013	-0.064
-130.326	535.261	-0.096	-0.225
-129.312	-105.834	-0.014	-0.003
-128.297	-42.401	-0.144	-0.073
-127.283	98.600	-0.076	0.088
-126.268	-200.000	-0.020	0.301
-125.253	53.161	0.191	0.182
-124.239	279.563	0.243	0.431
-123.224	-200.000	0.023	-0.131
-122.210	-106.881	-0.026	-0.006
-121.195	-197.990	-0.292	-0.002
-120.180	61.152	0.066	-0.065
-119.166	426.885	-0.114	0.244
-118.151	119.344	-0.175	-0.215
-117.137	-200.000	0.033	-0.408
-116.122	34.453	0.166	-0.144
-115.107	385.636	0.176	-0.359
-114.093	-44.389	0.237	-0.118
-113.078	-85.066	0.010	0.003
-112.064	-79.727	0.434	-0.145
-111.049	303.027	-0.079	-0.145
-110.034	-94.428	-0.019	0.005
-109.020	-200.000	0.043	-0.367
-108.005	530.710	0.117	-0.274
-106.991	65.806	0.125	0.126
-105.976	800.000	0.028	0.113
-104.962	-42.412	0.057	-0.029
-103.947	266.291	-0.080	-0.139
-102.932	-200.000	-0.031	0.178
-101.918	-62.742	-0.380	-0.156
-100.903	-200.000	-0.018	0.188
-99.889	12.923	0.273	0.209
-98.874	416.971	0.119	-0.252
-97.859	-165.189	-0.164	-0.007
-96.845	-94.842	0.325	-0.087
-95.830	146.960	0.122	0.162
-94.816	-6.904	-0.292	0.197
-93.801	-200.000	0.018	-0.229
-92.786	-28.912	-0.029	0.017
-91.772	-99.705	-0.081	-0.020
-90.757	-23.940	0.210	0.125
-89.743	26.078	-0.144	-0.119
-88.728	-36.339	0.149	0.080
-87.713	-67.316	0.353	0.138
-86.699	-117.711	-0.196	-0.035
-85.684	-62.322	-0.142	-0.059
-84.670	88.832	-0.114	0.125
-83.655	5.781	-0.070	-0.051
-82.640	-200.000	-0.088	-0.454
-81.626	800.000	0.106	-0.308
-80.611	-200.000	0.014	-0.248
-79.597	-200.000	0.048	0.380
-78.582	-41.836	0.105	-0.053
-77.567	-59.983	0.333	-0.141
-76.553	117.252	0.236	0.288
-75.538	-137.288	-0.142	0.016
-74.524	800.000	-0.029	-0.107
-73.509	-36.895	-0.251	-0.134
-72.494	52.753	0.061	-0.058
-71.480	-81.330	-0.044	0.014
-70.465	-88.543	0.202	0.060
-69.451	-68.544	0.214	0.082
-68.436	247.630	0.029	0.049
-67.422	455.045	-0.080	0.176
-66.407	337.223	-0.156	-0.300
-65.392	205.724	-0.213	-0.329
-64.378	-4.237	0.462	0.317
-63.363	2.617	0.365	-0.262
-62.349	-200.000	-0.024	0.163
-61.334	55.701	-0.810	-0.777
-60.319	-74.790	0.234	0.083
-59.305	-200.000	-0.067	-0.685
-58.290	533.755	0.396	0.930
-57.276	800.000	0.394	1.542
-56.261	-200.000	84.021	493.506
-55.246	525.387	1388.955	3237.496
-54.232	181.136	2626.836	3823.217
-53.217	112.847	2372.539	2846.206
-52.203	46.795	1979.302	1820.905
-51.188	41.085	1764.869	1578.445
-50.173	38.332	1718.804	1515.882
-49.159	52.945	1759.451	1666.490
-48.144	56.762	1777.901	1713.810
-47.130	40.921	1738.937	1553.727
-46.115	37.924	1724.184	1517.208
-45.100	37.783	1719.820	1512.222
-44.086	37.816	1716.760	1509.722
-43.071	37.747	1713.965	1506.670
-42.057	37.762	1712.152	1505.130
-41.042	37.836	1709.113	1502.972
-40.027	37.778	1707.365	1500.929
-39.013	37.833	1705.693	1499.826
-37.998	37.700	1704.261	1497.484
-36.984	37.860	1702.522	1497.126
-35.969	37.969	1700.685	1496.284
-34.954	38.017	1699.259	1495.340
-33.940	37.938	1697.299	1492.951
-32.925	37.886	1696.134	1491.470
-31.911	37.886	1694.075	1489.596
-30.896	37.902	1692.272	1488.076
-29.881	37.873	1690.618	1486.342
-28.867	37.933	1688.786	1485.130
-27.852	38.011	1687.225	1484.293
-26.838	37.929	1686.259	1482.761
-25.823	37.997	1684.393	1481.578
-24.809	38.027	1683.208	1480.703
-23.794	37.965	1681.807	1478.937
-22.779	37.990	1680.037	1477.512
-21.765	38.006	1678.942	1476.615
-20.750	37.904	1676.970	1474.053
-19.736	37.994	1675.644	1473.509
-18.721	37.982	1673.963	1471.875
-17.706	37.973	1672.347	1470.334
-16.692	37.965	1670.973	1469.001
-15.677	37.960	1669.500	1467.617
-14.663	38.036	1668.046	1466.851
-13.648	38.025	1666.582	1465.423
-12.633	37.983	1665.014	1463.669
-11.619	37.931	1663.586	1461.966
-10.604	37.998	1661.852	1460.887
-9.590	37.913	1660.588	1459.083
-8.575	37.972	1659.277	1458.313
-7.560	37.948	1657.819	1456.796
-6.546	37.962	1656.853	1455.991
-5.531	37.848	1656.318	1454.613
-4.517	37.919	1654.447	1453.438
-3.502	37.993	1652.876	1452.555
-2.487	38.053	1651.764	1451.964
-1.473	37.902	1640.337	1440.751
-0.458	35.470	1619.999	1405.056
0.556	32.984	1619.026	1367.524
1.571	30.259	1643.567	1368.065
2.586	29.178	1657.090	1371.159
3.600	25.137	1600.538	1295.124
4.615	14.712	1482.794	1129.596
5.629	6.278	1412.987	1021.756
6.644	4.944	1403.680	1006.328
7.659	4.723	1402.288	1003.813
8.673	4.699	1401.179	1002.779
9.688	4.673	1399.927	1001.627
10.702	4.748	1397.326	1000.155
11.717	8.283	1404.702	1028.149
12.731	17.402	1421.591	1099.615
13.746	22.210	1428.727	1136.191
14.761	21.152	1425.199	1126.463
15.775	20.171	1422.058	1117.556
16.790	19.143	1419.213	1108.611
17.804	18.137	1417.602	1100.782
18.819	17.940	1415.830	1098.042
19.834	17.550	1414.497	1094.405
20.848	17.220	1413.780	1091.633
21.863	17.135	1412.043	1089.648
22.877	17.015	1410.824	1087.841
23.892	17.090	1409.858	1087.481
24.907	17.007	1409.199	1086.344
25.921	16.922	1408.573	1085.223
26.936	17.052	1407.546	1085.169
27.950	17.064	1406.395	1084.257
28.965	17.087	1405.493	1083.616
29.980	17.100	1404.591	1082.905
30.994	17.294	1402.822	1082.685
32.009	17.282	1402.240	1082.062
33.023	17.329	1400.624	1081.018
34.038	17.248	1399.560	1079.588
35.053	17.150	1397.954	1077.631
36.067	17.185	1396.940	1076.978
37.082	17.136	1395.788	1075.679
38.096	17.146	1395.203	1075.201
39.111	17.196	1394.442	1074.834
40.126	17.182	1393.277	1073.750
41.140	16.992	1392.171	1071.607
42.155	16.898	1391.722	1070.570
43.169	16.915	1391.218	1070.197
44.184	16.829	1390.973	1069.367
45.199	16.833	1390.407	1068.864
46.213	16.912	1390.640	1069.450
47.228	17.028	1389.126	1068.920
48.242	17.049	1388.134	1068.191
49.257	16.992	1386.928	1066.809
50.271	17.177	1384.835	1066.270
51.286	17.165	1383.536	1065.099
52.301	17.114	1382.214	1063.670
53.315	17.026	1381.009	1062.094
54.330	16.961	1380.132	1060.923
55.344	16.896	1379.079	1059.610
56.359	16.987	1377.799	1059.104
57.374	16.920	1377.130	1058.076
58.388	16.799	1376.434	1056.693
59.403	16.713	1375.976	1055.714
60.417	16.801	1374.638	1055.138
61.432	16.813	1373.794	1054.474
62.447	16.747	1372.875	1053.263
63.461	16.669	1371.786	1051.851
64.476	16.685	1370.300	1050.718
65.490	16.537	1369.605	1049.172
66.505	16.657	1367.868	1048.493
67.520	16.720	1366.536	1047.773
68.534	16.740	1365.719	1047.176
69.549	16.682	1364.826	1046.038
70.563	16.620	1363.434	1044.495
71.578	16.646	1361.821	1043.329
72.593	16.589	1360.845	1042.138
73.607	16.570	1360.195	1041.430
74.622	16.575	1359.438	1040.790
75.636	16.595	1358.875	1040.388
76.651	16.591	1358.333	1039.859
77.666	16.611	1357.636	1039.357
78.680	16.665	1357.499	1039.491
79.695	16.717	1356.705	1039.107
80.709	16.777	1355.560	1038.509
81.724	16.904	1354.640	1038.493
82.739	16.811	1354.096	1037.410
83.753	17.033	1353.124	1037.934
84.768	17.080	1352.095	1037.338
85.782	17.207	1350.932	1037.130
86.797	17.157	1349.529	1035.657
87.812	17.061	1348.135	1033.911
88.826	17.011	1347.345	1032.912
89.841	17.051	1346.593	1032.487
90.855	17.105	1345.316	1031.742
91.870	17.184	1344.350	1031.391
92.884	17.151	1343.510	1030.451
93.899	17.271	1342.751	1030.506
94.914	17.288	1341.911	1029.874
95.928	17.327	1341.012	1029.330
96.943	17.172	1340.037	1027.555
97.957	17.190	1339.027	1026.797
98.972	17.091	1338.114	1025.407
99.987	17.148	1336.914	1024.739
101.001	17.218	1335.832	1024.243
102.016	17.155	1335.076	1023.195
103.030	17.110	1334.103	1022.087
104.045	17.103	1333.576	1021.548
105.060	17.189	1331.687	1020.532
106.074	16.933	1330.100	1017.685
107.089	16.722	1328.671	1015.240
108.103	16.671	1327.590	1014.016
109.118	16.818	1326.401	1013.900
110.133	16.742	1324.929	1012.232
111.147	16.748	1323.841	1011.346
112.162	16.795	1322.397	1010.434
113.176	16.868	1321.404	1010.017
114.191	16.830	1320.469	1008.992
115.206	16.926	1318.895	1008.270
116.220	16.907	1317.750	1007.190
117.235	16.778	1316.853	1005.649
118.249	16.809	1315.346	1004.596
119.264	16.779	1314.243	1003.488
120.279	16.741	1313.627	1002.703
121.293	16.742	1312.427	1001.705
122.308	16.674	1311.336	1000.379
123.322	16.658	1309.732	998.975
124.337	16.665	1309.320	998.614
125.352	16.651	1308.202	997.587
126.366	16.602	1307.106	996.375
127.381	16.679	1305.903	995.821
128.395	16.713	1304.658	994.985
129.410	16.731	1304.344	994.761
130.424	16.828	1303.252	994.414
131.439	16.827	1302.043	993.396
132.454	16.904	1301.200	993.113
133.468	16.902	1300.651	992.594
134.483	16.877	1300.104	991.946
135.497	16.903	1298.955	991.135
136.512	16.895	1298.016	990.282
137.527	16.969	1296.498	989.465
138.541	16.826	1295.478	987.770
139.556	17.044	1293.625	987.537
140.570	17.069	1292.994	987.112
141.585	17.113	1291.317	986.001
142.600	17.208	1290.409	985.773
143.614	17.254	1289.413	985.191
144.629	17.232	1288.098	983.973
145.643	17.292	1286.884	983.307
146.658	17.113	1286.146	981.617
147.673	16.981	1284.537	979.541
148.687	16.950	1283.058	978.150
149.702	17.030	1281.259	977.152
150.716	17.002	1280.087	976.012
151.731	16.975	1279.141	975.047
152.746	16.908	1278.171	973.834
153.760	16.977	1277.034	973.279
154.775	17.201	1275.506	973.313
155.789	17.052	1274.796	971.830
156.804	17.181	1273.801	971.724
157.819	17.126	1272.671	970.461
158.833	17.244	1271.449	970.118
159.848	17.243	1270.917	969.622
160.862	17.246	1270.086	968.918
161.877	17.192	1268.512	967.326
162.892	16.918	1267.757	965.104
163.906	17.013	1266.696	964.749
164.921	17.016	1265.608	963.856
165.935	17.112	1264.566	963.521
166.950	17.161	1264.144	963.393
167.964	17.212	1263.035	962.749
168.979	17.148	1262.671	962.024
169.994	17.020	1261.920	960.641
171.008	17.063	1261.012	960.107
172.023	17.240	1260.046	960.289
173.037	17.275	1259.503	959.988
174.052	17.290	1258.607	959.303
175.067	17.052	1257.369	956.937
176.081	17.058	1256.332	956.093
177.096	17.070	1255.410	955.373
178.110	17.163	1254.277	954.952
179.125	17.207	1253.176	954.279
180.140	17.266	1251.415	953.179
181.154	17.155	1250.861	952.055
182.169	17.237	1249.626	951.488
183.183	17.412	1248.056	951.190
184.198	17.366	1246.846	949.925
185.213	17.394	1245.622	949.067
186.227	17.392	1244.697	948.263
187.242	17.416	1243.932	947.729
188.256	17.549	1242.959	947.649
189.271	17.593	1241.776	946.905
190.286	17.399	1240.516	944.781
191.300	17.150	1239.575	942.600
192.315	17.011	1238.923	941.252
193.329	17.033	1238.457	940.933
194.344	17.210	1238.003	941.490
195.359	17.337	1236.713	941.129
196.373	17.265	1236.986	940.855
197.388	17.407	1236.363	941.078
198.402	17.543	1236.180	941.611
199.417	17.694	1235.057	941.503
200.432	17.705	1234.457	941.026
201.446	17.820	1233.270	940.673
202.461	17.833	1232.828	940.324
203.475	17.809	1231.517	939.107
204.490	17.703	1229.951	937.245
205.504	17.543	1228.936	935.514
206.519	17.533	1227.308	934.136
207.534	17.529	1226.417	933.354
208.548	17.656	1225.018	932.903
209.563	17.696	1224.317	932.505
210.577	17.644	1223.852	931.783
211.592	17.619	1223.058	930.958
212.607	17.752	1222.004	930.799
213.621	17.830	1220.916	930.313
214.636	17.787	1220.288	929.516
215.650	17.720	1219.455	928.439
216.665	17.859	1218.588	928.450
217.680	17.878	1217.771	927.852
218.694	17.902	1216.657	927.052
219.709	17.796	1216.253	926.086
220.723	17.759	1215.361	925.121
221.738	17.954	1214.264	925.262
222.753	17.900	1213.729	924.482
223.767	17.927	1213.220	924.159
224.782	17.936	1212.257	923.389
225.796	18.017	1212.067	923.599
226.811	18.014	1211.255	922.883
227.826	17.879	1210.223	921.291
228.840	17.856	1209.269	920.359
229.855	18.023	1208.465	920.562
230.869	17.955	1207.880	919.672
231.884	17.908	1206.885	918.581
232.899	17.884	1205.785	917.533
233.913	17.720	1205.249	916.158
234.928	17.872	1204.418	916.261
235.942	17.724	1203.959	915.042
236.957	17.731	1203.361	914.541
237.972	17.717	1202.767	913.934
238.986	17.897	1201.507	913.857
240.001	17.872	1200.760	913.077
241.015	17.847	1200.116	912.373
242.030	17.966	1199.027	912.097
243.045	17.965	1198.558	911.657
244.059	17.907	1197.903	910.766
245.074	18.009	1196.727	910.340
246.088	18.108	1195.950	910.192
247.103	18.183	1194.909	909.720
248.117	18.198	1194.400	909.331
249.132	18.281	1194.130	909.485
250.147	18.455	1193.466	909.824
251.161	18.648	1192.274	909.859
252.176	18.435	1192.040	908.471
253.190	18.491	1191.771	908.478
254.205	18.588	1191.235	908.506
255.220	18.678	1190.153	908.077
256.234	18.654	1189.589	907.440
257.249	18.578	1188.833	906.379
258.263	18.539	1187.995	905.456
259.278	18.513	1187.780	905.074
260.293	18.665	1186.613	904.907
261.307	18.701	1186.365	904.826
262.322	18.728	1185.719	904.397
263.336	18.742	1185.218	904.008
264.351	18.754	1184.453	903.408
265.366	18.832	1183.738	903.191
266.380	18.849	1182.786	902.476
267.395	18.716	1182.510	901.485
268.409	18.668	1181.343	900.267
269.424	18.653	1180.748	899.651
270.439	18.710	1179.878	899.208
271.453	18.704	1179.240	898.615
272.468	18.515	1178.643	897.086
273.482	18.541	1177.162	896.019
274.497	18.660	1176.892	896.356
275.512	18.610	1176.544	895.748
276.526	18.636	1175.288	894.850
277.541	18.677	1174.432	894.335
278.555	18.591	1174.551	893.895
279.570	18.821	1173.406	894.143
280.585	18.925	1172.418	893.850
281.599	18.949	1171.573	893.253
282.614	18.792	1170.473	891.522
283.628	18.774	1169.041	890.258
284.643	18.885	1168.331	890.212
285.657	18.772	1167.706	889.073
286.672	18.765	1167.065	888.470
287.687	18.827	1165.799	887.749
288.701	18.830	1165.314	887.314
289.716	18.922	1164.095	886.781
290.730	18.966	1163.466	886.454
291.745	18.927	1162.666	885.565
292.760	18.941	1162.207	885.207
293.774	18.995	1161.538	884.900
294.789	19.102	1161.265	885.160
295.803	19.078	1160.677	884.510
296.818	18.970	1159.820	883.227
297.833	18.894	1159.081	882.193
298.847	19.010	1157.974	881.868
299.862	18.974	1157.055	880.907
300.876	19.042	1156.328	880.624
301.891	18.992	1156.185	880.180
302.906	19.111	1155.452	880.151
303.920	19.147	1154.519	879.548
304.935	19.298	1153.947	879.806
305.949	19.349	1153.252	879.460
306.964	19.322	1152.520	878.686
307.979	19.382	1151.634	878.236
308.993	19.264	1150.925	877.017
310.008	19.272	1149.966	876.249
311.022	19.213	1149.606	875.601
312.037	19.249	1148.987	875.230
313.052	19.286	1147.114	873.916
314.066	19.218	1146.670	873.153
315.081	19.094	1145.685	871.699
316.095	19.039	1144.792	870.666
317.110	19.000	1144.743	870.355
318.125	19.156	1143.552	870.159
319.139	19.019	1142.989	868.960
320.154	19.118	1142.237	868.814
321.168	19.149	1141.764	868.533
322.183	19.131	1141.227	867.958
323.197	19.097	1140.544	867.188
324.212	19.213	1139.618	866.993
325.227	19.185	1139.375	866.589
326.241	19.209	1138.523	865.987
327.256	19.348	1136.980	865.433
328.270	19.199	1136.968	864.599
329.285	19.248	1135.539	863.681
330.300	19.355	1134.183	863.109
331.314	19.261	1133.869	862.325
332.329	19.244	1133.095	861.575
333.343	19.219	1132.314	860.780
334.358	19.481	1131.019	861.024
335.373	19.504	1130.603	860.747
336.387	19.412	1130.171	859.885
337.402	19.472	1128.861	859.110
338.416	19.546	1128.677	859.263
339.431	19.462	1128.126	858.347
340.446	19.517	1127.671	858.201
341.460	19.710	1126.563	858.242
342.475	19.792	1125.727	857.933
343.489	19.835	1124.878	857.423
344.504	19.819	1124.134	856.703
345.519	19.862	1123.015	855.988
346.533	19.865	1122.115	855.240
347.548	19.914	1121.624	855.033
348.562	19.870	1120.559	853.925
349.577	19.724	1120.207	852.862
350.592	19.716	1118.961	851.799
351.606	19.703	1118.067	850.979
352.621	19.530	1117.725	849.793
353.635	19.535	1117.360	849.463
354.650	19.737	1115.850	849.234
355.665	19.763	1115.320	848.884
356.679	19.690	1114.647	847.936
357.694	19.610	1114.367	847.255
358.708	19.777	1113.322	847.208
359.723	19.745	1113.145	846.838
360.738	19.886	1112.184	846.722
361.752	19.886	1111.525	846.145
362.767	19.842	1111.183	845.597
363.781	19.823	1110.551	844.947
364.796	20.029	1109.856	845.349
365.810	20.078	1109.313	845.101
366.825	20.148	1108.728	844.919
367.840	20.236	1108.292	844.943
368.854	20.265	1107.780	844.618
369.869	20.254	1106.822	843.758
370.883	20.095	1106.057	842.327
371.898	20.162	1105.226	841.945
372.913	20.094	1104.520	841.006
373.927	20.102	1104.134	840.673
374.942	20.204	1103.528	840.635
375.956	20.133	1103.165	839.936
376.971	20.196	1102.183	839.420
377.986	20.204	1101.853	839.135
379.000	20.276	1101.197	838.910
380.015	20.355	1100.758	838.881
381.029	20.337	1100.167	838.270
382.044	20.524	1099.089	838.275
383.059	20.411	1098.404	837.137
384.073	20.377	1097.818	836.450
385.088	20.398	1097.117	835.944
386.102	20.469	1095.936	835.313
387.117	20.380	1094.822	833.961
388.132	20.323	1093.447	832.568
389.146	20.249	1092.917	831.733
390.161	20.252	1092.233	831.157
391.175	20.215	1091.421	830.285
392.190	20.370	1090.921	830.576
393.205	20.456	1090.067	830.264
394.219	20.453	1089.060	829.410
395.234	20.382	1088.254	828.379
396.248	20.372	1087.369	827.588
397.263	20.410	1086.143	826.760
398.278	20.265	1085.601	825.588
399.292	20.259	1085.136	825.128
400.307	20.325	1084.142	824.615
401.321	20.320	1083.198	823.801
402.336	20.216	1082.788	822.921
403.350	20.279	1081.907	822.477
404.365	20.339	1081.225	822.171
405.380	20.345	1080.513	821.584
406.394	20.434	1080.018	821.557
407.409	20.554	1079.269	821.480
408.423	20.659	1078.765	821.520
409.438	20.546	1077.976	820.314
410.453	20.724	1077.050	820.376
411.467	20.726	1076.404	819.820
412.482	20.720	1076.022	819.430
413.496	20.807	1075.059	819.031
414.511	20.834	1074.564	818.709
415.526	20.959	1074.043	818.830
416.540	20.994	1073.583	818.568
417.555	20.966	1073.085	817.984
418.569	20.879	1072.984	817.429
419.584	20.936	1072.123	816.965
420.599	20.929	1071.480	816.373
421.613	148.124	1400.463	1775.806
422.628	136.473	1448.400	1775.918
