DTS Sentinel unit serial number:	SN413079Multiplexer serial number:	ORYXHardware model number:	OX4-SRSoftware version number:	ORYX F/W v4.00 Oryx Data Collector v3.7.2.0data status	okinstallation	princeton_trtdifferential loss correction	single-endedforward channel	channel 2reverse channel	N/Adate	2019/09/11time	19:13:11forward acquisition time	60.00reverse acquisition time	0.00gamma	496.2192k internal	0.2300k external	0.2300temperature offset calibration	1.0037default loss term (dB/km)	0.3790temperature slope calibration	1.0000multiplexer offset coefficient	1.0000multiplexer slope coefficient	1.0000fibre end	0.00T internal ref (°C)	41.50T ext. ref 1 (°C)	1.26T ext. ref 2 (°C)	33.70length (m)	temperature (°C)	Stokes	anti-Stokes-747.200	51.433	-0.201	0.195
-746.185	50.541	0.273	0.263
-745.171	800.000	0.050	0.185
-744.156	163.115	-0.130	0.186
-743.142	305.458	-0.100	0.189
-742.127	550.188	-0.094	0.229
-741.112	589.346	0.124	0.312
-740.098	-3.880	-0.102	0.072
-739.083	-185.310	0.224	-0.004
-738.069	-149.641	-0.195	0.016
-737.054	66.366	-0.216	-0.224
-736.039	104.205	-0.219	-0.263
-735.025	-119.613	0.273	-0.048
-734.010	-5.984	-0.088	0.062
-732.996	100.871	-0.163	-0.193
-731.981	764.249	0.065	-0.179
-730.966	518.283	-0.082	0.196
-729.952	578.159	-0.109	0.272
-728.937	800.000	0.154	0.557
-727.923	-96.826	-0.157	-0.042
-726.908	105.272	-0.142	-0.171
-725.894	-200.000	0.065	-0.296
-724.879	80.551	-0.335	-0.368
-723.864	-74.020	-0.169	-0.062
-722.850	-47.020	0.045	-0.022
-721.835	-127.527	0.240	-0.035
-720.821	-200.000	-0.067	-0.442
-719.806	-31.790	-0.241	0.138
-718.791	-200.000	-0.008	-0.059
-717.777	-20.933	-0.074	0.046
-716.762	49.866	-0.236	-0.227
-715.748	566.098	-0.113	0.279
-714.733	-180.282	-0.207	-0.004
-713.718	-24.596	-0.082	-0.050
-712.704	397.152	0.024	-0.051
-711.689	37.093	-0.315	-0.284
-710.675	-109.941	-0.042	-0.009
-709.660	103.386	0.235	0.281
-708.645	-115.530	-0.142	-0.027
-707.631	0.983	0.063	0.046
-706.616	800.000	-0.054	0.225
-705.602	-71.588	-0.181	-0.069
-704.587	-162.990	0.225	-0.011
-703.572	1.570	-0.280	-0.205
-702.558	424.933	-0.084	0.185
-701.543	37.482	0.148	-0.134
-700.529	425.301	-0.175	0.383
-699.514	327.201	-0.110	0.215
-698.499	-124.793	0.312	-0.049
-697.485	-200.000	0.000	0.075
-696.470	-94.149	0.146	-0.041
-695.456	68.711	-0.144	0.151
-694.441	-14.234	-0.214	-0.140
-693.426	-56.443	-0.207	0.094
-692.412	-51.076	-0.127	-0.061
-691.397	40.379	-0.217	0.199
-690.383	471.141	-0.093	-0.214
-689.368	-17.028	-0.191	-0.123
-688.354	-200.000	-0.033	-0.270
-687.339	-18.213	-0.316	0.201
-686.324	161.226	0.163	-0.232
-685.310	655.030	-0.163	-0.425
-684.295	-200.000	-0.024	-0.156
-683.281	-200.000	0.041	-0.296
-682.266	356.836	-0.035	-0.071
-681.251	-105.248	-0.155	-0.036
-680.237	625.557	0.056	0.144
-679.222	-138.583	0.099	-0.011
-678.208	-41.594	-0.263	0.137
-677.193	-200.000	-0.006	0.111
-676.178	620.499	0.054	0.138
-675.164	-95.353	-0.273	-0.075
-674.149	-200.000	0.034	-0.294
-673.135	-200.000	0.085	0.443
-672.120	-106.884	-0.047	0.011
-671.105	76.835	0.064	-0.069
-670.091	-17.465	0.188	0.120
-669.076	-66.195	-0.043	-0.018
-668.062	-32.589	-0.283	0.160
-667.047	20.738	-0.152	-0.125
-666.032	1.668	0.209	-0.153
-665.018	184.890	-0.202	0.304
-664.003	152.424	-0.098	0.136
-662.989	-200.000	0.019	-0.086
-661.974	540.601	0.121	0.293
-660.959	326.683	0.012	0.024
-659.945	100.824	0.163	-0.192
-658.930	-74.338	-0.085	0.031
-657.916	-200.000	-0.006	0.287
-656.901	11.959	-0.140	-0.110
-655.886	800.000	0.141	-0.439
-654.872	269.626	0.113	0.201
-653.857	-200.000	-0.020	-0.200
-652.843	387.026	-0.107	-0.224
-651.828	-13.185	-0.368	0.243
-650.814	-200.000	-0.008	0.216
-649.799	-70.235	-0.189	0.073
-648.784	-200.000	-0.001	0.298
-647.770	-147.976	0.282	-0.024
-646.755	21.636	0.291	-0.241
-645.741	-200.000	-0.031	0.176
-644.726	-200.000	0.000	0.154
-643.711	263.986	0.036	-0.064
-642.697	-76.860	-0.092	-0.033
-641.682	800.000	-0.034	0.127
-640.668	56.898	-0.152	0.150
-639.653	-58.860	0.342	-0.150
-638.638	-100.276	-0.237	0.060
-637.624	140.018	0.039	0.053
-636.609	158.993	-0.062	-0.087
-635.595	344.832	-0.169	0.337
-634.580	-86.703	-0.070	0.022
-633.565	39.297	-0.103	-0.094
-632.551	-200.000	0.018	0.334
-631.536	237.731	0.086	-0.144
-630.522	-14.447	-0.053	0.035
-629.507	46.556	0.124	-0.117
-628.492	-82.042	-0.234	-0.078
-627.478	55.350	-0.108	0.106
-626.463	-200.000	0.018	-0.123
-625.449	-88.503	-0.210	-0.064
-624.434	-200.000	0.003	0.110
-623.419	357.737	-0.024	0.048
-622.405	42.476	-0.085	-0.078
-621.390	-200.000	0.012	-0.123
-620.376	-113.086	0.136	-0.027
-619.361	-94.001	-0.148	-0.041
-618.346	-200.000	0.008	-0.038
-617.332	-163.536	-0.166	-0.008
-616.317	-189.735	-0.528	-0.006
-615.303	377.998	-0.084	-0.174
-614.288	-26.502	0.134	0.080
-613.273	-200.000	0.012	0.285
-612.259	800.000	-0.127	0.362
-611.244	285.215	0.037	0.068
-610.230	-87.046	-0.122	0.038
-609.215	5.595	0.232	0.174
-608.201	584.543	-0.008	0.019
-607.186	-187.344	-0.111	0.002
-606.171	-98.251	0.077	0.020
-605.157	20.870	-0.216	-0.178
-604.142	107.121	0.258	-0.312
-603.128	-83.580	0.098	-0.032
-602.113	-145.003	0.256	0.024
-601.098	116.826	0.303	0.377
-600.084	3.518	-0.224	-0.166
-599.069	17.578	-0.171	0.138
-598.055	182.126	0.048	0.072
-597.040	-81.714	0.290	-0.097
-596.025	-9.587	-0.232	-0.157
-595.011	-13.074	-0.236	-0.155
-593.996	-200.000	-0.011	-0.088
-592.982	-24.140	-0.299	-0.181
-591.967	231.309	0.105	0.175
-590.952	-99.740	0.045	0.011
-589.938	365.378	0.152	0.311
-588.923	-135.496	-0.173	0.021
-587.909	14.763	-0.079	-0.063
-586.894	-200.000	-0.114	0.543
-585.879	-124.734	0.487	0.076
-584.865	-162.443	0.181	0.009
-583.850	-124.010	-0.454	0.072
-582.836	585.857	-0.078	-0.193
-581.821	-17.906	-0.320	0.204
-580.806	-38.068	-0.106	-0.057
-579.792	-50.319	-0.133	0.064
-578.777	96.301	-0.175	-0.203
-577.763	118.979	-0.109	-0.136
-576.748	-144.716	-0.230	-0.021
-575.733	800.000	-0.054	0.175
-574.719	265.041	0.079	0.140
-573.704	-200.000	-0.014	-0.087
-572.690	45.287	0.022	0.021
-571.675	-116.230	0.281	-0.053
-570.661	-103.097	-0.132	-0.032
-569.646	-200.000	0.056	-0.289
-568.631	13.247	0.118	0.092
-567.617	-200.000	-0.037	-0.180
-566.602	-200.000	-0.068	0.362
-565.588	-200.000	0.009	-0.074
-564.573	346.091	0.128	-0.256
-563.558	-56.118	-0.342	0.154
-562.544	-200.000	0.006	-0.267
-561.529	-56.947	-0.209	-0.094
-560.515	-115.556	-0.226	-0.043
-559.500	8.263	0.028	-0.022
-558.485	727.038	-0.168	-0.455
-557.471	-200.000	0.003	-0.191
-556.456	-200.000	0.048	-0.266
-555.442	-200.000	0.041	-0.248
-554.427	-136.025	0.341	-0.041
-553.412	-50.424	0.228	0.109
-552.398	70.110	0.168	0.176
-551.383	163.088	0.159	-0.226
-550.369	-84.397	-0.279	-0.089
-549.354	-200.000	0.029	0.154
-548.339	185.103	0.126	0.190
-547.325	-200.000	-0.044	-0.227
-546.310	-178.686	0.324	-0.008
-545.296	800.000	-0.067	0.297
-544.281	-200.000	0.006	0.113
-543.266	-57.338	-0.098	0.044
-542.252	-72.999	-0.118	0.044
-541.237	110.570	-0.101	0.123
-540.223	-46.289	-0.204	0.101
-539.208	800.000	0.053	-0.196
-538.193	-23.872	-0.082	-0.049
-537.179	-45.570	-0.024	0.012
-536.164	-200.000	-0.031	-0.411
-535.150	48.732	-0.127	-0.120
-534.135	419.738	0.054	-0.118
-533.121	233.577	0.118	0.197
-532.106	-121.879	0.120	0.020
-531.091	-21.109	-0.117	-0.072
-530.077	132.037	-0.189	-0.246
-529.062	-200.000	-0.025	0.242
-528.048	764.561	0.116	-0.318
-527.033	-41.808	-0.229	0.119
-526.018	-75.420	0.091	0.033
-525.004	-26.515	-0.104	0.061
-523.989	-200.000	0.013	-0.097
-522.975	-200.000	0.016	-0.168
-521.960	13.856	0.063	-0.050
-520.945	409.175	-0.270	-0.578
-519.931	139.073	-0.114	-0.152
-518.916	-82.337	-0.223	0.073
-517.902	800.000	0.029	0.106
-516.887	177.418	-0.137	-0.202
-515.872	222.115	-0.055	-0.090
-514.858	161.186	-0.245	-0.346
-513.843	-185.776	0.228	0.003
-512.829	-7.115	0.256	-0.176
-511.814	470.819	0.064	-0.145
-510.799	-137.024	-0.094	-0.011
-509.785	-13.451	-0.028	0.018
-508.770	-200.000	0.019	0.253
-507.756	469.461	-0.083	0.190
-506.741	100.372	-0.070	-0.082
-505.726	-101.195	-0.430	-0.106
-504.712	-200.000	0.023	0.280
-503.697	-58.362	-0.026	0.012
-502.683	-169.521	-0.349	0.013
-501.668	295.619	0.159	-0.294
-500.653	-200.000	0.004	-0.185
-499.639	104.625	0.068	-0.080
-498.624	-114.356	-0.193	0.038
-497.610	48.377	0.047	-0.045
-496.595	-82.190	-0.207	-0.068
-495.581	800.000	-0.059	-0.182
-494.566	-126.751	-0.324	-0.048
-493.551	-114.266	-0.185	-0.036
-492.537	-16.937	-0.263	0.168
-491.522	248.642	0.182	0.312
-490.508	-161.091	0.311	0.016
-489.493	-146.878	0.349	-0.030
-488.478	132.842	0.070	0.091
-487.464	-89.998	-0.203	-0.060
-486.449	800.000	-0.034	-0.133
-485.435	225.030	-0.063	0.103
-484.420	800.000	-0.104	-0.308
-483.405	106.828	-0.098	-0.118
-482.391	-78.296	-0.219	0.076
-481.376	42.711	0.114	0.105
-480.362	385.267	-0.054	0.111
-479.347	-120.098	0.269	-0.047
-478.332	800.000	-0.105	-0.331
-477.318	354.952	0.076	-0.152
-476.303	800.000	-0.076	-0.224
-475.289	89.562	-0.246	0.277
-474.274	85.810	0.266	-0.295
-473.259	-29.157	-0.050	-0.029
-472.245	105.014	-0.151	-0.180
-471.230	-200.000	0.007	0.142
-470.216	-200.000	0.024	0.131
-469.201	-163.800	-0.150	-0.007
-468.186	116.237	0.044	0.055
-467.172	-152.595	0.263	-0.019
-466.157	-127.878	0.095	0.014
-465.143	38.633	-0.097	-0.087
-464.128	-66.032	-0.111	0.045
-463.113	-200.000	-0.095	-0.000
-462.099	-200.000	0.000	-0.160
-461.084	-200.000	-0.002	-0.173
-460.070	-40.461	0.128	0.067
-459.055	-171.852	0.069	0.002
-458.040	248.698	-0.081	0.139
-457.026	-52.979	0.224	-0.104
-456.011	-22.539	0.072	-0.044
-454.997	684.906	-0.088	-0.231
-453.982	633.501	-0.041	-0.106
-452.968	-65.943	-0.149	0.060
-451.953	-200.000	-0.018	-0.338
-450.938	54.809	0.101	-0.098
-449.924	251.616	0.213	-0.365
-448.909	-143.108	-0.185	0.018
-447.895	592.107	0.123	0.306
-446.880	61.777	0.116	0.117
-445.865	179.998	-0.211	0.311
-444.851	-12.078	-0.112	0.074
-443.836	638.733	0.041	0.106
-442.822	317.228	-0.131	0.249
-441.807	-172.661	-0.204	0.006
-440.792	-124.663	0.400	0.062
-439.778	-200.000	0.035	-0.194
-438.763	-81.433	0.232	-0.077
-437.749	-116.348	0.050	0.009
-436.734	-176.936	0.054	0.001
-435.719	71.156	-0.050	-0.053
-434.705	-54.817	0.177	0.081
-433.690	-43.924	0.072	-0.037
-432.676	-53.670	0.136	0.062
-431.661	292.716	-0.032	-0.058
-430.646	124.865	-0.151	-0.191
-429.632	424.916	0.024	0.053
-428.617	46.320	0.168	0.157
-427.603	67.297	-0.302	0.311
-426.588	66.898	-0.092	0.095
-425.573	96.384	0.215	-0.248
-424.559	-200.000	-0.003	0.070
-423.544	-200.000	0.000	0.294
-422.530	-200.000	-0.040	-0.322
-421.515	-200.000	-0.015	-0.147
-420.500	34.639	0.197	0.173
-419.486	-200.000	0.026	-0.329
-418.471	-126.622	-0.450	0.067
-417.457	9.368	-0.079	0.060
-416.442	-131.327	-0.194	-0.026
-415.428	-200.000	-0.389	0.001
-414.413	800.000	-0.051	0.223
-413.398	800.000	0.054	0.180
-412.384	-128.269	0.242	0.035
-411.369	-44.506	0.212	0.107
-410.355	8.324	-0.108	0.082
-409.340	258.249	0.101	-0.176
-408.325	-112.831	0.107	-0.021
-407.311	800.000	0.095	-0.360
-406.296	80.283	-0.159	0.172
-405.282	2.024	0.064	0.047
-404.267	-200.000	-0.058	0.356
-403.252	-125.205	0.114	0.018
-402.238	-200.000	-0.028	-0.484
-401.223	208.238	0.104	0.163
-400.209	210.278	-0.018	0.028
-399.194	-200.000	0.003	-0.047
-398.179	-50.161	-0.250	0.119
-397.165	-32.124	-0.115	0.065
-396.150	-37.970	-0.350	-0.187
-395.136	800.000	-0.044	-0.157
-394.121	-200.000	-0.059	0.360
-393.106	390.467	-0.089	0.187
-392.092	-135.536	0.501	-0.060
-391.077	11.509	-0.145	0.112
-390.063	134.539	0.176	0.230
-389.048	-0.658	0.284	-0.203
-388.033	-200.000	0.033	0.291
-387.019	-20.092	-0.192	-0.119
-386.004	542.885	0.147	0.353
-384.990	-42.116	-0.044	-0.023
-383.975	50.752	0.208	0.198
-382.960	365.803	-0.184	0.373
-381.946	48.008	-0.091	0.085
-380.931	-101.277	0.155	0.038
-379.917	-200.000	0.038	0.381
-378.902	800.000	0.059	-0.214
-377.888	167.616	-0.064	0.091
-376.873	-200.000	-0.005	0.115
-375.858	-18.822	-0.075	0.047
-374.844	312.741	-0.058	0.109
-373.829	-96.015	0.279	0.075
-372.815	800.000	0.143	0.499
-371.800	-200.000	0.058	0.281
-370.785	800.000	-0.062	0.181
-369.771	28.447	-0.102	0.086
-368.756	17.678	-0.034	-0.027
-367.742	-200.000	0.043	0.323
-366.727	800.000	0.102	-0.297
-365.712	-62.569	0.372	0.155
-364.698	-55.704	-0.110	0.049
-363.683	438.273	-0.066	0.146
-362.669	-125.200	0.188	0.029
-361.654	113.366	-0.137	-0.167
-360.639	-36.536	0.159	0.086
-359.625	800.000	0.071	-0.220
-358.610	800.000	0.065	0.195
-357.596	7.069	0.316	-0.237
-356.581	800.000	0.106	0.457
-355.566	36.228	-0.220	0.194
-354.552	-4.696	-0.171	0.118
-353.537	183.112	-0.066	0.098
-352.523	33.428	-0.235	-0.205
-351.508	-4.731	0.147	-0.102
-350.493	49.415	-0.240	-0.227
-349.479	-63.308	0.349	0.144
-348.464	42.660	0.056	0.051
-347.450	-62.813	-0.310	0.129
-346.435	7.350	0.199	0.149
-345.420	-2.043	0.196	-0.138
-344.406	50.699	0.092	-0.088
-343.391	69.856	-0.120	-0.124
-342.377	13.375	-0.095	-0.074
-341.362	290.050	0.196	0.357
-340.348	-84.382	0.335	0.106
-339.333	-122.508	0.091	0.015
-338.318	721.964	0.038	0.102
-337.304	-29.442	0.161	-0.093
-336.289	-122.966	0.180	-0.029
-335.275	-14.171	0.141	-0.091
-334.260	800.000	0.084	0.264
-333.245	-64.445	-0.074	0.030
-332.231	286.060	-0.303	-0.549
-331.216	-200.000	-0.018	0.139
-330.202	24.713	-0.352	-0.293
-329.187	507.643	0.117	-0.274
-328.172	-34.068	0.228	0.126
-327.158	-200.000	0.053	-0.435
-326.143	130.450	0.145	0.186
-325.129	64.411	-0.064	-0.065
-324.114	-44.355	-0.179	0.090
-323.099	-166.953	-0.147	-0.006
-322.085	-37.562	-0.105	-0.056
-321.070	57.268	0.112	0.110
-320.056	-182.867	0.334	0.006
-319.041	41.455	0.098	0.089
-318.026	800.000	0.046	0.194
-317.012	-130.890	0.116	-0.016
-315.997	-200.000	0.014	-0.080
-314.983	-97.024	-0.158	0.041
-313.968	41.760	0.079	0.072
-312.953	-86.690	-0.177	0.054
-311.939	-80.452	0.376	-0.126
-310.924	83.892	-0.145	-0.159
-309.910	-181.602	-0.330	-0.006
-308.895	-100.810	-0.284	0.070
-307.880	119.826	0.156	0.194
-306.866	-22.962	-0.301	0.182
-305.851	702.018	-0.093	-0.244
-304.837	-21.367	-0.167	-0.102
-303.822	800.000	-0.085	-0.239
-302.807	-200.000	-0.013	-0.142
-301.793	-34.548	0.128	-0.070
-300.778	80.620	0.086	-0.093
-299.764	-92.401	0.104	-0.029
-298.749	97.118	0.162	-0.186
-297.735	-200.000	-0.039	-0.247
-296.720	-102.346	-0.148	0.035
-295.705	-2.991	0.093	0.065
-294.691	800.000	0.065	0.284
-293.676	54.637	-0.127	-0.123
-292.662	-89.807	0.407	-0.119
-291.647	-108.646	0.331	0.071
-290.632	211.554	0.041	-0.064
-289.618	-200.000	0.047	0.294
-288.603	108.698	-0.153	-0.183
-287.589	-81.116	0.276	0.091
-286.574	-170.442	-0.338	-0.012
-285.559	-126.732	0.324	0.048
-284.545	-200.000	-0.001	0.052
-283.530	-200.000	-0.004	0.361
-282.516	211.934	-0.217	0.343
-281.501	-47.323	0.062	-0.030
-280.486	187.453	0.157	-0.235
-279.472	-102.629	0.028	0.007
-278.457	280.136	-0.157	-0.281
-277.443	-101.903	0.314	0.076
-276.428	800.000	-0.079	0.220
-275.413	800.000	-0.054	0.201
-274.399	74.344	0.335	0.353
-273.384	50.484	0.075	-0.071
-272.370	-200.000	0.015	0.105
-271.355	738.133	-0.088	-0.236
-270.340	53.502	-0.241	-0.232
-269.326	430.207	0.158	0.342
-268.311	97.474	0.142	0.164
-267.297	-9.623	0.319	0.213
-266.282	-200.000	-0.025	-0.330
-265.267	-15.638	0.034	-0.021
-264.253	-75.747	0.223	0.079
-263.238	23.813	-0.106	0.088
-262.224	280.498	-0.197	-0.353
-261.209	-63.477	-0.688	-0.283
-260.195	251.167	0.210	-0.357
-259.180	598.801	0.209	-0.520
-258.165	-15.215	0.203	-0.130
-257.151	-200.000	0.017	0.336
-256.136	676.295	-0.053	-0.137
-255.122	42.270	0.292	0.265
-254.107	-30.525	-0.223	0.127
-253.092	-200.000	0.008	-0.061
-252.078	800.000	-0.132	0.376
-251.063	800.000	0.074	0.280
-250.049	-155.984	-0.092	0.006
-249.034	-40.063	0.056	0.029
-248.019	-200.000	0.044	-0.225
-247.005	27.042	-0.184	0.154
-245.990	-9.404	0.068	0.045
-244.976	89.786	0.091	0.102
-243.961	785.998	0.032	-0.089
-242.946	-16.442	0.163	-0.104
-241.932	501.699	-0.137	0.317
-240.917	-94.006	0.136	0.037
-239.903	-167.653	-0.195	0.008
-238.888	17.808	0.193	0.154
-237.873	121.846	-0.083	0.104
-236.859	400.919	0.109	0.229
-235.844	-77.100	0.141	0.049
-234.830	309.296	-0.099	-0.186
-233.815	-200.000	0.043	-0.219
-232.800	-127.628	0.324	-0.047
-231.786	-84.775	-0.187	0.059
-230.771	-18.075	-0.225	0.141
-229.757	133.069	0.139	0.180
-228.742	-68.781	-0.176	0.068
-227.727	568.642	0.145	0.353
-226.713	-116.206	-0.067	0.012
-225.698	-17.539	0.061	0.039
-224.684	800.000	0.051	0.213
-223.669	145.546	-0.189	-0.253
-222.655	442.448	0.040	0.087
-221.640	-158.245	0.339	0.020
-220.625	80.015	0.256	-0.275
-219.611	227.280	-0.266	-0.433
-218.596	419.909	0.041	-0.087
-217.582	186.985	-0.080	-0.119
-216.567	-200.000	-0.014	-0.388
-215.552	-78.695	0.311	0.106
-214.538	372.776	0.151	-0.307
-213.523	124.638	0.192	0.242
-212.509	-200.000	-0.056	0.351
-211.494	79.499	-0.208	-0.223
-210.479	124.051	0.274	-0.344
-209.465	800.000	0.069	0.290
-208.450	-81.979	-0.268	0.088
-207.436	-104.162	-0.133	-0.031
-206.421	219.657	-0.174	0.278
-205.406	284.740	-0.177	-0.318
-204.392	-200.000	-0.049	-0.219
-203.377	233.030	0.223	-0.366
-202.363	-48.572	0.040	0.019
-201.348	-200.000	0.064	-0.461
-200.333	-29.883	0.240	-0.137
-199.319	-59.045	0.238	-0.103
-198.304	800.000	0.047	-0.170
-197.290	-64.931	-0.301	0.122
-196.275	-134.608	0.118	0.014
-195.260	162.662	-0.071	-0.099
-194.246	-51.164	0.049	-0.023
-193.231	-33.160	0.247	-0.137
-192.217	-200.000	-0.012	0.101
-191.202	-81.722	-0.170	0.056
-190.187	-46.406	0.081	0.040
-189.173	-200.000	-0.017	-0.254
-188.158	-200.000	-0.009	-0.202
-187.144	54.366	0.096	-0.093
-186.129	-84.575	0.274	-0.086
-185.114	160.631	-0.151	0.210
-184.100	-65.271	0.090	-0.036
-183.085	374.919	0.112	0.228
-182.071	15.787	0.439	0.345
-181.056	-200.000	-0.047	0.463
-180.042	-200.000	-0.011	-0.340
-179.027	397.627	0.091	-0.189
-178.012	21.059	0.216	-0.175
-176.998	800.000	0.030	0.082
-175.983	-68.284	-0.116	-0.045
-174.969	-200.000	-0.004	-0.078
-173.954	321.393	-0.139	0.264
-172.939	-14.001	0.171	-0.110
-171.925	-102.831	0.234	0.056
-170.910	92.393	-0.163	0.184
-169.896	-200.000	-0.005	-0.137
-168.881	184.427	-0.048	-0.071
-167.866	-77.721	0.068	-0.023
-166.852	62.369	-0.080	-0.080
-165.837	81.560	-0.376	0.406
-164.823	-55.831	0.069	0.031
-163.808	-1.895	-0.038	0.027
-162.793	138.779	-0.211	-0.276
-161.779	-151.278	-0.236	0.018
-160.764	-78.176	0.233	0.080
-159.750	100.945	0.149	-0.173
-158.735	411.365	-0.022	0.046
-157.720	-54.862	-0.179	-0.081
-156.706	41.827	-0.051	-0.046
-155.691	368.337	0.084	0.169
-154.677	174.514	0.184	0.265
-153.662	-91.062	0.229	0.065
-152.647	-164.498	-0.251	-0.011
-151.633	-139.134	-0.246	-0.026
-150.618	-95.316	0.204	0.055
-149.604	-102.798	-0.295	-0.070
-148.589	-33.426	0.208	-0.115
-147.574	78.481	-0.249	0.265
-146.560	27.750	0.197	-0.165
-145.545	-200.000	-0.004	0.025
-144.531	-141.075	-0.400	-0.041
-143.516	-87.966	0.045	-0.014
-142.502	10.632	-0.338	0.257
-141.487	-200.000	-0.009	-0.377
-140.472	20.366	0.220	0.177
-139.458	-115.164	-0.245	0.046
-138.443	-200.000	0.024	0.190
-137.429	-189.710	-0.100	0.001
-136.414	475.580	-0.054	0.122
-135.399	800.000	0.042	-0.173
-134.385	37.041	0.211	0.186
-133.370	-113.251	0.325	-0.064
-132.356	-41.337	0.353	-0.181
-131.341	-150.310	0.515	0.040
-130.326	227.710	-0.162	-0.262
-129.312	671.134	0.148	0.381
-128.297	-39.543	-0.043	0.022
-127.283	68.389	-0.140	-0.142
-126.268	111.093	-0.101	-0.121
-125.253	128.126	0.175	0.222
-124.239	-200.000	0.018	0.098
-123.224	800.000	0.104	-0.362
-122.210	800.000	-0.024	-0.082
-121.195	-106.763	-0.142	-0.031
-120.180	494.050	0.103	0.236
-119.166	-61.466	-0.421	-0.176
-118.151	800.000	-0.056	-0.183
-117.137	-15.280	-0.150	-0.096
-116.122	-59.161	0.315	-0.135
-115.107	98.683	0.100	-0.115
-114.093	800.000	-0.042	0.160
-113.078	800.000	0.042	-0.181
-112.064	-200.000	-0.021	-0.247
-111.049	-125.775	0.032	-0.005
-110.034	29.188	-0.115	0.097
-109.020	-200.000	0.013	-0.215
-108.005	-200.000	0.044	0.562
-106.991	91.057	-0.128	0.143
-105.976	312.011	0.077	0.143
-104.962	21.469	-0.157	-0.127
-103.947	-200.000	-0.009	0.094
-102.932	153.568	-0.062	0.085
-101.918	468.783	-0.122	0.272
-100.903	136.139	-0.177	-0.229
-99.889	-146.645	0.288	-0.025
-98.874	-90.442	-0.093	-0.027
-97.859	-163.662	0.222	0.010
-96.845	102.128	0.299	0.347
-95.830	-21.585	0.296	-0.180
-94.816	-90.751	-0.306	-0.088
-93.801	386.105	-0.114	-0.235
-92.786	-170.613	-0.377	0.013
-91.772	183.748	0.226	-0.333
-90.757	396.087	-0.067	-0.139
-89.743	800.000	0.212	0.651
-88.728	-200.000	0.074	0.337
-87.713	191.335	0.195	-0.293
-86.699	335.053	-0.128	0.247
-85.684	130.437	-0.295	0.375
-84.670	-93.750	-0.064	0.018
-83.655	227.986	0.111	0.180
-82.640	515.546	-0.111	0.258
-81.626	699.280	-0.145	0.379
-80.611	-64.842	-0.075	-0.030
-79.597	54.478	0.248	0.237
-78.582	-78.401	-0.321	-0.109
-77.567	800.000	-0.049	0.209
-76.553	-93.465	-0.101	0.028
-75.538	-167.336	0.092	-0.004
-74.524	-1.040	0.147	-0.103
-73.509	140.661	0.215	-0.283
-72.494	-22.312	0.199	-0.120
-71.480	539.083	-0.069	-0.164
-70.465	-200.000	0.033	-0.162
-69.451	-200.000	-0.032	0.282
-68.436	-200.000	-0.008	0.070
-67.422	-200.000	0.023	0.185
-66.407	-55.779	-0.037	0.016
-65.392	5.233	0.131	-0.096
-64.378	-200.000	0.027	0.367
-63.363	-150.058	0.036	-0.003
-62.349	426.827	0.083	0.178
-61.334	183.151	-0.422	-0.619
-60.319	125.686	0.214	0.268
-59.305	800.000	-0.222	-0.858
-58.290	567.089	0.299	0.720
-57.276	498.292	0.778	1.779
-56.261	-200.000	76.556	518.565
-55.246	545.759	1314.173	3119.432
-54.232	149.315	2544.660	3420.451
-53.217	112.964	2330.873	2804.980
-52.203	50.992	1951.561	1836.822
-51.188	44.756	1743.967	1592.807
-50.173	42.054	1698.295	1530.416
-49.159	56.528	1733.601	1673.967
-48.144	62.524	1751.376	1737.142
-47.130	44.798	1715.446	1566.833
-46.115	41.500	1701.939	1529.215
-45.100	41.418	1696.930	1524.026
-44.086	41.300	1694.681	1521.045
-43.071	41.359	1691.340	1518.438
-42.057	41.321	1689.002	1515.990
-41.042	41.331	1687.025	1514.232
-40.027	41.357	1685.655	1513.134
-39.013	41.308	1683.299	1510.589
-37.998	41.355	1681.700	1509.450
-36.984	41.472	1680.112	1508.855
-35.969	41.556	1678.319	1507.818
-34.954	41.549	1677.246	1506.739
-33.940	41.551	1675.217	1504.875
-32.925	41.476	1672.963	1502.223
-31.911	41.578	1670.973	1501.141
-30.896	41.509	1669.693	1499.417
-29.881	41.437	1668.033	1497.324
-28.867	41.458	1666.245	1495.816
-27.852	41.515	1664.857	1494.943
-26.838	41.460	1663.792	1493.512
-25.823	41.445	1662.486	1492.167
-24.809	41.568	1660.545	1491.287
-23.794	41.520	1658.956	1489.443
-22.779	41.585	1657.635	1488.680
-21.765	41.453	1656.260	1486.408
-20.750	41.573	1654.302	1485.482
-19.736	41.497	1653.088	1483.763
-18.721	41.521	1651.580	1482.531
-17.706	41.460	1650.260	1480.835
-16.692	41.491	1648.614	1479.530
-15.677	41.560	1647.002	1478.532
-14.663	41.613	1645.771	1477.767
-13.648	41.517	1644.854	1476.172
-12.633	41.514	1643.121	1474.539
-11.619	41.491	1641.078	1472.478
-10.604	41.525	1639.865	1471.579
-9.590	41.552	1638.514	1470.505
-8.575	41.556	1637.006	1469.126
-7.560	41.552	1635.899	1468.042
-6.546	41.525	1634.649	1466.668
-5.531	41.516	1633.778	1465.760
-4.517	41.550	1632.203	1464.538
-3.502	41.536	1631.075	1463.362
-2.487	41.485	1629.637	1461.639
-1.473	41.042	1617.076	1447.101
-0.458	37.664	1595.046	1403.037
0.556	32.267	1592.500	1358.833
1.571	29.208	1615.659	1355.998
2.586	28.329	1630.240	1361.580
3.600	24.942	1577.016	1292.613
4.615	13.869	1460.209	1122.323
5.629	3.451	1386.435	998.355
6.644	1.463	1376.093	978.031
7.659	1.245	1374.997	975.765
8.673	1.188	1373.543	974.279
9.688	1.165	1372.101	973.026
10.702	0.810	1369.500	968.822
11.717	4.652	1376.517	998.396
12.731	15.200	1397.682	1082.106
13.746	23.484	1411.268	1146.316
14.761	25.004	1413.020	1157.468
15.775	25.256	1412.608	1158.653
16.790	25.290	1412.382	1158.584
17.804	25.384	1411.793	1158.606
18.819	25.482	1411.934	1159.252
19.834	25.615	1410.778	1159.056
20.848	25.671	1409.913	1158.604
21.863	25.692	1409.027	1157.909
22.877	25.720	1407.729	1156.915
23.892	25.689	1407.052	1156.058
24.907	25.642	1406.580	1155.267
25.921	25.657	1405.556	1154.419
26.936	25.643	1404.510	1153.369
27.950	25.703	1403.104	1152.495
28.965	25.623	1402.194	1151.134
29.980	25.606	1400.945	1149.903
30.994	25.674	1399.094	1148.712
32.009	25.682	1398.526	1148.198
33.023	25.684	1397.190	1147.014
34.038	25.656	1396.253	1145.961
35.053	25.692	1394.618	1144.745
36.067	25.612	1393.904	1143.550
37.082	25.661	1392.863	1142.906
38.096	25.647	1391.899	1141.926
39.111	25.528	1391.361	1140.628
40.126	25.562	1390.829	1140.308
41.140	25.595	1390.404	1140.070
42.155	25.600	1389.859	1139.549
43.169	25.564	1390.174	1139.484
44.184	25.645	1389.321	1139.192
45.199	25.679	1388.953	1139.008
46.213	25.679	1388.421	1138.466
47.228	25.704	1387.205	1137.531
48.242	25.561	1386.309	1135.789
49.257	25.517	1385.461	1134.715
50.271	25.720	1383.424	1134.228
51.286	25.557	1382.200	1132.097
52.301	25.578	1381.279	1131.378
53.315	25.644	1380.356	1130.936
54.330	25.693	1379.132	1130.142
55.344	25.588	1378.508	1128.867
56.359	25.628	1376.952	1127.748
57.374	25.523	1376.401	1126.534
58.388	25.683	1374.989	1126.285
59.403	25.551	1375.143	1125.486
60.417	25.538	1374.646	1124.898
61.432	25.594	1373.960	1124.583
62.447	25.640	1373.251	1124.196
63.461	25.642	1371.387	1122.581
64.476	25.658	1370.626	1121.956
65.490	25.606	1369.357	1120.496
66.505	25.668	1367.896	1119.585
67.520	25.567	1366.980	1118.112
68.534	25.751	1365.398	1117.862
69.549	25.647	1364.846	1116.665
70.563	25.680	1363.837	1115.943
71.578	25.695	1362.715	1115.022
72.593	25.665	1362.209	1114.323
73.607	25.622	1361.690	1113.529
74.622	25.756	1360.391	1113.198
75.636	25.573	1360.138	1111.763
76.651	25.628	1359.510	1111.490
77.666	25.539	1359.018	1110.438
78.680	25.614	1358.486	1110.374
79.695	25.694	1357.322	1109.811
80.709	25.675	1356.511	1108.937
81.724	25.581	1355.592	1107.508
82.739	25.595	1354.740	1106.797
83.753	25.592	1353.910	1106.003
84.768	25.720	1352.413	1105.471
85.782	25.711	1351.339	1104.442
86.797	25.629	1350.479	1103.137
87.812	25.672	1348.778	1101.914
88.826	25.591	1348.173	1100.824
89.841	25.651	1347.365	1100.435
90.855	25.647	1346.159	1099.326
91.870	25.626	1345.461	1098.532
92.884	25.719	1344.577	1098.282
93.899	25.779	1343.648	1097.787
94.914	25.795	1342.689	1097.008
95.928	25.683	1342.264	1095.879
96.943	25.681	1341.467	1095.123
97.957	25.717	1340.499	1094.452
98.972	25.800	1339.468	1094.017
99.987	25.653	1339.047	1092.688
101.001	25.623	1338.137	1091.664
102.016	25.617	1337.077	1090.667
103.030	25.614	1336.459	1090.047
104.045	25.659	1335.179	1089.177
105.060	25.725	1333.873	1088.417
106.074	25.667	1333.493	1087.661
107.089	25.623	1332.339	1086.357
108.103	25.615	1331.438	1085.477
109.118	25.799	1329.986	1085.309
110.133	25.831	1328.725	1084.372
111.147	25.726	1327.883	1082.961
112.162	25.747	1326.456	1081.826
113.176	25.777	1325.590	1081.205
114.191	25.797	1324.747	1080.542
115.206	25.766	1323.645	1079.359
116.220	25.795	1322.532	1078.533
117.235	25.692	1322.148	1077.504
118.249	25.650	1321.326	1076.490
119.264	25.688	1320.157	1075.667
120.279	25.724	1319.341	1075.122
121.293	25.819	1318.333	1074.776
122.308	25.799	1317.586	1073.951
123.322	25.833	1316.845	1073.452
124.337	25.781	1316.053	1072.406
125.352	25.880	1314.833	1071.906
126.366	25.797	1314.503	1071.046
127.381	25.871	1313.061	1070.218
128.395	25.749	1312.684	1069.091
129.410	25.800	1311.724	1068.516
130.424	25.776	1311.231	1067.880
131.439	25.820	1310.163	1067.175
132.454	25.804	1309.156	1066.166
133.468	25.864	1308.402	1065.811
134.483	25.764	1308.035	1064.829
135.497	25.733	1307.472	1064.090
136.512	25.792	1306.674	1063.696
137.527	25.820	1305.245	1062.605
138.541	25.858	1303.872	1061.616
139.556	25.806	1302.833	1060.370
140.570	25.824	1301.708	1059.465
141.585	25.803	1300.554	1058.312
142.600	25.809	1299.945	1057.756
143.614	25.796	1298.689	1056.562
144.629	25.784	1297.741	1055.630
145.643	25.786	1296.553	1054.579
146.658	25.723	1295.412	1053.191
147.673	25.758	1294.446	1052.516
148.687	25.752	1293.764	1051.836
149.702	25.853	1292.328	1051.163
150.716	25.707	1291.344	1049.420
151.731	25.840	1290.092	1049.085
152.746	25.793	1289.300	1048.074
153.760	25.794	1288.247	1047.131
154.775	25.807	1287.294	1046.336
155.789	25.849	1286.371	1045.739
156.804	25.834	1285.582	1044.920
157.819	25.735	1284.513	1043.382
158.833	25.913	1283.497	1043.498
159.848	25.921	1282.825	1042.903
160.862	25.955	1281.782	1042.161
161.877	25.825	1281.604	1041.174
162.892	25.873	1280.237	1040.248
163.906	25.926	1279.862	1040.158
164.921	25.863	1279.081	1039.065
165.935	25.948	1278.098	1038.664
166.950	25.861	1277.891	1037.905
167.964	25.829	1277.729	1037.496
168.979	25.897	1276.809	1037.046
169.994	25.814	1276.571	1036.287
171.008	25.879	1275.659	1035.830
172.023	25.956	1274.637	1035.346
173.037	25.841	1273.994	1034.071
174.052	25.779	1273.586	1033.293
175.067	25.902	1272.221	1032.804
176.081	26.044	1270.933	1032.480
177.096	25.987	1270.661	1031.840
178.110	25.917	1269.621	1030.506
179.125	25.925	1268.563	1029.599
180.140	25.986	1267.597	1029.071
181.154	25.913	1266.924	1028.015
182.169	25.905	1265.732	1026.915
183.183	25.935	1264.502	1025.993
184.198	25.983	1263.855	1025.655
185.213	25.975	1262.828	1024.683
186.227	26.053	1261.401	1023.878
187.242	26.027	1260.948	1023.272
188.256	25.992	1260.165	1022.348
189.271	26.042	1259.157	1021.726
190.286	25.873	1258.699	1020.304
191.300	25.905	1258.083	1019.894
192.315	25.973	1257.418	1019.649
193.329	25.887	1257.289	1018.970
194.344	26.025	1256.350	1018.897
195.359	26.004	1255.909	1018.334
196.373	25.972	1255.574	1017.787
197.388	26.012	1255.195	1017.618
198.402	25.902	1255.061	1016.799
199.417	25.907	1254.839	1016.554
200.432	26.032	1253.739	1016.281
201.446	26.012	1253.220	1015.659
202.461	26.071	1252.158	1015.040
203.475	26.098	1251.360	1014.454
204.490	25.911	1250.572	1012.675
205.504	26.037	1249.745	1012.624
206.519	26.085	1248.705	1011.957
207.534	26.105	1247.404	1010.929
208.548	25.987	1246.693	1009.602
209.563	26.039	1245.766	1009.049
210.577	26.058	1244.928	1008.390
211.592	26.116	1244.081	1007.937
212.607	26.077	1243.752	1007.367
213.621	26.142	1242.295	1006.460
214.636	26.149	1242.046	1006.204
215.650	26.258	1240.931	1005.822
216.665	26.138	1240.210	1004.482
217.680	26.070	1239.354	1003.319
218.694	26.117	1238.385	1002.707
219.709	26.142	1237.596	1002.119
220.723	26.089	1237.541	1001.690
221.738	26.090	1236.733	1000.956
222.753	26.026	1235.602	999.595
223.767	26.128	1234.968	999.561
224.782	26.145	1234.887	999.500
225.796	26.243	1233.857	999.116
226.811	26.138	1233.505	998.167
227.826	26.207	1233.028	998.074
228.840	26.305	1231.751	997.490
229.855	26.251	1231.616	996.996
230.869	26.126	1231.221	995.896
231.884	26.214	1230.562	995.763
232.899	26.241	1229.192	994.716
233.913	26.165	1229.065	994.106
234.928	26.272	1228.624	994.249
235.942	26.258	1227.751	993.377
236.957	26.228	1227.100	992.596
237.972	26.314	1226.251	992.295
238.986	26.304	1225.830	991.810
240.001	26.301	1225.084	991.107
241.015	26.318	1224.285	990.460
242.030	26.446	1223.250	990.241
243.045	26.335	1222.784	989.168
244.059	26.370	1222.130	988.741
245.074	26.349	1221.442	987.985
246.088	26.426	1220.474	987.532
247.103	26.367	1220.060	986.789
248.117	26.334	1219.024	985.682
249.132	26.342	1218.019	984.824
250.147	26.411	1217.534	984.722
251.161	26.486	1216.577	984.269
252.176	26.525	1215.843	983.801
253.190	26.442	1215.346	982.860
254.205	26.541	1214.574	982.686
255.220	26.410	1214.358	981.715
256.234	26.548	1213.601	981.763
257.249	26.566	1213.058	981.336
258.263	26.540	1212.009	980.258
259.278	26.579	1211.579	980.035
260.293	26.583	1211.257	979.708
261.307	26.566	1210.519	978.936
262.322	26.513	1210.036	978.172
263.336	26.636	1209.286	978.144
264.351	26.605	1208.713	977.424
265.366	26.540	1207.994	976.408
266.380	26.500	1207.893	976.023
267.395	26.547	1206.779	975.292
268.409	26.451	1206.597	974.540
269.424	26.456	1206.008	974.002
270.439	26.359	1205.725	973.168
271.453	26.573	1204.626	973.343
272.468	26.604	1203.101	972.194
273.482	26.585	1202.797	971.759
274.497	26.549	1202.835	971.513
275.512	26.628	1201.868	971.068
276.526	26.553	1201.209	970.049
277.541	26.603	1200.632	969.761
278.555	26.671	1199.781	969.356
279.570	26.584	1199.566	968.627
280.585	26.655	1198.456	968.024
281.599	26.651	1197.500	967.146
282.614	26.632	1196.770	966.372
283.628	26.667	1195.744	965.642
284.643	26.592	1194.998	964.557
285.657	26.712	1194.245	964.504
286.672	26.786	1193.039	963.834
287.687	26.745	1192.636	963.205
288.701	26.601	1191.936	961.789
289.716	26.770	1191.105	961.936
290.730	26.710	1190.315	960.894
291.745	26.742	1189.565	960.368
292.760	26.718	1189.449	960.064
293.774	26.811	1188.568	959.760
294.789	26.841	1188.472	959.759
295.803	26.850	1187.598	959.015
296.818	26.802	1186.950	958.154
297.833	26.810	1186.269	957.560
298.847	26.859	1185.565	957.167
299.862	26.916	1184.369	956.417
300.876	26.887	1183.897	955.796
301.891	26.949	1183.530	955.744
302.906	26.915	1182.643	954.761
303.920	26.829	1182.382	954.015
304.935	26.967	1181.357	953.830
305.949	26.898	1180.646	952.809
306.964	26.872	1180.381	952.376
307.979	26.938	1179.767	952.141
308.993	26.886	1178.989	951.157
310.008	27.054	1177.882	951.059
311.022	26.901	1177.276	949.683
312.037	27.007	1176.600	949.607
313.052	26.966	1175.800	948.664
314.066	27.029	1174.771	948.078
315.081	27.008	1174.025	947.284
316.095	26.982	1173.985	947.030
317.110	27.042	1173.075	946.528
318.125	27.035	1172.439	945.892
319.139	27.047	1171.681	945.261
320.154	26.985	1171.286	944.535
321.168	26.984	1170.902	944.138
322.183	27.080	1169.919	943.760
323.197	27.077	1169.124	943.023
324.212	27.105	1168.685	942.727
325.227	27.147	1168.161	942.442
326.241	26.956	1168.309	941.485
327.256	27.039	1166.853	940.660
328.270	27.094	1166.314	940.427
329.285	27.171	1165.020	939.699
330.300	27.149	1164.468	939.057
331.314	27.049	1163.881	937.980
332.329	27.103	1163.004	937.469
333.343	27.257	1162.162	937.504
334.358	27.208	1161.372	936.528
335.373	27.397	1160.502	936.717
336.387	27.247	1159.996	935.456
337.402	27.127	1159.728	934.538
338.416	27.231	1158.977	934.388
339.431	27.370	1157.990	934.222
340.446	27.323	1157.283	933.329
341.460	27.260	1156.979	932.676
342.475	27.377	1156.127	932.509
343.489	27.484	1155.016	932.076
344.504	27.334	1154.541	930.841
345.519	27.385	1153.336	930.050
346.533	27.364	1152.689	929.338
347.548	27.343	1152.100	928.673
348.562	27.393	1151.016	927.973
349.577	27.450	1150.086	927.432
350.592	27.444	1149.554	926.891
351.606	27.398	1149.197	926.287
352.621	27.341	1148.677	925.492
353.635	27.390	1148.180	925.259
354.650	27.365	1147.769	924.721
355.665	27.585	1146.492	924.725
356.679	27.465	1146.160	923.769
357.694	27.465	1145.324	923.014
358.708	27.492	1144.740	922.597
359.723	27.449	1144.142	921.819
360.738	27.404	1143.335	920.858
361.752	27.416	1143.174	920.707
362.767	27.381	1142.719	920.082
363.781	27.427	1142.079	919.719
364.796	27.604	1141.128	919.765
365.810	27.601	1140.644	919.279
366.825	27.651	1140.010	918.934
367.840	27.641	1139.636	918.502
368.854	27.686	1138.995	918.134
369.869	27.720	1138.218	917.598
370.883	27.633	1137.699	916.658
371.898	27.678	1136.819	916.092
372.913	27.516	1136.398	914.862
373.927	27.606	1136.023	914.928
374.942	27.694	1135.336	914.738
375.956	27.691	1134.916	914.300
376.971	27.660	1133.999	913.329
377.986	27.662	1133.516	912.867
379.000	27.695	1132.894	912.452
380.015	27.665	1132.749	912.105
381.029	27.698	1131.837	911.453
382.044	27.768	1131.235	911.237
383.059	27.942	1130.096	911.108
384.073	27.873	1129.721	910.379
385.088	27.795	1128.928	909.272
386.102	27.767	1128.264	908.518
387.117	27.794	1127.299	907.794
388.132	27.777	1126.368	906.878
389.146	27.850	1125.885	906.774
390.161	27.833	1125.357	906.183
391.175	27.877	1124.582	905.699
392.190	27.893	1123.808	905.071
393.205	28.032	1123.172	905.167
394.219	27.897	1122.201	903.637
395.234	27.954	1121.591	903.349
396.248	27.946	1120.909	902.681
397.263	27.903	1119.673	901.392
398.278	27.938	1119.481	901.332
399.292	27.923	1119.016	900.805
400.307	28.000	1118.192	900.440
401.321	27.953	1117.525	899.592
402.336	28.045	1116.584	899.205
403.350	27.948	1116.298	898.421
404.365	28.068	1115.585	898.355
405.380	28.002	1114.977	897.461
406.394	28.102	1113.791	896.917
407.409	28.075	1113.369	896.367
408.423	28.133	1112.349	895.750
409.438	28.085	1111.784	894.984
410.453	28.168	1111.292	894.911
411.467	28.213	1110.806	894.663
412.482	28.115	1110.030	893.479
413.496	28.254	1109.038	893.279
414.511	28.170	1108.447	892.315
415.526	28.053	1108.444	891.665
416.540	28.265	1107.585	891.925
417.555	28.200	1107.210	891.227
418.569	28.277	1106.505	890.956
419.584	28.343	1106.155	890.917
420.599	28.294	1105.988	890.466
421.613	87.770	1299.683	1372.383
422.628	82.263	1327.892	1372.495
