DTS Sentinel unit serial number:	SN413079Multiplexer serial number:	ORYXHardware model number:	OX4-SRSoftware version number:	ORYX F/W v4.00 Oryx Data Collector v3.7.2.0data status	okinstallation	princeton_trtdifferential loss correction	single-endedforward channel	channel 2reverse channel	N/Adate	2019/09/14time	19:07:35forward acquisition time	60.00reverse acquisition time	0.00gamma	496.2192k internal	0.2321k external	0.2321temperature offset calibration	1.0097default loss term (dB/km)	0.3790temperature slope calibration	1.0000multiplexer offset coefficient	1.0000multiplexer slope coefficient	1.0000fibre end	0.00T internal ref (°C)	35.42T ext. ref 1 (°C)	4.87T ext. ref 2 (°C)	29.34length (m)	temperature (°C)	Stokes	anti-Stokes-747.200	-83.417	0.026	-0.008
-746.185	-39.261	-0.068	0.036
-745.171	29.128	0.242	-0.208
-744.156	-130.393	-0.280	-0.038
-743.142	800.000	0.029	0.097
-742.127	477.650	0.126	0.289
-741.112	348.910	0.128	0.256
-740.098	-200.000	-0.038	0.330
-739.083	103.030	-0.163	-0.193
-738.069	-31.261	-0.309	-0.176
-737.054	-200.000	-0.006	-0.218
-736.039	-62.678	-0.175	0.073
-735.025	-83.641	0.185	0.060
-734.010	152.443	-0.155	-0.214
-732.996	800.000	-0.057	0.176
-731.981	-134.946	0.276	0.034
-730.966	-77.160	-0.098	0.034
-729.952	198.246	-0.050	-0.077
-728.937	240.419	-0.167	0.282
-727.923	-70.068	0.200	-0.077
-726.908	800.000	0.021	0.082
-725.894	-200.000	-0.035	-0.245
-724.879	-93.563	-0.093	-0.026
-723.864	-96.314	-0.135	0.036
-722.850	-54.642	0.349	0.159
-721.835	1.669	-0.172	0.125
-720.821	67.789	0.210	-0.217
-719.806	800.000	0.063	-0.230
-718.791	12.155	-0.259	-0.201
-717.777	298.561	0.034	0.063
-716.762	-113.068	0.193	-0.039
-715.748	336.498	0.059	-0.117
-714.733	-100.575	-0.269	0.067
-713.718	800.000	0.040	0.136
-712.704	-9.392	-0.064	-0.043
-711.689	-162.133	0.204	-0.010
-710.675	-112.252	-0.404	0.082
-709.660	-129.137	-0.065	-0.009
-708.645	-200.000	-0.027	-0.378
-707.631	800.000	0.064	-0.203
-706.616	800.000	-0.062	0.191
-705.602	-69.189	0.240	0.093
-704.587	427.463	0.036	0.078
-703.572	-147.896	0.194	0.016
-702.558	-200.000	-0.007	-0.215
-701.543	-200.000	0.065	-0.371
-700.529	-200.000	-0.042	0.216
-699.514	93.887	0.119	-0.137
-698.499	-200.000	-0.029	-0.242
-697.485	136.666	0.174	-0.229
-696.470	7.381	-0.189	-0.143
-695.456	48.964	-0.108	-0.102
-694.441	-1.268	0.180	-0.128
-693.426	7.318	-0.204	-0.154
-692.412	-200.000	0.053	-0.335
-691.397	-75.092	0.224	-0.081
-690.383	-200.000	0.004	0.058
-689.368	678.596	-0.039	0.104
-688.354	111.299	0.184	0.224
-687.339	-60.412	0.146	-0.063
-686.324	82.246	-0.253	-0.277
-685.310	668.615	0.053	0.139
-684.295	30.945	0.270	0.234
-683.281	72.316	-0.141	0.148
-682.266	82.312	0.187	0.204
-681.251	63.605	-0.215	-0.218
-680.237	38.590	-0.089	-0.080
-679.222	-73.095	-0.325	0.120
-678.208	409.184	0.126	-0.269
-677.193	393.343	0.278	0.583
-676.178	-152.706	0.080	-0.006
-675.164	-75.438	-0.230	-0.082
-674.149	-52.490	-0.267	0.125
-673.135	284.169	-0.041	-0.074
-672.120	42.787	0.162	-0.149
-671.105	-10.420	-0.152	-0.102
-670.091	-200.000	-0.003	-0.138
-669.076	-200.000	-0.016	0.118
-668.062	-3.291	0.083	0.058
-667.047	800.000	-0.061	-0.214
-666.032	-75.017	-0.044	-0.016
-665.018	559.188	-0.025	0.062
-664.003	-200.000	0.016	-0.172
-662.989	-142.144	-0.188	-0.019
-661.974	-56.578	0.055	0.025
-660.959	800.000	-0.149	-0.457
-659.945	446.219	0.078	0.173
-658.930	-114.131	-0.206	0.040
-657.916	-200.000	-0.090	-0.424
-656.901	182.178	-0.037	-0.054
-655.886	283.323	0.108	-0.196
-654.872	14.668	0.123	-0.096
-653.857	800.000	-0.122	-0.344
-652.843	-69.325	0.069	-0.027
-651.828	-200.000	0.024	0.223
-650.814	-175.210	-0.212	-0.006
-649.799	-162.772	-0.203	0.010
-648.784	-56.621	-0.274	-0.122
-647.770	-47.947	0.380	0.185
-646.755	-114.891	0.152	-0.029
-645.741	189.210	-0.150	-0.226
-644.726	-91.332	-0.326	-0.094
-643.711	163.123	-0.118	-0.167
-642.697	-16.572	0.214	0.136
-641.682	800.000	0.024	-0.078
-640.668	-164.484	-0.378	-0.017
-639.653	800.000	-0.064	0.248
-638.638	-113.526	-0.147	0.029
-637.624	153.462	0.104	0.143
-636.609	56.258	-0.235	-0.230
-635.595	-47.962	0.196	0.095
-634.580	272.325	0.051	-0.090
-633.565	-200.000	0.032	0.182
-632.551	-5.587	-0.173	-0.119
-631.536	-77.333	0.137	0.048
-630.522	-106.720	0.159	0.035
-629.507	-137.005	0.376	0.043
-628.492	-85.323	-0.153	-0.048
-627.478	443.939	0.114	0.252
-626.463	-138.821	-0.213	-0.023
-625.449	800.000	-0.054	-0.165
-624.434	-200.000	0.040	0.363
-623.419	188.296	0.159	0.239
-622.405	-29.349	-0.560	0.322
-621.390	123.767	0.147	-0.185
-620.376	-103.893	-0.098	-0.023
-619.361	-60.954	-0.356	-0.151
-618.346	15.116	0.080	0.063
-617.332	194.602	-0.122	0.186
-616.317	-102.945	-0.205	0.049
-615.303	21.558	-0.219	-0.180
-614.288	-200.000	0.050	-0.445
-613.273	-200.000	0.012	0.060
-612.259	141.914	0.109	0.145
-611.244	-200.000	-0.003	-0.079
-610.230	105.644	-0.275	-0.327
-609.215	55.648	0.110	-0.107
-608.201	-118.543	-0.516	-0.092
-607.186	-25.338	-0.221	0.132
-606.171	800.000	0.011	-0.043
-605.157	-27.806	0.063	-0.037
-604.142	526.829	0.067	0.158
-603.128	142.039	-0.240	0.320
-602.113	242.628	-0.114	0.191
-601.098	-2.112	0.366	-0.258
-600.084	-200.000	0.001	0.160
-599.069	-200.000	0.044	-0.298
-598.055	19.553	0.175	-0.141
-597.040	-200.000	0.021	-0.289
-596.025	293.075	0.082	0.151
-595.011	68.120	-0.251	0.258
-593.996	89.025	0.077	-0.087
-592.982	227.524	-0.066	0.108
-591.967	-162.230	0.061	-0.003
-590.952	-133.317	-0.172	0.022
-589.938	80.542	0.142	-0.154
-588.923	-200.000	-0.028	0.188
-587.909	-132.370	-0.328	0.043
-586.894	52.891	0.289	-0.277
-585.879	-119.739	0.218	0.038
-584.865	-90.225	-0.124	0.036
-583.850	-3.745	0.148	0.104
-582.836	-200.000	0.056	0.336
-581.821	387.181	0.103	0.214
-580.806	-89.014	0.221	0.066
-579.792	-200.000	0.081	0.497
-578.777	429.389	-0.065	-0.141
-577.763	-200.000	-0.067	0.452
-576.748	338.178	-0.048	-0.094
-575.733	69.550	0.232	0.240
-574.719	-64.417	-0.215	-0.088
-573.704	32.308	-0.171	-0.148
-572.690	-200.000	-0.003	-0.117
-571.675	-128.588	0.179	-0.025
-570.661	-151.199	0.085	0.006
-569.646	800.000	-0.048	0.162
-568.631	17.101	-0.278	0.221
-567.617	16.330	-0.062	0.049
-566.602	-200.000	-0.004	-0.363
-565.588	-77.573	-0.305	-0.106
-564.573	-13.311	-0.260	-0.170
-563.558	332.043	0.085	-0.164
-562.544	-30.846	0.107	-0.061
-561.529	-110.677	0.217	-0.045
-560.515	800.000	-0.024	-0.077
-559.500	72.410	0.134	0.140
-558.485	124.229	0.223	0.281
-557.471	-164.680	0.343	-0.016
-556.456	595.769	0.050	-0.123
-555.442	-200.000	0.223	0.000
-554.427	-95.873	0.268	-0.072
-553.412	216.937	-0.148	-0.236
-552.398	231.304	-0.165	0.271
-551.383	-200.000	-0.027	0.303
-550.369	-200.000	0.005	0.262
-549.354	800.000	-0.106	-0.301
-548.339	70.140	-0.158	-0.164
-547.325	619.353	0.146	-0.369
-546.310	-139.359	-0.260	-0.028
-545.296	-83.918	-0.384	-0.122
-544.281	20.744	-0.208	0.169
-543.266	-200.000	-0.028	-0.232
-542.252	16.617	-0.176	0.140
-541.237	-94.475	-0.157	0.043
-540.223	-5.446	-0.205	0.141
-539.208	-142.646	0.203	0.020
-538.193	-200.000	0.015	0.292
-537.179	26.916	0.123	0.104
-536.164	-54.658	0.152	0.069
-535.150	403.242	0.155	-0.327
-534.135	-138.329	-0.414	0.046
-533.121	-200.000	0.027	0.181
-532.106	-126.491	0.222	0.033
-531.091	-77.246	-0.189	-0.066
-530.077	-146.320	0.257	0.023
-529.062	301.934	0.117	0.216
-528.048	-110.675	0.149	-0.031
-527.033	267.986	0.176	0.309
-526.018	-25.636	-0.315	0.186
-525.004	800.000	0.154	0.464
-523.989	-157.521	0.338	-0.020
-522.975	-115.364	-0.232	-0.044
-521.960	-26.426	0.110	0.064
-520.945	-51.993	0.361	-0.168
-519.931	222.039	-0.195	0.314
-518.916	-200.000	-0.006	-0.110
-517.902	-148.363	0.231	0.019
-516.887	-54.296	-0.179	0.082
-515.872	-200.000	-0.047	0.259
-514.858	-17.399	0.141	0.089
-513.843	-200.000	-0.037	-0.257
-512.829	574.670	0.112	0.273
-511.814	-68.080	-0.117	-0.045
-510.799	354.504	0.077	-0.153
-509.785	-94.462	0.182	0.050
-508.770	-21.032	0.151	0.093
-507.756	102.227	-0.140	-0.164
-506.741	145.638	-0.060	0.081
-505.726	-200.000	0.006	-0.122
-504.712	-28.731	-0.105	0.060
-503.697	800.000	-0.015	0.056
-502.683	-22.594	0.134	0.081
-501.668	-88.162	0.093	-0.028
-500.653	92.248	0.170	-0.192
-499.639	800.000	-0.018	0.050
-498.624	800.000	0.006	-0.023
-497.610	-148.245	0.127	-0.010
-496.595	-200.000	-0.022	0.281
-495.581	-181.762	0.349	0.007
-494.566	-200.000	-0.059	0.303
-493.551	-87.167	-0.166	-0.051
-492.537	127.648	0.081	-0.103
-491.522	-127.119	-0.272	-0.040
-490.508	348.706	0.069	-0.136
-489.493	76.349	-0.098	-0.104
-488.478	9.721	-0.288	0.218
-487.464	27.485	-0.094	-0.079
-486.449	-59.423	0.207	0.089
-485.435	133.680	-0.175	0.226
-484.420	361.907	0.023	-0.045
-483.405	212.580	0.010	-0.015
-482.391	-200.000	0.037	-0.218
-481.376	-32.587	0.159	-0.088
-480.362	-200.000	0.053	-0.265
-479.347	-89.407	0.044	-0.013
-478.332	-200.000	0.041	-0.299
-477.318	193.799	-0.067	-0.101
-476.303	388.262	0.113	-0.234
-475.289	-161.789	0.212	-0.011
-474.274	-200.000	0.041	-0.200
-473.259	751.221	-0.078	0.210
-472.245	724.501	0.080	0.213
-471.230	-61.247	-0.152	0.064
-470.216	800.000	-0.079	-0.319
-469.201	-94.410	0.170	0.046
-468.186	-200.000	0.001	0.127
-467.172	800.000	0.030	0.109
-466.157	-200.000	0.040	-0.246
-465.143	523.415	0.052	0.122
-464.128	5.618	-0.152	0.112
-463.113	-3.432	0.068	-0.047
-462.099	-20.532	-0.242	-0.148
-461.084	800.000	0.049	-0.160
-460.070	77.314	0.149	0.159
-459.055	800.000	0.072	0.287
-458.040	800.000	-0.027	-0.087
-457.026	-200.000	0.007	0.352
-456.011	800.000	0.159	-0.492
-454.997	257.215	-0.239	-0.410
-453.982	-200.000	-0.008	0.078
-452.968	-92.452	0.289	0.081
-451.953	-27.391	-0.465	-0.271
-450.938	-84.625	-0.261	0.082
-449.924	15.691	-0.083	-0.065
-448.909	-200.000	-0.063	-0.377
-447.895	-125.191	-0.237	0.036
-446.880	81.096	-0.187	0.202
-445.865	671.297	0.105	-0.272
-444.851	-159.504	0.186	-0.010
-443.836	-55.400	-0.134	-0.060
-442.822	262.839	-0.187	0.324
-441.807	22.533	0.261	0.213
-440.792	-200.000	0.011	-0.189
-439.778	-8.168	0.262	0.176
-438.763	155.795	-0.100	-0.138
-437.749	90.847	0.206	-0.231
-436.734	-66.167	0.221	0.088
-435.719	34.187	0.164	-0.143
-434.705	164.863	-0.104	-0.146
-433.690	152.813	-0.102	-0.139
-432.676	11.125	0.094	-0.072
-431.661	-200.000	0.054	-0.324
-430.646	800.000	-0.129	-0.358
-429.632	120.276	-0.143	-0.177
-428.617	510.803	0.089	0.207
-427.603	800.000	-0.057	0.226
-426.588	-119.678	-0.063	-0.011
-425.573	57.600	-0.145	0.142
-424.559	-156.003	-0.240	0.015
-423.544	-120.626	-0.150	0.025
-422.530	-68.476	0.100	-0.039
-421.515	-51.589	-0.192	0.089
-420.500	-85.216	0.223	0.069
-419.486	-92.508	-0.241	0.068
-418.471	-128.903	0.297	0.042
-417.457	133.133	-0.109	0.141
-416.442	504.838	-0.075	-0.174
-415.428	315.314	-0.066	-0.123
-414.413	-65.996	0.084	-0.033
-413.398	-25.709	0.187	-0.110
-412.384	-200.000	0.010	-0.163
-411.369	-77.201	0.203	0.071
-410.355	800.000	0.019	-0.055
-409.340	-76.920	-0.146	-0.051
-408.325	-128.544	-0.176	-0.025
-407.311	490.413	-0.166	-0.379
-406.296	166.529	0.204	-0.289
-405.282	-179.376	0.453	0.010
-404.267	-200.000	0.046	0.259
-403.252	-132.591	0.319	0.041
-402.238	-126.099	0.083	0.012
-401.223	-140.382	-0.059	0.006
-400.209	177.725	-0.037	0.054
-399.194	65.817	0.212	0.214
-398.179	511.930	-0.099	0.230
-397.165	-77.202	0.091	-0.032
-396.150	254.948	-0.185	-0.316
-395.136	45.731	0.390	-0.359
-394.121	-163.954	-0.371	0.017
-393.106	800.000	0.082	-0.274
-392.092	-200.000	-0.027	0.246
-391.077	40.661	-0.140	0.126
-390.063	-200.000	-0.028	-0.237
-389.048	194.495	0.141	0.213
-388.033	-104.496	-0.249	-0.057
-387.019	-51.335	-0.283	-0.132
-386.004	33.813	-0.203	0.176
-384.990	16.764	-0.379	0.299
-383.975	-142.468	-0.374	-0.037
-382.960	800.000	-0.027	0.082
-381.946	-92.080	-0.254	0.072
-380.931	-200.000	-0.030	-0.387
-379.917	550.619	0.088	-0.210
-378.902	-98.179	-0.450	-0.115
-377.888	-200.000	0.010	-0.183
-376.873	469.329	-0.033	-0.073
-375.858	-81.692	0.145	-0.047
-374.844	-35.048	-0.135	0.073
-373.829	-66.418	0.422	0.167
-372.815	80.360	-0.126	-0.135
-371.800	-50.807	0.281	-0.132
-370.785	4.997	-0.211	0.155
-369.771	-200.000	0.005	-0.064
-368.756	-200.000	-0.018	0.173
-367.742	103.993	0.078	-0.091
-366.727	118.123	-0.117	0.144
-365.712	214.165	-0.062	0.098
-364.698	800.000	-0.108	-0.404
-363.683	461.914	0.174	0.385
-362.669	161.690	-0.037	0.051
-361.654	100.332	0.111	0.128
-360.639	48.448	0.191	-0.178
-359.625	538.628	-0.039	0.091
-358.610	-85.106	0.130	0.041
-357.596	-66.365	-0.225	0.089
-356.581	800.000	0.118	-0.405
-355.566	68.201	-0.106	-0.108
-354.552	213.866	0.062	0.097
-353.537	-136.291	-0.121	-0.014
-352.523	97.421	-0.172	-0.196
-351.508	-91.039	0.344	-0.098
-350.493	-9.338	0.380	-0.253
-349.479	-145.190	-0.233	-0.021
-348.464	-62.198	-0.115	-0.048
-347.450	40.475	0.137	0.123
-346.435	-58.328	-0.309	0.134
-345.420	144.338	0.139	-0.185
-344.406	-45.741	-0.206	0.101
-343.391	-25.564	0.287	-0.168
-342.377	800.000	-0.104	-0.306
-341.362	167.675	0.089	-0.126
-340.348	800.000	0.041	0.117
-339.333	-177.509	-0.346	-0.008
-338.318	800.000	-0.052	0.170
-337.304	-119.766	-0.008	0.001
-336.289	-200.000	-0.009	-0.049
-335.275	70.895	-0.227	0.234
-334.260	42.032	-0.110	0.099
-333.245	80.209	-0.270	0.288
-332.231	-49.658	0.103	-0.049
-331.216	-16.407	-0.147	-0.092
-330.202	-200.000	-0.008	-0.082
-329.187	161.018	0.109	0.151
-328.172	-200.000	-0.015	-0.176
-327.158	461.189	-0.048	-0.106
-326.143	-4.498	0.064	-0.044
-325.129	-138.429	0.155	0.017
-324.114	104.234	0.229	0.268
-323.099	-125.773	0.109	-0.016
-322.085	-101.760	-0.352	0.085
-321.070	438.923	0.032	-0.069
-320.056	-113.937	-0.430	0.083
-319.041	-24.172	0.137	-0.081
-318.026	-115.135	-0.108	-0.020
-317.012	-93.490	-0.055	-0.015
-315.997	-200.000	0.029	0.219
-314.983	31.690	0.129	-0.111
-313.968	-106.828	-0.112	-0.025
-312.953	-174.983	-0.135	0.004
-311.939	52.256	0.162	-0.153
-310.924	98.568	-0.122	0.140
-309.910	304.972	0.033	-0.060
-308.895	-11.786	0.127	0.083
-307.880	-123.074	0.195	-0.031
-306.866	-145.498	0.453	-0.040
-305.851	-104.604	-0.264	0.061
-304.837	133.900	-0.106	-0.136
-303.822	-200.000	0.038	-0.223
-302.807	195.217	-0.057	-0.087
-301.793	800.000	0.060	-0.177
-300.778	-200.000	-0.025	-0.208
-299.764	-133.562	-0.074	0.009
-298.749	124.758	-0.107	-0.134
-297.735	117.782	0.117	0.143
-296.720	-11.942	-0.281	-0.183
-295.705	-49.039	0.326	-0.155
-294.691	-102.858	0.291	-0.069
-293.676	30.668	-0.101	-0.086
-292.662	-200.000	0.023	0.266
-291.647	-156.944	-0.280	-0.017
-290.632	-71.992	0.195	0.072
-289.618	163.370	0.166	0.232
-288.603	-200.000	0.015	-0.144
-287.589	-101.110	-0.196	0.048
-286.574	-20.798	-0.135	-0.082
-285.559	-112.755	0.135	0.027
-284.545	458.421	0.173	0.382
-283.530	202.084	0.045	0.069
-282.516	124.521	-0.139	-0.174
-281.501	800.000	0.057	-0.179
-280.486	-52.330	0.058	0.027
-279.472	88.850	0.092	-0.102
-278.457	148.759	-0.237	-0.317
-277.443	54.980	-0.162	-0.155
-276.428	800.000	-0.067	0.189
-275.413	-32.360	-0.123	-0.068
-274.399	-156.651	-0.077	-0.005
-273.384	-51.157	0.172	-0.080
-272.370	-200.000	0.001	0.148
-271.355	188.195	-0.094	-0.140
-270.340	-194.146	0.168	0.001
-269.326	-184.645	0.527	-0.008
-268.311	260.739	-0.068	-0.117
-267.297	-128.598	0.123	0.017
-266.282	-30.379	-0.218	-0.122
-265.267	-58.516	0.061	-0.026
-264.253	-200.000	0.008	0.335
-263.238	155.545	0.176	-0.241
-262.224	49.777	0.054	0.051
-261.209	63.458	0.198	0.197
-260.195	-6.217	-0.143	-0.097
-259.180	-180.078	-0.277	0.006
-258.165	292.237	-0.122	-0.220
-257.151	800.000	0.080	-0.251
-256.136	-106.442	0.064	0.014
-255.122	437.068	0.061	-0.132
-254.107	-59.684	0.069	0.029
-253.092	106.011	-0.062	0.072
-252.078	622.317	0.074	-0.185
-251.063	-200.000	0.004	0.265
-250.049	-45.846	0.231	0.113
-249.034	-200.000	0.020	0.241
-248.019	800.000	-0.083	0.261
-247.005	-8.754	0.203	-0.135
-245.990	-200.000	-0.015	-0.211
-244.976	223.805	-0.073	0.116
-243.961	-34.548	0.213	-0.115
-242.946	97.208	0.097	0.110
-241.932	-158.819	0.138	-0.008
-240.917	-18.888	0.112	0.069
-239.903	-81.474	-0.155	-0.051
-238.888	-42.245	0.066	0.033
-237.873	674.989	0.191	-0.491
-236.859	-200.000	0.025	0.260
-235.844	-52.663	-0.199	-0.091
-234.830	130.733	0.232	0.295
-233.815	-200.000	0.010	-0.264
-232.800	152.157	-0.134	-0.182
-231.786	94.004	0.076	-0.086
-230.771	-94.542	-0.407	0.110
-229.757	148.503	0.090	0.120
-228.742	-200.000	-0.025	0.352
-227.727	225.776	0.171	0.274
-226.713	-59.522	-0.245	-0.104
-225.698	12.607	-0.391	0.299
-224.684	-76.988	0.328	0.113
-223.669	-106.970	0.184	0.040
-222.655	538.838	0.010	-0.023
-221.640	200.086	-0.003	0.004
-220.625	512.161	-0.092	0.213
-219.611	206.534	0.057	-0.088
-218.596	800.000	-0.052	0.189
-217.582	-25.516	-0.192	-0.112
-216.567	-21.664	0.294	0.177
-215.552	-75.310	-0.104	0.037
-214.538	53.064	-0.225	-0.213
-213.523	800.000	-0.104	-0.363
-212.509	21.201	0.085	0.068
-211.494	-40.761	-0.173	0.089
-210.479	-23.383	-0.104	0.062
-209.465	-99.534	-0.217	-0.054
-208.450	6.097	0.080	0.059
-207.436	-187.636	0.258	-0.003
-206.421	270.864	-0.184	0.321
-205.406	69.723	-0.103	-0.105
-204.392	-9.962	0.270	0.178
-203.377	118.355	-0.161	0.197
-202.363	282.052	0.173	-0.307
-201.348	-54.628	0.060	-0.027
-200.333	178.851	0.298	0.431
-199.319	-200.000	0.025	-0.150
-198.304	68.938	0.318	-0.323
-197.290	25.865	-0.011	-0.009
-196.275	11.883	0.239	0.182
-195.260	279.930	0.106	-0.187
-194.246	1.519	0.091	-0.064
-193.231	164.662	0.164	-0.229
-192.217	56.527	0.094	-0.091
-191.202	265.891	-0.101	-0.175
-190.187	-87.571	-0.317	-0.095
-189.173	-200.000	0.046	0.276
-188.158	-60.893	0.381	-0.159
-187.144	193.734	-0.250	0.374
-186.129	-62.610	-0.071	0.029
-185.114	350.814	0.061	0.119
-184.100	-7.149	-0.265	-0.178
-183.085	-200.000	0.024	0.121
-182.071	-67.451	0.107	0.042
-181.056	800.000	-0.010	0.029
-180.042	35.419	0.303	0.263
-179.027	-120.912	-0.204	0.034
-178.012	50.538	-0.203	0.190
-176.998	87.930	0.135	0.148
-175.983	800.000	0.013	0.053
-174.969	-88.338	0.294	0.087
-173.954	-115.676	-0.380	-0.070
-172.939	-200.000	-0.063	0.448
-171.925	-200.000	-0.060	0.319
-170.910	-27.877	0.153	-0.088
-169.896	800.000	0.058	0.202
-168.881	-22.666	0.080	-0.048
-167.866	-200.000	0.063	-0.393
-166.852	-191.424	0.071	-0.001
-165.837	-200.000	0.030	0.179
-164.823	269.530	0.061	-0.106
-163.808	-185.609	0.037	-0.001
-162.793	-200.000	-0.001	-0.198
-161.779	184.301	-0.070	0.103
-160.764	-200.000	-0.024	-0.118
-159.750	-200.000	-0.048	-0.237
-158.735	-59.798	0.227	-0.096
-157.720	156.829	0.293	0.400
-156.706	97.624	0.206	0.234
-155.691	16.138	0.098	0.076
-154.677	-45.666	0.185	-0.090
-153.662	21.928	0.072	0.058
-152.647	480.528	0.079	-0.176
-151.633	28.919	-0.156	0.131
-150.618	800.000	0.119	-0.453
-149.604	70.691	0.158	0.162
-148.589	-200.000	-0.060	-0.275
-147.574	68.159	0.181	0.183
-146.560	-200.000	-0.068	-0.326
-145.545	-114.956	0.183	-0.034
-144.531	13.820	-0.197	-0.151
-143.516	40.452	-0.008	-0.008
-142.502	800.000	0.046	0.146
-141.487	-105.720	0.157	0.035
-140.472	-105.513	-0.117	0.026
-139.458	-147.051	0.351	0.030
-138.443	-200.000	-0.022	-0.209
-137.429	101.020	0.238	-0.273
-136.414	223.661	0.103	-0.164
-135.399	706.716	0.082	0.213
-134.385	79.748	-0.063	0.067
-133.370	-22.073	-0.301	0.181
-132.356	33.481	-0.151	-0.129
-131.341	178.699	0.196	0.283
-130.326	-128.156	0.227	-0.032
-129.312	65.682	-0.106	-0.106
-128.297	46.953	0.333	-0.305
-127.283	800.000	-0.024	0.082
-126.268	-128.065	0.063	0.009
-125.253	-4.225	0.100	0.068
-124.239	-79.159	-0.046	-0.015
-123.224	10.613	0.130	0.098
-122.210	-200.000	-0.013	-0.443
-121.195	49.338	-0.070	0.065
-120.180	-100.444	0.246	0.060
-119.166	393.275	-0.028	0.058
-118.151	401.859	-0.110	0.229
-117.137	-96.519	-0.258	0.067
-116.122	-116.036	0.194	-0.036
-115.107	440.840	0.125	-0.270
-114.093	800.000	0.080	-0.256
-113.078	800.000	-0.025	0.104
-112.064	771.135	-0.056	-0.150
-111.049	178.720	-0.088	0.126
-110.034	465.718	0.113	0.250
-109.020	77.656	0.176	0.185
-108.005	134.306	-0.147	0.188
-106.991	656.120	0.071	0.180
-105.976	-7.790	-0.237	-0.158
-104.962	-200.000	0.011	-0.078
-103.947	26.821	-0.070	0.058
-102.932	-98.217	0.119	-0.030
-101.918	211.435	-0.032	-0.049
-100.903	101.126	0.091	-0.104
-99.889	-25.122	0.336	0.197
-98.874	-102.448	0.050	-0.012
-97.859	1.801	0.158	-0.113
-96.845	-23.402	0.156	-0.092
-95.830	-131.265	-0.169	-0.022
-94.816	84.244	-0.119	-0.128
-93.801	-188.938	-0.097	-0.001
-92.786	-60.910	0.168	0.070
-91.772	-200.000	-0.024	0.222
-90.757	-161.029	0.101	0.005
-89.743	-128.201	-0.304	-0.043
-88.728	800.000	-0.028	0.076
-87.713	-112.885	-0.124	-0.024
-86.699	437.238	0.178	0.381
-85.684	6.103	0.101	0.074
-84.670	-74.407	0.039	-0.014
-83.655	133.328	-0.104	-0.132
-82.640	-35.953	0.133	0.071
-81.626	-27.847	-0.142	-0.081
-80.611	366.091	0.122	-0.242
-79.597	-50.716	-0.137	-0.064
-78.582	32.932	-0.263	0.224
-77.567	-125.115	0.096	-0.014
-76.553	381.022	-0.115	0.232
-75.538	201.876	-0.082	0.125
-74.524	-102.542	0.311	0.073
-73.509	8.400	0.282	0.209
-72.494	-36.685	0.377	0.199
-71.480	-128.199	0.103	-0.014
-70.465	-53.546	0.047	-0.021
-69.451	-90.416	0.581	0.166
-68.436	390.403	0.252	-0.515
-67.422	-21.463	-0.148	0.089
-66.407	-200.000	0.014	-0.277
-65.392	115.726	0.059	0.071
-64.378	-43.053	0.110	0.055
-63.363	75.480	0.161	0.167
-62.349	49.965	0.269	-0.250
-61.334	46.014	-1.013	-0.923
-60.319	219.581	0.322	0.507
-59.305	-200.000	0.115	-0.880
-58.290	181.742	0.661	0.958
-57.276	800.000	0.698	1.931
-56.261	-200.000	95.962	575.927
-55.246	668.207	1378.853	3508.678
-54.232	190.993	2593.735	3838.453
-53.217	119.099	2291.639	2787.776
-52.203	45.371	1908.346	1732.129
-51.188	38.778	1696.018	1489.482
-50.173	35.876	1651.638	1428.945
-49.159	53.483	1700.365	1604.047
-48.144	57.331	1717.569	1649.128
-47.130	38.493	1673.534	1467.367
-46.115	35.510	1658.383	1431.823
-45.100	35.296	1653.813	1426.229
-44.086	35.260	1651.108	1423.572
-43.071	35.376	1648.125	1421.801
-42.057	35.245	1646.075	1419.008
-41.042	35.303	1643.787	1417.410
-40.027	35.282	1642.072	1415.719
-39.013	35.396	1639.684	1414.441
-37.998	35.253	1638.500	1412.314
-36.984	35.275	1637.497	1411.551
-35.969	35.380	1635.905	1410.898
-34.954	35.386	1634.421	1409.604
-33.940	35.453	1632.241	1408.159
-32.925	35.435	1630.770	1406.709
-31.911	35.449	1628.741	1405.004
-30.896	35.448	1627.003	1403.442
-29.881	35.347	1625.905	1401.699
-28.867	35.391	1623.973	1400.299
-27.852	35.427	1622.860	1399.545
-26.838	35.403	1621.321	1397.987
-25.823	35.464	1619.036	1396.403
-24.809	35.534	1618.059	1396.019
-23.794	35.447	1616.791	1394.237
-22.779	35.515	1615.116	1393.232
-21.765	35.455	1613.778	1391.588
-20.750	35.424	1612.020	1389.790
-19.736	35.412	1610.559	1388.390
-18.721	35.509	1608.736	1387.462
-17.706	35.482	1607.232	1385.917
-16.692	35.394	1605.778	1383.969
-15.677	35.383	1604.450	1382.691
-14.663	35.446	1603.031	1381.868
-13.648	35.449	1601.658	1380.649
-12.633	35.442	1600.092	1379.196
-11.619	35.455	1598.806	1378.124
-10.604	35.438	1597.010	1376.403
-9.590	35.566	1595.696	1376.130
-8.575	35.452	1594.548	1374.272
-7.560	35.495	1593.300	1373.447
-6.546	35.403	1592.464	1372.018
-5.531	35.384	1591.800	1371.253
-4.517	35.383	1590.206	1369.822
-3.502	35.390	1589.513	1369.215
-2.487	35.491	1587.606	1368.243
-1.473	35.062	1575.733	1354.921
-0.458	31.981	1555.228	1315.671
0.556	28.336	1554.681	1279.163
1.571	25.638	1578.395	1279.401
2.586	25.000	1591.493	1285.329
3.600	21.935	1537.773	1220.553
4.615	13.405	1428.566	1078.413
5.629	6.087	1363.596	983.611
6.644	4.996	1355.401	970.824
7.659	4.900	1353.931	969.087
8.673	4.759	1352.847	967.349
9.688	4.815	1351.159	966.404
10.702	4.822	1348.445	964.422
11.717	7.915	1354.617	987.967
12.731	15.853	1368.520	1047.612
13.746	20.564	1375.773	1082.473
14.761	19.975	1374.077	1077.378
15.775	18.938	1371.368	1068.719
16.790	17.975	1368.371	1060.310
17.804	17.167	1365.662	1053.114
18.819	16.724	1365.098	1049.835
19.834	16.484	1363.298	1046.872
20.848	16.228	1362.503	1044.586
21.863	16.069	1360.872	1042.258
22.877	15.963	1359.635	1040.563
23.892	15.872	1358.948	1039.384
24.907	15.841	1358.138	1038.485
25.921	15.868	1357.102	1037.764
26.936	15.810	1356.638	1036.961
27.950	15.955	1355.388	1036.804
28.965	16.083	1354.323	1036.687
29.980	16.106	1353.172	1035.857
30.994	16.113	1352.683	1035.436
32.009	16.219	1350.811	1034.560
33.023	16.193	1350.030	1033.710
34.038	16.246	1348.243	1032.572
35.053	16.076	1347.458	1030.842
36.067	16.049	1346.575	1029.913
37.082	16.179	1345.016	1029.420
38.096	16.153	1344.447	1028.738
39.111	16.035	1344.181	1027.725
40.126	16.078	1342.776	1026.820
41.140	15.884	1341.930	1024.897
42.155	15.806	1341.419	1023.947
43.169	15.838	1341.093	1023.800
44.184	15.734	1340.635	1022.724
45.199	15.782	1340.302	1022.675
46.213	15.916	1339.471	1022.760
47.228	15.873	1339.234	1022.230
48.242	16.048	1337.672	1022.008
49.257	16.065	1336.157	1020.864
50.271	15.963	1335.141	1019.378
51.286	16.104	1333.318	1018.751
52.301	15.967	1332.656	1017.325
53.315	15.957	1331.562	1016.344
54.330	15.867	1330.277	1014.727
55.344	15.861	1329.472	1013.990
56.359	15.907	1327.860	1012.948
57.374	15.826	1327.098	1011.786
58.388	15.712	1326.167	1010.303
59.403	15.785	1325.567	1010.197
60.417	15.653	1325.350	1009.148
61.432	15.702	1324.277	1008.536
62.447	15.744	1323.010	1007.735
63.461	15.657	1322.092	1006.421
64.476	15.606	1320.764	1005.019
65.490	15.665	1320.023	1004.719
66.505	15.781	1317.990	1003.774
67.520	15.721	1316.824	1002.440
68.534	15.643	1316.365	1001.540
69.549	15.679	1315.341	1000.883
70.563	15.626	1313.866	999.360
71.578	15.585	1313.015	998.382
72.593	15.509	1312.175	997.200
73.607	15.494	1311.219	996.295
74.622	15.351	1311.113	995.282
75.636	15.471	1310.120	995.148
76.651	15.603	1308.954	994.960
77.666	15.579	1308.928	994.709
78.680	15.604	1308.409	994.374
79.695	15.625	1307.504	993.723
80.709	15.650	1307.030	993.420
81.724	15.745	1306.075	993.167
82.739	15.679	1305.408	992.183
83.753	15.881	1304.411	992.526
84.768	15.924	1303.489	991.990
85.782	16.063	1302.329	991.841
86.797	16.073	1301.075	990.857
87.812	15.955	1300.242	989.439
88.826	16.008	1298.416	988.272
89.841	15.934	1297.610	987.139
90.855	16.006	1296.556	986.671
91.870	16.062	1295.977	986.471
92.884	16.064	1295.001	985.652
93.899	16.180	1294.037	985.510
94.914	16.171	1293.282	984.794
95.928	16.118	1293.246	984.372
96.943	16.165	1291.382	983.137
97.957	16.082	1290.536	981.928
98.972	16.073	1289.788	981.216
99.987	16.054	1288.711	980.200
101.001	16.094	1287.556	979.469
102.016	16.117	1286.698	978.861
103.030	16.162	1285.959	978.474
104.045	16.163	1285.039	977.691
105.060	16.051	1284.015	976.177
106.074	15.882	1282.316	973.822
107.089	15.790	1281.010	972.216
108.103	15.691	1280.470	971.147
109.118	15.762	1278.631	970.073
110.133	15.806	1277.313	969.242
111.147	15.660	1275.897	967.242
112.162	15.607	1275.109	966.254
113.176	15.874	1273.603	966.564
114.191	15.806	1272.855	965.517
115.206	15.821	1271.837	964.745
116.220	15.817	1270.042	963.279
117.235	15.864	1269.086	962.732
118.249	15.815	1268.027	961.566
119.264	15.697	1266.974	960.011
120.279	15.634	1266.003	958.830
121.293	15.803	1264.687	958.710
122.308	15.744	1263.380	957.301
123.322	15.582	1262.829	955.874
124.337	15.658	1261.740	955.396
125.352	15.647	1260.407	954.242
126.366	15.572	1259.918	953.360
127.381	15.795	1257.966	953.064
128.395	15.653	1257.362	951.717
129.410	15.734	1256.674	951.571
130.424	15.838	1256.165	951.692
131.439	15.859	1254.819	950.704
132.454	15.866	1253.953	950.002
133.468	15.841	1253.210	949.217
134.483	15.907	1252.454	948.930
135.497	15.806	1251.846	947.820
136.512	15.863	1250.166	946.785
137.527	15.994	1248.692	946.319
138.541	15.864	1247.615	944.688
139.556	15.956	1246.237	944.077
140.570	15.996	1245.420	943.601
141.585	15.972	1244.536	942.712
142.600	16.040	1242.886	941.759
143.614	16.039	1242.270	941.201
144.629	16.099	1241.153	940.605
145.643	16.135	1239.777	939.682
146.658	16.144	1238.486	938.673
147.673	16.049	1237.436	937.262
148.687	15.962	1236.371	935.893
149.702	15.836	1234.895	933.990
150.716	15.829	1233.324	932.683
151.731	15.844	1232.194	931.829
152.746	15.954	1230.775	931.279
153.760	15.955	1229.641	930.348
154.775	16.124	1228.797	930.557
155.789	15.992	1228.247	929.332
156.804	16.102	1226.672	928.661
157.819	16.147	1225.360	927.838
158.833	16.101	1225.521	927.622
159.848	16.210	1223.933	926.936
160.862	16.180	1223.192	926.130
161.877	16.138	1221.678	924.669
162.892	15.912	1220.796	922.683
163.906	15.977	1220.060	922.401
164.921	15.954	1218.975	921.375
165.935	16.056	1217.709	920.893
166.950	16.110	1217.087	920.635
167.964	16.075	1216.450	919.882
168.979	16.044	1215.730	919.088
169.994	16.076	1214.993	918.623
171.008	16.024	1214.413	917.819
172.023	16.269	1213.026	918.021
173.037	16.280	1212.669	917.732
174.052	16.254	1212.044	917.032
175.067	16.089	1210.940	915.224
176.081	16.060	1210.090	914.342
177.096	16.059	1209.061	913.479
178.110	16.064	1208.165	912.748
179.125	16.104	1206.956	911.967
180.140	16.038	1205.749	910.621
181.154	16.170	1204.534	910.336
182.169	16.270	1203.219	909.797
183.183	16.285	1202.539	909.287
184.198	16.436	1200.743	908.660
185.213	16.301	1199.851	907.176
186.227	16.302	1198.878	906.369
187.242	16.321	1198.410	906.036
188.256	16.453	1197.054	905.640
189.271	16.561	1196.092	905.406
190.286	16.340	1195.195	903.468
191.300	16.032	1194.400	901.141
192.315	16.056	1193.400	900.434
193.329	16.037	1193.097	900.022
194.344	16.139	1192.198	899.809
195.359	16.240	1191.742	899.922
196.373	16.435	1191.016	900.334
197.388	16.359	1190.926	899.783
198.402	16.599	1190.294	900.504
199.417	16.619	1189.857	900.197
200.432	16.705	1189.241	900.109
201.446	16.714	1188.445	899.476
202.461	16.776	1187.086	898.696
203.475	16.665	1186.526	897.606
204.490	16.671	1185.067	896.454
205.504	16.524	1183.652	894.528
206.519	16.557	1182.708	893.907
207.534	16.582	1181.366	892.946
208.548	16.579	1180.700	892.351
209.563	16.515	1180.204	891.555
210.577	16.587	1179.035	890.973
211.592	16.587	1178.591	890.563
212.607	16.728	1177.411	890.329
213.621	16.689	1176.560	889.403
214.636	16.742	1175.645	888.913
215.650	16.689	1174.837	887.945
216.665	16.699	1174.009	887.290
217.680	16.821	1173.658	887.586
218.694	16.856	1172.678	886.953
219.709	16.904	1171.198	886.006
220.723	16.807	1170.747	885.077
221.738	16.893	1169.886	884.798
222.753	16.861	1168.842	883.764
223.767	16.887	1168.747	883.749
224.782	16.950	1168.389	883.730
225.796	16.968	1167.489	883.065
226.811	16.952	1166.420	882.094
227.826	16.983	1165.317	881.344
228.840	16.838	1165.346	880.531
229.855	17.021	1164.305	880.616
230.869	16.805	1164.096	879.259
231.884	16.916	1162.817	878.792
232.899	16.801	1161.884	877.413
233.913	16.775	1161.200	876.688
234.928	16.790	1160.548	876.192
235.942	16.765	1159.938	875.525
236.957	16.799	1159.019	874.930
237.972	16.813	1158.431	874.479
238.986	16.828	1157.489	873.769
240.001	16.845	1156.994	873.406
241.015	16.828	1155.952	872.454
242.030	16.932	1155.230	872.370
243.045	16.948	1154.447	871.780
244.059	16.923	1154.178	871.373
245.074	17.067	1152.889	871.063
246.088	17.097	1151.947	870.427
247.103	17.100	1151.666	870.154
248.117	17.205	1150.899	870.036
249.132	17.266	1150.391	869.888
250.147	17.348	1149.812	869.788
251.161	17.467	1148.694	869.475
252.176	17.457	1148.491	869.193
253.190	17.510	1147.609	868.719
254.205	17.641	1146.962	868.819
255.220	17.642	1146.438	868.352
256.234	17.521	1146.158	867.445
257.249	17.492	1145.244	866.530
258.263	17.539	1144.597	866.206
259.278	17.708	1143.676	866.287
260.293	17.617	1143.219	865.406
261.307	17.757	1142.655	865.612
262.322	17.670	1142.583	865.039
263.336	17.709	1141.482	864.324
264.351	17.734	1141.032	864.037
265.366	17.652	1140.592	863.210
266.380	17.742	1139.308	862.615
267.395	17.665	1138.597	861.612
268.409	17.636	1137.852	860.825
269.424	17.554	1137.560	860.114
270.439	17.653	1136.737	859.916
271.453	17.616	1136.022	859.115
272.468	17.648	1134.759	858.241
273.482	17.496	1134.275	857.038
274.497	17.592	1133.623	856.949
275.512	17.610	1133.111	856.579
276.526	17.661	1132.115	856.005
277.541	17.561	1131.617	855.052
278.555	17.670	1130.649	854.794
279.570	17.822	1130.116	855.075
280.585	17.869	1129.334	854.643
281.599	17.864	1128.636	854.015
282.614	17.740	1127.554	852.498
283.628	17.743	1126.801	851.870
284.643	17.740	1125.759	850.991
285.657	17.808	1124.708	850.460
286.672	17.754	1123.886	849.494
287.687	17.799	1123.083	849.036
288.701	17.916	1122.083	848.786
289.716	17.760	1121.699	847.647
290.730	17.961	1120.654	847.781
291.745	17.975	1119.921	847.218
292.760	17.894	1119.385	846.338
293.774	17.966	1118.850	846.217
294.789	18.043	1118.330	846.130
295.803	18.106	1117.683	845.875
296.818	17.933	1116.698	844.200
297.833	17.837	1116.128	843.220
298.847	17.947	1115.229	843.012
299.862	17.898	1114.283	841.980
300.876	18.036	1113.614	842.079
301.891	18.164	1112.986	842.160
302.906	18.052	1112.866	841.443
303.920	18.153	1111.910	841.140
304.935	18.199	1111.295	840.829
305.949	18.244	1110.808	840.608
306.964	18.251	1109.792	839.800
307.979	18.330	1108.592	839.201
308.993	18.317	1108.218	838.783
310.008	18.296	1107.608	838.143
311.022	18.270	1107.144	837.592
312.037	18.159	1106.336	836.362
313.052	18.234	1105.262	835.844
314.066	18.110	1104.368	834.485
315.081	18.166	1103.186	833.794
316.095	18.061	1102.512	832.699
317.110	18.123	1101.865	832.440
318.125	18.113	1101.097	831.737
319.139	18.094	1100.265	830.939
320.154	18.142	1099.528	830.542
321.168	18.092	1099.068	829.879
322.183	18.139	1098.793	829.826
323.197	18.155	1098.165	829.357
324.212	18.219	1097.634	829.192
325.227	18.129	1096.980	828.189
326.241	18.234	1096.110	827.969
327.256	18.312	1094.824	827.300
328.270	18.210	1094.098	826.184
329.285	18.280	1093.217	825.784
330.300	18.240	1092.469	824.956
331.314	18.217	1091.327	823.909
332.329	18.237	1090.479	823.291
333.343	18.243	1089.671	822.638
334.358	18.444	1088.731	822.822
335.373	18.482	1088.365	822.653
336.387	18.525	1087.546	822.166
337.402	18.473	1086.913	821.367
338.416	18.569	1086.124	821.157
339.431	18.649	1085.647	821.106
340.446	18.643	1085.278	820.728
341.460	18.759	1084.499	820.619
342.475	18.787	1083.563	819.974
343.489	18.697	1082.845	818.929
344.504	18.736	1082.133	818.502
345.519	18.829	1081.099	818.090
346.533	18.785	1080.253	817.169
347.548	18.952	1079.368	817.220
348.562	18.852	1078.736	816.193
349.577	18.802	1078.239	815.509
350.592	18.715	1077.300	814.314
351.606	18.669	1076.105	813.120
352.621	18.643	1075.585	812.533
353.635	18.616	1075.468	812.247
354.650	18.704	1074.583	811.921
355.665	18.693	1073.950	811.318
356.679	18.718	1073.174	810.777
357.694	18.780	1072.921	810.808
358.708	18.829	1072.028	810.295
359.723	18.923	1071.190	810.029
360.738	18.876	1070.642	809.326
361.752	18.892	1070.005	808.846
362.767	18.929	1069.673	808.695
363.781	18.778	1069.352	807.674
364.796	18.924	1068.515	807.656
365.810	18.980	1068.572	807.888
366.825	19.044	1067.393	807.226
367.840	19.223	1067.008	807.705
368.854	19.199	1066.125	806.852
369.869	19.255	1065.361	806.465
370.883	19.128	1064.539	805.176
371.898	19.124	1063.622	804.394
372.913	19.014	1063.391	803.633
373.927	19.093	1063.100	803.713
374.942	19.371	1062.115	804.193
375.956	19.083	1062.062	802.737
376.971	19.218	1061.295	802.718
377.986	19.368	1060.583	802.804
379.000	19.201	1060.249	801.702
380.015	19.384	1059.575	801.972
381.029	19.361	1059.180	801.497
382.044	19.372	1058.342	800.843
383.059	19.417	1057.583	800.406
384.073	19.402	1056.705	799.604
385.088	19.349	1055.954	798.718
386.102	19.435	1055.274	798.531
387.117	19.255	1054.385	796.954
388.132	19.295	1053.243	796.207
389.146	19.330	1052.350	795.624
390.161	19.369	1051.011	794.719
391.175	19.247	1050.815	793.937
392.190	19.370	1050.402	794.123
393.205	19.378	1049.678	793.540
394.219	19.488	1048.598	793.162
395.234	19.371	1047.670	791.851
396.248	19.469	1046.638	791.453
397.263	19.364	1045.868	790.317
398.278	19.333	1045.168	789.575
399.292	19.331	1044.684	789.130
400.307	19.293	1043.987	788.362
401.321	19.282	1043.363	787.772
402.336	19.260	1042.552	786.986
403.350	19.220	1041.800	786.168
404.365	19.274	1041.150	785.854
405.380	19.329	1040.676	785.680
406.394	19.364	1040.168	785.384
407.409	19.569	1038.915	785.302
408.423	19.553	1038.660	784.965
409.438	19.582	1038.065	784.579
410.453	19.696	1037.623	784.692
411.467	19.723	1036.478	783.880
412.482	19.776	1035.705	783.467
413.496	19.786	1035.008	782.916
414.511	19.965	1034.359	783.162
415.526	19.936	1034.166	782.820
416.540	19.920	1033.966	782.526
417.555	19.860	1033.660	781.954
418.569	19.895	1033.237	781.721
419.584	20.010	1032.245	781.419
420.599	19.857	1031.728	780.269
421.613	151.883	1399.357	1790.746
422.628	138.686	1452.945	1790.886
