DTS Sentinel unit serial number:	SN413079Multiplexer serial number:	ORYXHardware model number:	OX4-SRSoftware version number:	ORYX F/W v4.00 Oryx Data Collector v3.7.2.0data status	okinstallation	princeton_trtdifferential loss correction	single-endedforward channel	channel 2reverse channel	N/Adate	2019/09/15time	20:15:35forward acquisition time	60.00reverse acquisition time	0.00gamma	496.2192k internal	0.2326k external	0.2326temperature offset calibration	0.9935default loss term (dB/km)	0.3790temperature slope calibration	1.0000multiplexer offset coefficient	1.0000multiplexer slope coefficient	1.0000fibre end	0.00T internal ref (°C)	34.47T ext. ref 1 (°C)	7.70T ext. ref 2 (°C)	25.64length (m)	temperature (°C)	Stokes	anti-Stokes-747.200	-200.000	0.019	0.135
-746.185	119.458	0.086	0.107
-745.171	-200.000	-0.022	0.387
-744.156	-36.555	0.185	0.100
-743.142	21.797	-0.211	-0.173
-742.127	243.131	0.059	-0.099
-741.112	-184.057	-0.130	-0.002
-740.098	28.709	-0.161	0.138
-739.083	-117.289	-0.082	-0.015
-738.069	27.449	-0.198	0.168
-737.054	-200.000	-0.012	-0.188
-736.039	-170.225	-0.163	0.006
-735.025	256.645	0.074	0.128
-734.010	165.396	-0.079	0.113
-732.996	22.991	0.393	-0.325
-731.981	101.446	0.137	0.161
-730.966	-128.816	-0.126	0.018
-729.952	-200.000	0.004	0.145
-728.937	-42.125	-0.153	-0.079
-727.923	174.508	-0.234	0.342
-726.908	170.140	-0.068	0.098
-725.894	-154.320	0.452	-0.031
-724.879	55.007	-0.256	-0.249
-723.864	306.840	-0.088	0.166
-722.850	-200.000	-0.053	0.267
-721.835	202.568	0.106	-0.165
-720.821	235.079	0.060	0.099
-719.806	564.756	0.101	0.248
-718.791	-7.391	-0.217	0.148
-717.777	149.425	-0.052	-0.071
-716.762	-53.986	0.121	-0.056
-715.748	-159.629	-0.298	0.017
-714.733	-60.723	0.181	0.077
-713.718	-56.339	0.159	-0.071
-712.704	-169.901	-0.079	0.003
-711.689	-78.580	0.109	0.038
-710.675	219.484	-0.094	0.151
-709.660	-69.203	-0.220	-0.085
-708.645	800.000	-0.095	-0.278
-707.631	-6.282	-0.200	0.138
-706.616	-144.943	-0.226	0.021
-705.602	295.041	-0.066	-0.121
-704.587	-70.494	-0.234	-0.089
-703.572	-118.713	-0.383	-0.068
-702.558	800.000	0.110	-0.313
-701.543	292.188	-0.279	-0.512
-700.529	61.967	0.120	-0.121
-699.514	-200.000	-0.023	-0.154
-698.499	-111.663	-0.325	-0.066
-697.485	-200.000	0.007	-0.374
-696.470	-197.807	0.201	0.001
-695.456	29.293	-0.228	0.195
-694.441	-200.000	0.009	0.057
-693.426	800.000	-0.049	-0.213
-692.412	-200.000	0.044	-0.270
-691.397	-42.052	-0.074	0.038
-690.383	-147.336	0.049	0.004
-689.368	-95.050	-0.147	-0.040
-688.354	-131.933	-0.201	-0.026
-687.339	-80.887	0.238	-0.080
-686.324	246.507	-0.031	-0.052
-685.310	-14.475	0.263	-0.170
-684.295	-12.931	-0.251	-0.164
-683.281	800.000	0.052	0.225
-682.266	576.229	-0.074	0.183
-681.251	-27.696	-0.112	0.065
-680.237	-96.342	-0.219	-0.058
-679.222	-114.503	-0.131	0.025
-678.208	3.919	0.132	-0.097
-677.193	236.865	0.095	-0.158
-676.178	262.259	-0.027	0.047
-675.164	-125.806	-0.232	-0.035
-674.149	311.905	0.150	-0.283
-673.135	-20.042	-0.313	0.194
-672.120	322.607	0.106	-0.203
-671.105	347.620	-0.020	-0.040
-670.091	-200.000	-0.021	-0.142
-669.076	290.344	0.061	0.112
-668.062	458.883	0.072	0.162
-667.047	-159.864	0.077	-0.004
-666.032	800.000	-0.114	0.405
-665.018	-43.562	-0.084	-0.043
-664.003	-137.228	-0.320	-0.037
-662.989	162.296	0.089	-0.125
-661.974	438.716	-0.127	0.278
-660.959	140.640	-0.083	0.111
-659.945	-136.651	-0.133	0.015
-658.930	144.606	0.127	-0.170
-657.916	361.113	0.013	-0.026
-656.901	-200.000	0.004	-0.027
-655.886	213.304	-0.102	0.163
-654.872	-112.709	0.161	0.032
-653.857	367.817	0.098	-0.198
-652.843	800.000	-0.094	-0.400
-651.828	64.220	-0.063	0.064
-650.814	-59.031	0.203	0.088
-649.799	-31.964	-0.240	-0.135
-648.784	800.000	-0.051	-0.205
-647.770	532.164	-0.081	-0.192
-646.755	-131.622	0.248	-0.033
-645.741	354.345	-0.078	-0.157
-644.726	55.048	0.162	-0.158
-643.711	44.407	0.207	-0.191
-642.697	-13.008	-0.312	0.204
-641.682	-156.124	-0.119	-0.008
-640.668	-81.662	-0.206	-0.068
-639.653	45.480	0.285	0.264
-638.638	-84.332	0.367	-0.117
-637.624	483.958	-0.057	-0.131
-636.609	85.171	0.059	0.065
-635.595	-67.624	-0.130	0.051
-634.580	143.749	-0.112	-0.150
-633.565	-166.912	0.298	-0.012
-632.551	115.729	0.161	0.197
-631.536	228.644	-0.015	-0.025
-630.522	-200.000	-0.002	0.388
-629.507	-111.522	-0.119	0.024
-628.492	800.000	-0.025	0.077
-627.478	-183.421	-0.232	0.004
-626.463	-200.000	-0.001	-0.041
-625.449	169.034	-0.055	-0.079
-624.434	40.815	0.412	-0.373
-623.419	-30.636	-0.419	-0.238
-622.405	91.588	-0.150	0.169
-621.390	-200.000	-0.010	0.057
-620.376	43.197	-0.141	-0.129
-619.361	-43.721	0.201	-0.102
-618.346	-0.341	0.206	-0.147
-617.332	43.618	0.256	-0.235
-616.317	33.313	-0.251	0.218
-615.303	-200.000	0.058	-0.353
-614.288	-40.797	0.142	-0.074
-613.273	-58.030	0.403	-0.176
-612.259	277.064	-0.090	0.161
-611.244	-200.000	0.038	0.408
-610.230	-102.549	-0.220	0.053
-609.215	66.417	-0.139	-0.142
-608.201	-112.820	0.246	-0.049
-607.186	82.844	0.101	0.110
-606.171	-0.022	0.323	-0.231
-605.157	800.000	-0.064	0.219
-604.142	219.029	0.078	0.125
-603.128	55.194	0.160	0.155
-602.113	42.052	0.086	-0.079
-601.098	58.590	-0.064	-0.063
-600.084	-72.279	0.243	-0.090
-599.069	-51.523	0.338	0.158
-598.055	-27.662	0.233	-0.135
-597.040	124.276	-0.078	-0.098
-596.025	-178.363	0.239	-0.006
-595.011	101.928	0.142	-0.166
-593.996	800.000	0.117	0.324
-592.982	129.942	-0.212	0.272
-591.967	800.000	-0.146	-0.407
-590.952	-1.810	-0.162	-0.114
-589.938	800.000	-0.035	-0.127
-588.923	-200.000	-0.053	0.237
-587.909	134.082	-0.105	-0.136
-586.894	-6.048	-0.354	-0.242
-585.879	313.558	0.083	-0.156
-584.865	-86.775	0.126	-0.039
-583.850	-200.000	0.028	-0.188
-582.836	-200.000	0.008	-0.430
-581.821	96.542	0.091	0.104
-580.806	-129.657	0.519	0.072
-579.792	34.283	-0.318	-0.278
-578.777	129.095	0.136	-0.174
-577.763	35.389	0.006	-0.005
-576.748	456.530	0.064	-0.141
-575.733	-48.007	-0.177	0.086
-574.719	-200.000	0.066	-0.379
-573.704	-166.449	0.064	0.003
-572.690	800.000	0.088	0.373
-571.675	9.553	-0.182	-0.138
-570.661	68.740	0.016	-0.016
-569.646	-200.000	-0.037	-0.244
-568.631	277.494	-0.144	-0.258
-567.617	219.896	0.041	-0.066
-566.602	215.670	0.105	0.167
-565.588	479.566	0.085	-0.193
-564.573	-200.000	0.033	0.221
-563.558	-122.764	0.395	0.064
-562.544	-187.701	0.385	0.005
-561.529	409.256	0.103	-0.219
-560.515	800.000	0.079	-0.247
-559.500	121.310	-0.155	-0.193
-558.485	61.005	-0.097	0.096
-557.471	200.894	0.114	-0.175
-556.456	800.000	0.044	-0.128
-555.442	23.262	0.262	-0.216
-554.427	649.774	-0.035	-0.089
-553.412	262.442	-0.038	0.066
-552.398	-82.343	-0.433	0.141
-551.383	800.000	-0.090	-0.298
-550.369	573.129	-0.041	-0.100
-549.354	29.819	-0.150	0.128
-548.339	-200.000	-0.041	0.196
-547.325	256.150	0.073	-0.125
-546.310	-200.000	-0.014	0.101
-545.296	317.284	0.157	-0.297
-544.281	377.345	-0.066	-0.136
-543.266	88.489	-0.142	0.158
-542.252	-14.647	-0.081	0.052
-541.237	-124.459	-0.614	-0.096
-540.223	1.691	0.091	0.065
-539.208	20.067	-0.059	-0.048
-538.193	380.435	-0.063	-0.130
-537.179	-21.298	0.318	0.194
-536.164	800.000	-0.077	0.244
-535.150	379.073	-0.021	0.043
-534.135	-200.000	0.002	-0.107
-533.121	800.000	0.019	0.076
-532.106	113.337	-0.170	-0.207
-531.091	-200.000	-0.026	-0.122
-530.077	-200.000	-0.033	0.163
-529.062	-200.000	-0.012	-0.165
-528.048	-68.871	0.109	-0.042
-527.033	-48.251	0.273	0.132
-526.018	-200.000	-0.001	0.507
-525.004	282.076	-0.181	-0.324
-523.989	52.797	0.056	0.053
-522.975	297.198	-0.119	0.219
-521.960	800.000	0.079	-0.277
-520.945	-194.228	-0.197	-0.002
-519.931	-11.766	0.181	0.119
-518.916	205.344	-0.074	-0.115
-517.902	-50.350	-0.330	-0.156
-516.887	-154.354	0.253	-0.017
-515.872	-165.868	-0.063	0.003
-514.858	-110.628	0.315	-0.065
-513.843	148.411	0.081	-0.110
-512.829	-109.455	0.113	-0.024
-511.814	-15.725	-0.174	-0.111
-510.799	0.485	0.163	0.116
-509.785	154.822	-0.094	0.129
-508.770	-200.000	0.008	0.302
-507.756	52.229	0.077	0.074
-506.741	800.000	0.182	0.604
-505.726	-200.000	-0.002	-0.086
-504.712	-88.389	0.114	0.034
-503.697	800.000	-0.066	0.273
-502.683	64.730	-0.067	-0.067
-501.668	7.253	0.086	0.064
-500.653	201.093	-0.193	-0.297
-499.639	-24.256	-0.118	-0.070
-498.624	274.842	-0.056	-0.099
-497.610	-98.447	0.100	0.026
-496.595	-200.000	-0.027	0.153
-495.581	657.935	-0.027	-0.070
-494.566	-200.000	-0.037	0.221
-493.551	-88.989	-0.138	0.041
-492.537	-34.849	0.172	-0.094
-491.522	521.718	0.177	-0.414
-490.508	-160.925	0.107	-0.006
-489.493	-200.000	0.089	0.409
-488.478	-113.361	-0.265	-0.052
-487.464	-169.515	-0.538	0.020
-486.449	-108.858	-0.145	-0.031
-485.435	25.406	0.145	0.120
-484.420	800.000	0.164	0.530
-483.405	78.213	0.061	-0.065
-482.391	-122.942	0.314	0.050
-481.376	19.639	0.064	0.052
-480.362	800.000	0.093	0.266
-479.347	34.924	-0.057	-0.050
-478.332	84.782	0.181	-0.198
-477.318	737.201	0.106	-0.283
-476.303	383.823	0.128	0.263
-475.289	-115.162	0.139	-0.026
-474.274	481.983	-0.067	0.151
-473.259	-69.091	-0.417	0.160
-472.245	-200.000	-0.051	0.250
-471.230	-122.062	0.081	-0.013
-470.216	164.198	0.044	-0.062
-469.201	-68.933	-0.089	0.034
-468.186	138.604	0.244	-0.319
-467.172	-200.000	0.007	-0.159
-466.157	243.724	0.183	-0.307
-465.143	48.615	0.122	0.115
-464.128	-110.537	-0.233	-0.048
-463.113	87.017	-0.252	0.278
-462.099	148.184	0.202	-0.272
-461.084	-200.000	0.012	-0.088
-460.070	-200.000	-0.048	-0.256
-459.055	-22.214	-0.234	0.142
-458.040	55.781	0.030	0.029
-457.026	-54.906	-0.078	-0.035
-456.011	-200.000	-0.008	0.129
-454.997	122.606	0.024	-0.030
-453.982	655.014	-0.108	0.276
-452.968	28.563	0.130	0.110
-451.953	-48.147	-0.095	-0.046
-450.938	-200.000	-0.040	-0.498
-449.924	55.626	0.246	0.238
-448.909	800.000	0.089	0.245
-447.895	800.000	0.083	0.306
-446.880	497.964	0.117	-0.267
-445.865	-79.355	0.148	-0.050
-444.851	162.617	0.107	0.150
-443.836	476.665	-0.044	0.100
-442.822	-125.261	-0.104	-0.016
-441.807	-148.191	0.306	-0.025
-440.792	-1.161	-0.203	-0.143
-439.778	-102.879	0.206	-0.049
-438.763	29.230	0.106	-0.090
-437.749	800.000	-0.029	0.103
-436.734	-67.691	-0.419	0.163
-435.719	126.562	0.164	0.207
-434.705	172.896	-0.145	-0.208
-433.690	-36.709	0.259	0.139
-432.676	27.175	0.169	0.142
-431.661	-200.000	0.001	0.017
-430.646	-37.132	-0.434	-0.232
-429.632	193.821	0.007	0.011
-428.617	71.098	-0.072	0.075
-427.603	34.779	-0.008	-0.007
-426.588	-103.185	0.323	0.076
-425.573	-22.400	0.111	0.067
-424.559	656.912	0.075	0.192
-423.544	-48.382	0.260	0.125
-422.530	-154.910	-0.330	0.022
-421.515	-200.000	-0.012	-0.196
-420.500	153.013	0.159	0.217
-419.486	199.078	-0.117	0.179
-418.471	-169.915	0.398	-0.014
-417.457	-111.269	0.094	-0.019
-416.442	-97.418	-0.238	-0.062
-415.428	-200.000	-0.125	-0.000
-414.413	800.000	0.112	0.325
-413.398	-3.457	0.306	0.212
-412.384	-200.000	0.055	0.521
-411.369	2.960	-0.130	-0.094
-410.355	50.782	-0.184	0.174
-409.340	-66.519	-0.174	-0.069
-408.325	-200.000	0.012	-0.179
-407.311	424.015	0.063	-0.136
-406.296	-119.764	-0.204	0.035
-405.282	471.326	0.154	0.344
-404.267	-76.798	-0.308	-0.107
-403.252	177.431	-0.109	-0.158
-402.238	-200.000	-0.012	-0.235
-401.223	7.326	-0.424	-0.315
-400.209	89.722	-0.072	-0.079
-399.194	-26.333	-0.286	-0.167
-398.179	-69.093	0.036	0.014
-397.165	800.000	-0.030	-0.083
-396.150	-108.520	0.241	-0.052
-395.136	-51.912	-0.205	0.095
-394.121	-200.000	0.040	0.247
-393.106	-54.004	-0.034	-0.015
-392.092	-200.000	-0.067	0.329
-391.077	75.970	-0.048	0.051
-390.063	-200.000	-0.010	0.083
-389.048	-200.000	0.061	0.265
-388.033	121.969	0.112	0.139
-387.019	-138.213	-0.370	-0.041
-386.004	103.834	-0.136	0.159
-384.990	-88.159	0.106	0.031
-383.975	200.722	-0.093	0.142
-382.960	52.560	-0.248	0.236
-381.946	-200.000	-0.025	-0.224
-380.931	-178.600	0.303	-0.007
-379.917	-200.000	0.012	-0.159
-378.902	-155.703	-0.175	0.011
-377.888	-200.000	-0.012	0.165
-376.873	5.011	0.122	0.089
-375.858	800.000	-0.049	0.192
-374.844	112.108	-0.168	-0.202
-373.829	113.222	-0.225	0.272
-372.815	104.460	0.246	-0.288
-371.800	27.748	0.192	0.161
-370.785	-35.470	-0.290	-0.157
-369.771	-143.559	-0.473	-0.045
-368.756	556.423	0.125	-0.300
-367.742	335.787	0.130	0.251
-366.727	-55.977	-0.252	0.112
-365.712	-200.000	-0.042	0.291
-364.698	800.000	0.045	-0.141
-363.683	126.884	0.155	-0.196
-362.669	-156.490	-0.075	0.005
-361.654	800.000	0.080	0.332
-360.639	800.000	0.042	-0.156
-359.625	172.290	0.121	0.173
-358.610	800.000	-0.054	0.233
-357.596	393.143	0.132	0.272
-356.581	-5.442	0.074	0.050
-355.566	-189.705	-0.121	0.001
-354.552	-200.000	0.019	0.125
-353.537	-100.042	0.091	-0.023
-352.523	-59.381	-0.233	0.100
-351.508	-81.754	-0.371	0.121
-350.493	-197.144	0.168	0.001
-349.479	162.269	0.053	-0.074
-348.464	-144.909	-0.392	-0.036
-347.450	800.000	0.084	-0.359
-346.435	-52.791	0.099	0.045
-345.420	101.322	0.182	-0.210
-344.406	800.000	-0.120	-0.347
-343.391	3.515	0.198	-0.143
-342.377	-43.481	-0.213	0.107
-341.362	-200.000	0.005	0.071
-340.348	-200.000	0.016	0.160
-339.333	548.919	-0.086	0.204
-338.318	457.066	-0.111	0.244
-337.304	414.188	-0.034	0.071
-336.289	-6.722	-0.192	0.130
-335.275	-200.000	0.005	0.287
-334.260	268.388	0.090	-0.157
-333.245	374.102	0.092	0.186
-332.231	-200.000	0.048	0.374
-331.216	86.718	0.139	0.152
-330.202	586.631	-0.068	0.166
-329.187	-200.000	0.012	-0.214
-328.172	344.202	-0.170	0.330
-327.158	-134.321	-0.211	0.026
-326.143	-106.627	0.134	0.030
-325.129	-200.000	0.017	-0.108
-324.114	401.936	-0.121	0.251
-323.099	695.664	-0.108	-0.282
-322.085	800.000	-0.064	-0.178
-321.070	-145.119	-0.181	-0.016
-320.056	7.121	-0.280	0.207
-319.041	-200.000	0.070	0.349
-318.026	600.939	-0.200	-0.492
-317.012	-93.418	0.366	-0.101
-315.997	37.252	0.220	-0.193
-314.983	800.000	-0.020	0.064
-313.968	172.453	-0.047	0.067
-312.953	9.224	0.427	-0.320
-311.939	-10.425	-0.323	-0.213
-310.924	441.486	-0.192	-0.417
-309.910	800.000	0.066	0.285
-308.895	-47.810	0.259	0.124
-307.880	-63.442	0.182	-0.074
-306.866	-200.000	-0.027	0.238
-305.851	800.000	0.059	0.228
-304.837	-200.000	0.022	-0.234
-303.822	82.936	0.167	0.181
-302.807	-200.000	-0.024	-0.196
-301.793	-26.367	-0.293	0.170
-300.778	46.492	0.231	-0.212
-299.764	83.869	0.129	0.140
-298.749	-8.765	-0.226	-0.150
-297.735	-10.793	-0.143	-0.093
-296.720	134.491	0.191	0.246
-295.705	-200.000	-0.058	-0.288
-294.691	-57.936	0.337	0.146
-293.676	12.465	-0.214	0.164
-292.662	205.824	0.105	-0.162
-291.647	68.093	-0.093	0.095
-290.632	742.654	0.054	-0.143
-289.618	136.708	-0.261	-0.337
-288.603	550.603	0.024	0.058
-287.589	0.025	0.222	-0.157
-286.574	300.680	-0.108	-0.197
-285.559	-165.260	0.028	0.001
-284.545	611.996	0.076	0.187
-283.530	-116.307	0.262	-0.048
-282.516	92.093	-0.217	-0.242
-281.501	-85.148	0.205	0.064
-280.486	122.539	-0.314	0.389
-279.472	-200.000	-0.105	0.475
-278.457	-101.348	-0.236	-0.057
-277.443	165.894	-0.145	-0.203
-276.428	227.463	0.127	0.204
-275.413	-200.000	0.006	-0.279
-274.399	251.143	-0.092	0.154
-273.384	17.338	-0.158	-0.125
-272.370	562.582	0.129	-0.309
-271.355	-37.340	0.262	0.139
-270.340	-21.066	0.238	0.144
-269.326	-118.997	-0.098	0.017
-268.311	-114.189	0.132	-0.025
-267.297	120.717	0.054	-0.066
-266.282	117.771	-0.031	-0.038
-265.267	-200.000	0.036	0.162
-264.253	-68.599	0.375	0.144
-263.238	438.577	-0.014	0.030
-262.224	107.855	-0.070	0.083
-261.209	30.988	0.089	-0.076
-260.195	13.574	-0.083	0.064
-259.180	-89.750	-0.347	0.101
-258.165	-200.000	0.280	0.000
-257.151	800.000	-0.043	-0.156
-256.136	2.305	0.392	0.281
-255.122	-128.681	0.174	0.024
-254.107	-14.883	-0.079	0.050
-253.092	284.433	-0.037	0.066
-252.078	800.000	-0.048	-0.167
-251.063	419.995	0.150	0.318
-250.049	147.749	-0.181	0.241
-249.034	184.459	0.074	-0.108
-248.019	-5.512	0.109	-0.074
-247.005	11.611	0.243	0.185
-245.990	-49.781	-0.210	0.099
-244.976	-200.000	-0.045	0.267
-243.961	29.257	-0.223	0.188
-242.946	-173.616	0.124	-0.004
-241.932	400.108	0.025	-0.051
-240.917	-16.499	-0.265	0.166
-239.903	-112.882	0.147	-0.029
-238.888	322.225	0.078	0.147
-237.873	800.000	0.018	-0.058
-236.859	-10.388	-0.405	0.266
-235.844	800.000	-0.141	-0.485
-234.830	435.507	-0.065	-0.140
-233.815	-171.017	-0.310	0.010
-232.800	98.879	-0.280	-0.319
-231.786	-200.000	0.011	-0.482
-230.771	-200.000	-0.034	0.393
-229.757	92.400	-0.144	0.160
-228.742	800.000	0.073	0.269
-227.727	177.230	-0.158	-0.227
-226.713	-67.483	-0.077	-0.030
-225.698	-79.903	0.245	-0.081
-224.684	101.000	0.162	-0.187
-223.669	-74.950	-0.180	-0.064
-222.655	-200.000	0.048	0.232
-221.640	-49.663	-0.447	0.210
-220.625	486.617	-0.015	0.034
-219.611	-172.302	-0.238	-0.008
-218.596	34.216	-0.091	0.078
-217.582	-200.000	-0.009	0.105
-216.567	-200.000	0.039	-0.204
-215.552	-87.792	-0.086	-0.026
-214.538	-86.396	0.186	0.056
-213.523	-128.172	-0.058	0.008
-212.509	50.638	0.240	-0.224
-211.494	132.987	0.088	0.113
-210.479	313.231	-0.107	-0.199
-209.465	800.000	0.128	0.436
-208.450	78.235	0.106	-0.112
-207.436	166.157	0.083	-0.115
-206.421	181.379	-0.178	-0.259
-205.406	-200.000	-0.108	-0.501
-204.392	-200.000	0.001	0.113
-203.377	-55.883	0.354	-0.156
-202.363	-2.313	0.232	-0.160
-201.348	698.164	-0.111	-0.287
-200.333	-57.032	-0.378	0.165
-199.319	438.410	-0.077	-0.166
-198.304	33.843	0.101	0.087
-197.290	179.431	0.150	0.217
-196.275	-200.000	-0.191	0.000
-195.260	178.725	0.132	-0.190
-194.246	-28.472	0.250	-0.142
-193.231	-119.955	-0.216	0.037
-192.217	-15.455	0.187	0.118
-191.202	-200.000	0.006	-0.302
-190.187	617.548	-0.161	0.398
-189.173	290.321	0.139	-0.250
-188.158	248.255	0.118	0.198
-187.144	348.290	0.122	0.237
-186.129	-93.979	0.239	-0.065
-185.114	117.764	0.319	0.387
-184.100	-20.151	-0.178	-0.108
-183.085	-39.216	-0.243	0.126
-182.071	-145.277	0.202	-0.018
-181.056	-92.742	0.243	0.067
-180.042	46.402	0.052	0.047
-179.027	-92.081	0.126	0.035
-178.012	4.223	-0.185	-0.134
-176.998	-163.215	0.264	0.012
-175.983	-142.224	-0.299	0.029
-174.969	-144.808	0.211	-0.019
-173.954	-40.111	0.284	0.146
-172.939	178.905	-0.041	0.060
-171.925	800.000	0.037	-0.130
-170.910	291.481	0.166	0.297
-169.896	-39.112	-0.320	-0.166
-168.881	246.036	-0.190	-0.315
-167.866	-87.730	-0.364	-0.108
-166.852	-135.978	-0.220	-0.025
-165.837	-52.064	-0.075	-0.034
-164.823	356.596	-0.086	0.169
-163.808	-200.000	0.036	-0.243
-162.793	72.079	0.011	-0.012
-161.779	-200.000	0.025	-0.170
-160.764	146.463	0.090	-0.119
-159.750	-17.967	-0.130	0.080
-158.735	137.379	0.179	-0.231
-157.720	50.636	-0.277	-0.259
-156.706	-105.777	0.096	-0.021
-155.691	10.347	0.189	-0.142
-154.677	-30.382	0.121	-0.068
-153.662	124.882	-0.166	0.206
-152.647	49.554	-0.335	-0.311
-151.633	-152.700	-0.112	0.008
-150.618	-14.668	0.045	0.029
-149.604	68.551	-0.217	-0.219
-148.589	-176.871	0.129	-0.003
-147.574	-200.000	-0.028	0.632
-146.560	-119.495	0.226	-0.039
-145.545	-162.849	-0.282	0.014
-144.531	-85.776	-0.125	-0.038
-143.516	-34.465	0.124	0.067
-142.502	-87.351	0.316	0.094
-141.487	117.579	0.096	0.116
-140.472	12.302	0.344	0.261
-139.458	3.543	0.141	-0.101
-138.443	48.115	-0.051	0.047
-137.429	-23.461	0.167	0.099
-136.414	165.327	0.124	0.173
-135.399	-159.318	0.376	-0.021
-134.385	-200.000	0.034	0.183
-133.370	273.696	-0.138	0.240
-132.356	70.723	0.073	0.074
-131.341	-96.079	0.082	0.021
-130.326	-75.878	-0.248	0.086
-129.312	-200.000	-0.052	-0.288
-128.297	82.464	-0.114	0.122
-127.283	-11.780	0.107	-0.069
-126.268	-200.000	0.002	0.415
-125.253	-200.000	-0.057	0.465
-124.239	-176.618	-0.201	0.005
-123.224	105.998	-0.151	0.176
-122.210	-200.000	-0.026	0.132
-121.195	800.000	0.068	0.237
-120.180	70.065	0.102	-0.103
-119.166	800.000	-0.087	-0.352
-118.151	134.549	-0.192	-0.245
-117.137	-115.033	0.095	0.018
-116.122	800.000	-0.051	0.162
-115.107	-76.214	0.430	-0.149
-114.093	-14.697	-0.371	-0.234
-113.078	-13.097	-0.326	0.209
-112.064	82.234	-0.196	0.209
-111.049	-200.000	0.008	-0.200
-110.034	-200.000	-0.334	-0.001
-109.020	-87.146	-0.105	0.031
-108.005	676.352	-0.028	0.071
-106.991	-125.906	-0.158	0.023
-105.976	-75.238	0.165	0.058
-104.962	-200.000	0.056	-0.362
-103.947	-200.000	-0.046	-0.244
-102.932	110.514	0.211	0.249
-101.918	599.493	-0.050	-0.122
-100.903	515.534	-0.071	0.163
-99.889	-85.402	0.526	0.161
-98.874	-200.000	-0.055	0.241
-97.859	-122.992	-0.052	0.008
-96.845	-200.000	0.086	0.434
-95.830	-200.000	0.030	-0.268
-94.816	800.000	-0.084	-0.277
-93.801	-52.249	-0.208	0.095
-92.786	-16.380	-0.189	0.118
-91.772	205.112	-0.069	0.105
-90.757	-200.000	0.016	0.086
-89.743	-78.015	-0.314	0.106
-88.728	-143.366	-0.155	0.015
-87.713	-19.094	0.415	0.253
-86.699	-96.164	-0.085	-0.022
-85.684	-123.161	-0.127	-0.020
-84.670	-110.748	-0.236	0.048
-83.655	68.136	-0.211	0.212
-82.640	-200.000	0.018	-0.337
-81.626	-167.159	0.246	0.010
-80.611	-77.111	-0.443	0.152
-79.597	791.469	0.146	0.395
-78.582	-200.000	-0.062	0.333
-77.567	-200.000	-0.036	-0.258
-76.553	-7.416	0.200	0.133
-75.538	-200.000	-0.023	-0.226
-74.524	-200.000	-0.012	-0.084
-73.509	180.257	-0.033	-0.048
-72.494	800.000	0.115	-0.366
-71.480	800.000	0.028	0.100
-70.465	-61.009	-0.078	-0.032
-69.451	-180.762	0.294	-0.006
-68.436	3.202	0.226	0.162
-67.422	138.642	-0.202	0.261
-66.407	637.177	-0.039	0.097
-65.392	-13.999	-0.298	-0.189
-64.378	146.172	0.358	0.472
-63.363	-200.000	-0.021	0.347
-62.349	149.256	-0.211	0.281
-61.334	10.486	-0.940	-0.703
-60.319	402.166	0.106	0.218
-59.305	-200.000	-0.120	-0.842
-58.290	300.870	0.575	1.043
-57.276	800.000	0.453	1.707
-56.261	-200.000	92.117	551.651
-55.246	560.478	1357.465	3220.476
-54.232	162.016	2541.879	3496.381
-53.217	107.637	2270.019	2653.105
-52.203	43.604	1899.098	1705.477
-51.188	37.672	1691.665	1474.388
-50.173	34.975	1647.537	1415.945
-49.159	52.660	1692.543	1587.442
-48.144	54.741	1709.595	1618.945
-47.130	37.328	1670.156	1452.840
-46.115	34.526	1656.018	1419.667
-45.100	34.370	1651.166	1414.294
-44.086	34.392	1648.564	1412.175
-43.071	34.398	1645.806	1409.802
-42.057	34.338	1644.169	1407.900
-41.042	34.386	1641.477	1405.892
-40.027	34.449	1639.938	1404.981
-39.013	34.436	1638.117	1403.269
-37.998	34.266	1637.149	1401.137
-36.984	34.338	1635.433	1400.138
-35.969	34.421	1633.421	1398.969
-34.954	34.489	1632.265	1398.421
-33.940	34.437	1630.179	1396.201
-32.925	34.415	1628.583	1394.618
-31.911	34.442	1627.014	1393.412
-30.896	34.505	1624.929	1392.031
-29.881	34.437	1623.997	1390.687
-28.867	34.426	1622.201	1389.010
-27.852	34.487	1620.510	1387.955
-26.838	34.491	1618.994	1386.629
-25.823	34.381	1618.095	1385.005
-24.809	34.441	1616.449	1383.978
-23.794	34.534	1615.034	1383.385
-22.779	34.508	1613.523	1381.846
-21.765	34.423	1612.113	1379.965
-20.750	34.420	1610.399	1378.420
-19.736	34.578	1608.797	1378.137
-18.721	34.537	1607.435	1376.624
-17.706	34.546	1605.866	1375.285
-16.692	34.535	1604.000	1373.559
-15.677	34.479	1602.478	1371.793
-14.663	34.487	1601.223	1370.725
-13.648	34.571	1600.101	1370.316
-12.633	34.481	1599.054	1368.717
-11.619	34.467	1597.204	1366.977
-10.604	34.594	1595.287	1366.191
-9.590	34.597	1594.148	1365.181
-8.575	34.491	1593.144	1363.509
-7.560	34.564	1591.904	1362.920
-6.546	34.477	1591.075	1361.535
-5.531	34.488	1589.922	1360.571
-4.517	34.504	1588.808	1359.678
-3.502	34.490	1587.570	1358.466
-2.487	34.513	1585.848	1357.104
-1.473	33.890	1573.274	1341.890
-0.458	29.932	1552.042	1296.078
0.556	22.691	1548.952	1252.708
1.571	19.496	1570.563	1247.027
2.586	18.648	1582.481	1250.201
3.600	17.316	1532.845	1201.479
4.615	12.890	1432.735	1093.616
5.629	8.640	1373.626	1021.327
6.644	7.840	1365.159	1009.865
7.659	7.767	1363.881	1008.371
8.673	7.605	1363.197	1006.748
9.688	7.568	1360.808	1004.663
10.702	7.465	1357.913	1001.787
11.717	9.423	1361.317	1016.589
12.731	13.977	1369.728	1051.665
13.746	17.033	1373.899	1074.146
14.761	16.929	1372.495	1072.297
15.775	15.975	1370.105	1064.312
16.790	14.823	1367.529	1054.945
17.804	14.028	1365.397	1048.200
18.819	13.592	1363.626	1043.999
19.834	13.360	1362.393	1041.499
20.848	13.090	1361.111	1038.729
21.863	12.815	1360.117	1036.154
22.877	12.670	1358.789	1034.139
23.892	12.688	1357.782	1033.395
24.907	12.760	1356.977	1033.138
25.921	12.696	1356.345	1032.170
26.936	12.721	1354.816	1031.069
27.950	12.724	1354.477	1030.735
28.965	12.851	1353.124	1030.408
29.980	12.894	1351.764	1029.550
30.994	13.058	1350.473	1029.502
32.009	13.020	1349.524	1028.450
33.023	13.012	1348.320	1027.389
34.038	12.932	1347.016	1025.809
35.053	12.824	1346.092	1024.341
36.067	12.921	1344.577	1023.703
37.082	12.863	1343.751	1022.622
38.096	12.936	1342.739	1022.215
39.111	12.961	1341.981	1021.700
40.126	12.909	1341.104	1020.620
41.140	12.719	1340.401	1018.822
42.155	12.749	1339.496	1018.227
43.169	12.704	1339.625	1017.959
44.184	12.637	1338.853	1016.869
45.199	12.629	1338.805	1016.695
46.213	12.676	1338.343	1016.543
47.228	12.864	1336.993	1016.585
48.242	12.837	1336.441	1015.906
49.257	12.749	1334.835	1014.058
50.271	12.893	1332.972	1013.437
51.286	12.845	1331.725	1012.107
52.301	12.841	1330.772	1011.268
53.315	12.772	1329.572	1009.842
54.330	12.747	1328.449	1008.750
55.344	12.743	1327.402	1007.840
56.359	12.788	1326.304	1007.192
57.374	12.698	1325.464	1005.915
58.388	12.632	1324.656	1004.809
59.403	12.727	1324.236	1004.983
60.417	12.641	1323.334	1003.685
61.432	12.636	1322.509	1002.941
62.447	12.529	1321.616	1001.522
63.461	12.543	1320.806	1000.905
64.476	12.585	1319.578	1000.140
65.490	12.534	1318.634	999.029
66.505	12.578	1316.604	997.668
67.520	12.506	1315.743	996.487
68.534	12.592	1314.726	996.149
69.549	12.582	1313.622	995.167
70.563	12.650	1312.188	994.401
71.578	12.641	1311.555	993.780
72.593	12.531	1310.388	992.148
73.607	12.451	1309.977	991.262
74.622	12.397	1309.473	990.470
75.636	12.495	1308.500	990.234
76.651	12.521	1308.000	989.926
77.666	12.410	1307.358	988.686
78.680	12.383	1307.009	988.173
79.695	12.592	1306.006	988.580
80.709	12.595	1305.229	987.924
81.724	12.613	1304.596	987.462
82.739	12.701	1303.580	987.136
83.753	12.801	1302.664	986.957
84.768	12.915	1301.501	986.668
85.782	12.875	1300.814	985.823
86.797	12.794	1299.495	984.247
87.812	12.823	1298.079	983.262
88.826	12.831	1296.579	982.089
89.841	12.722	1296.240	981.095
90.855	12.856	1295.316	981.107
91.870	12.823	1294.493	980.201
92.884	12.755	1293.408	978.885
93.899	12.907	1292.768	979.219
94.914	12.986	1291.848	978.905
95.928	12.909	1290.987	977.708
96.943	12.896	1290.333	977.051
97.957	12.804	1289.767	975.993
98.972	12.861	1288.468	975.261
99.987	12.937	1287.172	974.640
101.001	12.917	1286.307	973.780
102.016	12.812	1285.519	972.477
103.030	12.838	1284.495	971.773
104.045	12.792	1284.330	971.291
105.060	12.861	1282.478	970.207
106.074	12.758	1280.983	968.387
107.089	12.665	1279.766	966.834
108.103	12.733	1278.294	966.034
109.118	12.670	1277.440	964.937
110.133	12.586	1275.944	963.231
111.147	12.627	1274.334	962.166
112.162	12.693	1273.405	961.767
113.176	12.776	1272.312	961.340
114.191	12.731	1271.312	960.237
115.206	12.724	1270.349	959.386
116.220	12.754	1269.102	958.530
117.235	12.631	1268.412	957.209
118.249	12.724	1267.029	956.625
119.264	12.640	1266.095	955.344
120.279	12.694	1265.085	954.813
121.293	12.738	1263.634	953.885
122.308	12.594	1262.939	952.444
123.322	12.642	1261.628	951.649
124.337	12.573	1260.895	950.614
125.352	12.536	1259.850	949.531
126.366	12.646	1258.496	949.060
127.381	12.615	1257.823	948.290
128.395	12.638	1256.639	947.443
129.410	12.723	1255.274	946.819
130.424	12.633	1255.039	946.042
131.439	12.712	1254.210	945.788
132.454	12.681	1253.305	944.841
133.468	12.746	1252.283	944.359
134.483	12.812	1251.121	943.778
135.497	12.721	1250.701	942.858
136.512	12.792	1249.292	942.115
137.527	12.822	1247.772	941.057
138.541	12.716	1246.620	939.502
139.556	12.855	1245.080	939.052
140.570	12.901	1243.900	938.340
141.585	12.990	1242.786	937.924
142.600	12.936	1241.460	936.533
143.614	12.965	1241.084	936.331
144.629	13.062	1239.732	935.776
145.643	12.999	1238.852	934.674
146.658	12.940	1237.634	933.339
147.673	12.896	1236.104	931.856
148.687	12.755	1235.003	930.142
149.702	12.870	1233.718	929.744
150.716	12.826	1232.642	928.602
151.731	12.928	1231.503	928.237
152.746	12.837	1230.719	927.049
153.760	12.888	1229.448	926.297
154.775	12.952	1228.113	925.571
155.789	12.927	1226.835	924.386
156.804	12.917	1226.157	923.738
157.819	13.081	1224.956	923.667
158.833	13.028	1224.225	922.737
159.848	12.978	1223.211	921.614
160.862	13.059	1222.505	921.449
161.877	12.914	1221.368	919.702
162.892	12.921	1219.904	918.561
163.906	12.924	1219.245	917.999
164.921	12.971	1218.171	917.373
165.935	12.977	1217.435	916.767
166.950	13.073	1216.941	916.847
167.964	13.057	1215.876	915.876
168.979	12.976	1215.319	914.925
169.994	13.040	1214.502	914.583
171.008	13.070	1213.679	914.050
172.023	13.127	1213.066	913.820
173.037	13.150	1212.080	913.126
174.052	13.046	1211.690	912.179
175.067	13.064	1210.122	911.014
176.081	13.139	1208.815	910.363
177.096	12.991	1208.354	909.121
178.110	13.093	1206.898	908.508
179.125	13.038	1206.087	907.513
180.140	13.112	1204.889	906.936
181.154	13.093	1203.570	905.760
182.169	13.126	1202.216	904.844
183.183	13.152	1200.868	903.889
184.198	13.261	1199.970	903.730
185.213	13.237	1199.115	902.874
186.227	13.254	1198.160	902.168
187.242	13.363	1196.596	901.508
188.256	13.315	1195.988	900.705
189.271	13.249	1195.246	899.710
190.286	13.315	1193.774	898.877
191.300	13.031	1193.282	896.887
192.315	12.963	1192.854	896.115
193.329	13.101	1191.679	895.903
194.344	13.205	1190.684	895.640
195.359	13.237	1190.359	895.487
196.373	13.330	1189.951	895.604
197.388	13.294	1189.663	895.117
198.402	13.297	1189.313	894.790
199.417	13.368	1188.746	894.668
200.432	13.565	1187.575	894.769
201.446	13.559	1186.700	894.002
202.461	13.516	1186.138	893.265
203.475	13.605	1185.166	892.932
204.490	13.494	1184.364	891.652
205.504	13.470	1182.565	890.090
206.519	13.516	1181.532	889.480
207.534	13.461	1179.931	887.905
208.548	13.470	1179.189	887.312
209.563	13.427	1178.503	886.488
210.577	13.500	1177.429	885.994
211.592	13.544	1176.673	885.581
212.607	13.654	1176.155	885.700
213.621	13.675	1174.891	884.781
214.636	13.507	1174.465	883.487
215.650	13.647	1173.517	883.440
216.665	13.641	1172.736	882.743
217.680	13.659	1171.859	882.099
218.694	13.701	1170.694	881.373
219.709	13.726	1169.897	880.825
220.723	13.672	1169.198	879.933
221.738	13.719	1168.385	879.493
222.753	13.698	1167.598	878.712
223.767	13.807	1167.071	878.813
224.782	13.801	1166.572	878.330
225.796	13.830	1165.907	877.902
226.811	13.904	1164.863	877.431
227.826	13.859	1164.374	876.746
228.840	13.791	1163.982	876.017
229.855	13.831	1163.086	875.474
230.869	13.810	1162.049	874.508
231.884	13.723	1161.402	873.482
232.899	13.787	1160.700	873.217
233.913	13.759	1159.653	872.203
234.928	13.762	1158.757	871.468
235.942	13.698	1158.178	870.620
236.957	13.726	1157.622	870.274
237.972	13.695	1156.659	869.306
238.986	13.707	1156.903	869.477
240.001	13.833	1155.370	868.906
241.015	13.794	1154.755	868.167
242.030	13.815	1154.011	867.638
243.045	13.946	1152.778	867.317
244.059	13.916	1152.308	866.731
245.074	13.943	1151.341	866.070
246.088	14.033	1150.203	865.602
247.103	14.003	1149.989	865.210
248.117	13.985	1149.352	864.561
249.132	14.023	1148.721	864.207
250.147	14.207	1147.982	864.534
251.161	14.246	1147.291	864.138
252.176	14.269	1146.437	863.535
253.190	14.244	1146.234	863.176
254.205	14.303	1145.306	862.709
255.220	14.310	1145.027	862.456
256.234	14.367	1144.081	861.964
257.249	14.301	1143.987	861.478
258.263	14.388	1142.680	860.866
259.278	14.377	1142.241	860.400
260.293	14.355	1141.939	859.983
261.307	14.399	1141.202	859.578
262.322	14.439	1140.223	858.970
263.336	14.510	1139.544	858.749
264.351	14.532	1139.208	858.534
265.366	14.515	1138.547	857.875
266.380	14.643	1137.534	857.690
267.395	14.534	1136.784	856.491
268.409	14.473	1136.064	855.559
269.424	14.454	1135.487	854.952
270.439	14.456	1135.260	854.717
271.453	14.540	1134.251	854.308
272.468	14.447	1133.365	853.092
273.482	14.395	1132.854	852.363
274.497	14.555	1131.941	852.422
275.512	14.593	1131.176	851.962
276.526	14.428	1130.681	850.675
277.541	14.437	1130.071	850.182
278.555	14.544	1129.374	850.130
279.570	14.699	1128.377	850.091
280.585	14.638	1127.737	849.225
281.599	14.694	1126.896	848.804
282.614	14.617	1125.668	847.413
283.628	14.574	1124.837	846.491
284.643	14.654	1123.779	846.025
285.657	14.701	1123.119	845.695
286.672	14.727	1122.237	845.083
287.687	14.643	1121.024	843.671
288.701	14.653	1120.639	843.357
289.716	14.827	1119.776	843.511
290.730	14.773	1119.086	842.648
291.745	14.737	1118.661	842.072
292.760	14.746	1117.717	841.331
293.774	14.813	1117.153	841.167
294.789	14.902	1116.694	841.197
295.803	14.935	1116.197	840.913
296.818	14.810	1115.489	839.680
297.833	14.818	1114.498	838.899
298.847	14.742	1113.839	837.948
299.862	14.858	1112.624	837.540
300.876	14.862	1112.357	837.283
301.891	14.939	1111.724	837.121
302.906	14.976	1111.076	836.744
303.920	15.016	1110.375	836.341
304.935	15.135	1109.703	836.354
305.949	15.150	1109.332	836.076
306.964	15.121	1108.512	835.236
307.979	15.039	1107.668	834.119
308.993	15.168	1106.695	833.957
310.008	15.074	1105.987	832.881
311.022	15.273	1105.095	833.123
312.037	15.036	1104.781	831.635
313.052	15.135	1103.492	831.082
314.066	15.047	1102.476	829.811
315.081	15.071	1101.322	828.988
316.095	15.017	1101.008	828.408
317.110	15.089	1100.653	828.423
318.125	15.166	1099.650	827.977
319.139	15.142	1099.035	827.322
320.154	15.076	1098.396	826.441
321.168	14.992	1098.264	825.857
322.183	15.085	1097.391	825.583
323.197	15.111	1096.963	825.318
324.212	15.095	1096.418	824.755
325.227	15.158	1095.745	824.485
326.241	15.161	1095.059	823.913
327.256	15.188	1094.106	823.253
328.270	15.156	1093.221	822.359
329.285	15.173	1091.921	821.392
330.300	15.190	1091.225	820.880
331.314	15.276	1090.283	820.517
332.329	15.162	1089.780	819.510
333.343	15.239	1089.110	819.309
334.358	15.256	1087.876	818.393
335.373	15.310	1087.199	818.075
336.387	15.415	1086.251	817.800
337.402	15.331	1085.636	816.854
338.416	15.300	1085.558	816.572
339.431	15.476	1084.531	816.585
340.446	15.419	1084.120	815.928
341.460	15.480	1083.589	815.753
342.475	15.501	1082.569	815.012
343.489	15.591	1081.775	814.777
344.504	15.574	1080.905	813.968
345.519	15.719	1079.659	813.660
346.533	15.706	1078.931	812.974
347.548	15.747	1077.966	812.375
348.562	15.713	1077.421	811.728
349.577	15.660	1076.686	810.849
350.592	15.492	1075.986	809.437
351.606	15.440	1075.337	808.627
352.621	15.586	1074.661	808.754
353.635	15.624	1073.544	808.025
354.650	15.714	1073.092	808.044
355.665	15.591	1072.687	807.074
356.679	15.501	1072.153	806.172
357.694	15.663	1071.519	806.399
358.708	15.698	1070.826	805.977
359.723	15.736	1070.061	805.510
360.738	15.800	1069.359	805.216
361.752	15.835	1068.948	805.003
362.767	15.811	1068.007	804.109
363.781	15.795	1067.996	803.950
364.796	15.852	1067.422	803.722
365.810	15.897	1066.785	803.387
366.825	15.926	1066.318	803.102
367.840	15.831	1065.806	802.193
368.854	16.068	1065.061	802.690
369.869	15.947	1064.302	801.471
370.883	16.010	1063.216	800.881
371.898	16.019	1062.683	800.448
372.913	15.959	1062.175	799.712
373.927	16.066	1061.413	799.574
374.942	16.047	1061.210	799.260
375.956	16.004	1060.832	798.702
376.971	16.060	1059.953	798.237
377.986	16.139	1059.514	798.209
379.000	16.194	1058.775	797.840
380.015	16.119	1058.794	797.427
381.029	16.224	1057.721	797.045
382.044	16.160	1057.280	796.341
383.059	16.227	1056.696	796.149
384.073	16.242	1055.620	795.335
385.088	16.286	1054.386	794.543
386.102	16.265	1053.794	793.930
387.117	16.283	1052.466	792.944
388.132	16.145	1052.076	791.931
389.146	16.181	1050.893	791.139
390.161	16.248	1050.378	790.994
391.175	16.227	1049.677	790.301
392.190	16.177	1049.212	789.644
393.205	16.215	1048.358	789.110
394.219	16.269	1047.893	788.944
395.234	16.405	1046.349	788.344
396.248	16.241	1045.418	786.807
397.263	16.284	1044.698	786.400
398.278	16.275	1043.980	785.745
399.292	16.243	1043.218	784.955
400.307	16.289	1042.301	784.408
401.321	16.334	1041.711	784.106
402.336	16.213	1041.393	783.235
403.350	16.348	1040.662	783.238
404.365	16.362	1040.085	782.803
405.380	16.390	1039.386	782.337
406.394	16.350	1038.685	781.555
407.409	16.447	1037.562	781.087
408.423	16.579	1037.230	781.379
409.438	16.555	1036.768	780.849
410.453	16.575	1036.003	780.296
411.467	16.611	1034.998	779.637
412.482	16.596	1034.744	779.309
413.496	16.649	1033.940	778.880
414.511	16.750	1033.309	778.799
415.526	16.858	1032.457	778.583
416.540	16.710	1032.510	777.873
417.555	16.801	1031.964	777.814
418.569	16.693	1031.456	776.867
419.584	16.692	1031.123	776.539
420.599	16.802	1030.637	776.611
421.613	99.212	1316.240	1448.396
422.628	90.764	1357.826	1448.509
