DTS Sentinel unit serial number:	SN413079Multiplexer serial number:	ORYXHardware model number:	OX4-SRSoftware version number:	ORYX F/W v4.00 Oryx Data Collector v3.7.2.0data status	okinstallation	princeton_trtdifferential loss correction	single-endedforward channel	channel 2reverse channel	N/Adate	2019/09/18time	14:47:34forward acquisition time	60.00reverse acquisition time	0.00gamma	496.2192k internal	0.2317k external	0.2317temperature offset calibration	1.0003default loss term (dB/km)	0.3790temperature slope calibration	1.0000multiplexer offset coefficient	1.0000multiplexer slope coefficient	1.0000fibre end	0.00T internal ref (°C)	35.00T ext. ref 1 (°C)	0.72T ext. ref 2 (°C)	32.24length (m)	temperature (°C)	Stokes	anti-Stokes-747.200	211.947	0.201	0.321
-746.185	-126.104	0.167	0.025
-745.171	242.251	0.058	-0.098
-744.156	189.136	-0.159	0.241
-743.142	107.478	-0.181	-0.219
-742.127	210.504	0.090	0.143
-741.112	-72.375	0.130	-0.049
-740.098	56.042	-0.120	0.118
-739.083	-4.972	-0.470	0.328
-738.069	26.869	-0.363	0.308
-737.054	-200.000	-0.016	-0.318
-736.039	-200.000	-0.042	0.298
-735.025	-200.000	0.004	-0.027
-734.010	-10.126	-0.056	0.037
-732.996	-165.278	-0.476	0.021
-731.981	-200.000	0.015	0.317
-730.966	-24.065	-0.205	0.124
-729.952	29.106	-0.115	-0.099
-728.937	320.756	-0.238	-0.457
-727.923	553.501	0.068	0.166
-726.908	-120.267	0.255	0.044
-725.894	-200.000	-0.016	0.083
-724.879	-200.000	-0.001	-0.075
-723.864	5.669	0.190	0.142
-722.850	276.868	-0.097	0.174
-721.835	-200.000	0.071	-0.365
-720.821	-200.000	0.027	0.388
-719.806	-39.174	0.276	-0.147
-718.791	725.408	0.087	0.234
-717.777	-200.000	-0.032	0.175
-716.762	-50.601	-0.260	-0.124
-715.748	-139.106	0.221	0.024
-714.733	-200.000	0.042	0.301
-713.718	-145.184	0.150	0.014
-712.704	-48.349	0.125	0.061
-711.689	-200.000	0.005	0.029
-710.675	-179.597	-0.364	0.008
-709.660	-133.838	0.214	0.027
-708.645	108.302	-0.048	-0.057
-707.631	109.367	-0.094	0.114
-706.616	33.707	-0.312	-0.274
-705.602	200.961	-0.073	0.114
-704.587	0.681	-0.204	0.148
-703.572	59.499	-0.400	0.399
-702.558	18.630	0.165	0.134
-701.543	-6.368	-0.211	0.145
-700.529	14.805	-0.107	-0.084
-699.514	11.634	0.091	0.071
-698.499	-58.506	-0.086	0.038
-697.485	65.670	-0.136	0.139
-696.470	569.650	0.137	0.337
-695.456	-30.346	-0.191	-0.110
-694.441	282.971	0.101	-0.183
-693.426	-52.538	-0.377	-0.176
-692.412	-38.231	-0.230	-0.123
-691.397	-178.387	0.134	-0.003
-690.383	74.589	0.153	-0.163
-689.368	-95.482	0.478	0.129
-688.354	59.297	0.127	0.127
-687.339	-75.569	-0.277	0.100
-686.324	-200.000	-0.088	0.396
-685.310	326.971	-0.145	0.280
-684.295	-49.013	0.151	0.073
-683.281	94.023	-0.187	-0.214
-682.266	-200.000	0.013	0.096
-681.251	800.000	0.032	0.102
-680.237	281.026	-0.101	0.182
-679.222	-128.066	-0.262	0.038
-678.208	-200.000	0.005	-0.214
-677.193	112.098	-0.379	0.462
-676.178	-200.000	0.044	0.460
-675.164	-65.441	0.303	0.123
-674.149	-11.084	-0.132	-0.088
-673.135	-61.571	0.137	0.058
-672.120	279.604	0.057	-0.102
-671.105	59.449	0.070	0.070
-670.091	-200.000	-0.071	0.370
-669.076	498.992	0.051	0.119
-668.062	-45.792	0.248	-0.124
-667.047	-162.464	-0.085	0.004
-666.032	-200.000	-0.054	-0.512
-665.018	-200.000	-0.004	0.145
-664.003	-154.236	-0.455	0.031
-662.989	23.675	0.108	0.090
-661.974	-200.000	-0.012	-0.197
-660.959	126.503	-0.101	-0.129
-659.945	119.432	-0.173	0.216
-658.930	402.406	-0.074	-0.157
-657.916	-146.167	-0.264	0.023
-656.901	-9.148	0.058	-0.039
-655.886	-200.000	0.020	0.105
-654.872	121.085	-0.041	-0.052
-653.857	7.579	-0.396	-0.299
-652.843	-38.745	0.217	-0.116
-651.828	-200.000	0.191	-0.001
-650.814	-56.963	-0.258	0.115
-649.799	-119.985	-0.168	0.029
-648.784	-26.331	0.121	-0.072
-647.770	-200.000	-0.044	-0.362
-646.755	-148.060	-0.119	-0.010
-645.741	-200.000	0.050	0.462
-644.726	-200.000	0.011	0.150
-643.711	800.000	-0.039	-0.168
-642.697	-200.000	0.019	0.146
-641.682	-123.236	-0.404	-0.065
-640.668	-200.000	0.025	-0.385
-639.653	-45.403	-0.175	0.088
-638.638	-145.731	-0.151	0.014
-637.624	5.561	-0.428	-0.319
-636.609	-146.064	0.500	0.044
-635.595	69.577	-0.205	0.213
-634.580	-200.000	0.030	0.354
-633.565	-200.000	-0.058	-0.368
-632.551	44.999	0.084	0.078
-631.536	59.010	-0.050	0.050
-630.522	-200.000	0.010	0.245
-629.507	-200.000	-0.024	-0.150
-628.492	-200.000	-0.003	0.113
-627.478	17.057	-0.140	0.112
-626.463	181.699	0.021	0.031
-625.449	-200.000	-0.023	-0.251
-624.434	-47.002	-0.145	-0.071
-623.419	720.400	-0.089	0.238
-622.405	-35.852	0.294	0.160
-621.390	-200.000	0.026	-0.126
-620.376	-80.253	0.365	-0.123
-619.361	670.998	-0.068	0.177
-618.346	-120.857	0.300	-0.051
-617.332	572.189	-0.160	-0.392
-616.317	-200.000	0.004	-0.257
-615.303	-35.139	-0.225	0.124
-614.288	800.000	-0.049	0.145
-613.273	140.498	0.128	-0.170
-612.259	-111.768	-0.150	0.031
-611.244	155.168	0.104	0.144
-610.230	-34.079	-0.216	0.120
-609.215	-9.676	-0.181	-0.122
-608.201	-35.990	0.202	0.110
-607.186	-139.713	-0.297	-0.032
-606.171	95.670	-0.092	0.106
-605.157	-200.000	0.011	0.168
-604.142	156.904	-0.105	-0.146
-603.128	-121.406	-0.253	-0.042
-602.113	-9.368	0.189	0.127
-601.098	141.091	-0.178	-0.237
-600.084	800.000	-0.075	0.215
-599.069	-15.664	-0.155	0.099
-598.055	-7.651	0.246	0.167
-597.040	800.000	0.052	-0.173
-596.025	-68.529	0.027	-0.010
-595.011	229.095	0.135	-0.222
-593.996	-70.094	0.125	-0.048
-592.982	321.933	0.062	0.119
-591.967	-157.163	-0.122	-0.007
-590.952	134.991	-0.174	-0.228
-589.938	-200.000	-0.019	-0.093
-588.923	-200.000	0.048	-0.265
-587.909	-74.659	-0.031	-0.011
-586.894	-151.783	0.100	0.007
-585.879	24.261	-0.171	-0.142
-584.865	-40.110	0.149	0.078
-583.850	87.065	-0.215	-0.239
-582.836	-76.831	-0.270	0.095
-581.821	237.288	0.078	-0.131
-580.806	-11.552	-0.335	-0.221
-579.792	-106.895	0.377	0.084
-578.777	442.404	-0.091	0.200
-577.763	800.000	0.143	0.420
-576.748	615.669	0.088	-0.222
-575.733	602.792	0.072	-0.179
-574.719	-200.000	-0.054	-0.251
-573.704	800.000	-0.048	0.210
-572.690	-33.754	-0.030	-0.017
-571.675	183.097	0.059	0.087
-570.661	160.421	0.313	0.439
-569.646	23.221	0.152	-0.126
-568.631	800.000	0.053	0.233
-567.617	-200.000	0.034	-0.284
-566.602	168.515	0.152	-0.218
-565.588	-46.144	-0.173	0.086
-564.573	164.999	0.060	-0.086
-563.558	-104.671	-0.518	-0.120
-562.544	-200.000	-0.026	0.292
-561.529	-21.390	-0.209	-0.128
-560.515	-200.000	0.040	0.248
-559.500	388.113	-0.150	-0.311
-558.485	161.415	0.171	0.240
-557.471	800.000	-0.061	-0.179
-556.456	-128.134	0.260	0.037
-555.442	800.000	-0.068	0.229
-554.427	-50.702	0.272	0.129
-553.412	444.614	0.111	-0.245
-552.398	-41.754	-0.142	-0.073
-551.383	-36.354	-0.195	-0.106
-550.369	76.482	0.052	0.055
-549.354	76.115	0.282	0.300
-548.339	-98.954	0.035	0.009
-547.325	-114.971	-0.084	0.016
-546.310	-200.000	-0.008	0.127
-545.296	-200.000	-0.022	0.152
-544.281	-200.000	-0.033	0.261
-543.266	-40.162	-0.453	-0.237
-542.252	266.925	0.194	-0.340
-541.237	-200.000	-0.039	-0.281
-540.223	-71.736	0.300	0.112
-539.208	-200.000	0.004	0.032
-538.193	90.269	0.083	0.093
-537.179	-55.515	0.190	-0.085
-536.164	314.567	-0.057	-0.108
-535.150	225.044	-0.064	-0.105
-534.135	-200.000	-0.009	-0.265
-533.121	-139.737	-0.192	-0.021
-532.106	-32.053	-0.351	-0.197
-531.091	771.983	0.069	-0.188
-530.077	-200.000	-0.041	0.298
-529.062	-200.000	-0.012	-0.117
-528.048	102.097	-0.342	0.401
-527.033	-1.248	0.109	0.078
-526.018	359.624	0.159	0.319
-525.004	-141.884	0.133	0.013
-523.989	-90.582	0.245	0.071
-522.975	552.198	0.125	0.301
-521.960	-57.053	-0.111	0.049
-520.945	-73.151	0.094	-0.035
-519.931	-145.413	-0.120	-0.011
-518.916	77.935	-0.124	-0.132
-517.902	-132.360	0.211	-0.027
-516.887	56.126	-0.166	-0.161
-515.872	510.154	-0.052	-0.122
-514.858	-148.240	-0.323	-0.027
-513.843	-200.000	0.024	0.147
-512.829	-143.122	-0.150	0.015
-511.814	-38.062	-0.091	0.049
-510.799	747.223	0.054	0.145
-509.785	-143.959	-0.102	-0.010
-508.770	39.644	0.216	-0.194
-507.756	156.067	0.159	-0.220
-506.741	-200.000	0.031	-0.259
-505.726	116.146	-0.137	-0.168
-504.712	142.025	-0.140	-0.187
-503.697	-200.000	-0.030	0.265
-502.683	19.107	-0.153	-0.123
-501.668	97.856	-0.070	0.080
-500.653	-24.341	0.117	0.070
-499.639	138.938	-0.166	-0.218
-498.624	-21.949	-0.167	-0.102
-497.610	126.441	0.079	-0.101
-496.595	-36.920	0.030	0.016
-495.581	-133.143	-0.195	-0.025
-494.566	-200.000	0.087	0.400
-493.551	-156.248	0.245	-0.015
-492.537	89.974	0.103	0.116
-491.522	-36.306	-0.141	0.076
-490.508	-75.166	0.455	-0.163
-489.493	-149.271	-0.228	-0.018
-488.478	333.469	0.074	-0.144
-487.464	800.000	-0.065	0.242
-486.449	95.344	-0.250	-0.286
-485.435	-200.000	-0.036	-0.263
-484.420	800.000	0.064	0.182
-483.405	-115.478	0.203	-0.038
-482.391	-200.000	-0.008	-0.093
-481.376	53.825	0.271	-0.261
-480.362	656.939	0.073	0.188
-479.347	-36.397	-0.387	0.209
-478.332	-97.652	0.015	0.004
-477.318	-174.681	0.277	-0.008
-476.303	-92.218	0.193	0.055
-475.289	-119.221	-0.108	-0.019
-474.274	800.000	0.043	0.175
-473.259	176.385	-0.073	0.106
-472.245	-82.273	0.091	-0.030
-471.230	-200.000	-0.082	0.000
-470.216	694.440	0.071	0.187
-469.201	-52.108	0.208	0.097
-468.186	800.000	-0.041	0.138
-467.172	-200.000	0.004	0.158
-466.157	250.032	-0.068	0.115
-465.143	12.216	0.241	0.186
-464.128	-110.622	0.063	-0.013
-463.113	258.607	-0.063	0.108
-462.099	-95.095	-0.124	-0.034
-461.084	-25.945	-0.123	0.072
-460.070	121.444	0.097	-0.121
-459.055	-24.637	0.300	-0.179
-458.040	125.170	0.102	0.128
-457.026	-200.000	-0.008	0.169
-456.011	28.926	0.131	0.111
-454.997	-30.449	0.466	0.265
-453.982	-31.310	0.202	0.114
-452.968	-200.000	0.019	0.422
-451.953	-75.465	0.165	-0.059
-450.938	-200.000	-0.017	-0.183
-449.924	-200.000	-0.020	-0.303
-448.909	-112.557	-0.271	0.054
-447.895	800.000	-0.066	-0.254
-446.880	277.944	0.136	-0.242
-445.865	535.448	0.073	0.173
-444.851	800.000	0.024	0.088
-443.836	-134.310	-0.192	0.024
-442.822	-122.940	-0.187	-0.030
-441.807	-42.810	-0.170	-0.087
-440.792	-200.000	0.016	-0.082
-439.778	800.000	0.041	-0.140
-438.763	139.483	0.093	-0.123
-437.749	31.250	-0.055	-0.048
-436.734	-200.000	-0.024	-0.415
-435.719	27.471	-0.285	0.240
-434.705	88.623	-0.240	0.267
-433.690	-106.726	0.130	-0.029
-432.676	-73.354	0.255	0.093
-431.661	-78.755	0.088	0.030
-430.646	-99.269	0.276	-0.070
-429.632	303.663	-0.106	0.196
-428.617	800.000	0.046	0.152
-427.603	-45.363	-0.142	-0.070
-426.588	-200.000	-0.036	-0.327
-425.573	-25.183	0.233	0.138
-424.559	-63.797	0.134	-0.055
-423.544	53.992	-0.143	0.137
-422.530	-32.988	-0.169	0.094
-421.515	-86.275	-0.375	-0.115
-420.500	-200.000	-0.008	-0.076
-419.486	124.696	-0.041	-0.052
-418.471	800.000	0.057	0.189
-417.457	-200.000	0.070	-0.418
-416.442	-20.026	0.061	0.038
-415.428	800.000	-0.056	-0.164
-414.413	-34.050	-0.211	-0.116
-413.398	800.000	-0.044	0.184
-412.384	575.385	0.084	0.206
-411.369	-200.000	-0.028	0.158
-410.355	-124.663	0.162	-0.025
-409.340	-30.471	-0.044	-0.025
-408.325	-155.529	-0.304	-0.020
-407.311	-55.267	-0.278	0.125
-406.296	-200.000	0.041	-0.270
-405.282	720.957	0.156	0.415
-404.267	-109.058	-0.242	-0.051
-403.252	-143.090	0.037	0.004
-402.238	-200.000	0.005	-0.084
-401.223	78.976	0.146	0.157
-400.209	-200.000	0.017	0.255
-399.194	-70.514	0.344	0.130
-398.179	-110.586	0.248	0.051
-397.165	93.160	-0.137	0.155
-396.150	-129.712	-0.065	0.009
-395.136	-6.138	-0.280	-0.191
-394.121	190.119	0.198	0.297
-393.106	-135.695	-0.199	0.024
-392.092	131.657	-0.051	-0.065
-391.077	339.738	-0.068	0.132
-390.063	767.904	0.032	-0.088
-389.048	-200.000	-0.012	-0.284
-388.033	800.000	0.107	-0.447
-387.019	-80.474	0.212	-0.071
-386.004	350.516	0.083	-0.164
-384.990	37.121	-0.196	-0.173
-383.975	-79.503	-0.200	0.067
-382.960	-90.808	0.114	0.033
-381.946	115.957	-0.177	0.217
-380.931	-190.965	-0.189	-0.002
-379.917	-118.317	0.172	-0.031
-378.902	-12.062	0.245	0.160
-377.888	-94.722	-0.129	-0.035
-376.873	23.963	0.371	-0.305
-375.858	800.000	0.079	0.227
-374.844	-133.297	-0.247	-0.031
-373.829	-0.088	-0.226	-0.161
-372.815	-200.000	-0.054	0.448
-371.800	-27.517	0.225	-0.131
-370.785	2.587	-0.226	-0.164
-369.771	-67.184	0.191	-0.075
-368.756	-87.605	0.036	-0.011
-367.742	-87.043	0.213	-0.065
-366.727	-102.517	-0.166	0.040
-365.712	46.643	0.063	0.058
-364.698	800.000	0.152	0.427
-363.683	-200.000	-0.008	0.106
-362.669	491.909	-0.055	0.125
-361.654	90.761	-0.150	0.168
-360.639	-200.000	-0.001	-0.027
-359.625	-56.888	-0.561	-0.247
-358.610	-131.674	0.093	-0.012
-357.596	643.999	-0.115	0.292
-356.581	-141.047	0.316	0.032
-355.566	-200.000	-0.013	-0.385
-354.552	-83.813	-0.210	0.067
-353.537	-85.339	0.263	-0.082
-352.523	-93.629	-0.213	-0.059
-351.508	55.388	-0.159	0.154
-350.493	10.140	0.144	0.109
-349.479	61.141	0.198	0.196
-348.464	-79.719	-0.101	0.034
-347.450	-114.529	-0.271	-0.052
-346.435	21.045	-0.280	-0.226
-345.420	38.384	0.278	-0.247
-344.406	-104.210	0.257	-0.060
-343.391	25.662	0.064	-0.053
-342.377	-200.000	0.285	-0.001
-341.362	800.000	0.084	0.314
-340.348	563.539	0.095	-0.229
-339.333	139.310	0.277	-0.363
-338.318	110.531	-0.288	0.345
-337.304	91.928	0.250	0.280
-336.289	800.000	0.027	0.111
-335.275	-108.196	0.203	0.044
-334.260	61.073	-0.058	0.057
-333.245	157.564	-0.141	-0.195
-332.231	25.350	0.056	0.047
-331.216	-200.000	-0.047	0.447
-330.202	800.000	0.002	0.009
-329.187	135.641	-0.068	-0.088
-328.172	-50.225	-0.091	-0.043
-327.158	-200.000	0.028	-0.146
-326.143	-117.980	-0.114	0.020
-325.129	-200.000	0.032	0.266
-324.114	4.758	0.220	0.161
-323.099	-200.000	0.004	0.042
-322.085	100.724	-0.265	-0.307
-321.070	-66.253	0.181	-0.072
-320.056	-183.024	-0.370	-0.007
-319.041	-70.111	-0.169	-0.064
-318.026	273.358	-0.080	0.142
-317.012	-52.835	-0.288	0.132
-315.997	-200.000	-0.023	0.133
-314.983	-200.000	-0.001	0.149
-313.968	-78.054	-0.115	0.040
-312.953	-200.000	0.068	0.332
-311.939	280.048	0.101	0.179
-310.924	115.103	0.114	-0.138
-309.910	-200.000	0.008	0.086
-308.895	-118.459	0.175	-0.031
-307.880	174.451	0.060	-0.086
-306.866	471.203	-0.128	-0.287
-305.851	-82.923	-0.289	-0.093
-304.837	-61.264	0.243	-0.102
-303.822	63.667	-0.164	-0.164
-302.807	800.000	-0.048	-0.159
-301.793	-49.531	0.205	0.097
-300.778	284.421	-0.241	-0.432
-299.764	-70.290	-0.098	-0.037
-298.749	93.537	-0.149	-0.168
-297.735	-200.000	0.002	-0.114
-296.720	214.583	0.170	0.268
-295.705	-200.000	-0.071	-0.331
-294.691	800.000	-0.075	0.259
-293.676	409.135	-0.102	-0.216
-292.662	-200.000	-0.000	-0.376
-291.647	-200.000	-0.065	0.374
-290.632	-200.000	-0.013	-0.120
-289.618	80.789	-0.081	0.087
-288.603	298.583	-0.100	-0.183
-287.589	-200.000	-0.031	-0.381
-286.574	203.861	-0.116	0.179
-285.559	-200.000	0.013	0.175
-284.545	-99.223	-0.319	0.080
-283.530	93.437	0.228	0.256
-282.516	-4.948	0.312	0.214
-281.501	47.339	0.073	0.068
-280.486	-200.000	-0.017	0.156
-279.472	-25.806	0.069	-0.041
-278.457	-46.638	-0.255	0.124
-277.443	800.000	0.081	0.337
-276.428	269.711	0.133	-0.232
-275.413	-88.802	0.300	0.089
-274.399	61.579	0.234	-0.231
-273.384	-58.841	-0.153	0.066
-272.370	610.937	-0.126	-0.313
-271.355	-200.000	0.036	-0.414
-270.340	85.722	-0.223	0.243
-269.326	-86.818	-0.171	0.052
-268.311	53.121	-0.061	-0.058
-267.297	52.110	0.110	0.104
-266.282	43.819	0.277	-0.252
-265.267	108.711	0.037	-0.044
-264.253	-143.427	-0.109	0.010
-263.238	2.542	-0.078	-0.056
-262.224	72.031	0.195	0.202
-261.209	-200.000	-0.031	0.139
-260.195	-20.490	0.133	0.081
-259.180	-98.828	-0.111	0.028
-258.165	-200.000	-0.003	-0.161
-257.151	-200.000	0.007	-0.103
-256.136	192.123	0.026	0.038
-255.122	-200.000	-0.003	0.205
-254.107	-173.430	-0.109	0.003
-253.092	-62.140	-0.313	0.130
-252.078	74.953	0.134	0.141
-251.063	-152.703	-0.252	-0.018
-250.049	16.049	-0.099	0.077
-249.034	-200.000	-0.030	-0.204
-248.019	-65.234	0.298	0.119
-247.005	-200.000	-0.010	-0.159
-245.990	84.098	0.087	0.095
-244.976	-93.510	0.315	0.086
-243.961	355.313	-0.112	-0.221
-242.946	113.395	0.306	0.369
-241.932	16.123	0.156	0.122
-240.917	-92.122	0.268	0.075
-239.903	638.242	0.095	-0.239
-238.888	-115.711	0.620	0.115
-237.873	105.268	0.118	-0.138
-236.859	479.423	0.103	0.231
-235.844	-200.000	-0.018	-0.268
-234.830	775.092	-0.052	-0.140
-233.815	-109.214	0.189	0.040
-232.800	101.301	0.054	-0.062
-231.786	210.572	0.105	-0.164
-230.771	-200.000	-0.010	0.184
-229.757	800.000	0.031	-0.092
-228.742	283.392	0.046	0.082
-227.727	-109.418	0.356	-0.075
-226.713	800.000	0.051	0.152
-225.698	561.224	-0.017	0.041
-224.684	167.214	0.084	-0.119
-223.669	-64.065	-0.361	0.146
-222.655	-200.000	-0.066	-0.659
-221.640	-83.598	0.297	-0.094
-220.625	182.271	0.128	0.188
-219.611	163.593	-0.178	-0.248
-218.596	-129.774	0.110	-0.015
-217.582	-95.590	0.354	-0.094
-216.567	75.146	0.121	-0.127
-215.552	378.432	-0.043	-0.087
-214.538	40.383	0.229	-0.205
-213.523	-142.541	-0.169	0.016
-212.509	-162.989	-0.384	-0.018
-211.494	7.687	0.203	0.151
-210.479	-83.392	-0.204	0.065
-209.465	-200.000	-0.002	0.166
-208.450	-120.758	0.216	-0.036
-207.436	-41.239	-0.264	0.135
-206.421	-95.754	0.393	-0.104
-205.406	82.383	0.146	0.157
-204.392	-142.897	-0.370	0.036
-203.377	-102.524	0.238	0.057
-202.363	-167.732	-0.270	-0.011
-201.348	-58.171	-0.024	-0.010
-200.333	-11.465	-0.342	-0.223
-199.319	-200.000	-0.013	0.582
-198.304	-123.632	-0.200	0.031
-197.290	139.027	-0.078	0.102
-196.275	729.551	0.049	0.131
-195.260	-125.928	0.088	0.013
-194.246	2.005	0.268	0.191
-193.231	462.638	-0.089	-0.197
-192.217	127.492	0.048	-0.061
-191.202	244.413	-0.132	-0.220
-190.187	-15.851	-0.167	-0.105
-189.173	-17.148	0.197	0.123
-188.158	800.000	0.111	0.392
-187.144	-158.985	-0.143	-0.008
-186.129	1.771	0.305	-0.218
-185.114	232.393	-0.210	0.341
-184.100	800.000	0.099	0.286
-183.085	702.146	0.102	-0.267
-182.071	-200.000	0.009	-0.225
-181.056	-200.000	0.046	-0.271
-180.042	225.156	-0.287	-0.460
-179.027	441.304	-0.114	0.247
-178.012	106.604	-0.202	-0.238
-176.998	-104.915	-0.169	0.038
-175.983	-200.000	-0.053	0.257
-174.969	146.808	0.130	0.173
-173.954	-63.508	-0.120	-0.049
-172.939	-70.830	0.283	-0.105
-171.925	261.500	-0.217	-0.373
-170.910	-62.087	0.336	-0.139
-169.896	383.075	-0.172	-0.351
-168.881	800.000	0.037	0.144
-167.866	-140.726	0.441	0.045
-166.852	400.958	-0.177	-0.367
-165.837	800.000	0.090	-0.275
-164.823	97.574	0.149	0.169
-163.808	221.032	-0.155	0.246
-162.793	-200.000	0.002	0.138
-161.779	354.067	-0.164	-0.322
-160.764	-56.527	-0.159	-0.070
-159.750	-88.005	0.275	0.082
-158.735	131.066	0.156	-0.199
-157.720	153.770	0.019	0.026
-156.706	800.000	-0.084	0.244
-155.691	-156.858	-0.121	0.007
-154.677	-50.404	-0.070	0.033
-153.662	-40.453	0.098	0.050
-152.647	19.761	-0.268	0.213
-151.633	73.024	0.143	0.148
-150.618	77.630	0.055	-0.058
-149.604	-200.000	-0.042	-0.414
-148.589	800.000	0.034	-0.111
-147.574	235.973	-0.137	0.224
-146.560	800.000	0.095	0.307
-145.545	-111.898	0.043	0.009
-144.531	-84.884	0.302	-0.094
-143.516	-154.637	0.060	0.004
-142.502	3.223	0.104	0.075
-141.487	30.679	0.083	-0.070
-140.472	585.791	0.132	-0.322
-139.458	-86.191	0.160	0.049
-138.443	2.142	-0.179	0.128
-137.429	-51.193	-0.342	0.158
-136.414	655.349	0.138	0.350
-135.399	19.365	-0.106	-0.084
-134.385	27.415	-0.093	0.077
-133.370	214.364	-0.138	-0.216
-132.356	-200.000	-0.010	-0.057
-131.341	469.990	0.040	-0.088
-130.326	123.148	0.136	0.169
-129.312	-32.679	0.180	-0.099
-128.297	197.310	0.093	-0.140
-127.283	-200.000	0.053	0.244
-126.268	800.000	0.115	0.339
-125.253	-52.825	-0.146	0.066
-124.239	-159.610	-0.222	-0.012
-123.224	-73.372	-0.266	0.096
-122.210	-200.000	-0.044	-0.309
-121.195	112.929	0.095	-0.114
-120.180	-200.000	0.004	0.085
-119.166	167.748	0.139	-0.196
-118.151	71.285	-0.144	-0.147
-117.137	12.793	-0.011	0.009
-116.122	-200.000	0.023	-0.297
-115.107	211.418	-0.065	-0.101
-114.093	-24.574	0.239	0.141
-113.078	-137.336	0.158	-0.018
-112.064	800.000	-0.020	-0.079
-111.049	-55.196	0.091	0.040
-110.034	188.094	-0.118	0.174
-109.020	-200.000	0.058	-0.295
-108.005	-73.223	-0.213	-0.077
-106.991	33.614	0.160	0.137
-105.976	-200.000	-0.015	0.246
-104.962	119.178	-0.020	-0.025
-103.947	8.923	-0.093	0.069
-102.932	331.526	0.221	0.421
-101.918	326.177	-0.033	0.063
-100.903	-66.590	0.161	-0.063
-99.889	-200.000	0.034	0.232
-98.874	287.709	-0.163	0.291
-97.859	-34.061	-0.163	0.088
-96.845	324.762	-0.073	0.138
-95.830	184.372	0.178	0.260
-94.816	-1.706	-0.319	-0.222
-93.801	274.071	-0.188	-0.329
-92.786	56.071	-0.238	0.228
-91.772	121.694	0.225	-0.277
-90.757	800.000	-0.053	0.185
-89.743	-39.888	-0.117	0.060
-88.728	-152.449	0.195	-0.014
-87.713	222.343	0.181	0.287
-86.699	-200.000	-0.052	0.358
-85.684	800.000	0.060	-0.211
-84.670	800.000	-0.101	0.336
-83.655	319.290	-0.138	-0.257
-82.640	-200.000	0.029	-0.263
-81.626	276.641	-0.041	-0.071
-80.611	-17.260	0.279	0.174
-79.597	800.000	0.029	-0.101
-78.582	800.000	-0.108	-0.299
-77.567	-39.067	0.027	-0.014
-76.553	107.610	0.249	0.292
-75.538	-91.256	-0.269	0.076
-74.524	-200.000	-0.057	-0.287
-73.509	283.314	-0.093	-0.165
-72.494	-108.001	-0.238	-0.051
-71.480	-104.214	-0.258	0.059
-70.465	199.181	0.127	0.192
-69.451	-125.830	-0.198	0.030
-68.436	-200.000	0.006	0.078
-67.422	-90.352	0.022	0.006
-66.407	-125.075	-0.077	-0.012
-65.392	155.717	-0.195	0.265
-64.378	2.831	-0.380	-0.272
-63.363	-127.227	-0.418	-0.060
-62.349	2.521	-0.208	0.149
-61.334	94.429	-0.724	-0.811
-60.319	-86.741	0.224	0.067
-59.305	485.087	-0.457	-1.025
-58.290	297.114	0.416	0.753
-57.276	564.884	0.690	1.648
-56.261	-200.000	94.176	548.771
-55.246	522.832	1407.249	3258.138
-54.232	146.034	2639.584	3489.406
-53.217	106.713	2348.729	2746.722
-52.203	44.542	1954.360	1769.891
-51.188	38.282	1737.134	1524.485
-50.173	35.392	1691.604	1462.476
-49.159	50.711	1738.677	1621.920
-48.144	53.846	1756.458	1662.692
-47.130	37.944	1713.178	1500.619
-46.115	35.112	1697.674	1465.346
-45.100	34.941	1692.937	1459.898
-44.086	34.919	1690.122	1457.241
-43.071	34.877	1688.096	1455.119
-42.057	34.832	1685.617	1452.582
-41.042	34.914	1682.933	1450.839
-40.027	34.875	1681.514	1449.261
-39.013	34.836	1679.761	1447.397
-37.998	34.831	1677.365	1445.236
-36.984	34.871	1676.652	1444.865
-35.969	35.073	1674.664	1444.622
-34.954	35.060	1673.035	1443.062
-33.940	34.953	1671.347	1440.743
-32.925	34.964	1669.613	1439.274
-31.911	34.978	1667.607	1437.588
-30.896	35.073	1665.674	1436.583
-29.881	34.894	1664.571	1434.233
-28.867	34.942	1662.607	1432.842
-27.852	35.033	1660.768	1431.877
-26.838	34.975	1659.419	1430.223
-25.823	35.043	1657.778	1429.260
-24.809	35.025	1656.841	1428.263
-23.794	35.018	1655.538	1427.030
-22.779	35.010	1654.173	1425.737
-21.765	35.028	1651.844	1423.806
-20.750	35.042	1649.836	1422.127
-19.736	35.102	1648.440	1421.308
-18.721	35.107	1647.156	1420.187
-17.706	35.043	1645.794	1418.476
-16.692	35.011	1643.602	1416.300
-15.677	35.129	1641.938	1415.683
-14.663	35.047	1641.112	1414.306
-13.648	34.986	1639.705	1412.587
-12.633	35.034	1638.151	1411.548
-11.619	35.000	1636.685	1409.974
-10.604	35.059	1634.749	1408.682
-9.590	35.063	1633.717	1407.770
-8.575	35.076	1632.095	1406.410
-7.560	35.058	1630.900	1405.193
-6.546	34.914	1630.388	1403.638
-5.531	34.980	1628.950	1402.828
-4.517	34.949	1628.002	1401.733
-3.502	35.009	1626.649	1400.949
-2.487	35.040	1625.283	1399.944
-1.473	35.142	1614.011	1390.922
-0.458	32.806	1595.043	1357.734
0.556	27.594	1594.281	1320.997
1.571	24.305	1617.546	1315.925
2.586	23.113	1630.315	1317.321
3.600	20.574	1576.796	1255.656
4.615	11.564	1462.160	1103.655
5.629	2.777	1392.149	993.983
6.644	0.906	1382.959	975.288
7.659	0.697	1381.829	973.062
8.673	0.655	1380.538	971.794
9.688	0.623	1379.037	970.445
10.702	0.461	1375.746	967.007
11.717	4.286	1382.084	995.972
12.731	12.894	1396.097	1061.612
13.746	17.717	1401.822	1096.971
14.761	17.416	1400.473	1093.889
15.775	16.643	1397.790	1086.734
16.790	15.626	1395.327	1078.202
17.804	14.901	1392.668	1071.405
18.819	14.414	1391.836	1067.549
19.834	14.158	1389.719	1064.196
20.848	13.855	1389.359	1061.889
21.863	13.628	1387.633	1059.022
22.877	13.632	1385.418	1057.269
23.892	13.468	1385.175	1055.945
24.907	13.343	1384.763	1054.739
25.921	13.506	1383.415	1054.657
26.936	13.522	1382.395	1053.886
27.950	13.515	1381.681	1053.202
28.965	13.602	1380.915	1053.083
29.980	13.648	1379.713	1052.360
30.994	13.692	1378.803	1051.854
32.009	13.708	1377.627	1050.965
33.023	13.648	1376.970	1049.992
34.038	13.679	1375.204	1048.746
35.053	13.621	1374.106	1047.453
36.067	13.593	1372.932	1046.289
37.082	13.580	1372.534	1045.806
38.096	13.633	1371.746	1045.447
39.111	13.696	1370.593	1044.874
40.126	13.653	1369.662	1043.804
41.140	13.549	1368.440	1042.123
42.155	13.518	1368.340	1041.759
43.169	13.432	1368.234	1041.050
44.184	13.489	1367.989	1041.127
45.199	13.448	1367.809	1040.638
46.213	13.488	1367.157	1040.301
47.228	13.516	1366.295	1039.731
48.242	13.665	1364.677	1039.340
49.257	13.639	1363.012	1037.817
50.271	13.601	1361.565	1036.388
51.286	13.564	1361.030	1035.655
52.301	13.692	1358.947	1034.780
53.315	13.540	1358.219	1033.187
54.330	13.477	1357.687	1032.300
55.344	13.483	1356.291	1031.179
56.359	13.477	1355.148	1030.183
57.374	13.494	1354.102	1029.406
58.388	13.501	1353.079	1028.579
59.403	13.337	1352.976	1027.393
60.417	13.359	1352.188	1026.838
61.432	13.503	1351.049	1026.774
62.447	13.417	1350.220	1025.521
63.461	13.485	1348.671	1024.674
64.476	13.353	1348.002	1023.258
65.490	13.423	1346.605	1022.539
66.505	13.456	1344.652	1021.170
67.520	13.383	1344.054	1020.178
68.534	13.561	1342.435	1019.952
69.549	13.407	1341.571	1018.259
70.563	13.410	1340.575	1017.432
71.578	13.516	1339.342	1017.059
72.593	13.362	1338.837	1015.637
73.607	13.304	1338.023	1014.574
74.622	13.402	1336.843	1014.192
75.636	13.331	1336.060	1013.074
76.651	13.359	1335.253	1012.545
77.666	13.353	1335.205	1012.381
78.680	13.494	1334.240	1012.419
79.695	13.369	1333.593	1011.075
80.709	13.464	1332.990	1011.109
81.724	13.473	1332.159	1010.446
82.739	13.453	1331.081	1009.413
83.753	13.460	1329.874	1008.455
84.768	13.590	1328.410	1008.046
85.782	13.588	1327.432	1007.203
86.797	13.575	1326.232	1006.121
87.812	13.437	1325.315	1004.503
88.826	13.505	1324.016	1003.842
89.841	13.469	1322.921	1002.706
90.855	13.487	1322.110	1002.110
91.870	13.612	1320.881	1001.843
92.884	13.685	1319.919	1001.464
93.899	13.700	1319.205	1000.926
94.914	13.731	1318.486	1000.478
95.928	13.677	1317.852	999.582
96.943	13.724	1316.236	998.556
97.957	13.624	1315.921	997.624
98.972	13.658	1314.997	997.041
99.987	13.653	1313.678	995.922
101.001	13.642	1312.780	995.086
102.016	13.531	1311.846	993.623
103.030	13.687	1310.903	993.756
104.045	13.597	1310.310	992.680
105.060	13.541	1308.966	991.238
106.074	13.475	1307.618	989.734
107.089	13.558	1305.803	988.771
108.103	13.464	1304.960	987.483
109.118	13.500	1303.583	986.570
110.133	13.422	1302.777	985.408
111.147	13.558	1300.629	984.505
112.162	13.524	1299.016	982.995
113.176	13.600	1298.591	983.035
114.191	13.625	1297.530	982.293
115.206	13.546	1296.515	980.974
116.220	13.555	1294.902	979.719
117.235	13.548	1293.652	978.646
118.249	13.699	1292.785	978.793
119.264	13.528	1292.217	977.265
120.279	13.555	1290.769	976.248
121.293	13.543	1289.647	975.242
122.308	13.514	1288.820	974.356
123.322	13.444	1287.845	973.121
124.337	13.549	1286.115	972.343
125.352	13.556	1285.776	972.047
126.366	13.475	1284.633	970.619
127.381	13.510	1283.171	969.634
128.395	13.629	1282.028	969.381
129.410	13.572	1281.284	968.399
130.424	13.564	1280.688	967.816
131.439	13.579	1279.747	967.105
132.454	13.629	1278.924	966.694
133.468	13.532	1278.242	965.523
134.483	13.678	1276.798	965.197
135.497	13.556	1276.216	963.963
136.512	13.548	1274.595	962.606
137.527	13.583	1273.285	961.735
138.541	13.552	1271.695	960.272
139.556	13.605	1271.076	960.026
140.570	13.618	1269.576	958.884
141.585	13.658	1268.266	958.038
142.600	13.716	1267.069	957.383
143.614	13.760	1266.212	956.907
144.629	13.647	1265.484	955.621
145.643	13.799	1263.918	955.226
146.658	13.658	1263.062	953.685
147.673	13.651	1261.341	952.264
148.687	13.645	1260.233	951.306
149.702	13.720	1258.697	950.491
150.716	13.582	1257.203	948.490
151.731	13.532	1256.474	947.570
152.746	13.577	1255.866	947.283
153.760	13.699	1254.088	946.558
154.775	13.735	1252.788	945.697
155.789	13.772	1251.461	944.824
156.804	13.773	1250.461	943.991
157.819	13.830	1249.653	943.620
158.833	13.798	1248.739	942.667
159.848	13.888	1247.702	942.311
160.862	13.873	1246.665	941.355
161.877	13.806	1245.431	939.961
162.892	13.879	1243.789	939.053
163.906	13.853	1243.168	938.354
164.921	13.751	1242.697	937.343
165.935	13.736	1241.639	936.374
166.950	13.814	1240.822	936.118
167.964	13.799	1240.043	935.360
168.979	13.810	1239.556	934.974
169.994	13.800	1238.557	934.077
171.008	13.916	1237.543	933.883
172.023	13.851	1236.822	932.893
173.037	13.844	1236.105	932.232
174.052	13.860	1235.074	931.459
175.067	13.892	1233.925	930.691
176.081	13.896	1233.079	929.992
177.096	13.782	1232.382	928.747
178.110	13.895	1230.623	927.971
179.125	13.900	1229.833	927.318
180.140	13.947	1228.764	926.693
181.154	13.930	1227.432	925.513
182.169	13.934	1226.128	924.469
183.183	14.006	1224.624	923.652
184.198	14.094	1223.608	923.295
185.213	14.091	1222.593	922.431
186.227	14.077	1221.383	921.359
187.242	14.081	1220.717	920.799
188.256	14.063	1219.582	919.761
189.271	14.166	1218.320	919.294
190.286	14.054	1217.525	917.994
191.300	13.898	1217.051	916.695
192.315	14.028	1216.114	916.625
193.329	13.969	1215.381	915.669
194.344	13.984	1214.391	914.924
195.359	14.090	1214.147	915.243
196.373	14.189	1213.243	915.022
197.388	14.197	1213.042	914.836
198.402	14.174	1212.816	914.457
199.417	14.302	1211.806	914.318
200.432	14.325	1210.662	913.500
201.446	14.309	1209.973	912.813
202.461	14.242	1209.070	911.684
203.475	14.235	1208.760	911.328
204.490	14.330	1206.884	910.357
205.504	14.344	1205.611	909.388
206.519	14.326	1204.703	908.525
207.534	14.304	1203.656	907.538
208.548	14.382	1202.388	906.923
209.563	14.322	1202.170	906.356
210.577	14.336	1201.150	905.579
211.592	14.451	1199.795	905.105
212.607	14.437	1199.125	904.444
213.621	14.451	1198.221	903.758
214.636	14.419	1197.755	903.150
215.650	14.457	1196.772	902.533
216.665	14.452	1195.919	901.786
217.680	14.383	1195.068	900.692
218.694	14.626	1193.653	900.858
219.709	14.457	1193.180	899.511
220.723	14.452	1192.594	898.962
221.738	14.542	1191.563	898.590
222.753	14.516	1190.762	897.766
223.767	14.461	1190.495	897.191
224.782	14.606	1189.735	897.316
225.796	14.612	1189.024	896.730
226.811	14.648	1188.135	896.177
227.826	14.567	1187.885	895.472
228.840	14.699	1186.536	895.083
229.855	14.694	1185.613	894.283
230.869	14.705	1185.366	894.077
231.884	14.632	1184.947	893.290
232.899	14.666	1183.708	892.460
233.913	14.632	1182.795	891.511
234.928	14.564	1182.264	890.667
235.942	14.707	1181.327	890.643
236.957	14.678	1180.700	889.939
237.972	14.653	1179.801	889.051
238.986	14.589	1179.388	888.321
240.001	14.787	1178.366	888.523
241.015	14.725	1177.530	887.485
242.030	14.724	1176.681	886.764
243.045	14.697	1176.566	886.455
244.059	14.879	1175.243	886.346
245.074	14.792	1174.648	885.357
246.088	14.860	1173.745	884.956
247.103	14.815	1172.827	883.946
248.117	14.874	1172.396	883.855
249.132	14.973	1171.303	883.475
250.147	14.994	1170.834	883.154
251.161	15.045	1169.999	882.720
252.176	15.088	1169.122	882.202
253.190	15.077	1168.625	881.694
254.205	15.069	1168.098	881.176
255.220	15.139	1167.440	880.970
256.234	14.979	1167.326	879.964
257.249	15.131	1166.488	880.055
258.263	15.245	1165.482	879.814
259.278	15.183	1164.374	878.575
260.293	15.103	1164.706	878.330
261.307	15.176	1163.645	877.834
262.322	15.219	1163.417	877.808
263.336	15.448	1162.216	878.023
264.351	15.384	1161.738	877.251
265.366	15.327	1161.227	876.488
266.380	15.501	1160.188	876.533
267.395	15.364	1159.262	875.042
268.409	15.264	1158.930	874.192
269.424	15.316	1158.257	873.878
270.439	15.356	1157.486	873.427
271.453	15.204	1156.710	871.976
272.468	15.428	1155.526	872.167
273.482	15.332	1154.796	871.045
274.497	15.433	1154.605	871.344
275.512	15.386	1153.710	870.351
276.526	15.392	1153.006	869.771
277.541	15.429	1151.878	869.035
278.555	15.359	1151.542	868.343
279.570	15.425	1150.583	867.885
280.585	15.432	1150.015	867.416
281.599	15.531	1149.084	867.147
282.614	15.366	1148.325	865.645
283.628	15.448	1146.991	864.986
284.643	15.480	1146.422	864.645
285.657	15.520	1145.253	863.896
286.672	15.545	1144.610	863.460
287.687	15.551	1143.585	862.644
288.701	15.647	1142.761	862.439
289.716	15.599	1141.912	861.476
290.730	15.560	1141.020	860.525
291.745	15.690	1140.722	860.890
292.760	15.633	1140.098	860.049
293.774	15.674	1139.446	859.694
294.789	15.787	1138.605	859.559
295.803	15.749	1138.226	859.004
296.818	15.615	1137.236	857.497
297.833	15.753	1136.334	857.447
298.847	15.765	1135.828	857.049
299.862	15.554	1135.666	855.775
300.876	15.707	1134.618	855.689
301.891	15.858	1133.475	855.519
302.906	15.943	1132.555	855.181
303.920	15.889	1132.327	854.659
304.935	16.029	1131.246	854.476
305.949	15.946	1130.910	853.724
306.964	15.980	1130.093	853.206
307.979	15.935	1129.253	852.269
308.993	15.906	1128.816	851.714
310.008	15.958	1127.926	851.234
311.022	16.029	1126.801	850.665
312.037	15.968	1126.419	849.994
313.052	15.925	1125.766	849.208
314.066	15.961	1124.669	848.488
315.081	15.879	1123.743	847.303
316.095	15.883	1123.278	846.895
317.110	15.993	1122.418	846.728
318.125	15.863	1121.970	845.662
319.139	16.018	1120.733	845.431
320.154	15.960	1120.128	844.608
321.168	15.915	1119.838	844.090
322.183	16.090	1118.701	844.034
323.197	16.077	1118.640	843.847
324.212	15.985	1117.919	842.772
325.227	16.019	1117.519	842.561
326.241	15.986	1116.896	841.852
327.256	16.102	1115.594	841.376
328.270	16.108	1114.709	840.667
329.285	16.003	1113.780	839.368
330.300	16.023	1112.894	838.728
331.314	16.048	1111.863	837.997
332.329	16.098	1110.992	837.516
333.343	16.156	1109.860	836.879
334.358	16.200	1108.995	836.369
335.373	16.219	1108.671	836.146
336.387	16.181	1108.078	835.433
337.402	16.271	1106.821	834.858
338.416	16.231	1106.563	834.394
339.431	16.304	1105.991	834.245
340.446	16.271	1105.374	833.547
341.460	16.378	1104.137	833.064
342.475	16.347	1103.565	832.408
343.489	16.440	1102.329	831.859
344.504	16.349	1101.831	830.963
345.519	16.425	1101.016	830.646
346.533	16.461	1099.661	829.731
347.548	16.578	1099.149	829.845
348.562	16.582	1098.230	829.094
349.577	16.473	1097.660	828.058
350.592	16.521	1096.946	827.680
351.606	16.488	1096.228	826.904
352.621	16.380	1095.653	825.872
353.635	16.510	1094.912	825.875
354.650	16.556	1093.748	825.146
355.665	16.442	1093.606	824.411
356.679	16.393	1092.649	823.376
357.694	16.585	1091.961	823.720
358.708	16.592	1091.642	823.443
359.723	16.672	1090.681	823.031
360.738	16.718	1090.084	822.735
361.752	16.690	1089.918	822.399
362.767	16.543	1089.328	821.165
363.781	16.641	1088.871	821.224
364.796	16.640	1087.991	820.484
365.810	16.753	1087.241	820.395
366.825	16.819	1086.604	820.158
367.840	16.859	1086.241	820.007
368.854	16.881	1085.170	819.230
369.869	16.821	1084.845	818.623
370.883	16.831	1083.718	817.749
371.898	16.715	1083.436	816.905
372.913	16.837	1082.742	816.897
373.927	16.807	1082.560	816.545
374.942	16.776	1081.897	815.823
375.956	16.872	1081.061	815.583
376.971	16.894	1080.480	815.175
377.986	17.005	1079.853	815.166
379.000	16.909	1079.419	814.304
380.015	16.979	1078.675	814.004
381.029	17.088	1077.725	813.740
382.044	17.099	1077.098	813.248
383.059	17.060	1076.837	812.793
384.073	17.087	1075.997	812.214
385.088	17.073	1074.843	811.204
386.102	17.071	1074.358	810.759
387.117	17.113	1073.325	810.105
388.132	17.038	1072.147	808.791
389.146	17.064	1071.458	808.321
390.161	17.066	1070.914	807.848
391.175	17.188	1070.102	807.747
392.190	17.130	1069.436	806.894
393.205	17.165	1068.609	806.367
394.219	17.188	1067.577	805.623
395.234	17.353	1067.034	805.926
396.248	17.186	1065.732	804.080
397.263	17.244	1064.479	803.336
398.278	17.378	1063.749	803.350
399.292	17.148	1063.381	801.915
400.307	17.125	1062.999	801.445
401.321	17.148	1061.766	800.556
402.336	17.212	1061.705	800.738
403.350	17.238	1061.033	800.283
404.365	17.282	1060.055	799.683
405.380	17.207	1059.471	798.819
406.394	17.304	1058.526	798.490
407.409	17.388	1057.565	798.090
408.423	17.444	1056.890	797.774
409.438	17.373	1056.184	796.834
410.453	17.502	1055.456	796.821
411.467	17.409	1055.092	796.041
412.482	17.535	1054.436	796.064
413.496	17.654	1053.461	795.811
414.511	17.562	1052.875	794.869
415.526	17.635	1052.623	794.948
416.540	17.580	1052.269	794.357
417.555	17.607	1051.606	793.913
418.569	17.615	1050.867	793.321
419.584	17.650	1050.541	793.167
420.599	17.607	1050.058	792.533
421.613	98.912	1315.319	1441.334
422.628	91.054	1353.955	1441.458
