DTS Sentinel unit serial number:	SN413079Multiplexer serial number:	ORYXHardware model number:	OX4-SRSoftware version number:	ORYX F/W v4.00 Oryx Data Collector v3.7.2.0data status	okinstallation	princeton_trtdifferential loss correction	single-endedforward channel	channel 2reverse channel	N/Adate	2019/09/11time	04:45:11forward acquisition time	60.00reverse acquisition time	0.00gamma	496.2192k internal	0.2329k external	0.2329temperature offset calibration	0.9938default loss term (dB/km)	0.3790temperature slope calibration	1.0000multiplexer offset coefficient	1.0000multiplexer slope coefficient	1.0000fibre end	0.00T internal ref (°C)	29.52T ext. ref 1 (°C)	-0.28T ext. ref 2 (°C)	23.38length (m)	temperature (°C)	Stokes	anti-Stokes-747.200	27.103	-0.060	-0.051
-746.185	800.000	-0.050	0.146
-745.171	-17.652	0.169	0.107
-744.156	17.531	0.098	0.079
-743.142	80.324	-0.242	-0.263
-742.127	-110.911	0.245	-0.051
-741.112	-40.621	0.049	0.025
-740.098	800.000	0.044	0.132
-739.083	27.456	0.215	-0.182
-738.069	90.681	-0.122	-0.138
-737.054	-200.000	0.000	-0.362
-736.039	131.997	-0.041	0.054
-735.025	-32.852	-0.123	0.069
-734.010	-200.000	-0.034	-0.266
-732.996	166.374	-0.091	-0.130
-731.981	46.370	-0.209	0.195
-730.966	278.774	0.163	-0.293
-729.952	-143.919	0.092	0.009
-728.937	50.057	-0.130	-0.123
-727.923	-135.733	-0.362	0.043
-726.908	-13.752	-0.163	-0.106
-725.894	-200.000	-0.020	0.186
-724.879	-104.298	0.242	-0.056
-723.864	45.811	0.097	-0.090
-722.850	609.280	0.113	-0.284
-721.835	-42.323	-0.171	-0.088
-720.821	-11.849	-0.448	0.296
-719.806	800.000	0.078	0.282
-718.791	110.477	-0.216	-0.262
-717.777	-127.543	0.336	0.049
-716.762	-64.641	0.213	0.087
-715.748	800.000	0.014	0.052
-714.733	-84.060	0.085	0.027
-713.718	507.413	-0.030	0.070
-712.704	62.436	-0.102	-0.103
-711.689	800.000	0.076	-0.220
-710.675	190.452	-0.076	-0.115
-709.660	-58.194	0.119	-0.052
-708.645	123.355	-0.007	0.009
-707.631	89.395	-0.099	-0.112
-706.616	800.000	0.016	-0.056
-705.602	673.871	-0.134	-0.349
-704.587	-79.254	-0.336	0.115
-703.572	130.492	0.090	-0.116
-702.558	-127.378	-0.074	-0.011
-701.543	101.881	0.264	-0.309
-700.529	289.076	0.204	-0.372
-699.514	94.809	0.036	-0.041
-698.499	-122.295	-0.094	0.015
-697.485	344.654	-0.142	-0.281
-696.470	784.764	0.041	0.112
-695.456	11.435	-0.314	0.242
-694.441	-118.465	-0.246	0.044
-693.426	800.000	0.033	-0.116
-692.412	32.513	-0.145	-0.126
-691.397	-118.048	0.266	-0.048
-690.383	18.133	-0.147	-0.118
-689.368	33.463	0.212	-0.185
-688.354	8.978	0.079	-0.060
-687.339	-200.000	0.045	-0.213
-686.324	-200.000	0.026	-0.238
-685.310	-119.005	0.141	0.025
-684.295	-161.276	-0.166	-0.009
-683.281	10.148	0.076	-0.058
-682.266	-4.647	0.158	-0.109
-681.251	-122.850	-0.053	0.009
-680.237	-200.000	-0.000	-0.135
-679.222	36.004	0.221	-0.195
-678.208	-200.000	0.043	0.359
-677.193	800.000	0.062	0.201
-676.178	-74.060	-0.194	0.071
-675.164	37.504	0.364	-0.324
-674.149	-10.894	-0.082	-0.055
-673.135	800.000	-0.034	-0.144
-672.120	175.317	0.024	-0.035
-671.105	-158.548	0.127	-0.007
-670.091	-200.000	-0.028	-0.287
-669.076	262.727	-0.085	0.148
-668.062	-156.337	0.012	-0.001
-667.047	-74.432	0.316	-0.114
-666.032	-200.000	-0.046	-0.299
-665.018	-75.987	0.177	0.063
-664.003	-69.544	0.278	-0.107
-662.989	-21.168	0.086	0.053
-661.974	-200.000	0.024	0.410
-660.959	100.070	-0.165	0.192
-659.945	118.008	0.072	-0.088
-658.930	-119.468	-0.182	0.032
-657.916	-200.000	0.014	-0.104
-656.901	-115.466	-0.185	0.035
-655.886	-129.586	-0.315	-0.044
-654.872	67.066	-0.100	0.103
-653.857	-123.852	0.279	0.044
-652.843	-150.760	-0.260	-0.020
-651.828	-107.238	0.064	-0.014
-650.814	142.101	-0.105	0.139
-649.799	112.396	0.122	-0.148
-648.784	133.343	-0.098	0.127
-647.770	607.118	0.098	0.245
-646.755	-80.486	0.232	0.078
-645.741	68.248	-0.198	0.203
-644.726	-200.000	0.002	0.052
-643.711	271.998	-0.049	-0.086
-642.697	-200.000	0.030	-0.168
-641.682	155.418	0.096	0.133
-640.668	554.386	0.074	-0.178
-639.653	-200.000	0.014	-0.061
-638.638	-1.824	0.068	-0.048
-637.624	2.211	-0.158	0.115
-636.609	208.424	-0.112	-0.176
-635.595	-200.000	-0.066	0.296
-634.580	800.000	-0.097	0.342
-633.565	77.946	0.141	0.151
-632.551	440.955	-0.073	0.161
-631.536	5.007	0.418	-0.308
-630.522	-200.000	0.021	0.347
-629.507	-200.000	0.040	0.180
-628.492	-16.999	-0.293	-0.186
-627.478	-34.419	0.083	-0.046
-626.463	-89.993	0.426	0.125
-625.449	236.629	-0.113	-0.187
-624.434	514.305	-0.053	-0.123
-623.419	9.518	0.151	-0.114
-622.405	-22.546	-0.366	0.222
-621.390	480.880	0.110	0.251
-620.376	267.758	-0.079	0.138
-619.361	-151.274	0.184	0.014
-618.346	800.000	0.067	0.237
-617.332	50.318	-0.233	0.221
-616.317	9.130	-0.220	0.167
-615.303	15.315	-0.258	-0.203
-614.288	800.000	0.064	0.235
-613.273	800.000	0.026	0.105
-612.259	-42.019	0.143	-0.073
-611.244	-111.788	-0.324	0.066
-610.230	-107.152	0.137	-0.030
-609.215	-200.000	-0.047	0.407
-608.201	-58.024	0.235	-0.103
-607.186	81.572	-0.103	0.111
-606.171	-50.619	0.204	-0.096
-605.157	-42.562	-0.409	0.209
-604.142	163.106	-0.176	-0.247
-603.128	-200.000	0.016	-0.494
-602.113	720.239	-0.057	-0.153
-601.098	800.000	0.058	-0.197
-600.084	-151.231	0.237	0.018
-599.069	-115.516	-0.284	-0.054
-598.055	800.000	0.100	0.285
-597.040	800.000	-0.026	0.081
-596.025	70.047	-0.095	0.098
-595.011	-200.000	-0.038	0.181
-593.996	-151.436	-0.239	0.018
-592.982	-200.000	0.061	-0.285
-591.967	-200.000	0.018	-0.141
-590.952	-100.636	-0.183	-0.045
-589.938	800.000	0.038	-0.153
-588.923	-200.000	-0.022	-0.299
-587.909	110.323	0.082	0.098
-586.894	39.864	-0.347	0.312
-585.879	-68.565	-0.411	-0.159
-584.865	-135.499	-0.310	-0.037
-583.850	1.822	0.215	-0.155
-582.836	-200.000	0.058	-0.303
-581.821	-46.476	-0.118	0.058
-580.806	-200.000	-0.183	0.001
-579.792	-13.358	0.132	-0.086
-578.777	329.023	-0.040	-0.077
-577.763	44.814	-0.106	-0.098
-576.748	-200.000	-0.014	-0.245
-575.733	-195.320	0.091	0.001
-574.719	800.000	0.103	-0.325
-573.704	800.000	-0.035	0.141
-572.690	800.000	0.080	0.326
-571.675	99.393	-0.104	-0.121
-570.661	-29.891	0.097	0.055
-569.646	-173.869	-0.188	0.006
-568.631	47.428	0.204	0.190
-567.617	75.108	-0.146	-0.154
-566.602	-82.653	0.287	0.093
-565.588	-85.430	-0.367	-0.114
-564.573	-23.981	-0.175	0.105
-563.558	-53.950	-0.256	-0.117
-562.544	800.000	-0.057	0.192
-561.529	-200.000	0.004	0.198
-560.515	800.000	0.084	-0.270
-559.500	-200.000	0.040	-0.183
-558.485	-197.654	-0.067	0.000
-557.471	800.000	0.073	-0.276
-556.456	64.488	0.181	-0.182
-555.442	-178.399	-0.093	0.002
-554.427	111.529	0.030	0.036
-553.412	-13.588	-0.288	0.186
-552.398	259.965	-0.069	0.118
-551.383	-200.000	-0.000	0.192
-550.369	800.000	0.088	-0.279
-549.354	-54.123	0.293	0.133
-548.339	-147.466	-0.266	-0.022
-547.325	10.834	-0.279	0.213
-546.310	349.388	-0.096	0.189
-545.296	142.715	0.252	-0.335
-544.281	68.775	-0.119	0.123
-543.266	21.391	0.040	0.033
-542.252	-16.629	-0.308	-0.195
-541.237	-148.014	-0.235	0.020
-540.223	-200.000	-0.031	0.266
-539.208	126.150	-0.023	0.029
-538.193	-177.309	-0.305	0.008
-537.179	-200.000	0.058	-0.353
-536.164	800.000	-0.025	-0.087
-535.150	-75.008	0.214	-0.076
-534.135	-55.765	0.121	0.054
-533.121	800.000	-0.076	0.256
-532.106	-200.000	0.005	0.222
-531.091	-200.000	-0.019	0.148
-530.077	56.688	-0.209	0.203
-529.062	-145.536	-0.276	-0.025
-528.048	619.923	-0.160	0.401
-527.033	-200.000	0.015	0.193
-526.018	-200.000	-0.004	-0.042
-525.004	150.886	0.117	0.159
-523.989	800.000	0.084	-0.332
-522.975	-24.780	0.157	-0.093
-521.960	49.019	0.098	0.092
-520.945	-42.502	0.126	-0.064
-519.931	-35.823	-0.149	-0.080
-518.916	-184.223	-0.076	-0.001
-517.902	800.000	0.100	-0.310
-516.887	-200.000	0.011	0.207
-515.872	-200.000	-0.015	0.113
-514.858	97.253	-0.231	0.264
-513.843	3.979	0.306	0.223
-512.829	-120.514	0.214	0.036
-511.814	244.155	0.035	0.058
-510.799	-3.600	-0.081	0.056
-509.785	39.471	0.138	-0.124
-508.770	-200.000	0.004	0.346
-507.756	734.046	-0.027	-0.072
-506.741	-200.000	-0.052	-0.397
-505.726	-106.430	-0.100	-0.022
-504.712	0.039	-0.194	-0.138
-503.697	136.651	0.265	-0.345
-502.683	-89.116	-0.131	-0.039
-501.668	42.770	0.017	0.015
-500.653	344.462	-0.107	0.209
-499.639	-115.330	0.182	0.034
-498.624	26.715	-0.128	-0.107
-497.610	215.336	0.232	0.368
-496.595	-119.224	0.365	0.063
-495.581	88.622	0.116	-0.129
-494.566	306.939	-0.060	0.112
-493.551	-200.000	0.034	-0.325
-492.537	18.861	0.233	-0.186
-491.522	-200.000	-0.051	-0.258
-490.508	800.000	0.071	-0.216
-489.493	-92.369	0.130	-0.037
-488.478	155.108	0.128	-0.176
-487.464	800.000	-0.064	0.192
-486.449	-200.000	-0.013	-0.124
-485.435	-200.000	-0.001	-0.231
-484.420	257.397	-0.118	0.202
-483.405	24.744	0.130	-0.107
-482.391	579.775	0.177	0.432
-481.376	-34.903	-0.056	0.031
-480.362	-133.158	0.253	-0.032
-479.347	21.635	-0.395	-0.320
-478.332	-200.000	0.050	0.306
-477.318	285.592	0.017	-0.031
-476.303	800.000	-0.063	-0.275
-475.289	793.405	0.063	-0.172
-474.274	-104.519	0.043	-0.010
-473.259	167.365	0.155	-0.220
-472.245	-56.245	-0.205	-0.091
-471.230	-200.000	0.009	-0.115
-470.216	195.521	-0.147	0.223
-469.201	39.407	-0.060	-0.054
-468.186	85.587	-0.090	-0.098
-467.172	-42.194	-0.261	0.133
-466.157	432.048	0.055	0.118
-465.143	-93.388	0.168	0.046
-464.128	121.455	0.113	0.140
-463.113	372.666	-0.133	0.270
-462.099	-182.129	0.106	-0.002
-461.084	373.918	-0.092	0.186
-460.070	28.015	0.071	0.059
-459.055	-106.967	0.184	-0.041
-458.040	-17.562	-0.233	0.146
-457.026	-53.667	-0.114	0.052
-456.011	-135.582	-0.077	0.009
-454.997	394.313	-0.222	0.461
-453.982	-168.119	-0.217	0.008
-452.968	-200.000	-0.025	0.306
-451.953	800.000	0.052	0.186
-450.938	-200.000	0.002	-0.399
-449.924	56.702	0.137	-0.132
-448.909	483.648	-0.074	-0.168
-447.895	249.564	0.070	0.119
-446.880	106.369	0.221	-0.261
-445.865	342.767	0.073	-0.143
-444.851	80.062	0.097	0.103
-443.836	-126.911	-0.258	0.038
-442.822	108.445	0.140	0.167
-441.807	-200.000	0.028	0.202
-440.792	-88.948	0.337	0.099
-439.778	-11.219	0.267	-0.175
-438.763	61.108	-0.222	-0.220
-437.749	800.000	-0.077	-0.296
-436.734	-127.277	-0.259	0.038
-435.719	66.116	-0.141	0.142
-434.705	-61.526	-0.195	0.081
-433.690	800.000	-0.013	0.041
-432.676	800.000	0.093	-0.271
-431.661	55.075	-0.309	-0.297
-430.646	-200.000	0.023	-0.144
-429.632	270.039	0.175	0.306
-428.617	-3.520	0.370	0.256
-427.603	221.305	-0.086	0.138
-426.588	287.322	-0.261	0.470
-425.573	227.145	0.067	0.109
-424.559	-90.105	-0.252	-0.073
-423.544	-48.248	-0.082	-0.039
-422.530	-78.696	0.162	-0.055
-421.515	650.081	-0.091	0.232
-420.500	8.309	0.073	-0.055
-419.486	-200.000	0.022	-0.315
-418.471	-67.710	0.121	-0.047
-417.457	312.681	-0.079	0.148
-416.442	800.000	0.075	0.210
-415.428	-98.985	0.209	0.053
-414.413	151.095	0.164	-0.222
-413.398	482.353	0.061	-0.137
-412.384	-200.000	-0.025	0.267
-411.369	363.772	0.217	0.434
-410.355	-20.557	0.127	-0.077
-409.340	-200.000	0.059	-0.267
-408.325	-200.000	0.040	-0.284
-407.311	800.000	-0.069	-0.296
-406.296	-30.697	0.223	0.125
-405.282	-200.000	0.016	0.223
-404.267	249.068	0.193	-0.325
-403.252	-77.991	-0.372	-0.127
-402.238	-200.000	-0.034	-0.313
-401.223	-102.639	-0.331	-0.078
-400.209	145.924	-0.020	-0.026
-399.194	430.914	0.066	0.143
-398.179	109.996	-0.101	0.120
-397.165	-37.611	-0.255	-0.135
-396.150	-70.308	-0.138	0.052
-395.136	277.835	-0.117	0.206
-394.121	-22.922	-0.175	-0.105
-393.106	639.731	-0.086	-0.218
-392.092	-200.000	0.014	0.211
-391.077	-42.180	0.146	0.074
-390.063	548.626	-0.101	0.241
-389.048	-200.000	-0.003	0.343
-388.033	800.000	-0.027	-0.095
-387.019	-200.000	0.016	0.156
-386.004	3.066	-0.217	0.157
-384.990	662.281	0.102	-0.262
-383.975	800.000	-0.106	0.313
-382.960	-113.537	0.336	-0.065
-381.946	-24.316	0.034	-0.020
-380.931	119.426	0.175	-0.215
-379.917	-18.253	-0.468	-0.291
-378.902	-22.118	0.197	0.119
-377.888	-200.000	-0.023	0.231
-376.873	148.052	-0.139	-0.186
-375.858	-61.297	0.235	0.098
-374.844	597.670	0.088	0.216
-373.829	382.778	0.042	0.087
-372.815	15.377	-0.042	0.033
-371.800	-153.873	-0.259	-0.018
-370.785	-43.120	0.151	-0.076
-369.771	-99.629	-0.132	-0.033
-368.756	-99.711	0.288	0.072
-367.742	-100.750	0.231	-0.056
-366.727	42.298	-0.234	-0.211
-365.712	662.762	0.127	0.325
-364.698	95.902	0.059	0.067
-363.683	-200.000	-0.038	-0.269
-362.669	-200.000	0.024	-0.198
-361.654	136.003	-0.275	-0.355
-360.639	68.905	-0.128	0.130
-359.625	173.626	-0.154	0.220
-358.610	-1.952	0.275	-0.192
-357.596	103.568	-0.168	0.195
-356.581	291.031	0.101	-0.183
-355.566	539.606	-0.073	-0.171
-354.552	49.748	0.105	0.098
-353.537	87.796	0.052	0.057
-352.523	-200.000	0.044	-0.322
-351.508	127.271	-0.130	-0.163
-350.493	800.000	-0.042	0.129
-349.479	546.161	-0.095	0.226
-348.464	-118.954	0.509	-0.089
-347.450	240.807	-0.075	-0.124
-346.435	196.326	-0.117	0.177
-345.420	-200.000	-0.016	-0.077
-344.406	-66.215	0.249	-0.098
-343.391	122.169	-0.047	-0.059
-342.377	-200.000	-0.083	0.399
-341.362	91.820	-0.089	-0.099
-340.348	-13.030	-0.200	0.129
-339.333	-200.000	0.054	0.454
-338.318	128.305	0.153	0.194
-337.304	-88.627	0.169	0.050
-336.289	-200.000	0.007	-0.049
-335.275	800.000	0.018	-0.073
-334.260	294.934	-0.058	-0.105
-333.245	30.735	0.301	0.255
-332.231	-26.498	0.221	-0.129
-331.216	-200.000	0.002	-0.036
-330.202	-131.773	-0.158	-0.021
-329.187	262.735	-0.112	0.193
-328.172	198.580	-0.025	0.039
-327.158	472.249	-0.050	-0.111
-326.143	255.263	-0.030	0.051
-325.129	800.000	-0.138	-0.393
-324.114	506.797	-0.046	0.107
-323.099	-93.289	-0.515	-0.142
-322.085	-200.000	0.033	-0.190
-321.070	-160.050	-0.083	-0.004
-320.056	-200.000	0.001	0.021
-319.041	95.361	0.222	0.250
-318.026	-59.605	-0.166	-0.071
-317.012	70.233	-0.263	0.269
-315.997	-113.419	-0.222	0.043
-314.983	-50.722	-0.243	-0.113
-313.968	-200.000	-0.045	0.202
-312.953	350.663	-0.103	-0.202
-311.939	26.583	-0.317	-0.263
-310.924	438.781	-0.030	-0.064
-309.910	800.000	0.103	0.436
-308.895	-200.000	-0.001	0.063
-307.880	-117.906	-0.204	-0.036
-306.866	-200.000	0.023	-0.115
-305.851	-174.731	0.299	-0.008
-304.837	762.504	0.021	0.056
-303.822	-200.000	-0.023	0.448
-302.807	36.348	0.198	-0.173
-301.793	-200.000	0.028	-0.339
-300.778	178.002	0.217	0.314
-299.764	19.459	-0.138	-0.110
-298.749	43.698	-0.160	-0.145
-297.735	-69.951	0.261	0.099
-296.720	-81.971	0.315	0.102
-295.705	57.623	-0.158	-0.153
-294.691	210.578	0.245	0.380
-293.676	-161.036	0.059	0.003
-292.662	241.374	-0.105	-0.173
-291.647	235.369	0.157	0.256
-290.632	-99.592	0.171	0.042
-289.618	482.986	0.067	-0.151
-288.603	-200.000	-0.000	-0.069
-287.589	190.560	0.136	0.202
-286.574	14.741	-0.101	-0.078
-285.559	59.296	-0.177	0.172
-284.545	-14.862	-0.092	0.059
-283.530	-15.457	-0.080	-0.050
-282.516	-112.123	0.313	-0.062
-281.501	-200.000	-0.037	-0.247
-280.486	-121.416	0.180	-0.030
-279.472	-175.318	-0.183	-0.005
-278.457	28.692	0.249	-0.208
-277.443	800.000	0.056	-0.231
-276.428	-109.205	0.187	-0.039
-275.413	800.000	0.061	-0.213
-274.399	800.000	0.045	0.136
-273.384	8.073	0.111	-0.082
-272.370	-200.000	-0.022	-0.100
-271.355	433.392	-0.176	-0.377
-270.340	97.069	0.203	0.230
-269.326	393.858	-0.168	0.345
-268.311	-40.545	0.076	-0.039
-267.297	640.248	0.080	0.200
-266.282	340.931	0.148	0.285
-265.267	-200.000	0.031	-0.215
-264.253	329.245	0.128	0.244
-263.238	-0.020	0.084	-0.059
-262.224	-107.705	-0.115	0.025
-261.209	642.076	-0.053	-0.134
-260.195	710.821	0.031	0.082
-259.180	54.138	-0.099	-0.094
-258.165	-109.312	0.156	0.033
-257.151	-200.000	0.025	-0.297
-256.136	539.526	0.083	-0.195
-255.122	-77.389	0.270	0.093
-254.107	363.043	-0.046	-0.091
-253.092	34.552	0.166	-0.143
-252.078	-76.810	-0.186	-0.064
-251.063	57.770	0.120	0.116
-250.049	-200.000	-0.020	0.094
-249.034	283.803	0.089	0.158
-248.019	-64.099	0.154	-0.062
-247.005	-45.840	-0.160	-0.078
-245.990	84.631	-0.040	0.043
-244.976	800.000	0.011	-0.044
-243.961	-14.241	0.197	0.125
-242.946	188.160	-0.177	0.261
-241.932	-98.154	0.162	0.041
-240.917	-41.529	-0.085	0.043
-239.903	134.176	-0.061	-0.078
-238.888	-11.978	0.216	-0.140
-237.873	-24.563	0.155	-0.091
-236.859	-77.605	-0.177	-0.061
-235.844	573.607	0.035	0.084
-234.830	538.619	-0.152	0.357
-233.815	-72.965	-0.063	0.023
-232.800	-200.000	-0.033	-0.299
-231.786	-122.846	-0.200	-0.032
-230.771	-46.101	0.424	0.206
-229.757	-200.000	0.032	-0.252
-228.742	-200.000	0.005	0.182
-227.727	-200.000	0.034	-0.203
-226.713	-200.000	-0.017	-0.278
-225.698	-200.000	-0.081	-0.455
-224.684	236.260	0.130	-0.212
-223.669	-85.079	-0.363	-0.112
-222.655	16.345	0.031	-0.024
-221.640	800.000	-0.095	0.269
-220.625	800.000	0.036	0.127
-219.611	-79.172	0.251	-0.084
-218.596	-200.000	0.018	0.162
-217.582	-197.807	0.155	-0.001
-216.567	-52.999	0.396	0.180
-215.552	56.710	-0.042	0.040
-214.538	-200.000	-0.006	0.064
-213.523	-90.839	0.274	-0.078
-212.509	82.876	0.126	-0.135
-211.494	-162.884	-0.140	-0.007
-210.479	443.211	0.099	-0.214
-209.465	-200.000	0.282	-0.001
-208.450	179.309	-0.061	-0.088
-207.436	358.817	0.097	0.191
-206.421	800.000	0.032	-0.134
-205.406	11.794	0.142	-0.107
-204.392	45.912	-0.104	0.095
-203.377	-200.000	-0.073	-0.401
-202.363	-200.000	0.036	-0.162
-201.348	222.742	-0.126	-0.201
-200.333	-200.000	0.029	-0.299
-199.319	800.000	0.082	-0.250
-198.304	87.140	-0.209	-0.228
-197.290	-82.888	-0.185	-0.059
-196.275	7.849	0.027	0.020
-195.260	313.595	0.152	-0.282
-194.246	800.000	-0.018	-0.056
-193.231	800.000	0.047	0.157
-192.217	-200.000	0.007	-0.290
-191.202	-200.000	-0.024	0.125
-190.187	53.931	0.181	-0.171
-189.173	800.000	-0.138	0.381
-188.158	192.804	0.139	0.207
-187.144	42.064	0.109	0.097
-186.129	396.694	-0.105	0.216
-185.114	-121.919	0.083	-0.013
-184.100	708.982	-0.029	-0.075
-183.085	33.366	0.190	0.162
-182.071	-59.661	-0.267	-0.113
-181.056	-39.313	0.107	0.055
-180.042	108.777	0.078	0.092
-179.027	314.729	-0.058	-0.109
-178.012	-200.000	-0.014	-0.274
-176.998	-124.038	0.166	0.026
-175.983	-200.000	-0.033	0.144
-174.969	-90.685	0.141	0.040
-173.954	142.826	-0.118	0.155
-172.939	104.538	0.126	0.146
-171.925	63.568	0.262	0.259
-170.910	-135.828	-0.304	-0.035
-169.896	-70.622	-0.068	0.025
-168.881	137.025	0.321	0.413
-167.866	-200.000	0.003	0.205
-166.852	126.749	-0.176	-0.220
-165.837	-200.000	0.027	0.376
-164.823	50.872	-0.090	-0.084
-163.808	47.218	-0.270	0.247
-162.793	191.001	0.076	0.112
-161.779	2.079	0.349	-0.248
-160.764	164.993	0.125	-0.174
-159.750	547.520	-0.043	-0.102
-158.735	24.290	0.239	0.194
-157.720	30.270	-0.141	-0.119
-156.706	-200.000	-0.021	-0.133
-155.691	-200.000	0.036	-0.302
-154.677	-64.666	-0.351	0.140
-153.662	140.902	-0.106	-0.137
-152.647	-200.000	0.028	-0.237
-151.633	800.000	-0.090	-0.337
-150.618	173.104	-0.154	-0.218
-149.604	1.248	0.219	-0.155
-148.589	-119.781	0.123	0.021
-147.574	177.274	-0.156	-0.224
-146.560	800.000	0.050	-0.181
-145.545	-121.917	0.241	-0.039
-144.531	115.030	-0.171	-0.205
-143.516	-164.886	0.402	-0.018
-142.502	390.281	0.110	0.224
-141.487	-200.000	0.017	-0.262
-140.472	101.289	0.236	0.270
-139.458	250.603	0.137	-0.229
-138.443	-200.000	-0.040	-0.313
-137.429	-92.432	0.158	0.044
-136.414	81.480	0.025	0.027
-135.399	167.825	0.142	0.199
-134.385	-57.422	0.491	0.212
-133.370	129.469	-0.187	-0.235
-132.356	-133.885	-0.109	0.013
-131.341	-99.338	-0.164	0.041
-130.326	609.492	0.218	-0.535
-129.312	800.000	0.036	-0.129
-128.297	-149.025	-0.313	0.025
-127.283	226.336	-0.143	0.228
-126.268	112.448	-0.107	-0.127
-125.253	-29.485	0.245	-0.138
-124.239	14.534	-0.262	-0.201
-123.224	800.000	0.059	0.207
-122.210	39.650	0.184	0.162
-121.195	-13.805	0.130	0.083
-120.180	133.590	-0.142	-0.180
-119.166	800.000	-0.050	0.206
-118.151	627.854	0.049	-0.122
-117.137	627.930	0.082	-0.204
-116.122	-200.000	-0.034	-0.419
-115.107	-200.000	-0.004	0.167
-114.093	-79.470	0.363	0.120
-113.078	-200.000	0.020	-0.132
-112.064	303.725	-0.180	0.327
-111.049	800.000	-0.115	0.328
-110.034	-50.508	0.090	0.042
-109.020	-47.804	-0.112	-0.053
-108.005	-135.620	0.190	-0.022
-106.991	-159.716	0.100	-0.005
-105.976	-200.000	0.017	0.280
-104.962	717.398	0.082	0.215
-103.947	-200.000	0.012	0.102
-102.932	204.507	0.079	-0.120
-101.918	-200.000	0.005	0.270
-100.903	187.969	0.031	-0.045
-99.889	15.208	0.090	0.069
-98.874	170.509	0.180	0.254
-97.859	247.999	-0.107	-0.177
-96.845	800.000	-0.098	0.308
-95.830	-3.922	-0.139	-0.094
-94.816	800.000	0.064	0.226
-93.801	49.387	-0.260	-0.240
-92.786	-84.643	-0.096	0.030
-91.772	-100.026	0.230	-0.056
-90.757	26.489	0.275	0.226
-89.743	348.484	0.111	-0.215
-88.728	124.186	-0.010	0.013
-87.713	42.534	0.195	0.174
-86.699	-200.000	-0.003	0.238
-85.684	105.437	-0.184	-0.214
-84.670	-153.895	-0.258	-0.017
-83.655	-200.000	0.030	0.193
-82.640	570.174	-0.031	-0.074
-81.626	-101.838	-0.180	-0.043
-80.611	800.000	-0.107	0.326
-79.597	-108.370	0.288	-0.061
-78.582	800.000	0.089	0.308
-77.567	800.000	0.081	0.303
-76.553	-36.207	-0.234	0.124
-75.538	-88.328	-0.241	0.071
-74.524	309.399	-0.051	0.093
-73.509	41.853	-0.114	-0.101
-72.494	-158.972	-0.129	0.007
-71.480	79.889	0.194	0.205
-70.465	41.889	0.164	0.146
-69.451	-200.000	0.026	-0.149
-68.436	511.757	-0.058	0.132
-67.422	319.840	-0.151	0.281
-66.407	360.674	0.100	0.196
-65.392	-200.000	0.004	-0.099
-64.378	-200.000	-0.002	-0.107
-63.363	-116.492	0.159	0.029
-62.349	796.349	0.111	-0.300
-61.334	117.290	-0.904	-1.090
-60.319	356.416	0.287	0.561
-59.305	644.590	-0.366	-0.916
-58.290	398.820	0.653	1.341
-57.276	800.000	0.442	1.624
-56.261	-200.000	106.345	616.044
-55.246	505.728	1510.876	3432.150
-54.232	174.555	2712.007	3845.405
-53.217	104.449	2301.875	2656.718
-52.203	38.703	1905.180	1666.715
-51.188	32.687	1691.773	1434.358
-50.173	30.138	1647.661	1377.982
-49.159	49.276	1701.764	1568.315
-48.144	49.410	1717.727	1583.973
-47.130	32.328	1674.549	1416.819
-46.115	29.603	1660.181	1384.219
-45.100	29.470	1655.200	1379.019
-44.086	29.477	1652.358	1376.648
-43.071	29.386	1649.623	1373.635
-42.057	29.326	1647.586	1371.443
-41.042	29.432	1645.455	1370.397
-40.027	29.393	1643.762	1368.646
-39.013	29.376	1641.554	1366.630
-37.998	29.354	1640.260	1365.335
-36.984	29.399	1638.897	1364.476
-35.969	29.415	1637.497	1363.378
-34.954	29.516	1635.542	1362.442
-33.940	29.499	1634.151	1361.105
-32.925	29.493	1632.053	1359.256
-31.911	29.569	1629.761	1357.856
-30.896	29.495	1627.966	1355.763
-29.881	29.498	1626.730	1354.696
-28.867	29.479	1625.024	1353.081
-27.852	29.451	1623.886	1351.878
-26.838	29.624	1622.178	1351.672
-25.823	29.545	1621.285	1350.296
-24.809	29.539	1619.775	1348.937
-23.794	29.578	1618.111	1347.783
-22.779	29.604	1616.612	1346.674
-21.765	29.551	1615.205	1345.058
-20.750	29.500	1613.736	1343.413
-19.736	29.520	1612.517	1342.487
-18.721	29.529	1610.952	1341.197
-17.706	29.440	1609.674	1339.432
-16.692	29.565	1607.779	1338.708
-15.677	29.547	1606.151	1337.175
-14.663	29.517	1605.640	1336.478
-13.648	29.584	1603.684	1335.282
-12.633	29.433	1603.171	1333.705
-11.619	29.590	1600.715	1332.743
-10.604	29.492	1599.460	1330.942
-9.590	29.663	1597.760	1330.708
-8.575	29.573	1596.894	1329.282
-7.560	29.588	1595.728	1328.366
-6.546	29.662	1594.665	1327.959
-5.531	29.591	1593.408	1326.352
-4.517	29.535	1592.586	1325.211
-3.502	29.562	1591.508	1324.455
-2.487	29.661	1589.598	1323.521
-1.473	29.328	1578.096	1311.524
-0.458	26.608	1558.089	1275.716
0.556	20.617	1560.504	1244.861
1.571	18.495	1584.875	1248.750
2.586	18.305	1598.510	1257.980
3.600	16.622	1545.830	1204.448
4.615	8.738	1436.203	1066.606
5.629	1.174	1372.644	971.020
6.644	-0.198	1364.472	956.414
7.659	-0.339	1363.271	954.591
8.673	-0.273	1361.646	953.792
9.688	-0.290	1359.947	952.408
10.702	-0.516	1357.137	948.921
11.717	3.040	1364.136	976.344
12.731	12.410	1381.626	1048.822
13.746	19.748	1393.938	1105.151
14.761	21.740	1396.707	1119.996
15.775	22.058	1396.636	1121.872
16.790	22.047	1396.359	1121.480
17.804	22.123	1395.578	1121.236
18.819	22.376	1395.662	1122.817
19.834	22.515	1394.405	1122.597
20.848	22.396	1393.982	1121.396
21.863	22.476	1393.148	1121.136
22.877	22.571	1391.832	1120.582
23.892	22.505	1391.095	1119.469
24.907	22.549	1390.564	1119.224
25.921	22.547	1389.502	1118.259
26.936	22.380	1388.701	1116.456
27.950	22.555	1387.271	1116.316
28.965	22.427	1387.034	1115.212
29.980	22.576	1384.864	1114.312
30.994	22.487	1384.294	1113.196
32.009	22.516	1382.820	1112.091
33.023	22.564	1381.711	1111.403
34.038	22.412	1380.736	1109.568
35.053	22.583	1379.481	1109.535
36.067	22.489	1378.511	1108.063
37.082	22.488	1378.109	1107.636
38.096	22.470	1377.111	1106.627
39.111	22.551	1376.144	1106.260
40.126	22.440	1375.865	1105.238
41.140	22.368	1375.353	1104.278
42.155	22.501	1374.727	1104.511
43.169	22.489	1374.713	1104.326
44.184	22.427	1374.708	1103.836
45.199	22.311	1374.299	1102.684
46.213	22.505	1372.866	1102.653
47.228	22.563	1372.067	1102.275
48.242	22.523	1371.283	1101.300
49.257	22.356	1370.137	1099.236
50.271	22.521	1367.728	1098.234
51.286	22.402	1367.110	1096.897
52.301	22.556	1365.388	1096.379
53.315	22.384	1365.379	1095.204
54.330	22.372	1364.506	1094.334
55.344	22.381	1363.192	1093.242
56.359	22.491	1361.983	1092.856
57.374	22.487	1361.011	1091.953
58.388	22.497	1360.573	1091.570
59.403	22.428	1360.658	1091.114
60.417	22.430	1359.451	1090.061
61.432	22.498	1358.745	1089.816
62.447	22.527	1357.488	1088.890
63.461	22.580	1356.466	1088.307
64.476	22.408	1356.128	1086.875
65.490	22.459	1354.471	1085.766
66.505	22.473	1352.693	1084.331
67.520	22.526	1351.836	1083.873
68.534	22.424	1350.843	1082.354
69.549	22.435	1350.002	1081.653
70.563	22.524	1349.022	1081.317
71.578	22.525	1347.721	1080.185
72.593	22.456	1347.084	1079.156
73.607	22.480	1346.661	1078.867
74.622	22.550	1345.386	1078.179
75.636	22.467	1345.074	1077.327
76.651	22.639	1343.798	1077.262
77.666	22.463	1343.872	1076.146
78.680	22.482	1343.256	1075.679
79.695	22.557	1342.093	1075.110
80.709	22.478	1341.630	1074.159
81.724	22.537	1340.425	1073.459
82.739	22.492	1339.751	1072.548
83.753	22.617	1338.459	1072.180
84.768	22.563	1337.849	1071.268
85.782	22.567	1336.647	1070.235
86.797	22.618	1335.084	1069.198
87.812	22.599	1333.996	1068.121
88.826	22.547	1333.449	1067.269
89.841	22.539	1332.214	1066.141
90.855	22.549	1331.268	1065.348
91.870	22.549	1330.465	1064.613
92.884	22.601	1329.403	1063.982
93.899	22.577	1329.051	1063.464
94.914	22.564	1327.976	1062.430
95.928	22.638	1326.885	1061.911
96.943	22.545	1326.512	1060.953
97.957	22.633	1325.821	1060.837
98.972	22.545	1325.218	1059.735
99.987	22.608	1323.682	1058.786
101.001	22.506	1322.833	1057.405
102.016	22.555	1321.765	1056.753
103.030	22.575	1320.917	1056.096
104.045	22.568	1320.347	1055.509
105.060	22.596	1319.139	1054.618
106.074	22.610	1318.210	1053.863
107.089	22.544	1317.198	1052.568
108.103	22.562	1316.271	1051.841
109.118	22.594	1315.012	1050.934
110.133	22.545	1313.865	1049.629
111.147	22.638	1312.673	1049.138
112.162	22.721	1311.854	1048.888
113.176	22.657	1310.705	1047.495
114.191	22.571	1310.059	1046.375
115.206	22.603	1308.397	1045.144
116.220	22.645	1307.210	1044.355
117.235	22.678	1306.020	1043.503
118.249	22.631	1305.707	1042.885
119.264	22.607	1304.596	1041.762
120.279	22.619	1304.013	1041.276
121.293	22.626	1303.539	1040.848
122.308	22.665	1302.066	1039.809
123.322	22.708	1301.144	1039.234
124.337	22.792	1300.493	1039.117
125.352	22.743	1299.239	1037.735
126.366	22.717	1298.551	1036.937
127.381	22.748	1297.428	1036.136
128.395	22.732	1296.668	1035.339
129.410	22.751	1296.089	1034.896
130.424	22.684	1295.317	1033.800
131.439	22.702	1294.735	1033.350
132.454	22.701	1293.355	1032.148
133.468	22.683	1292.662	1031.400
134.483	22.750	1292.167	1031.306
135.497	22.695	1291.402	1030.280
136.512	22.754	1289.872	1029.315
137.527	22.685	1289.080	1028.187
138.541	22.697	1287.766	1027.120
139.556	22.625	1286.587	1025.672
140.570	22.669	1285.616	1025.060
141.585	22.670	1284.828	1024.345
142.600	22.592	1283.710	1022.914
143.614	22.663	1282.653	1022.389
144.629	22.502	1281.914	1020.782
145.643	22.574	1280.664	1020.109
146.658	22.520	1279.818	1019.034
147.673	22.653	1278.353	1018.543
148.687	22.652	1277.321	1017.624
149.702	22.600	1276.175	1016.325
150.716	22.500	1275.679	1015.262
151.731	22.623	1274.323	1014.800
152.746	22.734	1273.107	1014.381
153.760	22.727	1271.862	1013.262
154.775	22.746	1270.875	1012.494
155.789	22.711	1270.687	1012.051
156.804	22.744	1269.227	1010.990
157.819	22.734	1268.880	1010.569
158.833	22.766	1267.879	1009.862
159.848	22.756	1267.035	1009.042
160.862	22.717	1266.668	1008.439
161.877	22.766	1265.532	1007.726
162.892	22.745	1264.480	1006.679
163.906	22.878	1263.920	1006.904
164.921	22.734	1263.369	1005.552
165.935	22.735	1262.463	1004.752
166.950	22.825	1261.923	1004.743
167.964	22.826	1261.511	1004.332
168.979	22.843	1260.792	1003.768
169.994	22.918	1259.858	1003.362
171.008	22.855	1259.425	1002.570
172.023	22.859	1258.640	1001.877
173.037	22.847	1257.965	1001.182
174.052	22.754	1257.074	999.858
175.067	22.910	1255.993	999.793
176.081	22.812	1255.311	998.610
177.096	22.813	1254.787	998.112
178.110	22.790	1254.164	997.397
179.125	22.926	1252.944	997.105
180.140	22.884	1252.058	996.072
181.154	22.949	1250.786	995.340
182.169	22.891	1249.616	993.994
183.183	22.844	1248.569	992.812
184.198	22.877	1247.483	992.041
185.213	22.852	1246.836	991.304
186.227	23.058	1245.533	991.333
187.242	22.925	1245.114	990.165
188.256	23.011	1243.847	989.550
189.271	22.976	1243.244	988.787
190.286	22.913	1242.380	987.662
191.300	22.878	1241.936	987.025
192.315	22.889	1241.507	986.662
193.329	22.860	1241.375	986.307
194.344	22.918	1240.540	985.877
195.359	22.946	1240.154	985.641
196.373	22.810	1239.847	984.550
197.388	22.826	1239.201	984.039
198.402	22.795	1239.173	983.759
199.417	22.880	1238.370	983.505
200.432	22.864	1237.745	982.834
201.446	22.878	1237.362	982.521
202.461	22.917	1236.206	981.731
203.475	22.961	1235.290	981.161
204.490	23.004	1234.307	980.533
205.504	22.972	1233.260	979.439
206.519	22.951	1232.595	978.709
207.534	22.892	1231.736	977.610
208.548	23.096	1230.698	977.829
209.563	23.008	1229.832	976.567
210.577	22.912	1229.312	975.539
211.592	22.953	1228.434	974.984
212.607	23.142	1227.188	974.951
213.621	23.033	1226.753	973.917
214.636	23.180	1225.850	973.925
215.650	23.103	1225.410	973.063
216.665	23.049	1224.166	971.693
217.680	22.967	1223.575	970.688
218.694	23.059	1222.410	970.184
219.709	23.103	1221.692	969.767
220.723	23.058	1221.412	969.212
221.738	23.052	1220.271	968.189
222.753	23.117	1219.272	967.664
223.767	23.069	1218.996	967.101
224.782	23.044	1218.788	966.714
225.796	23.074	1218.329	966.424
226.811	23.118	1217.370	965.818
227.826	23.183	1216.824	965.658
228.840	23.015	1216.251	964.202
229.855	23.043	1215.570	963.725
230.869	23.150	1214.866	963.666
231.884	22.981	1214.549	962.411
232.899	23.048	1213.681	962.000
233.913	23.120	1212.633	961.476
234.928	23.164	1212.508	961.532
235.942	23.173	1211.740	960.886
236.957	23.231	1211.273	960.746
237.972	23.259	1210.156	959.927
238.986	23.190	1209.714	959.119
240.001	23.282	1208.705	958.728
241.015	23.341	1208.004	958.409
242.030	23.254	1207.727	957.634
243.045	23.274	1206.912	957.008
244.059	23.236	1206.087	956.068
245.074	23.239	1205.671	955.667
246.088	23.404	1204.407	955.472
247.103	23.270	1203.701	954.103
248.117	23.223	1203.058	953.260
249.132	23.289	1201.893	952.607
250.147	23.303	1201.376	952.188
251.161	23.426	1200.491	952.061
252.176	23.339	1199.966	951.095
253.190	23.297	1199.757	950.620
254.205	23.332	1198.835	949.994
255.220	23.377	1198.044	949.524
256.234	23.397	1197.834	949.376
257.249	23.503	1196.970	949.176
258.263	23.378	1196.691	948.206
259.278	23.390	1195.973	947.616
260.293	23.440	1195.276	947.247
261.307	23.381	1194.831	946.495
262.322	23.408	1194.282	946.118
263.336	23.534	1193.298	945.927
264.351	23.481	1192.656	945.053
265.366	23.630	1191.849	945.126
266.380	23.446	1191.583	943.848
267.395	23.389	1191.198	943.156
268.409	23.348	1190.688	942.452
269.424	23.448	1189.772	942.173
270.439	23.423	1189.437	941.692
271.453	23.563	1188.629	941.711
272.468	23.406	1188.006	940.305
273.482	23.454	1187.207	939.842
274.497	23.534	1186.701	939.782
275.512	23.527	1186.219	939.280
276.526	23.585	1185.363	938.825
277.541	23.484	1184.760	937.732
278.555	23.457	1184.216	937.075
279.570	23.628	1183.063	936.984
280.585	23.522	1182.705	936.056
281.599	23.583	1181.414	935.273
282.614	23.596	1180.930	934.879
283.628	23.560	1180.349	934.147
284.643	23.617	1178.949	933.254
285.657	23.570	1178.078	932.233
286.672	23.538	1177.651	931.649
287.687	23.596	1176.709	931.126
288.701	23.685	1176.162	931.073
289.716	23.709	1175.258	930.400
290.730	23.752	1174.768	930.159
291.745	23.758	1174.173	929.633
292.760	23.866	1173.365	929.475
293.774	23.711	1173.224	928.473
294.789	23.750	1172.646	928.136
295.803	23.743	1171.562	927.163
296.818	23.603	1171.517	926.315
297.833	23.848	1170.056	926.355
298.847	23.783	1169.833	925.754
299.862	23.825	1168.918	925.166
300.876	23.800	1168.354	924.511
301.891	23.778	1167.662	923.768
302.906	23.823	1166.809	923.244
303.920	23.875	1166.711	923.354
304.935	23.802	1166.063	922.383
305.949	23.861	1165.252	921.962
306.964	23.876	1164.769	921.576
307.979	23.890	1164.074	921.021
308.993	23.871	1163.272	920.203
310.008	23.857	1162.661	919.565
311.022	23.885	1161.858	918.995
312.037	23.852	1161.064	918.115
313.052	23.934	1160.091	917.688
314.066	23.952	1159.273	917.051
315.081	23.943	1158.500	916.314
316.095	23.912	1158.041	915.709
317.110	24.125	1157.195	916.058
318.125	23.942	1156.604	914.564
319.139	23.972	1156.099	914.241
320.154	23.940	1155.750	913.718
321.168	23.994	1154.755	913.127
322.183	23.826	1154.583	912.050
323.197	23.900	1154.079	911.947
324.212	23.886	1153.367	911.233
325.227	23.948	1152.808	911.030
326.241	24.069	1151.989	910.922
327.256	23.957	1151.592	909.953
328.270	23.921	1150.883	909.130
329.285	24.063	1149.961	909.046
330.300	24.123	1149.056	908.556
331.314	24.036	1148.437	907.543
332.329	24.048	1147.507	906.786
333.343	24.153	1146.671	906.583
334.358	24.154	1146.261	906.182
335.373	24.108	1145.649	905.385
336.387	24.143	1144.626	904.672
337.402	24.179	1143.730	904.066
338.416	24.220	1143.396	903.935
339.431	24.212	1142.470	903.078
340.446	24.252	1142.153	902.952
341.460	24.226	1141.633	902.328
342.475	24.251	1140.476	901.462
343.489	24.313	1139.426	900.867
344.504	24.358	1138.425	900.220
345.519	24.311	1137.820	899.428
346.533	24.308	1137.356	898.963
347.548	24.345	1136.477	898.376
348.562	24.310	1135.962	897.714
349.577	24.206	1135.293	896.582
350.592	24.145	1134.564	895.619
351.606	24.187	1134.069	895.364
352.621	24.337	1133.375	895.489
353.635	24.200	1132.822	894.286
354.650	24.311	1132.045	894.146
355.665	24.275	1131.374	893.357
356.679	24.337	1131.036	893.323
357.694	24.342	1130.599	892.926
358.708	24.415	1129.312	892.193
359.723	24.308	1128.689	891.086
360.738	24.323	1128.293	890.770
361.752	24.365	1127.832	890.537
362.767	24.371	1127.458	890.192
363.781	24.384	1126.597	889.498
364.796	24.524	1125.863	889.541
365.810	24.399	1125.456	888.515
366.825	24.576	1124.562	888.613
367.840	24.546	1124.113	888.032
368.854	24.567	1124.012	887.975
369.869	24.484	1123.144	886.800
370.883	24.500	1122.597	886.367
371.898	24.575	1121.566	885.849
372.913	24.568	1120.828	885.155
373.927	24.624	1120.464	885.063
374.942	24.617	1119.979	884.568
375.956	24.656	1119.364	884.197
376.971	24.519	1119.277	883.374
377.986	24.467	1118.663	882.554
379.000	24.681	1117.829	882.875
380.015	24.725	1117.273	882.573
381.029	24.549	1116.412	880.946
382.044	24.619	1115.874	880.787
383.059	24.726	1115.391	880.856
384.073	24.656	1114.403	879.652
385.088	24.733	1113.309	879.093
386.102	24.694	1112.333	878.053
387.117	24.671	1111.804	877.443
388.132	24.652	1111.017	876.653
389.146	24.737	1110.267	876.401
390.161	24.720	1109.750	875.829
391.175	24.786	1108.951	875.443
392.190	24.723	1108.601	874.785
393.205	24.761	1107.667	874.153
394.219	24.785	1106.759	873.477
395.234	24.874	1106.535	873.656
396.248	24.850	1105.386	872.554
397.263	24.829	1104.571	871.733
398.278	24.909	1103.919	871.531
399.292	24.872	1103.597	871.021
400.307	24.848	1102.815	870.211
401.321	24.794	1102.079	869.287
402.336	24.826	1101.496	868.906
403.350	24.860	1101.162	868.731
404.365	24.941	1100.468	868.502
405.380	24.975	1099.504	867.827
406.394	24.922	1098.642	866.813
407.409	25.089	1097.659	866.767
408.423	24.883	1097.338	865.445
409.438	24.954	1096.920	865.380
410.453	25.192	1095.588	865.399
411.467	24.960	1095.224	863.917
412.482	25.137	1094.468	864.099
413.496	24.999	1094.182	863.132
414.511	25.071	1093.355	862.751
415.526	25.088	1092.544	862.113
416.540	25.123	1092.458	862.136
417.555	25.057	1092.010	861.391
418.569	25.017	1091.730	860.900
419.584	25.058	1091.004	860.452
420.599	25.153	1090.807	860.676
421.613	148.073	1403.228	1798.874
422.628	137.019	1448.706	1798.978
