DTS Sentinel unit serial number:	SN413079Multiplexer serial number:	ORYXHardware model number:	OX4-SRSoftware version number:	ORYX F/W v4.00 Oryx Data Collector v3.7.2.0data status	okinstallation	princeton_trtdifferential loss correction	single-endedforward channel	channel 2reverse channel	N/Adate	2019/09/17time	08:39:35forward acquisition time	60.00reverse acquisition time	0.00gamma	496.2192k internal	0.2332k external	0.2332temperature offset calibration	0.9977default loss term (dB/km)	0.3790temperature slope calibration	1.0000multiplexer offset coefficient	1.0000multiplexer slope coefficient	1.0000fibre end	0.00T internal ref (°C)	27.69T ext. ref 1 (°C)	0.14T ext. ref 2 (°C)	23.26length (m)	temperature (°C)	Stokes	anti-Stokes-747.200	-200.000	-0.079	0.556
-746.185	-39.481	0.239	0.126
-745.171	319.860	0.076	0.144
-744.156	-20.107	-0.214	0.133
-743.142	284.355	0.050	0.091
-742.127	-164.111	-0.257	-0.012
-741.112	-1.077	-0.113	0.080
-740.098	177.578	0.184	0.270
-739.083	-27.619	-0.260	0.152
-738.069	729.914	0.052	0.141
-737.054	6.342	-0.217	0.162
-736.039	-137.476	-0.100	0.011
-735.025	-200.000	-0.011	0.107
-734.010	-0.517	-0.076	0.054
-732.996	-200.000	0.025	-0.154
-731.981	8.208	-0.173	-0.130
-730.966	-98.003	-0.158	-0.041
-729.952	-82.078	-0.270	-0.089
-728.937	800.000	0.090	-0.255
-727.923	-101.907	-0.412	-0.100
-726.908	-200.000	0.001	-0.335
-725.894	128.841	-0.117	-0.150
-724.879	568.941	0.084	-0.205
-723.864	-121.288	-0.230	0.039
-722.850	181.542	-0.212	-0.314
-721.835	134.516	-0.021	0.028
-720.821	-76.682	-0.189	-0.067
-719.806	-100.390	0.088	-0.022
-718.791	544.150	-0.046	-0.112
-717.777	-19.422	-0.029	0.018
-716.762	-129.266	-0.117	-0.016
-715.748	-22.615	0.270	-0.164
-714.733	-124.896	0.298	-0.046
-713.718	-53.995	-0.127	0.058
-712.704	-200.000	0.009	-0.239
-711.689	81.495	-0.113	-0.122
-710.675	-54.096	-0.354	-0.162
-709.660	800.000	0.097	-0.287
-708.645	-5.741	-0.171	0.118
-707.631	64.234	0.168	-0.170
-706.616	18.236	-0.139	0.112
-705.602	-200.000	-0.021	0.231
-704.587	255.870	-0.200	-0.345
-703.572	475.615	0.058	0.132
-702.558	-170.581	0.245	-0.009
-701.543	-151.162	0.191	-0.014
-700.529	800.000	-0.078	0.218
-699.514	-98.834	0.277	0.071
-698.499	-9.277	-0.206	-0.138
-697.485	40.775	-0.063	0.057
-696.470	-200.000	0.013	-0.258
-695.456	-110.401	0.238	-0.050
-694.441	-200.000	-0.006	-0.037
-693.426	-134.539	-0.216	-0.027
-692.412	-12.392	0.045	-0.030
-691.397	59.697	0.003	-0.003
-690.383	-59.619	0.139	0.060
-689.368	57.229	0.084	0.082
-688.354	-132.370	0.378	-0.049
-687.339	-200.000	-0.005	0.079
-686.324	800.000	-0.035	0.135
-685.310	-163.966	0.447	-0.021
-684.295	-0.599	-0.251	-0.179
-683.281	3.927	-0.229	-0.168
-682.266	-176.250	-0.150	-0.004
-681.251	-200.000	0.613	-0.001
-680.237	-130.513	0.266	0.036
-679.222	17.143	-0.160	0.128
-678.208	-21.833	-0.363	0.221
-677.193	-71.079	-0.241	-0.091
-676.178	-96.675	0.342	0.090
-675.164	94.294	-0.033	0.038
-674.149	17.583	-0.049	-0.039
-673.135	87.823	0.157	0.175
-672.120	-47.358	-0.032	-0.015
-671.105	800.000	0.187	-0.579
-670.091	98.515	0.142	0.164
-669.076	-70.028	-0.105	-0.040
-668.062	-200.000	-0.009	0.086
-667.047	33.939	0.018	-0.016
-666.032	-200.000	0.024	0.163
-665.018	115.300	-0.037	-0.045
-664.003	-99.756	-0.098	-0.025
-662.989	-200.000	0.017	0.089
-661.974	-181.613	0.393	0.008
-660.959	27.476	-0.036	-0.031
-659.945	86.172	0.047	-0.052
-658.930	-200.000	0.019	0.282
-657.916	18.913	0.369	-0.296
-656.901	-72.814	0.261	-0.096
-655.886	-200.000	-0.015	0.207
-654.872	-120.267	-0.263	0.045
-653.857	101.612	0.141	-0.164
-652.843	-200.000	-0.060	-0.337
-651.828	231.311	0.036	0.059
-650.814	-143.075	0.241	0.023
-649.799	68.030	0.016	-0.017
-648.784	-72.615	-0.228	-0.084
-647.770	109.439	0.230	-0.276
-646.755	347.086	-0.041	-0.082
-645.741	72.969	-0.291	0.305
-644.726	336.354	0.134	0.261
-643.711	-200.000	-0.006	-0.182
-642.697	-10.417	0.475	0.316
-641.682	-76.424	0.032	0.011
-640.668	800.000	0.100	0.406
-639.653	-91.090	0.183	0.053
-638.638	68.327	0.178	-0.183
-637.624	114.358	-0.070	-0.085
-636.609	5.732	-0.191	-0.141
-635.595	598.943	0.121	-0.301
-634.580	198.518	-0.174	-0.267
-633.565	-111.790	-0.186	0.038
-632.551	-200.000	0.061	0.294
-631.536	800.000	-0.066	0.257
-630.522	-200.000	0.013	0.137
-629.507	-91.951	-0.309	-0.088
-628.492	-176.381	-0.478	-0.012
-627.478	250.399	0.127	-0.217
-626.463	45.616	0.164	0.151
-625.449	5.417	-0.235	0.174
-624.434	15.957	0.225	-0.177
-623.419	8.228	0.090	0.068
-622.405	-78.815	-0.208	0.071
-621.390	652.106	-0.113	0.291
-620.376	208.322	0.019	0.030
-619.361	-148.078	-0.373	-0.031
-618.346	-108.973	0.083	-0.018
-617.332	-200.000	-0.022	-0.100
-616.317	-116.969	0.185	-0.034
-615.303	157.713	0.178	0.247
-614.288	-200.000	-0.020	0.311
-613.273	155.197	-0.118	-0.162
-612.259	-58.779	-0.308	-0.133
-611.244	-200.000	0.008	-0.191
-610.230	800.000	0.065	-0.190
-609.215	-200.000	-0.070	0.361
-608.201	-70.485	0.491	0.186
-607.186	-26.208	-0.079	-0.047
-606.171	-174.283	0.275	-0.008
-605.157	-200.000	-0.009	0.352
-604.142	-40.806	-0.294	-0.152
-603.128	93.329	0.128	-0.145
-602.113	111.590	-0.084	0.101
-601.098	178.017	-0.247	-0.361
-600.084	800.000	-0.015	-0.047
-599.069	-200.000	0.028	0.231
-598.055	5.895	0.064	0.047
-597.040	93.001	0.215	0.243
-596.025	67.238	0.110	-0.112
-595.011	800.000	0.042	0.124
-593.996	-75.579	0.078	-0.028
-592.982	36.837	-0.298	-0.263
-591.967	-10.917	0.085	-0.056
-590.952	-200.000	0.000	-0.008
-589.938	47.735	0.064	0.059
-588.923	800.000	0.076	-0.247
-587.909	238.091	0.127	0.211
-586.894	-200.000	0.014	-0.134
-585.879	-200.000	0.002	0.217
-584.865	-13.128	0.342	-0.222
-583.850	74.680	-0.131	-0.137
-582.836	100.423	-0.208	0.242
-581.821	515.900	0.038	0.089
-580.806	-137.073	0.168	0.019
-579.792	-74.048	-0.038	-0.014
-578.777	-174.978	0.215	0.006
-577.763	-66.374	-0.429	0.170
-576.748	258.359	-0.127	0.219
-575.733	800.000	0.038	-0.161
-574.719	146.044	0.172	0.231
-573.704	800.000	-0.064	0.219
-572.690	-200.000	-0.032	-0.310
-571.675	800.000	-0.113	0.446
-570.661	40.438	-0.043	0.038
-569.646	-34.200	0.224	-0.123
-568.631	506.669	-0.120	-0.278
-567.617	-161.451	0.241	-0.012
-566.602	-72.770	-0.188	-0.069
-565.588	50.279	-0.203	0.192
-564.573	-200.000	0.028	-0.266
-563.558	353.017	-0.190	-0.376
-562.544	53.460	0.075	-0.072
-561.529	800.000	-0.007	-0.021
-560.515	129.830	-0.087	-0.111
-559.500	168.037	0.204	-0.289
-558.485	-143.277	-0.142	0.014
-557.471	-200.000	-0.018	-0.311
-556.456	-40.216	0.132	-0.069
-555.442	332.653	-0.100	0.193
-554.427	26.502	0.194	0.162
-553.412	-126.413	-0.227	-0.034
-552.398	-145.627	-0.240	0.021
-551.383	605.412	0.058	-0.143
-550.369	364.526	0.033	-0.066
-549.354	128.938	-0.071	0.090
-548.339	-200.000	0.022	-0.210
-547.325	-200.000	-0.043	-0.235
-546.310	-83.142	-0.126	0.040
-545.296	92.873	-0.058	-0.065
-544.281	-90.563	0.184	-0.053
-543.266	-200.000	-0.022	0.101
-542.252	11.331	0.081	0.062
-541.237	-47.724	-0.428	0.207
-540.223	-49.173	0.120	0.057
-539.208	-107.166	0.201	0.044
-538.193	-95.465	-0.258	0.069
-537.179	-1.343	-0.146	-0.103
-536.164	48.889	-0.142	-0.133
-535.150	395.324	0.127	0.264
-534.135	15.098	0.122	0.095
-533.121	-200.000	0.009	0.076
-532.106	39.055	0.153	-0.136
-531.091	180.414	0.070	-0.103
-530.077	139.535	0.097	0.127
-529.062	-89.522	-0.115	0.034
-528.048	97.996	-0.110	-0.126
-527.033	-200.000	0.200	0.001
-526.018	-116.318	0.184	-0.034
-525.004	-200.000	-0.038	0.170
-523.989	78.000	0.186	0.198
-522.975	33.174	0.040	-0.034
-521.960	-75.424	0.178	-0.063
-520.945	657.816	0.039	-0.100
-519.931	394.179	0.111	0.231
-518.916	-56.489	-0.158	-0.070
-517.902	-200.000	0.037	0.244
-516.887	67.307	-0.091	-0.093
-515.872	53.942	0.225	-0.216
-514.858	-200.000	0.041	-0.214
-513.843	-45.038	-0.250	-0.124
-512.829	223.042	0.125	-0.202
-511.814	-200.000	0.012	0.093
-510.799	206.327	-0.045	-0.069
-509.785	52.621	0.053	-0.051
-508.770	28.882	-0.167	0.141
-507.756	-5.490	-0.365	-0.250
-506.741	-62.581	0.228	-0.094
-505.726	59.401	-0.138	-0.135
-504.712	50.697	-0.061	-0.058
-503.697	-43.791	0.097	-0.049
-502.683	-200.000	0.015	0.083
-501.668	-102.221	-0.251	-0.060
-500.653	655.852	0.166	-0.425
-499.639	347.584	-0.052	0.103
-498.624	-30.711	0.131	-0.074
-497.610	800.000	-0.108	0.459
-496.595	168.399	0.071	-0.100
-495.581	800.000	0.008	0.030
-494.566	27.543	-0.048	0.040
-493.551	-200.000	0.041	-0.250
-492.537	-24.549	-0.372	0.221
-491.522	-200.000	0.035	0.283
-490.508	800.000	0.092	-0.353
-489.493	92.621	0.110	-0.124
-488.478	-87.466	-0.173	0.052
-487.464	800.000	0.128	-0.433
-486.449	800.000	-0.077	-0.237
-485.435	-44.892	-0.220	-0.109
-484.420	-101.498	0.423	0.102
-483.405	-119.204	0.082	0.014
-482.391	101.332	0.039	-0.045
-481.376	-36.454	-0.119	-0.064
-480.362	800.000	0.070	0.215
-479.347	182.299	-0.073	0.107
-478.332	800.000	-0.059	0.237
-477.318	233.249	-0.098	0.160
-476.303	-43.743	-0.305	-0.153
-475.289	34.171	-0.460	0.400
-474.274	429.914	0.091	-0.196
-473.259	-121.371	0.163	-0.027
-472.245	636.591	-0.130	-0.330
-471.230	-200.000	0.023	0.283
-470.216	579.540	0.090	-0.218
-469.201	-81.705	-0.192	-0.063
-468.186	158.545	0.250	-0.346
-467.172	34.779	0.398	-0.346
-466.157	183.202	0.173	0.254
-465.143	312.442	0.091	0.169
-464.128	-81.901	0.243	0.079
-463.113	158.195	-0.054	-0.075
-462.099	-200.000	-0.016	0.161
-461.084	408.101	0.023	0.047
-460.070	334.152	-0.083	-0.160
-459.055	-129.623	0.263	0.036
-458.040	800.000	0.064	-0.249
-457.026	254.216	-0.072	0.123
-456.011	570.915	0.110	0.267
-454.997	1.878	-0.164	-0.118
-453.982	386.375	-0.218	0.448
-452.968	800.000	-0.021	0.076
-451.953	-9.593	-0.269	-0.178
-450.938	800.000	0.008	0.027
-449.924	800.000	0.020	0.085
-448.909	-200.000	-0.009	0.221
-447.895	-200.000	0.012	-0.057
-446.880	-200.000	-0.053	-0.269
-445.865	-200.000	-0.009	0.310
-444.851	-29.497	0.138	0.078
-443.836	800.000	-0.040	-0.164
-442.822	-200.000	-0.018	0.171
-441.807	800.000	-0.085	-0.243
-440.792	-100.881	-0.118	-0.029
-439.778	800.000	0.077	0.222
-438.763	-200.000	-0.029	0.143
-437.749	-103.957	-0.319	-0.074
-436.734	273.998	0.044	0.077
-435.719	22.164	-0.218	0.177
-434.705	49.753	0.242	-0.227
-433.690	88.685	0.171	-0.189
-432.676	-100.565	-0.092	-0.023
-431.661	-200.000	0.019	0.154
-430.646	122.890	0.039	-0.049
-429.632	17.539	0.144	-0.113
-428.617	-142.225	-0.084	-0.008
-427.603	87.449	0.150	0.165
-426.588	646.881	-0.162	0.412
-425.573	-200.000	0.025	-0.122
-424.559	53.207	0.281	0.267
-423.544	246.310	0.176	-0.295
-422.530	12.686	0.096	-0.073
-421.515	33.169	0.210	0.181
-420.500	708.333	0.020	-0.052
-419.486	-62.424	0.097	0.040
-418.471	-106.923	-0.495	-0.109
-417.457	305.783	0.083	-0.152
-416.442	-116.580	0.196	-0.036
-415.428	-200.000	-0.017	-0.143
-414.413	-179.213	-0.150	0.003
-413.398	-121.658	0.064	-0.010
-412.384	-144.941	0.158	-0.014
-411.369	483.709	0.043	0.098
-410.355	583.982	0.085	0.207
-409.340	800.000	-0.089	-0.346
-408.325	310.268	-0.069	-0.128
-407.311	-120.074	0.276	-0.047
-406.296	464.348	0.154	-0.342
-405.282	104.472	-0.059	-0.068
-404.267	9.665	-0.212	0.159
-403.252	-54.591	-0.230	0.103
-402.238	224.957	-0.093	-0.149
-401.223	-57.427	-0.126	0.055
-400.209	-50.644	-0.080	-0.037
-399.194	-85.087	-0.349	-0.108
-398.179	-134.316	-0.087	-0.011
-397.165	16.513	-0.088	-0.069
-396.150	-188.846	0.179	-0.002
-395.136	14.767	0.220	0.170
-394.121	310.651	-0.109	0.203
-393.106	24.016	0.234	-0.192
-392.092	-110.557	-0.096	-0.020
-391.077	368.988	0.098	-0.197
-390.063	800.000	0.043	0.159
-389.048	-138.168	0.083	0.009
-388.033	51.203	-0.190	0.178
-387.019	203.598	-0.038	-0.059
-386.004	800.000	0.051	-0.210
-384.990	800.000	-0.055	-0.190
-383.975	282.951	0.111	0.198
-382.960	-55.146	0.117	-0.052
-381.946	800.000	-0.044	0.160
-380.931	-155.212	-0.158	-0.010
-379.917	-200.000	0.021	0.221
-378.902	205.464	-0.162	0.250
-377.888	56.561	-0.168	0.162
-376.873	-99.852	0.347	0.086
-375.858	-200.000	-0.010	-0.074
-374.844	734.907	-0.059	0.157
-373.829	-200.000	0.017	-0.324
-372.815	5.019	0.043	0.032
-371.800	-200.000	0.012	0.080
-370.785	800.000	0.039	-0.118
-369.771	800.000	-0.048	0.150
-368.756	-104.705	0.099	-0.023
-367.742	-142.274	0.184	0.018
-366.727	156.589	-0.139	0.190
-365.712	-42.497	0.190	-0.096
-364.698	276.655	0.069	0.121
-363.683	800.000	-0.070	-0.271
-362.669	-39.415	-0.375	0.195
-361.654	173.363	-0.094	-0.134
-360.639	-106.369	0.111	0.025
-359.625	486.690	0.210	-0.475
-358.610	58.163	-0.182	-0.176
-357.596	-57.057	0.291	0.127
-356.581	8.846	-0.203	0.151
-355.566	800.000	-0.041	0.158
-354.552	-129.594	-0.039	0.005
-353.537	214.022	-0.088	0.138
-352.523	-38.666	0.037	-0.019
-351.508	-49.736	0.165	-0.078
-350.493	-23.048	0.202	-0.120
-349.479	314.773	0.060	-0.112
-348.464	92.480	-0.222	0.248
-347.450	-122.212	-0.177	0.029
-346.435	800.000	-0.095	0.269
-345.420	43.551	0.111	0.100
-344.406	-18.204	0.279	0.173
-343.391	-98.015	0.182	-0.046
-342.377	506.566	0.111	-0.255
-341.362	-200.000	0.002	0.168
-340.348	337.593	0.166	0.320
-339.333	-132.349	-0.605	0.077
-338.318	-77.287	-0.115	0.040
-337.304	285.037	0.145	-0.259
-336.289	800.000	0.055	0.184
-335.275	486.377	0.007	-0.016
-334.260	-145.037	-0.194	-0.017
-333.245	-122.064	0.120	-0.020
-332.231	-36.479	0.119	0.063
-331.216	-200.000	-0.057	-0.405
-330.202	91.235	-0.204	-0.226
-329.187	43.700	0.023	0.021
-328.172	-134.261	0.174	-0.021
-327.158	-70.584	-0.042	0.016
-326.143	-200.000	-0.031	0.173
-325.129	-113.310	-0.243	-0.047
-324.114	-28.431	-0.047	0.027
-323.099	352.417	-0.189	-0.370
-322.085	-28.053	0.176	-0.101
-321.070	-200.000	-0.015	-0.103
-320.056	-85.853	-0.102	0.031
-319.041	-200.000	0.019	0.217
-318.026	17.513	-0.054	0.043
-317.012	800.000	0.075	0.270
-315.997	197.097	0.139	0.210
-314.983	800.000	-0.053	0.153
-313.968	800.000	0.101	-0.321
-312.953	-49.492	-0.297	0.140
-311.939	418.492	0.074	0.157
-310.924	-140.828	0.133	-0.014
-309.910	800.000	-0.123	0.364
-308.895	407.306	0.115	0.241
-307.880	511.674	-0.035	-0.081
-306.866	-140.950	0.261	-0.027
-305.851	12.131	0.098	-0.075
-304.837	177.930	-0.150	0.217
-303.822	-129.329	0.210	-0.029
-302.807	800.000	0.086	-0.331
-301.793	-109.889	-0.151	-0.031
-300.778	-171.479	-0.160	0.005
-299.764	-200.000	-0.020	0.223
-298.749	-88.783	-0.050	-0.015
-297.735	111.994	0.020	0.024
-296.720	-78.306	-0.046	-0.016
-295.705	-22.188	-0.257	0.154
-294.691	-104.008	0.209	-0.048
-293.676	-200.000	-0.045	0.255
-292.662	-200.000	-0.018	-0.113
-291.647	39.297	0.162	0.143
-290.632	800.000	0.212	0.579
-289.618	108.979	-0.241	0.285
-288.603	-200.000	-0.035	-0.233
-287.589	800.000	0.119	-0.353
-286.574	5.563	-0.298	-0.217
-285.559	719.833	0.030	-0.078
-284.545	-56.689	-0.087	0.038
-283.530	-26.912	0.088	0.051
-282.516	384.640	-0.095	0.193
-281.501	-22.041	-0.138	0.083
-280.486	-4.588	0.228	0.155
-279.472	35.325	-0.039	-0.034
-278.457	-103.197	0.403	0.094
-277.443	655.721	-0.072	-0.183
-276.428	-200.000	0.002	0.228
-275.413	-200.000	-0.015	0.326
-274.399	-148.701	-0.206	-0.017
-273.384	9.910	0.211	0.158
-272.370	271.814	-0.136	-0.236
-271.355	-62.080	0.280	0.115
-270.340	-131.795	0.060	-0.008
-269.326	-84.000	0.186	-0.058
-268.311	800.000	-0.075	-0.225
-267.297	249.933	0.236	0.396
-266.282	-45.234	0.121	-0.059
-265.267	-94.299	0.206	0.056
-264.253	800.000	-0.078	0.293
-263.238	-200.000	0.012	-0.133
-262.224	-200.000	-0.015	0.145
-261.209	-12.194	-0.251	-0.162
-260.195	-161.109	0.220	-0.011
-259.180	-33.344	-0.176	0.096
-258.165	-88.877	-0.137	0.040
-257.151	-70.397	-0.157	0.059
-256.136	-142.556	-0.061	-0.006
-255.122	672.481	-0.049	-0.125
-254.107	-200.000	0.055	-0.246
-253.092	-52.155	-0.137	0.063
-252.078	-200.000	-0.004	-0.102
-251.063	111.159	-0.072	-0.086
-250.049	-21.538	0.118	0.071
-249.034	-128.329	-0.238	-0.034
-248.019	185.502	-0.107	0.157
-247.005	-58.598	0.251	-0.107
-245.990	-200.000	0.004	0.026
-244.976	145.048	0.171	-0.226
-243.961	-20.358	-0.173	-0.105
-242.946	-142.847	-0.291	-0.028
-241.932	-46.621	-0.011	0.005
-240.917	-22.817	0.099	0.059
-239.903	-41.954	0.062	-0.031
-238.888	-200.000	-0.021	0.095
-237.873	-17.933	0.205	-0.127
-236.859	-34.550	-0.097	-0.052
-235.844	-163.227	0.227	0.011
-234.830	309.758	0.210	0.387
-233.815	34.366	-0.259	-0.223
-232.800	-42.456	0.199	-0.100
-231.786	-49.324	-0.258	-0.122
-230.771	-36.426	0.412	-0.219
-229.757	751.402	0.106	-0.281
-228.742	-60.450	-0.296	-0.124
-227.727	85.529	0.400	0.433
-226.713	-200.000	-0.017	-0.324
-225.698	-9.070	0.177	-0.117
-224.684	-95.911	-0.239	0.063
-223.669	-32.133	-0.044	-0.024
-222.655	428.379	0.147	-0.313
-221.640	-176.812	-0.253	-0.006
-220.625	-110.929	0.105	0.021
-219.611	-82.917	-0.111	-0.035
-218.596	444.866	-0.059	-0.127
-217.582	28.810	0.140	-0.117
-216.567	54.154	-0.224	-0.213
-215.552	-36.659	0.258	0.136
-214.538	45.400	0.122	0.111
-213.523	67.431	0.229	-0.230
-212.509	800.000	0.027	0.110
-211.494	-70.526	0.217	0.081
-210.479	800.000	-0.050	-0.195
-209.465	244.398	0.020	0.033
-208.450	138.900	-0.222	0.287
-207.436	57.733	-0.036	0.035
-206.421	52.768	0.182	0.172
-205.406	800.000	-0.175	-0.493
-204.392	16.583	0.274	0.213
-203.377	-198.025	-0.239	0.001
-202.363	-137.893	0.009	-0.001
-201.348	-92.301	-0.314	-0.087
-200.333	800.000	0.075	-0.229
-199.319	359.516	0.050	0.098
-198.304	-103.436	-0.009	-0.002
-197.290	396.727	0.026	-0.054
-196.275	392.579	-0.035	0.071
-195.260	-47.993	-0.154	0.073
-194.246	28.034	-0.326	-0.271
-193.231	18.341	0.149	-0.118
-192.217	-200.000	0.015	-0.140
-191.202	145.186	-0.194	0.256
-190.187	-117.362	-0.228	0.041
-189.173	-162.835	-0.150	0.007
-188.158	640.476	0.065	-0.163
-187.144	-108.086	0.093	0.020
-186.129	-82.712	-0.194	-0.062
-185.114	-50.825	0.365	0.169
-184.100	-200.000	-0.038	-0.242
-183.085	217.608	-0.221	0.347
-182.071	213.488	-0.031	-0.048
-181.056	59.496	0.225	-0.218
-180.042	34.396	0.213	-0.183
-179.027	-63.424	-0.207	0.084
-178.012	14.038	-0.065	0.049
-176.998	37.694	0.050	-0.043
-175.983	-200.000	0.020	0.114
-174.969	-6.269	-0.145	-0.098
-173.954	-200.000	-0.041	0.219
-172.939	-84.862	0.138	0.043
-171.925	228.256	-0.182	-0.291
-170.910	147.811	0.403	0.534
-169.896	-50.717	0.131	0.061
-168.881	34.105	0.162	-0.139
-167.866	-200.000	-0.038	0.188
-166.852	457.839	0.062	-0.136
-165.837	4.082	0.051	0.036
-164.823	33.130	0.021	-0.018
-163.808	-4.734	0.223	0.151
-162.793	-200.000	0.016	0.176
-161.779	-200.000	-0.056	-0.309
-160.764	347.009	-0.129	-0.249
-159.750	-21.485	-0.122	0.073
-158.735	-33.047	0.397	0.217
-157.720	-36.319	-0.292	-0.155
-156.706	800.000	0.014	-0.054
-155.691	-200.000	-0.012	0.305
-154.677	-59.441	0.249	-0.105
-153.662	121.126	0.080	-0.097
-152.647	-152.257	-0.277	-0.020
-151.633	-17.520	-0.254	-0.157
-150.618	-96.857	0.329	-0.085
-149.604	-3.716	0.123	0.084
-148.589	-25.568	-0.123	0.072
-147.574	175.971	0.134	-0.191
-146.560	-83.468	0.105	0.033
-145.545	-55.790	0.233	0.102
-144.531	410.850	-0.009	-0.019
-143.516	1.201	0.181	0.128
-142.502	800.000	-0.033	-0.113
-141.487	511.804	-0.121	0.277
-140.472	-52.566	0.030	-0.014
-139.458	-53.825	0.331	-0.148
-138.443	-200.000	0.011	0.340
-137.429	397.863	0.110	0.225
-136.414	-1.851	-0.150	-0.104
-135.399	11.547	-0.142	-0.107
-134.385	-99.327	0.155	0.038
-133.370	411.884	-0.113	0.235
-132.356	173.331	0.048	-0.068
-131.341	-87.895	0.213	0.063
-130.326	-115.973	0.188	-0.034
-129.312	118.100	0.315	-0.381
-128.297	-110.796	0.193	0.039
-127.283	11.920	0.087	-0.066
-126.268	-106.065	0.265	-0.058
-125.253	468.482	-0.027	-0.059
-124.239	800.000	0.047	0.146
-123.224	-32.969	-0.213	0.116
-122.210	-108.561	-0.072	-0.015
-121.195	209.294	-0.057	-0.087
-120.180	-93.811	-0.317	-0.086
-119.166	-97.073	-0.523	-0.134
-118.151	-200.000	-0.013	0.355
-117.137	171.533	0.065	0.092
-116.122	800.000	-0.057	0.164
-115.107	-19.946	-0.190	-0.115
-114.093	-70.465	0.130	-0.048
-113.078	800.000	-0.049	-0.163
-112.064	250.388	0.126	0.210
-111.049	-94.673	-0.335	-0.089
-110.034	800.000	-0.036	0.130
-109.020	-10.481	0.117	0.076
-108.005	-95.086	0.255	0.068
-106.991	-75.817	-0.489	-0.170
-105.976	17.777	0.221	0.172
-104.962	-97.264	0.237	-0.061
-103.947	-95.697	0.074	0.020
-102.932	-64.691	0.352	-0.140
-101.918	-43.041	-0.221	0.110
-100.903	-200.000	-0.012	0.078
-99.889	-200.000	0.011	-0.108
-98.874	105.532	0.095	0.111
-97.859	101.769	0.043	0.049
-96.845	-78.050	0.124	-0.042
-95.830	-153.927	-0.141	-0.009
-94.816	-200.000	-0.004	0.158
-93.801	232.792	-0.247	0.398
-92.786	-30.921	0.192	-0.106
-91.772	489.831	0.037	-0.084
-90.757	-163.417	-0.182	0.009
-89.743	-200.000	-0.029	0.171
-88.728	-111.978	0.250	-0.049
-87.713	-163.146	-0.096	-0.005
-86.699	81.287	0.031	0.033
-85.684	61.487	0.180	-0.176
-84.670	800.000	-0.030	0.111
-83.655	-24.025	0.193	0.113
-82.640	10.202	0.293	0.219
-81.626	115.620	-0.215	-0.258
-80.611	269.753	-0.099	0.170
-79.597	-113.707	0.177	-0.034
-78.582	178.340	-0.034	-0.049
-77.567	73.650	0.075	0.077
-76.553	116.984	-0.103	-0.124
-75.538	-164.419	0.214	0.010
-74.524	-106.310	0.180	0.040
-73.509	-200.000	0.010	0.069
-72.494	-84.414	0.369	0.114
-71.480	71.209	0.206	0.210
-70.465	-200.000	0.054	0.485
-69.451	-54.467	0.114	0.051
-68.436	14.054	0.122	-0.093
-67.422	-110.972	-0.261	0.052
-66.407	-200.000	-0.032	0.164
-65.392	-200.000	0.054	0.337
-64.378	37.820	0.269	-0.234
-63.363	-70.092	-0.096	-0.036
-62.349	139.978	0.141	-0.182
-61.334	-2.893	-1.099	-0.752
-60.319	165.607	0.580	0.804
-59.305	270.836	-0.589	-1.016
-58.290	222.764	0.748	1.179
-57.276	182.594	0.914	1.320
-56.261	-200.000	111.579	633.886
-55.246	472.703	1502.383	3314.257
-54.232	146.898	2676.462	3524.020
-53.217	98.498	2291.745	2587.091
-52.203	36.957	1901.391	1646.740
-51.188	30.912	1689.957	1417.739
-50.173	28.400	1647.585	1363.475
-49.159	49.304	1701.829	1566.851
-48.144	48.790	1716.433	1576.358
-47.130	30.540	1674.916	1402.088
-46.115	27.799	1660.364	1369.327
-45.100	27.567	1655.573	1363.584
-44.086	27.654	1652.733	1361.842
-43.071	27.565	1650.329	1359.144
-42.057	27.555	1647.941	1357.046
-41.042	27.558	1645.581	1355.072
-40.027	27.533	1643.689	1353.276
-39.013	27.572	1641.882	1352.022
-37.998	27.496	1640.764	1350.486
-36.984	27.485	1639.707	1349.482
-35.969	27.662	1637.507	1348.920
-34.954	27.735	1635.883	1348.069
-33.940	27.703	1634.389	1346.553
-32.925	27.653	1632.502	1344.571
-31.911	27.758	1630.519	1343.657
-30.896	27.705	1628.787	1341.788
-29.881	27.706	1627.241	1340.469
-28.867	27.646	1625.088	1338.201
-27.852	27.631	1624.192	1337.303
-26.838	27.652	1622.418	1335.941
-25.823	27.647	1621.357	1334.977
-24.809	27.767	1620.097	1334.766
-23.794	27.580	1618.822	1332.299
-22.779	27.615	1617.686	1331.566
-21.765	27.727	1615.729	1330.721
-20.750	27.649	1614.438	1329.032
-19.736	27.648	1613.129	1327.896
-18.721	27.866	1610.649	1327.389
-17.706	27.681	1609.991	1325.449
-16.692	27.758	1608.276	1324.544
-15.677	27.775	1606.890	1323.473
-14.663	27.787	1605.803	1322.608
-13.648	27.754	1604.220	1321.016
-12.633	27.779	1602.754	1319.939
-11.619	27.701	1601.444	1318.240
-10.604	27.717	1599.760	1316.915
-9.590	27.791	1598.611	1316.456
-8.575	27.752	1597.131	1314.902
-7.560	27.722	1596.156	1313.832
-6.546	27.708	1595.132	1312.835
-5.531	27.779	1593.831	1312.225
-4.517	27.657	1593.133	1310.718
-3.502	27.736	1591.713	1310.067
-2.487	27.890	1589.537	1309.330
-1.473	27.608	1578.037	1297.799
-0.458	24.933	1559.299	1263.484
0.556	19.825	1560.451	1232.987
1.571	17.547	1584.250	1235.174
2.586	17.050	1596.798	1241.217
3.600	15.755	1543.538	1190.544
4.615	8.806	1435.285	1061.074
5.629	1.611	1371.663	968.280
6.644	0.307	1363.580	954.238
7.659	0.105	1362.754	952.294
8.673	0.104	1361.752	951.501
9.688	0.034	1359.533	949.430
10.702	-0.103	1356.529	946.381
11.717	3.385	1361.626	971.879
12.731	11.362	1373.968	1031.199
13.746	16.613	1381.244	1069.853
14.761	17.091	1380.965	1072.561
15.775	16.190	1378.413	1064.804
16.790	15.239	1375.502	1056.469
17.804	14.512	1373.033	1049.902
18.819	14.116	1371.995	1046.524
19.834	13.813	1370.688	1043.531
20.848	13.553	1369.283	1040.733
21.863	13.369	1367.967	1038.486
22.877	13.112	1367.074	1036.103
23.892	13.105	1365.904	1035.081
24.907	13.054	1365.489	1034.355
25.921	13.133	1364.840	1034.271
26.936	13.113	1364.081	1033.478
27.950	13.148	1363.006	1032.787
28.965	13.334	1361.603	1032.800
29.980	13.345	1360.405	1031.866
30.994	13.335	1359.658	1031.145
32.009	13.376	1358.987	1030.799
33.023	13.286	1357.916	1029.335
34.038	13.429	1356.159	1028.803
35.053	13.311	1355.388	1027.392
36.067	13.255	1354.794	1026.503
37.082	13.362	1353.356	1025.986
38.096	13.408	1352.469	1025.507
39.111	13.365	1352.014	1024.808
40.126	13.326	1350.878	1023.615
41.140	13.228	1350.172	1022.384
42.155	13.162	1349.880	1021.663
43.169	13.226	1349.636	1021.785
44.184	13.172	1349.170	1021.006
45.199	13.116	1348.692	1020.209
46.213	13.185	1347.963	1019.994
47.228	13.230	1347.507	1019.838
48.242	13.280	1346.019	1018.930
49.257	13.215	1344.922	1017.604
50.271	13.207	1343.571	1016.446
51.286	13.237	1341.869	1015.253
52.301	13.276	1340.950	1014.709
53.315	13.237	1339.320	1013.142
54.330	13.225	1339.003	1012.744
55.344	13.178	1337.673	1011.355
56.359	13.231	1336.200	1010.480
57.374	13.208	1335.537	1009.749
58.388	13.163	1334.638	1008.703
59.403	13.143	1334.474	1008.367
60.417	13.139	1333.189	1007.282
61.432	13.099	1332.396	1006.351
62.447	13.029	1331.881	1005.445
63.461	13.039	1330.652	1004.489
64.476	13.032	1329.422	1003.430
65.490	13.092	1328.167	1002.757
66.505	13.109	1326.778	1001.724
67.520	13.061	1325.784	1000.595
68.534	13.138	1324.401	999.930
69.549	13.105	1323.464	998.931
70.563	13.207	1322.369	998.637
71.578	13.125	1321.143	997.128
72.593	12.916	1320.392	995.208
73.607	12.970	1319.632	994.875
74.622	13.013	1318.948	994.530
75.636	13.021	1317.969	993.754
76.651	13.000	1317.336	993.060
77.666	12.991	1317.059	992.706
78.680	13.009	1316.597	992.383
79.695	13.063	1315.597	991.867
80.709	13.104	1314.625	991.290
81.724	13.070	1313.670	990.280
82.739	13.151	1312.852	990.057
83.753	13.157	1312.083	989.428
84.768	13.301	1310.811	989.241
85.782	13.277	1309.842	988.280
86.797	13.244	1308.646	987.096
87.812	13.229	1307.021	985.690
88.826	13.174	1306.596	984.955
89.841	13.314	1304.870	984.401
90.855	13.234	1304.077	983.237
91.870	13.248	1303.500	982.800
92.884	13.167	1303.020	981.872
93.899	13.287	1301.888	981.641
94.914	13.315	1301.054	981.093
95.928	13.236	1300.295	979.966
96.943	13.356	1299.046	979.647
97.957	13.360	1298.044	978.830
98.972	13.287	1297.496	977.899
99.987	13.279	1296.292	976.854
101.001	13.279	1295.047	975.833
102.016	13.345	1293.958	975.314
103.030	13.359	1293.255	974.782
104.045	13.260	1292.558	973.584
105.060	13.367	1290.875	972.860
106.074	13.176	1289.956	970.959
107.089	13.084	1288.970	969.591
108.103	13.093	1287.339	968.334
109.118	13.132	1286.071	967.520
110.133	13.164	1284.858	966.712
111.147	13.191	1283.583	965.825
112.162	13.173	1282.146	964.555
113.176	13.243	1281.152	964.124
114.191	13.116	1280.384	962.724
115.206	13.257	1278.766	962.240
116.220	13.250	1277.637	961.270
117.235	13.268	1276.587	960.498
118.249	13.160	1275.458	958.935
119.264	13.244	1274.228	958.411
120.279	13.125	1273.625	957.187
121.293	13.136	1272.888	956.611
122.308	13.062	1271.670	955.183
123.322	13.191	1270.522	954.981
124.337	13.212	1269.577	954.305
125.352	13.192	1268.333	953.173
126.366	13.238	1267.006	952.356
127.381	13.120	1266.354	951.103
128.395	13.126	1265.205	950.192
129.410	13.197	1263.872	949.514
130.424	13.289	1263.100	949.380
131.439	13.249	1262.513	948.623
132.454	13.248	1261.443	947.727
133.468	13.226	1260.433	946.761
134.483	13.272	1260.181	946.752
135.497	13.242	1259.101	945.686
136.512	13.202	1257.965	944.519
137.527	13.200	1256.365	943.220
138.541	13.277	1254.770	942.382
139.556	13.324	1253.450	941.573
140.570	13.231	1252.706	940.401
141.585	13.405	1250.882	939.935
142.600	13.261	1250.088	938.438
143.614	13.363	1249.574	938.548
144.629	13.414	1248.230	937.749
145.643	13.460	1246.955	936.969
146.658	13.409	1245.743	935.683
147.673	13.394	1244.478	934.568
148.687	13.266	1243.494	933.025
149.702	13.263	1242.023	931.819
150.716	13.288	1240.509	930.740
151.731	13.331	1239.772	930.348
152.746	13.375	1238.394	929.479
153.760	13.329	1237.390	928.387
154.775	13.443	1235.612	927.610
155.789	13.490	1234.933	927.279
156.804	13.482	1233.781	926.287
157.819	13.579	1232.855	926.054
158.833	13.579	1232.036	925.355
159.848	13.624	1230.808	924.605
160.862	13.565	1230.119	923.673
161.877	13.500	1228.998	922.391
162.892	13.341	1228.101	920.751
163.906	13.448	1227.236	920.612
164.921	13.464	1226.148	919.805
165.935	13.522	1225.277	919.394
166.950	13.536	1224.679	918.938
167.964	13.585	1224.027	918.639
168.979	13.459	1223.459	917.435
169.994	13.484	1222.779	916.984
171.008	13.616	1221.847	916.934
172.023	13.596	1221.157	916.225
173.037	13.618	1220.450	915.735
174.052	13.621	1219.809	915.189
175.067	13.541	1218.357	913.577
176.081	13.594	1217.406	913.073
177.096	13.500	1216.592	911.868
178.110	13.669	1214.713	911.308
179.125	13.529	1214.365	910.195
180.140	13.669	1212.555	909.524
181.154	13.566	1211.790	908.309
182.169	13.677	1210.689	908.011
183.183	13.746	1208.946	906.997
184.198	13.831	1207.624	906.389
185.213	13.773	1206.797	905.371
186.227	13.839	1205.861	904.950
187.242	13.765	1205.025	903.842
188.256	13.898	1203.936	903.667
189.271	13.917	1202.725	902.781
190.286	13.759	1201.784	901.136
191.300	13.667	1201.096	900.041
192.315	13.603	1200.484	899.155
193.329	13.586	1199.786	898.463
194.344	13.691	1199.204	898.515
195.359	13.782	1198.660	898.521
196.373	13.798	1198.113	898.117
197.388	13.874	1197.543	898.023
198.402	13.916	1197.158	897.884
199.417	14.011	1196.327	897.690
200.432	14.048	1195.438	897.148
201.446	13.993	1195.085	896.504
202.461	14.069	1193.621	895.738
203.475	14.177	1192.338	895.275
204.490	14.099	1190.933	893.722
205.504	14.011	1190.120	892.563
206.519	14.014	1189.134	891.756
207.534	13.965	1187.824	890.436
208.548	14.027	1187.084	890.133
209.563	14.091	1186.180	889.722
210.577	14.054	1185.401	888.860
211.592	14.087	1184.647	888.391
212.607	14.205	1183.166	887.832
213.621	14.203	1182.678	887.378
214.636	14.162	1181.896	886.493
215.650	14.172	1180.706	885.574
216.665	14.211	1179.968	885.148
217.680	14.155	1179.256	884.236
218.694	14.267	1178.084	883.878
219.709	14.274	1177.701	883.550
220.723	14.247	1176.996	882.800
221.738	14.355	1175.913	882.482
222.753	14.386	1175.221	882.045
223.767	14.245	1174.763	880.879
224.782	14.338	1174.065	880.772
225.796	14.327	1173.412	880.142
226.811	14.454	1172.527	880.072
227.826	14.301	1172.163	878.914
228.840	14.281	1171.287	878.075
229.855	14.453	1170.240	878.119
230.869	14.441	1169.301	877.273
231.884	14.360	1168.797	876.391
232.899	14.418	1167.860	875.913
233.913	14.378	1167.093	875.054
234.928	14.245	1166.830	874.080
235.942	14.340	1166.085	873.940
236.957	14.315	1165.483	873.285
237.972	14.322	1164.492	872.498
238.986	14.389	1163.481	872.017
240.001	14.372	1162.893	871.408
241.015	14.469	1161.599	870.870
242.030	14.409	1161.245	870.214
243.045	14.392	1160.461	869.459
244.059	14.521	1159.654	869.451
245.074	14.504	1158.925	868.738
246.088	14.517	1157.995	868.031
247.103	14.471	1157.277	867.176
248.117	14.574	1156.708	867.208
249.132	14.683	1156.305	867.396
250.147	14.676	1155.306	866.536
251.161	14.860	1154.268	866.632
252.176	14.818	1154.304	866.367
253.190	14.779	1153.435	865.436
254.205	14.867	1152.505	865.116
255.220	14.894	1152.239	864.978
256.234	14.914	1151.472	864.429
257.249	14.799	1150.984	863.394
258.263	14.921	1150.389	863.502
259.278	14.899	1149.557	862.685
260.293	15.032	1148.516	862.515
261.307	15.029	1148.332	862.284
262.322	15.070	1147.386	861.707
263.336	15.134	1146.679	861.432
264.351	15.010	1146.522	860.601
265.366	15.080	1145.625	860.211
266.380	15.053	1145.139	859.629
267.395	15.088	1144.223	859.044
268.409	15.022	1143.550	858.125
269.424	14.985	1142.937	857.400
270.439	15.027	1142.641	857.320
271.453	15.093	1141.361	856.621
272.468	15.099	1140.799	856.155
273.482	14.981	1140.184	855.014
274.497	14.958	1139.857	854.572
275.512	15.074	1138.680	854.205
276.526	15.110	1138.078	853.866
277.541	15.123	1137.432	853.371
278.555	15.215	1136.382	852.976
279.570	15.107	1136.234	852.238
280.585	15.339	1135.213	852.579
281.599	15.165	1134.435	851.036
282.614	15.228	1133.207	850.357
283.628	15.221	1132.063	849.388
284.643	15.408	1130.844	849.344
285.657	15.248	1130.468	848.179
286.672	15.198	1129.768	847.325
287.687	15.207	1128.656	846.462
288.701	15.323	1127.918	846.418
289.716	15.369	1126.854	845.775
290.730	15.316	1126.343	845.052
291.745	15.305	1125.969	844.638
292.760	15.338	1125.389	844.296
293.774	15.322	1124.692	843.618
294.789	15.569	1123.833	844.143
295.803	15.415	1123.563	843.090
296.818	15.439	1122.341	842.219
297.833	15.420	1121.270	841.243
298.847	15.328	1121.202	840.657
299.862	15.424	1120.284	840.375
300.876	15.394	1119.661	839.685
301.891	15.524	1119.062	839.813
302.906	15.423	1118.421	838.753
303.920	15.677	1117.022	838.893
304.935	15.509	1117.099	838.042
305.949	15.746	1116.123	838.413
306.964	15.776	1115.296	837.871
307.979	15.680	1114.861	836.990
308.993	15.646	1113.873	836.007
310.008	15.813	1113.078	836.167
311.022	15.742	1112.195	835.076
312.037	15.696	1111.836	834.503
313.052	15.700	1110.550	833.482
314.066	15.648	1109.500	832.367
315.081	15.586	1108.892	831.530
316.095	15.639	1108.144	831.158
317.110	15.709	1107.472	830.923
318.125	15.675	1106.590	830.023
319.139	15.759	1105.707	829.698
320.154	15.736	1105.156	829.100
321.168	15.589	1105.351	828.447
322.183	15.644	1104.523	828.024
323.197	15.701	1103.501	827.466
324.212	15.683	1103.305	827.155
325.227	15.710	1102.652	826.728
326.241	15.817	1101.940	826.644
327.256	15.853	1100.671	825.796
328.270	15.696	1100.053	824.492
329.285	15.882	1099.090	824.608
330.300	15.796	1098.230	823.470
331.314	15.815	1097.145	822.674
332.329	15.810	1096.728	822.267
333.343	15.881	1095.748	821.806
334.358	15.899	1094.877	821.166
335.373	15.891	1094.446	820.732
336.387	15.960	1093.670	820.414
337.402	15.932	1092.767	819.528
338.416	16.044	1091.843	819.306
339.431	16.116	1091.171	819.077
340.446	16.081	1090.680	818.466
341.460	16.131	1089.652	817.867
342.475	16.093	1089.009	817.128
343.489	16.112	1088.471	816.741
344.504	16.194	1087.654	816.453
345.519	16.237	1086.479	815.709
346.533	16.210	1085.602	814.847
347.548	16.214	1085.155	814.457
348.562	16.182	1084.251	813.554
349.577	16.252	1083.317	813.118
350.592	16.216	1082.685	812.396
351.606	16.205	1081.886	811.675
352.621	16.177	1081.415	811.112
353.635	16.188	1081.110	810.865
354.650	16.050	1080.129	809.396
355.665	16.241	1079.318	809.631
356.679	16.302	1078.788	809.458
357.694	16.207	1078.237	808.518
358.708	16.254	1077.147	807.851
359.723	16.267	1076.857	807.627
360.738	16.304	1076.306	807.319
361.752	16.455	1075.215	807.150
362.767	16.393	1075.341	806.878
363.781	16.375	1074.501	806.088
364.796	16.298	1074.035	805.302
365.810	16.469	1073.146	805.375
366.825	16.534	1072.647	805.241
367.840	16.581	1071.941	804.862
368.854	16.551	1071.243	804.125
369.869	16.674	1070.530	804.105
370.883	16.622	1069.335	802.890
371.898	16.536	1069.222	802.322
372.913	16.611	1068.820	802.307
373.927	16.655	1068.210	801.985
374.942	16.673	1067.591	801.539
375.956	16.678	1067.116	801.133
376.971	16.721	1066.025	800.445
377.986	16.713	1065.925	800.264
379.000	16.800	1065.369	800.187
380.015	16.838	1064.742	799.825
381.029	16.849	1063.911	799.180
382.044	16.781	1063.438	798.431
383.059	16.729	1062.857	797.682
384.073	16.844	1061.912	797.444
385.088	16.754	1061.209	796.418
386.102	16.897	1059.919	796.053
387.117	16.920	1058.853	795.291
388.132	16.769	1057.925	793.814
389.146	16.742	1057.671	793.427
390.161	16.696	1056.962	792.611
391.175	16.824	1056.373	792.699
392.190	16.851	1055.509	792.103
393.205	16.925	1054.866	791.896
394.219	16.995	1053.786	791.343
395.234	16.914	1052.995	790.303
396.248	16.806	1051.852	788.874
397.263	16.866	1050.957	788.412
398.278	16.917	1050.476	788.215
399.292	17.041	1049.573	788.047
400.307	16.941	1048.817	786.944
401.321	16.790	1048.461	785.908
402.336	16.878	1048.033	785.925
403.350	16.846	1047.039	784.962
404.365	16.929	1046.602	784.949
405.380	16.956	1045.796	784.400
406.394	16.963	1045.189	783.907
407.409	17.139	1044.021	783.773
408.423	17.187	1043.379	783.445
409.438	17.140	1042.795	782.718
410.453	17.169	1042.494	782.557
411.467	17.239	1041.261	781.883
412.482	17.331	1040.574	781.722
413.496	17.338	1039.847	781.141
414.511	17.353	1039.359	780.773
415.526	17.318	1039.144	780.382
416.540	17.322	1038.855	780.112
417.555	17.377	1038.009	779.661
418.569	17.479	1037.500	779.678
419.584	17.369	1036.730	778.529
420.599	17.400	1036.587	778.494
421.613	104.824	1324.247	1476.163
422.628	96.109	1366.116	1476.243
