DTS Sentinel unit serial number:	SN413079Multiplexer serial number:	ORYXHardware model number:	OX4-SRSoftware version number:	ORYX F/W v4.00 Oryx Data Collector v3.7.2.0data status	okinstallation	princeton_trtdifferential loss correction	single-endedforward channel	channel 2reverse channel	N/Adate	2019/09/12time	04:17:11forward acquisition time	60.00reverse acquisition time	0.00gamma	496.2192k internal	0.2328k external	0.2328temperature offset calibration	1.0096default loss term (dB/km)	0.3790temperature slope calibration	1.0000multiplexer offset coefficient	1.0000multiplexer slope coefficient	1.0000fibre end	0.00T internal ref (°C)	31.81T ext. ref 1 (°C)	2.24T ext. ref 2 (°C)	25.58length (m)	temperature (°C)	Stokes	anti-Stokes-747.200	-154.275	-0.165	-0.011
-746.185	-135.258	-0.154	0.019
-745.171	-200.000	0.023	-0.392
-744.156	483.948	0.050	0.114
-743.142	-52.044	0.245	-0.115
-742.127	296.292	-0.277	0.512
-741.112	367.078	-0.117	0.238
-740.098	800.000	0.077	0.217
-739.083	-95.727	0.356	0.096
-738.069	284.144	-0.228	0.413
-737.054	-200.000	-0.047	-0.211
-736.039	-110.848	-0.198	0.041
-735.025	-62.537	0.192	-0.080
-734.010	116.146	-0.299	-0.370
-732.996	466.323	-0.101	-0.229
-731.981	242.854	-0.162	0.274
-730.966	84.278	-0.304	0.335
-729.952	367.537	0.252	-0.513
-728.937	420.685	-0.051	-0.110
-727.923	-125.302	-0.271	0.042
-726.908	-61.851	0.121	0.051
-725.894	-131.743	0.296	-0.039
-724.879	-107.837	0.221	-0.048
-723.864	82.295	-0.122	-0.133
-722.850	-72.743	0.286	-0.106
-721.835	111.820	0.136	-0.165
-720.821	800.000	0.093	-0.380
-719.806	18.631	-0.175	-0.141
-718.791	224.011	-0.207	-0.336
-717.777	800.000	0.009	-0.031
-716.762	421.686	0.129	0.280
-715.748	99.052	-0.015	0.017
-714.733	-200.000	0.062	-0.394
-713.718	-200.000	-0.006	-0.132
-712.704	324.551	0.046	-0.089
-711.689	800.000	-0.099	0.348
-710.675	-113.316	-0.162	0.032
-709.660	-148.931	-0.220	-0.018
-708.645	-116.322	0.169	0.032
-707.631	72.779	0.263	0.277
-706.616	-25.058	0.088	-0.053
-705.602	-200.000	-0.057	0.279
-704.587	-182.041	-0.120	0.002
-703.572	-200.000	-0.000	-0.097
-702.558	-139.185	0.209	-0.023
-701.543	9.220	-0.222	0.169
-700.529	-14.219	-0.163	-0.106
-699.514	-89.749	0.279	0.082
-698.499	-136.551	0.571	0.067
-697.485	-40.368	-0.211	-0.110
-696.470	-175.700	0.150	0.004
-695.456	-92.344	-0.238	0.067
-694.441	-168.411	0.151	0.006
-693.426	-27.277	-0.459	0.269
-692.412	-64.413	-0.099	-0.040
-691.397	-126.392	0.191	0.029
-690.383	106.869	-0.119	-0.142
-689.368	693.474	0.046	0.122
-688.354	-143.617	-0.288	0.028
-687.339	297.182	0.161	-0.298
-686.324	25.360	0.280	0.234
-685.310	800.000	-0.104	0.371
-684.295	-119.229	-0.265	0.047
-683.281	2.101	-0.074	-0.054
-682.266	191.696	0.056	-0.084
-681.251	-122.256	0.458	0.075
-680.237	68.268	-0.073	0.075
-679.222	-200.000	0.015	-0.319
-678.208	-169.724	0.108	0.004
-677.193	212.005	-0.052	0.082
-676.178	76.770	0.083	-0.089
-675.164	-84.290	-0.145	0.046
-674.149	-200.000	-0.034	0.235
-673.135	-1.725	-0.082	0.058
-672.120	475.096	0.071	-0.161
-671.105	-25.133	0.092	0.055
-670.091	-110.430	-0.106	0.022
-669.076	56.164	0.093	0.091
-668.062	-33.441	0.174	-0.096
-667.047	-66.466	-0.029	0.011
-666.032	800.000	-0.030	-0.116
-665.018	408.850	0.009	-0.019
-664.003	-44.739	-0.245	-0.123
-662.989	-114.520	0.084	-0.016
-661.974	466.309	-0.127	-0.286
-660.959	-200.000	-0.006	-0.454
-659.945	61.692	-0.081	-0.081
-658.930	800.000	0.051	-0.156
-657.916	-7.024	0.072	-0.049
-656.901	523.300	-0.088	-0.208
-655.886	-86.327	0.164	0.051
-654.872	800.000	-0.065	0.207
-653.857	122.910	0.133	-0.167
-652.843	-46.513	-0.160	-0.079
-651.828	-27.752	0.242	0.141
-650.814	-155.309	-0.226	-0.015
-649.799	-70.747	0.224	0.085
-648.784	-37.621	-0.224	0.120
-647.770	-110.086	0.115	-0.024
-646.755	37.141	-0.128	0.114
-645.741	-191.722	0.379	0.004
-644.726	432.048	0.135	-0.294
-643.711	-97.161	0.147	0.039
-642.697	-200.000	0.027	0.416
-641.682	-200.000	-0.016	-0.146
-640.668	558.133	-0.123	0.299
-639.653	-200.000	-0.014	0.307
-638.638	-25.572	0.247	-0.147
-637.624	93.806	0.093	-0.106
-636.609	-200.000	0.015	-0.255
-635.595	-200.000	-0.001	0.254
-634.580	210.471	-0.115	-0.181
-633.565	-200.000	0.047	-0.232
-632.551	178.953	-0.113	-0.166
-631.536	-6.222	-0.344	-0.236
-630.522	-200.000	0.037	-0.186
-629.507	211.893	-0.028	0.045
-628.492	-200.000	-0.020	0.122
-627.478	-195.547	0.236	-0.002
-626.463	-85.326	-0.142	0.044
-625.449	90.948	0.079	-0.089
-624.434	-64.577	0.194	0.079
-623.419	-63.579	-0.164	0.068
-622.405	-139.005	-0.145	-0.016
-621.390	-185.733	0.082	0.001
-620.376	-84.633	0.046	-0.014
-619.361	-4.582	-0.099	-0.068
-618.346	-78.121	-0.099	-0.034
-617.332	-42.225	0.196	-0.100
-616.317	112.906	-0.100	0.121
-615.303	115.930	0.253	0.310
-614.288	108.245	-0.101	-0.121
-613.273	800.000	-0.037	0.105
-612.259	359.453	0.089	0.178
-611.244	-200.000	-0.004	-0.086
-610.230	-156.448	-0.260	0.016
-609.215	-88.519	0.265	-0.079
-608.201	800.000	0.035	0.124
-607.186	-73.741	0.522	-0.190
-606.171	800.000	0.107	-0.381
-605.157	117.188	0.074	-0.092
-604.142	-200.000	-0.001	0.239
-603.128	559.376	-0.062	-0.150
-602.113	-121.579	-0.253	0.042
-601.098	-200.000	0.014	-0.225
-600.084	-88.230	-0.296	0.089
-599.069	800.000	0.127	-0.363
-598.055	89.123	-0.191	0.213
-597.040	143.475	-0.018	0.024
-596.025	104.812	0.176	-0.207
-595.011	-124.442	-0.228	-0.036
-593.996	-40.421	0.208	-0.108
-592.982	-113.836	-0.286	-0.056
-591.967	17.029	0.122	0.097
-590.952	800.000	0.072	0.299
-589.938	533.932	0.019	0.045
-588.923	-153.676	0.103	-0.007
-587.909	61.647	0.228	-0.228
-586.894	-168.801	-0.202	0.008
-585.879	35.044	-0.247	0.217
-584.865	51.090	-0.267	-0.254
-583.850	-19.759	-0.264	-0.163
-582.836	-95.514	0.436	0.117
-581.821	500.964	-0.179	-0.415
-580.806	-51.395	-0.118	-0.055
-579.792	-95.076	-0.269	-0.073
-578.777	-85.631	0.260	-0.081
-577.763	800.000	-0.036	-0.149
-576.748	125.462	-0.056	-0.071
-575.733	-72.691	0.194	0.072
-574.719	-12.652	0.249	0.163
-573.704	76.449	-0.278	0.295
-572.690	-115.605	0.184	-0.035
-571.675	-200.000	0.018	0.265
-570.661	-108.022	-0.225	-0.049
-569.646	127.013	0.129	-0.164
-568.631	84.521	-0.150	0.165
-567.617	-91.200	0.288	-0.083
-566.602	-200.000	-0.025	-0.130
-565.588	-51.295	0.502	0.235
-564.573	-137.582	0.218	0.025
-563.558	-200.000	0.055	-0.248
-562.544	-8.260	-0.162	-0.109
-561.529	-50.729	0.393	-0.185
-560.515	22.482	0.115	0.094
-559.500	-200.000	-0.023	-0.139
-558.485	-200.000	0.007	0.056
-557.471	236.244	0.055	0.091
-556.456	-200.000	0.023	-0.140
-555.442	10.295	-0.215	-0.164
-554.427	-189.197	-0.154	0.002
-553.412	-36.381	0.186	0.100
-552.398	-122.704	0.249	0.040
-551.383	-32.611	-0.060	0.034
-550.369	251.753	-0.036	0.062
-549.354	-109.119	-0.189	-0.040
-548.339	800.000	0.024	0.100
-547.325	-200.000	-0.067	0.367
-546.310	-63.494	-0.119	-0.049
-545.296	-44.758	0.103	0.052
-544.281	-200.000	0.061	-0.413
-543.266	-25.428	-0.441	0.260
-542.252	-101.378	0.354	0.086
-541.237	-77.134	-0.277	0.097
-540.223	-16.986	0.077	-0.048
-539.208	425.625	0.065	0.140
-538.193	511.678	-0.079	0.183
-537.179	800.000	0.080	0.246
-536.164	695.224	0.094	0.247
-535.150	70.224	-0.303	0.313
-534.135	-116.044	-0.475	0.088
-533.121	-22.772	-0.319	0.192
-532.106	266.576	0.030	-0.053
-531.091	-143.827	0.254	0.024
-530.077	-94.610	0.107	0.029
-529.062	16.895	-0.209	-0.166
-528.048	177.045	0.068	-0.099
-527.033	800.000	-0.069	0.207
-526.018	-179.392	-0.022	0.000
-525.004	-88.995	-0.085	0.025
-523.989	90.314	-0.147	-0.165
-522.975	286.786	-0.047	0.085
-521.960	-61.311	0.067	0.028
-520.945	-39.407	-0.305	-0.160
-519.931	-141.799	-0.355	-0.036
-518.916	-42.279	-0.277	-0.142
-517.902	-141.608	0.303	0.030
-516.887	-200.000	0.018	-0.204
-515.872	-26.306	0.212	-0.124
-514.858	34.935	0.089	-0.078
-513.843	-55.715	-0.155	0.069
-512.829	-73.811	0.163	0.059
-511.814	800.000	0.078	0.255
-510.799	-200.000	-0.007	-0.112
-509.785	-142.195	-0.282	-0.028
-508.770	-76.037	-0.141	0.050
-507.756	199.926	-0.065	0.099
-506.741	19.447	0.310	0.249
-505.726	242.871	0.127	-0.212
-504.712	-115.048	-0.082	-0.016
-503.697	548.758	0.150	0.359
-502.683	-49.452	-0.345	-0.164
-501.668	2.059	-0.190	-0.137
-500.653	226.169	-0.096	-0.156
-499.639	-20.805	-0.278	-0.170
-498.624	179.132	-0.213	0.311
-497.610	96.795	-0.061	-0.070
-496.595	137.385	-0.101	0.131
-495.581	-82.732	-0.164	-0.053
-494.566	2.781	-0.243	-0.176
-493.551	110.944	-0.073	0.087
-492.537	546.679	0.068	0.163
-491.522	66.913	0.229	-0.233
-490.508	103.827	-0.159	-0.187
-489.493	-81.967	-0.207	0.067
-488.478	-200.000	0.018	-0.088
-487.464	-119.799	0.144	-0.025
-486.449	-200.000	-0.047	0.210
-485.435	-200.000	0.044	-0.257
-484.420	-187.723	0.207	-0.003
-483.405	-200.000	-0.090	-0.403
-482.391	-125.100	-0.304	-0.047
-481.376	-97.909	0.073	0.019
-480.362	-200.000	-0.000	0.045
-479.347	-200.000	-0.003	-0.074
-478.332	621.843	-0.011	-0.027
-477.318	800.000	-0.115	-0.323
-476.303	800.000	0.039	0.160
-475.289	131.189	-0.044	-0.056
-474.274	50.667	-0.191	-0.180
-473.259	-81.645	0.305	-0.100
-472.245	260.924	-0.168	-0.289
-471.230	692.768	-0.085	0.222
-470.216	4.410	-0.040	-0.029
-469.201	-200.000	-0.012	0.115
-468.186	35.105	-0.272	0.237
-467.172	44.260	0.038	0.035
-466.157	800.000	0.093	0.290
-465.143	193.889	-0.120	0.181
-464.128	800.000	-0.128	-0.478
-463.113	-123.926	-0.172	-0.027
-462.099	800.000	0.083	-0.305
-461.084	-67.462	0.158	-0.062
-460.070	350.758	0.159	-0.313
-459.055	-36.615	-0.226	-0.121
-458.040	68.068	-0.070	0.072
-457.026	800.000	-0.044	-0.159
-456.011	-68.857	-0.374	-0.144
-454.997	119.894	-0.105	0.130
-453.982	695.911	0.095	-0.247
-452.968	27.196	-0.186	0.155
-451.953	800.000	-0.070	0.193
-450.938	-55.468	0.146	-0.065
-449.924	-28.664	0.057	-0.033
-448.909	-143.715	-0.379	0.036
-447.895	-29.713	0.068	0.039
-446.880	539.522	-0.043	0.103
-445.865	-56.115	-0.173	-0.077
-444.851	-9.057	0.123	0.082
-443.836	-128.929	0.105	0.015
-442.822	-176.245	-0.150	0.004
-441.807	342.882	-0.105	-0.205
-440.792	37.394	0.204	0.180
-439.778	6.294	-0.057	0.042
-438.763	800.000	-0.053	-0.185
-437.749	-97.009	-0.157	-0.041
-436.734	-13.302	-0.086	0.056
-435.719	774.615	0.055	-0.150
-434.705	-200.000	0.005	-0.219
-433.690	190.033	-0.017	0.025
-432.676	-59.752	-0.292	0.124
-431.661	193.621	-0.095	0.144
-430.646	-102.325	0.267	0.064
-429.632	-154.658	0.136	0.009
-428.617	800.000	-0.121	0.421
-427.603	-74.780	-0.218	-0.078
-426.588	396.449	-0.161	-0.334
-425.573	68.894	0.129	-0.132
-424.559	-200.000	-0.038	-0.211
-423.544	-84.151	0.126	0.040
-422.530	-98.602	-0.470	0.120
-421.515	-102.163	0.317	0.076
-420.500	-200.000	-0.003	0.022
-419.486	-126.108	-0.155	0.023
-418.471	-200.000	0.017	-0.361
-417.457	197.186	-0.191	0.290
-416.442	-185.961	0.441	-0.006
-415.428	-125.345	0.177	-0.027
-414.413	-110.773	-0.294	0.060
-413.398	-100.356	0.110	-0.027
-412.384	84.018	0.093	-0.101
-411.369	275.664	-0.023	0.041
-410.355	233.287	0.028	0.045
-409.340	-69.137	0.168	0.064
-408.325	-200.000	0.048	-0.249
-407.311	-200.000	0.014	0.361
-406.296	252.979	-0.183	-0.311
-405.282	112.328	-0.142	-0.171
-404.267	800.000	-0.050	-0.186
-403.252	-200.000	0.051	-0.319
-402.238	260.600	-0.142	0.244
-401.223	773.576	0.137	-0.371
-400.209	-200.000	0.057	0.324
-399.194	-92.064	0.103	0.029
-398.179	288.026	0.060	-0.108
-397.165	800.000	-0.069	0.215
-396.150	-131.351	0.224	-0.029
-395.136	-200.000	-0.002	0.038
-394.121	800.000	0.093	0.406
-393.106	800.000	0.035	-0.140
-392.092	-200.000	0.030	-0.169
-391.077	50.430	0.152	-0.143
-390.063	127.788	-0.138	0.175
-389.048	-200.000	0.000	0.102
-388.033	-169.302	-0.378	0.014
-387.019	-55.105	-0.163	-0.073
-386.004	-129.480	0.244	0.034
-384.990	800.000	0.080	0.339
-383.975	-51.847	0.430	-0.199
-382.960	-79.506	0.103	-0.035
-381.946	-61.851	-0.181	-0.075
-380.931	800.000	0.029	0.124
-379.917	-200.000	0.022	-0.153
-378.902	531.799	0.033	-0.077
-377.888	-200.000	-0.001	-0.138
-376.873	239.867	-0.100	0.166
-375.858	-115.607	-0.193	0.036
-374.844	-155.146	-0.040	-0.003
-373.829	-200.000	0.002	0.067
-372.815	800.000	-0.049	0.146
-371.800	-91.371	-0.428	0.122
-370.785	-53.460	-0.331	-0.150
-369.771	-53.571	0.136	-0.062
-368.756	-75.864	0.078	-0.027
-367.742	-200.000	0.030	-0.190
-366.727	-116.494	-0.341	-0.063
-365.712	-200.000	0.000	-0.165
-364.698	168.184	-0.024	0.034
-363.683	384.791	-0.061	0.124
-362.669	-56.542	0.014	-0.006
-361.654	7.965	0.163	-0.121
-360.639	-75.897	0.204	-0.072
-359.625	-200.000	0.029	-0.338
-358.610	82.549	-0.140	0.151
-357.596	-200.000	0.012	0.275
-356.581	-42.321	0.278	0.141
-355.566	130.535	-0.056	-0.071
-354.552	-182.438	-0.452	0.008
-353.537	-69.158	0.418	-0.160
-352.523	96.980	0.046	-0.052
-351.508	-88.109	-0.172	0.051
-350.493	153.419	-0.049	0.067
-349.479	-191.517	-0.079	0.001
-348.464	6.682	-0.236	-0.174
-347.450	-200.000	0.047	0.275
-346.435	-200.000	-0.039	-0.173
-345.420	-200.000	-0.014	0.093
-344.406	150.912	0.212	0.286
-343.391	111.407	-0.140	0.168
-342.377	228.725	0.063	0.102
-341.362	-200.000	-0.010	0.126
-340.348	115.118	0.166	0.201
-339.333	3.795	-0.232	-0.168
-338.318	-200.000	0.025	-0.127
-337.304	-64.484	-0.224	-0.090
-336.289	746.025	0.040	-0.106
-335.275	800.000	0.089	-0.300
-334.260	100.317	0.153	0.176
-333.245	282.862	-0.175	-0.312
-332.231	-200.000	-0.000	-0.058
-331.216	313.206	-0.089	0.165
-330.202	-105.850	0.392	-0.088
-329.187	130.463	-0.150	0.191
-328.172	800.000	0.015	-0.058
-327.158	-48.987	-0.187	-0.089
-326.143	-200.000	-0.009	0.310
-325.129	185.237	-0.077	0.113
-324.114	-200.000	0.015	0.121
-323.099	524.679	0.137	0.319
-322.085	-106.374	-0.296	-0.066
-321.070	800.000	-0.097	-0.321
-320.056	-200.000	-0.003	-0.127
-319.041	-200.000	0.035	0.152
-318.026	26.101	-0.335	-0.277
-317.012	-144.798	0.381	-0.035
-315.997	191.502	0.142	-0.212
-314.983	65.502	-0.184	-0.185
-313.968	-200.000	-0.009	0.083
-312.953	109.794	-0.078	0.092
-311.939	77.167	0.195	0.205
-310.924	8.888	-0.195	-0.146
-309.910	-4.706	0.251	0.171
-308.895	-4.833	-0.096	-0.065
-307.880	-200.000	-0.006	0.225
-306.866	41.819	0.080	0.072
-305.851	-116.301	0.242	0.044
-304.837	487.196	-0.156	0.353
-303.822	-200.000	0.026	-0.139
-302.807	50.104	-0.098	-0.092
-301.793	-113.719	0.304	-0.059
-300.778	64.827	0.033	0.033
-299.764	800.000	-0.021	0.073
-298.749	384.639	-0.034	-0.069
-297.735	-200.000	-0.012	0.205
-296.720	-200.000	-0.009	0.148
-295.705	293.050	0.130	-0.235
-294.691	179.311	0.067	-0.097
-293.676	83.355	-0.093	-0.100
-292.662	232.078	0.187	0.304
-291.647	-50.497	-0.235	0.110
-290.632	-200.000	-0.032	-0.187
-289.618	-56.079	-0.195	-0.086
-288.603	-76.098	-0.162	-0.057
-287.589	-84.475	0.476	0.149
-286.574	800.000	0.008	0.031
-285.559	-200.000	-0.050	0.223
-284.545	-67.360	-0.133	0.052
-283.530	-27.010	0.358	-0.207
-282.516	800.000	-0.054	-0.219
-281.501	-200.000	0.019	0.131
-280.486	309.736	0.065	-0.120
-279.472	-83.294	-0.213	0.068
-278.457	-172.305	-0.006	0.000
-277.443	-2.375	-0.167	0.116
-276.428	-200.000	-0.016	-0.236
-275.413	800.000	0.130	-0.529
-274.399	-200.000	-0.025	0.376
-273.384	-52.631	0.439	-0.201
-272.370	276.305	0.067	-0.118
-271.355	800.000	0.028	-0.082
-270.340	800.000	-0.056	0.153
-269.326	-135.059	0.229	0.027
-268.311	-75.507	-0.218	-0.077
-267.297	-33.123	-0.117	-0.064
-266.282	-200.000	0.020	0.332
-265.267	-93.420	-0.311	0.085
-264.253	-153.789	0.165	0.011
-263.238	-81.517	0.160	-0.052
-262.224	148.119	0.190	0.254
-261.209	-93.564	-0.125	-0.034
-260.195	-200.000	-0.011	0.307
-259.180	8.600	0.161	-0.120
-258.165	-141.063	0.119	0.012
-257.151	-55.430	0.238	-0.106
-256.136	-64.992	0.241	-0.096
-255.122	-64.710	0.199	0.080
-254.107	-200.000	-0.037	-0.202
-253.092	-103.078	-0.270	-0.063
-252.078	-73.637	0.275	0.099
-251.063	-32.687	0.202	-0.111
-250.049	-200.000	-0.031	0.134
-249.034	29.949	-0.129	-0.109
-248.019	-86.441	-0.448	-0.136
-247.005	-135.584	0.156	0.018
-245.990	42.858	0.213	0.192
-244.976	63.848	0.324	-0.321
-243.961	138.691	0.061	-0.079
-242.946	-94.105	-0.165	-0.045
-241.932	-200.000	-0.005	0.377
-240.917	11.676	-0.323	0.245
-239.903	-94.680	-0.470	0.126
-238.888	800.000	-0.057	0.158
-237.873	800.000	-0.156	0.428
-236.859	-77.167	0.114	-0.039
-235.844	-200.000	0.006	-0.192
-234.830	800.000	-0.129	0.421
-233.815	800.000	0.062	-0.226
-232.800	-62.693	0.265	-0.108
-231.786	800.000	0.056	-0.189
-230.771	-64.632	-0.374	-0.150
-229.757	-71.937	0.146	0.053
-228.742	-140.676	0.562	-0.057
-227.727	77.855	-0.022	0.023
-226.713	-153.591	-0.126	0.009
-225.698	494.400	-0.059	0.135
-224.684	-200.000	-0.008	0.276
-223.669	181.373	-0.067	0.098
-222.655	-200.000	0.025	0.234
-221.640	-8.914	0.095	-0.063
-220.625	800.000	0.009	-0.029
-219.611	111.006	-0.068	-0.081
-218.596	388.999	-0.074	0.151
-217.582	149.156	-0.154	0.206
-216.567	119.333	0.233	-0.285
-215.552	-16.371	0.391	0.245
-214.538	436.391	0.115	-0.247
-213.523	800.000	0.117	-0.334
-212.509	426.935	0.182	-0.388
-211.494	-158.840	-0.273	-0.015
-210.479	800.000	0.084	-0.266
-209.465	-200.000	-0.039	-0.432
-208.450	-200.000	0.048	0.310
-207.436	800.000	-0.079	-0.296
-206.421	-200.000	0.004	0.244
-205.406	-200.000	0.017	-0.250
-204.392	583.886	0.186	-0.450
-203.377	261.185	0.089	0.152
-202.363	-54.124	-0.147	-0.066
-201.348	-51.222	0.092	0.042
-200.333	-62.290	0.276	0.114
-199.319	-37.581	0.188	-0.099
-198.304	-20.388	0.208	-0.126
-197.290	-105.696	-0.472	-0.105
-196.275	-200.000	-0.017	-0.331
-195.260	251.305	0.113	-0.190
-194.246	598.476	0.071	-0.173
-193.231	-107.543	0.210	-0.045
-192.217	92.914	-0.038	0.043
-191.202	43.424	-0.098	0.089
-190.187	149.356	-0.056	0.075
-189.173	800.000	-0.110	0.323
-188.158	-60.651	0.127	0.053
-187.144	-200.000	-0.086	0.481
-186.129	239.252	0.195	0.320
-185.114	-200.000	0.014	-0.132
-184.100	-200.000	-0.015	-0.206
-183.085	-200.000	-0.011	0.200
-182.071	32.620	0.267	0.228
-181.056	-18.993	-0.232	0.142
-180.042	-90.656	0.230	-0.066
-179.027	635.629	-0.115	0.287
-178.012	-179.073	0.150	-0.003
-176.998	423.422	-0.050	0.106
-175.983	-59.357	-0.143	-0.061
-174.969	4.645	0.419	0.303
-173.954	27.823	-0.254	0.211
-172.939	-200.000	0.011	-0.053
-171.925	-76.476	0.205	-0.071
-170.910	-2.686	0.224	0.154
-169.896	98.160	0.069	0.079
-168.881	800.000	0.089	-0.243
-167.866	70.808	-0.172	0.175
-166.852	-200.000	-0.025	-0.162
-165.837	-173.944	0.140	-0.004
-164.823	-121.458	0.207	-0.034
-163.808	-138.036	-0.253	-0.028
-162.793	101.984	0.041	-0.047
-161.779	800.000	0.057	0.210
-160.764	64.738	0.246	0.244
-159.750	-44.463	0.067	0.033
-158.735	-8.844	0.287	0.190
-157.720	-200.000	0.001	0.362
-156.706	800.000	0.071	0.221
-155.691	-200.000	-0.016	0.072
-154.677	-40.004	0.202	0.104
-153.662	-110.915	0.381	-0.077
-152.647	800.000	0.077	0.263
-151.633	383.148	-0.051	-0.103
-150.618	-14.892	0.198	0.125
-149.604	-185.315	-0.120	-0.002
-148.589	34.653	0.165	0.142
-147.574	-157.297	-0.281	0.017
-146.560	76.426	0.209	0.218
-145.545	-124.234	0.133	0.020
-144.531	-27.108	0.208	-0.120
-143.516	-96.222	0.017	0.004
-142.502	-73.806	0.339	0.121
-141.487	227.476	-0.200	0.320
-140.472	527.017	0.069	-0.159
-139.458	411.286	0.099	0.206
-138.443	800.000	-0.083	0.332
-137.429	-149.954	0.392	0.030
-136.414	-60.458	0.112	0.047
-135.399	-183.393	-0.136	0.002
-134.385	402.157	0.052	-0.108
-133.370	-79.207	0.110	-0.037
-132.356	36.636	-0.049	0.043
-131.341	800.000	0.111	-0.307
-130.326	-200.000	-0.038	0.245
-129.312	610.435	0.019	-0.046
-128.297	343.827	0.080	0.155
-127.283	-56.585	-0.475	0.207
-126.268	174.416	0.200	-0.285
-125.253	14.406	0.179	-0.137
-124.239	332.935	-0.114	0.216
-123.224	-113.721	0.250	0.048
-122.210	66.130	0.099	0.099
-121.195	173.625	-0.198	0.282
-120.180	-101.362	0.241	-0.058
-119.166	-130.927	0.131	-0.017
-118.151	25.628	-0.239	0.196
-117.137	-115.440	0.183	-0.034
-116.122	-74.887	0.382	-0.135
-115.107	-109.531	0.182	-0.038
-114.093	156.678	-0.211	-0.287
-113.078	-77.745	0.314	0.107
-112.064	-10.839	0.269	-0.175
-111.049	254.480	-0.143	-0.241
-110.034	-139.567	0.329	0.034
-109.020	363.249	-0.083	0.163
-108.005	145.906	0.041	0.054
-106.991	-200.000	0.017	-0.322
-105.976	-71.907	0.239	0.088
-104.962	-172.711	-0.165	-0.005
-103.947	-86.693	0.354	0.107
-102.932	475.870	-0.096	0.213
-101.918	11.718	0.146	-0.110
-100.903	-116.971	0.428	0.077
-99.889	-106.573	0.297	-0.065
-98.874	-200.000	-0.026	0.151
-97.859	-133.314	0.259	0.032
-96.845	800.000	0.049	-0.165
-95.830	800.000	0.110	-0.458
-94.816	-200.000	0.003	-0.204
-93.801	-200.000	-0.031	-0.333
-92.786	110.198	0.114	0.134
-91.772	540.834	0.055	-0.129
-90.757	59.210	0.304	0.294
-89.743	188.648	0.245	0.360
-88.728	54.495	-0.200	-0.189
-87.713	-121.035	0.132	0.022
-86.699	-200.000	-0.031	-0.139
-85.684	86.021	0.070	-0.076
-84.670	772.450	-0.127	-0.340
-83.655	80.872	-0.177	-0.188
-82.640	-74.782	0.194	-0.068
-81.626	800.000	0.101	0.293
-80.611	-32.376	0.170	-0.093
-79.597	-158.428	-0.176	0.010
-78.582	-200.000	0.056	-0.284
-77.567	118.687	0.394	0.477
-76.553	36.045	-0.080	0.070
-75.538	7.417	0.102	-0.075
-74.524	137.769	0.281	0.362
-73.509	746.132	-0.061	0.162
-72.494	382.764	0.195	-0.393
-71.480	29.004	-0.160	-0.133
-70.465	-114.883	0.182	-0.034
-69.451	800.000	-0.060	0.224
-68.436	401.911	0.155	0.320
-67.422	286.040	-0.193	-0.341
-66.407	-28.719	-0.220	0.124
-65.392	-22.976	0.587	-0.347
-64.378	-108.133	0.047	0.010
-63.363	646.346	-0.056	-0.141
-62.349	-147.433	0.263	-0.022
-61.334	-17.626	-1.127	-0.695
-60.319	-1.050	0.502	0.348
-59.305	664.171	-0.334	-0.845
-58.290	395.683	0.486	0.995
-57.276	-200.000	0.324	1.656
-56.261	-200.000	96.863	602.181
-55.246	555.501	1370.770	3237.867
-54.232	161.344	2557.266	3508.568
-53.217	106.531	2262.553	2632.273
-52.203	41.225	1891.180	1677.022
-51.188	35.158	1681.322	1445.276
-50.173	32.439	1636.988	1387.105
-49.159	50.243	1684.500	1560.782
-48.144	51.705	1701.225	1587.134
-47.130	34.755	1661.569	1425.063
-46.115	31.919	1647.409	1391.853
-45.100	31.823	1642.393	1386.853
-44.086	31.832	1639.930	1384.785
-43.071	31.876	1636.873	1382.472
-42.057	31.731	1635.015	1379.776
-41.042	31.728	1633.143	1378.123
-40.027	31.761	1631.034	1376.526
-39.013	31.732	1629.511	1374.980
-37.998	31.639	1627.766	1372.765
-36.984	31.635	1626.459	1371.582
-35.969	31.822	1624.764	1371.463
-34.954	31.827	1623.141	1370.079
-33.940	31.894	1621.289	1368.952
-32.925	31.874	1619.417	1367.170
-31.911	31.798	1618.218	1365.550
-30.896	31.775	1616.054	1363.500
-29.881	31.781	1614.488	1362.166
-28.867	31.788	1612.829	1360.770
-27.852	31.797	1611.273	1359.469
-26.838	31.758	1609.834	1357.917
-25.823	31.738	1608.657	1356.722
-24.809	31.813	1606.858	1355.693
-23.794	31.929	1605.133	1355.025
-22.779	31.797	1604.430	1353.426
-21.765	31.824	1602.539	1351.971
-20.750	31.825	1600.983	1350.610
-19.736	31.861	1599.886	1349.887
-18.721	31.884	1597.867	1348.299
-17.706	31.861	1596.479	1346.911
-16.692	31.880	1595.227	1345.931
-15.677	31.789	1594.552	1344.657
-14.663	31.934	1592.772	1344.146
-13.648	31.838	1591.413	1342.256
-12.633	31.808	1590.075	1340.857
-11.619	31.762	1588.445	1339.101
-10.604	31.835	1586.732	1338.126
-9.590	31.933	1585.267	1337.540
-8.575	31.888	1583.940	1336.046
-7.560	31.846	1582.984	1334.885
-6.546	31.798	1581.980	1333.644
-5.531	31.899	1580.395	1332.976
-4.517	31.942	1579.245	1332.255
-3.502	31.905	1578.331	1331.173
-2.487	31.848	1576.998	1329.591
-1.473	31.455	1565.534	1317.105
-0.458	28.961	1545.830	1283.104
0.556	26.408	1547.837	1256.799
1.571	24.710	1572.546	1264.747
2.586	24.479	1586.283	1274.040
3.600	21.842	1532.528	1212.550
4.615	12.473	1422.027	1064.624
5.629	3.859	1356.222	961.872
6.644	2.390	1347.687	946.649
7.659	2.288	1346.318	944.973
8.673	2.143	1345.078	943.129
9.688	2.150	1343.476	941.963
10.702	1.885	1340.233	937.977
11.717	5.601	1348.222	966.451
12.731	15.804	1366.313	1042.868
13.746	24.055	1380.687	1105.198
14.761	26.393	1383.604	1121.959
15.775	26.688	1384.115	1124.106
16.790	26.833	1383.239	1124.196
17.804	26.914	1382.675	1124.139
18.819	27.085	1382.574	1125.019
19.834	27.249	1381.824	1125.322
20.848	27.239	1381.161	1124.621
21.863	27.209	1380.220	1123.573
22.877	27.135	1379.570	1122.485
23.892	27.129	1378.765	1121.693
24.907	27.253	1377.895	1121.649
25.921	27.139	1376.763	1119.929
26.936	27.283	1375.768	1119.908
27.950	27.269	1374.479	1118.674
28.965	27.283	1373.417	1117.793
29.980	27.199	1372.168	1116.163
30.994	27.310	1370.601	1115.472
32.009	27.214	1369.992	1114.287
33.023	27.172	1368.852	1113.004
34.038	27.288	1367.754	1112.724
35.053	27.287	1366.401	1111.518
36.067	27.197	1365.988	1110.531
37.082	27.235	1364.566	1109.509
38.096	27.272	1364.156	1109.307
39.111	27.246	1363.327	1108.376
40.126	27.257	1362.420	1107.604
41.140	27.281	1361.969	1107.286
42.155	27.174	1361.636	1106.267
43.169	27.352	1361.689	1107.297
44.184	27.227	1360.935	1105.823
45.199	27.217	1360.889	1105.630
46.213	27.208	1360.387	1105.070
47.228	27.304	1359.166	1104.565
48.242	27.248	1358.013	1103.189
49.257	27.304	1356.192	1101.950
50.271	27.186	1355.523	1100.596
51.286	27.264	1353.862	1099.619
52.301	27.207	1352.930	1098.419
53.315	27.222	1352.225	1097.844
54.330	27.251	1351.089	1096.995
55.344	27.256	1350.256	1096.255
56.359	27.198	1349.472	1095.174
57.374	27.220	1348.454	1094.383
58.388	27.138	1348.325	1093.686
59.403	27.228	1347.494	1093.456
60.417	27.253	1346.426	1092.643
61.432	27.234	1345.960	1092.055
62.447	27.315	1344.859	1091.551
63.461	27.291	1343.901	1090.529
64.476	27.287	1343.184	1089.830
65.490	27.209	1342.127	1088.406
66.505	27.268	1340.015	1086.953
67.520	27.205	1339.093	1085.733
68.534	27.228	1338.555	1085.338
69.549	27.296	1337.313	1084.642
70.563	27.228	1336.831	1083.745
71.578	27.384	1335.039	1083.129
72.593	27.266	1334.917	1082.227
73.607	27.290	1334.016	1081.544
74.622	27.199	1333.360	1080.381
75.636	27.285	1332.578	1080.162
76.651	27.277	1331.709	1079.315
77.666	27.303	1331.341	1079.073
78.680	27.216	1331.083	1078.255
79.695	27.315	1330.050	1077.904
80.709	27.221	1329.286	1076.633
81.724	27.304	1328.529	1076.417
82.739	27.318	1327.400	1075.489
83.753	27.273	1326.319	1074.253
84.768	27.339	1325.623	1073.987
85.782	27.300	1324.544	1072.788
86.797	27.332	1322.852	1071.509
87.812	27.137	1322.894	1070.299
88.826	27.344	1321.333	1070.162
89.841	27.301	1320.126	1068.832
90.855	27.329	1319.350	1068.275
91.870	27.336	1318.263	1067.341
92.884	27.297	1317.804	1066.648
93.899	27.338	1317.045	1066.181
94.914	27.393	1315.944	1065.514
95.928	27.310	1315.344	1064.449
96.943	27.268	1314.798	1063.666
97.957	27.452	1313.940	1063.954
98.972	27.477	1312.952	1063.207
99.987	27.362	1312.308	1061.919
101.001	27.356	1311.256	1060.941
102.016	27.345	1310.194	1059.924
103.030	27.310	1309.352	1058.947
104.045	27.394	1308.345	1058.527
105.060	27.384	1307.718	1057.866
106.074	27.440	1306.622	1057.210
107.089	27.482	1305.477	1056.433
108.103	27.466	1304.310	1055.306
109.118	27.450	1303.227	1054.240
110.133	27.411	1302.709	1053.504
111.147	27.342	1301.530	1052.059
112.162	27.477	1300.126	1051.611
113.176	27.385	1299.429	1050.424
114.191	27.421	1298.145	1049.500
115.206	27.395	1297.340	1048.604
116.220	27.386	1296.316	1047.632
117.235	27.402	1295.392	1046.883
118.249	27.373	1294.689	1046.059
119.264	27.348	1293.945	1045.218
120.279	27.470	1292.932	1045.013
121.293	27.496	1292.082	1044.381
122.308	27.600	1291.181	1044.157
123.322	27.406	1291.011	1042.817
124.337	27.362	1290.356	1041.940
125.352	27.473	1288.757	1041.194
126.366	27.496	1288.230	1040.806
127.381	27.541	1287.294	1040.215
128.395	27.523	1286.635	1039.484
129.410	27.490	1285.490	1038.280
130.424	27.539	1284.623	1037.768
131.439	27.466	1284.145	1036.874
132.454	27.466	1283.162	1035.989
133.468	27.515	1282.516	1035.655
134.483	27.439	1281.779	1034.538
135.497	27.588	1281.172	1034.801
136.512	27.416	1280.385	1033.095
137.527	27.427	1279.041	1031.983
138.541	27.447	1277.994	1031.161
139.556	27.478	1276.755	1030.244
140.570	27.503	1275.410	1029.212
141.585	27.397	1274.972	1028.167
142.600	27.393	1274.348	1027.551
143.614	27.402	1273.205	1026.588
144.629	27.491	1271.999	1026.025
145.643	27.409	1271.004	1024.675
146.658	27.307	1270.720	1023.777
147.673	27.391	1269.080	1022.836
148.687	27.366	1268.259	1021.945
149.702	27.373	1267.100	1020.959
150.716	27.397	1265.877	1020.022
151.731	27.503	1264.836	1019.685
152.746	27.458	1264.113	1018.758
153.760	27.433	1263.075	1017.695
154.775	27.448	1261.892	1016.731
155.789	27.385	1261.349	1015.857
156.804	27.516	1260.295	1015.648
157.819	27.381	1259.765	1014.375
158.833	27.396	1259.225	1013.934
159.848	27.485	1258.203	1013.519
160.862	27.536	1257.237	1012.935
161.877	27.456	1256.803	1012.052
162.892	27.553	1255.979	1011.838
163.906	27.534	1255.083	1010.917
164.921	27.612	1254.254	1010.596
165.935	27.677	1253.352	1010.139
166.950	27.566	1252.780	1008.973
167.964	27.499	1252.658	1008.415
168.979	27.569	1252.120	1008.280
169.994	27.578	1251.028	1007.361
171.008	27.598	1250.509	1006.963
172.023	27.670	1249.244	1006.255
173.037	27.526	1249.206	1005.339
174.052	27.542	1248.363	1004.660
175.067	27.634	1247.193	1004.138
176.081	27.620	1246.620	1003.508
177.096	27.558	1245.794	1002.413
178.110	27.618	1245.014	1002.026
179.125	27.684	1244.153	1001.607
180.140	27.573	1243.151	1000.103
181.154	27.580	1241.687	998.878
182.169	27.541	1240.897	997.937
183.183	27.590	1239.777	997.221
184.198	27.694	1238.414	996.601
185.213	27.689	1237.915	996.087
186.227	27.642	1237.265	995.217
187.242	27.636	1236.295	994.319
188.256	27.787	1235.140	994.123
189.271	27.573	1234.887	992.663
190.286	27.748	1233.882	992.720
191.300	27.703	1233.517	992.097
192.315	27.609	1232.995	991.077
193.329	27.644	1232.599	990.863
194.344	27.732	1232.207	990.936
195.359	27.682	1231.379	989.911
196.373	27.686	1231.132	989.649
197.388	27.660	1230.759	989.117
198.402	27.705	1229.855	988.550
199.417	27.651	1229.682	988.026
200.432	27.728	1229.369	988.109
201.446	27.623	1229.010	987.164
202.461	27.700	1228.188	986.833
203.475	27.734	1227.160	986.102
204.490	27.731	1225.768	984.881
205.504	27.702	1225.243	984.213
206.519	27.717	1224.271	983.426
207.534	27.666	1223.243	982.239
208.548	27.786	1222.580	982.268
209.563	27.798	1221.660	981.504
210.577	27.717	1221.240	980.646
211.592	27.634	1219.883	979.024
212.607	27.764	1219.621	979.423
213.621	27.800	1218.689	978.782
214.636	27.774	1217.863	977.891
215.650	27.693	1217.363	976.969
216.665	27.832	1215.835	976.401
217.680	27.862	1214.786	975.634
218.694	27.935	1214.023	975.326
219.709	27.889	1213.462	974.541
220.723	27.779	1213.607	973.983
221.738	27.734	1212.486	972.757
222.753	27.736	1211.884	972.199
223.767	27.705	1211.311	971.489
224.782	27.859	1210.444	971.526
225.796	28.023	1209.660	971.683
226.811	27.978	1209.348	971.111
227.826	27.832	1209.421	970.306
228.840	27.937	1208.498	970.035
229.855	27.790	1208.074	968.829
230.869	27.980	1206.599	968.571
231.884	27.860	1206.631	967.872
232.899	27.982	1205.469	967.502
233.913	27.733	1205.396	966.036
234.928	27.933	1204.736	966.484
235.942	27.970	1204.085	966.071
236.957	28.015	1203.066	965.403
237.972	27.936	1202.714	964.619
238.986	27.912	1202.027	963.855
240.001	27.901	1201.639	963.403
241.015	27.973	1200.817	963.039
242.030	27.957	1200.014	962.224
243.045	28.111	1198.697	961.894
244.059	28.054	1198.367	961.244
245.074	28.097	1197.505	960.692
246.088	28.119	1196.461	959.885
247.103	28.136	1196.263	959.730
248.117	28.097	1195.089	958.501
249.132	28.162	1194.647	958.400
250.147	28.226	1193.651	957.851
251.161	28.048	1193.228	956.498
252.176	28.236	1191.966	956.382
253.190	28.139	1191.874	955.719
254.205	28.102	1191.276	954.961
255.220	28.253	1190.461	955.010
256.234	28.201	1189.950	954.247
257.249	28.179	1189.357	953.568
258.263	28.121	1188.831	952.763
259.278	28.267	1188.024	952.790
260.293	28.210	1187.797	952.226
261.307	28.133	1187.489	951.497
262.322	28.177	1186.890	951.162
263.336	28.255	1185.539	950.396
264.351	28.251	1185.285	950.090
265.366	28.135	1184.803	949.016
266.380	28.292	1184.159	949.230
267.395	28.195	1183.193	947.873
268.409	28.149	1182.854	947.276
269.424	28.250	1182.326	947.294
270.439	28.413	1181.373	947.287
271.453	28.287	1181.369	946.551
272.468	28.273	1180.206	945.464
273.482	28.271	1179.528	944.828
274.497	28.318	1179.553	945.005
275.512	28.315	1178.834	944.328
276.526	28.354	1177.887	943.686
277.541	28.349	1177.225	943.049
278.555	28.239	1176.846	942.097
279.570	28.385	1175.745	941.880
280.585	28.448	1174.655	941.248
281.599	28.276	1174.780	940.381
282.614	28.321	1173.439	939.454
283.628	28.390	1172.105	938.658
284.643	28.391	1171.316	937.948
285.657	28.336	1170.651	937.053
286.672	28.364	1170.043	936.623
287.687	28.505	1169.136	936.535
288.701	28.534	1168.477	936.071
289.716	28.467	1167.762	935.076
290.730	28.361	1167.555	934.285
291.745	28.419	1166.670	933.791
292.760	28.492	1166.229	933.726
293.774	28.554	1165.785	933.604
294.789	28.471	1165.126	932.572
295.803	28.508	1164.541	932.210
296.818	28.439	1163.854	931.230
297.833	28.498	1163.093	930.837
298.847	28.558	1163.017	930.996
299.862	28.607	1161.722	930.126
300.876	28.556	1161.006	929.210
301.891	28.664	1160.380	929.177
302.906	28.578	1160.274	928.574
303.920	28.587	1159.488	927.910
304.935	28.658	1158.413	927.325
305.949	28.633	1157.628	926.489
306.964	28.610	1157.492	926.178
307.979	28.644	1156.699	925.634
308.993	28.631	1156.133	925.033
310.008	28.801	1155.260	925.111
311.022	28.717	1154.543	924.034
312.037	28.749	1153.425	923.216
313.052	28.737	1152.889	922.645
314.066	28.632	1152.409	921.652
315.081	28.696	1151.502	921.168
316.095	28.642	1151.091	920.484
317.110	28.752	1150.261	920.294
318.125	28.703	1149.586	919.427
319.139	28.743	1148.986	919.064
320.154	28.690	1148.845	918.604
321.168	28.823	1147.806	918.357
322.183	28.728	1147.314	917.405
323.197	28.661	1146.998	916.741
324.212	28.836	1145.889	916.643
325.227	28.758	1145.808	916.110
326.241	28.837	1145.267	915.990
327.256	28.867	1144.403	915.367
328.270	28.842	1143.671	914.578
329.285	28.716	1143.019	913.349
330.300	28.840	1142.206	913.231
331.314	28.849	1141.529	912.656
332.329	28.949	1140.216	912.022
333.343	28.865	1140.122	911.448
334.358	28.969	1139.039	911.017
335.373	28.904	1138.642	910.298
336.387	28.912	1137.595	909.421
337.402	28.902	1137.043	908.849
338.416	28.902	1136.550	908.371
339.431	28.958	1135.989	908.121
340.446	28.968	1135.476	907.683
341.460	28.949	1134.510	906.733
342.475	28.971	1133.921	906.291
343.489	28.989	1132.948	905.520
344.504	29.118	1131.936	905.267
345.519	29.056	1131.526	904.553
346.533	28.963	1130.647	903.318
347.548	29.108	1130.008	903.435
348.562	29.070	1129.415	902.698
349.577	29.120	1128.341	902.004
350.592	29.014	1127.630	900.837
351.606	29.056	1126.985	900.444
352.621	29.022	1126.735	900.000
353.635	29.053	1126.089	899.556
354.650	29.068	1125.132	898.785
355.665	29.127	1124.574	898.546
356.679	29.177	1124.244	898.447
357.694	29.168	1123.939	898.081
358.708	29.156	1122.885	897.100
359.723	29.206	1122.149	896.676
360.738	29.017	1121.782	895.386
361.752	29.107	1121.283	895.344
362.767	29.161	1120.518	894.916
363.781	29.256	1119.979	894.868
364.796	29.377	1119.266	894.806
365.810	29.230	1118.753	893.606
366.825	29.257	1118.294	893.291
367.840	29.366	1117.834	893.372
368.854	29.368	1117.441	892.987
369.869	29.361	1116.383	892.029
370.883	29.327	1116.002	891.482
371.898	29.331	1114.794	890.458
372.913	29.349	1114.586	890.301
373.927	29.423	1113.876	890.013
374.942	29.467	1113.100	889.524
375.956	29.431	1113.014	889.203
376.971	29.437	1112.317	888.597
377.986	29.473	1111.826	888.300
379.000	29.415	1111.947	888.037
380.015	29.370	1111.070	887.044
381.029	29.372	1110.056	886.163
382.044	29.550	1109.057	886.144
383.059	29.583	1108.729	885.959
384.073	29.599	1107.892	885.289
385.088	29.549	1107.401	884.581
386.102	29.579	1106.418	883.858
387.117	29.548	1105.765	883.113
388.132	29.429	1104.934	881.800
389.146	29.390	1104.499	881.188
390.161	29.467	1103.813	880.934
391.175	29.615	1102.545	880.549
392.190	29.493	1102.587	879.922
393.205	29.426	1101.770	878.873
394.219	29.559	1101.017	878.829
395.234	29.671	1100.013	878.481
396.248	29.692	1099.392	878.008
397.263	29.600	1098.770	876.995
398.278	29.650	1098.355	876.821
399.292	29.651	1097.542	876.100
400.307	29.721	1096.775	875.743
401.321	29.754	1096.495	875.600
402.336	29.631	1095.190	873.899
403.350	29.692	1094.946	873.912
404.365	29.726	1094.643	873.754
405.380	29.775	1093.335	872.868
406.394	29.888	1092.462	872.624
407.409	29.800	1092.056	871.810
408.423	30.010	1091.203	872.041
409.438	29.883	1090.855	871.087
410.453	29.953	1089.941	870.606
411.467	29.874	1089.377	869.711
412.482	29.889	1088.643	869.119
413.496	29.877	1088.112	868.558
414.511	29.861	1087.666	868.053
415.526	29.960	1086.993	867.904
416.540	29.904	1086.768	867.385
417.555	29.856	1086.369	866.762
418.569	29.901	1086.161	866.731
419.584	30.014	1085.401	866.575
420.599	29.898	1085.091	865.710
421.613	104.863	1323.205	1460.562
422.628	97.605	1357.872	1460.672
