DTS Sentinel unit serial number:	SN413079Multiplexer serial number:	ORYXHardware model number:	OX4-SRSoftware version number:	ORYX F/W v4.00 Oryx Data Collector v3.7.2.0data status	okinstallation	princeton_trtdifferential loss correction	single-endedforward channel	channel 2reverse channel	N/Adate	2019/09/12time	20:31:35forward acquisition time	60.00reverse acquisition time	0.00gamma	496.2192k internal	0.2327k external	0.2327temperature offset calibration	1.0170default loss term (dB/km)	0.3790temperature slope calibration	1.0000multiplexer offset coefficient	1.0000multiplexer slope coefficient	1.0000fibre end	0.00T internal ref (°C)	31.25T ext. ref 1 (°C)	3.62T ext. ref 2 (°C)	25.84length (m)	temperature (°C)	Stokes	anti-Stokes-747.200	-200.000	-0.049	-0.262
-746.185	-29.926	0.346	-0.198
-745.171	200.373	-0.105	-0.163
-744.156	-84.184	-0.113	0.036
-743.142	46.509	0.149	-0.139
-742.127	800.000	-0.144	0.406
-741.112	-200.000	-0.000	0.092
-740.098	247.504	0.108	0.183
-739.083	-200.000	-0.011	-0.099
-738.069	700.497	0.048	0.127
-737.054	-200.000	-0.018	-0.235
-736.039	111.543	-0.207	-0.252
-735.025	800.000	-0.099	0.297
-734.010	63.918	0.093	-0.095
-732.996	-159.142	0.111	-0.006
-731.981	-25.276	-0.284	0.169
-730.966	522.035	0.177	-0.419
-729.952	-37.610	-0.227	0.122
-728.937	24.414	-0.071	-0.059
-727.923	-200.000	0.008	-0.152
-726.908	-200.000	0.045	0.515
-725.894	-182.246	-0.271	-0.005
-724.879	-10.812	0.197	0.131
-723.864	-113.357	-0.053	0.010
-722.850	800.000	-0.038	0.120
-721.835	85.165	0.312	-0.345
-720.821	-128.911	-0.312	0.044
-719.806	-108.829	0.259	0.056
-718.791	-84.130	0.021	-0.007
-717.777	-26.101	0.073	-0.043
-716.762	800.000	0.034	0.127
-715.748	800.000	-0.024	-0.073
-714.733	-200.000	0.014	-0.102
-713.718	304.807	-0.231	-0.431
-712.704	15.476	0.098	-0.078
-711.689	-200.000	-0.020	-0.105
-710.675	800.000	0.109	-0.305
-709.660	-18.391	0.108	-0.068
-708.645	800.000	0.033	0.102
-707.631	85.511	0.037	0.041
-706.616	800.000	-0.028	-0.082
-705.602	-157.449	-0.364	-0.022
-704.587	-46.006	-0.176	0.087
-703.572	270.685	-0.018	0.031
-702.558	-200.000	-0.004	-0.154
-701.543	-161.483	-0.138	-0.007
-700.529	37.015	0.139	0.124
-699.514	800.000	0.051	0.159
-698.499	-119.865	-0.214	0.037
-697.485	61.710	-0.189	-0.189
-696.470	-71.285	-0.138	0.052
-695.456	182.694	0.031	-0.046
-694.441	248.419	-0.130	-0.221
-693.426	54.987	0.066	0.064
-692.412	136.892	-0.135	-0.177
-691.397	-200.000	-0.072	-0.327
-690.383	800.000	0.085	-0.266
-689.368	142.837	-0.208	-0.278
-688.354	327.842	-0.070	-0.136
-687.339	-21.842	-0.063	-0.038
-686.324	49.887	-0.214	0.203
-685.310	-200.000	-0.008	-0.190
-684.295	424.860	-0.059	-0.129
-683.281	-8.093	-0.119	0.081
-682.266	386.872	-0.059	-0.123
-681.251	343.876	0.183	-0.362
-680.237	-200.000	-0.024	-0.268
-679.222	185.533	0.231	-0.345
-678.208	653.379	0.097	-0.250
-677.193	-200.000	0.001	0.124
-676.178	-98.001	0.249	0.064
-675.164	-200.000	-0.001	0.180
-674.149	447.491	-0.134	-0.298
-673.135	-12.115	0.239	0.157
-672.120	320.788	0.199	-0.380
-671.105	-200.000	0.020	0.256
-670.091	-11.301	-0.097	-0.064
-669.076	45.586	-0.094	-0.088
-668.062	403.604	0.124	-0.262
-667.047	73.008	0.145	-0.153
-666.032	188.263	0.117	-0.177
-665.018	116.916	0.152	-0.188
-664.003	-200.000	0.011	0.111
-662.989	-126.107	-0.193	-0.029
-661.974	-200.000	-0.013	0.182
-660.959	-103.947	-0.173	-0.041
-659.945	411.524	-0.150	0.321
-658.930	-36.317	0.257	-0.139
-657.916	-62.783	-0.395	0.165
-656.901	-47.241	0.236	-0.115
-655.886	75.755	-0.021	0.022
-654.872	-102.614	0.300	0.072
-653.857	-200.000	0.058	-0.286
-652.843	-147.272	0.245	-0.021
-651.828	116.908	-0.275	0.340
-650.814	-200.000	0.004	0.251
-649.799	239.695	-0.125	0.210
-648.784	-70.424	0.209	-0.080
-647.770	173.639	0.069	-0.100
-646.755	-118.609	0.061	0.011
-645.741	308.033	0.187	0.350
-644.726	68.210	0.090	-0.093
-643.711	754.636	0.192	0.521
-642.697	98.223	0.077	-0.089
-641.682	19.092	-0.324	0.261
-640.668	800.000	-0.008	0.031
-639.653	463.672	-0.054	-0.122
-638.638	-101.930	0.191	-0.046
-637.624	-100.394	-0.251	-0.062
-636.609	-196.124	-0.157	-0.001
-635.595	152.926	0.190	-0.261
-634.580	601.630	-0.092	-0.229
-633.565	23.782	0.205	-0.169
-632.551	131.481	0.054	-0.070
-631.536	193.173	0.072	0.109
-630.522	107.971	-0.114	-0.137
-629.507	800.000	-0.022	0.087
-628.492	35.010	-0.149	-0.131
-627.478	-200.000	-0.018	0.153
-626.463	156.081	0.085	-0.117
-625.449	-52.297	0.219	-0.102
-624.434	615.037	-0.087	0.219
-623.419	-45.417	0.132	-0.066
-622.405	-200.000	0.052	0.294
-621.390	-200.000	-0.012	0.238
-620.376	-72.259	-0.082	0.030
-619.361	-34.804	0.072	-0.039
-618.346	-149.843	0.357	-0.028
-617.332	114.743	-0.175	-0.214
-616.317	800.000	-0.109	0.332
-615.303	-40.913	0.250	0.130
-614.288	55.984	-0.146	0.142
-613.273	-200.000	0.017	-0.202
-612.259	17.281	-0.367	-0.292
-611.244	-40.653	0.265	0.138
-610.230	431.745	0.022	-0.047
-609.215	28.296	-0.297	-0.252
-608.201	204.970	0.037	-0.058
-607.186	-20.360	-0.086	0.053
-606.171	799.836	-0.047	0.129
-605.157	-36.946	-0.194	0.104
-604.142	-200.000	0.000	-0.196
-603.128	102.094	0.210	-0.246
-602.113	73.612	0.066	0.070
-601.098	-108.025	-0.306	0.067
-600.084	-22.381	-0.238	-0.144
-599.069	800.000	0.062	0.176
-598.055	393.775	0.063	0.133
-597.040	-79.274	-0.346	0.118
-596.025	-39.426	0.061	0.032
-595.011	-95.745	0.342	0.092
-593.996	-55.665	0.203	0.091
-592.982	445.848	-0.035	0.078
-591.967	147.652	0.266	0.359
-590.952	572.207	0.132	-0.321
-589.938	27.970	0.015	0.013
-588.923	-5.153	0.202	-0.139
-587.909	800.000	-0.030	-0.111
-586.894	289.268	-0.159	-0.289
-585.879	115.880	0.139	-0.170
-584.865	-200.000	0.008	0.213
-583.850	-177.587	0.095	0.002
-582.836	-28.151	-0.344	-0.199
-581.821	485.336	-0.182	0.415
-580.806	54.979	0.173	0.167
-579.792	349.215	-0.128	0.252
-578.777	138.291	-0.096	-0.126
-577.763	-100.413	-0.340	0.084
-576.748	317.156	-0.173	-0.327
-575.733	-178.955	-0.252	-0.006
-574.719	-200.000	-0.067	0.386
-573.704	71.025	0.225	0.233
-572.690	-16.750	-0.094	-0.060
-571.675	800.000	0.042	-0.133
-570.661	800.000	0.062	0.173
-569.646	-21.896	0.143	-0.087
-568.631	44.335	-0.191	-0.176
-567.617	-33.557	-0.299	-0.165
-566.602	-72.131	-0.216	-0.080
-565.588	361.730	-0.181	-0.363
-564.573	-54.988	-0.124	-0.056
-563.558	800.000	-0.011	0.043
-562.544	800.000	-0.029	-0.098
-561.529	93.659	0.055	-0.062
-560.515	667.688	-0.135	-0.348
-559.500	-77.665	-0.207	0.072
-558.485	145.962	-0.152	0.205
-557.471	157.517	0.040	-0.056
-556.456	34.990	0.039	-0.034
-555.442	-74.368	-0.435	-0.157
-554.427	74.939	-0.101	0.106
-553.412	-200.000	0.040	-0.177
-552.398	74.090	-0.135	-0.142
-551.383	-79.028	-0.192	0.065
-550.369	-139.753	-0.015	-0.002
-549.354	-66.935	-0.428	0.169
-548.339	54.469	0.148	0.142
-547.325	618.002	-0.029	0.072
-546.310	-83.779	-0.184	0.059
-545.296	-200.000	-0.020	0.167
-544.281	-126.264	-0.433	0.065
-543.266	800.000	-0.077	0.237
-542.252	78.621	0.094	-0.101
-541.237	-78.902	0.187	0.064
-540.223	135.950	0.192	-0.251
-539.208	378.669	0.093	0.190
-538.193	710.381	-0.082	0.216
-537.179	-115.709	-0.042	0.008
-536.164	176.557	-0.207	0.300
-535.150	-36.888	-0.347	0.186
-534.135	142.940	0.194	-0.259
-533.121	800.000	-0.076	-0.225
-532.106	250.335	-0.182	0.308
-531.091	161.516	0.074	-0.103
-530.077	10.075	0.042	-0.032
-529.062	113.885	0.273	0.332
-528.048	-62.858	-0.181	-0.075
-527.033	68.811	-0.233	-0.239
-526.018	800.000	-0.106	0.356
-525.004	-200.000	-0.054	0.303
-523.989	177.516	-0.046	-0.067
-522.975	-83.006	0.256	-0.083
-521.960	800.000	-0.110	0.324
-520.945	800.000	0.094	-0.293
-519.931	-200.000	-0.051	-0.345
-518.916	-200.000	0.031	-0.376
-517.902	374.422	0.173	0.352
-516.887	-152.555	-0.252	-0.018
-515.872	176.039	-0.253	-0.367
-514.858	-149.714	-0.308	-0.024
-513.843	169.930	0.129	-0.184
-512.829	47.184	0.141	-0.132
-511.814	72.946	0.146	-0.153
-510.799	-45.721	0.163	-0.080
-509.785	-146.782	0.200	-0.017
-508.770	-175.392	-0.235	-0.006
-507.756	-200.000	0.002	0.035
-506.741	-178.266	-0.238	0.006
-505.726	-112.337	0.256	-0.051
-504.712	521.167	0.149	0.349
-503.697	653.861	-0.075	-0.193
-502.683	-200.000	-0.015	0.071
-501.668	121.677	-0.193	-0.240
-500.653	-102.725	0.268	0.064
-499.639	159.817	-0.093	-0.130
-498.624	4.353	0.014	-0.010
-497.610	800.000	-0.075	0.264
-496.595	320.116	-0.099	-0.187
-495.581	-10.745	0.024	-0.016
-494.566	59.308	-0.155	0.153
-493.551	56.113	0.178	-0.172
-492.537	50.072	-0.289	0.272
-491.522	648.427	0.065	0.166
-490.508	-200.000	-0.001	0.287
-489.493	321.084	-0.013	0.024
-488.478	171.738	0.090	-0.129
-487.464	-37.468	0.092	-0.049
-486.449	-22.227	0.227	-0.138
-485.435	-200.000	0.058	-0.368
-484.420	800.000	-0.030	0.092
-483.405	800.000	0.070	0.292
-482.391	800.000	-0.102	0.328
-481.376	800.000	0.099	0.323
-480.362	-200.000	-0.004	0.270
-479.347	-93.772	-0.314	0.086
-478.332	292.763	0.124	-0.225
-477.318	523.861	-0.142	-0.332
-476.303	-200.000	-0.066	-0.314
-475.289	-49.166	0.284	0.136
-474.274	-43.299	-0.266	-0.134
-473.259	129.177	-0.101	0.128
-472.245	228.332	-0.053	0.086
-471.230	-53.228	0.320	-0.147
-470.216	800.000	-0.059	-0.218
-469.201	64.322	0.138	-0.138
-468.186	102.304	-0.199	-0.232
-467.172	-200.000	0.007	0.089
-466.157	75.394	-0.135	0.142
-465.143	-180.703	-0.084	0.002
-464.128	800.000	-0.045	0.195
-463.113	-173.751	-0.262	0.008
-462.099	-141.061	-0.058	0.006
-461.084	199.045	-0.153	-0.233
-460.070	120.999	0.125	-0.155
-459.055	-45.473	0.558	-0.276
-458.040	41.000	-0.060	-0.054
-457.026	-196.882	-0.034	0.000
-456.011	-164.834	0.134	-0.006
-454.997	800.000	-0.090	0.343
-453.982	428.708	0.135	0.291
-452.968	800.000	0.123	0.403
-451.953	-72.409	-0.339	0.125
-450.938	-200.000	-0.025	-0.125
-449.924	-179.297	-0.098	0.002
-448.909	1.777	0.256	0.184
-447.895	800.000	0.026	0.078
-446.880	-200.000	-0.084	0.537
-445.865	4.176	-0.126	0.092
-444.851	800.000	0.054	0.213
-443.836	123.213	0.174	-0.217
-442.822	-24.974	0.224	-0.133
-441.807	-96.807	-0.150	-0.039
-440.792	-88.090	-0.125	-0.037
-439.778	-92.573	0.263	-0.074
-438.763	-158.930	-0.090	-0.005
-437.749	337.291	-0.096	-0.187
-436.734	109.681	-0.075	-0.089
-435.719	-57.802	0.197	0.086
-434.705	31.949	0.069	-0.059
-433.690	64.609	0.214	-0.215
-432.676	-81.472	-0.145	-0.048
-431.661	6.808	-0.190	0.141
-430.646	73.110	0.185	-0.192
-429.632	-200.000	0.011	-0.208
-428.617	181.036	-0.099	-0.146
-427.603	221.888	0.090	-0.143
-426.588	-139.527	-0.282	-0.030
-425.573	3.123	0.038	0.028
-424.559	-200.000	-0.043	-0.267
-423.544	272.804	-0.125	0.219
-422.530	-55.784	0.136	-0.061
-421.515	162.898	0.113	-0.158
-420.500	145.545	0.074	0.099
-419.486	105.171	-0.124	-0.146
-418.471	531.551	0.062	-0.146
-417.457	800.000	0.049	-0.167
-416.442	102.337	0.254	-0.296
-415.428	-104.805	0.313	0.072
-414.413	211.097	0.126	-0.198
-413.398	-91.846	-0.214	-0.061
-412.384	95.246	-0.161	0.183
-411.369	-200.000	-0.047	0.412
-410.355	-9.109	-0.346	-0.230
-409.340	190.440	-0.254	-0.380
-408.325	155.289	-0.403	-0.552
-407.311	800.000	-0.058	-0.234
-406.296	800.000	0.020	0.080
-405.282	-86.608	0.153	-0.047
-404.267	-200.000	-0.070	-0.306
-403.252	-170.317	-0.410	0.014
-402.238	119.982	0.159	-0.196
-401.223	-148.872	-0.245	0.020
-400.209	-200.000	-0.025	-0.204
-399.194	800.000	0.023	0.082
-398.179	-11.459	0.045	0.029
-397.165	753.831	-0.057	-0.154
-396.150	-200.000	0.002	0.054
-395.136	-56.057	-0.544	0.241
-394.121	-18.962	-0.270	0.167
-393.106	466.015	-0.068	0.153
-392.092	226.223	0.045	0.073
-391.077	756.539	0.019	-0.052
-390.063	25.483	0.117	-0.097
-389.048	-34.139	-0.422	0.231
-388.033	90.438	-0.232	0.259
-387.019	400.241	0.061	-0.128
-386.004	-54.520	-0.125	-0.056
-384.990	-200.000	-0.003	-0.108
-383.975	288.446	0.058	-0.104
-382.960	-86.528	-0.315	-0.096
-381.946	-52.081	0.323	-0.149
-380.931	-78.818	-0.105	0.036
-379.917	-76.293	-0.202	-0.071
-378.902	-200.000	0.005	-0.148
-377.888	-200.000	0.069	-0.337
-376.873	-200.000	-0.019	-0.191
-375.858	74.144	0.076	0.079
-374.844	800.000	0.031	0.107
-373.829	-200.000	-0.026	-0.167
-372.815	260.497	-0.133	0.228
-371.800	800.000	-0.054	0.189
-370.785	189.148	0.124	-0.185
-369.771	-22.657	0.259	-0.156
-368.756	206.473	0.124	-0.191
-367.742	19.208	0.147	-0.117
-366.727	37.743	0.093	-0.082
-365.712	-40.950	-0.132	-0.068
-364.698	16.012	0.150	-0.117
-363.683	791.998	-0.064	-0.174
-362.669	-102.474	0.056	-0.013
-361.654	-168.612	0.155	-0.006
-360.639	-200.000	0.010	-0.079
-359.625	318.114	-0.049	0.093
-358.610	-140.283	0.313	0.033
-357.596	-200.000	-0.000	0.090
-356.581	-118.462	-0.317	-0.056
-355.566	434.495	-0.038	-0.081
-354.552	283.292	0.056	0.100
-353.537	800.000	0.039	0.165
-352.523	-86.456	0.146	-0.045
-351.508	92.305	0.105	0.117
-350.493	-142.466	0.242	0.024
-349.479	-85.006	-0.289	-0.090
-348.464	264.573	0.054	-0.093
-347.450	-177.981	0.185	-0.004
-346.435	181.107	-0.193	-0.282
-345.420	546.395	-0.114	-0.270
-344.406	30.364	-0.192	0.163
-343.391	-101.216	0.032	-0.008
-342.377	49.342	0.222	-0.208
-341.362	73.063	-0.075	0.078
-340.348	-197.443	-0.110	0.001
-339.333	365.824	-0.123	0.246
-338.318	36.175	0.034	-0.030
-337.304	-62.507	0.214	-0.088
-336.289	42.700	0.087	-0.079
-335.275	22.319	-0.159	0.129
-334.260	-42.659	0.106	0.053
-333.245	566.038	-0.041	0.098
-332.231	-16.443	0.321	-0.202
-331.216	595.007	-0.006	0.014
-330.202	98.323	-0.107	-0.123
-329.187	-200.000	-0.069	0.371
-328.172	-15.193	0.048	-0.031
-327.158	2.839	0.249	0.179
-326.143	601.382	-0.088	0.216
-325.129	-44.099	-0.175	-0.087
-324.114	-68.428	-0.096	-0.037
-323.099	-3.810	-0.091	-0.062
-322.085	106.565	0.180	0.212
-321.070	-200.000	-0.003	0.376
-320.056	-43.531	0.140	0.070
-319.041	-23.554	-0.191	-0.113
-318.026	-145.233	0.189	-0.017
-317.012	571.249	0.093	-0.224
-315.997	111.366	-0.085	0.101
-314.983	-200.000	-0.003	0.137
-313.968	-106.857	0.265	-0.058
-312.953	85.396	-0.212	-0.231
-311.939	-104.277	0.098	0.022
-310.924	800.000	0.021	-0.065
-309.910	-128.501	-0.188	-0.026
-308.895	43.668	-0.110	0.100
-307.880	-111.429	0.212	0.043
-306.866	800.000	-0.047	0.146
-305.851	7.971	0.171	0.127
-304.837	171.353	-0.051	-0.072
-303.822	81.660	0.290	0.311
-302.807	-104.503	0.119	0.027
-301.793	800.000	0.099	-0.281
-300.778	-62.792	-0.371	0.152
-299.764	566.089	0.096	0.230
-298.749	-106.964	0.155	-0.034
-297.735	800.000	0.061	-0.193
-296.720	-48.640	-0.064	-0.031
-295.705	-156.323	-0.118	0.007
-294.691	16.456	0.264	0.207
-293.676	800.000	-0.041	-0.129
-292.662	-54.153	0.238	-0.107
-291.647	-41.124	0.262	0.134
-290.632	-10.508	0.169	0.111
-289.618	-42.610	-0.067	-0.034
-288.603	-25.387	0.436	0.255
-287.589	34.846	0.115	0.100
-286.574	198.195	-0.114	0.172
-285.559	-64.760	-0.270	0.108
-284.545	-200.000	-0.003	0.063
-283.530	75.259	-0.132	-0.138
-282.516	-91.373	0.245	-0.069
-281.501	800.000	0.098	-0.408
-280.486	-113.337	0.235	0.046
-279.472	71.689	-0.137	0.141
-278.457	-200.000	0.032	0.206
-277.443	800.000	0.048	-0.163
-276.428	227.655	0.083	0.133
-275.413	57.727	-0.206	0.200
-274.399	244.686	0.148	0.246
-273.384	-16.225	-0.203	0.128
-272.370	-200.000	0.019	-0.231
-271.355	-200.000	0.011	0.113
-270.340	-106.213	-0.282	-0.063
-269.326	-67.786	0.067	0.026
-268.311	295.507	0.066	0.120
-267.297	800.000	0.060	-0.210
-266.282	-106.351	-0.242	0.053
-265.267	-112.511	0.130	-0.026
-264.253	-58.090	0.185	0.080
-263.238	202.414	0.149	-0.227
-262.224	800.000	-0.077	-0.271
-261.209	-200.000	-0.025	-0.358
-260.195	-71.312	0.271	0.101
-259.180	-200.000	0.034	0.180
-258.165	-24.941	0.141	0.083
-257.151	-200.000	0.019	0.148
-256.136	169.281	0.125	-0.176
-255.122	-24.134	0.338	0.200
-254.107	-40.618	-0.213	-0.109
-253.092	-200.000	-0.001	0.097
-252.078	65.470	0.178	-0.178
-251.063	18.733	0.185	-0.146
-250.049	194.294	0.133	0.200
-249.034	800.000	-0.034	0.095
-248.019	-83.138	0.286	0.091
-247.005	157.478	-0.082	-0.112
-245.990	-17.829	0.188	0.117
-244.976	54.650	-0.042	0.040
-243.961	-166.584	-0.085	-0.003
-242.946	84.808	0.199	-0.215
-241.932	800.000	-0.069	-0.260
-240.917	-16.493	-0.032	-0.020
-239.903	-200.000	-0.094	-0.420
-238.888	277.705	0.015	-0.027
-237.873	464.619	-0.050	-0.111
-236.859	-101.685	-0.211	-0.050
-235.844	-115.247	0.241	0.045
-234.830	412.274	0.045	0.095
-233.815	-59.099	0.333	0.142
-232.800	286.101	0.195	0.347
-231.786	15.980	-0.279	0.217
-230.771	-95.503	-0.328	0.087
-229.757	-138.867	-0.185	0.020
-228.742	-113.210	0.229	-0.045
-227.727	-128.531	0.156	0.022
-226.713	-93.049	-0.254	0.070
-225.698	-200.000	0.020	0.263
-224.684	800.000	0.018	-0.066
-223.669	-116.707	0.210	-0.038
-222.655	-200.000	-0.003	0.023
-221.640	13.557	0.265	-0.203
-220.625	-69.545	0.253	0.096
-219.611	-80.897	-0.347	0.114
-218.596	-26.465	0.279	-0.161
-217.582	72.855	-0.160	-0.165
-216.567	587.533	-0.156	0.379
-215.552	-115.770	0.141	0.026
-214.538	500.408	-0.139	0.317
-213.523	-59.050	-0.112	0.048
-212.509	83.980	-0.171	-0.185
-211.494	-86.781	0.213	-0.064
-210.479	-113.596	0.228	-0.044
-209.465	-81.338	-0.052	0.017
-208.450	663.771	-0.079	-0.201
-207.436	-200.000	-0.021	0.289
-206.421	-94.113	0.276	-0.075
-205.406	-76.699	-0.292	-0.101
-204.392	-200.000	-0.022	-0.126
-203.377	-65.255	-0.108	0.043
-202.363	-200.000	-0.053	0.250
-201.348	640.086	-0.016	-0.039
-200.333	-30.282	0.459	0.257
-199.319	-200.000	0.006	0.112
-198.304	-98.919	0.191	0.048
-197.290	-200.000	-0.032	-0.214
-196.275	800.000	0.089	0.371
-195.260	46.598	0.178	-0.163
-194.246	81.024	0.206	-0.219
-193.231	-170.030	0.386	-0.014
-192.217	-200.000	-0.039	0.179
-191.202	-134.814	-0.183	0.022
-190.187	-7.760	0.092	0.061
-189.173	145.718	0.269	-0.356
-188.158	7.613	0.230	0.170
-187.144	362.789	-0.139	0.275
-186.129	-90.623	-0.071	-0.020
-185.114	800.000	-0.016	-0.062
-184.100	100.142	0.166	-0.190
-183.085	108.587	-0.171	-0.201
-182.071	89.837	0.062	-0.068
-181.056	-88.259	-0.202	0.060
-180.042	77.557	0.167	-0.176
-179.027	28.023	0.361	0.301
-178.012	-63.004	0.293	-0.120
-176.998	-33.072	0.069	-0.038
-175.983	800.000	-0.035	0.120
-174.969	82.582	-0.077	0.083
-173.954	-137.377	-0.096	-0.011
-172.939	800.000	-0.110	0.384
-171.925	-12.450	0.034	0.022
-170.910	-89.283	-0.359	-0.104
-169.896	191.920	0.094	-0.139
-168.881	800.000	-0.045	-0.171
-167.866	-71.896	0.066	0.024
-166.852	35.916	0.226	-0.196
-165.837	-54.551	-0.278	0.124
-164.823	-180.960	0.175	-0.003
-163.808	34.788	-0.216	0.186
-162.793	-200.000	0.124	0.589
-161.779	-19.818	-0.014	-0.009
-160.764	-64.477	-0.199	-0.080
-159.750	-179.499	0.265	0.006
-158.735	800.000	-0.028	-0.088
-157.720	48.026	0.065	-0.060
-156.706	-200.000	0.052	0.301
-155.691	-126.197	0.306	-0.045
-154.677	-114.472	-0.169	0.032
-153.662	219.042	-0.096	-0.151
-152.647	258.649	-0.062	0.105
-151.633	468.645	-0.077	0.170
-150.618	-21.729	0.427	-0.256
-149.604	454.807	-0.194	0.424
-148.589	32.898	0.251	-0.214
-147.574	-200.000	-0.005	-0.024
-146.560	-200.000	-0.006	-0.112
-145.545	320.636	-0.068	-0.128
-144.531	-152.861	-0.337	-0.024
-143.516	75.295	0.262	0.272
-142.502	-93.217	-0.241	0.066
-141.487	-200.000	-0.036	0.346
-140.472	-200.000	-0.049	-0.222
-139.458	11.613	0.238	-0.180
-138.443	749.973	0.181	0.482
-137.429	-64.257	0.211	0.084
-136.414	188.159	0.129	-0.190
-135.399	-200.000	-0.039	-0.307
-134.385	66.423	0.367	0.367
-133.370	38.539	0.254	0.223
-132.356	-135.141	0.143	0.017
-131.341	49.505	-0.205	0.190
-130.326	-109.505	0.279	0.058
-129.312	-200.000	0.026	-0.220
-128.297	167.418	-0.022	0.031
-127.283	-87.297	0.281	0.084
-126.268	180.057	-0.122	0.176
-125.253	66.799	0.111	-0.111
-124.239	-200.000	0.007	0.032
-123.224	-37.610	0.209	0.110
-122.210	600.020	-0.041	-0.099
-121.195	-58.256	0.128	-0.055
-120.180	149.058	0.100	0.133
-119.166	368.304	0.048	0.096
-118.151	-177.906	0.520	-0.012
-117.137	28.375	-0.314	0.261
-116.122	605.509	0.064	0.156
-115.107	-75.221	-0.159	0.056
-114.093	60.971	-0.125	0.122
-113.078	-119.419	-0.027	0.005
-112.064	-200.000	0.017	0.121
-111.049	-134.586	0.237	-0.028
-110.034	800.000	-0.053	0.213
-109.020	-100.004	-0.330	0.081
-108.005	-200.000	0.056	0.456
-106.991	-163.642	0.078	-0.004
-105.976	-106.615	-0.039	0.009
-104.962	-119.117	0.229	0.039
-103.947	186.424	-0.043	0.063
-102.932	-112.802	-0.200	-0.039
-101.918	-97.245	0.372	0.095
-100.903	-200.000	0.014	0.151
-99.889	301.908	-0.135	-0.245
-98.874	-200.000	-0.100	0.434
-97.859	-5.252	0.190	0.128
-96.845	800.000	0.147	0.417
-95.830	46.546	0.076	0.069
-94.816	294.484	-0.068	0.122
-93.801	274.221	0.075	0.131
-92.786	-90.431	0.264	0.075
-91.772	-112.077	-0.244	-0.048
-90.757	153.631	-0.162	-0.218
-89.743	800.000	0.080	-0.334
-88.728	272.366	-0.166	0.287
-87.713	-55.798	0.193	0.085
-86.699	202.521	0.244	0.370
-85.684	124.794	-0.249	0.308
-84.670	-35.747	0.307	0.163
-83.655	-91.329	0.258	-0.072
-82.640	-200.000	-0.062	0.378
-81.626	564.903	-0.095	-0.225
-80.611	-163.219	0.407	-0.019
-79.597	55.896	-0.164	-0.156
-78.582	238.762	0.075	0.123
-77.567	28.795	-0.144	0.120
-76.553	8.331	-0.016	-0.012
-75.538	519.906	-0.081	-0.187
-74.524	-148.943	0.136	-0.011
-73.509	800.000	-0.067	-0.203
-72.494	269.612	0.040	0.069
-71.480	364.868	0.162	-0.320
-70.465	26.516	0.222	-0.182
-69.451	-200.000	-0.023	0.201
-68.436	4.639	0.108	-0.078
-67.422	-39.609	0.168	0.087
-66.407	-20.120	0.121	-0.073
-65.392	357.668	0.087	-0.171
-64.378	-200.000	0.038	-0.235
-63.363	77.088	-0.216	-0.225
-62.349	-200.000	-0.008	-0.063
-61.334	13.072	-1.208	-0.917
-60.319	-92.533	0.628	0.173
-59.305	-200.000	-0.166	-0.808
-58.290	160.657	0.709	0.971
-57.276	262.328	0.817	1.391
-56.261	-200.000	100.577	603.786
-55.246	596.345	1399.075	3400.106
-54.232	194.350	2582.934	3842.591
-53.217	111.003	2259.751	2670.178
-52.203	40.544	1884.844	1666.228
-51.188	34.480	1676.368	1436.378
-50.173	31.915	1633.030	1380.343
-49.159	50.363	1683.500	1561.248
-48.144	51.531	1699.353	1584.605
-47.130	34.128	1658.943	1418.596
-46.115	31.301	1644.776	1385.499
-45.100	31.234	1639.909	1380.844
-44.086	31.167	1637.688	1378.425
-43.071	31.173	1634.958	1376.113
-42.057	31.145	1632.157	1373.497
-41.042	31.244	1629.796	1372.183
-40.027	31.187	1628.507	1370.629
-39.013	31.125	1626.658	1368.559
-37.998	31.077	1625.029	1366.786
-36.984	31.082	1623.968	1365.878
-35.969	31.263	1622.373	1365.806
-34.954	31.305	1620.897	1364.811
-33.940	31.220	1619.363	1362.849
-32.925	31.314	1617.171	1361.633
-31.911	31.200	1616.007	1359.770
-30.896	31.276	1613.568	1358.214
-29.881	31.201	1612.603	1356.803
-28.867	31.253	1610.570	1355.420
-27.852	31.209	1609.187	1353.878
-26.838	31.257	1607.345	1352.625
-25.823	31.313	1606.090	1351.922
-24.809	31.297	1605.226	1351.024
-23.794	31.233	1603.828	1349.333
-22.779	31.289	1602.361	1348.451
-21.765	31.316	1600.634	1347.135
-20.750	31.131	1599.558	1344.840
-19.736	31.310	1597.641	1344.463
-18.721	31.312	1596.317	1343.310
-17.706	31.284	1594.371	1341.424
-16.692	31.286	1592.956	1340.189
-15.677	31.258	1591.655	1338.846
-14.663	31.301	1590.336	1337.989
-13.648	31.357	1589.026	1337.234
-12.633	31.257	1587.887	1335.505
-11.619	31.228	1586.624	1334.188
-10.604	31.307	1584.909	1333.253
-9.590	31.269	1583.661	1331.880
-8.575	31.327	1581.986	1330.830
-7.560	31.359	1580.914	1330.106
-6.546	31.289	1579.904	1328.703
-5.531	31.250	1578.807	1327.451
-4.517	31.296	1577.842	1326.913
-3.502	31.355	1576.516	1326.165
-2.487	31.294	1575.102	1324.491
-1.473	30.887	1563.337	1311.685
-0.458	27.975	1544.072	1275.177
0.556	26.141	1544.343	1243.287
1.571	23.548	1567.438	1243.618
2.586	23.025	1579.812	1249.627
3.600	20.502	1526.938	1190.443
4.615	12.321	1419.197	1054.044
5.629	5.015	1355.837	961.960
6.644	3.695	1347.860	948.116
7.659	3.594	1347.190	946.944
8.673	3.596	1345.994	946.034
9.688	3.605	1344.222	944.755
10.702	3.485	1341.272	941.868
11.717	6.878	1347.194	966.729
12.731	15.799	1363.735	1033.537
13.746	22.911	1375.898	1086.572
14.761	24.786	1377.125	1098.977
15.775	24.456	1375.872	1095.853
16.790	23.959	1374.230	1091.401
17.804	23.565	1373.211	1088.080
18.819	23.398	1372.341	1086.271
19.834	23.455	1371.214	1085.631
20.848	23.487	1370.730	1085.350
21.863	23.518	1369.800	1084.705
22.877	23.483	1368.701	1083.526
23.892	23.328	1368.250	1082.126
24.907	23.294	1366.948	1080.794
25.921	23.356	1366.092	1080.396
26.936	23.295	1365.366	1079.358
27.950	23.405	1364.351	1079.130
28.965	23.458	1363.352	1078.564
29.980	23.503	1362.296	1077.910
30.994	23.477	1361.658	1077.152
32.009	23.649	1360.409	1077.111
33.023	23.592	1359.447	1075.907
34.038	23.475	1358.184	1074.102
35.053	23.468	1357.154	1073.154
36.067	23.393	1356.394	1072.006
37.082	23.362	1355.023	1070.636
38.096	23.372	1354.474	1070.169
39.111	23.527	1353.546	1070.274
40.126	23.347	1352.872	1068.562
41.140	23.128	1352.109	1066.545
42.155	23.007	1350.804	1064.691
43.169	22.932	1350.960	1064.267
44.184	22.795	1350.806	1063.229
45.199	23.006	1350.535	1064.194
46.213	23.110	1349.974	1064.280
47.228	23.317	1349.182	1064.808
48.242	23.492	1348.288	1065.059
49.257	23.307	1347.037	1062.867
50.271	23.300	1345.332	1061.387
51.286	23.299	1344.178	1060.372
52.301	23.208	1343.682	1059.345
53.315	23.313	1342.040	1058.585
54.330	23.142	1340.850	1056.531
55.344	23.076	1339.583	1055.048
56.359	22.996	1338.851	1053.901
57.374	22.879	1338.264	1052.650
58.388	22.846	1337.762	1051.963
59.403	22.772	1336.948	1050.789
60.417	22.732	1336.300	1049.946
61.432	22.719	1335.265	1048.967
62.447	22.766	1334.002	1048.161
63.461	22.613	1333.171	1046.503
64.476	22.697	1331.762	1045.806
65.490	22.645	1330.690	1044.561
66.505	22.679	1329.309	1043.588
67.520	22.652	1328.578	1042.762
68.534	22.605	1327.498	1041.545
69.549	22.564	1326.378	1040.329
70.563	22.560	1324.964	1039.108
71.578	22.435	1324.535	1037.943
72.593	22.458	1323.051	1036.823
73.607	22.399	1322.686	1036.095
74.622	22.309	1322.276	1035.154
75.636	22.522	1321.410	1035.638
76.651	22.542	1320.831	1035.209
77.666	22.511	1320.787	1034.899
78.680	22.653	1319.682	1034.778
79.695	22.552	1319.531	1033.972
80.709	22.738	1318.973	1034.534
81.724	22.941	1318.018	1034.885
82.739	22.969	1317.419	1034.485
83.753	23.153	1316.775	1034.966
84.768	23.365	1316.712	1036.061
85.782	23.619	1315.276	1036.327
86.797	23.682	1314.047	1035.632
87.812	23.480	1312.888	1033.452
88.826	23.503	1311.594	1032.477
89.841	23.486	1310.760	1031.625
90.855	23.564	1309.757	1031.201
91.870	23.726	1308.942	1031.411
92.884	23.676	1308.555	1030.719
93.899	23.767	1307.515	1030.342
94.914	23.680	1307.328	1029.596
95.928	23.697	1306.386	1028.860
96.943	23.670	1305.745	1028.110
97.957	23.583	1305.197	1027.085
98.972	23.591	1303.973	1026.074
99.987	23.610	1302.954	1025.294
101.001	23.437	1302.439	1023.798
102.016	23.571	1300.990	1023.339
103.030	23.626	1299.990	1022.784
104.045	23.486	1299.179	1021.244
105.060	23.259	1297.631	1018.635
106.074	22.990	1296.380	1016.013
107.089	22.860	1294.881	1014.005
108.103	22.647	1293.475	1011.589
109.118	22.609	1292.131	1010.235
110.133	22.617	1290.539	1008.943
111.147	22.626	1289.639	1008.205
112.162	22.736	1288.657	1007.976
113.176	22.782	1287.889	1007.547
114.191	22.830	1286.994	1007.031
115.206	22.850	1286.354	1006.555
116.220	22.832	1285.273	1005.517
117.235	22.849	1284.139	1004.643
118.249	22.649	1282.767	1002.338
119.264	22.694	1281.674	1001.656
120.279	22.525	1280.916	1000.014
121.293	22.540	1279.838	999.167
122.308	22.396	1278.297	997.063
123.322	22.337	1277.373	995.920
124.337	22.335	1276.552	995.177
125.352	22.359	1275.591	994.474
126.366	22.364	1274.752	993.762
127.381	22.381	1273.584	992.862
128.395	22.138	1273.106	991.030
129.410	22.143	1271.698	989.876
130.424	22.249	1271.190	989.988
131.439	22.521	1270.778	991.112
132.454	22.773	1269.933	991.779
133.468	22.773	1269.870	991.644
134.483	22.757	1269.457	991.142
135.497	22.898	1268.332	990.971
136.512	22.910	1267.085	989.971
137.527	22.841	1266.081	988.715
138.541	22.865	1264.753	987.722
139.556	22.820	1263.926	986.742
140.570	23.046	1263.181	987.335
141.585	23.188	1262.071	987.168
142.600	23.474	1261.191	987.988
143.614	23.534	1260.864	987.978
144.629	23.560	1259.893	987.275
145.643	23.466	1258.885	985.877
146.658	23.335	1257.243	983.774
147.673	23.339	1255.401	982.266
148.687	23.021	1254.960	980.074
149.702	22.842	1253.796	978.084
150.716	22.662	1251.837	975.476
151.731	22.543	1250.871	973.981
152.746	22.636	1249.887	973.644
153.760	22.895	1248.992	974.287
154.775	23.158	1247.941	974.831
155.789	23.131	1247.250	974.056
156.804	23.162	1246.387	973.465
157.819	23.065	1245.614	972.240
158.833	23.280	1244.890	972.773
159.848	23.377	1244.348	972.795
160.862	23.276	1243.276	971.316
161.877	23.101	1241.639	968.992
162.892	22.785	1240.330	966.157
163.906	22.578	1239.351	964.175
164.921	22.623	1238.542	963.711
165.935	22.802	1238.061	964.224
166.950	23.028	1237.168	964.678
167.964	22.906	1237.253	963.992
168.979	22.801	1236.556	962.794
169.994	22.762	1235.886	961.975
171.008	22.700	1234.976	960.842
172.023	22.936	1234.262	961.489
173.037	23.262	1233.928	962.917
174.052	23.225	1232.754	961.710
175.067	22.911	1231.679	959.082
176.081	22.605	1230.751	956.617
177.096	22.636	1229.393	955.646
178.110	22.717	1228.574	955.362
179.125	22.712	1227.465	954.384
180.140	22.935	1227.201	955.305
181.154	23.233	1226.176	956.030
182.169	23.273	1224.641	954.963
183.183	23.212	1224.031	954.074
184.198	23.413	1222.667	954.011
185.213	23.422	1221.433	953.010
186.227	23.287	1220.850	951.747
187.242	23.441	1219.819	951.687
188.256	23.502	1218.987	951.281
189.271	23.429	1218.989	950.805
190.286	23.422	1216.927	949.077
191.300	22.997	1216.329	946.249
192.315	22.865	1215.628	944.914
193.329	22.987	1214.792	944.836
194.344	22.819	1214.334	943.497
195.359	22.743	1213.570	942.412
196.373	22.777	1212.695	941.832
197.388	22.729	1212.995	941.723
198.402	23.197	1212.844	944.021
199.417	23.558	1212.704	945.753
200.432	23.643	1212.132	945.674
201.446	23.551	1211.844	944.878
202.461	23.701	1211.061	944.985
203.475	23.662	1209.852	943.750
204.490	23.353	1208.391	940.883
205.504	23.092	1207.052	938.377
206.519	23.023	1205.837	936.980
207.534	22.921	1204.359	935.209
208.548	22.808	1203.990	934.242
209.563	22.888	1202.982	933.800
210.577	22.929	1201.831	933.041
211.592	23.022	1201.456	933.157
212.607	23.424	1201.390	935.146
213.621	23.488	1200.413	934.639
214.636	23.308	1199.456	932.867
215.650	23.243	1198.769	931.906
216.665	23.411	1198.039	932.137
217.680	23.596	1197.685	932.751
218.694	23.753	1196.272	932.397
219.709	23.618	1195.444	930.958
220.723	23.517	1194.744	929.801
221.738	23.511	1194.101	929.187
222.753	23.380	1193.141	927.675
223.767	23.313	1192.591	926.812
224.782	23.633	1192.074	928.003
225.796	23.719	1192.334	928.571
226.811	23.700	1190.856	927.240
227.826	23.445	1190.308	925.399
228.840	23.332	1189.493	924.095
229.855	23.282	1188.609	923.067
230.869	23.213	1187.874	922.053
231.884	23.216	1186.865	921.206
232.899	22.957	1185.696	918.868
233.913	22.926	1184.835	917.957
234.928	22.860	1184.657	917.398
235.942	22.844	1183.616	916.425
236.957	22.688	1182.781	914.889
237.972	22.613	1182.187	913.963
238.986	22.725	1181.027	913.565
240.001	22.843	1181.153	914.191
241.015	22.915	1180.093	913.664
242.030	22.952	1179.335	913.187
243.045	23.247	1178.522	913.998
244.059	23.155	1178.422	913.366
245.074	23.378	1177.442	913.674
246.088	23.423	1177.109	913.569
247.103	23.526	1176.419	913.481
248.117	23.624	1175.510	913.200
249.132	23.897	1175.488	914.505
250.147	24.162	1175.207	915.569
251.161	24.441	1174.601	916.445
252.176	24.411	1173.953	915.709
253.190	24.539	1173.115	915.629
254.205	24.568	1172.711	915.381
255.220	24.575	1172.410	915.103
256.234	24.651	1171.680	914.837
257.249	24.473	1171.103	913.396
258.263	24.395	1170.217	912.229
259.278	24.349	1169.678	911.489
260.293	24.572	1168.785	911.855
261.307	24.490	1168.822	911.381
262.322	24.635	1167.882	911.306
263.336	24.549	1167.019	910.115
264.351	24.490	1166.718	909.497
265.366	24.416	1166.154	908.601
266.380	24.540	1165.111	908.341
267.395	24.461	1164.572	907.437
268.409	24.344	1163.423	905.870
269.424	24.215	1162.790	904.643
270.439	24.170	1162.317	903.966
271.453	24.122	1161.703	903.162
272.468	24.013	1159.937	901.156
273.482	23.978	1159.468	900.538
274.497	23.827	1159.516	899.731
275.512	23.908	1158.060	898.930
276.526	23.793	1158.169	898.352
277.541	23.897	1156.951	897.853
278.555	24.113	1156.621	898.611
279.570	24.380	1156.134	899.501
280.585	24.647	1155.430	900.215
281.599	24.484	1154.656	898.713
282.614	24.283	1153.047	896.369
283.628	24.080	1151.920	894.397
284.643	24.006	1151.110	893.314
285.657	23.984	1150.261	892.466
286.672	24.002	1149.464	891.862
287.687	24.148	1148.435	891.717
288.701	24.037	1148.253	890.940
289.716	24.027	1147.318	890.087
290.730	24.044	1146.576	889.516
291.745	24.259	1145.705	889.836
292.760	24.121	1145.089	888.589
293.774	24.206	1145.376	889.155
294.789	24.465	1144.729	889.868
295.803	24.407	1144.104	889.015
296.818	24.143	1143.050	886.800
297.833	24.063	1142.384	885.806
298.847	24.116	1141.180	885.059
299.862	24.056	1140.541	884.187
300.876	24.101	1139.645	883.640
301.891	24.196	1139.364	883.814
302.906	24.484	1138.846	884.759
303.920	24.668	1138.618	885.419
304.935	24.624	1138.443	884.983
305.949	24.737	1137.608	884.819
306.964	24.841	1136.911	884.710
307.979	24.635	1135.855	882.794
308.993	24.528	1134.845	881.400
310.008	24.579	1134.246	881.112
311.022	24.706	1133.521	881.094
312.037	24.706	1132.699	880.378
313.052	24.445	1131.572	878.138
314.066	24.258	1130.482	876.295
315.081	24.029	1129.465	874.305
316.095	23.823	1128.298	872.317
317.110	23.822	1128.242	872.191
318.125	23.938	1127.561	872.153
319.139	23.881	1126.519	870.992
320.154	23.911	1126.239	870.843
321.168	23.906	1125.645	870.283
322.183	23.956	1125.005	869.957
323.197	24.004	1124.657	869.845
324.212	23.999	1124.062	869.287
325.227	24.038	1123.732	869.143
326.241	24.135	1122.938	868.925
327.256	24.181	1121.624	868.055
328.270	24.097	1120.861	866.980
329.285	23.967	1120.569	866.044
330.300	24.059	1119.098	865.278
331.314	23.918	1118.677	864.193
332.329	23.970	1117.437	863.407
333.343	23.997	1116.840	863.000
334.358	24.264	1116.175	863.705
335.373	24.452	1115.823	864.268
336.387	24.381	1115.181	863.348
337.402	24.628	1114.327	863.805
338.416	24.423	1114.331	862.742
339.431	24.666	1113.570	863.251
340.446	24.867	1113.106	863.783
341.460	25.123	1112.959	864.828
342.475	25.242	1112.079	864.643
343.489	25.133	1111.392	863.506
344.504	25.283	1110.202	863.228
345.519	25.208	1109.574	862.301
346.533	25.203	1109.060	861.800
347.548	25.395	1107.917	861.757
348.562	25.131	1107.305	859.940
349.577	24.820	1105.939	857.313
350.592	24.585	1104.810	855.238
351.606	24.515	1103.736	853.994
352.621	24.342	1103.102	852.604
353.635	24.264	1102.589	851.758
354.650	24.176	1102.072	850.864
355.665	24.468	1101.110	851.439
356.679	24.588	1100.979	851.832
357.694	24.552	1100.470	851.194
358.708	24.637	1099.848	851.040
359.723	24.770	1099.139	851.049
360.738	24.717	1098.817	850.475
361.752	24.751	1097.749	849.735
362.767	24.853	1097.053	849.605
363.781	24.618	1097.133	848.474
364.796	24.942	1096.569	849.500
365.810	25.361	1096.210	851.134
366.825	25.249	1096.524	850.772
367.840	25.397	1096.015	851.003
368.854	25.669	1094.680	851.179
369.869	25.604	1093.933	850.216
370.883	25.315	1093.162	848.176
371.898	25.124	1092.464	846.657
372.913	25.054	1091.895	845.808
373.927	25.095	1091.096	845.311
374.942	25.330	1090.789	846.103
375.956	25.414	1090.110	845.899
376.971	25.141	1089.740	844.250
377.986	25.294	1088.988	844.312
379.000	25.513	1088.942	845.230
380.015	25.581	1088.309	844.985
381.029	25.678	1087.594	844.813
382.044	25.592	1086.945	843.832
383.059	25.622	1086.239	843.348
384.073	25.397	1085.503	841.647
385.088	25.526	1084.473	841.377
386.102	25.481	1083.941	840.679
387.117	25.221	1082.461	838.242
388.132	24.972	1081.427	836.207
389.146	24.973	1080.605	835.502
390.161	24.826	1079.940	834.230
391.175	24.884	1079.325	833.951
392.190	25.091	1078.757	834.398
393.205	25.454	1077.943	835.383
394.219	25.401	1077.408	834.649
395.234	25.092	1076.387	832.348
396.248	25.030	1075.197	831.068
397.263	24.896	1073.974	829.427
398.278	24.902	1073.440	828.971
399.292	24.854	1072.962	828.308
400.307	24.910	1072.243	827.937
401.321	24.709	1071.715	826.528
402.336	24.525	1070.868	824.949
403.350	24.657	1069.795	824.662
404.365	24.757	1069.772	825.030
405.380	25.037	1069.248	825.845
406.394	25.022	1068.397	825.045
407.409	25.224	1068.157	825.719
408.423	25.466	1067.613	826.336
409.438	25.690	1066.796	826.660
410.453	25.652	1066.487	826.172
411.467	25.690	1065.700	825.665
412.482	25.689	1065.132	825.146
413.496	25.801	1064.432	825.044
414.511	25.852	1063.870	824.769
415.526	25.966	1063.516	824.942
416.540	25.990	1063.228	824.758
417.555	26.024	1062.678	824.413
418.569	25.804	1061.877	822.712
419.584	25.917	1061.279	822.691
420.599	25.707	1060.994	821.442
421.613	155.032	1404.624	1795.477
422.628	142.522	1454.692	1795.581
