DTS Sentinel unit serial number:	SN413079Multiplexer serial number:	ORYXHardware model number:	OX4-SRSoftware version number:	ORYX F/W v4.00 Oryx Data Collector v3.7.2.0data status	okinstallation	princeton_trtdifferential loss correction	single-endedforward channel	channel 2reverse channel	N/Adate	2019/09/11time	03:17:10forward acquisition time	60.00reverse acquisition time	0.00gamma	496.2192k internal	0.2330k external	0.2330temperature offset calibration	0.9941default loss term (dB/km)	0.3790temperature slope calibration	1.0000multiplexer offset coefficient	1.0000multiplexer slope coefficient	1.0000fibre end	0.00T internal ref (°C)	29.37T ext. ref 1 (°C)	-0.30T ext. ref 2 (°C)	24.10length (m)	temperature (°C)	Stokes	anti-Stokes-747.200	-42.861	0.143	0.073
-746.185	26.759	0.050	0.042
-745.171	678.845	0.085	0.224
-744.156	-36.452	0.112	-0.061
-743.142	-95.023	0.363	-0.099
-742.127	-200.000	-0.072	-0.320
-741.112	-132.024	-0.086	0.011
-740.098	-200.000	-0.001	0.166
-739.083	-187.247	0.279	0.004
-738.069	-89.746	-0.130	-0.038
-737.054	-1.657	-0.139	0.099
-736.039	-110.080	0.276	0.058
-735.025	448.785	-0.067	-0.149
-734.010	-31.535	-0.166	0.094
-732.996	-77.043	0.010	-0.003
-731.981	-71.081	-0.067	0.025
-730.966	130.518	-0.153	0.198
-729.952	142.910	-0.372	0.498
-728.937	82.028	-0.213	0.232
-727.923	-143.565	-0.300	-0.029
-726.908	-118.427	-0.407	-0.073
-725.894	-33.638	-0.107	0.060
-724.879	-80.617	-0.104	0.035
-723.864	-200.000	-0.047	0.277
-722.850	45.973	0.159	-0.148
-721.835	312.909	-0.116	0.219
-720.821	-44.308	-0.103	0.052
-719.806	4.154	-0.254	0.187
-718.791	3.153	0.223	0.163
-717.777	-123.697	-0.092	-0.015
-716.762	-113.661	0.182	0.036
-715.748	-200.000	0.005	0.131
-714.733	-84.100	-0.203	0.065
-713.718	-49.327	0.361	-0.173
-712.704	-141.078	0.268	-0.028
-711.689	63.007	-0.089	0.090
-710.675	39.955	-0.179	-0.161
-709.660	-123.637	-0.053	-0.008
-708.645	-35.290	0.098	0.054
-707.631	-123.237	-0.245	-0.039
-706.616	-200.000	-0.015	-0.182
-705.602	-22.592	0.141	0.086
-704.587	263.003	-0.066	-0.115
-703.572	-25.378	0.185	0.110
-702.558	-72.782	0.409	-0.151
-701.543	-200.000	-0.007	0.082
-700.529	-25.565	0.140	-0.083
-699.514	800.000	0.043	-0.127
-698.499	-45.244	0.067	-0.034
-697.485	448.789	0.081	-0.180
-696.470	-200.000	0.040	-0.431
-695.456	-200.000	0.002	-0.102
-694.441	-200.000	-0.043	-0.353
-693.426	721.065	0.055	-0.148
-692.412	-51.751	-0.389	-0.182
-691.397	-22.132	0.325	0.198
-690.383	-102.242	-0.237	-0.057
-689.368	104.034	0.150	0.178
-688.354	394.692	-0.097	-0.204
-687.339	-86.339	-0.160	-0.050
-686.324	-200.000	0.008	0.110
-685.310	-10.643	-0.063	-0.042
-684.295	-77.235	-0.194	-0.068
-683.281	-12.442	-0.232	-0.152
-682.266	-108.649	0.067	-0.014
-681.251	-150.332	0.182	0.014
-680.237	-50.876	-0.271	-0.128
-679.222	-200.000	0.045	-0.230
-678.208	466.957	-0.141	-0.318
-677.193	116.452	-0.261	-0.322
-676.178	-17.416	0.333	-0.210
-675.164	6.375	0.193	0.144
-674.149	-126.914	-0.091	0.013
-673.135	384.074	-0.163	-0.336
-672.120	321.311	0.112	-0.213
-671.105	-108.017	-0.205	0.045
-670.091	97.471	-0.090	0.104
-669.076	-65.275	0.322	0.130
-668.062	68.547	0.133	0.137
-667.047	165.840	0.161	0.229
-666.032	514.717	0.185	0.433
-665.018	-102.527	-0.260	0.062
-664.003	-97.898	0.173	-0.045
-662.989	62.708	-0.326	0.327
-661.974	586.884	-0.028	-0.068
-660.959	415.263	-0.081	-0.172
-659.945	-200.000	0.008	-0.253
-658.930	-57.702	-0.201	0.088
-657.916	98.335	0.070	0.081
-656.901	-52.954	-0.112	0.052
-655.886	-103.317	-0.114	-0.027
-654.872	76.579	-0.031	-0.033
-653.857	529.675	0.123	-0.291
-652.843	-3.149	-0.046	-0.032
-651.828	25.523	0.132	-0.110
-650.814	-7.195	0.312	-0.213
-649.799	-54.911	0.259	0.117
-648.784	800.000	-0.024	0.096
-647.770	476.048	0.179	-0.406
-646.755	92.891	0.077	-0.087
-645.741	10.846	0.071	-0.054
-644.726	-145.283	-0.209	0.019
-643.711	-139.415	-0.115	0.012
-642.697	-77.237	-0.171	-0.060
-641.682	-66.020	-0.298	-0.119
-640.668	-98.126	0.079	-0.020
-639.653	26.983	-0.238	-0.201
-638.638	-45.746	0.173	-0.086
-637.624	93.287	0.141	-0.160
-636.609	392.114	-0.095	-0.197
-635.595	-200.000	0.024	-0.210
-634.580	139.949	0.075	-0.099
-633.565	148.135	-0.102	0.138
-632.551	800.000	-0.100	-0.301
-631.536	-15.679	-0.362	0.232
-630.522	219.476	0.201	-0.322
-629.507	25.564	0.123	0.103
-628.492	-45.967	-0.290	0.143
-627.478	-42.278	-0.141	0.072
-626.463	-200.000	0.000	-0.262
-625.449	-200.000	-0.053	0.239
-624.434	-139.262	-0.078	-0.008
-623.419	-200.000	-0.001	-0.126
-622.405	686.423	-0.096	0.252
-621.390	-12.764	0.202	-0.132
-620.376	66.447	0.062	0.063
-619.361	0.747	-0.107	0.077
-618.346	-7.387	-0.297	-0.201
-617.332	291.140	-0.192	-0.350
-616.317	139.661	-0.150	-0.199
-615.303	800.000	-0.058	-0.229
-614.288	-40.226	-0.208	-0.109
-613.273	137.939	-0.093	0.123
-612.259	-200.000	0.372	-0.001
-611.244	185.452	-0.142	0.211
-610.230	-10.193	-0.259	0.172
-609.215	-103.034	0.349	0.083
-608.201	262.561	0.125	-0.218
-607.186	289.959	0.112	0.204
-606.171	-9.130	0.065	0.044
-605.157	-200.000	0.045	-0.259
-604.142	-194.587	0.280	0.002
-603.128	30.710	0.122	0.105
-602.113	2.907	-0.255	0.185
-601.098	256.454	-0.052	-0.089
-600.084	158.998	-0.272	-0.379
-599.069	492.215	0.007	-0.017
-598.055	-3.504	-0.184	0.128
-597.040	800.000	0.061	0.254
-596.025	-175.716	0.099	-0.003
-595.011	-200.000	0.016	-0.241
-593.996	-128.803	0.524	0.074
-592.982	519.794	-0.114	0.268
-591.967	-166.514	-0.121	-0.005
-590.952	-41.238	-0.370	-0.191
-589.938	756.552	-0.097	-0.262
-588.923	-47.699	-0.164	0.080
-587.909	-53.127	0.231	0.106
-586.894	-43.951	-0.180	0.091
-585.879	63.876	0.249	-0.251
-584.865	-98.867	0.237	-0.060
-583.850	65.910	-0.094	-0.095
-582.836	97.279	-0.158	0.181
-581.821	800.000	0.095	0.330
-580.806	108.768	-0.346	0.414
-579.792	28.485	0.149	0.126
-578.777	-20.344	-0.249	-0.153
-577.763	-148.867	-0.282	-0.023
-576.748	385.075	-0.090	-0.185
-575.733	499.478	-0.158	-0.364
-574.719	-117.272	0.277	0.050
-573.704	800.000	-0.077	-0.226
-572.690	157.845	0.074	-0.103
-571.675	316.873	0.137	-0.258
-570.661	296.829	-0.052	-0.096
-569.646	474.513	0.148	-0.333
-568.631	-154.107	-0.045	0.003
-567.617	147.102	0.311	0.419
-566.602	-116.105	0.384	-0.071
-565.588	512.792	0.013	0.031
-564.573	69.975	0.075	-0.077
-563.558	210.672	0.210	0.330
-562.544	71.243	-0.108	0.112
-561.529	-155.918	-0.193	0.012
-560.515	253.782	-0.021	0.035
-559.500	-200.000	-0.015	-0.084
-558.485	-6.268	-0.387	0.264
-557.471	-104.577	0.078	0.018
-556.456	-91.641	0.152	0.043
-555.442	72.202	0.354	-0.369
-554.427	800.000	0.038	-0.139
-553.412	31.958	-0.290	0.250
-552.398	800.000	0.117	-0.395
-551.383	-200.000	0.005	-0.194
-550.369	-200.000	0.393	0.002
-549.354	-128.263	-0.208	0.030
-548.339	-96.593	-0.513	-0.135
-547.325	196.994	-0.130	0.198
-546.310	95.779	0.046	0.052
-545.296	71.373	-0.045	0.047
-544.281	155.221	0.124	0.170
-543.266	800.000	-0.044	-0.191
-542.252	47.299	0.147	-0.137
-541.237	-55.378	-0.124	-0.056
-540.223	-102.308	0.095	0.023
-539.208	-57.034	-0.129	-0.057
-538.193	-200.000	-0.013	-0.064
-537.179	-37.887	0.107	-0.057
-536.164	258.902	0.275	-0.474
-535.150	145.337	0.151	-0.202
-534.135	-98.004	-0.256	0.066
-533.121	101.459	-0.111	-0.129
-532.106	-52.652	-0.061	0.028
-531.091	-200.000	0.018	0.208
-530.077	-65.534	-0.230	-0.092
-529.062	-3.445	-0.205	0.143
-528.048	-77.870	0.255	-0.088
-527.033	-70.137	0.189	0.072
-526.018	-116.382	-0.210	0.039
-525.004	548.836	-0.095	-0.228
-523.989	-193.447	0.313	-0.003
-522.975	-129.834	-0.550	-0.075
-521.960	800.000	-0.035	-0.148
-520.945	190.107	0.040	0.060
-519.931	648.794	0.023	-0.058
-518.916	-30.974	-0.365	0.206
-517.902	-200.000	0.000	0.157
-516.887	317.565	-0.117	0.221
-515.872	800.000	-0.074	0.209
-514.858	-30.536	-0.097	-0.055
-513.843	-156.293	0.190	-0.012
-512.829	496.751	-0.018	-0.042
-511.814	-39.060	-0.294	0.154
-510.799	32.499	0.177	0.152
-509.785	-155.809	-0.179	0.011
-508.770	223.785	0.148	0.239
-507.756	-60.054	-0.298	-0.127
-506.741	-60.951	-0.380	0.160
-505.726	593.574	0.266	-0.655
-504.712	87.268	0.293	0.323
-503.697	-117.875	0.216	0.039
-502.683	16.889	0.196	0.155
-501.668	68.290	0.208	0.212
-500.653	475.411	0.126	0.284
-499.639	800.000	0.161	-0.447
-498.624	-50.737	-0.045	-0.021
-497.610	-200.000	-0.040	-0.511
-496.595	-200.000	-0.039	-0.207
-495.581	-200.000	-0.032	-0.552
-494.566	-200.000	0.026	0.123
-493.551	1.385	0.190	-0.136
-492.537	800.000	-0.051	-0.189
-491.522	-155.531	-0.244	0.016
-490.508	-200.000	-0.021	0.475
-489.493	-142.977	0.343	-0.033
-488.478	205.605	0.042	0.066
-487.464	-177.941	-0.223	0.005
-486.449	247.430	-0.131	-0.220
-485.435	-83.443	-0.179	0.057
-484.420	800.000	-0.075	0.299
-483.405	-96.681	0.152	-0.040
-482.391	-132.695	0.272	-0.035
-481.376	800.000	0.074	-0.293
-480.362	-200.000	-0.018	-0.180
-479.347	277.137	-0.159	0.282
-478.332	39.551	-0.329	-0.294
-477.318	-50.610	-0.181	-0.085
-476.303	-200.000	0.010	0.395
-475.289	-200.000	0.014	-0.084
-474.274	558.798	0.089	-0.213
-473.259	246.190	-0.179	-0.300
-472.245	254.686	-0.112	-0.192
-471.230	-43.691	-0.062	-0.031
-470.216	45.175	-0.134	0.123
-469.201	323.049	-0.080	-0.151
-468.186	800.000	-0.065	-0.226
-467.172	18.859	0.171	0.137
-466.157	-200.000	0.005	0.151
-465.143	800.000	0.043	0.134
-464.128	800.000	0.089	0.361
-463.113	800.000	0.025	-0.088
-462.099	28.226	-0.071	0.059
-461.084	-131.183	-0.286	0.038
-460.070	78.852	0.051	0.055
-459.055	49.703	0.322	-0.302
-458.040	141.331	-0.109	0.143
-457.026	-103.032	-0.432	0.102
-456.011	-109.063	0.349	0.074
-454.997	-86.254	-0.471	-0.144
-453.982	88.123	0.265	-0.293
-452.968	-200.000	0.048	0.275
-451.953	-133.496	0.117	0.015
-450.938	800.000	-0.073	-0.232
-449.924	-92.445	0.239	-0.067
-448.909	134.043	-0.231	-0.298
-447.895	-200.000	-0.009	0.421
-446.880	-200.000	0.053	0.434
-445.865	-147.038	-0.196	0.017
-444.851	109.926	0.203	-0.242
-443.836	-200.000	-0.053	0.314
-442.822	-122.618	0.219	-0.035
-441.807	2.255	0.149	0.107
-440.792	-161.643	0.033	-0.002
-439.778	-69.502	0.085	0.032
-438.763	-89.341	-0.097	0.028
-437.749	-200.000	0.029	-0.315
-436.734	-3.430	-0.148	-0.102
-435.719	66.891	-0.047	0.048
-434.705	-101.948	0.243	-0.058
-433.690	151.466	-0.127	0.172
-432.676	-39.310	-0.049	0.026
-431.661	-102.314	0.092	-0.022
-430.646	800.000	0.027	-0.101
-429.632	5.920	0.097	0.072
-428.617	382.704	0.044	0.089
-427.603	-70.462	0.093	-0.035
-426.588	236.751	-0.039	0.063
-425.573	-200.000	-0.045	-0.249
-424.559	106.511	0.218	-0.258
-423.544	-43.456	-0.268	-0.135
-422.530	-200.000	-0.005	-0.074
-421.515	258.630	-0.237	0.406
-420.500	17.653	0.095	0.075
-419.486	43.871	0.226	0.206
-418.471	800.000	-0.062	0.243
-417.457	136.114	-0.023	0.029
-416.442	-4.958	-0.234	0.160
-415.428	800.000	-0.074	0.309
-414.413	12.756	0.217	-0.166
-413.398	-200.000	-0.047	-0.531
-412.384	-145.265	0.275	0.025
-411.369	-13.290	-0.091	-0.058
-410.355	-200.000	0.005	0.287
-409.340	-143.360	0.519	-0.049
-408.325	104.085	-0.296	0.346
-407.311	279.367	0.110	-0.196
-406.296	-113.458	-0.216	-0.042
-405.282	-97.395	0.101	0.026
-404.267	780.481	0.061	-0.165
-403.252	-200.000	-0.008	-0.117
-402.238	800.000	0.013	0.039
-401.223	222.793	0.238	0.381
-400.209	-175.021	-0.202	0.006
-399.194	11.756	-0.160	-0.122
-398.179	-10.720	-0.125	0.082
-397.165	122.548	-0.158	0.196
-396.150	-85.022	0.153	0.048
-395.136	73.092	-0.226	-0.235
-394.121	-200.000	-0.027	-0.300
-393.106	295.348	0.123	0.223
-392.092	-98.839	-0.165	-0.042
-391.077	127.171	-0.184	0.232
-390.063	397.945	-0.141	-0.294
-389.048	35.148	-0.141	-0.123
-388.033	-93.183	-0.249	0.069
-387.019	800.000	-0.102	0.377
-386.004	291.300	0.230	-0.416
-384.990	0.074	0.148	0.105
-383.975	-37.589	-0.301	-0.159
-382.960	800.000	0.124	-0.504
-381.946	181.518	0.057	0.083
-380.931	306.615	-0.218	-0.404
-379.917	-200.000	0.034	-0.266
-378.902	41.114	-0.220	0.197
-377.888	-15.392	0.248	0.158
-376.873	2.538	-0.134	-0.096
-375.858	69.700	0.188	-0.193
-374.844	50.792	0.164	0.154
-373.829	800.000	0.092	0.274
-372.815	-200.000	-0.027	-0.482
-371.800	-200.000	-0.060	-0.297
-370.785	-80.988	-0.096	0.031
-369.771	-77.282	0.104	0.036
-368.756	22.172	0.343	0.278
-367.742	168.523	-0.112	0.159
-366.727	800.000	0.086	-0.321
-365.712	60.797	0.182	-0.179
-364.698	-200.000	0.046	-0.257
-363.683	32.056	0.236	0.202
-362.669	800.000	-0.113	0.401
-361.654	-38.441	-0.215	0.113
-360.639	-200.000	-0.038	-0.194
-359.625	301.717	0.224	0.411
-358.610	33.480	0.198	0.171
-357.596	2.369	-0.053	0.038
-356.581	-73.379	-0.090	0.033
-355.566	-104.409	0.116	-0.027
-354.552	-101.049	0.170	0.041
-353.537	113.971	0.189	-0.228
-352.523	170.429	0.235	0.334
-351.508	85.061	-0.038	-0.042
-350.493	578.356	-0.066	0.160
-349.479	800.000	0.080	-0.238
-348.464	332.224	-0.032	-0.061
-347.450	-200.000	-0.005	0.042
-346.435	800.000	-0.106	0.329
-345.420	551.951	-0.105	0.249
-344.406	150.862	0.069	-0.094
-343.391	797.693	0.121	-0.331
-342.377	-73.776	0.191	-0.069
-341.362	800.000	-0.045	0.194
-340.348	800.000	-0.054	0.207
-339.333	800.000	0.085	0.254
-338.318	67.502	-0.165	0.167
-337.304	-41.073	0.096	-0.049
-336.289	-26.928	-0.152	-0.088
-335.275	231.596	-0.085	0.138
-334.260	194.545	0.064	-0.096
-333.245	179.115	-0.147	-0.214
-332.231	-200.000	0.054	0.248
-331.216	-58.214	0.341	-0.147
-330.202	14.217	0.065	-0.050
-329.187	30.060	0.168	-0.142
-328.172	-120.937	-0.065	0.011
-327.158	800.000	0.056	-0.210
-326.143	174.028	-0.143	0.205
-325.129	160.122	0.243	0.335
-324.114	-29.566	-0.226	0.128
-323.099	800.000	-0.136	0.438
-322.085	120.183	-0.128	0.157
-321.070	-118.079	0.438	-0.077
-320.056	-6.697	-0.268	-0.180
-319.041	800.000	0.038	-0.154
-318.026	-23.353	-0.128	0.076
-317.012	61.699	0.052	-0.051
-315.997	69.417	0.098	0.100
-314.983	-115.849	-0.334	0.062
-313.968	-68.777	0.101	0.039
-312.953	-200.000	0.041	0.210
-311.939	374.750	0.083	0.168
-310.924	-142.898	0.316	0.030
-309.910	4.628	0.080	0.058
-308.895	-118.179	0.130	-0.023
-307.880	-99.167	-0.450	-0.113
-306.866	214.992	0.082	-0.129
-305.851	64.600	0.088	-0.088
-304.837	-123.414	-0.114	-0.018
-303.822	426.387	0.123	-0.262
-302.807	-129.703	0.208	-0.028
-301.793	-200.000	-0.020	-0.144
-300.778	-133.209	-0.315	0.039
-299.764	-63.325	0.139	-0.057
-298.749	800.000	0.058	-0.175
-297.735	-195.660	-0.290	-0.002
-296.720	169.407	-0.225	0.318
-295.705	-200.000	-0.041	-0.199
-294.691	97.813	-0.075	0.086
-293.676	608.810	-0.137	0.338
-292.662	-200.000	0.024	0.274
-291.647	652.247	0.133	0.337
-290.632	43.643	-0.231	0.209
-289.618	59.789	0.046	0.045
-288.603	-43.159	-0.194	-0.097
-287.589	-26.163	0.336	-0.195
-286.574	302.989	0.210	-0.384
-285.559	698.643	0.174	-0.452
-284.545	-129.206	0.190	0.026
-283.530	-200.000	-0.081	-0.503
-282.516	25.121	0.188	0.155
-281.501	230.246	0.036	-0.058
-280.486	296.782	0.132	0.240
-279.472	-200.000	0.023	-0.237
-278.457	-200.000	0.002	0.162
-277.443	234.881	0.147	-0.239
-276.428	-69.603	-0.145	0.055
-275.413	154.083	-0.109	-0.148
-274.399	151.876	-0.286	-0.386
-273.384	530.337	-0.117	-0.273
-272.370	203.127	0.105	-0.160
-271.355	800.000	-0.018	-0.061
-270.340	353.199	0.118	0.231
-269.326	-4.321	-0.307	0.210
-268.311	665.959	-0.054	0.138
-267.297	693.932	-0.141	0.366
-266.282	186.104	0.138	0.203
-265.267	706.922	0.055	-0.143
-264.253	-36.339	-0.165	0.088
-263.238	-6.823	0.167	-0.112
-262.224	158.096	-0.142	-0.195
-261.209	107.090	0.024	0.028
-260.195	-169.608	0.348	-0.012
-259.180	78.299	0.121	-0.128
-258.165	800.000	-0.085	-0.320
-257.151	-87.925	0.052	-0.015
-256.136	-200.000	-0.007	-0.061
-255.122	135.004	0.093	0.119
-254.107	40.340	-0.332	-0.295
-253.092	-118.296	-0.068	-0.012
-252.078	800.000	0.053	0.180
-251.063	306.585	0.202	-0.371
-250.049	-88.407	-0.399	0.118
-249.034	-169.871	0.155	-0.005
-248.019	69.177	-0.229	0.233
-247.005	-2.304	0.178	-0.123
-245.990	800.000	-0.047	0.143
-244.976	800.000	-0.023	-0.068
-243.961	800.000	0.159	0.458
-242.946	-200.000	0.060	0.259
-241.932	-114.731	0.093	0.018
-240.917	-23.292	0.383	0.227
-239.903	33.683	0.235	0.202
-238.888	-16.379	-0.098	0.061
-237.873	-133.191	-0.187	0.023
-236.859	48.376	0.106	0.098
-235.844	-49.979	0.178	-0.084
-234.830	15.536	-0.214	0.166
-233.815	-92.912	0.221	0.061
-232.800	82.014	0.147	-0.157
-231.786	800.000	0.091	0.298
-230.771	-55.950	0.231	-0.102
-229.757	18.435	-0.086	0.068
-228.742	90.092	0.178	0.196
-227.727	46.784	-0.136	0.124
-226.713	78.361	0.112	-0.118
-225.698	20.759	0.338	0.270
-224.684	-79.928	-0.079	0.026
-223.669	-100.216	0.174	-0.043
-222.655	-200.000	0.069	-0.355
-221.640	263.034	0.174	0.298
-220.625	-114.011	0.237	-0.045
-219.611	333.671	0.185	0.353
-218.596	213.918	-0.043	-0.067
-217.582	800.000	0.042	0.137
-216.567	320.335	-0.030	-0.056
-215.552	-200.000	-0.004	0.224
-214.538	250.822	0.116	0.195
-213.523	-200.000	-0.015	0.110
-212.509	77.232	-0.092	0.097
-211.494	-120.044	0.105	0.018
-210.479	34.330	0.112	0.096
-209.465	62.084	0.085	0.083
-208.450	76.335	0.229	0.239
-207.436	-52.550	0.157	-0.071
-206.421	530.367	0.130	-0.303
-205.406	240.186	-0.068	0.113
-204.392	-5.228	0.254	0.172
-203.377	-159.024	-0.225	0.013
-202.363	346.712	0.125	0.242
-201.348	-33.165	-0.506	0.276
-200.333	380.491	-0.161	-0.326
-199.319	-200.000	0.004	0.155
-198.304	-14.524	-0.188	-0.119
-197.290	-107.285	-0.250	-0.054
-196.275	-156.165	-0.157	0.010
-195.260	-147.491	0.139	-0.012
-194.246	-11.685	-0.374	0.242
-193.231	434.986	0.060	0.127
-192.217	93.453	0.190	0.212
-191.202	-109.915	0.314	0.065
-190.187	-200.000	0.044	0.195
-189.173	53.805	0.086	-0.081
-188.158	-120.510	-0.168	0.028
-187.144	-89.691	-0.103	0.030
-186.129	800.000	0.117	0.418
-185.114	338.884	0.042	0.080
-184.100	505.931	0.146	-0.333
-183.085	82.711	0.062	0.067
-182.071	-119.020	0.177	-0.031
-181.056	800.000	-0.068	0.231
-180.042	-200.000	0.043	0.225
-179.027	-200.000	0.012	0.303
-178.012	800.000	-0.068	0.260
-176.998	-135.825	0.332	-0.039
-175.983	318.780	0.099	0.185
-174.969	-71.517	0.093	0.034
-173.954	58.849	-0.295	0.286
-172.939	-78.670	0.081	0.027
-171.925	96.251	-0.426	-0.480
-170.910	39.235	0.171	-0.151
-169.896	26.407	-0.130	-0.107
-168.881	615.711	-0.130	-0.320
-167.866	-105.378	0.199	0.045
-166.852	-29.239	-0.366	0.206
-165.837	51.724	-0.207	0.194
-164.823	-74.692	-0.348	-0.123
-163.808	800.000	0.030	-0.121
-162.793	-50.606	0.137	-0.064
-161.779	-29.520	0.287	-0.161
-160.764	-20.514	-0.181	-0.109
-159.750	30.521	-0.129	-0.108
-158.735	7.877	-0.130	0.096
-157.720	800.000	0.041	-0.167
-156.706	-29.580	0.103	0.058
-155.691	-200.000	-0.007	-0.257
-154.677	-200.000	-0.040	-0.256
-153.662	-170.690	-0.209	0.007
-152.647	-200.000	0.002	0.091
-151.633	101.746	-0.066	-0.075
-150.618	-200.000	0.017	0.268
-149.604	404.468	0.097	0.201
-148.589	508.862	0.094	0.215
-147.574	800.000	0.035	-0.097
-146.560	-200.000	-0.011	0.131
-145.545	-123.765	0.418	-0.065
-144.531	-152.514	-0.413	-0.029
-143.516	800.000	-0.041	0.130
-142.502	6.640	-0.206	-0.151
-141.487	25.092	-0.114	0.093
-140.472	800.000	-0.141	-0.437
-139.458	800.000	-0.094	-0.268
-138.443	800.000	-0.125	-0.362
-137.429	88.447	-0.154	0.169
-136.414	800.000	-0.082	0.228
-135.399	-200.000	-0.022	0.151
-134.385	16.111	-0.104	-0.080
-133.370	-200.000	0.035	-0.229
-132.356	800.000	0.049	-0.136
-131.341	450.951	0.076	0.165
-130.326	747.512	0.067	-0.178
-129.312	8.543	0.230	0.171
-128.297	-200.000	0.031	0.227
-127.283	1.799	0.279	-0.198
-126.268	-82.336	-0.212	0.068
-125.253	800.000	-0.073	0.215
-124.239	36.663	0.171	0.149
-123.224	-200.000	0.443	-0.002
-122.210	243.375	0.200	0.329
-121.195	35.340	0.301	0.260
-120.180	16.525	-0.188	0.146
-119.166	64.346	-0.098	0.097
-118.151	-105.057	-0.253	-0.057
-117.137	800.000	0.014	-0.050
-116.122	-38.786	-0.134	-0.069
-115.107	41.533	-0.129	0.114
-114.093	178.572	0.077	-0.110
-113.078	-90.010	0.125	-0.036
-112.064	-200.000	-0.024	-0.166
-111.049	321.669	0.094	-0.176
-110.034	-99.572	0.337	-0.083
-109.020	-0.835	-0.080	0.056
-108.005	-200.000	-0.032	0.349
-106.991	-84.969	-0.247	-0.076
-105.976	525.610	-0.112	0.258
-104.962	-81.395	0.305	0.099
-103.947	-104.348	0.118	0.027
-102.932	-84.554	-0.279	0.086
-101.918	20.863	0.281	-0.224
-100.903	-62.365	0.271	-0.111
-99.889	76.188	-0.056	0.059
-98.874	211.744	-0.131	0.203
-97.859	-200.000	0.006	0.310
-96.845	-22.815	0.295	-0.175
-95.830	121.752	-0.079	0.097
-94.816	-8.511	-0.170	-0.112
-93.801	-200.000	0.006	-0.381
-92.786	481.137	-0.170	0.379
-91.772	-20.619	0.017	-0.010
-90.757	-93.882	0.021	0.006
-89.743	-112.493	0.489	-0.096
-88.728	225.980	0.145	-0.231
-87.713	323.831	0.090	-0.169
-86.699	-31.419	0.260	0.144
-85.684	-128.364	0.165	0.023
-84.670	283.108	0.066	-0.117
-83.655	-200.000	0.006	-0.034
-82.640	-29.533	-0.368	-0.206
-81.626	-39.939	-0.091	0.046
-80.611	764.331	0.069	-0.183
-79.597	99.908	0.123	-0.139
-78.582	-200.000	0.015	0.140
-77.567	-146.210	-0.146	0.013
-76.553	119.291	0.112	0.136
-75.538	100.613	-0.068	0.078
-74.524	-200.000	0.004	-0.338
-73.509	356.563	-0.260	0.507
-72.494	-72.954	0.159	-0.057
-71.480	62.493	0.095	-0.093
-70.465	-125.910	0.221	-0.033
-69.451	37.358	0.138	0.120
-68.436	-100.348	0.332	0.081
-67.422	529.213	-0.136	-0.316
-66.407	-81.643	0.053	-0.017
-65.392	-200.000	-0.002	-0.258
-64.378	-200.000	0.052	0.346
-63.363	-24.310	0.234	-0.137
-62.349	-25.972	0.059	0.034
-61.334	293.414	-0.699	-1.250
-60.319	-5.972	0.425	0.285
-59.305	470.966	-0.530	-1.168
-58.290	185.691	0.680	0.991
-57.276	349.763	0.784	1.517
-56.261	-200.000	105.865	612.258
-55.246	504.528	1510.056	3426.239
-54.232	174.890	2710.272	3845.373
-53.217	104.122	2299.569	2650.517
-52.203	38.526	1903.999	1663.843
-51.188	32.528	1690.363	1431.668
-50.173	29.987	1646.678	1375.766
-49.159	49.147	1700.681	1566.042
-48.144	49.209	1715.856	1580.419
-47.130	32.112	1673.164	1413.741
-46.115	29.422	1659.219	1381.791
-45.100	29.252	1654.136	1376.236
-44.086	29.304	1651.081	1374.025
-43.071	29.190	1648.334	1370.839
-42.057	29.200	1646.076	1368.978
-41.042	29.258	1644.103	1367.712
-40.027	29.287	1642.414	1366.467
-39.013	29.276	1640.281	1364.560
-37.998	29.220	1638.769	1362.832
-36.984	29.256	1637.572	1362.050
-35.969	29.344	1636.026	1361.358
-34.954	29.386	1634.338	1360.207
-33.940	29.425	1632.086	1358.569
-32.925	29.492	1630.228	1357.461
-31.911	29.384	1628.660	1355.305
-30.896	29.353	1627.537	1354.088
-29.881	29.360	1625.611	1352.486
-28.867	29.344	1623.943	1350.928
-27.852	29.427	1622.464	1350.249
-26.838	29.367	1621.506	1348.964
-25.823	29.387	1619.787	1347.623
-24.809	29.433	1618.602	1346.921
-23.794	29.397	1617.443	1345.638
-22.779	29.349	1616.098	1344.119
-21.765	29.360	1614.314	1342.662
-20.750	29.249	1612.853	1340.585
-19.736	29.363	1611.371	1340.130
-18.721	29.510	1609.059	1339.220
-17.706	29.450	1608.234	1338.044
-16.692	29.444	1606.752	1336.714
-15.677	29.270	1605.920	1334.709
-14.663	29.406	1604.059	1334.097
-13.648	29.482	1602.558	1333.342
-12.633	29.412	1601.446	1331.859
-11.619	29.378	1599.784	1330.175
-10.604	29.402	1598.405	1329.151
-9.590	29.412	1596.985	1327.986
-8.575	29.397	1596.087	1327.080
-7.560	29.435	1594.769	1326.209
-6.546	29.470	1593.397	1325.267
-5.531	29.360	1592.749	1323.881
-4.517	29.464	1591.220	1323.307
-3.502	29.419	1590.118	1322.013
-2.487	29.451	1588.503	1320.851
-1.473	29.118	1577.081	1308.932
-0.458	26.510	1557.904	1274.625
0.556	20.987	1559.615	1246.162
1.571	18.806	1585.036	1250.499
2.586	18.628	1598.341	1259.581
3.600	16.829	1545.884	1205.351
4.615	8.942	1435.353	1066.789
5.629	1.247	1371.496	970.179
6.644	-0.166	1363.416	955.388
7.659	-0.251	1362.106	953.848
8.673	-0.420	1361.456	952.236
9.688	-0.353	1359.169	950.979
10.702	-0.521	1356.035	947.638
11.717	3.002	1362.916	974.733
12.731	12.436	1380.885	1047.890
13.746	19.705	1392.770	1103.391
14.761	21.408	1395.221	1116.111
15.775	21.782	1395.139	1118.334
16.790	21.902	1394.389	1118.401
17.804	21.985	1393.965	1118.491
18.819	22.229	1393.522	1119.588
19.834	22.272	1392.802	1119.189
20.848	22.276	1392.278	1118.689
21.863	22.392	1391.003	1118.302
22.877	22.161	1390.804	1116.581
23.892	22.294	1389.734	1116.466
24.907	22.313	1388.751	1115.697
25.921	22.230	1388.015	1114.483
26.936	22.265	1387.231	1113.976
27.950	22.306	1386.260	1113.357
28.965	22.305	1384.700	1111.998
29.980	22.335	1383.355	1111.008
30.994	22.346	1382.203	1110.053
32.009	22.325	1381.059	1108.904
33.023	22.288	1380.260	1107.929
34.038	22.367	1378.668	1107.054
35.053	22.369	1378.550	1106.870
36.067	22.350	1376.921	1105.347
37.082	22.264	1376.326	1104.233
38.096	22.276	1375.608	1103.632
39.111	22.319	1374.483	1102.905
40.126	22.312	1374.025	1102.397
41.140	22.404	1373.062	1102.101
42.155	22.319	1373.024	1101.439
43.169	22.308	1373.456	1101.619
44.184	22.287	1372.883	1100.930
45.199	22.278	1372.772	1100.689
46.213	22.262	1371.780	1099.696
47.228	22.316	1370.579	1098.974
48.242	22.315	1369.717	1098.181
49.257	22.356	1368.106	1097.042
50.271	22.223	1367.009	1095.238
51.286	22.192	1365.681	1093.884
52.301	22.262	1364.415	1093.212
53.315	22.270	1363.700	1092.592
54.330	22.242	1362.330	1091.221
55.344	22.227	1361.769	1090.586
56.359	22.318	1360.130	1089.740
57.374	22.274	1359.394	1088.779
58.388	22.341	1358.951	1088.742
59.403	22.322	1358.561	1088.215
60.417	22.348	1357.589	1087.501
61.432	22.295	1357.021	1086.626
62.447	22.392	1355.942	1086.260
63.461	22.286	1355.156	1084.885
64.476	22.209	1354.460	1083.755
65.490	22.336	1353.071	1083.329
66.505	22.393	1350.850	1081.804
67.520	22.348	1350.018	1080.769
68.534	22.250	1349.487	1079.644
69.549	22.381	1347.958	1079.132
70.563	22.320	1347.107	1077.980
71.578	22.256	1346.282	1076.834
72.593	22.387	1344.968	1076.486
73.607	22.307	1344.630	1075.631
74.622	22.341	1343.889	1075.153
75.636	22.358	1343.116	1074.544
76.651	22.372	1342.079	1073.702
77.666	22.248	1341.782	1072.616
78.680	22.257	1341.556	1072.391
79.695	22.300	1340.363	1071.609
80.709	22.267	1339.791	1070.853
81.724	22.423	1338.599	1070.754
82.739	22.234	1337.871	1068.930
83.753	22.344	1336.814	1068.660
84.768	22.277	1336.073	1067.568
85.782	22.442	1334.501	1067.217
86.797	22.385	1333.568	1066.029
87.812	22.298	1332.727	1064.738
88.826	22.344	1331.315	1063.789
89.841	22.281	1330.476	1062.649
90.855	22.303	1329.470	1061.885
91.870	22.245	1328.967	1061.035
92.884	22.386	1327.629	1060.721
93.899	22.405	1326.762	1060.050
94.914	22.352	1325.919	1058.966
95.928	22.391	1325.457	1058.738
96.943	22.421	1324.335	1057.930
97.957	22.392	1323.846	1057.270
98.972	22.377	1322.670	1056.146
99.987	22.446	1321.835	1055.801
101.001	22.316	1320.693	1054.017
102.016	22.444	1319.640	1053.849
103.030	22.422	1318.551	1052.753
104.045	22.351	1318.061	1051.847
105.060	22.342	1317.196	1051.009
106.074	22.423	1315.811	1050.291
107.089	22.457	1314.886	1049.661
108.103	22.400	1313.887	1048.432
109.118	22.417	1313.033	1047.762
110.133	22.410	1311.729	1046.588
111.147	22.462	1310.190	1045.575
112.162	22.513	1308.997	1044.833
113.176	22.445	1307.871	1043.436
114.191	22.510	1307.433	1043.379
115.206	22.501	1306.571	1042.547
116.220	22.509	1305.689	1041.800
117.235	22.500	1304.066	1040.360
118.249	22.430	1303.510	1039.408
119.264	22.357	1302.801	1038.321
120.279	22.529	1301.498	1038.204
121.293	22.547	1300.593	1037.499
122.308	22.589	1299.443	1036.736
123.322	22.453	1299.059	1035.540
124.337	22.580	1297.877	1035.250
125.352	22.549	1296.760	1034.085
126.366	22.555	1295.843	1033.296
127.381	22.472	1295.263	1032.256
128.395	22.535	1294.070	1031.583
129.410	22.574	1293.222	1031.047
130.424	22.509	1292.644	1030.114
131.439	22.508	1291.495	1029.103
132.454	22.438	1291.202	1028.366
133.468	22.566	1290.021	1028.083
134.483	22.477	1289.598	1027.137
135.497	22.481	1288.966	1026.564
136.512	22.554	1287.592	1025.804
137.527	22.424	1286.362	1023.975
138.541	22.443	1285.183	1023.061
139.556	22.413	1283.578	1021.514
140.570	22.551	1282.592	1021.441
141.585	22.440	1281.959	1020.206
142.600	22.463	1280.951	1019.443
143.614	22.386	1280.310	1018.397
144.629	22.489	1278.998	1017.860
145.643	22.311	1278.475	1016.325
146.658	22.398	1276.995	1015.563
147.673	22.463	1275.745	1014.855
148.687	22.337	1275.201	1013.602
149.702	22.418	1273.912	1012.957
150.716	22.340	1272.988	1011.684
151.731	22.360	1272.098	1011.003
152.746	22.523	1270.989	1010.964
153.760	22.460	1269.840	1009.603
154.775	22.557	1268.734	1009.187
155.789	22.550	1267.851	1008.356
156.804	22.484	1267.049	1007.253
157.819	22.553	1266.015	1006.735
158.833	22.507	1265.484	1005.962
159.848	22.489	1264.525	1005.007
160.862	22.463	1263.939	1004.305
161.877	22.511	1262.994	1003.736
162.892	22.500	1262.372	1003.093
163.906	22.557	1261.311	1002.484
164.921	22.643	1260.609	1002.325
165.935	22.579	1259.973	1001.368
166.950	22.674	1259.111	1001.133
167.964	22.558	1258.550	999.940
168.979	22.472	1258.271	999.142
169.994	22.600	1257.878	999.466
171.008	22.605	1256.774	998.532
172.023	22.695	1255.815	998.190
173.037	22.583	1255.300	997.060
174.052	22.644	1254.188	996.432
175.067	22.623	1253.714	995.852
176.081	22.567	1252.640	994.590
177.096	22.613	1252.043	994.290
178.110	22.670	1250.982	993.679
179.125	22.635	1249.765	992.429
180.140	22.620	1248.817	991.505
181.154	22.608	1247.887	990.610
182.169	22.631	1246.730	989.731
183.183	22.690	1245.751	989.197
184.198	22.690	1244.670	988.251
185.213	22.624	1244.013	987.272
186.227	22.714	1243.216	987.057
187.242	22.813	1241.936	986.509
188.256	22.736	1241.058	985.292
189.271	22.792	1240.143	984.790
190.286	22.715	1239.654	983.886
191.300	22.718	1239.390	983.604
192.315	22.655	1238.851	982.741
193.329	22.658	1238.409	982.321
194.344	22.752	1238.187	982.581
195.359	22.636	1237.475	981.285
196.373	22.699	1236.645	980.889
197.388	22.692	1236.194	980.404
198.402	22.699	1235.777	980.029
199.417	22.691	1235.729	979.859
200.432	22.652	1234.532	978.604
201.446	22.732	1233.974	978.522
202.461	22.723	1233.066	977.666
203.475	22.664	1232.784	977.029
204.490	22.669	1231.286	975.782
205.504	22.703	1230.634	975.365
206.519	22.743	1229.577	974.660
207.534	22.695	1228.759	973.666
208.548	22.757	1227.784	973.144
209.563	22.735	1227.006	972.323
210.577	22.775	1226.140	971.768
211.592	22.803	1225.356	971.216
212.607	22.693	1224.824	970.104
213.621	22.716	1223.866	969.389
214.636	22.925	1222.682	969.507
215.650	22.788	1222.371	968.427
216.665	22.786	1221.005	967.248
217.680	22.847	1220.448	967.056
218.694	22.860	1219.633	966.393
219.709	22.833	1219.231	965.841
220.723	22.812	1218.299	964.903
221.738	22.791	1217.575	964.133
222.753	22.739	1217.256	963.509
223.767	22.801	1215.997	962.766
224.782	22.864	1216.040	963.057
225.796	23.021	1215.497	963.396
226.811	23.011	1214.441	962.423
227.826	22.905	1214.014	961.421
228.840	22.881	1213.413	960.727
229.855	22.901	1212.633	960.135
230.869	22.791	1212.292	959.183
231.884	22.936	1211.026	958.885
232.899	22.908	1210.382	958.137
233.913	22.855	1210.157	957.587
234.928	22.966	1209.437	957.533
235.942	23.027	1208.952	957.392
236.957	22.909	1208.610	956.400
237.972	22.912	1207.691	955.602
238.986	22.930	1206.613	954.762
240.001	22.970	1206.151	954.529
241.015	23.195	1205.475	955.123
242.030	23.201	1204.526	954.322
243.045	23.114	1203.852	953.232
244.059	23.028	1202.930	951.957
245.074	22.991	1202.158	951.062
246.088	23.053	1201.422	950.727
247.103	23.052	1201.217	950.478
248.117	23.080	1199.941	949.533
249.132	23.138	1198.578	948.685
250.147	23.077	1198.659	948.335
251.161	23.105	1197.961	947.846
252.176	23.126	1197.059	947.163
253.190	23.178	1196.703	947.074
254.205	23.100	1196.053	946.061
255.220	23.082	1195.539	945.475
256.234	23.224	1194.746	945.521
257.249	23.156	1194.149	944.602
258.263	23.131	1193.507	943.877
259.278	23.151	1193.062	943.549
260.293	23.118	1192.819	943.096
261.307	23.230	1191.826	942.826
262.322	23.239	1191.146	942.251
263.336	23.302	1190.452	941.954
264.351	23.237	1189.896	941.088
265.366	23.148	1189.193	939.977
266.380	23.270	1188.825	940.246
267.395	23.210	1187.818	939.048
268.409	23.153	1187.265	938.227
269.424	23.292	1186.595	938.352
270.439	23.199	1186.433	937.647
271.453	23.266	1185.763	937.391
272.468	23.291	1184.805	936.683
273.482	23.267	1183.997	935.831
274.497	23.183	1184.491	935.694
275.512	23.296	1182.972	935.012
276.526	23.306	1182.544	934.644
277.541	23.280	1181.872	933.893
278.555	23.413	1181.030	933.844
279.570	23.496	1180.021	933.399
280.585	23.391	1179.447	932.312
281.599	23.313	1178.702	931.232
282.614	23.431	1177.668	930.951
283.628	23.457	1176.846	930.354
284.643	23.353	1176.496	929.453
285.657	23.394	1175.015	928.416
286.672	23.317	1174.622	927.619
287.687	23.411	1173.838	927.407
288.701	23.482	1173.173	927.172
289.716	23.507	1172.228	926.473
290.730	23.413	1172.203	925.881
291.745	23.589	1170.905	925.692
292.760	23.485	1170.708	924.914
293.774	23.533	1169.905	924.448
294.789	23.428	1169.795	923.730
295.803	23.551	1168.823	923.521
296.818	23.528	1168.066	922.722
297.833	23.587	1167.273	922.321
298.847	23.600	1166.632	921.800
299.862	23.658	1165.649	921.243
300.876	23.554	1165.128	920.208
301.891	23.637	1165.056	920.501
302.906	23.612	1163.994	919.450
303.920	23.619	1163.125	918.719
304.935	23.607	1162.901	918.401
305.949	23.645	1162.266	918.015
306.964	23.679	1161.571	917.558
307.979	23.571	1160.758	916.278
308.993	23.602	1160.439	916.104
310.008	23.762	1159.810	916.351
311.022	23.731	1158.941	915.426
312.037	23.590	1158.064	913.927
313.052	23.709	1157.498	914.010
314.066	23.623	1156.530	912.721
315.081	23.537	1156.063	911.833
316.095	23.777	1154.857	912.033
317.110	23.688	1154.439	911.165
318.125	23.725	1153.838	910.802
319.139	23.721	1153.265	910.247
320.154	23.768	1152.755	910.004
321.168	23.747	1151.892	909.135
322.183	23.711	1151.736	908.748
323.197	23.616	1151.099	907.678
324.212	23.753	1150.419	907.760
325.227	23.742	1149.916	907.228
326.241	23.843	1149.177	907.078
327.256	23.981	1148.296	907.007
328.270	23.816	1147.931	905.800
329.285	23.854	1146.843	905.052
330.300	23.814	1146.227	904.283
331.314	23.733	1145.558	903.264
332.329	23.951	1144.513	903.467
333.343	23.978	1143.541	902.758
334.358	23.880	1143.149	901.870
335.373	23.956	1142.509	901.669
336.387	23.882	1141.922	900.752
337.402	23.945	1141.055	900.310
338.416	24.042	1140.500	900.282
339.431	23.934	1139.748	899.064
340.446	23.889	1139.567	898.612
341.460	23.979	1138.864	898.435
342.475	24.042	1138.132	898.094
343.489	23.987	1136.686	896.598
344.504	24.100	1136.032	896.568
345.519	24.032	1135.235	895.522
346.533	24.044	1134.169	894.660
347.548	24.033	1133.506	894.005
348.562	23.992	1133.101	893.400
349.577	24.026	1132.457	892.983
350.592	24.034	1131.716	892.360
351.606	24.084	1130.627	891.670
352.621	24.110	1130.294	891.459
353.635	24.020	1129.976	890.680
354.650	24.073	1129.145	890.213
355.665	24.087	1128.517	889.706
356.679	24.138	1128.180	889.619
357.694	24.252	1126.951	889.141
358.708	24.081	1126.827	888.108
359.723	24.116	1126.053	887.596
360.738	24.146	1125.096	886.914
361.752	24.148	1125.169	886.902
362.767	24.103	1124.583	886.136
363.781	24.242	1123.909	886.219
364.796	24.324	1123.157	885.952
365.810	24.251	1122.570	885.049
366.825	24.231	1121.483	884.016
367.840	24.375	1121.099	884.347
368.854	24.291	1120.725	883.557
369.869	24.324	1120.120	883.166
370.883	24.280	1119.287	882.216
371.898	24.410	1118.444	882.117
372.913	24.327	1118.145	881.389
373.927	24.320	1117.715	880.939
374.942	24.374	1116.929	880.507
375.956	24.516	1116.036	880.427
376.971	24.335	1115.999	879.426
377.986	24.353	1115.467	879.018
379.000	24.362	1115.190	878.765
380.015	24.398	1114.485	878.310
381.029	24.513	1113.438	877.973
382.044	24.485	1112.858	877.303
383.059	24.513	1112.136	876.791
384.073	24.524	1111.503	876.270
385.088	24.562	1110.415	875.518
386.102	24.473	1109.880	874.584
387.117	24.428	1109.029	873.617
388.132	24.373	1108.137	872.566
389.146	24.539	1107.470	872.778
390.161	24.628	1107.024	872.782
391.175	24.479	1106.316	871.419
392.190	24.566	1105.548	871.163
393.205	24.537	1104.963	870.483
394.219	24.424	1104.339	869.365
395.234	24.690	1103.311	869.771
396.248	24.537	1102.792	868.539
397.263	24.645	1101.612	868.060
398.278	24.686	1101.292	867.930
399.292	24.615	1100.747	867.077
400.307	24.747	1099.897	866.971
401.321	24.687	1099.110	865.986
402.336	24.670	1098.944	865.696
403.350	24.652	1097.759	864.599
404.365	24.648	1097.315	864.153
405.380	24.729	1096.952	864.183
406.394	24.658	1095.831	862.882
407.409	24.695	1095.349	862.604
408.423	24.818	1094.430	862.396
409.438	24.745	1093.893	861.546
410.453	24.834	1092.952	861.153
411.467	24.679	1092.422	859.917
412.482	24.757	1091.825	859.742
413.496	24.806	1090.852	859.138
414.511	24.901	1090.282	859.070
415.526	24.915	1090.060	858.883
416.540	24.819	1089.377	857.808
417.555	24.927	1088.900	857.877
418.569	24.827	1088.864	857.292
419.584	24.769	1088.340	856.527
420.599	24.891	1087.884	856.676
421.613	148.254	1403.284	1798.937
422.628	137.086	1449.209	1799.037
