DTS Sentinel unit serial number:	SN413079Multiplexer serial number:	ORYXHardware model number:	OX4-SRSoftware version number:	ORYX F/W v4.00 Oryx Data Collector v3.7.2.0data status	okinstallation	princeton_trtdifferential loss correction	single-endedforward channel	channel 2reverse channel	N/Adate	2019/09/11time	15:29:10forward acquisition time	60.00reverse acquisition time	0.00gamma	496.2192k internal	0.2289k external	0.2289temperature offset calibration	1.0014default loss term (dB/km)	0.3790temperature slope calibration	1.0000multiplexer offset coefficient	1.0000multiplexer slope coefficient	1.0000fibre end	0.00T internal ref (°C)	42.87T ext. ref 1 (°C)	0.98T ext. ref 2 (°C)	38.23length (m)	temperature (°C)	Stokes	anti-Stokes-747.200	235.735	0.153	0.260
-746.185	106.045	-0.197	0.239
-745.171	-88.830	0.309	0.094
-744.156	58.020	-0.189	0.190
-743.142	-21.184	-0.157	0.099
-742.127	-200.000	-0.034	0.158
-741.112	-151.210	0.291	0.022
-740.098	-192.180	-0.201	0.002
-739.083	-83.914	0.077	0.025
-738.069	-200.000	0.024	0.244
-737.054	800.000	0.160	0.547
-736.039	-96.945	-0.215	-0.058
-735.025	-45.311	-0.063	0.032
-734.010	-63.895	0.341	-0.143
-732.996	58.340	-0.206	-0.207
-731.981	-200.000	0.064	-0.467
-730.966	-200.000	0.060	-0.280
-729.952	-96.177	-0.376	-0.102
-728.937	-129.145	-0.234	-0.034
-727.923	547.815	-0.088	0.216
-726.908	800.000	-0.042	-0.173
-725.894	-200.000	-0.067	-0.380
-724.879	33.036	-0.116	-0.103
-723.864	800.000	-0.013	-0.044
-722.850	-123.449	-0.149	-0.024
-721.835	800.000	-0.046	-0.136
-720.821	800.000	-0.051	0.178
-719.806	76.274	-0.071	-0.077
-718.791	-111.567	0.374	-0.078
-717.777	-118.300	-0.135	0.025
-716.762	-200.000	-0.005	0.256
-715.748	58.837	0.132	0.133
-714.733	-14.901	0.124	-0.081
-713.718	-111.527	-0.076	-0.016
-712.704	20.963	-0.093	-0.077
-711.689	-28.248	-0.254	-0.151
-710.675	-134.954	0.337	-0.042
-709.660	-96.585	-0.303	-0.082
-708.645	500.616	0.045	0.107
-707.631	-200.000	0.192	-0.000
-706.616	-200.000	-0.007	0.126
-705.602	55.821	0.025	0.024
-704.587	-26.296	-0.284	-0.170
-703.572	800.000	-0.042	0.145
-702.558	-78.128	0.084	-0.030
-701.543	-58.843	-0.340	-0.151
-700.529	-160.150	-0.034	0.002
-699.514	-137.452	-0.324	0.038
-698.499	61.393	0.167	-0.170
-697.485	800.000	0.105	0.324
-696.470	-184.406	0.256	0.004
-695.456	-5.245	0.128	-0.090
-694.441	0.425	0.275	-0.201
-693.426	78.695	0.096	0.105
-692.412	-25.429	0.103	0.062
-691.397	74.386	0.180	-0.193
-690.383	-45.579	-0.218	-0.111
-689.368	285.996	0.101	-0.186
-688.354	-47.748	-0.217	-0.107
-687.339	-200.000	-0.009	0.173
-686.324	148.718	0.023	0.032
-685.310	433.706	-0.025	-0.056
-684.295	-123.668	0.310	-0.050
-683.281	119.790	0.106	-0.134
-682.266	3.719	-0.060	0.045
-681.251	70.901	-0.194	-0.205
-680.237	-48.286	-0.179	0.088
-679.222	-21.127	0.467	0.292
-678.208	-18.416	-0.166	0.106
-677.193	-200.000	-0.012	-0.134
-676.178	-38.388	-0.243	-0.132
-675.164	-200.000	0.009	-0.051
-674.149	80.821	0.110	0.121
-673.135	178.967	0.268	-0.401
-672.120	-66.644	-0.213	-0.086
-671.105	-200.000	0.052	-0.312
-670.091	17.079	-0.190	0.154
-669.076	171.384	0.203	-0.298
-668.062	-200.000	-0.010	-0.163
-667.047	-74.392	-0.414	0.153
-666.032	783.271	-0.075	0.210
-665.018	-14.193	0.135	-0.089
-664.003	-67.626	0.157	0.063
-662.989	-83.253	0.092	-0.030
-661.974	83.194	0.177	-0.197
-660.959	800.000	-0.119	-0.384
-659.945	-45.925	0.048	-0.024
-658.930	-32.227	-0.281	-0.160
-657.916	-200.000	-0.117	-0.529
-656.901	-142.202	0.068	0.007
-655.886	-68.900	0.121	-0.048
-654.872	406.465	0.027	0.057
-653.857	152.984	-0.136	0.190
-652.843	110.518	0.128	-0.157
-651.828	170.468	-0.267	-0.391
-650.814	-200.000	0.005	0.393
-649.799	160.806	0.028	0.040
-648.784	-200.000	0.010	0.073
-647.770	-18.140	0.104	-0.067
-646.755	-200.000	0.017	-0.083
-645.741	-97.819	0.150	0.040
-644.726	-200.000	-0.057	-0.267
-643.711	10.307	-0.178	-0.138
-642.697	181.603	-0.066	-0.099
-641.682	459.262	-0.086	-0.195
-640.668	-8.553	0.056	0.039
-639.653	-13.694	-0.226	0.150
-638.638	-200.000	0.029	0.293
-637.624	-83.884	-0.125	-0.041
-636.609	-38.202	0.101	0.055
-635.595	34.461	-0.044	-0.039
-634.580	394.060	0.031	0.065
-633.565	800.000	-0.076	0.302
-632.551	47.558	-0.116	-0.110
-631.536	155.150	-0.065	0.091
-630.522	597.121	-0.030	0.076
-629.507	-6.620	-0.226	0.157
-628.492	-38.327	0.266	0.144
-627.478	-34.135	-0.033	-0.018
-626.463	143.199	0.091	-0.123
-625.449	-200.000	-0.004	0.267
-624.434	-30.317	-0.138	0.080
-623.419	-150.007	-0.238	0.019
-622.405	90.801	-0.094	-0.108
-621.390	-42.052	-0.235	0.123
-620.376	-200.000	0.046	0.251
-619.361	-200.000	-0.028	-0.169
-618.346	88.886	-0.031	-0.035
-617.332	-178.037	0.182	0.004
-616.317	-200.000	-0.003	-0.323
-615.303	127.346	-0.018	-0.023
-614.288	232.743	0.207	0.347
-613.273	-200.000	-0.038	0.172
-612.259	426.245	0.045	-0.098
-611.244	-38.701	0.406	0.218
-610.230	-81.490	0.189	0.063
-609.215	225.731	0.054	-0.090
-608.201	-200.000	0.012	-0.121
-607.186	-139.208	-0.052	0.006
-606.171	-64.525	-0.235	0.097
-605.157	-154.084	0.297	0.021
-604.142	-24.433	0.236	-0.143
-603.128	-1.330	-0.225	-0.162
-602.113	-56.255	0.091	-0.041
-601.098	-86.139	-0.309	-0.097
-600.084	80.844	0.146	-0.161
-599.069	-78.097	-0.147	0.052
-598.055	137.933	-0.157	0.210
-597.040	-145.010	-0.102	-0.010
-596.025	88.280	0.050	-0.056
-595.011	-125.772	-0.200	0.031
-593.996	391.721	0.151	-0.320
-592.982	-200.000	0.074	-0.399
-591.967	15.860	-0.074	0.059
-590.952	416.786	-0.063	0.136
-589.938	800.000	-0.021	-0.065
-588.923	308.682	0.038	-0.073
-587.909	-30.867	0.227	0.131
-586.894	29.095	-0.113	-0.098
-585.879	-200.000	-0.017	-0.293
-584.865	-116.463	-0.072	0.014
-583.850	-200.000	-0.010	0.077
-582.836	800.000	-0.125	0.455
-581.821	-158.336	0.158	0.009
-580.806	-63.177	-0.246	-0.103
-579.792	-120.452	-0.044	0.008
-578.777	-137.000	0.325	-0.038
-577.763	-132.144	-0.240	-0.032
-576.748	182.857	-0.150	-0.225
-575.733	-140.797	0.196	-0.021
-574.719	208.212	-0.159	-0.254
-573.704	-134.471	-0.368	0.046
-572.690	-128.646	-0.031	0.004
-571.675	-148.208	0.069	0.006
-570.661	321.678	-0.044	-0.085
-569.646	-130.214	0.245	0.034
-568.631	454.181	-0.143	0.323
-567.617	-38.890	-0.293	-0.157
-566.602	345.448	0.091	-0.182
-565.588	-200.000	-0.035	-0.275
-564.573	-62.621	0.122	-0.052
-563.558	572.447	0.039	-0.098
-562.544	-50.688	0.164	0.079
-561.529	-200.000	0.036	0.253
-560.515	12.644	0.108	0.085
-559.500	-5.501	-0.145	-0.101
-558.485	32.615	-0.234	0.206
-557.471	218.223	-0.121	0.197
-556.456	800.000	-0.081	0.280
-555.442	-200.000	-0.006	-0.081
-554.427	-76.365	0.502	-0.180
-553.412	-77.300	-0.329	0.116
-552.398	-14.923	-0.109	0.071
-551.383	9.008	-0.102	-0.078
-550.369	22.426	-0.220	0.183
-549.354	-62.511	0.331	0.140
-548.339	150.538	-0.276	-0.382
-547.325	477.982	-0.070	0.161
-546.310	-10.801	0.246	0.166
-545.296	-64.905	0.213	-0.088
-544.281	-25.225	0.019	0.011
-543.266	112.965	0.200	0.247
-542.252	-97.739	0.217	0.057
-541.237	800.000	0.088	-0.329
-540.223	8.807	-0.103	0.079
-539.208	800.000	-0.003	-0.009
-538.193	-80.816	0.299	0.101
-537.179	800.000	-0.030	0.133
-536.164	268.682	0.053	-0.095
-535.150	-200.000	-0.017	-0.288
-534.135	-126.149	0.320	0.049
-533.121	557.287	-0.017	0.042
-532.106	-200.000	0.025	0.190
-531.091	-200.000	0.020	0.172
-530.077	800.000	-0.067	-0.244
-529.062	105.216	0.233	-0.279
-528.048	800.000	0.029	0.094
-527.033	-91.454	0.224	0.065
-526.018	458.048	-0.088	-0.199
-525.004	-55.129	0.109	0.050
-523.989	410.723	-0.014	-0.030
-522.975	-75.991	-0.342	0.123
-521.960	88.054	-0.006	-0.006
-520.945	250.721	0.048	0.082
-519.931	-57.334	-0.107	-0.048
-518.916	229.936	-0.102	-0.170
-517.902	-35.276	0.216	-0.119
-516.887	800.000	-0.063	-0.198
-515.872	-38.748	0.138	0.074
-514.858	-130.681	0.193	-0.026
-513.843	800.000	0.077	0.291
-512.829	-34.498	0.198	-0.110
-511.814	-67.069	0.123	-0.049
-510.799	-130.481	0.196	-0.027
-509.785	-50.256	0.147	0.071
-508.770	-200.000	-0.019	0.343
-507.756	-15.620	-0.085	0.055
-506.741	182.150	0.085	0.127
-505.726	-200.000	0.033	0.212
-504.712	800.000	-0.057	-0.217
-503.697	21.579	-0.182	-0.150
-502.683	30.126	0.102	0.089
-501.668	-7.014	0.163	0.112
-500.653	-200.000	-0.005	-0.033
-499.639	50.473	-0.187	-0.179
-498.624	800.000	-0.058	-0.179
-497.610	-200.000	-0.034	-0.308
-496.595	-200.000	0.043	0.253
-495.581	800.000	-0.023	-0.080
-494.566	-200.000	0.072	-0.489
-493.551	90.498	-0.222	-0.253
-492.537	-91.461	0.332	0.096
-491.522	545.165	0.078	-0.189
-490.508	46.205	-0.137	0.129
-489.493	-174.738	0.309	0.009
-488.478	-16.555	-0.177	-0.114
-487.464	-156.676	-0.234	-0.015
-486.449	-200.000	0.006	-0.134
-485.435	-144.890	0.137	0.013
-484.420	-125.220	0.343	0.053
-483.405	-10.509	-0.261	0.175
-482.391	201.085	0.094	0.147
-481.376	78.507	-0.101	0.110
-480.362	-60.702	-0.383	0.165
-479.347	205.738	0.104	0.163
-478.332	208.998	-0.188	0.299
-477.318	-17.604	-0.201	0.128
-476.303	30.049	0.057	0.050
-475.289	-18.856	0.389	-0.245
-474.274	73.776	0.228	-0.242
-473.259	-173.114	-0.319	-0.010
-472.245	800.000	0.091	-0.312
-471.230	-12.862	0.068	0.045
-470.216	213.483	-0.063	-0.102
-469.201	129.026	0.155	0.200
-468.186	-149.518	0.311	0.025
-467.172	-200.000	0.058	-0.274
-466.157	251.976	-0.108	-0.187
-465.143	-200.000	-0.007	0.124
-464.128	-200.000	0.035	0.159
-463.113	-147.632	-0.428	-0.036
-462.099	-6.489	0.120	-0.083
-461.084	800.000	-0.048	-0.136
-460.070	800.000	-0.062	0.260
-459.055	349.598	-0.093	-0.186
-458.040	-127.020	0.241	-0.036
-457.026	104.197	-0.123	-0.147
-456.011	233.288	0.206	0.344
-454.997	-110.959	0.272	0.057
-453.982	17.268	0.132	-0.106
-452.968	-35.330	-0.220	-0.121
-451.953	774.723	0.105	0.289
-450.938	-81.960	0.099	0.033
-449.924	-111.245	0.318	0.066
-448.909	800.000	-0.105	0.299
-447.895	-25.168	-0.273	0.164
-446.880	-200.000	0.154	0.000
-445.865	-98.381	-0.230	-0.060
-444.851	389.360	-0.174	-0.365
-443.836	800.000	-0.097	-0.305
-442.822	107.159	0.045	-0.055
-441.807	-12.010	0.106	0.071
-440.792	-71.741	-0.166	-0.063
-439.778	-200.000	-0.009	-0.156
-438.763	-84.277	0.075	-0.024
-437.749	-127.773	-0.420	-0.061
-436.734	306.055	-0.005	-0.009
-435.719	-118.745	-0.121	0.022
-434.705	211.180	0.053	0.084
-433.690	-200.000	-0.012	0.147
-432.676	-3.005	-0.141	0.100
-431.661	800.000	-0.074	0.322
-430.646	260.264	0.058	0.102
-429.632	115.360	0.174	-0.215
-428.617	-94.082	-0.242	0.067
-427.603	-200.000	0.001	-0.088
-426.588	97.149	-0.153	-0.178
-425.573	504.477	0.058	-0.137
-424.559	94.243	0.154	-0.178
-423.544	-200.000	0.024	-0.121
-422.530	43.111	0.356	-0.329
-421.515	-108.542	0.113	0.024
-420.500	-120.354	-0.206	0.036
-419.486	-200.000	-0.023	-0.229
-418.471	62.113	0.182	-0.183
-417.457	-200.000	-0.067	0.588
-416.442	285.539	0.087	-0.159
-415.428	235.246	0.074	-0.123
-414.413	-90.639	0.255	-0.075
-413.398	800.000	-0.086	-0.291
-412.384	257.026	-0.011	-0.018
-411.369	800.000	-0.079	0.256
-410.355	-40.593	-0.183	0.096
-409.340	-200.000	-0.009	0.056
-408.325	176.756	0.107	-0.158
-407.311	98.927	0.327	-0.382
-406.296	-177.997	-0.075	-0.002
-405.282	215.017	-0.168	0.269
-404.267	154.338	0.213	-0.295
-403.252	-136.566	-0.288	-0.034
-402.238	132.169	0.267	0.348
-401.223	778.135	-0.025	0.069
-400.209	-154.656	-0.306	-0.021
-399.194	-50.036	-0.158	-0.076
-398.179	89.778	0.206	0.232
-397.165	175.345	0.040	-0.058
-396.150	306.813	-0.178	-0.336
-395.136	-7.726	-0.165	0.113
-394.121	750.619	0.060	0.162
-393.106	138.122	0.118	-0.156
-392.092	-200.000	0.026	0.254
-391.077	-200.000	-0.001	-0.250
-390.063	-181.870	-0.239	-0.005
-389.048	-99.214	-0.083	-0.021
-388.033	-200.000	-0.068	-0.394
-387.019	-35.338	-0.161	0.089
-386.004	-81.779	0.243	0.080
-384.990	-179.772	0.175	-0.004
-383.975	-138.040	0.350	0.039
-382.960	-175.326	-0.194	0.005
-381.946	800.000	-0.049	0.207
-380.931	800.000	0.067	0.227
-379.917	-15.784	-0.070	0.045
-378.902	-7.630	-0.120	-0.082
-377.888	156.924	-0.071	-0.099
-376.873	-69.198	-0.305	-0.119
-375.858	800.000	-0.068	0.267
-374.844	-71.305	-0.296	-0.112
-373.829	800.000	0.043	-0.130
-372.815	437.890	-0.059	-0.130
-371.800	-200.000	-0.058	-0.258
-370.785	48.743	-0.219	-0.208
-369.771	-200.000	0.001	-0.140
-368.756	-200.000	-0.013	-0.115
-367.742	-184.186	0.123	0.002
-366.727	3.115	-0.347	-0.255
-365.712	-116.560	0.126	0.024
-364.698	-200.000	0.015	-0.237
-363.683	-65.522	-0.231	-0.094
-362.669	45.192	0.250	0.233
-361.654	-179.543	0.174	0.004
-360.639	800.000	-0.087	0.329
-359.625	261.145	-0.056	-0.098
-358.610	-145.558	0.327	-0.030
-357.596	25.568	0.065	0.054
-356.581	-162.162	-0.221	0.011
-355.566	66.623	0.095	0.097
-354.552	800.000	0.050	0.144
-353.537	800.000	0.028	0.095
-352.523	113.432	-0.101	-0.124
-351.508	-99.898	-0.213	0.054
-350.493	-19.588	0.238	0.149
-349.479	800.000	0.079	0.227
-348.464	-200.000	-0.005	-0.032
-347.450	-121.100	0.111	-0.019
-346.435	800.000	-0.026	0.104
-345.420	-2.612	0.142	-0.100
-344.406	61.619	0.107	-0.107
-343.391	-158.794	-0.221	-0.013
-342.377	56.899	-0.086	-0.084
-341.362	800.000	0.084	0.241
-340.348	123.405	0.033	0.042
-339.333	-200.000	-0.013	-0.121
-338.318	-200.000	-0.032	-0.385
-337.304	497.164	-0.091	0.211
-336.289	800.000	0.069	0.293
-335.275	-13.133	0.168	0.110
-334.260	-76.434	-0.211	0.075
-333.245	-73.713	-0.184	-0.068
-332.231	-7.027	-0.164	-0.112
-331.216	-200.000	0.002	-0.326
-330.202	6.832	-0.216	0.162
-329.187	-114.330	0.220	0.043
-328.172	-136.158	-0.335	-0.040
-327.158	-22.498	0.295	0.180
-326.143	-200.000	0.040	0.284
-325.129	-63.827	0.194	0.080
-324.114	17.027	0.061	-0.049
-323.099	348.606	-0.117	-0.232
-322.085	143.257	0.015	0.020
-321.070	-160.002	0.092	-0.005
-320.056	-90.280	-0.266	0.078
-319.041	82.276	-0.094	0.103
-318.026	-6.000	-0.298	-0.205
-317.012	372.182	-0.023	-0.047
-315.997	108.534	0.121	0.146
-314.983	26.032	0.245	-0.206
-313.968	-120.068	-0.329	0.057
-312.953	-157.308	0.112	-0.007
-311.939	307.290	-0.057	0.106
-310.924	-59.071	0.212	0.092
-309.910	-200.000	-0.011	-0.180
-308.895	141.321	-0.125	-0.166
-307.880	-200.000	0.013	-0.170
-306.866	-5.689	-0.150	0.104
-305.851	-94.408	0.186	-0.051
-304.837	-200.000	0.008	-0.100
-303.822	-39.859	-0.073	-0.039
-302.807	64.544	0.078	0.079
-301.793	800.000	0.098	-0.316
-300.778	-113.870	0.343	0.067
-299.764	67.205	0.080	0.082
-298.749	-200.000	-0.017	0.276
-297.735	270.761	-0.156	-0.276
-296.720	-85.490	-0.233	-0.073
-295.705	-200.000	0.033	0.391
-294.691	-200.000	0.028	-0.152
-293.676	332.065	-0.156	-0.303
-292.662	-200.000	-0.002	0.217
-291.647	800.000	-0.078	-0.237
-290.632	800.000	0.057	-0.217
-289.618	-47.466	-0.190	0.093
-288.603	-166.780	-0.275	-0.011
-287.589	-43.393	0.305	-0.155
-286.574	-59.736	0.170	-0.073
-285.559	-51.963	-0.067	-0.032
-284.545	-166.694	-0.175	-0.007
-283.530	-81.215	0.212	0.071
-282.516	69.886	0.091	-0.095
-281.501	450.828	0.059	-0.131
-280.486	108.213	0.157	0.188
-279.472	-200.000	-0.011	0.287
-278.457	-102.910	0.119	-0.028
-277.443	279.991	0.050	-0.089
-276.428	19.350	-0.020	0.016
-275.413	-63.050	-0.081	-0.034
-274.399	-37.891	0.150	0.080
-273.384	9.609	0.129	0.098
-272.370	-92.434	0.217	0.061
-271.355	-25.507	-0.321	0.191
-270.340	-96.819	0.131	0.035
-269.326	-200.000	0.001	0.088
-268.311	230.037	-0.063	0.104
-267.297	-60.622	0.172	-0.074
-266.282	-148.948	0.156	-0.013
-265.267	8.161	0.332	0.250
-264.253	-98.552	-0.344	0.088
-263.238	-200.000	0.018	-0.186
-262.224	150.434	0.197	0.269
-261.209	-26.719	-0.217	-0.128
-260.195	-200.000	-0.010	0.153
-259.180	-124.498	-0.170	-0.027
-258.165	-80.147	0.258	-0.087
-257.151	247.105	-0.177	0.301
-256.136	800.000	-0.058	0.239
-255.122	410.571	0.038	0.081
-254.107	-161.516	0.369	0.019
-253.092	-200.000	0.027	0.336
-252.078	321.668	-0.031	0.059
-251.063	-171.260	0.102	0.003
-250.049	-82.175	-0.062	-0.020
-249.034	-171.246	0.345	-0.012
-248.019	-200.000	-0.050	-0.452
-247.005	68.330	0.176	0.181
-245.990	43.797	-0.219	0.201
-244.976	-19.517	0.019	0.012
-243.961	217.509	-0.108	-0.173
-242.946	31.866	-0.108	-0.093
-241.932	-116.853	0.101	0.019
-240.917	651.040	-0.163	-0.419
-239.903	800.000	-0.066	-0.216
-238.888	301.878	0.259	-0.482
-237.873	272.942	0.136	0.241
-236.859	254.907	-0.190	0.326
-235.844	134.738	0.026	-0.033
-234.830	-64.881	-0.210	-0.085
-233.815	361.263	-0.033	0.066
-232.800	-109.926	-0.197	0.041
-231.786	-62.130	-0.222	-0.093
-230.771	-200.000	0.042	0.499
-229.757	19.389	-0.169	-0.137
-228.742	295.754	0.071	0.131
-227.727	366.550	0.028	-0.056
-226.713	-200.000	0.025	-0.225
-225.698	-104.197	0.149	-0.035
-224.684	4.763	-0.123	-0.091
-223.669	-6.030	-0.071	-0.048
-222.655	-136.899	-0.460	0.053
-221.640	349.390	-0.035	0.069
-220.625	800.000	0.018	0.072
-219.611	800.000	0.095	-0.274
-218.596	-200.000	0.055	-0.340
-217.582	-139.976	0.260	0.028
-216.567	-167.779	-0.358	-0.014
-215.552	-1.400	-0.338	0.239
-214.538	-200.000	0.559	0.003
-213.523	-127.337	0.099	-0.015
-212.509	-56.080	-0.114	-0.051
-211.494	120.021	0.166	0.206
-210.479	20.928	0.417	0.340
-209.465	800.000	0.128	0.491
-208.450	-83.402	0.293	-0.094
-207.436	146.896	-0.172	0.232
-206.421	168.151	0.103	0.147
-205.406	-130.293	-0.419	-0.057
-204.392	-172.442	-0.169	0.005
-203.377	228.156	-0.112	-0.183
-202.363	-113.877	-0.472	-0.092
-201.348	-200.000	-0.002	0.176
-200.333	-31.579	-0.276	0.155
-199.319	-82.185	0.119	0.039
-198.304	-81.076	0.172	0.057
-197.290	53.664	-0.142	-0.136
-196.275	800.000	0.017	-0.067
-195.260	-114.018	-0.271	-0.053
-194.246	-200.000	0.089	0.436
-193.231	94.616	-0.190	-0.216
-192.217	-123.087	0.157	0.025
-191.202	-16.279	-0.290	0.185
-190.187	-78.651	-0.197	-0.068
-189.173	-36.694	-0.180	-0.097
-188.158	68.387	0.032	-0.033
-187.144	-177.455	-0.254	-0.006
-186.129	121.192	0.071	0.089
-185.114	448.861	-0.049	0.109
-184.100	61.271	0.122	-0.121
-183.085	-134.285	0.270	0.033
-182.071	-69.928	0.334	0.128
-181.056	297.574	0.074	-0.136
-180.042	1.559	0.132	-0.095
-179.027	-200.000	-0.030	-0.137
-178.012	800.000	-0.017	0.055
-176.998	-108.283	0.217	0.047
-175.983	616.045	0.081	-0.204
-174.969	169.125	-0.241	0.345
-173.954	-200.000	-0.005	-0.187
-172.939	-200.000	-0.034	-0.243
-171.925	574.655	-0.059	-0.144
-170.910	235.655	-0.044	0.073
-169.896	-73.622	-0.202	-0.074
-168.881	-131.889	0.086	-0.011
-167.866	176.103	0.045	0.065
-166.852	-200.000	0.019	-0.102
-165.837	-142.024	-0.245	-0.024
-164.823	-135.500	0.232	-0.028
-163.808	800.000	0.108	0.331
-162.793	35.383	0.079	0.070
-161.779	-132.076	-0.049	0.006
-160.764	-200.000	-0.017	0.149
-159.750	625.990	0.110	0.278
-158.735	356.683	0.090	-0.179
-157.720	46.466	-0.097	0.090
-156.706	-135.366	-0.126	0.015
-155.691	-94.051	0.332	-0.091
-154.677	-20.747	0.291	-0.179
-153.662	121.082	0.267	0.333
-152.647	-200.000	0.017	0.111
-151.633	800.000	-0.038	0.154
-150.618	-80.781	0.236	0.079
-149.604	84.188	-0.142	-0.155
-148.589	-9.410	0.085	0.057
-147.574	-10.597	0.148	0.098
-146.560	-96.681	0.284	0.075
-145.545	84.280	-0.147	0.161
-144.531	800.000	-0.045	-0.130
-143.516	-28.111	0.196	-0.113
-142.502	20.521	-0.116	-0.094
-141.487	-19.533	0.230	-0.143
-140.472	-130.878	0.033	0.004
-139.458	-200.000	-0.010	-0.366
-138.443	-139.335	0.268	0.029
-137.429	217.765	0.065	-0.104
-136.414	-102.702	0.147	-0.035
-135.399	584.027	0.049	-0.120
-134.385	-200.000	-0.010	-0.276
-133.370	42.135	0.071	-0.065
-132.356	-2.184	0.141	-0.099
-131.341	-200.000	0.018	-0.088
-130.326	-200.000	-0.059	-0.290
-129.312	68.664	0.156	-0.160
-128.297	-200.000	0.016	0.133
-127.283	-200.000	0.010	0.083
-126.268	793.203	0.059	0.162
-125.253	-41.666	0.239	0.123
-124.239	-0.859	0.176	0.125
-123.224	-121.164	0.390	-0.065
-122.210	-118.141	0.444	-0.079
-121.195	742.353	-0.037	0.099
-120.180	-89.516	-0.248	-0.073
-119.166	198.449	-0.159	0.244
-118.151	-36.382	0.262	-0.141
-117.137	607.498	0.107	-0.267
-116.122	800.000	-0.099	-0.277
-115.107	283.600	0.075	0.135
-114.093	24.001	0.089	-0.074
-113.078	-108.363	0.181	0.039
-112.064	52.472	-0.292	0.279
-111.049	141.378	0.276	0.366
-110.034	-8.665	0.058	-0.039
-109.020	9.488	-0.039	-0.030
-108.005	190.298	0.108	-0.162
-106.991	-200.000	0.009	0.272
-105.976	-52.800	0.267	0.123
-104.962	800.000	-0.020	-0.064
-103.947	-200.000	0.034	0.259
-102.932	-200.000	-0.014	-0.170
-101.918	-30.215	0.072	-0.041
-100.903	16.850	-0.215	0.170
-99.889	-188.480	-0.319	0.004
-98.874	165.479	0.129	0.183
-97.859	-200.000	-0.041	-0.274
-96.845	800.000	-0.019	0.073
-95.830	41.503	0.159	-0.144
-94.816	-200.000	0.094	-0.419
-93.801	586.853	0.024	0.059
-92.786	-55.882	-0.051	0.023
-91.772	-70.962	0.202	-0.076
-90.757	189.967	0.186	0.278
-89.743	-118.246	0.257	-0.046
-88.728	-5.132	0.319	0.219
-87.713	83.648	0.085	-0.093
-86.699	-63.267	0.277	-0.114
-85.684	235.173	0.103	0.169
-84.670	-10.103	0.362	0.240
-83.655	121.396	-0.128	-0.160
-82.640	-137.144	0.077	0.009
-81.626	11.480	-0.122	-0.094
-80.611	800.000	0.034	0.106
-79.597	-127.953	-0.635	0.091
-78.582	-123.462	-0.047	0.007
-77.567	-83.906	-0.061	-0.019
-76.553	-200.000	-0.016	-0.123
-75.538	800.000	0.050	0.198
-74.524	44.332	-0.337	-0.309
-73.509	-42.849	0.337	0.171
-72.494	174.394	0.118	0.171
-71.480	143.058	-0.101	0.135
-70.465	-200.000	0.009	0.308
-69.451	319.146	0.204	0.385
-68.436	695.613	-0.171	0.449
-67.422	800.000	-0.002	-0.009
-66.407	44.139	0.346	0.317
-65.392	-160.592	-0.061	0.003
-64.378	-121.610	0.203	0.034
-63.363	100.910	-0.204	0.237
-62.349	-200.000	-0.011	0.095
-61.334	6.246	-0.732	-0.542
-60.319	-65.872	0.352	0.140
-59.305	-200.000	-0.098	-0.530
-58.290	800.000	0.291	0.815
-57.276	741.379	0.520	1.395
-56.261	-200.000	74.577	535.629
-55.246	578.465	1297.621	3168.001
-54.232	146.253	2527.151	3384.295
-53.217	114.771	2344.129	2851.673
-52.203	52.762	1959.460	1868.700
-51.188	46.547	1747.010	1617.431
-50.173	43.403	1699.819	1549.604
-49.159	57.335	1732.306	1687.043
-48.144	63.563	1750.123	1752.322
-47.130	46.195	1715.041	1584.869
-46.115	42.865	1701.485	1546.743
-45.100	42.695	1696.987	1541.291
-44.086	42.663	1694.174	1538.430
-43.071	42.603	1691.682	1535.649
-42.057	42.681	1688.791	1533.557
-41.042	42.624	1687.122	1531.548
-40.027	42.720	1684.662	1529.986
-39.013	42.689	1682.761	1527.963
-37.998	42.655	1681.331	1526.344
-36.984	42.766	1679.528	1525.491
-35.969	42.946	1677.922	1525.329
-34.954	42.936	1676.750	1524.129
-33.940	42.896	1674.890	1522.075
-32.925	42.986	1672.656	1520.668
-31.911	42.974	1671.702	1519.650
-30.896	42.881	1669.449	1516.841
-29.881	42.866	1667.498	1514.890
-28.867	42.789	1666.199	1513.076
-27.852	42.808	1664.704	1511.800
-26.838	42.963	1662.872	1511.236
-25.823	42.936	1661.571	1509.796
-24.809	42.934	1660.668	1508.896
-23.794	42.907	1659.038	1507.153
-22.779	42.964	1657.365	1506.001
-21.765	42.905	1655.624	1503.916
-20.750	42.876	1653.826	1502.010
-19.736	42.936	1652.419	1501.122
-18.721	42.911	1650.821	1499.422
-17.706	42.847	1649.815	1497.971
-16.692	42.904	1647.746	1496.461
-15.677	42.789	1646.642	1494.545
-14.663	42.862	1645.580	1494.062
-13.648	42.917	1643.454	1492.483
-12.633	42.817	1642.508	1490.816
-11.619	42.834	1640.457	1489.029
-10.604	42.907	1638.705	1487.915
-9.590	42.949	1637.312	1486.905
-8.575	42.981	1636.411	1486.264
-7.560	42.921	1635.030	1484.505
-6.546	42.889	1633.774	1483.073
-5.531	42.878	1632.920	1482.154
-4.517	42.829	1631.924	1480.831
-3.502	42.892	1630.510	1479.957
-2.487	43.040	1628.922	1479.543
-1.473	43.036	1617.513	1469.093
-0.458	40.597	1597.827	1433.559
0.556	35.884	1596.590	1398.435
1.571	33.057	1619.963	1397.908
2.586	32.384	1634.295	1405.127
3.600	28.558	1580.887	1331.385
4.615	15.525	1459.166	1140.826
5.629	3.479	1382.064	1002.529
6.644	1.196	1371.293	979.891
7.659	0.990	1369.793	977.401
8.673	0.851	1368.345	975.387
9.688	0.893	1366.720	974.413
10.702	0.619	1364.015	970.634
11.717	4.704	1372.512	1002.971
12.731	16.275	1394.689	1094.508
13.746	24.117	1407.800	1155.811
14.761	24.740	1407.205	1159.261
15.775	24.719	1407.260	1159.067
16.790	24.831	1406.334	1158.925
17.804	24.780	1405.705	1157.978
18.819	24.961	1405.622	1158.974
19.834	25.127	1404.532	1159.047
20.848	25.061	1404.142	1158.199
21.863	25.094	1403.128	1157.471
22.877	25.014	1402.398	1156.253
23.892	25.121	1401.496	1156.096
24.907	25.085	1400.735	1155.136
25.921	25.153	1399.073	1154.101
26.936	25.030	1398.602	1152.816
27.950	24.990	1397.431	1151.492
28.965	24.947	1396.708	1150.519
29.980	24.938	1395.443	1149.313
30.994	25.027	1393.946	1148.554
32.009	24.984	1392.954	1147.360
33.023	25.026	1391.444	1146.279
34.038	25.027	1390.214	1145.173
35.053	25.018	1389.321	1144.278
36.067	25.072	1387.929	1143.377
37.082	24.968	1387.305	1142.097
38.096	24.955	1386.539	1141.284
39.111	25.076	1385.709	1141.269
40.126	25.085	1384.709	1140.403
41.140	24.940	1384.451	1139.164
42.155	25.025	1384.198	1139.400
43.169	25.138	1383.823	1139.708
44.184	25.116	1383.727	1139.385
45.199	24.957	1383.282	1137.912
46.213	25.090	1382.429	1137.953
47.228	25.109	1381.352	1137.083
48.242	25.018	1380.336	1135.570
49.257	25.050	1379.098	1134.653
50.271	25.065	1377.844	1133.620
51.286	24.995	1376.408	1131.891
52.301	24.925	1375.457	1130.568
53.315	25.005	1374.260	1129.990
54.330	24.993	1373.523	1129.208
55.344	25.035	1372.458	1128.500
56.359	25.023	1370.961	1127.091
57.374	25.058	1370.451	1126.794
58.388	25.049	1369.815	1126.114
59.403	24.974	1369.532	1125.310
60.417	25.050	1368.210	1124.598
61.432	25.001	1367.737	1123.805
62.447	25.066	1366.828	1123.366
63.461	25.024	1365.852	1122.201
64.476	25.009	1364.957	1121.273
65.490	25.091	1363.421	1120.422
66.505	25.070	1362.028	1119.046
67.520	25.144	1360.795	1118.402
68.534	25.004	1359.982	1116.757
69.549	25.031	1359.109	1116.111
70.563	25.111	1357.919	1115.531
71.578	25.055	1356.936	1114.279
72.593	25.079	1355.978	1113.546
73.607	25.060	1355.608	1113.021
74.622	25.105	1354.530	1112.318
75.636	25.114	1354.019	1111.858
76.651	25.109	1352.967	1110.865
77.666	25.055	1352.914	1110.383
78.680	25.079	1352.349	1109.974
79.695	25.089	1351.612	1109.331
80.709	25.152	1350.560	1108.758
81.724	25.125	1349.715	1107.803
82.739	25.034	1348.713	1106.316
83.753	25.004	1347.944	1105.408
84.768	25.027	1346.926	1104.617
85.782	25.045	1345.764	1103.677
86.797	25.074	1344.463	1102.688
87.812	25.050	1343.348	1101.530
88.826	25.057	1342.491	1100.769
89.841	25.064	1341.213	1099.670
90.855	25.133	1340.201	1099.165
91.870	25.061	1339.455	1098.016
92.884	25.170	1338.657	1097.933
93.899	25.123	1337.826	1096.865
94.914	25.132	1337.225	1096.329
95.928	25.079	1336.587	1095.384
96.943	25.062	1335.756	1094.504
97.957	25.109	1334.972	1094.053
98.972	25.079	1334.266	1093.194
99.987	25.106	1333.057	1092.268
101.001	25.105	1332.257	1091.511
102.016	25.031	1331.739	1090.541
103.030	25.040	1330.966	1089.864
104.045	25.189	1329.163	1089.198
105.060	25.224	1328.536	1088.801
106.074	25.113	1327.401	1087.098
107.089	25.186	1326.346	1086.585
108.103	25.107	1325.535	1085.346
109.118	25.195	1324.113	1084.617
110.133	25.167	1323.055	1083.482
111.147	25.184	1322.308	1082.878
112.162	25.156	1320.856	1081.427
113.176	25.074	1320.357	1080.425
114.191	25.135	1319.008	1079.593
115.206	25.134	1318.048	1078.705
116.220	25.147	1316.972	1077.810
117.235	25.114	1315.910	1076.647
118.249	25.158	1315.340	1076.349
119.264	25.109	1314.231	1075.051
120.279	25.160	1313.333	1074.527
121.293	25.199	1312.407	1073.913
122.308	25.143	1311.991	1073.136
123.322	25.181	1310.688	1072.206
124.337	25.233	1309.664	1071.583
125.352	25.266	1309.038	1071.174
126.366	25.283	1308.332	1070.605
127.381	25.278	1307.185	1069.536
128.395	25.215	1306.369	1068.404
129.410	25.241	1305.734	1067.944
130.424	25.195	1304.826	1066.834
131.439	25.229	1304.148	1066.388
132.454	25.341	1302.779	1065.834
133.468	25.151	1302.888	1064.704
134.483	25.322	1301.884	1064.801
135.497	25.260	1301.294	1063.860
136.512	25.340	1300.308	1063.430
137.527	25.137	1299.350	1061.352
138.541	25.118	1298.111	1060.133
139.556	25.200	1296.458	1059.173
140.570	25.248	1295.282	1058.407
141.585	25.303	1294.394	1057.908
142.600	25.277	1293.363	1056.818
143.614	25.221	1292.576	1055.751
144.629	25.214	1291.756	1054.948
145.643	25.100	1290.695	1053.322
146.658	25.119	1289.336	1052.229
147.673	25.243	1288.332	1052.044
148.687	25.174	1287.528	1050.892
149.702	25.085	1286.263	1049.246
150.716	25.132	1285.446	1048.760
151.731	25.196	1283.875	1047.755
152.746	25.159	1282.978	1046.717
153.760	25.277	1282.034	1046.544
154.775	25.227	1280.629	1045.012
155.789	25.130	1280.464	1044.221
156.804	25.186	1279.349	1043.546
157.819	25.103	1278.475	1042.258
158.833	25.273	1277.312	1042.203
159.848	25.300	1276.897	1041.930
160.862	25.164	1276.107	1040.404
161.877	25.241	1275.261	1040.070
162.892	25.197	1274.484	1039.089
163.906	25.299	1273.479	1038.766
164.921	25.272	1272.986	1038.118
165.935	25.134	1272.856	1037.121
166.950	25.240	1271.724	1036.719
167.964	25.267	1270.957	1036.160
168.979	25.288	1270.706	1035.982
169.994	25.313	1269.790	1035.287
171.008	25.295	1268.734	1034.231
172.023	25.349	1268.455	1034.224
173.037	25.285	1268.367	1033.695
174.052	25.396	1267.176	1033.269
175.067	25.235	1266.275	1031.516
176.081	25.374	1265.059	1031.233
177.096	25.355	1264.621	1030.676
178.110	25.294	1264.071	1029.784
179.125	25.306	1262.903	1028.813
180.140	25.303	1261.794	1027.804
181.154	25.358	1260.571	1027.026
182.169	25.356	1259.498	1026.051
183.183	25.281	1258.453	1024.680
184.198	25.355	1257.362	1024.126
185.213	25.322	1256.719	1023.320
186.227	25.358	1255.596	1022.520
187.242	25.409	1254.648	1021.949
188.256	25.399	1253.771	1021.091
189.271	25.413	1252.924	1020.385
190.286	25.398	1252.462	1019.838
191.300	25.429	1251.718	1019.313
192.315	25.344	1251.669	1018.701
193.329	25.335	1251.145	1018.134
194.344	25.430	1250.321	1017.911
195.359	25.411	1249.425	1016.988
196.373	25.401	1249.420	1016.837
197.388	25.333	1248.992	1016.012
198.402	25.255	1248.832	1015.354
199.417	25.357	1248.269	1015.380
200.432	25.459	1247.508	1015.251
201.446	25.396	1246.819	1014.242
202.461	25.384	1246.350	1013.703
203.475	25.445	1245.346	1013.138
204.490	25.406	1244.232	1011.922
205.504	25.384	1243.646	1011.233
206.519	25.492	1242.340	1010.690
207.534	25.416	1241.876	1009.800
208.548	25.416	1240.921	1008.933
209.563	25.407	1239.799	1007.877
210.577	25.437	1238.611	1006.993
211.592	25.429	1238.548	1006.806
212.607	25.519	1237.237	1006.154
213.621	25.472	1236.564	1005.255
214.636	25.580	1235.907	1005.237
215.650	25.570	1234.669	1004.088
216.665	25.458	1233.810	1002.671
217.680	25.416	1233.472	1002.077
218.694	25.648	1232.096	1002.161
219.709	25.631	1231.649	1001.617
220.723	25.424	1231.117	999.942
221.738	25.466	1230.297	999.421
222.753	25.402	1229.745	998.529
223.767	25.545	1229.155	998.756
224.782	25.699	1228.016	998.596
225.796	25.601	1228.046	997.987
226.811	25.626	1227.181	997.333
227.826	25.646	1226.939	997.164
228.840	25.515	1226.286	995.816
229.855	25.577	1225.407	995.357
230.869	25.643	1224.586	994.966
231.884	25.603	1223.654	993.900
232.899	25.557	1223.324	993.290
233.913	25.624	1222.589	992.977
234.928	25.783	1221.947	993.242
235.942	25.586	1221.463	991.677
236.957	25.644	1220.974	991.513
237.972	25.595	1219.965	990.337
238.986	25.525	1219.783	989.716
240.001	25.785	1218.786	990.246
241.015	25.816	1217.781	989.515
242.030	25.820	1217.086	988.884
243.045	25.766	1216.532	988.051
244.059	25.791	1216.031	987.694
245.074	25.868	1214.958	987.154
246.088	25.826	1213.969	986.034
247.103	25.747	1213.197	984.888
248.117	25.734	1212.671	984.305
249.132	25.745	1211.854	983.612
250.147	25.810	1211.330	983.452
251.161	25.973	1210.163	983.309
252.176	25.744	1209.971	981.817
253.190	25.935	1208.850	981.863
254.205	25.938	1208.354	981.385
255.220	25.791	1208.029	980.237
256.234	25.903	1207.185	980.076
257.249	25.923	1206.569	979.595
258.263	25.964	1205.854	979.153
259.278	25.978	1205.317	978.707
260.293	25.987	1204.992	978.402
261.307	25.909	1204.280	977.318
262.322	25.888	1203.978	976.869
263.336	25.893	1203.169	976.154
264.351	25.963	1202.386	975.811
265.366	25.803	1202.137	974.658
266.380	25.887	1201.453	974.473
267.395	25.914	1200.699	973.919
268.409	25.901	1200.149	973.318
269.424	25.961	1199.736	973.221
270.439	26.064	1198.634	972.797
271.453	25.999	1198.542	972.283
272.468	25.900	1197.676	970.961
273.482	25.842	1196.904	969.937
274.497	25.980	1196.463	970.238
275.512	26.022	1196.129	970.105
276.526	26.047	1195.270	969.460
277.541	26.087	1194.490	968.953
278.555	26.048	1193.671	967.998
279.570	26.115	1192.840	967.597
280.585	26.045	1192.432	966.802
281.599	26.089	1191.622	966.296
282.614	25.927	1190.795	964.672
283.628	26.001	1189.213	963.702
284.643	26.023	1188.829	963.423
285.657	26.123	1187.969	963.177
286.672	26.067	1186.955	961.968
287.687	26.075	1186.713	961.732
288.701	26.146	1185.863	961.333
289.716	26.201	1184.947	960.799
290.730	26.218	1184.241	960.232
291.745	26.176	1183.589	959.393
292.760	26.208	1182.892	958.914
293.774	26.156	1182.486	958.224
294.789	26.239	1181.665	957.914
295.803	26.189	1181.606	957.520
296.818	26.206	1180.778	956.851
297.833	26.211	1180.268	956.383
298.847	26.268	1179.388	955.883
299.862	26.434	1178.407	955.881
300.876	26.280	1177.703	954.412
301.891	26.263	1177.554	954.116
302.906	26.401	1176.642	954.023
303.920	26.361	1176.048	953.248
304.935	26.297	1175.393	952.295
305.949	26.243	1174.789	951.434
306.964	26.297	1174.396	951.317
307.979	26.287	1173.940	950.809
308.993	26.266	1173.195	950.012
310.008	26.412	1172.291	949.966
311.022	26.422	1171.354	949.173
312.037	26.478	1170.132	948.392
313.052	26.318	1169.710	947.128
314.066	26.262	1169.313	946.431
315.081	26.343	1168.273	945.929
316.095	26.424	1167.823	945.901
317.110	26.466	1167.142	945.489
318.125	26.474	1166.142	944.638
319.139	26.498	1165.940	944.511
320.154	26.381	1165.194	943.216
321.168	26.488	1164.453	943.091
322.183	26.463	1163.963	942.481
323.197	26.513	1163.636	942.394
324.212	26.364	1162.843	940.889
325.227	26.604	1162.304	941.620
326.241	26.502	1162.256	940.968
327.256	26.418	1161.185	939.580
328.270	26.387	1160.312	938.631
329.285	26.537	1159.687	938.820
330.300	26.598	1158.509	938.098
331.314	26.545	1157.965	937.298
332.329	26.498	1157.145	936.310
333.343	26.598	1156.186	935.970
334.358	26.655	1155.265	935.436
335.373	26.584	1154.688	934.519
336.387	26.684	1154.282	934.624
337.402	26.663	1153.614	933.893
338.416	26.638	1152.890	933.091
339.431	26.710	1151.989	932.654
340.446	26.736	1151.312	932.155
341.460	26.744	1150.887	931.771
342.475	26.675	1150.450	930.982
343.489	26.776	1149.353	930.528
344.504	26.759	1148.283	929.493
345.519	26.780	1147.304	928.726
346.533	26.759	1146.786	928.116
347.548	26.652	1146.244	927.045
348.562	26.762	1145.637	927.035
349.577	26.783	1144.360	926.027
350.592	26.672	1144.083	925.156
351.606	26.719	1143.426	924.782
352.621	26.781	1142.651	924.392
353.635	26.916	1141.979	924.451
354.650	26.818	1141.592	923.559
355.665	26.819	1140.792	922.836
356.679	26.972	1140.245	923.091
357.694	26.926	1139.374	922.071
358.708	26.851	1138.683	921.045
359.723	26.986	1138.089	921.168
360.738	26.829	1137.403	919.736
361.752	26.911	1137.088	919.816
362.767	26.949	1136.647	919.568
363.781	26.987	1136.045	919.195
364.796	26.965	1135.369	918.453
365.810	26.858	1134.868	917.429
366.825	26.919	1134.400	917.276
367.840	27.132	1133.408	917.469
368.854	27.031	1133.020	916.564
369.869	27.017	1132.470	915.966
370.883	27.047	1131.515	915.266
371.898	27.096	1130.969	914.991
372.913	27.073	1130.224	914.187
373.927	26.984	1130.056	913.523
374.942	27.008	1129.727	913.299
375.956	27.039	1128.784	912.612
376.971	27.221	1128.085	912.879
377.986	27.090	1127.934	912.019
379.000	27.216	1127.165	911.946
380.015	27.218	1126.505	911.345
381.029	27.091	1126.013	910.228
382.044	27.173	1124.860	909.628
383.059	27.187	1124.532	909.353
384.073	27.143	1123.740	908.411
385.088	27.320	1122.930	908.558
386.102	27.126	1122.421	907.099
387.117	27.172	1121.306	906.344
388.132	27.131	1120.751	905.615
389.146	27.260	1119.416	905.096
390.161	27.115	1119.333	904.226
391.175	27.126	1118.361	903.415
392.190	27.245	1117.692	903.388
393.205	27.255	1116.970	902.772
394.219	27.236	1116.513	902.232
395.234	27.296	1115.647	901.748
396.248	27.303	1114.679	900.922
397.263	27.385	1113.568	900.348
398.278	27.316	1113.660	900.002
399.292	27.379	1113.014	899.713
400.307	27.386	1111.831	898.710
401.321	27.327	1111.800	898.315
402.336	27.241	1111.154	897.290
403.350	27.410	1110.459	897.479
404.365	27.422	1109.654	896.810
405.380	27.403	1109.191	896.264
406.394	27.536	1107.926	895.815
407.409	27.323	1108.073	894.807
408.423	27.484	1106.971	894.628
409.438	27.486	1105.959	893.743
410.453	27.488	1105.668	893.438
411.467	27.613	1104.467	893.000
412.482	27.530	1103.741	891.930
413.496	27.595	1102.934	891.514
414.511	27.560	1102.762	891.125
415.526	27.540	1102.222	890.513
416.540	27.551	1101.857	890.193
417.555	27.633	1101.294	890.061
418.569	27.546	1101.044	889.357
419.584	27.567	1100.740	889.135
420.599	27.643	1099.806	888.669
421.613	81.386	1287.873	1336.178
422.628	76.176	1315.297	1336.321
