DTS Sentinel unit serial number:	SN413079Multiplexer serial number:	ORYXHardware model number:	OX4-SRSoftware version number:	ORYX F/W v4.00 Oryx Data Collector v3.7.2.0data status	okinstallation	princeton_trtdifferential loss correction	single-endedforward channel	channel 2reverse channel	N/Adate	2019/09/11time	14:41:10forward acquisition time	60.00reverse acquisition time	0.00gamma	496.2192k internal	0.2290k external	0.2290temperature offset calibration	1.0008default loss term (dB/km)	0.3790temperature slope calibration	1.0000multiplexer offset coefficient	1.0000multiplexer slope coefficient	1.0000fibre end	0.00T internal ref (°C)	42.37T ext. ref 1 (°C)	0.92T ext. ref 2 (°C)	38.24length (m)	temperature (°C)	Stokes	anti-Stokes-747.200	48.191	-0.235	-0.226
-746.185	30.051	0.129	-0.112
-745.171	-200.000	-0.023	-0.275
-744.156	800.000	-0.029	-0.108
-743.142	-200.000	0.033	0.169
-742.127	691.641	0.110	0.296
-741.112	383.900	0.161	-0.339
-740.098	84.705	0.184	-0.207
-739.083	167.553	0.169	-0.246
-738.069	-80.205	-0.152	0.052
-737.054	-200.000	-0.057	-0.278
-736.039	-122.131	0.110	-0.019
-735.025	-123.365	-0.296	0.048
-734.010	0.260	-0.104	-0.076
-732.996	800.000	0.037	-0.154
-731.981	47.312	-0.298	-0.284
-730.966	414.336	-0.157	0.343
-729.952	82.744	-0.134	0.150
-728.937	-172.762	-0.134	-0.004
-727.923	-34.049	-0.128	-0.072
-726.908	225.907	-0.118	-0.196
-725.894	-200.000	0.006	-0.182
-724.879	800.000	0.098	-0.279
-723.864	285.300	-0.075	-0.138
-722.850	-95.697	-0.255	0.070
-721.835	-21.975	0.097	-0.061
-720.821	77.573	0.142	-0.154
-719.806	66.851	-0.100	-0.104
-718.791	-200.000	-0.003	-0.117
-717.777	-133.707	-0.233	0.030
-716.762	-200.000	0.008	0.070
-715.748	800.000	0.018	-0.071
-714.733	173.221	0.122	-0.181
-713.718	59.967	-0.073	0.074
-712.704	-200.000	-0.036	0.327
-711.689	800.000	0.030	-0.131
-710.675	-57.698	0.140	-0.063
-709.660	26.290	-0.391	0.334
-708.645	-78.995	-0.081	0.028
-707.631	-56.453	-0.157	0.071
-706.616	-200.000	0.015	-0.223
-705.602	-25.197	-0.077	0.046
-704.587	465.334	-0.120	-0.275
-703.572	73.849	0.050	0.054
-702.558	-39.719	0.080	0.043
-701.543	-7.893	-0.346	-0.239
-700.529	92.109	-0.146	-0.169
-699.514	598.590	0.044	-0.111
-698.499	270.249	-0.160	-0.287
-697.485	-170.432	-0.153	0.005
-696.470	741.982	0.028	-0.077
-695.456	-46.384	-0.107	-0.054
-694.441	-200.000	-0.003	-0.246
-693.426	-200.000	0.003	0.054
-692.412	-59.171	0.195	-0.086
-691.397	800.000	-0.083	0.264
-690.383	47.909	-0.168	-0.160
-689.368	-200.000	-0.012	-0.062
-688.354	211.471	0.021	0.033
-687.339	-93.109	0.115	-0.033
-686.324	-23.278	0.084	0.052
-685.310	66.471	-0.119	-0.124
-684.295	-133.861	0.140	0.018
-683.281	-38.382	0.183	0.099
-682.266	227.252	-0.146	0.242
-681.251	-200.000	0.031	-0.229
-680.237	571.953	0.021	-0.052
-679.222	-200.000	-0.045	-0.284
-678.208	800.000	0.010	-0.027
-677.193	-200.000	0.003	-0.016
-676.178	-200.000	-0.042	-0.259
-675.164	-31.840	-0.233	-0.133
-674.149	436.106	0.088	0.195
-673.135	160.318	-0.125	-0.179
-672.120	71.569	-0.257	0.272
-671.105	-71.358	-0.159	-0.061
-670.091	800.000	-0.062	0.180
-669.076	-101.352	0.437	0.109
-668.062	333.111	-0.178	0.352
-667.047	-61.606	-0.178	-0.076
-666.032	-122.118	-0.209	0.035
-665.018	35.615	-0.108	-0.096
-664.003	280.705	-0.225	-0.411
-662.989	385.126	0.025	0.053
-661.974	-139.289	-0.174	0.019
-660.959	-21.994	0.229	0.142
-659.945	-200.000	-0.009	0.058
-658.930	-162.613	0.077	-0.004
-657.916	513.122	0.104	0.248
-656.901	368.972	0.034	0.070
-655.886	-200.000	-0.010	-0.185
-654.872	23.868	0.153	0.129
-653.857	800.000	0.036	0.106
-652.843	404.393	-0.034	-0.074
-651.828	121.851	-0.140	0.179
-650.814	134.293	0.049	-0.065
-649.799	-200.000	-0.032	-0.238
-648.784	-43.756	0.091	0.047
-647.770	-135.585	0.035	-0.004
-646.755	-76.916	0.168	-0.060
-645.741	-200.000	0.007	0.100
-644.726	-200.000	-0.014	0.071
-643.711	46.399	-0.301	-0.285
-642.697	-1.391	-0.174	0.125
-641.682	479.588	-0.043	0.100
-640.668	157.887	-0.168	-0.238
-639.653	-200.000	-0.003	0.036
-638.638	800.000	-0.026	0.078
-637.624	-48.113	-0.217	-0.107
-636.609	-200.000	0.002	0.655
-635.595	562.877	0.019	0.048
-634.580	247.869	-0.204	0.352
-633.565	800.000	-0.042	0.156
-632.551	107.493	0.167	-0.203
-631.536	-85.491	-0.113	0.036
-630.522	-200.000	0.064	-0.582
-629.507	800.000	0.030	0.114
-628.492	-182.512	-0.111	-0.002
-627.478	6.127	0.015	-0.012
-626.463	-133.338	-0.130	-0.017
-625.449	70.750	0.084	0.089
-624.434	-71.811	-0.064	-0.024
-623.419	734.357	-0.071	-0.193
-622.405	800.000	0.021	0.086
-621.390	38.272	-0.059	0.054
-620.376	-200.000	0.028	0.158
-619.361	382.177	-0.064	0.135
-618.346	378.083	-0.116	-0.242
-617.332	-148.089	-0.231	0.020
-616.317	-77.649	0.112	-0.040
-615.303	148.577	0.166	0.229
-614.288	-200.000	-0.017	-0.121
-613.273	-196.378	-0.085	0.001
-612.259	228.522	-0.087	0.145
-611.244	14.352	0.183	-0.146
-610.230	178.583	-0.192	-0.286
-609.215	530.763	0.055	-0.131
-608.201	181.146	-0.142	0.213
-607.186	-29.336	0.143	0.083
-606.171	-200.000	0.022	-0.257
-605.157	-147.540	-0.121	-0.010
-604.142	274.437	-0.029	0.052
-603.128	559.431	0.017	-0.041
-602.113	-68.972	0.121	-0.048
-601.098	-0.039	-0.056	0.040
-600.084	-152.035	-0.128	-0.009
-599.069	45.223	0.167	0.157
-598.055	800.000	-0.033	0.107
-597.040	320.051	0.120	-0.231
-596.025	396.912	-0.165	0.351
-595.011	-99.302	0.062	-0.016
-593.996	275.128	-0.144	0.260
-592.982	10.855	0.174	-0.135
-591.967	-109.185	-0.230	-0.050
-590.952	-109.576	-0.154	0.033
-589.938	-200.000	-0.142	-0.690
-588.923	453.263	-0.006	0.014
-587.909	205.969	0.104	0.164
-586.894	-50.176	0.104	0.050
-585.879	261.210	-0.189	-0.334
-584.865	-14.080	0.117	0.077
-583.850	-104.207	-0.076	0.018
-582.836	-32.395	-0.230	-0.131
-581.821	3.153	-0.399	-0.295
-580.806	800.000	-0.011	0.040
-579.792	800.000	-0.073	0.274
-578.777	800.000	0.079	-0.342
-577.763	-200.000	-0.004	-0.206
-576.748	-6.547	-0.144	-0.100
-575.733	75.917	-0.226	0.243
-574.719	-83.519	-0.129	-0.042
-573.704	-200.000	-0.019	-0.107
-572.690	381.481	0.151	-0.316
-571.675	-200.000	0.013	0.103
-570.661	52.847	0.161	-0.157
-569.646	50.431	-0.135	0.130
-568.631	-106.515	-0.210	-0.048
-567.617	800.000	-0.062	-0.276
-566.602	-128.542	-0.096	0.014
-565.588	-73.845	0.111	-0.041
-564.573	-53.036	0.125	-0.058
-563.558	-139.370	0.247	0.027
-562.544	678.349	0.050	0.133
-561.529	363.708	0.066	-0.135
-560.515	-69.358	-0.112	0.044
-559.500	-200.000	-0.025	0.259
-558.485	-71.997	0.062	-0.023
-557.471	-38.522	-0.195	-0.105
-556.456	294.531	0.239	0.444
-555.442	259.696	-0.061	0.107
-554.427	-98.211	0.285	-0.075
-553.412	202.635	0.184	0.288
-552.398	260.932	0.142	0.250
-551.383	575.794	0.179	0.444
-550.369	205.116	-0.118	-0.186
-549.354	53.419	-0.045	-0.044
-548.339	29.877	-0.197	-0.171
-547.325	407.635	-0.045	0.096
-546.310	159.122	0.038	0.054
-545.296	-159.327	-0.049	0.003
-544.281	386.920	-0.006	-0.014
-543.266	-65.068	0.227	0.093
-542.252	-108.643	0.104	0.023
-541.237	72.412	0.019	0.020
-540.223	68.980	0.063	-0.066
-539.208	-12.327	0.180	-0.120
-538.193	183.696	0.150	0.226
-537.179	-41.471	-0.027	0.014
-536.164	63.653	-0.297	0.303
-535.150	588.480	0.056	-0.141
-534.135	253.169	-0.175	-0.303
-533.121	800.000	0.046	-0.178
-532.106	-10.245	0.075	-0.050
-531.091	79.500	-0.232	-0.253
-530.077	722.445	-0.107	-0.290
-529.062	-200.000	0.078	0.351
-528.048	-200.000	0.041	0.226
-527.033	-63.231	0.340	0.143
-526.018	71.733	0.095	-0.100
-525.004	227.098	0.104	0.172
-523.989	29.418	-0.131	0.113
-522.975	-14.862	0.133	0.086
-521.960	-46.437	-0.288	0.144
-520.945	-200.000	-0.029	-0.213
-519.931	-50.643	-0.203	0.097
-518.916	-200.000	0.034	0.446
-517.902	-200.000	-0.056	0.317
-516.887	-105.075	0.219	-0.051
-515.872	503.949	0.080	0.188
-514.858	-200.000	0.041	0.278
-513.843	142.624	-0.119	0.161
-512.829	-33.992	0.206	0.115
-511.814	800.000	0.073	0.287
-510.799	65.724	-0.193	-0.199
-509.785	-64.236	0.378	-0.156
-508.770	-102.222	0.232	-0.057
-507.756	-71.252	-0.131	-0.050
-506.741	210.833	0.085	0.136
-505.726	25.578	0.226	0.191
-504.712	-200.000	-0.046	-0.346
-503.697	-200.000	-0.004	0.083
-502.683	-200.000	0.079	0.374
-501.668	-119.255	-0.215	-0.038
-500.653	204.417	0.196	0.308
-499.639	-74.785	-0.170	0.062
-498.624	-200.000	-0.039	0.194
-497.610	-38.195	0.109	-0.059
-496.595	290.382	0.077	0.141
-495.581	350.947	-0.084	0.169
-494.566	-153.072	0.056	0.004
-493.551	-58.957	0.267	-0.117
-492.537	-150.946	0.222	0.017
-491.522	-33.948	-0.298	0.166
-490.508	63.873	0.124	-0.127
-489.493	299.907	0.069	-0.129
-488.478	800.000	-0.025	-0.086
-487.464	52.944	-0.185	-0.179
-486.449	775.464	0.031	-0.086
-485.435	130.624	0.055	-0.072
-484.420	-126.179	0.121	-0.018
-483.405	-33.075	-0.172	0.097
-482.391	110.044	-0.252	-0.307
-481.376	-56.985	-0.241	-0.108
-480.362	265.081	-0.047	-0.083
-479.347	800.000	-0.018	-0.075
-478.332	-99.033	-0.113	-0.029
-477.318	-74.869	0.360	-0.131
-476.303	-200.000	0.051	-0.254
-475.289	-43.737	-0.289	-0.148
-474.274	-100.583	0.334	-0.084
-473.259	-66.439	-0.207	-0.083
-472.245	-173.397	-0.208	-0.006
-471.230	476.981	-0.088	0.201
-470.216	268.466	-0.092	-0.164
-469.201	-52.013	-0.130	0.061
-468.186	105.644	0.015	0.017
-467.172	-74.630	0.136	0.050
-466.157	15.275	-0.007	0.005
-465.143	-36.435	0.037	-0.020
-464.128	-88.618	-0.209	0.063
-463.113	-20.799	0.097	0.060
-462.099	-22.661	0.018	-0.011
-461.084	-139.766	-0.124	-0.013
-460.070	116.746	0.129	0.160
-459.055	-98.291	-0.283	0.073
-458.040	-200.000	0.006	-0.255
-457.026	74.385	-0.213	0.227
-456.011	800.000	-0.078	0.277
-454.997	141.135	0.097	0.130
-453.982	135.156	0.166	-0.218
-452.968	341.133	0.052	0.104
-451.953	274.561	-0.145	-0.259
-450.938	263.865	0.024	0.042
-449.924	-200.000	-0.016	-0.297
-448.909	61.007	0.220	-0.221
-447.895	506.418	-0.100	-0.235
-446.880	19.123	0.095	0.077
-445.865	-133.385	0.272	-0.035
-444.851	-200.000	-0.001	0.107
-443.836	775.851	0.054	0.151
-442.822	-68.656	0.152	-0.060
-441.807	53.930	0.124	-0.121
-440.792	554.413	-0.076	-0.186
-439.778	79.419	-0.132	0.143
-438.763	-100.212	0.059	0.015
-437.749	-200.000	0.008	-0.104
-436.734	-91.641	0.253	-0.073
-435.719	-72.406	-0.133	-0.050
-434.705	-84.446	0.227	-0.073
-433.690	-150.811	-0.156	0.012
-432.676	181.848	0.066	-0.098
-431.661	-104.225	-0.331	-0.078
-430.646	-200.000	0.003	-0.126
-429.632	233.585	0.015	-0.024
-428.617	-79.427	-0.232	-0.080
-427.603	-81.751	-0.181	0.060
-426.588	-200.000	0.010	0.076
-425.573	-200.000	0.007	-0.373
-424.559	-200.000	0.032	-0.344
-423.544	-157.770	0.293	0.018
-422.530	117.393	-0.106	0.132
-421.515	-110.801	0.288	0.060
-420.500	-85.526	0.191	0.060
-419.486	-84.557	-0.201	0.064
-418.471	-94.291	0.179	0.050
-417.457	-200.000	0.017	0.408
-416.442	169.802	-0.168	-0.242
-415.428	-200.000	-0.002	-0.096
-414.413	79.662	0.114	-0.123
-413.398	800.000	-0.085	-0.317
-412.384	-200.000	-0.025	0.129
-411.369	29.898	0.278	0.240
-410.355	341.331	0.134	0.264
-409.340	-128.247	-0.210	0.030
-408.325	-28.587	0.230	0.134
-407.311	-14.797	-0.212	0.138
-406.296	-122.508	-0.138	-0.023
-405.282	-200.000	0.019	-0.122
-404.267	92.891	0.297	0.339
-403.252	-6.810	0.218	0.150
-402.238	-43.431	0.115	-0.059
-401.223	-55.438	-0.341	-0.155
-400.209	-163.384	0.040	0.002
-399.194	580.890	-0.055	0.137
-398.179	122.285	-0.055	-0.069
-397.165	800.000	0.079	0.253
-396.150	-133.199	0.485	0.062
-395.136	-39.603	-0.223	-0.118
-394.121	150.844	0.162	0.222
-393.106	-21.765	-0.114	-0.070
-392.092	103.818	-0.139	-0.166
-391.077	-127.097	0.242	0.036
-390.063	-113.692	-0.233	-0.046
-389.048	358.728	0.149	0.300
-388.033	45.853	0.159	0.149
-387.019	-20.475	0.332	-0.206
-386.004	2.115	0.405	-0.296
-384.990	-128.023	-0.065	0.009
-383.975	-64.845	0.032	0.013
-382.960	-154.461	-0.123	0.008
-381.946	420.351	0.066	-0.144
-380.931	539.037	-0.070	-0.168
-379.917	370.858	0.217	-0.443
-378.902	-65.556	0.290	-0.118
-377.888	-157.726	0.185	-0.011
-376.873	-166.111	-0.259	-0.011
-375.858	-74.537	0.391	0.142
-374.844	-200.000	0.014	0.102
-373.829	-169.222	-0.345	-0.013
-372.815	159.888	-0.264	0.371
-371.800	114.071	-0.062	-0.076
-370.785	-200.000	-0.025	-0.131
-369.771	123.377	-0.264	-0.335
-368.756	-200.000	0.017	0.161
-367.742	-200.000	0.030	-0.211
-366.727	-200.000	-0.028	-0.138
-365.712	800.000	0.017	0.050
-364.698	73.454	-0.220	0.233
-363.683	-56.282	-0.267	0.120
-362.669	547.465	-0.065	-0.157
-361.654	694.536	-0.067	0.178
-360.639	-11.200	-0.326	0.217
-359.625	404.638	-0.014	-0.031
-358.610	483.119	0.120	-0.276
-357.596	-200.000	0.029	-0.259
-356.581	0.594	0.189	-0.137
-355.566	-74.243	0.352	0.128
-354.552	-200.000	0.022	0.315
-353.537	-104.717	-0.123	-0.029
-352.523	0.584	0.141	-0.102
-351.508	-33.837	-0.156	0.087
-350.493	-118.242	-0.319	0.057
-349.479	-7.487	-0.154	0.105
-348.464	218.412	0.090	0.145
-347.450	-55.838	-0.076	0.034
-346.435	93.301	0.022	-0.025
-345.420	577.547	-0.078	-0.192
-344.406	-37.957	0.088	-0.047
-343.391	774.122	0.116	-0.318
-342.377	800.000	0.080	-0.230
-341.362	9.675	-0.172	-0.132
-340.348	412.679	0.153	0.328
-339.333	-200.000	0.005	0.346
-338.318	90.102	0.157	-0.176
-337.304	-200.000	0.024	-0.315
-336.289	-46.538	-0.424	0.210
-335.275	-1.222	0.266	-0.190
-334.260	82.768	0.080	0.087
-333.245	-4.946	0.010	0.007
-332.231	-5.460	-0.050	0.035
-331.216	-91.845	0.342	-0.098
-330.202	-63.998	-0.072	-0.030
-329.187	-66.984	0.214	0.085
-328.172	-78.280	0.199	0.069
-327.158	212.099	-0.124	0.197
-326.143	-65.503	-0.300	-0.122
-325.129	1.203	-0.107	0.077
-324.114	-102.591	-0.078	-0.019
-323.099	539.365	-0.037	-0.089
-322.085	13.147	-0.089	-0.070
-321.070	418.832	-0.160	0.345
-320.056	20.805	0.150	-0.123
-319.041	-179.296	0.212	0.005
-318.026	-61.552	-0.238	0.101
-317.012	-105.098	-0.261	-0.060
-315.997	800.000	-0.051	-0.200
-314.983	165.646	-0.099	-0.141
-313.968	800.000	-0.047	-0.195
-312.953	800.000	-0.068	-0.198
-311.939	314.214	-0.115	0.218
-310.924	95.896	0.212	0.244
-309.910	313.370	0.260	0.493
-308.895	698.252	-0.255	0.676
-307.880	-52.229	-0.091	0.043
-306.866	-113.158	0.268	0.053
-305.851	-93.643	-0.268	0.075
-304.837	321.430	-0.063	-0.120
-303.822	78.115	-0.084	-0.091
-302.807	-93.891	-0.216	-0.060
-301.793	-200.000	-0.001	0.029
-300.778	-168.340	0.149	0.006
-299.764	446.368	-0.130	-0.288
-298.749	-200.000	0.006	-0.179
-297.735	800.000	0.065	0.215
-296.720	-108.562	-0.355	-0.077
-295.705	187.815	0.078	-0.117
-294.691	201.507	-0.174	-0.270
-293.676	800.000	0.079	-0.345
-292.662	-99.393	-0.263	0.067
-291.647	-100.495	-0.550	0.137
-290.632	173.731	-0.304	0.441
-289.618	27.369	0.207	0.175
-288.603	179.723	-0.030	-0.044
-287.589	-24.641	0.327	-0.196
-286.574	800.000	-0.023	0.075
-285.559	-200.000	-0.027	-0.226
-284.545	37.480	-0.149	0.133
-283.530	-97.490	-0.149	-0.039
-282.516	-32.761	-0.260	-0.146
-281.501	-23.451	0.167	-0.101
-280.486	-154.389	0.156	-0.011
-279.472	34.428	-0.133	-0.117
-278.457	379.587	0.088	-0.182
-277.443	149.162	0.127	-0.173
-276.428	165.507	0.115	0.164
-275.413	-127.390	0.489	0.072
-274.399	-153.298	0.063	0.004
-273.384	-81.795	0.086	-0.028
-272.370	237.452	-0.168	0.281
-271.355	35.022	0.232	-0.204
-270.340	-172.515	0.065	0.002
-269.326	781.587	-0.024	0.065
-268.311	797.583	0.087	0.241
-267.297	-112.028	0.282	-0.057
-266.282	41.756	0.094	0.086
-265.267	-200.000	-0.034	-0.151
-264.253	129.746	-0.117	0.150
-263.238	195.564	0.059	0.090
-262.224	575.993	0.049	0.120
-261.209	-200.000	0.049	0.262
-260.195	-40.798	-0.159	-0.083
-259.180	-127.812	-0.137	-0.020
-258.165	-200.000	-0.022	-0.188
-257.151	-117.716	-0.150	-0.027
-256.136	177.509	0.022	0.033
-255.122	43.850	-0.100	-0.092
-254.107	-200.000	-0.035	-0.259
-253.092	-38.848	0.205	-0.109
-252.078	69.809	-0.237	0.246
-251.063	218.299	0.260	0.417
-250.049	-200.000	-0.010	-0.223
-249.034	-200.000	0.134	-0.001
-248.019	-200.000	0.022	-0.135
-247.005	-176.181	0.208	-0.005
-245.990	250.673	-0.062	0.105
-244.976	-30.417	0.258	-0.147
-243.961	-61.929	0.252	0.106
-242.946	384.998	0.104	-0.215
-241.932	155.647	-0.181	-0.251
-240.917	-24.707	-0.278	-0.166
-239.903	-47.971	0.429	-0.208
-238.888	-160.976	-0.028	-0.001
-237.873	185.919	-0.140	0.210
-236.859	-200.000	-0.009	-0.240
-235.844	800.000	-0.039	-0.120
-234.830	339.671	-0.232	0.454
-233.815	246.462	-0.094	-0.159
-232.800	800.000	-0.101	-0.303
-231.786	-200.000	-0.007	-0.049
-230.771	-179.407	0.462	0.010
-229.757	-44.017	-0.116	-0.059
-228.742	-179.180	0.437	-0.010
-227.727	800.000	-0.074	0.220
-226.713	-200.000	-0.030	-0.289
-225.698	525.003	0.046	0.110
-224.684	-113.747	-0.167	0.033
-223.669	-196.258	-0.086	-0.001
-222.655	161.314	0.242	0.339
-221.640	-68.743	0.094	-0.036
-220.625	-67.461	0.110	0.043
-219.611	-126.718	0.193	-0.029
-218.596	300.957	-0.198	0.367
-217.582	800.000	-0.046	0.199
-216.567	78.150	-0.059	0.064
-215.552	-200.000	-0.025	-0.138
-214.538	126.118	0.322	0.409
-213.523	-173.244	0.078	-0.002
-212.509	110.202	-0.068	-0.082
-211.494	-73.719	-0.105	0.039
-210.479	-68.204	0.146	-0.057
-209.465	-200.000	0.038	-0.200
-208.450	35.470	-0.176	0.155
-207.436	-48.700	0.091	0.044
-206.421	800.000	0.044	0.174
-205.406	435.408	-0.048	-0.105
-204.392	-26.310	0.354	-0.208
-203.377	247.194	0.067	-0.114
-202.363	-76.643	-0.151	-0.053
-201.348	-51.841	0.139	0.065
-200.333	-200.000	-0.002	-0.214
-199.319	142.405	-0.150	0.199
-198.304	-95.307	-0.239	-0.065
-197.290	-200.000	0.047	-0.275
-196.275	74.273	-0.154	-0.162
-195.260	-200.000	0.016	0.110
-194.246	-78.845	-0.143	0.049
-193.231	-156.009	0.214	0.014
-192.217	69.150	-0.155	0.160
-191.202	287.203	-0.047	0.085
-190.187	773.336	-0.100	0.274
-189.173	135.743	0.108	0.140
-188.158	-30.859	-0.152	-0.086
-187.144	72.249	0.163	0.170
-186.129	-102.638	0.367	0.088
-185.114	19.770	0.095	-0.077
-184.100	-106.386	-0.659	0.148
-183.085	-128.194	-0.237	0.034
-182.071	-73.044	-0.101	0.037
-181.056	-200.000	-0.002	0.157
-180.042	800.000	-0.163	0.453
-179.027	-157.289	0.191	-0.012
-178.012	-187.281	0.327	-0.004
-176.998	800.000	-0.010	-0.040
-175.983	239.805	-0.137	-0.228
-174.969	-79.962	0.104	0.035
-173.954	437.712	0.096	0.211
-172.939	-200.000	0.011	-0.116
-171.925	-200.000	-0.041	-0.207
-170.910	-9.360	0.233	-0.156
-169.896	-200.000	-0.038	-0.207
-168.881	293.414	-0.206	0.377
-167.866	549.441	0.079	0.190
-166.852	200.827	-0.017	0.027
-165.837	800.000	0.069	-0.203
-164.823	-136.303	-0.197	-0.023
-163.808	154.942	0.062	0.086
-162.793	-113.490	-0.190	-0.037
-161.779	67.982	0.231	-0.237
-160.764	-200.000	0.076	-0.335
-159.750	-200.000	0.002	0.068
-158.735	51.527	0.093	0.088
-157.720	800.000	-0.122	-0.360
-156.706	332.424	0.132	-0.256
-155.691	70.520	0.257	-0.266
-154.677	234.034	-0.034	-0.056
-153.662	-200.000	0.021	0.318
-152.647	-200.000	-0.018	0.156
-151.633	26.567	0.126	-0.106
-150.618	46.281	-0.197	-0.183
-149.604	-47.577	-0.088	0.043
-148.589	30.678	0.142	0.122
-147.574	245.254	-0.120	-0.202
-146.560	-25.283	0.076	-0.045
-145.545	-200.000	-0.013	0.055
-144.531	-38.101	-0.160	-0.085
-143.516	-200.000	0.021	-0.187
-142.502	800.000	0.056	-0.229
-141.487	-200.000	0.050	-0.370
-140.472	197.409	0.149	0.228
-139.458	353.654	-0.057	-0.112
-138.443	-70.932	-0.144	-0.054
-137.429	264.720	0.068	-0.118
-136.414	-118.100	0.100	0.018
-135.399	-122.254	0.203	-0.033
-134.385	-200.000	-0.012	-0.100
-133.370	800.000	0.065	0.214
-132.356	800.000	0.146	0.484
-131.341	-200.000	-0.009	-0.159
-130.326	0.296	0.213	0.152
-129.312	-109.879	0.430	0.090
-128.297	-200.000	-0.015	-0.101
-127.283	4.580	-0.277	-0.204
-126.268	-165.598	0.143	-0.006
-125.253	-74.821	0.220	-0.079
-124.239	-78.348	0.216	0.074
-123.224	82.646	-0.176	-0.191
-122.210	-29.885	-0.100	0.057
-121.195	-165.723	0.511	-0.022
-120.180	34.923	-0.124	0.109
-119.166	30.423	0.109	-0.093
-118.151	-20.521	0.226	-0.139
-117.137	-142.637	0.185	-0.018
-116.122	-200.000	0.018	-0.111
-115.107	-200.000	0.025	0.117
-114.093	-200.000	0.022	-0.145
-113.078	-200.000	-0.032	-0.312
-112.064	-3.171	0.138	0.096
-111.049	-4.141	0.246	-0.170
-110.034	-200.000	-0.007	-0.087
-109.020	274.803	0.265	-0.469
-108.005	101.940	0.175	0.204
-106.991	800.000	-0.084	0.289
-105.976	13.519	0.332	0.258
-104.962	551.539	0.081	0.194
-103.947	-79.836	0.155	-0.052
-102.932	26.632	-0.105	-0.088
-101.918	-200.000	-0.021	-0.097
-100.903	-112.623	0.389	-0.077
-99.889	800.000	0.059	0.236
-98.874	80.088	-0.198	0.213
-97.859	163.574	0.182	-0.256
-96.845	-60.496	0.263	0.112
-95.830	-19.147	-0.146	0.091
-94.816	-101.744	0.310	0.075
-93.801	415.068	0.042	0.090
-92.786	-51.613	0.136	0.063
-91.772	-200.000	-0.016	-0.369
-90.757	-113.566	-0.243	-0.047
-89.743	-2.591	0.171	0.120
-88.728	-110.964	0.144	-0.029
-87.713	257.649	0.038	-0.064
-86.699	451.930	-0.087	-0.192
-85.684	-75.557	0.213	-0.076
-84.670	675.108	0.053	-0.136
-83.655	-200.000	-0.019	0.110
-82.640	-200.000	-0.050	0.330
-81.626	800.000	-0.057	0.165
-80.611	-63.940	-0.134	0.055
-79.597	70.146	-0.222	0.229
-78.582	-200.000	0.034	-0.206
-77.567	458.529	0.053	0.117
-76.553	61.560	-0.163	-0.162
-75.538	-200.000	-0.014	0.385
-74.524	-200.000	-0.018	0.221
-73.509	800.000	0.114	-0.339
-72.494	-12.941	0.017	0.011
-71.480	-200.000	0.054	0.238
-70.465	-200.000	0.080	0.428
-69.451	537.280	-0.139	0.328
-68.436	-200.000	0.044	-0.207
-67.422	-200.000	-0.002	-0.032
-66.407	-200.000	0.024	-0.192
-65.392	144.075	0.080	0.107
-64.378	800.000	0.090	0.321
-63.363	-200.000	-0.014	0.112
-62.349	800.000	-0.079	-0.343
-61.334	223.630	-0.529	-0.851
-60.319	-29.219	0.390	0.223
-59.305	-200.000	0.081	-0.682
-58.290	278.891	0.371	0.660
-57.276	733.622	0.634	1.692
-56.261	-200.000	75.144	533.582
-55.246	560.926	1302.836	3140.718
-54.232	145.505	2538.956	3391.538
-53.217	113.377	2348.625	2842.832
-52.203	52.046	1962.719	1864.779
-51.188	45.977	1749.481	1614.577
-50.173	42.837	1702.609	1547.163
-49.159	56.800	1735.926	1685.765
-48.144	62.887	1754.309	1750.599
-47.130	45.645	1718.611	1583.274
-46.115	42.450	1704.576	1545.727
-45.100	42.306	1699.616	1540.064
-44.086	42.236	1696.820	1536.935
-43.071	42.202	1694.169	1534.207
-42.057	42.061	1692.308	1531.385
-41.042	42.169	1690.283	1530.316
-40.027	42.241	1688.110	1528.837
-39.013	42.244	1686.183	1527.055
-37.998	42.176	1684.465	1524.921
-36.984	42.298	1682.284	1523.816
-35.969	42.409	1680.830	1523.277
-34.954	42.398	1679.692	1522.102
-33.940	42.349	1677.922	1520.070
-32.925	42.455	1675.416	1518.542
-31.911	42.459	1674.102	1517.320
-30.896	42.383	1672.146	1514.914
-29.881	42.424	1670.999	1514.124
-28.867	42.337	1668.813	1511.425
-27.852	42.444	1666.832	1510.378
-26.838	42.337	1665.647	1508.435
-25.823	42.348	1664.442	1507.372
-24.809	42.476	1662.374	1506.399
-23.794	42.366	1661.522	1504.742
-22.779	42.383	1659.679	1503.137
-21.765	42.392	1658.385	1501.974
-20.750	42.350	1656.603	1499.989
-19.736	42.408	1654.937	1498.855
-18.721	42.342	1653.840	1497.311
-17.706	42.350	1652.351	1495.956
-16.692	42.388	1650.330	1494.356
-15.677	42.453	1648.758	1493.356
-14.663	42.334	1647.704	1491.454
-13.648	42.402	1646.034	1490.388
-12.633	42.361	1644.944	1489.040
-11.619	42.456	1642.776	1487.719
-10.604	42.423	1641.252	1486.038
-9.590	42.441	1639.838	1484.834
-8.575	42.397	1639.118	1483.795
-7.560	42.435	1637.699	1482.730
-6.546	42.463	1636.211	1481.534
-5.531	42.339	1635.535	1479.945
-4.517	42.407	1634.259	1479.238
-3.502	42.422	1633.017	1478.167
-2.487	42.378	1631.681	1476.573
-1.473	42.467	1621.332	1467.799
-0.458	40.473	1601.216	1435.116
0.556	35.615	1600.158	1399.864
1.571	32.723	1624.542	1399.645
2.586	31.812	1639.061	1405.197
3.600	27.898	1584.870	1330.181
4.615	15.097	1463.699	1141.670
5.629	3.399	1386.354	1005.305
6.644	1.165	1375.872	983.145
7.659	0.904	1374.513	980.398
8.673	0.818	1373.674	979.156
9.688	0.783	1371.817	977.519
10.702	0.557	1369.088	974.028
11.717	4.551	1377.465	1005.787
12.731	15.755	1399.279	1094.936
13.746	23.539	1412.599	1156.204
14.761	24.382	1412.524	1161.531
15.775	24.482	1412.284	1161.879
16.790	24.511	1411.809	1161.573
17.804	24.621	1411.011	1161.532
18.819	24.779	1410.989	1162.437
19.834	24.827	1409.809	1161.677
20.848	24.860	1409.081	1161.187
21.863	24.859	1408.468	1160.569
22.877	24.953	1407.391	1160.188
23.892	24.977	1406.057	1159.141
24.907	24.993	1405.066	1158.325
25.921	24.869	1404.583	1157.023
26.936	24.805	1403.760	1155.831
27.950	24.893	1402.410	1155.184
28.965	24.880	1401.072	1153.900
29.980	24.868	1399.969	1152.812
30.994	24.868	1398.993	1151.901
32.009	24.857	1397.865	1150.804
33.023	24.856	1396.644	1149.690
34.038	24.887	1395.298	1148.678
35.053	24.923	1394.168	1147.874
36.067	24.758	1393.570	1146.226
37.082	24.865	1392.453	1145.891
38.096	24.844	1391.597	1144.948
39.111	24.803	1390.837	1143.959
40.126	24.851	1390.393	1143.800
41.140	24.836	1389.741	1143.070
42.155	24.915	1389.474	1143.250
43.169	24.787	1389.514	1142.367
44.184	24.782	1389.088	1141.884
45.199	24.840	1388.269	1141.479
46.213	24.864	1387.810	1141.153
47.228	24.898	1387.012	1140.612
48.242	24.901	1385.468	1139.261
49.257	24.877	1384.307	1138.052
50.271	24.876	1382.627	1136.567
51.286	24.929	1381.341	1135.743
52.301	24.844	1380.088	1134.078
53.315	24.927	1379.265	1133.821
54.330	24.972	1378.145	1133.085
55.344	24.838	1377.441	1131.561
56.359	24.803	1376.490	1130.459
57.374	24.906	1375.216	1129.962
58.388	24.799	1375.140	1129.123
59.403	24.863	1374.847	1129.187
60.417	24.862	1373.939	1128.335
61.432	24.835	1373.182	1127.443
62.447	24.909	1372.052	1126.880
63.461	24.860	1371.401	1125.940
64.476	24.849	1370.332	1124.895
65.490	24.939	1368.645	1123.972
66.505	24.909	1367.289	1122.572
67.520	24.804	1366.135	1120.872
68.534	24.880	1365.412	1120.649
69.549	24.892	1364.427	1119.818
70.563	24.863	1363.395	1118.693
71.578	24.932	1361.888	1117.786
72.593	24.777	1361.814	1116.661
73.607	24.905	1360.508	1116.286
74.622	24.981	1359.934	1116.195
75.636	24.859	1359.572	1115.035
76.651	24.817	1358.599	1113.878
77.666	24.839	1357.862	1113.311
78.680	24.949	1357.677	1113.747
79.695	24.869	1356.895	1112.511
80.709	24.896	1355.621	1111.534
81.724	24.793	1355.284	1110.517
82.739	24.928	1354.015	1110.222
83.753	25.005	1352.750	1109.559
84.768	24.864	1352.170	1108.115
85.782	24.936	1350.582	1107.160
86.797	24.896	1349.886	1106.243
87.812	24.869	1348.518	1104.856
88.826	24.829	1347.886	1103.994
89.841	24.799	1347.082	1103.057
90.855	24.932	1345.671	1102.619
91.870	24.974	1344.265	1101.631
92.884	24.980	1343.429	1100.886
93.899	24.888	1343.012	1099.879
94.914	24.989	1342.088	1099.643
95.928	24.854	1341.933	1098.591
96.943	24.786	1341.247	1097.513
97.957	24.920	1340.420	1097.563
98.972	25.016	1338.860	1096.776
99.987	24.925	1338.202	1095.583
101.001	24.879	1337.175	1094.368
102.016	24.841	1336.571	1093.541
103.030	24.950	1335.583	1093.301
104.045	24.908	1334.984	1092.460
105.060	24.904	1333.829	1091.394
106.074	24.923	1332.495	1090.320
107.089	24.910	1331.810	1089.587
108.103	25.072	1330.255	1089.199
109.118	25.040	1329.318	1088.143
110.133	24.964	1328.280	1086.733
111.147	25.066	1327.093	1086.286
112.162	25.015	1326.056	1085.031
113.176	25.009	1325.140	1084.151
114.191	25.011	1324.469	1083.520
115.206	24.920	1323.385	1081.986
116.220	25.042	1321.780	1081.315
117.235	24.999	1321.011	1080.328
118.249	25.079	1320.068	1079.945
119.264	24.884	1319.937	1078.567
120.279	25.031	1318.459	1078.150
121.293	24.966	1317.823	1077.144
122.308	24.982	1317.667	1077.017
123.322	25.168	1316.210	1076.847
124.337	24.952	1315.671	1075.013
125.352	25.048	1314.338	1074.406
126.366	25.018	1313.495	1073.443
127.381	25.005	1312.672	1072.598
128.395	25.153	1311.676	1072.571
129.410	25.011	1311.554	1071.529
130.424	25.085	1310.353	1070.896
131.439	25.138	1309.623	1070.517
132.454	24.961	1308.796	1068.693
133.468	25.103	1307.762	1068.598
134.483	25.072	1307.705	1068.274
135.497	25.099	1306.684	1067.505
136.512	25.128	1305.508	1066.624
137.527	25.019	1304.852	1065.346
138.541	25.066	1303.248	1064.218
139.556	24.973	1301.925	1062.497
140.570	24.991	1301.329	1062.020
141.585	25.070	1300.082	1061.380
142.600	25.056	1298.755	1060.116
143.614	25.100	1297.950	1059.624
144.629	25.070	1296.996	1058.578
145.643	25.027	1295.960	1057.382
146.658	24.956	1295.096	1056.167
147.673	24.949	1293.985	1055.128
148.687	24.926	1292.913	1054.021
149.702	24.956	1291.828	1053.220
150.716	24.958	1290.898	1052.385
151.731	25.031	1289.576	1051.642
152.746	24.953	1288.751	1050.417
153.760	25.096	1287.175	1049.878
154.775	25.025	1286.489	1048.807
155.789	25.031	1285.554	1047.987
156.804	25.018	1284.205	1046.717
157.819	25.044	1283.758	1046.412
158.833	25.164	1282.850	1046.283
159.848	25.083	1282.065	1045.075
160.862	25.149	1281.341	1044.778
161.877	24.953	1280.782	1043.093
162.892	25.055	1279.514	1042.560
163.906	25.224	1278.742	1042.820
164.921	25.069	1278.238	1041.415
165.935	25.156	1277.618	1041.326
166.950	25.080	1277.019	1040.300
167.964	25.231	1276.084	1040.321
168.979	25.089	1276.092	1039.412
169.994	25.189	1274.598	1038.684
171.008	25.017	1274.728	1037.704
172.023	25.156	1273.409	1037.344
173.037	25.042	1273.115	1036.350
174.052	25.195	1272.017	1036.248
175.067	25.170	1271.276	1035.407
176.081	25.124	1270.612	1034.513
177.096	25.236	1269.876	1034.469
178.110	25.087	1269.068	1032.861
179.125	25.247	1267.551	1032.452
180.140	25.068	1267.255	1031.089
181.154	25.214	1265.732	1030.598
182.169	25.332	1264.113	1029.867
183.183	25.177	1263.373	1028.287
184.198	25.153	1262.783	1027.573
185.213	25.114	1261.696	1026.375
186.227	25.284	1260.331	1026.150
187.242	25.244	1259.397	1025.066
188.256	25.190	1258.939	1024.298
189.271	25.209	1258.311	1023.801
190.286	25.189	1257.634	1023.046
191.300	25.184	1256.770	1022.227
192.315	25.222	1256.326	1021.994
193.329	25.151	1255.927	1021.170
194.344	25.280	1255.506	1021.475
195.359	25.251	1255.128	1020.910
196.373	25.210	1254.532	1020.102
197.388	25.223	1253.732	1019.432
198.402	25.247	1253.560	1019.338
199.417	25.179	1253.614	1018.911
200.432	25.238	1252.500	1018.245
201.446	25.237	1252.232	1017.933
202.461	25.148	1251.360	1016.630
203.475	25.215	1250.429	1016.166
204.490	25.349	1249.093	1015.745
205.504	25.365	1248.049	1014.897
206.519	25.283	1247.466	1013.873
207.534	25.338	1246.375	1013.204
208.548	25.230	1245.748	1011.998
209.563	25.322	1245.056	1011.860
210.577	25.287	1244.184	1010.867
211.592	25.341	1243.216	1010.294
212.607	25.418	1242.476	1010.039
213.621	25.328	1241.431	1008.595
214.636	25.306	1240.911	1007.956
215.650	25.340	1239.975	1007.299
216.665	25.423	1238.814	1006.732
217.680	25.398	1238.262	1006.054
218.694	25.350	1237.256	1004.881
219.709	25.468	1236.603	1004.920
220.723	25.322	1235.839	1003.397
221.738	25.497	1234.628	1003.298
222.753	25.289	1234.379	1001.848
223.767	25.362	1233.950	1001.816
224.782	25.296	1233.504	1001.000
225.796	25.488	1232.536	1001.196
226.811	25.503	1231.942	1000.706
227.826	25.502	1231.086	999.917
228.840	25.440	1230.703	999.171
229.855	25.480	1230.234	998.923
230.869	25.392	1229.745	997.954
231.884	25.414	1228.672	997.113
232.899	25.356	1228.098	996.239
233.913	25.499	1227.121	996.150
234.928	25.525	1227.018	996.126
235.942	25.578	1226.058	995.549
236.957	25.624	1225.372	995.158
237.972	25.489	1224.779	993.841
238.986	25.479	1224.360	993.362
240.001	25.503	1224.016	993.124
241.015	25.572	1223.056	992.638
242.030	25.548	1222.069	991.617
243.045	25.599	1221.659	991.480
244.059	25.577	1220.497	990.325
245.074	25.695	1219.823	990.341
246.088	25.629	1219.020	989.237
247.103	25.596	1218.368	988.444
248.117	25.604	1217.298	987.529
249.132	25.683	1216.367	987.121
250.147	25.683	1216.007	986.738
251.161	25.663	1215.290	985.959
252.176	25.644	1214.540	985.161
253.190	25.696	1213.957	984.888
254.205	25.690	1213.308	984.239
255.220	25.755	1212.922	984.198
256.234	25.692	1212.622	983.520
257.249	25.816	1211.328	983.061
258.263	25.680	1210.855	981.846
259.278	25.675	1210.403	981.366
260.293	25.762	1209.865	981.317
261.307	25.786	1209.261	980.872
262.322	25.707	1208.738	979.933
263.336	25.784	1207.700	979.422
264.351	25.715	1207.514	978.810
265.366	25.708	1206.636	977.973
266.380	25.673	1206.043	977.214
267.395	25.747	1205.089	976.759
268.409	25.731	1204.949	976.470
269.424	25.866	1203.933	976.292
270.439	25.670	1204.066	975.254
271.453	25.828	1203.253	975.364
272.468	25.783	1202.260	974.227
273.482	25.824	1201.283	973.572
274.497	25.679	1201.368	972.771
275.512	25.865	1200.612	973.078
276.526	25.865	1199.786	972.321
277.541	25.951	1198.643	971.773
278.555	25.793	1198.417	970.652
279.570	25.935	1197.509	970.595
280.585	25.874	1196.492	969.355
281.599	25.791	1196.274	968.648
282.614	25.801	1195.418	967.924
283.628	26.009	1193.883	967.712
284.643	25.915	1193.280	966.632
285.657	25.904	1192.358	965.742
286.672	25.866	1191.547	964.797
287.687	25.921	1190.518	964.172
288.701	25.942	1190.024	963.797
289.716	25.934	1189.617	963.342
290.730	25.956	1188.770	962.688
291.745	26.007	1188.602	962.739
292.760	26.089	1187.600	962.279
293.774	26.020	1187.478	961.726
294.789	26.036	1186.537	960.966
295.803	26.032	1186.113	960.516
296.818	26.071	1185.589	960.213
297.833	26.096	1184.397	959.295
298.847	26.110	1183.603	958.639
299.862	26.060	1183.128	957.907
300.876	26.044	1182.542	957.264
301.891	26.116	1182.012	957.131
302.906	26.091	1181.388	956.407
303.920	26.087	1180.935	955.938
304.935	26.103	1180.055	955.222
305.949	26.078	1179.543	954.592
306.964	26.104	1178.863	954.094
307.979	26.184	1177.984	953.723
308.993	26.161	1177.233	952.908
310.008	26.203	1176.589	952.524
311.022	26.220	1175.732	951.833
312.037	26.366	1174.986	951.917
313.052	26.093	1174.559	950.049
314.066	26.247	1173.440	949.869
315.081	26.147	1172.590	948.570
316.095	26.279	1172.078	948.766
317.110	26.131	1171.460	947.408
318.125	26.293	1170.849	947.677
319.139	26.278	1170.032	946.852
320.154	26.354	1169.655	946.864
321.168	26.260	1169.222	945.935
322.183	26.203	1168.512	944.981
323.197	26.247	1167.878	944.611
324.212	26.369	1167.126	944.561
325.227	26.306	1166.983	944.032
326.241	26.271	1166.473	943.354
327.256	26.234	1165.860	942.578
328.270	26.412	1164.559	942.372
329.285	26.232	1164.263	941.111
330.300	26.480	1162.700	941.053
331.314	26.432	1162.401	940.482
332.329	26.456	1161.287	939.618
333.343	26.283	1160.934	938.353
334.358	26.343	1159.658	937.549
335.373	26.361	1159.117	937.126
336.387	26.443	1158.456	936.929
337.402	26.474	1157.800	936.476
338.416	26.455	1157.278	935.872
339.431	26.519	1156.582	935.559
340.446	26.414	1156.057	934.508
341.460	26.585	1155.139	934.568
342.475	26.575	1154.307	933.761
343.489	26.620	1153.502	933.260
344.504	26.582	1152.432	932.113
345.519	26.543	1151.996	931.478
346.533	26.466	1151.442	930.550
347.548	26.596	1150.523	930.393
348.562	26.541	1149.888	929.516
349.577	26.628	1148.868	929.054
350.592	26.474	1148.141	927.598
351.606	26.549	1147.430	927.324
352.621	26.581	1147.195	927.215
353.635	26.568	1146.397	926.421
354.650	26.590	1145.968	926.104
355.665	26.542	1145.062	925.045
356.679	26.660	1144.446	925.070
357.694	26.665	1143.862	924.543
358.708	26.687	1143.176	924.017
359.723	26.667	1142.283	923.113
360.738	26.537	1141.651	921.859
361.752	26.698	1141.315	922.323
362.767	26.703	1140.585	921.678
363.781	26.839	1140.017	921.828
364.796	26.830	1139.421	921.218
365.810	26.762	1138.733	920.237
366.825	26.781	1138.445	920.019
367.840	26.878	1137.891	919.982
368.854	26.797	1137.531	919.199
369.869	26.829	1136.539	918.478
370.883	26.839	1135.977	917.995
371.898	26.882	1134.823	917.197
372.913	26.834	1134.502	916.614
373.927	26.938	1134.114	916.742
374.942	27.039	1133.358	916.561
375.956	26.963	1132.985	915.797
376.971	26.926	1132.455	915.099
377.986	26.910	1132.081	914.634
379.000	27.000	1131.060	914.182
380.015	27.065	1130.650	914.097
381.029	27.001	1130.096	913.249
382.044	26.951	1129.520	912.449
383.059	26.962	1128.938	911.954
384.073	26.985	1128.236	911.423
385.088	27.053	1127.015	910.696
386.102	27.004	1126.480	909.937
387.117	26.950	1125.632	908.903
388.132	27.028	1124.305	908.141
389.146	27.169	1123.500	908.115
390.161	27.073	1123.295	907.387
391.175	27.024	1123.067	906.879
392.190	27.099	1122.155	906.436
393.205	27.058	1121.426	905.562
394.219	27.042	1120.860	904.948
395.234	27.077	1120.110	904.437
396.248	27.184	1119.141	904.103
397.263	27.183	1118.238	903.289
398.278	27.211	1117.748	902.955
399.292	27.201	1117.274	902.441
400.307	27.079	1116.703	901.296
401.321	27.235	1115.833	901.285
402.336	27.161	1114.934	900.113
403.350	27.192	1114.394	899.751
404.365	27.292	1113.754	899.652
405.380	27.322	1113.047	899.148
406.394	27.272	1112.259	898.182
407.409	27.291	1111.608	897.673
408.423	27.268	1111.228	897.172
409.438	27.281	1110.605	896.655
410.453	27.365	1109.454	896.061
411.467	27.425	1108.440	895.455
412.482	27.348	1108.022	894.663
413.496	27.317	1107.198	893.765
414.511	27.332	1106.685	893.345
415.526	27.295	1106.647	893.051
416.540	27.328	1106.080	892.680
417.555	27.375	1105.505	892.368
418.569	27.525	1104.853	892.497
419.584	27.525	1104.476	892.114
420.599	27.401	1103.878	890.945
421.613	82.240	1290.288	1343.447
422.628	77.057	1317.469	1343.574
