DTS Sentinel unit serial number:	SN413079Multiplexer serial number:	ORYXHardware model number:	OX4-SRSoftware version number:	ORYX F/W v4.00 Oryx Data Collector v3.7.2.0data status	okinstallation	princeton_trtdifferential loss correction	single-endedforward channel	channel 2reverse channel	N/Adate	2019/09/13time	04:23:35forward acquisition time	60.00reverse acquisition time	0.00gamma	496.2192k internal	0.2336k external	0.2336temperature offset calibration	1.0189default loss term (dB/km)	0.3790temperature slope calibration	1.0000multiplexer offset coefficient	1.0000multiplexer slope coefficient	1.0000fibre end	0.00T internal ref (°C)	26.75T ext. ref 1 (°C)	4.06T ext. ref 2 (°C)	21.20length (m)	temperature (°C)	Stokes	anti-Stokes-747.200	99.944	-0.138	0.161
-746.185	696.565	0.070	-0.185
-745.171	-170.424	-0.097	-0.003
-744.156	669.749	-0.115	0.299
-743.142	-26.734	0.242	0.142
-742.127	240.970	-0.092	0.154
-741.112	800.000	-0.065	-0.196
-740.098	-117.057	0.228	-0.042
-739.083	14.913	0.183	-0.144
-738.069	-200.000	0.050	0.694
-737.054	373.539	0.069	0.141
-736.039	-11.668	-0.336	0.222
-735.025	-6.820	0.086	-0.059
-734.010	-110.736	-0.202	0.042
-732.996	-200.000	-0.003	0.149
-731.981	136.316	-0.119	-0.156
-730.966	800.000	0.076	0.222
-729.952	214.114	0.044	-0.070
-728.937	63.655	-0.151	0.152
-727.923	-79.893	-0.407	0.137
-726.908	-200.000	-0.004	-0.269
-725.894	-70.784	-0.233	-0.088
-724.879	-200.000	-0.007	0.366
-723.864	-56.214	-0.213	-0.095
-722.850	800.000	0.087	-0.276
-721.835	-160.047	0.143	-0.008
-720.821	-200.000	-0.200	0.000
-719.806	800.000	0.147	-0.428
-718.791	-9.160	0.133	0.089
-717.777	34.287	-0.017	0.015
-716.762	-127.139	-0.385	0.057
-715.748	-47.267	-0.221	-0.108
-714.733	27.385	0.091	0.077
-713.718	213.084	-0.086	-0.136
-712.704	623.682	0.026	0.065
-711.689	-200.000	-0.034	-0.389
-710.675	-200.000	-0.065	-0.611
-709.660	-77.350	0.167	-0.058
-708.645	17.745	0.185	0.148
-707.631	64.281	0.217	0.219
-706.616	93.555	-0.223	0.254
-705.602	161.595	0.088	-0.124
-704.587	800.000	-0.129	-0.475
-703.572	800.000	-0.080	-0.320
-702.558	-30.299	-0.210	0.119
-701.543	311.503	-0.123	0.232
-700.529	-40.629	-0.052	0.027
-699.514	-98.023	0.364	-0.094
-698.499	-69.365	-0.365	-0.141
-697.485	-50.860	0.065	0.031
-696.470	185.412	0.170	-0.254
-695.456	500.490	0.054	0.124
-694.441	800.000	-0.031	-0.092
-693.426	-87.523	0.196	-0.059
-692.412	171.950	0.127	0.183
-691.397	-200.000	0.017	-0.142
-690.383	-176.387	0.188	-0.005
-689.368	-200.000	0.026	-0.290
-688.354	-70.761	-0.224	-0.085
-687.339	-200.000	-0.046	-0.286
-686.324	800.000	0.031	0.129
-685.310	800.000	0.086	-0.258
-684.295	-200.000	0.010	-0.306
-683.281	-145.301	-0.222	0.020
-682.266	-200.000	0.030	0.197
-681.251	800.000	0.024	-0.100
-680.237	-56.815	-0.144	-0.064
-679.222	-82.341	0.161	-0.053
-678.208	619.919	-0.099	0.248
-677.193	81.837	0.057	-0.062
-676.178	51.453	-0.172	-0.163
-675.164	-36.336	-0.058	0.031
-674.149	-135.570	-0.318	-0.038
-673.135	194.895	0.077	-0.116
-672.120	-46.801	0.149	-0.073
-671.105	-176.512	0.244	0.006
-670.091	38.980	-0.172	0.154
-669.076	-56.665	0.101	-0.045
-668.062	480.975	0.075	0.171
-667.047	-81.429	0.351	-0.116
-666.032	354.551	-0.088	-0.176
-665.018	800.000	0.071	-0.294
-664.003	-87.332	0.229	0.069
-662.989	708.328	-0.026	-0.068
-661.974	-76.500	-0.183	-0.064
-660.959	106.161	-0.478	0.567
-659.945	-200.000	-0.025	0.127
-658.930	-6.913	0.056	0.038
-657.916	-53.309	0.346	-0.159
-656.901	-200.000	-0.020	0.233
-655.886	702.689	-0.057	0.150
-654.872	-169.614	-0.292	-0.011
-653.857	800.000	-0.099	-0.288
-652.843	-1.097	-0.297	0.210
-651.828	32.712	-0.171	-0.148
-650.814	-43.033	0.551	0.280
-649.799	377.547	-0.168	0.343
-648.784	-37.486	0.217	-0.116
-647.770	-99.464	0.179	0.045
-646.755	226.006	-0.194	-0.315
-645.741	504.488	0.099	-0.228
-644.726	468.559	0.094	-0.211
-643.711	800.000	0.040	-0.150
-642.697	-30.695	0.147	0.083
-641.682	-200.000	0.046	-0.263
-640.668	-200.000	0.063	-0.368
-639.653	800.000	-0.006	0.023
-638.638	34.151	-0.094	0.082
-637.624	476.013	-0.033	0.074
-636.609	209.555	-0.058	-0.092
-635.595	47.113	0.137	-0.128
-634.580	189.757	-0.171	-0.257
-633.565	160.880	-0.108	0.150
-632.551	800.000	-0.107	0.330
-631.536	91.287	-0.137	0.153
-630.522	688.889	0.037	-0.097
-629.507	366.398	-0.082	-0.165
-628.492	-81.324	-0.496	-0.163
-627.478	-200.000	0.027	-0.221
-626.463	97.781	0.060	-0.069
-625.449	800.000	-0.015	0.045
-624.434	-78.693	-0.193	0.066
-623.419	120.561	0.210	-0.261
-622.405	189.768	0.046	0.070
-621.390	-46.820	-0.242	0.118
-620.376	-200.000	-0.006	-0.031
-619.361	203.013	0.177	0.274
-618.346	566.393	0.134	-0.325
-617.332	800.000	0.085	-0.234
-616.317	-200.000	-0.026	-0.204
-615.303	-129.815	-0.089	0.012
-614.288	-169.548	-0.186	-0.007
-613.273	31.847	-0.200	0.172
-612.259	-194.574	0.646	0.005
-611.244	800.000	0.044	-0.183
-610.230	37.097	-0.158	0.140
-609.215	800.000	-0.028	0.110
-608.201	-91.499	-0.212	-0.060
-607.186	-88.524	-0.224	0.067
-606.171	-61.685	-0.234	-0.098
-605.157	-200.000	-0.000	0.348
-604.142	157.794	-0.080	-0.111
-603.128	-200.000	-0.014	0.122
-602.113	-119.201	-0.471	-0.082
-601.098	-20.478	-0.159	0.097
-600.084	-157.087	-0.201	0.012
-599.069	800.000	-0.060	-0.193
-598.055	-152.516	0.134	-0.010
-597.040	101.000	-0.130	0.150
-596.025	-200.000	0.046	-0.468
-595.011	-200.000	-0.038	-0.327
-593.996	717.851	-0.109	0.290
-592.982	800.000	0.052	-0.180
-591.967	-19.614	-0.159	-0.098
-590.952	442.142	-0.098	0.215
-589.938	6.317	0.219	0.162
-588.923	-120.384	-0.321	0.054
-587.909	56.368	0.107	-0.104
-586.894	125.056	0.216	0.272
-585.879	-191.337	0.109	0.001
-584.865	128.090	0.087	-0.111
-583.850	-58.023	-0.215	-0.094
-582.836	-200.000	-0.057	-0.316
-581.821	-200.000	-0.062	-0.318
-580.806	-128.428	-0.277	-0.039
-579.792	22.167	-0.110	0.090
-578.777	-74.630	0.225	-0.081
-577.763	25.970	-0.212	-0.176
-576.748	331.986	-0.133	0.257
-575.733	-128.493	-0.407	-0.058
-574.719	600.485	0.063	-0.157
-573.704	-200.000	0.013	-0.359
-572.690	800.000	0.038	-0.114
-571.675	-7.619	0.191	-0.129
-570.661	-21.034	-0.415	-0.253
-569.646	156.223	-0.115	-0.159
-568.631	602.061	-0.077	-0.192
-567.617	230.045	-0.023	0.038
-566.602	800.000	-0.037	-0.135
-565.588	15.865	0.164	0.129
-564.573	9.233	-0.163	0.123
-563.558	271.222	-0.081	-0.143
-562.544	-200.000	-0.023	-0.168
-561.529	-200.000	-0.192	0.000
-560.515	67.320	-0.189	-0.192
-559.500	-200.000	-0.023	0.422
-558.485	-71.572	0.065	0.024
-557.471	-200.000	0.028	-0.209
-556.456	-125.799	0.033	0.005
-555.442	-200.000	0.002	0.017
-554.427	57.459	-0.153	-0.149
-553.412	221.763	-0.054	0.086
-552.398	159.390	0.242	-0.335
-551.383	-67.935	-0.086	0.034
-550.369	-60.888	-0.162	-0.068
-549.354	149.687	0.038	-0.051
-548.339	130.529	-0.243	-0.311
-547.325	-96.482	-0.092	0.024
-546.310	-200.000	-0.008	0.049
-545.296	-200.000	-0.007	-0.194
-544.281	-80.121	0.539	0.180
-543.266	23.696	-0.115	0.094
-542.252	800.000	0.050	-0.186
-541.237	348.673	-0.093	0.182
-540.223	241.360	0.049	0.082
-539.208	247.167	0.070	0.118
-538.193	20.329	-0.148	0.119
-537.179	-200.000	0.032	0.324
-536.164	32.147	-0.196	-0.168
-535.150	-12.163	0.150	-0.098
-534.135	800.000	-0.075	0.325
-533.121	800.000	0.021	0.091
-532.106	-200.000	-0.026	-0.193
-531.091	-63.267	-0.080	-0.033
-530.077	-96.246	0.517	0.137
-529.062	800.000	0.124	0.368
-528.048	-200.000	-0.012	-0.137
-527.033	103.313	0.255	-0.298
-526.018	-137.028	0.181	-0.021
-525.004	583.643	-0.075	0.184
-523.989	-128.835	-0.225	0.031
-522.975	-72.078	-0.162	0.060
-521.960	-200.000	-0.005	-0.033
-520.945	800.000	-0.005	0.023
-519.931	-95.106	-0.158	0.043
-518.916	-200.000	0.008	0.250
-517.902	451.016	-0.153	0.336
-516.887	800.000	0.046	-0.187
-515.872	116.889	-0.074	-0.091
-514.858	-200.000	-0.007	0.119
-513.843	-89.924	-0.099	-0.029
-512.829	-200.000	-0.037	0.203
-511.814	-200.000	0.016	0.263
-510.799	-194.196	0.211	-0.002
-509.785	-22.652	0.133	-0.080
-508.770	800.000	0.042	0.163
-507.756	-50.262	0.290	0.137
-506.741	800.000	-0.011	-0.044
-505.726	10.077	0.259	0.196
-504.712	669.728	-0.100	0.258
-503.697	-41.640	-0.166	0.085
-502.683	143.210	0.036	0.048
-501.668	-69.176	0.244	0.093
-500.653	536.333	-0.178	-0.421
-499.639	-109.113	0.287	0.061
-498.624	-98.654	0.347	0.088
-497.610	-200.000	0.014	0.423
-496.595	-200.000	0.045	0.256
-495.581	213.974	-0.234	0.368
-494.566	-95.886	-0.064	-0.017
-493.551	-200.000	0.006	-0.225
-492.537	-105.823	0.275	0.062
-491.522	800.000	-0.043	-0.157
-490.508	-22.305	-0.224	0.135
-489.493	-87.222	-0.122	0.037
-488.478	-2.591	-0.153	-0.106
-487.464	-141.124	0.288	-0.029
-486.449	-35.116	0.265	-0.143
-485.435	102.511	-0.035	0.040
-484.420	-200.000	0.024	0.141
-483.405	-61.315	0.139	0.058
-482.391	234.751	-0.029	-0.048
-481.376	-144.531	0.102	0.009
-480.362	800.000	0.067	-0.291
-479.347	-79.003	-0.292	-0.099
-478.332	-200.000	-0.038	0.271
-477.318	610.277	-0.165	0.409
-476.303	19.392	0.182	-0.145
-475.289	188.987	-0.130	-0.194
-474.274	-36.977	-0.395	-0.211
-473.259	631.518	-0.094	-0.237
-472.245	800.000	0.101	-0.300
-471.230	54.175	0.041	-0.039
-470.216	194.435	-0.047	0.070
-469.201	-105.557	0.267	0.060
-468.186	408.818	-0.035	0.075
-467.172	-156.149	-0.365	0.023
-466.157	-55.181	0.297	-0.133
-465.143	-159.995	-0.230	-0.012
-464.128	467.761	0.064	0.143
-463.113	-31.314	-0.239	0.134
-462.099	800.000	-0.092	0.312
-461.084	-200.000	-0.016	0.253
-460.070	418.882	-0.069	0.146
-459.055	152.120	-0.124	0.168
-458.040	464.098	0.114	-0.252
-457.026	578.158	-0.142	0.344
-456.011	-174.260	-0.203	0.006
-454.997	263.341	-0.131	-0.227
-453.982	335.638	0.033	-0.064
-452.968	67.200	0.248	-0.251
-451.953	-200.000	-0.005	-0.241
-450.938	704.884	0.136	-0.356
-449.924	-200.000	-0.011	-0.058
-448.909	-67.502	-0.128	-0.050
-447.895	-200.000	-0.032	-0.151
-446.880	165.316	0.421	-0.590
-445.865	37.872	0.133	-0.117
-444.851	558.590	-0.088	-0.211
-443.836	-78.525	0.264	0.090
-442.822	-7.074	-0.036	0.024
-441.807	21.371	0.136	-0.109
-440.792	33.168	0.176	0.151
-439.778	37.744	0.251	0.221
-438.763	-122.938	0.163	0.026
-437.749	-21.040	-0.177	0.107
-436.734	9.068	-0.045	-0.034
-435.719	316.575	0.114	0.214
-434.705	800.000	-0.081	-0.245
-433.690	-54.271	0.280	0.126
-432.676	33.240	-0.255	0.219
-431.661	-136.073	-0.307	-0.036
-430.646	-23.100	-0.129	-0.077
-429.632	-169.099	0.219	-0.008
-428.617	-200.000	-0.040	-0.190
-427.603	800.000	0.034	-0.137
-426.588	620.709	0.049	-0.121
-425.573	800.000	-0.083	-0.266
-424.559	800.000	-0.133	0.366
-423.544	40.048	-0.183	-0.163
-422.530	42.070	-0.195	0.176
-421.515	54.639	0.077	-0.073
-420.500	-147.136	0.317	-0.027
-419.486	708.317	-0.084	0.221
-418.471	-200.000	0.025	-0.173
-417.457	361.284	0.127	0.253
-416.442	-150.145	0.137	0.011
-415.428	113.359	0.029	-0.035
-414.413	74.716	0.202	0.210
-413.398	-54.728	0.170	-0.076
-412.384	-47.276	-0.164	0.079
-411.369	-200.000	0.069	-0.341
-410.355	46.744	-0.180	-0.166
-409.340	14.758	0.318	-0.247
-408.325	-200.000	-0.037	-0.233
-407.311	-200.000	-0.009	-0.279
-406.296	80.018	0.167	-0.178
-405.282	-46.844	0.136	-0.066
-404.267	-200.000	0.050	0.221
-403.252	263.087	-0.108	-0.185
-402.238	-49.563	-0.029	0.014
-401.223	239.908	-0.153	0.252
-400.209	129.339	0.090	0.114
-399.194	152.012	0.188	0.255
-398.179	-24.656	-0.148	-0.087
-397.165	-77.131	-0.163	0.056
-396.150	-71.061	-0.238	0.089
-395.136	-79.585	-0.300	0.100
-394.121	-200.000	-0.027	-0.142
-393.106	-48.233	0.057	-0.027
-392.092	96.535	0.083	0.094
-391.077	-159.352	-0.322	0.018
-390.063	-40.161	-0.033	-0.017
-389.048	-12.862	0.073	0.047
-388.033	-200.000	-0.008	-0.153
-387.019	-200.000	-0.042	-0.246
-386.004	-200.000	0.017	-0.093
-384.990	398.444	0.042	-0.086
-383.975	59.015	0.098	0.096
-382.960	-200.000	0.006	0.037
-381.946	-83.163	-0.040	-0.013
-380.931	371.487	-0.153	-0.308
-379.917	-12.076	0.199	-0.129
-378.902	-26.545	0.120	-0.069
-377.888	101.097	-0.174	0.200
-376.873	186.172	0.136	-0.201
-375.858	-44.832	-0.162	-0.080
-374.844	-118.491	0.088	0.015
-373.829	-96.668	0.194	-0.051
-372.815	407.811	-0.145	0.303
-371.800	-200.000	0.044	0.226
-370.785	-200.000	-0.020	-0.184
-369.771	-58.332	-0.100	0.043
-368.756	-90.011	0.342	0.099
-367.742	502.301	0.036	-0.081
-366.727	29.823	-0.119	-0.101
-365.712	-200.000	0.011	-0.057
-364.698	-200.000	0.014	-0.160
-363.683	-89.177	0.271	0.079
-362.669	-61.797	-0.164	0.068
-361.654	2.242	-0.109	0.078
-360.639	800.000	0.101	0.296
-359.625	-84.847	-0.132	-0.041
-358.610	-44.355	0.202	0.100
-357.596	477.653	-0.014	-0.031
-356.581	-200.000	0.009	-0.114
-355.566	108.253	0.108	0.127
-354.552	61.545	-0.144	0.142
-353.537	-200.000	-0.001	0.222
-352.523	800.000	0.028	-0.095
-351.508	800.000	-0.124	0.370
-350.493	114.680	-0.245	0.296
-349.479	-76.390	0.142	-0.049
-348.464	-67.307	-0.242	-0.094
-347.450	-116.085	0.315	-0.058
-346.435	-50.086	0.280	-0.131
-345.420	-200.000	-0.005	-0.291
-344.406	106.562	-0.122	-0.143
-343.391	438.022	-0.086	-0.185
-342.377	-26.445	-0.057	-0.033
-341.362	22.015	0.229	0.184
-340.348	800.000	0.065	-0.239
-339.333	-200.000	-0.014	-0.060
-338.318	-200.000	-0.018	-0.133
-337.304	42.167	-0.090	0.081
-336.289	264.096	0.066	0.114
-335.275	800.000	-0.056	-0.168
-334.260	162.505	0.115	0.159
-333.245	219.718	-0.139	0.220
-332.231	800.000	0.048	0.202
-331.216	-72.275	0.163	0.060
-330.202	-77.586	-0.188	0.064
-329.187	800.000	-0.058	-0.199
-328.172	-63.171	-0.199	0.081
-327.158	-200.000	-0.050	-0.311
-326.143	-98.855	-0.435	0.109
-325.129	-102.941	0.272	-0.064
-324.114	-8.576	0.297	0.197
-323.099	438.191	0.084	0.181
-322.085	800.000	0.084	0.235
-321.070	150.137	-0.213	-0.285
-320.056	800.000	-0.113	-0.443
-319.041	-172.739	0.235	0.007
-318.026	-92.045	0.515	-0.144
-317.012	-43.304	0.230	-0.115
-315.997	-64.443	-0.116	-0.047
-314.983	146.154	-0.187	-0.248
-313.968	800.000	-0.045	0.140
-312.953	166.250	0.164	0.229
-311.939	162.022	0.075	-0.104
-310.924	37.791	-0.155	0.136
-309.910	-200.000	0.000	0.255
-308.895	-79.564	-0.089	0.030
-307.880	-93.054	0.225	-0.062
-306.866	800.000	0.067	0.260
-305.851	-54.893	0.247	-0.110
-304.837	42.811	0.236	-0.213
-303.822	258.944	0.090	0.153
-302.807	745.386	0.040	-0.107
-301.793	-200.000	0.023	0.296
-300.778	-136.715	0.059	0.007
-299.764	-200.000	0.044	-0.197
-298.749	-31.114	-0.186	-0.104
-297.735	110.943	0.231	0.275
-296.720	442.395	-0.053	0.115
-295.705	470.655	0.100	-0.223
-294.691	229.928	0.105	-0.169
-293.676	-200.000	-0.038	0.361
-292.662	7.949	-0.284	0.210
-291.647	-200.000	0.011	-0.063
-290.632	-156.971	0.128	0.008
-289.618	-16.701	0.247	0.154
-288.603	341.769	0.021	0.041
-287.589	108.823	0.187	-0.220
-286.574	-136.056	-0.277	-0.032
-285.559	-61.233	-0.200	-0.083
-284.545	114.455	0.049	0.058
-283.530	43.544	-0.052	-0.047
-282.516	800.000	-0.063	-0.220
-281.501	-134.343	-0.101	0.012
-280.486	-200.000	-0.007	0.056
-279.472	574.658	-0.148	0.356
-278.457	-71.599	0.128	-0.047
-277.443	-200.000	-0.336	0.002
-276.428	-83.163	0.328	0.104
-275.413	-44.573	0.125	-0.062
-274.399	148.803	-0.246	0.327
-273.384	-200.000	0.010	0.269
-272.370	207.391	-0.198	0.304
-271.355	-173.226	0.219	-0.007
-270.340	75.919	0.205	0.214
-269.326	-178.829	0.221	0.005
-268.311	-34.443	0.311	-0.168
-267.297	-200.000	-0.030	0.175
-266.282	-104.203	0.060	0.014
-265.267	-141.363	-0.238	-0.024
-264.253	-26.092	0.323	-0.187
-263.238	800.000	-0.036	0.149
-262.224	122.540	-0.024	-0.030
-261.209	800.000	-0.067	-0.200
-260.195	-200.000	-0.017	0.120
-259.180	-107.262	0.259	0.056
-258.165	-73.415	0.183	-0.066
-257.151	281.462	0.214	0.377
-256.136	40.635	0.341	0.303
-255.122	707.056	0.089	0.233
-254.107	111.491	0.210	-0.249
-253.092	-85.965	0.363	0.110
-252.078	18.483	-0.127	0.100
-251.063	0.085	0.362	-0.254
-250.049	-167.416	0.105	0.004
-249.034	-13.540	0.255	-0.163
-248.019	75.740	-0.171	0.178
-247.005	800.000	0.093	0.294
-245.990	556.468	-0.130	-0.309
-244.976	-56.535	0.130	0.057
-243.961	21.086	0.282	-0.225
-242.946	-147.677	-0.164	0.014
-241.932	-8.109	0.116	0.077
-240.917	38.351	-0.223	-0.196
-239.903	-15.458	-0.396	0.249
-238.888	86.277	0.100	0.109
-237.873	-164.105	-0.114	0.005
-236.859	-200.000	0.011	0.186
-235.844	225.893	-0.125	-0.200
-234.830	800.000	-0.055	-0.185
-233.815	6.760	0.132	-0.096
-232.800	-200.000	0.015	-0.099
-231.786	-24.629	0.179	0.105
-230.771	-200.000	0.056	-0.270
-229.757	-11.612	-0.187	0.121
-228.742	55.428	-0.039	0.037
-227.727	-200.000	0.025	0.264
-226.713	-41.106	0.444	-0.226
-225.698	67.304	-0.151	-0.152
-224.684	152.844	-0.136	-0.183
-223.669	-200.000	0.039	-0.298
-222.655	-133.843	0.033	-0.004
-221.640	-200.000	0.065	0.365
-220.625	-200.000	-0.023	0.174
-219.611	-200.000	-0.167	0.000
-218.596	-30.079	0.100	0.056
-217.582	-200.000	0.015	0.231
-216.567	-200.000	0.088	0.465
-215.552	165.232	0.115	-0.160
-214.538	-42.217	-0.325	0.163
-213.523	354.710	0.144	-0.282
-212.509	-80.330	-0.197	-0.065
-211.494	-148.250	0.068	0.005
-210.479	-53.692	0.136	-0.061
-209.465	-2.510	0.249	-0.171
-208.450	11.777	-0.237	-0.179
-207.436	75.584	-0.231	-0.240
-206.421	-182.904	-0.366	0.006
-205.406	-86.238	-0.210	0.064
-204.392	50.454	0.143	0.133
-203.377	-74.207	0.345	0.123
-202.363	370.920	0.092	0.184
-201.348	69.724	-0.111	0.113
-200.333	-38.705	-0.322	0.167
-199.319	55.299	0.282	0.268
-198.304	-135.037	-0.317	0.038
-197.290	-200.000	-0.060	-0.282
-196.275	290.008	-0.046	0.083
-195.260	27.488	0.220	0.182
-194.246	82.560	0.157	0.168
-193.231	-200.000	0.020	0.110
-192.217	235.969	0.088	-0.143
-191.202	-25.769	-0.192	0.111
-190.187	376.787	0.091	0.183
-189.173	582.604	-0.142	0.343
-188.158	-86.906	-0.196	-0.059
-187.144	800.000	-0.032	0.110
-186.129	-65.407	-0.318	0.125
-185.114	92.853	0.231	0.256
-184.100	178.632	0.111	0.159
-183.085	10.993	-0.309	-0.232
-182.071	-200.000	0.013	-0.066
-181.056	-47.116	-0.218	-0.104
-180.042	-200.000	0.016	-0.301
-179.027	6.157	-0.295	0.215
-178.012	-130.889	-0.203	-0.027
-176.998	-135.918	0.412	0.048
-175.983	-59.359	-0.116	-0.049
-174.969	67.990	0.057	0.058
-173.954	76.341	-0.097	0.101
-172.939	784.293	0.050	-0.135
-171.925	800.000	0.129	0.353
-170.910	302.669	-0.120	0.217
-169.896	-33.804	-0.232	0.126
-168.881	800.000	0.047	-0.167
-167.866	148.439	0.251	-0.332
-166.852	98.131	-0.166	-0.188
-165.837	81.397	-0.096	0.101
-164.823	702.993	0.092	-0.238
-163.808	-200.000	0.012	-0.066
-162.793	-200.000	-0.049	-0.403
-161.779	-200.000	0.033	0.200
-160.764	170.718	0.197	0.277
-159.750	-94.762	0.056	0.015
-158.735	170.876	-0.132	0.186
-157.720	800.000	0.109	0.403
-156.706	800.000	-0.107	0.328
-155.691	-200.000	-0.028	-0.310
-154.677	-98.778	0.022	0.005
-153.662	178.231	0.044	-0.063
-152.647	107.930	0.210	-0.246
-151.633	-114.720	-0.152	0.029
-150.618	800.000	0.101	0.351
-149.604	-200.000	-0.002	0.155
-148.589	-200.000	0.017	0.118
-147.574	800.000	-0.086	-0.338
-146.560	-106.202	-0.067	-0.015
-145.545	-200.000	-0.042	0.407
-144.531	-116.737	-0.134	0.024
-143.516	52.428	0.237	-0.221
-142.502	29.510	-0.180	-0.150
-141.487	33.310	0.155	-0.132
-140.472	-16.405	-0.364	0.227
-139.458	-200.000	-0.043	-0.190
-138.443	800.000	0.049	0.207
-137.429	23.268	0.204	-0.164
-136.414	-200.000	-0.010	0.073
-135.399	-47.604	-0.149	0.071
-134.385	-135.378	-0.214	-0.025
-133.370	-110.227	0.266	0.054
-132.356	800.000	-0.088	0.286
-131.341	14.260	0.141	0.108
-130.326	-150.633	-0.345	0.026
-129.312	-200.000	-0.027	-0.272
-128.297	-50.609	-0.207	0.096
-127.283	-84.319	0.216	0.067
-126.268	-200.000	-0.004	0.188
-125.253	507.234	0.112	-0.254
-124.239	296.486	-0.101	-0.182
-123.224	-200.000	0.052	0.306
-122.210	-103.307	0.266	0.061
-121.195	1.781	-0.229	0.162
-120.180	800.000	0.015	0.048
-119.166	695.023	-0.099	-0.255
-118.151	-129.191	0.313	0.043
-117.137	70.601	0.219	0.222
-116.122	-200.000	0.027	0.194
-115.107	-200.000	-0.005	0.223
-114.093	-200.000	-0.001	-0.195
-113.078	-28.819	-0.299	0.168
-112.064	620.256	0.197	0.485
-111.049	-26.009	-0.388	0.224
-110.034	-159.973	0.053	-0.003
-109.020	-59.867	0.158	-0.066
-108.005	239.541	-0.103	0.168
-106.991	-89.286	-0.153	0.044
-105.976	-45.994	0.131	-0.064
-104.962	-25.923	-0.020	-0.012
-103.947	-138.513	-0.114	0.012
-102.932	21.463	0.164	-0.130
-101.918	402.587	-0.093	0.192
-100.903	24.307	-0.168	0.136
-99.889	393.756	-0.262	0.534
-98.874	248.117	0.015	0.024
-97.859	-7.769	0.342	-0.226
-96.845	73.843	-0.247	-0.254
-95.830	-200.000	0.010	-0.055
-94.816	800.000	0.103	0.405
-93.801	781.480	0.079	0.212
-92.786	-98.768	0.263	0.066
-91.772	-168.640	0.172	0.006
-90.757	170.876	0.068	-0.096
-89.743	-200.000	0.006	0.289
-88.728	172.774	0.196	-0.277
-87.713	362.703	0.172	0.339
-86.699	-200.000	0.016	-0.187
-85.684	149.472	-0.152	-0.202
-84.670	64.902	-0.320	0.316
-83.655	89.781	-0.080	-0.088
-82.640	109.177	0.154	0.180
-81.626	800.000	0.058	0.226
-80.611	11.112	0.080	0.060
-79.597	800.000	0.070	-0.267
-78.582	-46.688	0.158	0.076
-77.567	214.606	-0.129	0.200
-76.553	800.000	-0.024	0.083
-75.538	-37.792	-0.371	-0.193
-74.524	-176.579	0.163	-0.004
-73.509	-46.823	-0.194	0.093
-72.494	156.671	0.092	-0.124
-71.480	-69.429	-0.201	0.075
-70.465	-200.000	0.073	0.437
-69.451	-68.097	0.126	-0.048
-68.436	-45.912	0.142	-0.068
-67.422	44.172	0.260	-0.233
-66.407	800.000	0.094	0.307
-65.392	-192.763	-0.166	-0.001
-64.378	-200.000	-0.022	0.186
-63.363	45.193	-0.127	0.114
-62.349	8.198	0.121	0.089
-61.334	53.846	-0.973	-0.914
-60.319	138.634	0.647	0.831
-59.305	615.892	-0.334	-0.819
-58.290	79.958	1.088	1.143
-57.276	393.267	0.693	1.411
-56.261	-200.000	116.525	657.580
-55.246	522.929	1537.857	3532.155
-54.232	174.607	2717.928	3843.737
-53.217	100.852	2290.456	2603.191
-52.203	35.844	1896.461	1630.357
-51.188	29.884	1686.965	1405.107
-50.173	27.352	1645.999	1352.150
-49.159	48.996	1702.237	1562.356
-48.144	47.439	1716.412	1563.570
-47.130	29.490	1673.439	1390.656
-46.115	26.849	1659.541	1359.292
-45.100	26.620	1654.874	1353.703
-44.086	26.622	1652.220	1351.493
-43.071	26.615	1649.331	1349.021
-42.057	26.599	1646.803	1346.780
-41.042	26.625	1644.649	1345.162
-40.027	26.668	1642.810	1343.918
-39.013	26.675	1640.877	1342.341
-37.998	26.578	1639.402	1340.361
-36.984	26.623	1638.052	1339.537
-35.969	26.692	1636.798	1338.969
-34.954	26.710	1635.007	1337.584
-33.940	26.707	1633.101	1335.946
-32.925	26.683	1631.413	1334.338
-31.911	26.706	1629.734	1333.084
-30.896	26.742	1628.240	1332.067
-29.881	26.776	1626.227	1330.620
-28.867	26.701	1624.692	1328.764
-27.852	26.671	1623.765	1327.728
-26.838	26.778	1621.494	1326.607
-25.823	26.713	1620.798	1325.503
-24.809	26.813	1619.558	1325.170
-23.794	26.707	1618.289	1323.302
-22.779	26.828	1616.422	1322.606
-21.765	26.780	1614.813	1320.893
-20.750	26.752	1613.339	1319.431
-19.736	26.867	1611.628	1318.810
-18.721	26.817	1610.716	1317.649
-17.706	26.650	1609.326	1315.246
-16.692	26.784	1607.202	1314.432
-15.677	26.773	1606.005	1313.323
-14.663	26.846	1604.576	1312.629
-13.648	26.910	1602.936	1311.699
-12.633	26.806	1601.713	1309.894
-11.619	26.797	1600.261	1308.592
-10.604	26.815	1598.730	1307.418
-9.590	26.870	1597.015	1306.356
-8.575	26.749	1596.363	1304.903
-7.560	26.775	1595.240	1304.119
-6.546	26.767	1594.157	1303.126
-5.531	26.888	1592.400	1302.507
-4.517	26.801	1591.512	1301.104
-3.502	26.778	1590.518	1300.071
-2.487	26.930	1588.613	1299.551
-1.473	26.379	1576.883	1285.985
-0.458	23.478	1557.149	1249.435
0.556	21.837	1558.743	1218.010
1.571	19.227	1583.218	1218.590
2.586	18.824	1594.783	1224.505
3.600	17.117	1541.935	1172.056
4.615	10.875	1435.670	1050.945
5.629	5.074	1376.768	971.689
6.644	4.010	1369.265	959.716
7.659	4.071	1368.062	959.167
8.673	4.060	1367.429	958.571
9.688	4.089	1365.335	957.196
10.702	4.103	1362.996	955.556
11.717	6.903	1367.423	975.888
12.731	14.398	1381.108	1032.147
13.746	20.927	1392.268	1081.029
14.761	22.845	1394.401	1094.492
15.775	22.384	1392.448	1090.008
16.790	21.374	1390.488	1082.133
17.804	20.686	1388.223	1076.020
18.819	20.412	1387.000	1073.283
19.834	20.460	1386.142	1072.821
20.848	20.420	1385.080	1071.659
21.863	20.219	1383.944	1069.444
22.877	20.070	1383.064	1067.748
23.892	19.983	1382.301	1066.532
24.907	19.846	1381.645	1065.090
25.921	19.992	1380.025	1064.640
26.936	19.946	1379.407	1063.787
27.950	20.036	1378.020	1063.174
28.965	20.076	1377.681	1063.065
29.980	20.292	1376.797	1063.612
30.994	20.380	1375.990	1063.437
32.009	20.528	1374.652	1063.215
33.023	20.347	1373.710	1061.287
34.038	20.333	1372.007	1059.788
35.053	20.154	1370.528	1057.461
36.067	20.036	1369.859	1056.134
37.082	20.218	1368.827	1056.353
38.096	20.205	1368.687	1056.070
39.111	20.126	1367.333	1054.454
40.126	20.150	1366.145	1053.591
41.140	19.661	1365.273	1049.853
42.155	19.713	1363.894	1049.017
43.169	19.558	1364.407	1048.378
44.184	19.605	1364.113	1048.341
45.199	19.695	1363.443	1048.282
46.213	19.912	1363.068	1049.212
47.228	20.090	1362.762	1049.964
48.242	20.095	1361.745	1049.116
49.257	20.115	1360.106	1047.886
50.271	20.032	1358.437	1046.002
51.286	20.118	1357.342	1045.587
52.301	20.049	1356.029	1044.067
53.315	19.825	1355.060	1041.881
54.330	19.800	1353.612	1040.526
55.344	19.757	1352.254	1039.133
56.359	19.781	1351.428	1038.550
57.374	19.619	1350.764	1036.971
58.388	19.557	1350.241	1036.106
59.403	19.480	1349.107	1034.684
60.417	19.500	1348.442	1034.200
61.432	19.371	1347.593	1032.685
62.447	19.394	1346.319	1031.757
63.461	19.319	1345.358	1030.480
64.476	19.274	1344.366	1029.360
65.490	19.293	1343.210	1028.498
66.505	19.426	1341.383	1027.802
67.520	19.361	1340.265	1026.464
68.534	19.484	1338.984	1026.125
69.549	19.388	1337.948	1024.670
70.563	19.166	1336.743	1022.342
71.578	19.090	1335.503	1020.852
72.593	19.023	1334.625	1019.692
73.607	18.987	1334.169	1019.040
74.622	19.152	1333.656	1019.536
75.636	19.158	1332.729	1018.770
76.651	19.213	1332.141	1018.558
77.666	19.266	1331.549	1018.328
78.680	19.192	1331.819	1018.005
79.695	19.355	1330.372	1017.772
80.709	19.563	1329.857	1018.518
81.724	19.636	1329.644	1018.696
82.739	19.731	1328.993	1018.662
83.753	19.965	1327.813	1019.044
84.768	20.129	1326.975	1019.277
85.782	20.211	1326.418	1019.240
86.797	20.325	1324.753	1018.539
87.812	19.993	1323.968	1015.899
88.826	20.162	1322.218	1015.457
89.841	20.098	1321.566	1014.494
90.855	20.150	1320.449	1013.846
91.870	20.353	1319.845	1014.480
92.884	20.249	1319.461	1013.488
93.899	20.288	1318.813	1013.128
94.914	20.397	1317.682	1012.809
95.928	20.397	1316.814	1012.051
96.943	20.251	1315.874	1010.389
97.957	20.182	1315.046	1009.260
98.972	20.240	1314.001	1008.706
99.987	20.244	1313.005	1007.877
101.001	20.232	1312.007	1006.950
102.016	20.246	1310.967	1006.148
103.030	20.201	1310.583	1005.503
104.045	20.207	1309.284	1004.450
105.060	20.121	1307.739	1002.676
106.074	19.776	1305.578	998.941
107.089	19.380	1304.534	995.767
108.103	19.409	1302.962	994.644
109.118	19.298	1301.840	993.060
110.133	19.334	1300.446	992.115
111.147	19.244	1299.598	990.868
112.162	19.503	1298.073	991.103
113.176	19.459	1296.957	989.912
114.191	19.571	1296.001	989.739
115.206	19.561	1295.233	989.003
116.220	19.554	1293.268	987.376
117.235	19.470	1292.594	986.295
118.249	19.430	1291.462	985.115
119.264	19.209	1290.489	983.024
120.279	19.174	1289.208	981.764
121.293	19.157	1287.984	980.645
122.308	19.073	1286.618	979.044
123.322	19.017	1285.907	978.095
124.337	18.977	1284.799	976.942
125.352	19.140	1283.328	976.661
126.366	18.980	1282.614	975.123
127.381	18.979	1281.122	973.896
128.395	19.016	1280.225	973.337
129.410	19.074	1279.940	973.362
130.424	19.135	1278.871	972.810
131.439	19.288	1278.483	973.291
132.454	19.351	1277.406	972.743
133.468	19.413	1276.800	972.540
134.483	19.435	1275.968	971.949
135.497	19.461	1275.083	971.334
136.512	19.534	1273.904	970.757
137.527	19.572	1272.809	970.051
138.541	19.618	1271.196	968.994
139.556	19.649	1270.310	968.408
140.570	19.701	1269.947	968.339
141.585	19.959	1268.056	968.253
142.600	20.079	1267.465	968.389
143.614	20.122	1266.862	968.078
144.629	20.189	1266.128	967.807
145.643	20.113	1264.503	966.057
146.658	19.912	1263.179	963.838
147.673	19.810	1261.980	962.275
148.687	19.635	1260.570	960.141
149.702	19.663	1258.706	958.792
150.716	19.404	1257.867	956.630
151.731	19.520	1256.438	956.100
152.746	19.627	1254.853	955.400
153.760	19.684	1254.100	955.061
154.775	19.757	1253.018	954.554
155.789	19.881	1252.728	954.932
156.804	19.831	1251.969	953.994
157.819	19.988	1251.019	954.053
158.833	20.003	1250.040	953.300
159.848	20.154	1249.665	953.763
160.862	20.142	1248.196	952.494
161.877	19.762	1246.421	948.969
162.892	19.443	1245.787	946.653
163.906	19.564	1244.535	946.277
164.921	19.475	1243.580	944.981
165.935	19.685	1242.431	945.174
166.950	19.731	1242.100	945.087
167.964	19.719	1241.476	944.464
168.979	19.757	1240.454	943.814
169.994	19.623	1239.503	942.276
171.008	19.650	1239.301	942.185
172.023	19.762	1238.576	942.158
173.037	20.133	1237.559	943.323
174.052	20.017	1236.530	941.823
175.067	19.709	1235.413	939.219
176.081	19.400	1234.384	936.672
177.096	19.492	1233.439	936.371
178.110	19.580	1232.355	935.945
179.125	19.520	1231.245	934.695
180.140	19.750	1230.272	935.118
181.154	19.861	1229.337	934.925
182.169	19.970	1228.369	934.691
183.183	20.018	1227.495	934.201
184.198	20.112	1226.180	933.624
185.213	20.104	1225.254	932.797
186.227	20.206	1224.209	932.466
187.242	20.222	1223.283	931.765
188.256	20.365	1222.091	931.543
189.271	20.252	1221.932	930.729
190.286	19.994	1220.329	928.046
191.300	19.661	1218.668	924.920
192.315	19.522	1217.889	923.503
193.329	19.555	1218.014	923.690
194.344	19.594	1217.580	923.489
195.359	19.625	1216.941	923.089
196.373	19.801	1216.308	923.466
197.388	19.909	1216.137	923.829
198.402	20.212	1216.025	925.283
199.417	20.381	1215.242	925.501
200.432	20.533	1214.248	925.476
201.446	20.654	1213.604	925.543
202.461	20.770	1213.250	925.812
203.475	20.623	1212.117	924.081
204.490	20.367	1210.721	921.578
205.504	20.136	1209.185	919.104
206.519	20.074	1207.758	917.608
207.534	20.102	1206.576	916.777
208.548	20.063	1205.860	915.945
209.563	20.128	1205.357	915.825
210.577	20.110	1204.633	915.098
211.592	20.174	1203.739	914.676
212.607	20.356	1202.959	914.963
213.621	20.324	1202.695	914.514
214.636	20.320	1201.047	913.157
215.650	20.333	1200.237	912.528
216.665	20.468	1199.761	912.797
217.680	20.668	1199.174	913.317
218.694	20.730	1197.916	912.606
219.709	20.565	1197.448	911.303
220.723	20.617	1196.419	910.711
221.738	20.629	1195.631	910.094
222.753	20.587	1194.704	909.091
223.767	20.577	1194.106	908.500
224.782	20.636	1193.984	908.634
225.796	20.814	1193.707	909.276
226.811	20.822	1192.294	908.158
227.826	20.542	1191.739	906.198
228.840	20.383	1190.882	904.638
229.855	20.541	1189.889	904.627
230.869	20.408	1189.335	903.432
231.884	20.345	1188.230	902.183
232.899	20.213	1187.168	900.615
233.913	20.151	1186.330	899.577
234.928	20.096	1185.617	898.672
235.942	19.974	1184.677	897.248
236.957	20.109	1184.101	897.428
237.972	20.101	1183.369	896.752
238.986	20.188	1182.193	896.233
240.001	20.123	1182.087	895.735
241.015	20.122	1181.273	895.036
242.030	20.252	1180.360	894.938
243.045	20.429	1179.841	895.374
244.059	20.399	1179.354	894.771
245.074	20.526	1178.118	894.408
246.088	20.563	1177.795	894.274
247.103	20.600	1177.188	893.926
248.117	20.781	1176.817	894.493
249.132	21.026	1176.335	895.307
250.147	21.326	1175.744	896.316
251.161	21.451	1174.815	896.172
252.176	21.431	1174.644	895.857
253.190	21.638	1173.924	896.286
254.205	21.680	1173.600	896.179
255.220	21.577	1173.085	895.178
256.234	21.589	1172.556	894.759
257.249	21.511	1171.559	893.519
258.263	21.549	1170.296	892.669
259.278	21.562	1169.746	892.235
260.293	21.481	1169.705	891.711
261.307	21.690	1169.015	892.175
262.322	21.764	1168.245	891.883
263.336	21.747	1167.461	891.121
264.351	21.666	1167.362	890.551
265.366	21.824	1166.298	890.467
266.380	21.756	1165.656	889.553
267.395	21.524	1165.154	887.914
268.409	21.436	1164.162	886.633
269.424	21.470	1162.832	885.713
270.439	21.342	1162.778	884.946
271.453	21.299	1161.812	883.912
272.468	21.153	1160.630	882.197
273.482	20.989	1160.033	880.838
274.497	21.155	1159.418	881.133
275.512	21.265	1158.399	880.835
276.526	21.204	1157.719	879.933
277.541	21.178	1157.195	879.324
278.555	21.325	1156.469	879.433
279.570	21.503	1156.007	879.899
280.585	21.664	1155.615	880.334
281.599	21.573	1154.543	878.983
282.614	21.455	1153.127	877.236
283.628	21.412	1151.843	875.967
284.643	21.366	1150.930	874.963
285.657	21.343	1150.258	874.260
286.672	21.324	1149.233	873.309
287.687	21.380	1148.451	872.918
288.701	21.333	1148.223	872.432
289.716	21.509	1146.544	871.953
290.730	21.426	1146.244	871.236
291.745	21.456	1146.130	871.223
292.760	21.409	1145.158	870.170
293.774	21.589	1144.890	870.788
294.789	21.673	1144.702	870.984
295.803	21.691	1143.469	870.062
296.818	21.552	1142.303	868.406
297.833	21.482	1141.838	867.630
298.847	21.405	1141.042	866.564
299.862	21.408	1140.340	865.968
300.876	21.393	1140.113	865.645
301.891	21.655	1139.276	866.232
302.906	21.712	1138.780	866.060
303.920	21.954	1137.930	866.528
304.935	21.838	1137.975	865.914
305.949	22.007	1137.273	866.138
306.964	22.050	1136.133	865.408
307.979	21.858	1135.362	863.797
308.993	21.822	1134.659	863.008
310.008	22.018	1133.589	863.082
311.022	22.022	1133.040	862.608
312.037	22.046	1132.062	861.903
313.052	21.790	1131.137	859.868
314.066	21.652	1129.701	858.021
315.081	21.281	1128.924	855.542
316.095	21.429	1127.899	855.413
317.110	21.340	1127.877	854.885
318.125	21.435	1126.605	854.307
319.139	21.397	1125.836	853.463
320.154	21.462	1125.374	853.354
321.168	21.337	1125.193	852.531
322.183	21.449	1124.509	852.486
323.197	21.427	1123.865	851.817
324.212	21.503	1123.383	851.744
325.227	21.550	1122.911	851.538
326.241	21.735	1121.999	851.674
327.256	21.635	1120.973	850.331
328.270	21.380	1120.534	848.685
329.285	21.482	1119.436	848.273
330.300	21.557	1118.389	847.769
331.314	21.468	1117.269	846.415
332.329	21.509	1116.488	845.947
333.343	21.750	1115.568	846.336
334.358	21.841	1114.991	846.262
335.373	21.781	1114.638	845.634
336.387	21.898	1114.048	845.672
337.402	21.829	1113.596	844.922
338.416	21.976	1113.053	845.146
339.431	22.070	1112.196	844.870
340.446	22.279	1111.408	845.204
341.460	22.383	1111.198	845.467
342.475	22.408	1110.964	845.332
343.489	22.375	1109.479	843.973
344.504	22.522	1108.960	844.209
345.519	22.533	1108.097	843.527
346.533	22.563	1107.281	842.974
347.548	22.640	1106.675	842.806
348.562	22.519	1105.726	841.432
349.577	22.393	1104.256	839.640
350.592	22.232	1103.220	838.010
351.606	21.955	1102.893	836.369
352.621	21.973	1101.768	835.523
353.635	21.790	1101.299	834.223
354.650	21.937	1100.602	834.324
355.665	21.949	1100.427	834.171
356.679	22.173	1099.140	834.188
357.694	22.176	1098.607	833.723
358.708	22.187	1098.191	833.383
359.723	22.236	1097.832	833.273
360.738	22.247	1096.874	832.520
361.752	22.296	1096.317	832.259
362.767	22.236	1095.913	831.595
363.781	22.367	1095.434	831.778
364.796	22.477	1094.964	831.865
365.810	22.474	1094.965	831.778
366.825	22.801	1094.184	832.655
367.840	23.016	1093.482	833.061
368.854	22.988	1093.144	832.597
369.869	22.998	1092.403	832.003
370.883	22.752	1091.878	830.374
371.898	22.576	1090.507	828.432
372.913	22.569	1089.817	827.802
373.927	22.618	1089.766	827.921
374.942	22.909	1088.833	828.499
375.956	22.785	1088.543	827.625
376.971	22.798	1087.637	826.924
377.986	22.801	1087.287	826.599
379.000	23.038	1086.970	827.394
380.015	23.012	1086.206	826.618
381.029	23.115	1085.877	826.776
382.044	23.045	1085.216	825.874
383.059	23.007	1084.210	824.856
384.073	23.010	1083.553	824.297
385.088	23.026	1082.908	823.807
386.102	23.025	1081.830	822.913
387.117	22.712	1080.772	820.580
388.132	22.605	1079.369	818.943
389.146	22.551	1078.355	817.850
390.161	22.634	1077.217	817.303
391.175	22.477	1077.184	816.475
392.190	22.648	1076.445	816.637
393.205	22.908	1076.057	817.472
394.219	22.949	1075.188	816.929
395.234	22.771	1073.974	815.114
396.248	22.547	1073.424	813.589
397.263	22.664	1071.960	812.944
398.278	22.560	1071.286	811.884
399.292	22.329	1070.723	810.321
400.307	22.497	1069.671	810.224
401.321	22.416	1068.919	809.213
402.336	22.339	1068.417	808.407
403.350	22.390	1067.720	808.042
404.365	22.542	1067.378	808.411
405.380	22.680	1066.334	808.179
406.394	22.716	1065.676	807.774
407.409	22.812	1065.484	807.996
408.423	22.994	1065.054	808.432
409.438	23.083	1064.358	808.241
410.453	23.178	1063.308	807.806
411.467	23.394	1062.829	808.356
412.482	23.297	1062.352	807.479
413.496	23.488	1061.580	807.692
414.511	23.437	1061.401	807.250
415.526	23.503	1061.090	807.240
416.540	23.590	1060.473	807.094
417.555	23.589	1060.212	806.822
418.569	23.296	1059.556	804.919
419.584	23.460	1058.572	804.848
420.599	23.342	1058.461	804.155
421.613	157.796	1404.027	1797.949
422.628	145.053	1454.336	1798.001
