DTS Sentinel unit serial number:	SN413079Multiplexer serial number:	ORYXHardware model number:	OX4-SRSoftware version number:	ORYX F/W v4.00 Oryx Data Collector v3.7.2.0data status	okinstallation	princeton_trtdifferential loss correction	single-endedforward channel	channel 2reverse channel	N/Adate	2019/09/11time	03:37:10forward acquisition time	60.00reverse acquisition time	0.00gamma	496.2192k internal	0.2329k external	0.2329temperature offset calibration	0.9940default loss term (dB/km)	0.3790temperature slope calibration	1.0000multiplexer offset coefficient	1.0000multiplexer slope coefficient	1.0000fibre end	0.00T internal ref (°C)	29.50T ext. ref 1 (°C)	-0.30T ext. ref 2 (°C)	23.95length (m)	temperature (°C)	Stokes	anti-Stokes-747.200	116.994	-0.272	-0.337
-746.185	-42.798	-0.114	-0.058
-745.171	-200.000	-0.008	0.057
-744.156	-130.111	-0.272	0.037
-743.142	106.714	0.197	0.236
-742.127	-105.852	-0.382	-0.087
-741.112	129.869	0.136	0.176
-740.098	-200.000	0.008	0.387
-739.083	800.000	0.043	-0.158
-738.069	800.000	-0.071	0.270
-737.054	60.693	0.085	-0.085
-736.039	738.760	-0.080	-0.217
-735.025	-66.420	0.260	-0.104
-734.010	-6.200	-0.063	-0.043
-732.996	14.936	-0.200	0.158
-731.981	800.000	0.054	0.153
-730.966	499.798	-0.093	-0.217
-729.952	-200.000	0.033	-0.340
-728.937	82.024	0.221	-0.242
-727.923	-151.433	-0.227	-0.017
-726.908	-91.897	0.224	0.064
-725.894	-19.306	-0.137	-0.085
-724.879	99.275	-0.226	-0.263
-723.864	-90.593	0.171	-0.050
-722.850	800.000	-0.028	-0.084
-721.835	-185.599	-0.268	-0.004
-720.821	-59.772	-0.192	-0.083
-719.806	252.525	0.046	0.079
-718.791	-200.000	-0.053	-0.254
-717.777	-85.672	-0.095	0.030
-716.762	800.000	0.043	-0.142
-715.748	800.000	-0.105	-0.296
-714.733	-31.429	-0.155	0.088
-713.718	66.402	0.203	0.208
-712.704	-70.426	-0.168	-0.064
-711.689	53.057	0.213	0.206
-710.675	-200.000	-0.037	0.508
-709.660	-40.532	0.095	-0.050
-708.645	125.163	-0.136	-0.173
-707.631	-200.000	-0.023	0.342
-706.616	162.673	0.035	-0.050
-705.602	70.619	-0.099	-0.103
-704.587	-111.028	-0.075	-0.016
-703.572	-200.000	-0.043	0.383
-702.558	-200.000	0.002	0.017
-701.543	226.496	0.122	-0.199
-700.529	-200.000	-0.063	-0.282
-699.514	-99.010	0.447	-0.114
-698.499	-200.000	-0.007	-0.189
-697.485	268.912	-0.037	0.065
-696.470	383.451	-0.057	-0.118
-695.456	-135.629	0.435	0.052
-694.441	322.351	0.108	-0.207
-693.426	336.904	0.123	0.239
-692.412	19.748	0.202	0.163
-691.397	413.376	0.037	-0.079
-690.383	91.743	-0.313	-0.354
-689.368	-200.000	-0.068	-0.349
-688.354	-67.395	-0.139	0.055
-687.339	-200.000	-0.028	-0.147
-686.324	-169.657	0.085	-0.003
-685.310	67.255	-0.065	0.067
-684.295	-200.000	-0.009	-0.250
-683.281	800.000	-0.056	0.161
-682.266	800.000	-0.093	-0.389
-681.251	-103.865	-0.439	-0.103
-680.237	563.246	-0.056	-0.136
-679.222	353.547	-0.152	-0.303
-678.208	-200.000	-0.007	-0.225
-677.193	341.098	-0.165	-0.324
-676.178	189.385	0.252	-0.379
-675.164	-59.733	-0.046	0.020
-674.149	-200.000	-0.058	-0.346
-673.135	-200.000	-0.024	-0.119
-672.120	-25.790	-0.044	0.026
-671.105	800.000	0.027	-0.090
-670.091	486.357	-0.092	-0.212
-669.076	-94.912	0.195	-0.053
-668.062	190.699	-0.178	0.269
-667.047	-63.642	0.154	-0.063
-666.032	-29.487	-0.243	0.139
-665.018	-80.205	0.206	-0.069
-664.003	231.183	-0.060	0.098
-662.989	-39.813	-0.059	0.031
-661.974	-5.706	-0.202	-0.139
-660.959	-200.000	0.000	0.065
-659.945	-188.205	-0.208	-0.003
-658.930	-68.159	-0.112	-0.044
-657.916	168.633	0.110	-0.158
-656.901	-10.052	-0.136	0.091
-655.886	157.073	0.050	-0.070
-654.872	800.000	-0.048	0.140
-653.857	25.494	0.125	0.104
-652.843	800.000	-0.089	-0.332
-651.828	-72.526	-0.271	0.100
-650.814	-127.716	0.370	-0.054
-649.799	-50.191	-0.243	0.115
-648.784	96.478	-0.062	-0.071
-647.770	114.397	-0.088	0.108
-646.755	-82.340	0.244	-0.080
-645.741	-43.630	0.108	-0.054
-644.726	800.000	-0.041	0.149
-643.711	-32.484	-0.006	0.004
-642.697	79.145	0.126	0.136
-641.682	-91.907	-0.346	-0.098
-640.668	168.374	0.093	0.132
-639.653	-37.848	0.357	-0.191
-638.638	800.000	0.015	-0.052
-637.624	-55.741	-0.523	0.235
-636.609	-37.065	-0.017	0.009
-635.595	58.429	-0.161	-0.159
-634.580	-68.346	-0.278	-0.108
-633.565	-28.509	-0.460	-0.266
-632.551	38.341	-0.223	-0.199
-631.536	-200.000	-0.020	-0.414
-630.522	-6.375	0.092	0.063
-629.507	-200.000	0.025	0.254
-628.492	48.203	0.259	0.243
-627.478	-113.847	0.438	0.085
-626.463	84.529	0.160	-0.175
-625.449	-94.548	-0.295	-0.081
-624.434	800.000	0.067	0.277
-623.419	452.127	0.106	0.234
-622.405	-1.379	0.126	-0.089
-621.390	-200.000	-0.006	-0.075
-620.376	21.184	-0.221	0.180
-619.361	-116.187	0.157	0.029
-618.346	450.819	0.095	0.211
-617.332	189.970	0.188	0.283
-616.317	-53.636	0.261	-0.120
-615.303	-58.029	-0.202	-0.088
-614.288	80.883	0.089	0.096
-613.273	100.767	0.173	0.201
-612.259	-18.035	0.161	-0.101
-611.244	-200.000	0.030	-0.251
-610.230	-200.000	0.005	-0.133
-609.215	107.178	-0.043	-0.051
-608.201	-200.000	-0.010	0.079
-607.186	-97.936	0.185	-0.048
-606.171	62.003	-0.127	0.127
-605.157	31.682	-0.027	0.023
-604.142	-200.000	0.020	-0.266
-603.128	-68.260	-0.177	0.069
-602.113	16.816	0.108	-0.086
-601.098	-1.924	0.150	-0.106
-600.084	-116.096	0.273	0.051
-599.069	-200.000	-0.015	0.117
-598.055	-103.588	-0.417	0.098
-597.040	-91.790	0.181	0.051
-596.025	-174.192	-0.165	0.005
-595.011	800.000	-0.105	0.372
-593.996	399.847	0.162	0.339
-592.982	60.973	0.145	-0.144
-591.967	800.000	0.029	0.124
-590.952	-27.854	0.158	-0.091
-589.938	800.000	0.047	0.147
-588.923	-200.000	0.043	0.271
-587.909	-138.542	0.318	0.035
-586.894	-48.237	0.066	-0.032
-585.879	61.796	0.163	0.162
-584.865	-107.440	0.444	0.097
-583.850	269.604	0.153	-0.268
-582.836	381.419	-0.088	0.181
-581.821	-78.735	-0.077	0.026
-580.806	-200.000	-0.023	0.171
-579.792	27.709	0.192	-0.162
-578.777	-122.310	0.011	0.002
-577.763	-92.102	0.235	-0.066
-576.748	367.060	0.081	-0.163
-575.733	-17.084	-0.110	-0.070
-574.719	-96.330	0.346	-0.092
-573.704	7.667	-0.179	-0.134
-572.690	69.752	-0.286	-0.295
-571.675	97.138	0.024	0.028
-570.661	-5.649	0.059	-0.040
-569.646	-200.000	0.036	-0.189
-568.631	-200.000	-0.008	0.105
-567.617	349.756	0.118	-0.233
-566.602	230.910	-0.222	-0.363
-565.588	413.798	0.174	0.371
-564.573	-113.553	0.120	0.023
-563.558	-200.000	-0.057	-0.362
-562.544	-61.821	-0.240	0.101
-561.529	800.000	-0.112	-0.410
-560.515	-37.838	0.261	-0.139
-559.500	-200.000	0.006	-0.295
-558.485	-200.000	0.007	0.096
-557.471	-200.000	0.136	-0.001
-556.456	-122.293	-0.236	-0.039
-555.442	106.943	-0.171	0.203
-554.427	349.707	-0.018	0.036
-553.412	101.853	-0.103	-0.120
-552.398	603.766	-0.112	0.280
-551.383	318.674	-0.263	0.498
-550.369	-125.080	0.241	-0.037
-549.354	-189.020	-0.228	0.003
-548.339	800.000	-0.126	0.522
-547.325	-200.000	0.021	0.127
-546.310	-200.000	-0.020	-0.274
-545.296	800.000	0.054	0.178
-544.281	-34.526	-0.139	-0.076
-543.266	525.738	0.036	-0.084
-542.252	-159.482	-0.274	-0.015
-541.237	41.920	-0.170	0.154
-540.223	-24.475	-0.306	0.182
-539.208	-91.024	0.169	-0.049
-538.193	-50.752	0.119	0.056
-537.179	-49.871	-0.251	-0.119
-536.164	-57.386	-0.112	0.049
-535.150	800.000	-0.112	0.318
-534.135	79.799	-0.178	0.191
-533.121	-132.077	0.220	0.029
-532.106	-36.876	0.370	-0.199
-531.091	-73.143	0.147	-0.054
-530.077	37.279	0.151	-0.134
-529.062	224.248	-0.050	-0.081
-528.048	-37.664	-0.269	-0.143
-527.033	-69.213	-0.245	0.094
-526.018	-200.000	-0.007	0.121
-525.004	800.000	-0.098	-0.325
-523.989	-82.208	0.158	-0.051
-522.975	-99.921	0.331	-0.083
-521.960	-52.243	0.260	0.120
-520.945	-155.227	-0.042	-0.003
-519.931	19.712	0.272	-0.219
-518.916	116.334	0.014	-0.017
-517.902	121.928	-0.199	0.248
-516.887	-15.700	0.296	0.189
-515.872	-200.000	-0.002	-0.058
-514.858	-200.000	-0.042	-0.211
-513.843	-69.699	-0.161	-0.062
-512.829	-88.278	0.330	0.099
-511.814	389.543	0.128	0.264
-510.799	-49.198	-0.134	-0.064
-509.785	238.579	0.099	-0.164
-508.770	131.624	-0.108	-0.138
-507.756	-43.905	-0.075	0.038
-506.741	800.000	-0.009	-0.032
-505.726	-55.829	-0.189	-0.084
-504.712	42.565	-0.252	-0.229
-503.697	-90.294	0.420	0.122
-502.683	606.976	-0.039	0.098
-501.668	800.000	-0.089	0.253
-500.653	-17.381	-0.152	-0.096
-499.639	-140.250	-0.194	-0.020
-498.624	-11.166	-0.119	-0.078
-497.610	-127.021	-0.274	0.040
-496.595	-23.197	0.111	0.067
-495.581	-106.184	-0.170	0.038
-494.566	153.293	0.113	-0.154
-493.551	-38.420	-0.107	0.056
-492.537	21.049	-0.310	0.251
-491.522	-6.298	0.180	0.123
-490.508	-15.500	-0.229	-0.146
-489.493	-75.180	-0.356	0.127
-488.478	56.297	-0.134	-0.130
-487.464	80.757	0.228	0.246
-486.449	-0.706	0.057	-0.040
-485.435	511.566	0.110	0.255
-484.420	103.387	-0.148	0.173
-483.405	702.647	-0.050	0.131
-482.391	-16.077	-0.211	-0.134
-481.376	-200.000	0.019	0.102
-480.362	34.350	0.147	0.128
-479.347	63.249	-0.248	0.248
-478.332	-148.378	0.224	-0.018
-477.318	86.704	-0.271	-0.298
-476.303	-161.090	-0.499	0.026
-475.289	-99.231	-0.203	0.051
-474.274	-156.621	0.148	-0.009
-473.259	-122.481	-0.316	0.051
-472.245	-18.699	-0.126	-0.078
-471.230	-92.890	0.239	0.067
-470.216	117.383	-0.080	-0.098
-469.201	-21.420	0.203	-0.124
-468.186	32.788	-0.192	0.166
-467.172	113.039	-0.149	0.180
-466.157	-124.056	-0.221	-0.035
-465.143	-200.000	0.006	0.074
-464.128	153.590	-0.023	-0.032
-463.113	-34.854	0.081	0.044
-462.099	-200.000	0.015	0.066
-461.084	-200.000	-0.002	0.231
-460.070	41.038	-0.133	0.120
-459.055	-122.802	0.166	-0.027
-458.040	-55.671	-0.050	-0.022
-457.026	120.425	0.160	0.198
-456.011	73.551	0.161	-0.168
-454.997	132.222	-0.043	0.056
-453.982	800.000	-0.072	-0.227
-452.968	-146.353	0.194	0.017
-451.953	317.653	0.193	0.364
-450.938	-11.344	0.200	-0.131
-449.924	-88.728	0.215	-0.064
-448.909	-200.000	0.005	-0.043
-447.895	-16.145	-0.113	-0.072
-446.880	43.279	0.309	-0.281
-445.865	-200.000	0.013	-0.261
-444.851	-71.032	-0.038	-0.014
-443.836	-200.000	-0.015	0.253
-442.822	292.623	-0.050	0.090
-441.807	518.277	-0.060	0.141
-440.792	581.614	-0.107	0.262
-439.778	-143.905	0.334	-0.031
-438.763	-136.429	-0.117	0.014
-437.749	-112.676	0.063	0.012
-436.734	-200.000	0.001	0.008
-435.719	244.766	0.135	-0.227
-434.705	-114.477	-0.116	0.022
-433.690	-13.836	-0.141	-0.091
-432.676	800.000	-0.106	-0.335
-431.661	-200.000	0.031	0.223
-430.646	800.000	-0.059	0.250
-429.632	-57.698	-0.088	0.038
-428.617	-61.461	0.048	0.020
-427.603	-9.159	-0.356	-0.237
-426.588	-65.799	0.210	0.084
-425.573	-200.000	0.048	0.455
-424.559	75.174	-0.097	-0.101
-423.544	-33.056	-0.217	-0.120
-422.530	-11.485	-0.166	-0.109
-421.515	-167.159	-0.387	0.016
-420.500	352.516	-0.038	-0.075
-419.486	-54.448	-0.347	0.157
-418.471	-150.267	0.148	-0.011
-417.457	133.283	0.176	-0.226
-416.442	201.563	0.156	-0.239
-415.428	800.000	-0.083	-0.257
-414.413	-33.330	0.199	-0.109
-413.398	-75.157	-0.063	-0.022
-412.384	73.723	-0.144	-0.150
-411.369	-23.753	-0.127	0.075
-410.355	521.953	-0.094	0.221
-409.340	19.208	-0.158	-0.126
-408.325	107.125	-0.042	0.049
-407.311	-200.000	0.049	-0.441
-406.296	165.664	-0.044	-0.063
-405.282	-16.831	0.146	0.092
-404.267	-200.000	0.023	-0.137
-403.252	800.000	-0.065	0.239
-402.238	462.691	0.184	0.409
-401.223	-42.495	0.161	-0.081
-400.209	800.000	0.062	-0.247
-399.194	10.032	-0.275	-0.208
-398.179	-53.107	0.102	0.047
-397.165	53.707	0.110	0.105
-396.150	-99.419	-0.069	-0.017
-395.136	93.981	-0.147	-0.166
-394.121	349.741	0.011	0.022
-393.106	800.000	-0.101	-0.351
-392.092	317.467	-0.132	0.247
-391.077	146.751	-0.268	0.358
-390.063	-200.000	-0.036	0.282
-389.048	800.000	0.080	0.247
-388.033	90.096	0.245	-0.273
-387.019	638.978	0.070	-0.177
-386.004	-56.027	0.020	0.009
-384.990	800.000	0.022	0.096
-383.975	207.885	0.040	-0.063
-382.960	-90.494	0.429	-0.123
-381.946	375.893	-0.112	-0.227
-380.931	-144.376	-0.187	-0.017
-379.917	-8.451	-0.059	0.040
-378.902	64.298	-0.108	0.108
-377.888	180.680	0.291	0.425
-376.873	-27.722	-0.128	0.074
-375.858	-200.000	-0.020	-0.094
-374.844	-11.892	0.210	0.137
-373.829	-200.000	-0.031	0.260
-372.815	-200.000	-0.071	-0.568
-371.800	-81.080	-0.228	-0.075
-370.785	-200.000	-0.018	0.208
-369.771	-68.111	0.250	0.097
-368.756	-79.612	-0.552	-0.185
-367.742	-22.010	-0.168	-0.101
-366.727	-72.151	0.186	-0.069
-365.712	800.000	-0.108	-0.342
-364.698	-18.914	0.199	-0.123
-363.683	-200.000	0.020	-0.212
-362.669	74.654	0.114	-0.119
-361.654	-85.790	-0.315	-0.097
-360.639	-200.000	0.056	-0.251
-359.625	-29.179	0.275	0.156
-358.610	-200.000	0.017	0.226
-357.596	-164.039	0.264	-0.012
-356.581	18.531	-0.219	0.174
-355.566	-66.503	-0.154	0.061
-354.552	-12.467	-0.062	0.040
-353.537	-200.000	0.051	-0.273
-352.523	-59.960	0.071	0.030
-351.508	800.000	0.116	-0.343
-350.493	-4.840	0.078	0.054
-349.479	-41.546	0.028	-0.015
-348.464	-114.987	0.219	-0.041
-347.450	-134.166	-0.218	0.027
-346.435	-200.000	-0.007	-0.151
-345.420	-57.443	-0.131	-0.057
-344.406	245.883	0.058	0.097
-343.391	-200.000	0.014	0.138
-342.377	-119.025	0.251	-0.044
-341.362	-81.682	0.308	-0.100
-340.348	-57.641	0.173	0.075
-339.333	-61.169	-0.136	-0.057
-338.318	-107.030	-0.167	0.037
-337.304	271.133	-0.114	-0.200
-336.289	118.164	0.095	0.116
-335.275	113.599	-0.185	-0.223
-334.260	75.121	-0.139	0.145
-333.245	800.000	0.052	0.169
-332.231	97.424	0.058	-0.066
-331.216	-63.163	0.213	-0.087
-330.202	137.549	-0.123	0.160
-329.187	-59.643	-0.397	0.169
-328.172	-200.000	-0.017	0.391
-327.158	-38.102	0.103	-0.054
-326.143	-200.000	-0.011	-0.172
-325.129	501.082	-0.166	0.380
-324.114	139.234	-0.104	0.135
-323.099	125.994	0.183	0.230
-322.085	-200.000	0.048	0.273
-321.070	117.917	-0.102	-0.125
-320.056	99.982	-0.148	0.170
-319.041	-11.220	0.130	-0.085
-318.026	-65.592	0.398	-0.158
-317.012	-139.854	0.103	-0.011
-315.997	35.857	-0.470	0.410
-314.983	-76.335	-0.466	0.163
-313.968	256.140	-0.092	-0.156
-312.953	-200.000	0.015	-0.141
-311.939	37.987	-0.141	-0.124
-310.924	110.635	0.061	0.073
-309.910	-121.185	0.121	0.020
-308.895	-200.000	0.068	0.469
-307.880	-34.204	-0.217	0.118
-306.866	800.000	0.091	-0.287
-305.851	186.310	0.075	0.111
-304.837	-53.625	0.296	-0.134
-303.822	-82.749	-0.549	0.176
-302.807	85.819	-0.097	0.105
-301.793	800.000	0.066	0.286
-300.778	-200.000	-0.059	-0.272
-299.764	-200.000	0.047	0.249
-298.749	-200.000	0.003	0.230
-297.735	-69.073	0.206	0.079
-296.720	-26.872	-0.083	0.048
-295.705	-83.765	-0.059	0.019
-294.691	23.619	-0.066	0.054
-293.676	-200.000	0.079	0.394
-292.662	257.856	0.059	-0.101
-291.647	-22.856	-0.203	-0.121
-290.632	800.000	0.027	0.075
-289.618	-146.895	0.542	0.046
-288.603	-200.000	0.002	-0.160
-287.589	-49.880	-0.131	0.062
-286.574	8.237	-0.082	-0.061
-285.559	-31.866	-0.326	-0.181
-284.545	-39.633	-0.325	0.168
-283.530	800.000	-0.049	-0.141
-282.516	202.403	-0.226	-0.346
-281.501	-7.998	-0.352	-0.235
-280.486	174.634	0.041	0.058
-279.472	-200.000	-0.051	0.325
-278.457	162.188	0.167	-0.232
-277.443	62.445	0.075	-0.074
-276.428	-200.000	0.022	-0.163
-275.413	800.000	0.088	0.278
-274.399	-78.908	0.434	-0.146
-273.384	-53.237	0.107	0.049
-272.370	-200.000	-0.034	-0.237
-271.355	-200.000	0.017	0.087
-270.340	5.007	-0.261	-0.190
-269.326	-84.159	-0.055	-0.017
-268.311	-143.614	-0.161	0.015
-267.297	-183.994	0.273	0.005
-266.282	642.161	-0.122	0.306
-265.267	800.000	0.049	-0.141
-264.253	-110.774	0.148	-0.030
-263.238	797.130	-0.135	-0.368
-262.224	-86.492	-0.174	-0.053
-261.209	-158.696	-0.425	0.024
-260.195	164.741	-0.095	-0.133
-259.180	609.840	-0.032	0.079
-258.165	-75.624	0.230	0.081
-257.151	-101.343	0.244	-0.059
-256.136	-33.426	-0.237	-0.130
-255.122	243.070	-0.083	0.137
-254.107	-200.000	-0.052	-0.241
-253.092	-12.276	0.070	0.045
-252.078	-200.000	-0.020	0.280
-251.063	-176.552	0.300	0.008
-250.049	-88.667	-0.360	-0.106
-249.034	-185.377	-0.142	-0.002
-248.019	-200.000	0.030	0.328
-247.005	-10.678	0.136	0.089
-245.990	774.799	0.081	0.219
-244.976	-200.000	-0.061	0.322
-243.961	-174.670	0.296	0.008
-242.946	-140.545	0.157	-0.016
-241.932	38.017	-0.345	-0.303
-240.917	178.494	0.135	-0.195
-239.903	-77.257	-0.092	0.031
-238.888	33.250	-0.204	0.175
-237.873	136.274	0.159	-0.205
-236.859	-100.753	-0.047	0.011
-235.844	310.327	-0.081	0.151
-234.830	-178.154	0.302	0.007
-233.815	69.761	-0.033	0.034
-232.800	137.157	-0.145	-0.188
-231.786	9.302	0.177	0.132
-230.771	-111.573	0.285	-0.057
-229.757	-38.824	-0.169	-0.088
-228.742	800.000	0.041	-0.126
-227.727	-91.429	0.222	-0.063
-226.713	-200.000	0.013	-0.089
-225.698	266.562	0.198	0.342
-224.684	-200.000	0.024	-0.179
-223.669	-200.000	0.030	-0.138
-222.655	-55.781	-0.282	0.124
-221.640	-7.142	-0.093	-0.063
-220.625	-28.734	0.207	-0.118
-219.611	-6.532	-0.172	0.116
-218.596	-58.715	0.102	-0.044
-217.582	-200.000	-0.020	-0.298
-216.567	-75.914	0.345	-0.121
-215.552	189.797	0.178	-0.263
-214.538	-200.000	-0.007	0.191
-213.523	32.706	0.157	-0.134
-212.509	-135.416	0.110	0.013
-211.494	-200.000	0.001	-0.193
-210.479	-200.000	-0.004	-0.102
-209.465	-14.949	0.341	0.215
-208.450	-74.731	0.175	0.062
-207.436	-200.000	-0.043	0.371
-206.421	56.812	0.216	-0.207
-205.406	-92.454	-0.017	-0.005
-204.392	-66.712	0.262	0.102
-203.377	-105.006	0.172	0.039
-202.363	-123.070	-0.235	0.037
-201.348	60.891	0.081	0.079
-200.333	-22.725	0.191	0.114
-199.319	-26.739	0.172	-0.099
-198.304	59.560	0.049	-0.047
-197.290	-200.000	-0.049	-0.362
-196.275	-51.960	0.233	-0.107
-195.260	-84.951	-0.144	0.045
-194.246	-16.567	0.148	0.092
-193.231	-0.563	-0.264	-0.185
-192.217	22.580	-0.017	-0.014
-191.202	-200.000	-0.038	0.239
-190.187	800.000	0.053	0.193
-189.173	-53.112	-0.186	-0.084
-188.158	-200.000	-0.015	0.254
-187.144	-66.667	0.448	-0.175
-186.129	-200.000	-0.038	-0.219
-185.114	800.000	0.070	-0.223
-184.100	33.667	-0.113	-0.097
-183.085	-200.000	-0.030	-0.335
-182.071	800.000	-0.077	0.288
-181.056	11.037	-0.192	0.144
-180.042	207.683	-0.059	-0.091
-179.027	337.398	0.053	-0.101
-178.012	-106.781	-0.100	-0.022
-176.998	36.537	0.007	0.006
-175.983	209.399	0.198	-0.306
-174.969	800.000	0.095	0.377
-173.954	800.000	0.071	-0.214
-172.939	524.267	-0.041	-0.095
-171.925	-128.551	-0.179	-0.025
-170.910	216.274	0.102	-0.160
-169.896	-186.171	-0.119	-0.002
-168.881	114.009	-0.086	-0.103
-167.866	86.993	0.129	0.141
-166.852	17.811	0.266	-0.208
-165.837	183.940	0.151	-0.220
-164.823	-132.457	-0.254	-0.032
-163.808	-111.002	0.326	-0.066
-162.793	-110.365	-0.198	0.040
-161.779	-200.000	0.054	0.305
-160.764	77.956	0.274	0.287
-159.750	800.000	-0.076	-0.323
-158.735	-200.000	0.030	0.171
-157.720	-200.000	0.042	0.209
-156.706	197.675	0.279	-0.419
-155.691	-200.000	0.017	-0.151
-154.677	-199.440	0.147	0.001
-153.662	39.555	-0.050	-0.044
-152.647	-0.155	0.304	0.213
-151.633	800.000	-0.091	-0.334
-150.618	500.716	0.081	0.184
-149.604	227.389	-0.079	0.126
-148.589	800.000	0.105	-0.323
-147.574	-47.279	-0.235	0.112
-146.560	-37.250	-0.186	-0.098
-145.545	-63.171	-0.120	-0.049
-144.531	-25.496	-0.119	-0.069
-143.516	-129.414	0.185	-0.025
-142.502	800.000	-0.100	-0.307
-141.487	134.818	0.140	0.179
-140.472	131.324	-0.077	-0.097
-139.458	800.000	-0.048	-0.159
-138.443	-200.000	-0.006	-0.156
-137.429	-200.000	-0.032	0.449
-136.414	-32.902	-0.106	0.058
-135.399	-66.277	-0.184	0.072
-134.385	95.117	-0.052	-0.058
-133.370	800.000	-0.022	-0.088
-132.356	190.450	-0.158	-0.234
-131.341	186.601	0.096	0.140
-130.326	-75.965	-0.217	0.075
-129.312	-35.415	-0.102	0.055
-128.297	93.874	-0.103	-0.115
-127.283	-200.000	0.027	0.376
-126.268	-160.264	0.259	-0.014
-125.253	83.813	0.158	-0.170
-124.239	-200.000	0.024	0.117
-123.224	-86.222	-0.177	-0.054
-122.210	190.391	0.021	0.032
-121.195	31.058	-0.299	0.252
-120.180	684.615	0.134	0.344
-119.166	130.679	-0.069	0.087
-118.151	264.593	-0.055	-0.094
-117.137	236.010	-0.061	0.099
-116.122	-115.582	0.098	0.018
-115.107	800.000	-0.057	-0.190
-114.093	-60.101	-0.057	-0.024
-113.078	800.000	0.043	0.123
-112.064	-93.981	-0.182	0.049
-111.049	-134.719	0.513	-0.061
-110.034	-156.601	-0.255	-0.016
-109.020	-200.000	-0.031	-0.202
-108.005	-200.000	0.019	0.261
-106.991	11.584	-0.129	-0.098
-105.976	505.533	0.098	-0.223
-104.962	-83.415	-0.225	0.071
-103.947	121.877	-0.037	0.045
-102.932	504.163	-0.022	0.050
-101.918	46.544	-0.151	0.138
-100.903	-200.000	0.014	-0.252
-99.889	-68.021	0.287	0.110
-98.874	224.218	-0.184	0.293
-97.859	116.531	0.198	-0.238
-96.845	-35.978	-0.042	0.022
-95.830	-200.000	0.003	0.222
-94.816	-150.165	0.176	0.013
-93.801	1.589	0.236	0.167
-92.786	800.000	-0.098	-0.358
-91.772	-106.524	-0.224	-0.049
-90.757	262.718	-0.127	-0.217
-89.743	800.000	-0.033	0.111
-88.728	-61.311	0.027	0.011
-87.713	106.030	0.024	0.028
-86.699	-117.274	-0.090	0.016
-85.684	115.384	-0.125	0.150
-84.670	-137.460	-0.221	0.025
-83.655	-45.133	-0.064	-0.031
-82.640	800.000	-0.013	0.040
-81.626	-53.019	0.191	-0.086
-80.611	-117.733	-0.178	-0.032
-79.597	-148.833	-0.149	0.012
-78.582	602.202	0.079	-0.192
-77.567	-51.410	0.143	-0.065
-76.553	800.000	0.022	0.077
-75.538	-12.530	0.149	0.096
-74.524	15.102	-0.231	0.178
-73.509	-89.012	0.123	0.036
-72.494	13.311	-0.230	0.175
-71.480	334.353	0.170	-0.323
-70.465	-104.326	-0.338	0.077
-69.451	375.296	0.202	0.405
-68.436	-16.271	0.054	0.034
-67.422	-33.327	-0.207	0.113
-66.407	-152.025	-0.177	-0.013
-65.392	69.395	-0.366	0.370
-64.378	-177.402	-0.230	0.006
-63.363	800.000	0.063	0.219
-62.349	-17.467	-0.131	0.081
-61.334	23.737	-1.181	-0.954
-60.319	94.145	0.611	0.680
-59.305	800.000	-0.311	-1.143
-58.290	282.293	0.717	1.262
-57.276	625.574	0.696	1.721
-56.261	-200.000	105.561	608.076
-55.246	502.083	1507.245	3414.741
-54.232	174.578	2709.806	3843.718
-53.217	104.505	2301.243	2657.349
-52.203	38.698	1904.821	1666.882
-51.188	32.602	1691.052	1433.546
-50.173	29.977	1647.570	1377.141
-49.159	48.888	1700.636	1564.864
-48.144	49.313	1716.206	1582.342
-47.130	32.280	1673.767	1416.244
-46.115	29.661	1658.964	1384.082
-45.100	29.469	1654.088	1378.520
-44.086	29.411	1651.631	1375.984
-43.071	29.364	1648.930	1373.335
-42.057	29.436	1646.414	1371.715
-41.042	29.362	1644.960	1369.903
-40.027	29.456	1642.604	1368.582
-39.013	29.329	1640.632	1365.944
-37.998	29.408	1639.201	1365.285
-36.984	29.403	1637.938	1364.141
-35.969	29.554	1635.907	1363.514
-34.954	29.551	1634.378	1362.160
-33.940	29.446	1633.225	1360.367
-32.925	29.529	1631.015	1359.088
-31.911	29.529	1629.251	1357.560
-30.896	29.422	1627.338	1355.132
-29.881	29.427	1626.088	1354.068
-28.867	29.463	1624.346	1352.828
-27.852	29.559	1622.928	1352.296
-26.838	29.412	1621.922	1350.334
-25.823	29.494	1620.321	1349.543
-24.809	29.513	1619.293	1348.771
-23.794	29.486	1617.844	1347.318
-22.779	29.495	1616.385	1346.113
-21.765	29.467	1614.476	1344.269
-20.750	29.472	1613.067	1343.073
-19.736	29.522	1612.023	1342.519
-18.721	29.500	1610.342	1340.902
-17.706	29.522	1608.573	1339.535
-16.692	29.517	1607.067	1338.193
-15.677	29.557	1605.757	1337.343
-14.663	29.579	1604.175	1336.129
-13.648	29.527	1602.893	1334.631
-12.633	29.555	1601.932	1333.984
-11.619	29.629	1599.720	1332.617
-10.604	29.496	1598.795	1330.840
-9.590	29.543	1597.313	1329.888
-8.575	29.680	1595.774	1329.542
-7.560	29.562	1595.253	1328.207
-6.546	29.504	1594.133	1326.804
-5.531	29.601	1593.105	1326.589
-4.517	29.503	1591.763	1324.718
-3.502	29.551	1590.671	1324.104
-2.487	29.634	1588.705	1323.006
-1.473	29.333	1577.807	1311.741
-0.458	26.677	1558.151	1276.657
0.556	20.971	1560.140	1247.292
1.571	18.935	1584.655	1251.970
2.586	18.609	1598.611	1260.488
3.600	16.905	1546.364	1207.062
4.615	8.918	1436.124	1067.910
5.629	1.343	1371.861	971.695
6.644	-0.144	1363.893	956.499
7.659	-0.399	1362.888	954.089
8.673	-0.300	1361.170	953.432
9.688	-0.357	1359.856	952.066
10.702	-0.640	1357.126	948.275
11.717	2.954	1363.831	975.734
12.731	12.409	1381.213	1048.662
13.746	19.682	1393.087	1104.229
14.761	21.565	1396.215	1118.658
15.775	21.899	1395.885	1120.426
16.790	21.929	1395.325	1120.068
17.804	22.044	1394.231	1119.824
18.819	22.359	1393.834	1121.413
19.834	22.270	1393.867	1120.776
20.848	22.269	1393.177	1120.115
21.863	22.337	1391.924	1119.438
22.877	22.351	1391.417	1119.020
23.892	22.334	1390.372	1117.973
24.907	22.334	1389.980	1117.563
25.921	22.297	1388.229	1115.816
26.936	22.373	1387.614	1115.705
27.950	22.271	1386.730	1114.250
28.965	22.452	1385.686	1114.459
29.980	22.360	1384.291	1112.658
30.994	22.278	1383.311	1111.255
32.009	22.304	1382.247	1110.468
33.023	22.298	1381.280	1109.554
34.038	22.285	1379.503	1107.943
35.053	22.339	1378.897	1107.698
36.067	22.323	1377.963	1106.751
37.082	22.298	1377.063	1105.771
38.096	22.287	1376.431	1105.100
39.111	22.350	1375.569	1104.703
40.126	22.377	1374.250	1103.716
41.140	22.374	1374.272	1103.619
42.155	22.313	1373.649	1102.639
43.169	22.311	1374.209	1102.976
44.184	22.314	1373.455	1102.294
45.199	22.277	1373.534	1102.027
46.213	22.397	1372.282	1101.674
47.228	22.354	1371.580	1100.746
48.242	22.303	1370.094	1099.134
49.257	22.356	1368.933	1098.441
50.271	22.376	1367.605	1097.399
51.286	22.305	1366.295	1095.812
52.301	22.360	1364.723	1094.797
53.315	22.289	1364.108	1093.763
54.330	22.290	1363.663	1093.318
55.344	22.280	1362.366	1092.114
56.359	22.400	1360.892	1091.581
57.374	22.289	1360.651	1090.604
58.388	22.274	1359.984	1089.878
59.403	22.297	1359.235	1089.325
60.417	22.371	1358.525	1089.118
61.432	22.289	1357.640	1087.807
62.447	22.337	1356.951	1087.453
63.461	22.299	1355.809	1086.207
64.476	22.286	1354.720	1085.162
65.490	22.414	1353.675	1085.014
66.505	22.379	1351.816	1083.213
67.520	22.406	1350.612	1082.322
68.534	22.401	1349.914	1081.633
69.549	22.393	1349.140	1080.867
70.563	22.427	1347.656	1079.795
71.578	22.316	1347.210	1078.659
72.593	22.435	1346.039	1078.354
73.607	22.335	1345.943	1077.568
74.622	22.408	1344.724	1076.949
75.636	22.357	1343.970	1075.936
76.651	22.370	1343.075	1075.204
77.666	22.357	1343.003	1074.972
78.680	22.404	1342.166	1074.495
79.695	22.333	1341.381	1073.334
80.709	22.405	1340.657	1073.098
81.724	22.371	1339.553	1071.913
82.739	22.368	1338.630	1071.060
83.753	22.393	1337.705	1070.382
84.768	22.252	1336.692	1068.615
85.782	22.402	1335.154	1068.205
86.797	22.406	1334.290	1067.440
87.812	22.374	1333.124	1066.223
88.826	22.507	1331.928	1065.976
89.841	22.437	1331.450	1065.078
90.855	22.433	1330.161	1063.927
91.870	22.463	1329.039	1063.116
92.884	22.412	1328.633	1062.386
93.899	22.456	1327.748	1061.851
94.914	22.498	1326.839	1061.286
95.928	22.336	1326.518	1059.959
96.943	22.384	1325.681	1059.484
97.957	22.443	1325.095	1059.280
98.972	22.403	1323.749	1057.866
99.987	22.397	1322.769	1056.955
101.001	22.409	1321.317	1055.775
102.016	22.382	1320.973	1055.242
103.030	22.405	1319.687	1054.261
104.045	22.377	1319.119	1053.546
105.060	22.548	1317.818	1053.434
106.074	22.424	1316.718	1051.723
107.089	22.494	1315.667	1051.207
108.103	22.464	1314.823	1050.262
109.118	22.469	1313.716	1049.315
110.133	22.476	1312.832	1048.555
111.147	22.516	1311.027	1047.259
112.162	22.475	1310.259	1046.311
113.176	22.485	1309.248	1045.472
114.191	22.386	1308.490	1044.185
115.206	22.431	1307.536	1043.596
116.220	22.470	1305.665	1042.240
117.235	22.436	1305.146	1041.536
118.249	22.528	1304.020	1041.088
119.264	22.555	1303.094	1040.416
120.279	22.499	1302.448	1039.480
121.293	22.586	1301.552	1039.186
122.308	22.662	1300.308	1038.548
123.322	22.563	1299.521	1037.243
124.337	22.536	1298.915	1036.506
125.352	22.527	1297.892	1035.547
126.366	22.468	1296.956	1034.363
127.381	22.657	1295.885	1034.527
128.395	22.545	1294.982	1033.058
129.410	22.584	1294.130	1032.513
130.424	22.609	1293.469	1032.043
131.439	22.644	1292.682	1031.525
132.454	22.580	1291.626	1030.219
133.468	22.490	1291.210	1029.270
134.483	22.528	1290.804	1029.080
135.497	22.468	1289.857	1027.881
136.512	22.472	1288.671	1026.871
137.527	22.544	1287.183	1026.010
138.541	22.583	1285.952	1025.168
139.556	22.491	1284.787	1023.612
140.570	22.444	1283.869	1022.520
141.585	22.466	1282.484	1021.452
142.600	22.479	1281.415	1020.585
143.614	22.523	1280.880	1020.325
144.629	22.399	1280.093	1018.890
145.643	22.436	1278.850	1018.020
146.658	22.420	1277.359	1016.652
147.673	22.445	1276.787	1016.253
148.687	22.420	1275.989	1015.385
149.702	22.437	1274.569	1014.262
150.716	22.564	1272.850	1013.536
151.731	22.516	1272.567	1012.946
152.746	22.464	1271.179	1011.453
153.760	22.539	1270.265	1011.065
154.775	22.463	1269.228	1009.712
155.789	22.508	1268.398	1009.222
156.804	22.495	1267.482	1008.332
157.819	22.443	1266.488	1007.150
158.833	22.409	1266.022	1006.496
159.848	22.533	1265.050	1006.343
160.862	22.631	1264.267	1006.189
161.877	22.672	1263.250	1005.527
162.892	22.642	1262.717	1004.840
163.906	22.583	1261.951	1003.807
164.921	22.630	1261.052	1003.273
165.935	22.607	1260.162	1002.342
166.950	22.616	1259.551	1001.819
167.964	22.618	1259.398	1001.623
168.979	22.648	1257.974	1000.572
169.994	22.678	1257.443	1000.228
171.008	22.706	1256.825	999.809
172.023	22.603	1256.295	998.716
173.037	22.663	1255.379	998.240
174.052	22.567	1254.885	997.215
175.067	22.604	1253.918	996.567
176.081	22.693	1253.202	996.411
177.096	22.568	1252.386	994.971
178.110	22.597	1251.631	994.448
179.125	22.751	1250.124	994.027
180.140	22.703	1249.275	992.993
181.154	22.658	1248.677	992.179
182.169	22.638	1247.378	990.947
183.183	22.678	1246.258	990.191
184.198	22.680	1245.268	989.330
185.213	22.720	1244.598	988.936
186.227	22.735	1243.304	987.902
187.242	22.714	1242.961	987.427
188.256	22.718	1241.910	986.527
189.271	22.789	1241.156	986.234
190.286	22.775	1240.185	985.296
191.300	22.711	1239.484	984.299
192.315	22.674	1239.150	983.738
193.329	22.687	1239.062	983.653
194.344	22.868	1238.221	983.907
195.359	22.807	1237.626	983.008
196.373	22.632	1237.242	981.643
197.388	22.642	1237.007	981.423
198.402	22.741	1236.362	981.378
199.417	22.718	1236.010	980.881
200.432	22.846	1235.053	980.749
201.446	22.795	1234.446	979.894
202.461	22.716	1233.587	978.691
203.475	22.719	1232.985	978.141
204.490	22.712	1232.158	977.361
205.504	22.798	1230.633	976.537
206.519	22.820	1229.941	976.023
207.534	22.813	1229.011	975.163
208.548	22.788	1228.232	974.319
209.563	22.773	1227.538	973.598
210.577	22.767	1226.715	972.829
211.592	22.873	1225.943	972.712
212.607	22.835	1225.111	971.760
213.621	22.863	1224.589	971.411
214.636	22.899	1223.492	970.656
215.650	22.936	1222.892	970.297
216.665	22.759	1221.814	968.381
217.680	22.818	1221.176	968.118
218.694	22.862	1220.092	967.412
219.709	22.872	1219.723	967.091
220.723	22.894	1218.806	966.395
221.738	22.828	1218.277	965.528
222.753	22.788	1217.121	964.312
223.767	22.785	1217.098	964.187
224.782	23.021	1215.990	964.512
225.796	22.938	1215.774	963.803
226.811	22.945	1215.073	963.203
227.826	23.024	1214.687	963.242
228.840	23.006	1213.481	962.100
229.855	23.032	1213.175	961.915
230.869	23.075	1212.064	961.185
231.884	22.898	1212.009	960.094
232.899	22.906	1211.283	959.477
233.913	23.059	1210.538	959.629
234.928	23.078	1210.248	959.422
235.942	23.081	1209.102	958.441
236.957	23.130	1208.280	957.972
237.972	23.014	1207.918	956.973
238.986	23.024	1207.236	956.399
240.001	23.078	1206.703	956.187
241.015	23.093	1206.014	955.636
242.030	23.195	1205.015	955.313
243.045	23.162	1204.653	954.762
244.059	23.057	1203.649	953.315
245.074	23.110	1202.730	952.789
246.088	23.151	1202.157	952.471
247.103	23.223	1200.786	951.689
248.117	23.215	1200.321	951.190
249.132	23.185	1199.651	950.417
250.147	23.169	1198.924	949.669
251.161	23.270	1198.127	949.496
252.176	23.129	1197.764	948.366
253.190	23.248	1196.957	948.283
254.205	23.208	1196.437	947.572
255.220	23.214	1195.754	946.981
256.234	23.162	1195.305	946.265
257.249	23.162	1194.581	945.606
258.263	23.141	1194.065	945.002
259.278	23.256	1193.396	945.004
260.293	23.302	1192.936	944.799
261.307	23.206	1192.589	943.930
262.322	23.281	1191.958	943.748
263.336	23.317	1191.171	943.231
264.351	23.390	1190.403	942.929
265.366	23.274	1190.015	941.921
266.380	23.189	1189.654	941.100
267.395	23.288	1188.516	940.642
268.409	23.258	1187.854	939.876
269.424	23.311	1187.229	939.578
270.439	23.365	1186.887	939.513
271.453	23.329	1186.530	938.954
272.468	23.314	1185.167	937.712
273.482	23.280	1184.475	936.902
274.497	23.255	1184.578	936.767
275.512	23.323	1183.669	936.326
276.526	23.296	1182.926	935.513
277.541	23.301	1182.717	935.292
278.555	23.383	1181.787	934.906
279.570	23.292	1181.365	934.010
280.585	23.408	1180.221	933.633
281.599	23.478	1178.851	932.835
282.614	23.466	1178.301	932.254
283.628	23.460	1177.222	931.287
284.643	23.507	1176.532	930.904
285.657	23.511	1175.345	929.906
286.672	23.477	1174.728	929.157
287.687	23.419	1174.339	928.465
288.701	23.487	1173.498	928.073
289.716	23.442	1173.170	927.495
290.730	23.441	1172.503	926.881
291.745	23.584	1171.702	926.912
292.760	23.453	1171.035	925.620
293.774	23.488	1170.498	925.297
294.789	23.608	1169.858	925.331
295.803	23.636	1169.402	925.038
296.818	23.637	1168.510	924.253
297.833	23.578	1168.223	923.639
298.847	23.591	1167.313	922.906
299.862	23.605	1166.393	922.169
300.876	23.602	1165.986	921.749
301.891	23.547	1165.336	920.866
302.906	23.663	1164.804	920.968
303.920	23.517	1164.455	919.853
304.935	23.598	1163.569	919.489
305.949	23.670	1162.754	919.139
306.964	23.622	1162.358	918.496
307.979	23.709	1161.483	918.175
308.993	23.671	1160.719	917.294
310.008	23.854	1159.568	917.245
311.022	23.584	1159.618	915.811
312.037	23.776	1158.640	915.948
313.052	23.676	1157.606	914.531
314.066	23.709	1156.828	914.006
315.081	23.698	1156.739	913.798
316.095	23.733	1155.349	912.803
317.110	23.792	1155.012	912.759
318.125	23.706	1154.821	912.083
319.139	23.765	1153.906	911.582
320.154	23.732	1153.258	910.822
321.168	23.827	1152.752	910.828
322.183	23.853	1152.004	910.290
323.197	23.832	1151.113	909.396
324.212	23.727	1150.900	908.614
325.227	23.793	1150.705	908.718
326.241	23.860	1150.148	908.536
327.256	23.843	1149.131	907.568
328.270	23.897	1148.412	907.195
329.285	23.865	1147.445	906.188
330.300	23.808	1146.834	905.333
331.314	23.874	1146.078	904.992
332.329	23.929	1145.075	904.399
333.343	23.967	1143.950	903.624
334.358	23.927	1143.551	903.028
335.373	23.897	1143.221	902.534
336.387	23.929	1142.650	902.164
337.402	23.997	1141.538	901.551
338.416	24.044	1140.836	901.156
339.431	24.055	1140.170	900.606
340.446	24.062	1139.539	900.062
341.460	24.050	1138.792	899.330
342.475	24.060	1138.138	898.787
343.489	24.031	1137.193	897.815
344.504	24.047	1136.113	896.962
345.519	24.068	1135.216	896.281
346.533	24.073	1134.595	895.738
347.548	24.220	1133.963	895.896
348.562	24.032	1133.904	894.826
349.577	24.091	1132.736	894.121
350.592	23.924	1132.484	893.007
351.606	23.993	1131.659	892.623
352.621	24.113	1130.968	892.602
353.635	24.028	1130.371	891.626
354.650	24.120	1129.531	891.343
355.665	24.159	1129.395	891.355
356.679	24.222	1128.448	890.840
357.694	24.122	1128.005	889.911
358.708	24.190	1126.953	889.342
359.723	24.235	1126.140	888.847
360.738	24.072	1126.193	888.000
361.752	24.021	1125.394	887.036
362.767	24.157	1124.870	887.224
363.781	24.237	1123.887	886.764
364.796	24.190	1123.838	886.413
365.810	24.262	1123.150	886.150
366.825	24.307	1122.474	885.761
367.840	24.399	1121.953	885.730
368.854	24.430	1121.336	885.316
369.869	24.229	1120.837	883.851
370.883	24.360	1119.690	883.516
371.898	24.415	1118.777	882.989
372.913	24.285	1118.620	882.142
373.927	24.371	1118.031	882.026
374.942	24.486	1117.083	881.770
375.956	24.370	1117.044	881.088
376.971	24.350	1116.636	880.591
377.986	24.244	1116.088	879.554
379.000	24.393	1115.419	879.686
380.015	24.587	1114.529	879.862
381.029	24.381	1114.210	878.517
382.044	24.439	1113.501	878.165
383.059	24.581	1112.243	877.795
384.073	24.572	1111.718	877.258
385.088	24.588	1111.051	876.732
386.102	24.563	1109.904	875.628
387.117	24.593	1109.418	875.314
388.132	24.539	1108.597	874.326
389.146	24.496	1108.328	873.824
390.161	24.518	1107.661	873.329
391.175	24.588	1106.714	872.843
392.190	24.479	1106.169	871.808
393.205	24.508	1105.533	871.369
394.219	24.618	1104.821	871.267
395.234	24.716	1103.723	870.802
396.248	24.604	1102.826	869.474
397.263	24.675	1101.900	869.010
398.278	24.577	1101.833	868.406
399.292	24.701	1100.944	868.230
400.307	24.740	1100.394	867.907
401.321	24.844	1099.494	867.627
402.336	24.690	1098.830	866.280
403.350	24.650	1098.596	865.822
404.365	24.644	1098.049	865.288
405.380	24.912	1096.677	865.425
406.394	24.834	1096.132	864.541
407.409	24.841	1095.386	863.911
408.423	24.920	1094.771	863.728
409.438	24.871	1094.408	863.129
410.453	24.836	1093.880	862.468
411.467	24.834	1093.045	861.724
412.482	24.754	1092.531	860.859
413.496	24.977	1091.718	861.211
414.511	24.957	1090.938	860.424
415.526	25.006	1090.624	860.339
416.540	24.825	1090.193	859.054
417.555	24.775	1090.036	858.612
418.569	24.940	1089.065	858.562
419.584	24.960	1088.630	858.239
420.599	24.893	1088.608	857.825
421.613	147.779	1402.915	1797.268
422.628	136.669	1448.678	1797.360
