DTS Sentinel unit serial number:	SN413079Multiplexer serial number:	ORYXHardware model number:	OX4-SRSoftware version number:	ORYX F/W v4.00 Oryx Data Collector v3.7.2.0data status	okinstallation	princeton_trtdifferential loss correction	single-endedforward channel	channel 2reverse channel	N/Adate	2019/09/12time	02:05:11forward acquisition time	60.00reverse acquisition time	0.00gamma	496.2192k internal	0.2326k external	0.2326temperature offset calibration	1.0091default loss term (dB/km)	0.3790temperature slope calibration	1.0000multiplexer offset coefficient	1.0000multiplexer slope coefficient	1.0000fibre end	0.00T internal ref (°C)	32.72T ext. ref 1 (°C)	2.06T ext. ref 2 (°C)	27.27length (m)	temperature (°C)	Stokes	anti-Stokes-747.200	-200.000	-0.048	-0.239
-746.185	161.027	-0.042	-0.059
-745.171	-128.133	-0.200	-0.029
-744.156	-46.919	-0.133	0.066
-743.142	30.682	-0.142	-0.122
-742.127	-200.000	0.006	0.240
-741.112	-40.155	-0.152	-0.080
-740.098	644.922	0.017	-0.044
-739.083	196.252	-0.037	0.056
-738.069	261.396	-0.102	0.178
-737.054	800.000	0.077	-0.251
-736.039	171.353	-0.145	-0.210
-735.025	-200.000	0.003	0.336
-734.010	102.281	-0.168	0.198
-732.996	12.272	-0.299	-0.232
-731.981	-142.220	0.234	-0.023
-730.966	669.065	-0.049	-0.127
-729.952	-138.162	0.059	0.007
-728.937	732.823	-0.131	0.352
-727.923	124.279	0.025	-0.032
-726.908	15.996	-0.254	0.202
-725.894	36.732	-0.124	0.110
-724.879	-58.057	0.117	0.051
-723.864	800.000	-0.053	0.231
-722.850	85.210	-0.175	-0.194
-721.835	800.000	0.107	-0.390
-720.821	630.169	-0.059	-0.152
-719.806	800.000	0.072	0.296
-718.791	78.775	-0.230	-0.248
-717.777	333.630	-0.032	0.063
-716.762	193.689	-0.154	-0.235
-715.748	120.703	-0.281	-0.352
-714.733	-26.966	0.186	-0.109
-713.718	167.885	-0.217	-0.311
-712.704	-50.816	0.278	0.132
-711.689	-30.973	0.142	-0.081
-710.675	-193.917	0.299	-0.003
-709.660	63.367	-0.126	0.128
-708.645	800.000	-0.056	-0.182
-707.631	-70.584	0.159	-0.060
-706.616	8.934	0.165	0.125
-705.602	-200.000	0.003	-0.248
-704.587	-200.000	0.084	-0.390
-703.572	-200.000	0.013	0.130
-702.558	-70.060	-0.252	0.097
-701.543	209.884	0.065	-0.102
-700.529	11.436	0.220	-0.169
-699.514	-24.801	-0.278	-0.166
-698.499	-0.968	0.166	0.118
-697.485	-137.902	-0.187	0.021
-696.470	-52.362	0.219	0.102
-695.456	800.000	-0.048	0.150
-694.441	-24.201	-0.098	0.059
-693.426	10.776	-0.222	0.171
-692.412	-85.632	0.391	-0.122
-691.397	-200.000	0.049	-0.319
-690.383	-200.000	0.003	0.077
-689.368	-60.448	0.240	0.103
-688.354	-70.739	-0.295	0.112
-687.339	573.390	-0.124	-0.304
-686.324	-126.733	-0.272	0.040
-685.310	-27.861	0.174	0.101
-684.295	-200.000	0.000	0.105
-683.281	-90.092	-0.390	-0.114
-682.266	457.497	-0.046	-0.103
-681.251	-200.000	0.031	0.274
-680.237	19.723	0.222	-0.180
-679.222	33.857	0.058	0.051
-678.208	247.549	0.187	0.319
-677.193	-67.540	0.099	0.039
-676.178	-200.000	0.021	0.181
-675.164	180.244	0.081	-0.119
-674.149	-91.841	0.241	0.069
-673.135	266.174	-0.087	-0.153
-672.120	-126.012	-0.173	-0.026
-671.105	-51.485	-0.134	0.063
-670.091	-200.000	0.016	-0.172
-669.076	723.304	0.038	-0.101
-668.062	399.038	-0.165	-0.347
-667.047	10.598	0.071	0.055
-666.032	800.000	-0.079	-0.299
-665.018	-93.052	-0.251	0.070
-664.003	-145.250	-0.173	0.016
-662.989	-200.000	0.016	0.194
-661.974	800.000	0.036	0.129
-660.959	-147.590	-0.022	-0.002
-659.945	-200.000	0.016	-0.400
-658.930	-200.000	0.010	-0.145
-657.916	422.137	-0.159	0.343
-656.901	630.028	-0.075	-0.190
-655.886	-147.488	0.157	0.013
-654.872	218.823	-0.109	-0.175
-653.857	-121.927	-0.277	-0.046
-652.843	-95.665	0.101	0.027
-651.828	-200.000	0.005	0.454
-650.814	-200.000	-0.050	0.361
-649.799	-158.774	-0.199	-0.011
-648.784	-91.936	-0.175	-0.050
-647.770	-1.736	-0.285	0.202
-646.755	156.596	0.212	0.294
-645.741	35.978	0.110	-0.098
-644.726	489.283	0.059	-0.136
-643.711	54.355	0.129	0.125
-642.697	-200.000	0.055	0.304
-641.682	-200.000	0.012	0.134
-640.668	800.000	-0.012	0.038
-639.653	66.704	-0.148	-0.151
-638.638	800.000	-0.063	-0.214
-637.624	227.111	0.085	0.138
-636.609	763.795	-0.119	0.325
-635.595	-53.684	0.279	0.128
-634.580	-200.000	-0.023	-0.168
-633.565	-76.515	-0.266	0.094
-632.551	800.000	-0.018	-0.060
-631.536	-149.108	-0.186	0.015
-630.522	-53.749	0.151	-0.069
-629.507	-127.034	-0.145	0.021
-628.492	-103.925	0.263	-0.062
-627.478	158.225	0.095	-0.132
-626.463	90.380	-0.082	-0.092
-625.449	195.736	0.079	0.120
-624.434	-200.000	0.056	0.337
-623.419	-66.750	-0.206	-0.082
-622.405	103.055	0.154	-0.181
-621.390	800.000	-0.042	0.127
-620.376	46.065	0.140	0.130
-619.361	-39.337	0.205	0.108
-618.346	153.072	0.090	-0.124
-617.332	-123.086	-0.173	0.028
-616.317	-200.000	0.005	0.085
-615.303	-171.739	0.090	0.003
-614.288	87.641	0.117	-0.130
-613.273	800.000	0.061	-0.259
-612.259	-200.000	0.057	0.416
-611.244	133.622	-0.214	-0.278
-610.230	156.659	-0.155	-0.215
-609.215	-74.668	0.174	0.063
-608.201	-175.322	-0.213	0.006
-607.186	746.046	0.071	0.193
-606.171	-120.302	-0.332	0.057
-605.157	777.500	-0.070	-0.191
-604.142	-145.498	0.228	-0.021
-603.128	-200.000	0.023	0.136
-602.113	-200.000	-0.032	0.212
-601.098	-5.603	0.277	0.190
-600.084	417.100	-0.050	0.107
-599.069	-51.570	-0.025	-0.012
-598.055	-63.936	0.192	-0.079
-597.040	93.896	-0.114	-0.129
-596.025	-61.643	-0.109	-0.046
-595.011	800.000	0.068	-0.237
-593.996	-200.000	0.027	-0.244
-592.982	-101.217	-0.259	-0.064
-591.967	-200.000	-0.014	0.272
-590.952	177.780	-0.147	-0.215
-589.938	234.709	-0.036	-0.059
-588.923	35.662	0.259	0.228
-587.909	209.203	-0.063	-0.099
-586.894	800.000	-0.066	0.184
-585.879	-42.904	0.411	0.209
-584.865	-80.729	0.121	-0.040
-583.850	118.699	-0.201	0.249
-582.836	-112.381	0.104	0.021
-581.821	800.000	-0.020	-0.057
-580.806	-43.261	0.336	0.170
-579.792	154.028	-0.097	0.133
-578.777	-109.118	0.240	0.051
-577.763	-200.000	0.087	0.559
-576.748	-200.000	0.035	0.321
-575.733	1.246	-0.232	-0.167
-574.719	800.000	-0.090	-0.261
-573.704	-35.324	-0.355	0.193
-572.690	-154.093	-0.131	0.009
-571.675	-52.318	-0.329	-0.153
-570.661	-131.224	0.255	0.034
-569.646	786.815	-0.034	0.092
-568.631	-136.581	0.231	-0.027
-567.617	-200.000	-0.008	-0.142
-566.602	108.432	0.218	-0.261
-565.588	-200.000	0.181	0.001
-564.573	-113.102	-0.185	0.037
-563.558	-200.000	0.004	-0.026
-562.544	68.006	0.113	0.115
-561.529	-124.798	-0.183	0.028
-560.515	800.000	-0.036	0.105
-559.500	193.084	-0.135	-0.204
-558.485	-200.000	0.012	0.240
-557.471	800.000	0.037	0.111
-556.456	-21.301	-0.100	-0.061
-555.442	-67.441	0.133	-0.052
-554.427	-45.115	0.325	0.162
-553.412	124.837	-0.038	0.048
-552.398	-80.773	-0.124	0.041
-551.383	206.005	0.201	-0.312
-550.369	-200.000	0.084	-0.373
-549.354	508.959	-0.060	-0.139
-548.339	-104.807	0.206	-0.047
-547.325	-1.342	0.037	-0.026
-546.310	-200.000	-0.011	-0.416
-545.296	182.298	0.042	0.062
-544.281	-58.717	0.241	0.105
-543.266	800.000	0.022	-0.086
-542.252	300.672	0.106	-0.196
-541.237	204.446	-0.063	0.098
-540.223	-200.000	0.054	0.285
-539.208	41.744	-0.194	-0.176
-538.193	184.884	-0.244	-0.361
-537.179	-47.521	-0.148	0.072
-536.164	800.000	-0.042	0.147
-535.150	-123.061	-0.094	-0.015
-534.135	800.000	0.011	-0.030
-533.121	47.495	0.185	-0.172
-532.106	22.908	-0.223	-0.183
-531.091	-177.661	0.051	-0.001
-530.077	687.130	0.146	0.382
-529.062	-200.000	-0.016	-0.242
-528.048	-200.000	0.031	-0.370
-527.033	-116.276	-0.168	-0.031
-526.018	-200.000	0.027	0.375
-525.004	-200.000	0.005	-0.077
-523.989	-39.863	0.146	0.076
-522.975	34.591	0.266	0.232
-521.960	-2.886	0.021	0.015
-520.945	135.090	0.291	-0.378
-519.931	-29.137	0.283	-0.162
-518.916	-19.382	-0.246	-0.153
-517.902	-105.621	-0.017	0.004
-516.887	-9.940	0.065	-0.043
-515.872	107.683	-0.157	0.187
-514.858	71.598	0.043	-0.045
-513.843	-107.852	-0.078	0.017
-512.829	-200.000	-0.354	-0.001
-511.814	-95.732	-0.235	-0.063
-510.799	45.173	-0.167	-0.154
-509.785	-83.357	-0.202	-0.065
-508.770	800.000	-0.123	-0.456
-507.756	655.838	-0.055	-0.141
-506.741	-92.840	-0.158	-0.044
-505.726	15.609	-0.029	0.023
-504.712	-129.806	0.289	0.040
-503.697	179.424	-0.101	-0.147
-502.683	79.174	-0.175	-0.187
-501.668	-46.607	-0.108	-0.053
-500.653	30.890	-0.111	-0.095
-499.639	-139.125	-0.342	-0.037
-498.624	535.683	-0.076	-0.180
-497.610	273.879	-0.151	-0.266
-496.595	-24.569	-0.306	-0.182
-495.581	-136.571	-0.400	0.046
-494.566	118.435	0.062	0.077
-493.551	3.858	-0.184	0.134
-492.537	-23.372	-0.158	0.095
-491.522	-200.000	0.098	0.000
-490.508	40.418	0.216	-0.194
-489.493	-200.000	-0.011	-0.186
-488.478	-27.731	-0.103	-0.060
-487.464	800.000	-0.075	-0.268
-486.449	-3.744	0.124	-0.086
-485.435	58.590	-0.067	-0.066
-484.420	87.402	-0.200	0.221
-483.405	-200.000	0.037	-0.216
-482.391	-200.000	0.037	0.323
-481.376	-138.720	0.135	-0.015
-480.362	419.100	0.129	-0.275
-479.347	-118.062	-0.110	-0.020
-478.332	-200.000	-0.008	-0.534
-477.318	-40.988	0.078	-0.040
-476.303	308.897	-0.114	0.213
-475.289	134.450	0.103	-0.133
-474.274	-12.393	0.514	-0.335
-473.259	-87.995	-0.137	0.041
-472.245	-135.670	-0.241	-0.029
-471.230	97.654	0.148	0.170
-470.216	179.587	-0.200	0.293
-469.201	117.076	0.130	-0.159
-468.186	-109.925	-0.154	0.032
-467.172	-139.367	0.206	0.022
-466.157	4.408	-0.105	-0.077
-465.143	-54.644	-0.205	0.093
-464.128	-63.275	0.159	0.065
-463.113	41.614	0.066	-0.060
-462.099	-58.166	0.035	0.015
-461.084	-197.545	-0.264	-0.002
-460.070	800.000	0.057	-0.169
-459.055	732.158	0.053	-0.141
-458.040	-63.963	0.225	-0.092
-457.026	-76.034	-0.286	0.101
-456.011	395.477	-0.115	-0.239
-454.997	304.377	-0.231	0.428
-453.982	-100.673	-0.313	0.077
-452.968	251.452	0.062	0.106
-451.953	-58.603	-0.139	-0.060
-450.938	186.763	-0.161	0.239
-449.924	-200.000	-0.001	0.263
-448.909	-172.281	-0.237	0.008
-447.895	-15.778	0.160	-0.102
-446.880	-20.053	0.102	0.063
-445.865	268.476	-0.078	-0.136
-444.851	-163.056	0.154	0.007
-443.836	11.219	-0.057	-0.043
-442.822	-107.178	0.379	-0.083
-441.807	559.162	0.133	0.319
-440.792	150.510	-0.129	0.174
-439.778	11.911	0.208	0.159
-438.763	-200.000	0.015	-0.315
-437.749	286.180	0.051	-0.091
-436.734	-19.724	0.109	-0.067
-435.719	-200.000	0.012	-0.333
-434.705	-200.000	0.017	0.261
-433.690	-200.000	-0.030	0.228
-432.676	-200.000	-0.023	0.303
-431.661	160.854	-0.133	0.185
-430.646	-183.599	0.182	-0.003
-429.632	655.046	-0.059	-0.151
-428.617	299.135	0.048	-0.088
-427.603	332.207	-0.151	0.291
-426.588	-133.163	0.572	-0.072
-425.573	21.146	0.101	-0.081
-424.559	591.002	0.099	0.243
-423.544	-102.187	0.262	0.063
-422.530	-72.632	0.144	-0.053
-421.515	641.611	0.044	-0.111
-420.500	800.000	-0.073	-0.230
-419.486	-200.000	0.045	0.366
-418.471	440.325	0.086	-0.187
-417.457	-200.000	-0.013	-0.094
-416.442	-200.000	0.014	0.080
-415.428	-87.104	-0.233	0.071
-414.413	-65.922	-0.175	-0.070
-413.398	800.000	-0.045	-0.186
-412.384	252.113	-0.108	-0.183
-411.369	84.370	0.120	-0.131
-410.355	88.753	0.117	-0.130
-409.340	800.000	0.020	-0.081
-408.325	-35.948	0.142	-0.077
-407.311	-39.457	0.092	0.048
-406.296	29.291	-0.226	0.191
-405.282	-81.893	0.124	-0.041
-404.267	64.138	-0.101	-0.101
-403.252	-8.240	-0.133	0.089
-402.238	-77.016	-0.211	0.073
-401.223	-200.000	0.046	0.273
-400.209	-186.881	-0.193	0.003
-399.194	-13.064	-0.219	-0.142
-398.179	800.000	0.046	-0.162
-397.165	594.905	0.012	0.030
-396.150	-77.111	0.345	0.120
-395.136	-200.000	0.020	0.106
-394.121	121.251	0.104	-0.129
-393.106	426.876	-0.119	-0.256
-392.092	557.017	0.027	0.066
-391.077	-163.491	-0.208	-0.010
-390.063	170.488	0.040	-0.057
-389.048	-42.963	0.176	-0.089
-388.033	186.034	0.228	-0.337
-387.019	334.804	0.114	-0.219
-386.004	-200.000	-0.013	-0.064
-384.990	-200.000	0.011	0.103
-383.975	-28.602	0.267	0.153
-382.960	-56.973	-0.086	0.038
-381.946	800.000	0.071	0.234
-380.931	-37.164	0.303	-0.161
-379.917	443.251	0.110	-0.240
-378.902	133.156	0.061	-0.078
-377.888	111.706	-0.140	-0.168
-376.873	-200.000	0.036	-0.216
-375.858	-103.633	0.178	-0.042
-374.844	69.228	0.087	-0.089
-373.829	-200.000	-0.032	0.219
-372.815	-150.893	0.348	-0.026
-371.800	-1.737	-0.201	-0.140
-370.785	299.744	0.136	0.250
-369.771	147.384	0.147	-0.196
-368.756	223.910	-0.095	0.153
-367.742	68.403	-0.017	-0.017
-366.727	294.603	0.095	-0.172
-365.712	-81.950	0.209	-0.068
-364.698	58.416	-0.247	-0.241
-363.683	253.689	-0.065	0.110
-362.669	211.388	-0.053	0.083
-361.654	-40.095	-0.274	-0.142
-360.639	-122.566	-0.325	-0.052
-359.625	197.463	0.120	-0.182
-358.610	-45.909	0.299	0.147
-357.596	52.928	-0.248	-0.236
-356.581	253.593	-0.137	0.233
-355.566	-51.451	-0.141	-0.065
-354.552	-73.480	-0.218	-0.079
-353.537	800.000	0.045	-0.143
-352.523	30.344	0.043	-0.036
-351.508	-46.391	-0.098	-0.048
-350.493	4.267	0.079	0.058
-349.479	800.000	-0.055	-0.202
-348.464	-72.558	-0.244	-0.090
-347.450	-9.743	0.206	-0.136
-346.435	398.785	-0.102	0.213
-345.420	-101.733	-0.115	-0.028
-344.406	580.457	0.061	-0.148
-343.391	-29.987	-0.385	-0.218
-342.377	-200.000	-0.014	-0.253
-341.362	727.208	-0.174	0.462
-340.348	41.886	0.199	-0.180
-339.333	800.000	-0.085	0.327
-338.318	800.000	0.070	0.212
-337.304	-16.165	0.241	-0.152
-336.289	648.002	-0.039	0.098
-335.275	47.077	0.204	0.189
-334.260	-150.800	-0.205	-0.015
-333.245	-71.629	0.242	-0.090
-332.231	-139.602	-0.194	-0.021
-331.216	-71.374	-0.067	0.025
-330.202	24.443	-0.228	0.187
-329.187	-134.869	-0.290	-0.035
-328.172	-31.953	-0.065	-0.036
-327.158	328.195	-0.200	0.381
-326.143	-190.922	-0.123	0.001
-325.129	84.205	-0.128	-0.139
-324.114	193.789	0.093	0.139
-323.099	13.682	0.156	0.120
-322.085	-139.611	-0.101	-0.011
-321.070	-200.000	-0.018	-0.121
-320.056	51.446	0.303	0.286
-319.041	616.943	-0.043	0.107
-318.026	115.080	-0.198	-0.240
-317.012	-200.000	0.006	-0.162
-315.997	-63.954	0.086	0.035
-314.983	800.000	-0.050	0.172
-313.968	-56.684	-0.130	-0.057
-312.953	237.129	-0.156	0.257
-311.939	-59.191	0.258	-0.110
-310.924	-102.450	-0.109	0.026
-309.910	-29.556	-0.472	0.267
-308.895	-200.000	0.038	0.232
-307.880	181.164	0.163	0.238
-306.866	-200.000	0.015	0.151
-305.851	-200.000	0.005	0.074
-304.837	-4.757	-0.224	0.153
-303.822	800.000	-0.040	-0.145
-302.807	-200.000	0.015	0.356
-301.793	-200.000	-0.011	0.245
-300.778	19.342	0.047	-0.037
-299.764	-104.010	0.224	0.052
-298.749	-67.334	-0.237	-0.092
-297.735	-155.362	0.340	0.022
-296.720	90.023	-0.066	-0.073
-295.705	-165.397	-0.269	0.012
-294.691	129.048	0.137	0.173
-293.676	-200.000	0.036	0.246
-292.662	699.773	0.085	0.221
-291.647	-77.355	-0.215	-0.074
-290.632	-137.977	0.389	0.043
-289.618	-138.493	-0.077	0.008
-288.603	-81.781	-0.316	0.103
-287.589	-73.032	0.463	-0.168
-286.574	135.959	0.027	0.035
-285.559	582.476	0.049	0.118
-284.545	-200.000	0.031	-0.168
-283.530	202.327	-0.135	0.207
-282.516	-62.462	-0.299	0.123
-281.501	-200.000	-0.014	-0.104
-280.486	-15.981	-0.096	-0.061
-279.472	251.401	0.196	-0.331
-278.457	-70.858	0.333	0.124
-277.443	9.737	0.068	-0.051
-276.428	419.898	0.031	-0.067
-275.413	-74.268	0.028	-0.010
-274.399	-111.907	0.167	-0.033
-273.384	800.000	0.090	0.310
-272.370	32.364	-0.072	0.062
-271.355	630.447	0.068	-0.170
-270.340	37.400	-0.173	-0.152
-269.326	103.333	0.152	0.177
-268.311	31.242	0.202	-0.171
-267.297	-200.000	0.001	-0.029
-266.282	-121.038	0.264	-0.044
-265.267	-14.344	-0.245	0.156
-264.253	131.191	0.142	-0.180
-263.238	105.321	-0.132	-0.154
-262.224	-200.000	0.007	0.056
-261.209	111.828	-0.114	-0.137
-260.195	-142.071	-0.236	-0.023
-259.180	430.909	0.183	0.393
-258.165	-124.551	-0.587	-0.090
-257.151	-200.000	0.012	0.156
-256.136	-31.739	0.045	-0.025
-255.122	-141.149	0.303	0.031
-254.107	67.207	0.046	-0.046
-253.092	79.604	0.156	0.166
-252.078	-62.575	0.443	0.182
-251.063	-100.127	-0.144	0.036
-250.049	-103.295	-0.145	0.034
-249.034	-20.110	0.054	-0.033
-248.019	76.186	0.031	0.032
-247.005	-85.913	0.230	0.070
-245.990	-150.468	-0.285	-0.022
-244.976	-129.469	0.054	0.007
-243.961	294.837	0.088	0.159
-242.946	-200.000	-0.053	0.569
-241.932	-147.546	-0.178	-0.015
-240.917	-200.000	-0.000	-0.181
-239.903	75.915	0.122	-0.128
-238.888	800.000	-0.015	-0.050
-237.873	-200.000	-0.010	-0.238
-236.859	-61.659	0.012	0.005
-235.844	-200.000	0.043	-0.329
-234.830	105.746	0.174	0.203
-233.815	-98.031	0.193	-0.049
-232.800	27.676	-0.127	0.106
-231.786	800.000	0.018	0.057
-230.771	113.341	0.161	-0.193
-229.757	800.000	0.024	0.074
-228.742	300.491	0.155	0.283
-227.727	-28.191	0.366	0.209
-226.713	-114.664	-0.314	0.059
-225.698	-28.745	0.196	0.112
-224.684	116.047	-0.121	0.147
-223.669	34.227	0.138	0.119
-222.655	83.509	-0.188	0.202
-221.640	79.554	-0.235	-0.250
-220.625	-148.236	0.273	-0.022
-219.611	414.317	0.017	-0.035
-218.596	-200.000	0.017	0.077
-217.582	-78.750	0.289	-0.098
-216.567	157.331	-0.278	-0.379
-215.552	714.794	-0.062	0.163
-214.538	119.708	0.117	0.143
-213.523	-29.045	0.056	-0.032
-212.509	-90.726	0.026	0.007
-211.494	-84.999	-0.069	-0.021
-210.479	-200.000	0.008	-0.187
-209.465	-49.803	0.249	-0.117
-208.450	197.497	-0.061	0.092
-207.436	-11.196	0.169	0.110
-206.421	195.192	0.117	-0.176
-205.406	399.853	-0.173	0.359
-204.392	49.578	0.177	0.165
-203.377	800.000	0.055	0.162
-202.363	7.023	0.070	-0.052
-201.348	-30.709	-0.117	-0.066
-200.333	-125.484	0.081	-0.012
-199.319	187.071	0.089	0.130
-198.304	-50.920	0.357	0.166
-197.290	-192.710	0.393	-0.004
-196.275	355.464	-0.111	-0.218
-195.260	-8.970	0.175	0.116
-194.246	-143.322	0.385	0.036
-193.231	-104.866	-0.210	-0.048
-192.217	192.520	0.112	-0.167
-191.202	-105.247	-0.575	-0.129
-190.187	-79.027	0.127	-0.043
-189.173	11.753	-0.173	0.131
-188.158	27.464	-0.212	-0.176
-187.144	-103.454	-0.341	-0.079
-186.129	680.293	0.054	-0.139
-185.114	-200.000	-0.005	0.371
-184.100	138.922	-0.285	0.370
-183.085	707.885	-0.071	-0.185
-182.071	-72.201	-0.298	0.109
-181.056	800.000	-0.075	-0.222
-180.042	118.461	-0.053	-0.064
-179.027	520.660	-0.165	0.382
-178.012	481.161	-0.160	0.359
-176.998	16.374	-0.261	-0.204
-175.983	800.000	-0.098	-0.365
-174.969	298.045	0.088	0.160
-173.954	59.874	-0.175	-0.171
-172.939	800.000	-0.039	0.167
-171.925	-61.909	0.097	0.040
-170.910	-118.226	0.225	0.040
-169.896	-0.705	0.137	0.096
-168.881	-49.153	0.209	0.099
-167.866	-200.000	0.002	-0.310
-166.852	-177.427	-0.300	-0.007
-165.837	2.661	0.061	-0.044
-164.823	-125.014	0.253	0.038
-163.808	-200.000	0.046	0.345
-162.793	800.000	0.013	-0.049
-161.779	-31.867	0.167	-0.092
-160.764	-7.250	0.102	-0.068
-159.750	189.161	-0.032	-0.047
-158.735	800.000	-0.029	-0.111
-157.720	-124.108	0.267	-0.041
-156.706	43.427	-0.055	0.050
-155.691	118.338	0.124	-0.150
-154.677	-59.793	-0.124	0.052
-153.662	423.355	-0.020	-0.041
-152.647	306.960	0.208	-0.383
-151.633	800.000	-0.033	0.114
-150.618	-200.000	-0.041	-0.181
-149.604	64.098	-0.057	0.056
-148.589	-200.000	-0.107	0.468
-147.574	800.000	-0.029	-0.091
-146.560	98.407	0.131	0.149
-145.545	-2.480	0.190	-0.131
-144.531	0.856	-0.243	-0.172
-143.516	-200.000	-0.079	-0.375
-142.502	133.585	0.204	0.260
-141.487	3.038	-0.225	-0.161
-140.472	-49.335	-0.176	0.083
-139.458	-9.170	0.495	0.326
-138.443	-75.532	-0.356	0.125
-137.429	-178.123	0.240	0.006
-136.414	-32.056	-0.176	-0.097
-135.399	2.094	-0.479	0.341
-134.385	-200.000	-0.018	0.326
-133.370	57.960	0.169	-0.163
-132.356	-188.129	0.306	-0.004
-131.341	-73.939	-0.084	-0.030
-130.326	-71.061	0.346	-0.128
-129.312	-68.305	0.057	0.022
-128.297	52.098	-0.175	0.164
-127.283	-200.000	-0.007	0.118
-126.268	419.337	0.103	0.218
-125.253	49.108	-0.205	-0.190
-124.239	26.438	0.175	-0.144
-123.224	-27.122	0.227	0.131
-122.210	87.525	0.089	-0.097
-121.195	-96.771	-0.149	-0.039
-120.180	-57.299	0.186	-0.081
-119.166	-2.739	-0.178	0.122
-118.151	-200.000	0.029	-0.399
-117.137	800.000	0.046	0.162
-116.122	-160.558	-0.513	-0.027
-115.107	-157.863	-0.470	0.027
-114.093	297.498	-0.113	0.204
-113.078	411.985	0.181	-0.379
-112.064	-200.000	0.067	-0.324
-111.049	103.453	0.156	0.180
-110.034	158.726	-0.041	-0.056
-109.020	228.503	0.162	-0.260
-108.005	259.263	0.139	-0.236
-106.991	-160.208	0.247	0.013
-105.976	-43.154	0.384	-0.191
-104.962	-28.366	0.232	0.132
-103.947	-177.544	-0.259	0.006
-102.932	23.107	0.125	-0.101
-101.918	-50.195	0.050	0.023
-100.903	73.449	-0.163	0.168
-99.889	-94.931	0.321	-0.086
-98.874	-56.558	0.285	-0.124
-97.859	-155.602	0.361	-0.023
-96.845	322.790	0.069	-0.130
-95.830	800.000	0.025	-0.084
-94.816	-109.503	0.332	-0.069
-93.801	74.311	-0.175	0.181
-92.786	213.634	0.149	-0.232
-91.772	41.988	0.124	-0.111
-90.757	80.827	0.097	0.103
-89.743	-69.375	0.090	-0.034
-88.728	-149.875	0.310	0.024
-87.713	149.598	0.058	0.078
-86.699	-200.000	-0.330	0.001
-85.684	-44.309	0.232	0.114
-84.670	250.423	-0.028	-0.047
-83.655	800.000	-0.118	0.363
-82.640	-200.000	0.008	0.102
-81.626	-104.327	0.449	-0.102
-80.611	9.915	0.154	-0.115
-79.597	281.703	-0.133	-0.233
-78.582	322.170	-0.068	0.127
-77.567	211.134	0.113	0.175
-76.553	571.572	-0.031	0.075
-75.538	115.120	0.344	0.413
-74.524	99.936	0.270	0.307
-73.509	-127.560	-0.058	-0.008
-72.494	-109.793	-0.329	0.068
-71.480	-33.330	0.186	0.101
-70.465	-35.871	-0.344	0.183
-69.451	314.759	-0.144	0.266
-68.436	475.639	0.132	-0.293
-67.422	-84.456	0.048	-0.015
-66.407	2.998	-0.102	0.073
-65.392	-32.205	-0.078	-0.043
-64.378	103.817	-0.208	-0.241
-63.363	106.357	0.069	0.080
-62.349	-103.491	0.485	0.112
-61.334	58.743	-0.765	-0.738
-60.319	800.000	0.176	0.566
-59.305	230.556	-0.565	-0.909
-58.290	180.413	0.718	1.034
-57.276	297.774	0.832	1.501
-56.261	-200.000	96.330	579.811
-55.246	564.126	1373.666	3267.515
-54.232	160.909	2555.486	3505.043
-53.217	106.314	2266.213	2636.766
-52.203	42.016	1891.852	1685.690
-51.188	35.979	1682.124	1453.376
-50.173	33.259	1637.546	1394.781
-49.159	50.444	1683.488	1562.637
-48.144	52.211	1700.209	1591.292
-47.130	35.647	1661.361	1432.733
-46.115	32.831	1646.864	1399.325
-45.100	32.665	1641.819	1393.752
-44.086	32.710	1638.976	1391.621
-43.071	32.613	1636.675	1388.892
-42.057	32.508	1634.616	1386.319
-41.042	32.669	1632.051	1385.271
-40.027	32.722	1630.031	1383.891
-39.013	32.591	1628.619	1381.676
-37.998	32.640	1626.379	1380.082
-36.984	32.611	1625.391	1378.978
-35.969	32.669	1624.089	1378.237
-34.954	32.728	1622.478	1377.253
-33.940	32.734	1620.822	1375.832
-32.925	32.658	1618.965	1373.645
-31.911	32.666	1617.111	1372.081
-30.896	32.716	1615.253	1370.809
-29.881	32.708	1613.696	1369.379
-28.867	32.814	1612.038	1368.688
-27.852	32.735	1610.539	1366.784
-26.838	32.714	1609.404	1365.617
-25.823	32.778	1607.454	1364.373
-24.809	32.680	1606.578	1362.861
-23.794	32.749	1604.866	1361.858
-22.779	32.793	1603.332	1360.821
-21.765	32.700	1601.878	1358.862
-20.750	32.703	1600.063	1357.287
-19.736	32.740	1598.794	1356.423
-18.721	32.776	1597.190	1355.269
-17.706	32.722	1596.066	1353.870
-16.692	32.785	1594.534	1352.972
-15.677	32.700	1593.239	1351.207
-14.663	32.772	1591.509	1350.205
-13.648	32.755	1590.203	1348.921
-12.633	32.793	1588.771	1347.921
-11.619	32.651	1587.648	1345.902
-10.604	32.761	1585.822	1345.086
-9.590	32.784	1584.369	1343.967
-8.575	32.805	1583.166	1343.043
-7.560	32.755	1582.299	1341.895
-6.546	32.759	1581.155	1340.901
-5.531	32.738	1579.432	1339.236
-4.517	32.877	1577.664	1338.668
-3.502	32.796	1577.841	1338.191
-2.487	32.836	1575.778	1336.672
-1.473	32.570	1564.234	1324.961
-0.458	29.740	1545.328	1289.196
0.556	26.740	1545.892	1259.103
1.571	24.496	1569.265	1262.178
2.586	23.953	1582.399	1268.757
3.600	21.342	1530.083	1208.673
4.615	12.296	1420.167	1063.418
5.629	3.801	1354.271	961.334
6.644	2.281	1345.285	945.471
7.659	2.087	1344.403	943.572
8.673	1.964	1342.884	941.665
9.688	1.919	1341.260	940.162
10.702	1.725	1338.384	936.872
11.717	5.396	1345.050	964.120
12.731	15.473	1363.573	1040.030
13.746	23.951	1378.334	1104.055
14.761	26.332	1381.189	1121.028
15.775	26.665	1381.203	1123.004
16.790	26.712	1380.976	1123.013
17.804	26.712	1380.559	1122.576
18.819	26.912	1380.257	1123.467
19.834	26.945	1379.915	1123.295
20.848	27.008	1378.944	1122.797
21.863	27.076	1377.906	1122.271
22.877	27.041	1377.422	1121.559
23.892	27.103	1376.383	1120.997
24.907	27.230	1374.925	1120.494
25.921	27.069	1374.312	1118.903
26.936	26.976	1373.770	1117.789
27.950	27.075	1372.504	1117.270
28.965	27.145	1371.162	1116.509
29.980	26.991	1369.963	1114.489
30.994	27.069	1368.952	1114.047
32.009	27.120	1367.200	1112.834
33.023	27.185	1366.082	1112.221
34.038	26.981	1365.608	1110.493
35.053	27.070	1364.374	1109.930
36.067	27.109	1363.779	1109.588
37.082	27.060	1362.733	1108.341
38.096	27.035	1361.663	1107.222
39.111	27.116	1360.684	1106.818
40.126	27.059	1360.253	1106.022
41.140	27.169	1359.094	1105.651
42.155	27.118	1359.183	1105.316
43.169	27.079	1359.018	1104.850
44.184	27.037	1358.945	1104.435
45.199	26.969	1359.132	1104.075
46.213	27.037	1357.940	1103.421
47.228	27.036	1357.321	1102.815
48.242	27.184	1355.662	1102.267
49.257	27.001	1354.465	1100.086
50.271	26.983	1353.338	1098.971
51.286	26.987	1351.868	1097.700
52.301	27.062	1350.194	1096.700
53.315	27.117	1349.154	1096.090
54.330	27.004	1348.925	1095.120
55.344	27.038	1347.554	1094.116
56.359	27.111	1346.582	1093.672
57.374	27.181	1345.382	1093.022
58.388	27.081	1345.158	1092.141
59.403	27.074	1344.922	1091.812
60.417	27.039	1344.323	1091.015
61.432	27.057	1343.242	1090.152
62.447	27.046	1342.838	1089.661
63.461	27.030	1341.525	1088.403
64.476	27.052	1340.550	1087.647
65.490	27.038	1339.237	1086.406
66.505	27.033	1337.714	1085.044
67.520	27.137	1336.407	1084.504
68.534	27.087	1335.802	1083.618
69.549	27.070	1334.776	1082.593
70.563	27.110	1333.948	1082.064
71.578	27.016	1332.945	1080.591
72.593	27.066	1332.236	1080.219
73.607	27.106	1331.507	1079.771
74.622	27.007	1330.983	1078.663
75.636	27.066	1330.000	1078.119
76.651	27.107	1329.370	1077.759
77.666	27.095	1328.793	1077.124
78.680	27.230	1328.229	1077.372
79.695	27.056	1327.643	1075.773
80.709	27.119	1326.726	1075.303
81.724	27.055	1325.885	1074.147
82.739	27.101	1324.899	1073.529
83.753	27.100	1323.961	1072.669
84.768	27.078	1322.987	1071.652
85.782	27.115	1322.127	1071.077
86.797	27.150	1320.358	1069.757
87.812	27.089	1319.642	1068.724
88.826	27.106	1318.630	1067.907
89.841	27.125	1317.747	1067.210
90.855	27.080	1316.799	1066.087
91.870	27.145	1315.687	1065.471
92.884	27.054	1315.681	1064.841
93.899	27.072	1314.338	1063.762
94.914	27.189	1313.516	1063.690
95.928	27.119	1312.439	1062.313
96.943	27.098	1311.968	1061.717
97.957	27.156	1311.434	1061.531
98.972	27.159	1310.479	1060.679
99.987	27.120	1309.875	1059.869
101.001	27.120	1308.759	1058.870
102.016	27.080	1307.705	1057.692
103.030	27.088	1306.831	1056.939
104.045	27.174	1305.943	1056.625
105.060	27.118	1305.224	1055.625
106.074	27.107	1304.157	1054.606
107.089	27.252	1302.946	1054.374
108.103	27.209	1302.028	1053.287
109.118	27.138	1301.285	1052.184
110.133	27.169	1299.866	1051.121
111.147	27.214	1298.771	1050.405
112.162	27.120	1298.131	1049.251
113.176	27.190	1296.680	1048.388
114.191	27.212	1296.061	1047.923
115.206	27.179	1294.682	1046.524
116.220	27.154	1293.834	1045.605
117.235	27.238	1292.994	1045.314
118.249	27.070	1292.108	1043.540
119.264	27.116	1291.224	1043.000
120.279	27.247	1290.397	1042.988
121.293	27.250	1289.700	1042.350
122.308	27.329	1289.139	1042.258
123.322	27.264	1288.367	1041.169
124.337	27.217	1287.455	1040.070
125.352	27.375	1286.117	1039.802
126.366	27.235	1285.356	1038.297
127.381	27.326	1284.893	1038.348
128.395	27.266	1283.991	1037.187
129.410	27.404	1282.542	1036.706
130.424	27.306	1282.315	1035.877
131.439	27.348	1281.863	1035.659
132.454	27.218	1281.068	1034.185
133.468	27.308	1279.829	1033.604
134.483	27.246	1279.705	1033.061
135.497	27.238	1278.663	1032.085
136.512	27.203	1277.963	1031.227
137.527	27.319	1276.749	1030.814
138.541	27.183	1275.828	1029.210
139.556	27.247	1274.072	1028.065
140.570	27.319	1273.143	1027.630
141.585	27.264	1272.407	1026.634
142.600	27.208	1271.654	1025.616
143.614	27.149	1270.644	1024.381
144.629	27.171	1269.420	1023.425
145.643	27.072	1268.761	1022.251
146.658	27.218	1267.338	1021.833
147.673	27.233	1266.203	1020.914
148.687	27.140	1265.638	1019.842
149.702	27.173	1264.225	1018.803
150.716	27.254	1263.365	1018.468
151.731	27.212	1262.493	1017.441
152.746	27.244	1261.153	1016.451
153.760	27.176	1260.937	1015.810
154.775	27.386	1259.184	1015.476
155.789	27.338	1258.532	1014.596
156.804	27.274	1257.545	1013.352
157.819	27.316	1256.781	1012.880
158.833	27.142	1256.268	1011.406
159.848	27.249	1255.744	1011.491
160.862	27.372	1254.714	1011.259
161.877	27.206	1254.318	1009.926
162.892	27.304	1253.017	1009.332
163.906	27.344	1252.348	1008.926
164.921	27.266	1251.974	1008.102
165.935	27.360	1250.971	1007.728
166.950	27.346	1250.269	1006.993
167.964	27.383	1249.977	1006.876
168.979	27.464	1249.075	1006.508
169.994	27.370	1248.586	1005.506
171.008	27.400	1247.938	1005.062
172.023	27.278	1247.199	1003.705
173.037	27.414	1246.493	1003.796
174.052	27.272	1246.149	1002.645
175.067	27.540	1244.394	1002.620
176.081	27.399	1243.889	1001.350
177.096	27.482	1242.995	1000.998
178.110	27.412	1242.280	999.949
179.125	27.456	1241.487	999.465
180.140	27.517	1240.479	998.900
181.154	27.444	1239.075	997.279
182.169	27.432	1238.185	996.412
183.183	27.377	1237.427	995.413
184.198	27.432	1236.510	994.883
185.213	27.488	1235.503	994.290
186.227	27.434	1234.650	993.221
187.242	27.506	1233.412	992.531
188.256	27.453	1233.124	991.925
189.271	27.546	1232.083	991.505
190.286	27.584	1230.907	990.677
191.300	27.458	1231.097	990.056
192.315	27.508	1230.067	989.412
193.329	27.439	1230.367	989.192
194.344	27.530	1229.419	988.839
195.359	27.503	1229.159	988.395
196.373	27.406	1228.464	987.220
197.388	27.357	1228.207	986.663
198.402	27.276	1227.804	985.811
199.417	27.400	1227.701	986.315
200.432	27.532	1226.627	986.079
201.446	27.508	1225.752	985.158
202.461	27.427	1225.390	984.340
203.475	27.447	1224.500	983.647
204.490	27.482	1223.493	982.942
205.504	27.395	1223.007	981.991
206.519	27.534	1221.800	981.684
207.534	27.507	1220.921	980.745
208.548	27.569	1220.062	980.307
209.563	27.552	1219.105	979.357
210.577	27.515	1218.300	978.423
211.592	27.528	1217.486	977.754
212.607	27.501	1216.966	977.105
213.621	27.589	1216.121	976.811
214.636	27.617	1215.439	976.328
215.650	27.512	1214.769	975.145
216.665	27.593	1213.458	974.439
217.680	27.708	1212.319	974.050
218.694	27.653	1212.059	973.459
219.709	27.663	1211.278	972.799
220.723	27.617	1210.545	971.880
221.738	27.648	1209.816	971.374
222.753	27.590	1208.924	970.267
223.767	27.616	1208.935	970.323
224.782	27.658	1208.296	969.948
225.796	27.697	1207.769	969.649
226.811	27.684	1206.762	968.684
227.826	27.765	1206.352	968.698
228.840	27.710	1205.887	967.947
229.855	27.748	1204.762	967.160
230.869	27.565	1204.613	965.989
231.884	27.653	1203.382	965.380
232.899	27.652	1202.960	964.952
233.913	27.701	1202.786	964.986
234.928	27.715	1202.227	964.525
235.942	27.789	1201.326	964.110
236.957	27.853	1200.564	963.748
237.972	27.766	1199.854	962.637
238.986	27.796	1199.190	962.176
240.001	27.753	1198.763	961.521
241.015	27.806	1198.043	961.135
242.030	27.828	1197.473	960.711
243.045	27.880	1196.375	960.017
244.059	27.831	1195.750	959.177
245.074	27.807	1194.872	958.261
246.088	27.918	1194.121	958.153
247.103	27.845	1193.400	957.110
248.117	27.917	1192.519	956.694
249.132	27.970	1191.791	956.303
250.147	27.840	1191.462	955.277
251.161	27.938	1190.488	954.919
252.176	28.011	1189.581	954.492
253.190	27.944	1189.170	953.727
254.205	27.905	1188.919	953.234
255.220	28.007	1188.057	952.993
256.234	27.929	1187.399	951.975
257.249	28.001	1186.600	951.623
258.263	27.897	1186.203	950.680
259.278	27.974	1185.864	950.726
260.293	28.019	1185.198	950.340
261.307	28.053	1184.557	949.921
262.322	28.063	1183.788	949.272
263.336	28.000	1183.616	948.724
264.351	27.915	1182.845	947.579
265.366	27.920	1182.245	947.040
266.380	27.953	1181.482	946.516
267.395	28.008	1180.701	946.092
268.409	28.094	1180.092	945.966
269.424	28.035	1179.625	945.202
270.439	28.084	1179.129	944.975
271.453	28.087	1178.405	944.324
272.468	28.075	1177.561	943.506
273.482	28.002	1176.974	942.575
274.497	28.136	1176.445	942.757
275.512	28.102	1175.942	942.094
276.526	28.024	1175.439	941.206
277.541	28.062	1174.769	940.784
278.555	28.018	1174.405	940.184
279.570	28.171	1173.449	940.121
280.585	28.169	1172.446	939.225
281.599	28.220	1172.037	939.076
282.614	28.052	1170.963	937.268
283.628	28.126	1170.069	936.853
284.643	28.155	1169.341	936.335
285.657	28.124	1168.709	935.585
286.672	28.121	1167.514	934.530
287.687	28.178	1166.850	934.209
288.701	28.269	1166.086	933.979
289.716	28.295	1165.966	933.932
290.730	28.321	1164.893	933.120
291.745	28.267	1164.575	932.510
292.760	28.345	1163.827	932.226
293.774	28.274	1163.430	931.462
294.789	28.265	1162.919	930.925
295.803	28.284	1162.428	930.548
296.818	28.311	1161.253	929.663
297.833	28.141	1161.178	928.654
298.847	28.318	1160.391	928.843
299.862	28.397	1159.401	928.366
300.876	28.437	1158.798	928.005
301.891	28.352	1158.482	927.241
302.906	28.375	1157.648	926.607
303.920	28.547	1156.606	926.559
304.935	28.430	1156.178	925.542
305.949	28.412	1155.761	925.037
306.964	28.320	1155.529	924.306
307.979	28.555	1154.277	924.407
308.993	28.525	1153.480	923.535
310.008	28.385	1152.736	922.155
311.022	28.470	1152.379	922.213
312.037	28.462	1151.303	921.233
313.052	28.581	1150.420	921.038
314.066	28.565	1149.562	920.193
315.081	28.491	1149.264	919.499
316.095	28.592	1148.220	919.088
317.110	28.438	1148.245	918.257
318.125	28.442	1147.610	917.688
319.139	28.530	1146.564	917.210
320.154	28.473	1146.275	916.612
321.168	28.583	1145.748	916.660
322.183	28.488	1145.166	915.637
323.197	28.519	1144.343	915.054
324.212	28.562	1144.068	914.970
325.227	28.667	1143.320	914.810
326.241	28.763	1142.569	914.608
327.256	28.653	1141.956	913.489
328.270	28.513	1141.611	912.434
329.285	28.602	1140.651	912.030
330.300	28.708	1139.599	911.635
331.314	28.618	1139.114	910.717
332.329	28.684	1138.164	910.205
333.343	28.558	1137.726	909.152
334.358	28.642	1137.010	908.915
335.373	28.792	1136.012	908.776
336.387	28.730	1135.294	907.818
337.402	28.714	1135.072	907.480
338.416	28.780	1133.932	906.815
339.431	28.677	1133.705	906.046
340.446	28.808	1133.012	906.058
341.460	28.810	1132.295	905.415
342.475	28.792	1131.905	904.934
343.489	28.903	1130.586	904.344
344.504	28.929	1129.794	903.757
345.519	28.878	1128.563	902.441
346.533	28.884	1128.378	902.246
347.548	28.791	1127.856	901.290
348.562	28.885	1127.065	901.039
349.577	28.934	1125.902	900.271
350.592	28.819	1125.354	899.192
351.606	28.821	1124.674	898.575
352.621	28.953	1124.140	898.716
353.635	28.842	1123.887	897.893
354.650	28.800	1123.249	897.097
355.665	29.015	1122.152	897.193
356.679	28.952	1121.587	896.353
357.694	29.004	1121.333	896.324
358.708	29.023	1120.357	895.556
359.723	28.960	1119.708	894.652
360.738	28.937	1118.824	893.753
361.752	29.061	1118.793	894.253
362.767	29.002	1118.262	893.463
363.781	28.836	1118.196	892.527
364.796	28.980	1117.402	892.512
365.810	29.150	1116.130	892.239
366.825	28.940	1116.025	891.061
367.840	29.036	1115.588	891.096
368.854	29.178	1114.679	890.979
369.869	29.028	1114.138	889.744
370.883	29.186	1113.152	889.640
371.898	29.135	1112.534	888.820
372.913	29.197	1112.101	888.693
373.927	29.151	1111.828	888.177
374.942	29.191	1111.241	887.821
375.956	29.234	1110.833	887.622
376.971	29.120	1110.318	886.586
377.986	29.178	1109.486	886.122
379.000	29.191	1108.926	885.657
380.015	29.324	1108.470	885.855
381.029	29.266	1107.754	884.925
382.044	29.185	1107.262	884.064
383.059	29.222	1106.598	883.635
384.073	29.283	1105.872	883.270
385.088	29.246	1104.702	882.077
386.102	29.294	1104.118	881.766
387.117	29.254	1103.210	880.770
388.132	29.241	1102.497	880.063
389.146	29.263	1101.851	879.573
390.161	29.291	1101.453	879.310
391.175	29.264	1100.590	878.415
392.190	29.276	1099.977	877.903
393.205	29.310	1099.126	877.309
394.219	29.406	1098.732	877.376
395.234	29.492	1097.821	876.979
396.248	29.591	1096.834	876.581
397.263	29.479	1096.264	875.519
398.278	29.369	1096.009	874.715
399.292	29.561	1095.378	875.046
400.307	29.551	1094.718	874.394
401.321	29.413	1093.855	872.975
402.336	29.608	1092.936	873.085
403.350	29.512	1092.635	872.312
404.365	29.567	1091.988	871.980
405.380	29.517	1091.545	871.311
406.394	29.522	1090.832	870.690
407.409	29.616	1089.991	870.381
408.423	29.496	1089.278	869.172
409.438	29.712	1088.352	869.373
410.453	29.672	1087.639	868.536
411.467	29.713	1086.751	867.943
412.482	29.693	1086.481	867.559
413.496	29.783	1085.510	867.128
414.511	29.634	1085.284	866.170
415.526	29.679	1084.942	866.031
416.540	29.698	1083.996	865.292
417.555	29.630	1083.702	864.663
418.569	29.648	1083.220	864.286
419.584	29.684	1083.131	864.303
420.599	29.761	1082.659	864.213
421.613	104.337	1320.809	1457.080
422.628	97.086	1355.479	1457.193
