DTS Sentinel unit serial number:	SN413079Multiplexer serial number:	ORYXHardware model number:	OX4-SRSoftware version number:	ORYX F/W v4.00 Oryx Data Collector v3.7.2.0data status	okinstallation	princeton_trtdifferential loss correction	single-endedforward channel	channel 2reverse channel	N/Adate	2019/09/10time	21:37:10forward acquisition time	60.00reverse acquisition time	0.00gamma	496.2192k internal	0.2330k external	0.2330temperature offset calibration	0.9945default loss term (dB/km)	0.3790temperature slope calibration	1.0000multiplexer offset coefficient	1.0000multiplexer slope coefficient	1.0000fibre end	0.00T internal ref (°C)	31.03T ext. ref 1 (°C)	-0.31T ext. ref 2 (°C)	24.30length (m)	temperature (°C)	Stokes	anti-Stokes-747.200	-200.000	-0.017	0.300
-746.185	99.578	0.188	0.219
-745.171	-12.100	0.145	-0.096
-744.156	115.108	-0.098	0.121
-743.142	75.707	0.168	0.179
-742.127	253.013	0.185	0.318
-741.112	18.451	-0.193	-0.155
-740.098	43.550	-0.298	0.274
-739.083	-84.184	-0.034	0.011
-738.069	-84.578	0.236	0.075
-737.054	251.669	0.151	-0.258
-736.039	-57.111	-0.154	0.068
-735.025	-136.844	0.057	-0.007
-734.010	-16.027	-0.177	-0.113
-732.996	-200.000	-0.065	-0.388
-731.981	800.000	0.089	-0.272
-730.966	-200.000	0.002	-0.350
-729.952	800.000	-0.074	-0.221
-728.937	-11.391	0.031	-0.020
-727.923	-200.000	-0.042	-0.212
-726.908	-26.566	-0.120	0.071
-725.894	-42.834	0.054	-0.027
-724.879	-200.000	-0.034	-0.296
-723.864	-73.444	0.291	-0.107
-722.850	82.121	-0.287	0.313
-721.835	-70.452	-0.073	-0.028
-720.821	485.839	-0.085	-0.195
-719.806	7.257	0.175	-0.132
-718.791	-29.852	-0.311	0.178
-717.777	26.623	-0.179	-0.151
-716.762	140.249	-0.152	-0.202
-715.748	800.000	-0.124	-0.367
-714.733	800.000	0.063	-0.263
-713.718	-22.890	-0.172	-0.104
-712.704	-107.252	0.101	-0.022
-711.689	276.682	0.102	-0.183
-710.675	17.656	-0.112	0.089
-709.660	-120.170	0.150	-0.026
-708.645	-120.411	-0.117	-0.020
-707.631	-200.000	-0.003	0.116
-706.616	6.657	0.223	-0.167
-705.602	124.559	-0.169	-0.213
-704.587	-76.745	-0.476	-0.168
-703.572	567.033	-0.073	0.178
-702.558	559.458	0.091	0.221
-701.543	-200.000	0.003	-0.039
-700.529	-33.102	-0.236	-0.131
-699.514	369.621	0.051	0.104
-698.499	22.994	-0.209	-0.173
-697.485	75.513	-0.239	-0.254
-696.470	800.000	0.010	0.029
-695.456	3.774	-0.078	0.057
-694.441	-41.926	-0.188	0.097
-693.426	800.000	-0.014	-0.047
-692.412	-29.976	-0.073	-0.042
-691.397	-88.253	-0.206	-0.062
-690.383	-200.000	-0.002	0.419
-689.368	-84.146	0.313	-0.100
-688.354	100.147	-0.032	0.037
-687.339	-35.657	-0.160	-0.087
-686.324	295.842	0.042	-0.078
-685.310	-18.173	-0.244	-0.154
-684.295	-41.876	0.278	0.143
-683.281	-200.000	0.074	0.420
-682.266	800.000	0.034	0.146
-681.251	-44.778	-0.195	-0.098
-680.237	-78.470	-0.090	0.031
-679.222	-200.000	0.027	0.218
-678.208	-200.000	-0.041	-0.208
-677.193	-55.248	0.111	-0.050
-676.178	-139.625	0.184	0.020
-675.164	196.894	0.147	0.224
-674.149	-196.330	0.164	0.001
-673.135	-33.836	-0.426	-0.236
-672.120	800.000	-0.079	0.345
-671.105	-10.807	0.107	0.071
-670.091	-42.937	-0.386	0.197
-669.076	-4.442	0.055	0.038
-668.062	428.979	-0.104	0.225
-667.047	-143.400	0.305	0.029
-666.032	-6.241	0.339	-0.232
-665.018	800.000	0.038	0.112
-664.003	800.000	-0.127	0.372
-662.989	87.564	-0.087	0.097
-661.974	136.964	-0.247	-0.323
-660.959	-55.090	-0.097	-0.044
-659.945	800.000	0.047	-0.203
-658.930	618.640	0.019	0.049
-657.916	-122.497	0.449	0.073
-656.901	-200.000	-0.013	0.361
-655.886	233.255	0.051	0.085
-654.872	186.361	-0.125	-0.187
-653.857	-121.413	0.262	-0.044
-652.843	290.641	0.104	-0.189
-651.828	-79.822	-0.134	0.045
-650.814	40.249	0.290	-0.262
-649.799	-200.000	0.011	-0.133
-648.784	68.194	-0.237	0.244
-647.770	232.037	-0.026	0.042
-646.755	-116.569	-0.070	-0.013
-645.741	-61.748	-0.325	-0.137
-644.726	125.076	-0.156	-0.198
-643.711	210.037	-0.184	-0.289
-642.697	683.297	0.062	0.162
-641.682	-200.000	0.032	0.191
-640.668	800.000	0.082	0.232
-639.653	51.577	0.060	-0.057
-638.638	800.000	-0.115	-0.414
-637.624	-154.584	0.209	-0.014
-636.609	229.350	-0.138	-0.226
-635.595	-64.560	-0.128	0.052
-634.580	-13.651	0.372	-0.242
-633.565	800.000	0.111	-0.403
-632.551	140.552	0.034	-0.045
-631.536	-66.860	-0.129	-0.051
-630.522	46.656	-0.166	-0.155
-629.507	-200.000	0.008	0.076
-628.492	-134.999	-0.169	0.020
-627.478	-33.345	0.575	0.319
-626.463	-10.430	0.214	0.142
-625.449	-149.086	0.307	0.025
-624.434	70.001	-0.224	-0.231
-623.419	-200.000	-0.062	-0.380
-622.405	751.355	-0.035	0.094
-621.390	131.972	0.247	-0.319
-620.376	681.159	-0.056	0.146
-619.361	-169.731	0.158	0.006
-618.346	-200.000	0.042	-0.316
-617.332	-77.352	-0.242	-0.084
-616.317	-92.406	0.080	-0.023
-615.303	9.077	-0.361	0.273
-614.288	-200.000	0.011	0.163
-613.273	143.931	-0.019	-0.025
-612.259	54.169	0.242	-0.233
-611.244	-200.000	0.008	-0.227
-610.230	-147.299	0.192	-0.016
-609.215	340.565	-0.095	-0.185
-608.201	-80.839	0.233	-0.077
-607.186	352.669	-0.151	-0.301
-606.171	70.109	-0.076	-0.078
-605.157	-200.000	0.031	-0.279
-604.142	-53.444	-0.100	0.046
-603.128	45.037	-0.141	0.130
-602.113	-47.355	-0.319	0.156
-601.098	234.012	-0.066	-0.109
-600.084	-21.651	0.090	-0.055
-599.069	-200.000	-0.037	0.455
-598.055	268.575	0.130	-0.228
-597.040	473.396	-0.126	-0.285
-596.025	800.000	-0.022	-0.073
-595.011	-139.327	-0.115	0.012
-593.996	-200.000	0.012	0.101
-592.982	147.399	-0.079	0.106
-591.967	800.000	0.009	0.026
-590.952	-111.585	0.383	-0.078
-589.938	239.100	-0.094	0.157
-588.923	-62.550	-0.283	-0.118
-587.909	184.979	0.228	-0.338
-586.894	123.221	-0.147	0.185
-585.879	-136.375	-0.073	0.009
-584.865	352.976	0.168	-0.334
-583.850	-200.000	0.038	-0.203
-582.836	15.240	-0.314	0.247
-581.821	17.229	0.104	0.083
-580.806	-166.930	-0.183	0.008
-579.792	8.866	0.079	-0.060
-578.777	110.468	0.156	0.187
-577.763	-129.670	-0.105	-0.014
-576.748	-6.445	-0.335	0.228
-575.733	-31.484	0.278	0.156
-574.719	428.747	0.067	-0.144
-573.704	-49.811	0.097	0.046
-572.690	-200.000	-0.010	0.252
-571.675	-200.000	-0.004	0.309
-570.661	-200.000	-0.053	0.300
-569.646	-145.772	-0.264	0.024
-568.631	120.045	0.146	-0.181
-567.617	-64.522	-0.271	0.110
-566.602	-89.636	0.227	-0.067
-565.588	-22.069	-0.196	-0.119
-564.573	-27.951	-0.063	-0.037
-563.558	-82.920	-0.393	0.127
-562.544	190.044	0.076	-0.115
-561.529	54.662	-0.098	-0.094
-560.515	-87.032	-0.085	0.026
-559.500	93.152	-0.296	0.334
-558.485	-12.874	-0.186	-0.121
-557.471	-64.770	-0.065	0.026
-556.456	-112.314	-0.188	-0.038
-555.442	-148.261	-0.159	0.013
-554.427	-153.458	0.287	-0.020
-553.412	765.856	0.157	-0.426
-552.398	-41.900	-0.120	0.062
-551.383	220.412	-0.136	0.217
-550.369	-30.014	-0.297	-0.169
-549.354	-86.828	-0.252	0.077
-548.339	4.239	-0.197	0.144
-547.325	407.960	-0.016	-0.033
-546.310	800.000	-0.046	-0.132
-545.296	297.225	-0.045	0.082
-544.281	800.000	0.022	-0.078
-543.266	-200.000	0.016	0.219
-542.252	82.187	0.086	0.093
-541.237	498.344	-0.073	0.168
-540.223	634.403	0.057	-0.146
-539.208	-33.658	-0.019	0.010
-538.193	96.449	-0.088	0.101
-537.179	800.000	-0.096	0.295
-536.164	-11.589	-0.234	-0.154
-535.150	800.000	-0.025	0.074
-534.135	-93.355	0.259	-0.072
-533.121	-137.578	-0.329	0.037
-532.106	-32.177	-0.131	-0.073
-531.091	526.066	0.108	-0.253
-530.077	800.000	-0.070	-0.246
-529.062	438.481	-0.142	0.309
-528.048	-172.814	0.169	-0.005
-527.033	400.603	-0.022	-0.046
-526.018	-88.476	0.154	0.046
-525.004	-200.000	-0.015	-0.113
-523.989	318.541	-0.122	-0.230
-522.975	-101.590	-0.145	-0.035
-521.960	64.588	0.314	0.316
-520.945	32.481	-0.299	-0.258
-519.931	-84.326	0.097	0.031
-518.916	-79.830	-0.321	0.108
-517.902	71.163	-0.221	-0.229
-516.887	-90.583	0.025	0.007
-515.872	-124.303	0.166	-0.026
-514.858	87.907	-0.188	0.208
-513.843	179.302	0.083	-0.120
-512.829	509.249	-0.110	-0.256
-511.814	266.659	0.042	0.073
-510.799	-128.418	0.152	0.022
-509.785	24.554	-0.134	-0.110
-508.770	-32.035	-0.163	0.091
-507.756	-41.982	0.327	0.167
-506.741	-200.000	-0.001	-0.051
-505.726	-200.000	0.012	-0.079
-504.712	343.667	0.112	-0.219
-503.697	374.848	-0.034	-0.068
-502.683	-118.090	-0.366	0.065
-501.668	-72.970	-0.169	-0.062
-500.653	-46.929	0.190	0.093
-499.639	76.366	0.261	0.276
-498.624	405.049	0.107	-0.226
-497.610	216.975	-0.125	0.199
-496.595	-116.728	-0.341	0.062
-495.581	-145.611	0.198	-0.018
-494.566	-200.000	0.044	0.194
-493.551	-25.191	0.187	0.110
-492.537	-126.888	0.256	0.038
-491.522	113.381	0.275	-0.333
-490.508	28.180	-0.040	0.034
-489.493	-26.847	-0.148	0.086
-488.478	-200.000	0.038	-0.254
-487.464	47.095	-0.127	-0.118
-486.449	35.902	-0.030	-0.026
-485.435	2.626	-0.142	-0.103
-484.420	110.334	-0.145	0.174
-483.405	-24.551	-0.245	0.145
-482.391	800.000	-0.023	0.073
-481.376	800.000	-0.049	-0.190
-480.362	210.627	0.113	-0.177
-479.347	501.336	-0.120	0.277
-478.332	-200.000	-0.010	0.092
-477.318	-88.663	-0.211	-0.062
-476.303	781.515	0.140	0.382
-475.289	-79.161	0.170	0.057
-474.274	235.609	-0.098	0.162
-473.259	4.725	0.271	0.198
-472.245	-14.569	0.257	0.164
-471.230	44.115	-0.120	0.109
-470.216	49.113	0.269	-0.251
-469.201	-200.000	-0.017	-0.226
-468.186	-200.000	-0.074	0.360
-467.172	461.922	-0.090	-0.200
-466.157	-77.137	0.133	0.046
-465.143	118.923	0.180	0.222
-464.128	-97.903	0.057	-0.015
-463.113	191.697	-0.138	0.207
-462.099	-97.665	0.386	-0.100
-461.084	-200.000	-0.059	0.379
-460.070	-161.313	0.099	0.005
-459.055	-171.985	0.095	0.003
-458.040	-194.804	0.394	0.003
-457.026	-200.000	-0.007	-0.061
-456.011	7.619	0.066	0.049
-454.997	-124.305	0.343	0.053
-453.982	391.077	0.101	-0.208
-452.968	100.522	0.205	-0.236
-451.953	137.468	0.129	-0.168
-450.938	-157.118	0.109	-0.007
-449.924	-31.093	0.156	-0.088
-448.909	-200.000	-0.054	0.289
-447.895	-200.000	0.019	-0.292
-446.880	-200.000	0.036	-0.198
-445.865	140.394	-0.259	-0.340
-444.851	-200.000	0.009	-0.065
-443.836	680.604	-0.070	-0.183
-442.822	271.272	0.205	-0.359
-441.807	-29.072	-0.304	0.173
-440.792	32.086	-0.104	-0.090
-439.778	-200.000	-0.020	0.100
-438.763	-200.000	-0.024	-0.192
-437.749	316.138	-0.040	0.075
-436.734	-114.073	-0.453	0.087
-435.719	-200.000	0.028	0.265
-434.705	724.454	-0.020	0.053
-433.690	-59.756	0.084	-0.036
-432.676	300.369	-0.109	-0.200
-431.661	545.219	-0.067	-0.160
-430.646	-28.679	0.039	-0.022
-429.632	-181.752	-0.113	0.002
-428.617	85.698	0.136	0.148
-427.603	-53.035	0.214	0.098
-426.588	-102.636	0.400	0.095
-425.573	61.689	-0.082	0.081
-424.559	-200.000	-0.014	-0.219
-423.544	-200.000	-0.016	0.173
-422.530	75.299	-0.085	-0.089
-421.515	800.000	-0.014	-0.058
-420.500	188.526	-0.110	0.163
-419.486	-135.991	-0.221	0.026
-418.471	-200.000	0.024	0.156
-417.457	-10.605	0.344	0.226
-416.442	-200.000	-0.011	0.117
-415.428	280.242	-0.263	0.468
-414.413	-200.000	0.009	0.100
-413.398	91.312	0.236	-0.264
-412.384	22.054	-0.169	-0.137
-411.369	3.929	0.062	-0.045
-410.355	-162.310	0.046	-0.002
-409.340	-200.000	-0.002	-0.288
-408.325	800.000	-0.071	-0.233
-407.311	18.371	-0.087	-0.069
-406.296	651.402	-0.173	0.440
-405.282	748.388	-0.075	-0.200
-404.267	28.682	0.168	-0.141
-403.252	-197.087	-0.288	-0.002
-402.238	-9.927	-0.361	0.238
-401.223	123.596	-0.075	0.093
-400.209	800.000	-0.075	-0.241
-399.194	-147.376	-0.316	-0.027
-398.179	73.136	-0.155	0.161
-397.165	-200.000	0.023	0.317
-396.150	365.577	-0.074	0.147
-395.136	59.349	-0.170	-0.166
-394.121	74.739	0.033	-0.034
-393.106	-17.244	0.126	0.079
-392.092	164.866	-0.183	-0.256
-391.077	-99.192	0.071	-0.018
-390.063	-117.631	-0.196	-0.035
-389.048	98.528	-0.193	-0.221
-388.033	-126.661	-0.260	-0.038
-387.019	800.000	0.048	-0.184
-386.004	-133.659	-0.185	-0.023
-384.990	-200.000	-0.008	-0.223
-383.975	82.952	0.185	0.200
-382.960	-200.000	-0.016	-0.112
-381.946	17.392	-0.370	-0.292
-380.931	33.566	0.108	-0.093
-379.917	-44.471	0.306	0.152
-378.902	-200.000	-0.042	0.209
-377.888	406.662	0.074	-0.154
-376.873	790.787	-0.075	0.204
-375.858	38.918	-0.153	-0.136
-374.844	-122.555	-0.277	0.045
-373.829	-171.829	0.070	-0.002
-372.815	-64.998	-0.126	0.050
-371.800	-200.000	-0.068	-0.465
-370.785	113.047	0.196	-0.236
-369.771	-95.342	0.278	0.074
-368.756	-74.209	0.249	-0.089
-367.742	43.711	0.206	-0.187
-366.727	-62.254	-0.155	-0.064
-365.712	332.328	0.093	-0.179
-364.698	-94.841	0.261	0.070
-363.683	616.096	0.182	0.452
-362.669	-200.000	-0.038	-0.193
-361.654	-28.543	-0.037	0.021
-360.639	-107.163	0.204	0.045
-359.625	225.508	-0.063	0.101
-358.610	56.164	0.057	-0.055
-357.596	9.007	-0.409	0.306
-356.581	-200.000	-0.039	0.193
-355.566	439.793	0.123	0.266
-354.552	239.220	-0.132	-0.217
-353.537	-87.475	-0.148	-0.044
-352.523	16.066	0.311	0.243
-351.508	-200.000	0.023	0.314
-350.493	62.078	-0.140	-0.139
-349.479	-133.985	0.107	-0.013
-348.464	40.847	0.096	-0.086
-347.450	800.000	-0.028	-0.101
-346.435	-74.201	0.171	-0.061
-345.420	242.412	0.095	0.158
-344.406	216.882	0.119	0.188
-343.391	201.758	-0.080	0.122
-342.377	-60.932	0.154	-0.064
-341.362	-66.122	-0.287	0.114
-340.348	74.790	-0.125	0.130
-339.333	220.435	0.112	0.178
-338.318	122.357	-0.084	0.104
-337.304	-99.495	0.148	-0.037
-336.289	-200.000	-0.058	0.386
-335.275	74.378	-0.249	0.259
-334.260	-114.439	-0.329	-0.063
-333.245	-74.173	0.160	0.057
-332.231	218.278	-0.046	-0.072
-331.216	-120.655	-0.274	-0.046
-330.202	-11.578	0.264	-0.172
-329.187	49.753	0.095	0.089
-328.172	-200.000	-0.043	-0.290
-327.158	207.527	-0.063	0.097
-326.143	-7.980	0.275	0.184
-325.129	60.922	0.264	-0.259
-324.114	-69.536	0.245	-0.093
-323.099	-115.617	0.115	0.021
-322.085	360.989	0.083	0.165
-321.070	135.720	0.165	0.213
-320.056	-84.449	0.205	0.064
-319.041	-55.188	-0.204	-0.091
-318.026	-134.948	0.161	0.019
-317.012	17.779	-0.139	0.110
-315.997	33.001	-0.193	0.165
-314.983	612.912	-0.078	0.194
-313.968	140.046	0.123	-0.160
-312.953	307.648	-0.089	-0.165
-311.939	432.543	0.187	0.401
-310.924	100.029	-0.056	-0.064
-309.910	135.767	0.302	-0.390
-308.895	-200.000	0.035	-0.310
-307.880	-144.944	-0.229	-0.021
-306.866	-66.972	-0.123	-0.048
-305.851	-60.733	0.157	0.066
-304.837	412.083	0.043	0.091
-303.822	-159.308	0.338	0.019
-302.807	-81.334	0.219	-0.071
-301.793	204.740	0.142	0.218
-300.778	108.299	-0.084	-0.100
-299.764	800.000	0.045	-0.189
-298.749	800.000	-0.078	0.278
-297.735	-78.214	-0.093	0.032
-296.720	-11.924	0.328	0.213
-295.705	-43.266	-0.204	-0.102
-294.691	-43.190	0.262	-0.131
-293.676	195.391	0.046	0.069
-292.662	-0.386	-0.120	0.084
-291.647	-198.414	-0.329	0.002
-290.632	460.839	-0.064	0.140
-289.618	-200.000	0.005	-0.204
-288.603	-48.412	0.237	-0.113
-287.589	217.377	-0.002	-0.003
-286.574	800.000	-0.044	0.168
-285.559	45.148	-0.168	0.154
-284.545	-99.566	0.117	0.029
-283.530	-73.532	-0.256	0.092
-282.516	67.428	-0.228	0.230
-281.501	800.000	-0.020	-0.061
-280.486	45.086	-0.017	-0.015
-279.472	-147.444	-0.285	0.024
-278.457	800.000	-0.038	0.142
-277.443	68.416	-0.161	0.163
-276.428	-200.000	0.040	-0.208
-275.413	800.000	0.089	-0.289
-274.399	0.925	0.045	-0.032
-273.384	22.244	-0.041	0.033
-272.370	800.000	0.064	-0.179
-271.355	95.106	0.153	-0.173
-270.340	-112.844	-0.321	-0.063
-269.326	163.323	0.070	0.097
-268.311	-40.333	0.138	0.071
-267.297	24.453	-0.361	0.295
-266.282	68.973	0.139	0.141
-265.267	188.766	-0.184	-0.272
-264.253	479.836	0.132	0.295
-263.238	-200.000	0.057	-0.271
-262.224	354.813	-0.069	-0.136
-261.209	5.081	0.343	0.250
-260.195	-172.201	-0.246	0.008
-259.180	-91.427	-0.014	-0.004
-258.165	34.649	0.059	-0.051
-257.151	31.223	0.233	0.197
-256.136	-33.333	0.383	-0.209
-255.122	-135.109	0.176	-0.021
-254.107	5.204	-0.238	-0.173
-253.092	-35.895	0.195	0.104
-252.078	327.001	-0.247	0.468
-251.063	365.642	-0.042	0.084
-250.049	228.285	0.108	-0.173
-249.034	28.625	-0.187	-0.156
-248.019	53.586	-0.159	-0.150
-247.005	-77.971	-0.190	-0.065
-245.990	800.000	0.080	0.330
-244.976	-119.800	0.391	0.067
-243.961	591.254	0.014	0.034
-242.946	45.480	0.188	0.171
-241.932	317.361	0.110	0.206
-240.917	257.027	0.044	-0.075
-239.903	92.892	0.049	0.055
-238.888	800.000	0.024	0.072
-237.873	131.534	0.201	0.255
-236.859	141.415	0.163	-0.213
-235.844	-200.000	-0.035	-0.203
-234.830	-200.000	0.008	0.112
-233.815	251.050	0.333	0.558
-232.800	-55.315	0.464	-0.206
-231.786	-47.568	-0.276	0.132
-230.771	430.330	0.093	-0.198
-229.757	-200.000	-0.016	-0.094
-228.742	29.329	-0.103	0.087
-227.727	-200.000	-0.014	-0.257
-226.713	-92.386	0.165	0.046
-225.698	123.278	0.083	0.103
-224.684	-180.032	0.160	0.003
-223.669	314.336	-0.124	0.231
-222.655	800.000	0.048	-0.136
-221.640	-116.249	0.180	-0.033
-220.625	800.000	-0.060	0.179
-219.611	655.937	-0.098	-0.247
-218.596	249.522	0.254	0.425
-217.582	98.720	-0.250	-0.285
-216.567	-63.467	-0.104	-0.042
-215.552	-200.000	0.018	-0.080
-214.538	-102.361	-0.116	-0.027
-213.523	224.613	0.130	-0.207
-212.509	-77.695	-0.351	0.120
-211.494	-200.000	-0.027	0.145
-210.479	-97.660	0.127	-0.032
-209.465	800.000	0.078	-0.246
-208.450	59.869	-0.060	0.058
-207.436	-200.000	-0.067	0.336
-206.421	-101.921	-0.271	-0.064
-205.406	800.000	-0.061	0.232
-204.392	-60.452	0.120	-0.050
-203.377	-200.000	0.056	-0.508
-202.363	-16.450	-0.155	0.097
-201.348	-30.472	0.162	0.091
-200.333	-1.455	0.139	0.096
-199.319	-154.257	0.315	-0.021
-198.304	165.219	-0.115	-0.160
-197.290	-200.000	0.005	-0.111
-196.275	-29.575	-0.113	-0.063
-195.260	-128.052	0.184	0.026
-194.246	181.924	0.135	0.196
-193.231	-151.584	0.301	0.022
-192.217	-200.000	-0.003	-0.023
-191.202	-70.451	0.149	0.056
-190.187	800.000	-0.089	0.256
-189.173	-200.000	0.011	-0.273
-188.158	-66.723	-0.099	-0.039
-187.144	-22.360	0.119	0.071
-186.129	177.795	0.193	-0.277
-185.114	138.565	-0.081	0.105
-184.100	337.955	-0.041	-0.078
-183.085	-200.000	0.011	-0.228
-182.071	-137.478	0.324	-0.036
-181.056	220.278	0.113	0.179
-180.042	-45.407	-0.028	-0.014
-179.027	683.892	0.127	-0.327
-178.012	-200.000	0.023	0.209
-176.998	800.000	0.048	0.202
-175.983	-173.072	0.027	0.001
-174.969	800.000	0.047	0.129
-173.954	48.535	-0.225	0.208
-172.939	160.315	-0.041	-0.056
-171.925	-200.000	0.025	-0.390
-170.910	-88.650	-0.265	0.078
-169.896	-200.000	0.051	0.433
-168.881	178.168	-0.051	0.073
-167.866	409.911	0.100	0.209
-166.852	143.041	0.030	-0.039
-165.837	55.015	-0.023	-0.022
-164.823	83.227	-0.040	0.042
-163.808	52.804	-0.034	0.032
-162.793	91.000	0.244	-0.270
-161.779	-37.240	-0.155	-0.081
-160.764	338.430	0.025	-0.049
-159.750	55.256	0.203	-0.193
-158.735	-106.559	0.241	0.053
-157.720	-200.000	0.043	-0.191
-156.706	-25.665	-0.293	0.170
-155.691	67.676	0.133	-0.134
-154.677	800.000	-0.053	0.201
-153.662	-7.832	0.162	-0.108
-152.647	-10.194	0.072	-0.047
-151.633	91.933	-0.085	-0.094
-150.618	94.038	0.208	0.232
-149.604	274.866	0.069	-0.120
-148.589	2.920	0.388	-0.277
-147.574	800.000	0.091	0.320
-146.560	800.000	-0.059	-0.188
-145.545	800.000	-0.099	-0.345
-144.531	-94.606	0.265	-0.071
-143.516	-26.106	-0.064	0.037
-142.502	69.361	0.049	-0.050
-141.487	40.251	-0.086	-0.076
-140.472	121.289	0.118	0.145
-139.458	-48.981	-0.207	-0.098
-138.443	-69.222	-0.248	-0.094
-137.429	800.000	0.021	0.084
-136.414	-200.000	-0.020	-0.276
-135.399	-30.983	-0.156	0.087
-134.385	420.153	-0.074	0.155
-133.370	800.000	0.041	-0.134
-132.356	642.207	0.075	-0.187
-131.341	-200.000	-0.018	0.316
-130.326	-180.816	-0.463	-0.009
-129.312	-26.921	-0.051	-0.029
-128.297	-69.823	0.468	-0.175
-127.283	35.365	0.135	-0.116
-126.268	-14.062	-0.244	-0.155
-125.253	143.814	-0.084	0.111
-124.239	-200.000	-0.013	-0.062
-123.224	8.005	-0.159	0.117
-122.210	198.045	0.177	-0.266
-121.195	241.791	0.158	-0.259
-120.180	-91.388	0.312	-0.088
-119.166	-200.000	-0.021	-0.341
-118.151	-200.000	0.021	-0.196
-117.137	-31.436	-0.104	-0.057
-116.122	-200.000	0.033	-0.151
-115.107	82.594	0.419	-0.447
-114.093	71.019	-0.040	-0.041
-113.078	37.793	0.162	-0.141
-112.064	800.000	0.145	-0.566
-111.049	-200.000	0.021	-0.141
-110.034	-200.000	-0.054	0.302
-109.020	-200.000	-0.008	0.068
-108.005	15.151	-0.242	-0.186
-106.991	142.528	0.101	-0.131
-105.976	-200.000	0.032	0.282
-104.962	352.210	-0.137	-0.266
-103.947	-32.252	-0.076	0.042
-102.932	-151.409	0.115	-0.008
-101.918	171.730	-0.088	-0.124
-100.903	62.770	0.323	-0.317
-99.889	67.504	0.061	-0.061
-98.874	-96.457	-0.170	0.044
-97.859	503.073	-0.069	-0.156
-96.845	22.649	0.018	-0.014
-95.830	800.000	-0.060	0.250
-94.816	108.400	-0.099	-0.116
-93.801	-49.769	-0.205	-0.096
-92.786	-144.980	0.443	0.040
-91.772	-139.437	0.438	0.046
-90.757	117.443	0.153	0.185
-89.743	531.240	0.147	0.341
-88.728	7.064	0.103	0.076
-87.713	-114.950	0.155	0.029
-86.699	-142.935	-0.115	0.011
-85.684	782.098	-0.107	-0.289
-84.670	128.264	0.107	0.134
-83.655	-99.535	0.242	-0.060
-82.640	-200.000	-0.071	-0.321
-81.626	-200.000	0.012	0.100
-80.611	477.374	-0.029	-0.065
-79.597	4.796	-0.221	-0.159
-78.582	-46.838	-0.147	0.070
-77.567	-103.901	0.113	0.026
-76.553	233.310	0.173	-0.278
-75.538	-184.130	0.324	0.005
-74.524	120.149	-0.112	0.136
-73.509	625.864	0.142	-0.352
-72.494	498.747	0.022	0.049
-71.480	683.163	0.075	0.192
-70.465	33.252	0.159	-0.135
-69.451	39.731	0.219	0.193
-68.436	-34.930	-0.274	-0.147
-67.422	222.286	0.088	-0.139
-66.407	-200.000	-0.053	-0.254
-65.392	769.490	-0.030	0.080
-64.378	477.149	0.001	-0.003
-63.363	68.650	0.212	0.213
-62.349	-200.000	0.038	0.302
-61.334	-23.542	-1.067	-0.628
-60.319	-41.781	0.821	0.413
-59.305	-200.000	0.069	-1.307
-58.290	84.056	0.820	0.878
-57.276	169.234	0.967	1.352
-56.261	-200.000	99.708	619.016
-55.246	570.577	1428.845	3407.330
-54.232	187.589	2628.638	3844.370
-53.217	110.512	2275.553	2680.379
-52.203	40.565	1891.686	1669.939
-51.188	34.334	1679.829	1436.081
-50.173	31.637	1636.298	1378.975
-49.159	50.084	1685.470	1558.659
-48.144	51.012	1701.465	1580.318
-47.130	33.843	1661.103	1416.186
-46.115	31.171	1646.671	1384.041
-45.100	30.970	1641.752	1378.367
-44.086	31.042	1638.743	1376.319
-43.071	30.940	1636.918	1373.983
-42.057	30.950	1634.633	1372.080
-41.042	30.907	1633.046	1370.379
-40.027	30.911	1630.827	1368.494
-39.013	30.881	1628.970	1366.658
-37.998	30.789	1627.592	1364.775
-36.984	30.901	1625.866	1364.090
-35.969	31.026	1624.565	1363.865
-34.954	31.091	1622.393	1362.457
-33.940	31.019	1620.714	1360.471
-32.925	31.056	1618.605	1358.916
-31.911	31.072	1617.164	1357.765
-30.896	30.999	1615.546	1355.823
-29.881	31.070	1613.595	1354.646
-28.867	30.928	1612.763	1352.862
-27.852	30.955	1611.235	1351.727
-26.838	31.055	1609.450	1350.899
-25.823	31.087	1607.740	1349.641
-24.809	31.038	1606.575	1348.256
-23.794	31.042	1605.384	1347.236
-22.779	31.031	1603.669	1345.661
-21.765	31.131	1601.645	1344.627
-20.750	31.044	1600.271	1342.797
-19.736	31.094	1598.629	1341.727
-18.721	31.178	1597.183	1341.062
-17.706	31.022	1595.757	1338.693
-16.692	31.065	1594.673	1338.036
-15.677	31.133	1592.947	1337.022
-14.663	31.090	1591.894	1335.780
-13.648	31.052	1590.792	1334.531
-12.633	31.116	1588.504	1333.011
-11.619	31.030	1587.451	1331.459
-10.604	31.030	1585.934	1330.134
-9.590	30.989	1584.551	1328.633
-8.575	31.021	1583.304	1327.763
-7.560	31.065	1582.451	1327.309
-6.546	31.140	1581.149	1326.699
-5.531	31.067	1580.079	1325.223
-4.517	31.115	1578.885	1324.516
-3.502	31.121	1577.855	1323.642
-2.487	31.123	1576.265	1322.268
-1.473	30.732	1564.404	1309.515
-0.458	27.710	1544.897	1272.095
0.556	21.804	1544.833	1239.347
1.571	19.537	1568.388	1241.845
2.586	19.118	1581.866	1249.366
3.600	17.346	1529.917	1195.779
4.615	9.208	1421.022	1057.219
5.629	1.285	1357.222	959.711
6.644	-0.202	1348.441	944.075
7.659	-0.289	1346.737	942.251
8.673	-0.371	1345.829	941.020
9.688	-0.369	1344.013	939.680
10.702	-0.554	1340.635	936.073
11.717	2.609	1347.359	960.535
12.731	11.798	1364.742	1030.962
13.746	18.740	1376.310	1083.570
14.761	20.240	1377.535	1093.906
15.775	20.476	1377.318	1095.123
16.790	20.319	1377.123	1093.886
17.804	20.401	1376.488	1093.798
18.819	20.638	1376.061	1094.854
19.834	20.767	1375.357	1095.012
20.848	20.755	1374.699	1094.312
21.863	20.844	1373.539	1093.851
22.877	20.871	1372.612	1093.190
23.892	20.696	1372.592	1091.974
24.907	20.790	1371.391	1091.511
25.921	20.745	1370.808	1090.671
26.936	20.736	1369.366	1089.370
27.950	20.727	1368.481	1088.513
28.965	20.766	1367.012	1087.496
29.980	20.875	1365.661	1087.002
30.994	20.750	1364.566	1085.252
32.009	20.926	1363.182	1085.156
33.023	20.742	1362.549	1083.410
34.038	20.690	1361.284	1081.984
35.053	20.879	1359.706	1081.806
36.067	20.907	1358.874	1081.223
37.082	20.709	1358.316	1079.460
38.096	20.754	1357.456	1078.957
39.111	20.663	1356.625	1077.640
40.126	20.714	1355.993	1077.357
41.140	20.682	1355.898	1076.984
42.155	20.712	1355.344	1076.634
43.169	20.734	1355.325	1076.665
44.184	20.772	1355.036	1076.572
45.199	20.745	1354.088	1075.558
46.213	20.775	1353.571	1075.235
47.228	20.817	1352.347	1074.427
48.242	20.846	1351.355	1073.725
49.257	20.685	1350.224	1071.741
50.271	20.772	1348.448	1070.771
51.286	20.846	1347.144	1070.092
52.301	20.882	1345.746	1069.108
53.315	20.742	1345.101	1067.647
54.330	20.764	1344.307	1067.053
55.344	20.868	1342.765	1066.371
56.359	20.791	1342.084	1065.266
57.374	20.708	1341.408	1064.126
58.388	20.794	1340.540	1063.872
59.403	20.843	1340.234	1063.832
60.417	20.729	1339.910	1062.783
61.432	20.792	1338.890	1062.267
62.447	20.759	1337.828	1061.127
63.461	20.715	1336.792	1059.943
64.476	20.774	1335.704	1059.350
65.490	20.799	1334.115	1058.143
66.505	20.777	1333.242	1057.224
67.520	20.741	1331.818	1055.785
68.534	20.752	1330.594	1054.791
69.549	20.714	1329.772	1053.810
70.563	20.751	1328.767	1053.148
71.578	20.716	1327.923	1052.172
72.593	20.753	1327.221	1051.745
73.607	20.767	1326.403	1051.088
74.622	20.681	1326.054	1050.205
75.636	20.734	1324.983	1049.583
76.651	20.776	1324.235	1049.148
77.666	20.730	1323.664	1048.328
78.680	20.706	1323.522	1047.978
79.695	20.793	1322.033	1047.226
80.709	20.781	1321.550	1046.678
81.724	20.729	1320.666	1045.575
82.739	20.805	1319.476	1045.000
83.753	20.733	1318.760	1043.903
84.768	20.761	1317.308	1042.831
85.782	20.756	1316.267	1041.887
86.797	20.899	1314.506	1041.253
87.812	20.831	1314.038	1040.387
88.826	20.816	1312.724	1039.163
89.841	20.875	1311.838	1038.722
90.855	20.895	1310.711	1037.858
91.870	20.804	1310.256	1036.860
92.884	20.925	1308.983	1036.482
93.899	20.849	1308.385	1035.468
94.914	20.878	1307.785	1035.071
95.928	20.920	1307.063	1034.656
96.943	20.942	1305.874	1033.755
97.957	20.956	1305.412	1033.381
98.972	20.830	1304.718	1031.992
99.987	20.854	1303.430	1031.024
101.001	20.828	1302.606	1030.132
102.016	20.842	1301.157	1028.972
103.030	20.836	1300.822	1028.583
104.045	20.896	1299.773	1028.015
105.060	20.867	1298.379	1026.654
106.074	20.965	1297.963	1026.810
107.089	20.919	1296.547	1025.329
108.103	20.805	1295.814	1023.987
109.118	20.903	1294.315	1023.290
110.133	20.893	1292.890	1022.014
111.147	21.029	1291.431	1021.563
112.162	20.956	1290.680	1020.452
113.176	20.925	1289.848	1019.527
114.191	21.005	1288.810	1019.082
115.206	20.916	1287.892	1017.745
116.220	20.939	1286.726	1016.871
117.235	20.917	1285.851	1015.957
118.249	20.924	1284.915	1015.169
119.264	20.884	1283.745	1013.923
120.279	20.927	1283.222	1013.669
121.293	20.915	1282.329	1012.804
122.308	20.905	1281.594	1012.078
123.322	21.058	1279.934	1011.562
124.337	21.005	1279.104	1010.510
125.352	21.025	1278.591	1010.134
126.366	20.952	1277.490	1008.751
127.381	21.007	1276.270	1008.016
128.395	21.005	1275.462	1007.279
129.410	20.983	1274.408	1006.230
130.424	20.998	1274.104	1005.986
131.439	21.058	1273.046	1005.407
132.454	20.928	1271.995	1003.738
133.468	20.940	1271.263	1003.144
134.483	21.030	1270.808	1003.212
135.497	20.936	1269.861	1001.835
136.512	20.993	1269.157	1001.519
137.527	20.939	1268.003	1000.211
138.541	20.935	1266.551	998.954
139.556	21.004	1265.312	998.284
140.570	20.957	1264.516	997.299
141.585	21.049	1262.868	996.437
142.600	21.022	1261.409	995.043
143.614	20.928	1260.788	993.927
144.629	20.910	1259.813	992.968
145.643	20.884	1258.980	992.079
146.658	20.859	1257.643	990.795
147.673	20.887	1256.830	990.226
148.687	20.919	1255.774	989.486
149.702	20.907	1254.854	988.606
150.716	20.907	1254.000	987.845
151.731	20.994	1252.818	987.319
152.746	20.940	1251.620	985.984
153.760	20.976	1250.735	985.401
154.775	20.974	1249.629	984.432
155.789	21.072	1248.504	984.013
156.804	21.015	1248.151	983.326
157.819	21.008	1246.576	981.958
158.833	21.018	1245.933	981.419
159.848	20.969	1245.033	980.348
160.862	21.123	1244.075	980.374
161.877	21.110	1243.323	979.619
162.892	21.113	1242.566	978.957
163.906	21.023	1242.257	978.121
164.921	21.092	1241.267	977.641
165.935	21.129	1240.514	977.168
166.950	20.972	1240.394	976.110
167.964	20.969	1239.755	975.500
168.979	21.100	1238.886	975.462
169.994	21.154	1237.957	974.949
171.008	21.010	1237.713	973.867
172.023	21.011	1236.718	973.003
173.037	21.090	1236.147	972.907
174.052	21.139	1234.900	972.114
175.067	21.125	1234.271	971.451
176.081	20.956	1233.894	970.131
177.096	21.043	1232.757	969.633
178.110	21.064	1232.115	969.163
179.125	21.045	1231.037	968.119
180.140	21.217	1229.603	967.860
181.154	21.174	1229.065	967.112
182.169	21.148	1227.830	965.912
183.183	21.223	1226.526	965.213
184.198	21.183	1225.753	964.301
185.213	21.210	1224.738	963.568
186.227	21.206	1223.756	962.686
187.242	21.370	1222.524	962.533
188.256	21.204	1222.057	961.169
189.271	21.173	1221.244	960.273
190.286	21.202	1220.681	959.906
191.300	21.117	1220.446	959.170
192.315	21.189	1219.684	958.878
193.329	21.119	1219.466	958.241
194.344	21.095	1219.207	957.819
195.359	21.140	1218.483	957.415
196.373	21.207	1217.994	957.311
197.388	21.095	1217.337	956.095
198.402	21.101	1216.805	955.627
199.417	21.058	1216.551	955.105
200.432	21.216	1215.673	955.200
201.446	21.235	1214.901	954.610
202.461	21.164	1214.476	953.805
203.475	21.242	1213.365	953.275
204.490	21.142	1212.662	952.088
205.504	21.195	1211.416	951.319
206.519	21.311	1210.099	950.829
207.534	21.312	1208.975	949.869
208.548	21.168	1208.907	948.945
209.563	21.196	1208.176	948.442
210.577	21.274	1206.800	947.703
211.592	21.205	1206.350	946.889
212.607	21.290	1205.739	946.789
213.621	21.308	1204.881	946.125
214.636	21.471	1203.713	946.008
215.650	21.360	1202.950	944.724
216.665	21.329	1202.122	943.822
217.680	21.209	1201.793	942.834
218.694	21.420	1200.390	942.790
219.709	21.257	1199.983	941.506
220.723	21.360	1199.242	941.396
221.738	21.239	1198.871	940.370
222.753	21.301	1197.587	939.611
223.767	21.220	1197.388	938.936
224.782	21.345	1196.849	939.103
225.796	21.389	1195.979	938.577
226.811	21.359	1195.428	937.899
227.826	21.361	1194.902	937.416
228.840	21.391	1194.453	937.139
229.855	21.450	1193.289	936.457
230.869	21.308	1192.850	935.274
231.884	21.459	1192.116	935.421
232.899	21.396	1191.551	934.558
233.913	21.456	1190.879	934.266
234.928	21.527	1190.858	934.547
235.942	21.556	1189.769	933.767
236.957	21.418	1189.208	932.507
237.972	21.479	1188.312	932.044
238.986	21.498	1187.411	931.360
240.001	21.535	1186.796	930.991
241.015	21.511	1186.496	930.545
242.030	21.570	1185.602	930.075
243.045	21.545	1184.844	929.267
244.059	21.598	1183.970	928.779
245.074	21.585	1183.187	928.014
246.088	21.568	1182.809	927.547
247.103	21.648	1181.505	926.864
248.117	21.570	1180.847	925.852
249.132	21.628	1180.234	925.597
250.147	21.701	1179.511	925.335
251.161	21.757	1178.560	924.803
252.176	21.614	1178.407	923.846
253.190	21.652	1177.845	923.524
254.205	21.623	1176.788	922.460
255.220	21.688	1176.428	922.438
256.234	21.654	1176.217	922.014
257.249	21.629	1175.164	920.971
258.263	21.583	1174.732	920.310
259.278	21.753	1174.218	920.719
260.293	21.712	1174.020	920.271
261.307	21.650	1172.998	919.063
262.322	21.667	1172.294	918.519
263.336	21.724	1171.514	918.124
264.351	21.680	1170.995	917.405
265.366	21.688	1170.875	917.273
266.380	21.590	1170.097	916.069
267.395	21.788	1168.825	916.025
268.409	21.619	1168.664	914.935
269.424	21.598	1168.469	914.594
270.439	21.704	1167.985	914.688
271.453	21.828	1166.592	914.162
272.468	21.757	1165.873	913.145
273.482	21.697	1165.513	912.474
274.497	21.781	1164.628	912.133
275.512	21.898	1163.971	912.148
276.526	21.822	1163.321	911.165
277.541	21.798	1163.031	910.729
278.555	21.777	1162.147	909.850
279.570	21.775	1161.890	909.556
280.585	21.783	1160.883	908.731
281.599	21.785	1159.840	907.844
282.614	21.856	1158.897	907.394
283.628	21.973	1158.149	907.331
284.643	21.862	1157.438	906.121
285.657	21.907	1156.257	905.346
286.672	21.894	1155.561	904.657
287.687	21.922	1154.800	904.123
288.701	21.955	1154.338	903.853
289.716	21.894	1153.868	903.092
290.730	21.928	1152.886	902.414
291.745	21.958	1152.071	901.852
292.760	21.931	1151.614	901.277
293.774	21.997	1150.967	901.027
294.789	21.969	1150.844	900.709
295.803	21.955	1150.115	899.989
296.818	21.835	1149.959	899.173
297.833	21.914	1148.793	898.585
298.847	21.899	1148.483	898.183
299.862	21.974	1147.375	897.623
300.876	21.960	1146.782	897.009
301.891	22.083	1145.994	896.942
302.906	22.164	1145.237	896.683
303.920	22.145	1144.674	896.065
304.935	22.132	1144.255	895.590
305.949	22.125	1143.402	894.808
306.964	22.086	1143.171	894.352
307.979	22.190	1142.047	893.920
308.993	22.150	1141.831	893.469
310.008	22.102	1141.139	892.606
311.022	22.255	1140.231	892.590
312.037	22.179	1139.087	891.230
313.052	22.035	1138.675	890.103
314.066	22.101	1137.425	889.381
315.081	22.156	1136.950	889.208
316.095	22.170	1136.852	889.123
317.110	22.197	1135.572	888.181
318.125	22.124	1135.273	887.501
319.139	22.215	1134.728	887.452
320.154	22.149	1134.312	886.715
321.168	22.242	1133.338	886.347
322.183	22.246	1132.952	885.987
323.197	22.220	1132.611	885.507
324.212	22.159	1131.861	884.538
325.227	22.091	1131.761	884.037
326.241	22.334	1130.585	884.261
327.256	22.251	1130.136	883.417
328.270	22.277	1128.912	882.512
329.285	22.317	1128.535	882.341
330.300	22.267	1127.559	881.249
331.314	22.275	1126.826	880.639
332.329	22.381	1125.807	880.293
333.343	22.382	1124.819	879.449
334.358	22.326	1124.465	878.814
335.373	22.499	1123.269	878.663
336.387	22.342	1122.972	877.571
337.402	22.449	1122.257	877.467
338.416	22.304	1121.990	876.458
339.431	22.387	1120.806	875.871
340.446	22.445	1120.495	875.836
341.460	22.495	1119.775	875.447
342.475	22.469	1119.051	874.673
343.489	22.430	1118.521	873.988
344.504	22.415	1117.349	872.919
345.519	22.512	1116.051	872.311
346.533	22.563	1115.664	872.181
347.548	22.469	1115.098	871.200
348.562	22.508	1114.661	870.974
349.577	22.437	1113.760	869.839
350.592	22.534	1112.846	869.526
351.606	22.248	1112.557	867.816
352.621	22.431	1111.868	868.104
353.635	22.547	1111.353	868.198
354.650	22.613	1110.638	867.886
355.665	22.596	1109.717	867.007
356.679	22.639	1109.406	866.899
357.694	22.709	1108.668	866.585
358.708	22.603	1108.034	865.494
359.723	22.645	1107.179	864.958
360.738	22.603	1106.507	864.148
361.752	22.522	1106.311	863.524
362.767	22.549	1105.788	863.172
363.781	22.800	1104.929	863.651
364.796	22.835	1104.208	863.181
365.810	22.692	1103.905	862.168
366.825	22.665	1103.272	861.469
367.840	22.725	1103.311	861.716
368.854	22.772	1102.538	861.264
369.869	22.781	1101.452	860.384
370.883	22.903	1100.768	860.368
371.898	22.872	1100.084	859.606
372.913	22.748	1099.849	858.745
373.927	22.759	1099.363	858.340
374.942	22.694	1099.127	857.766
375.956	22.879	1098.112	857.793
376.971	22.790	1097.472	856.788
377.986	22.835	1096.998	856.558
379.000	23.022	1096.185	856.758
380.015	22.884	1095.818	855.723
381.029	22.864	1095.517	855.317
382.044	22.896	1094.439	854.552
383.059	22.930	1093.695	854.062
384.073	22.858	1093.296	853.329
385.088	22.902	1092.405	852.768
386.102	23.003	1091.146	852.197
387.117	22.891	1090.743	851.265
388.132	22.888	1089.717	850.378
389.146	23.023	1089.080	850.455
390.161	22.975	1088.386	849.606
391.175	22.969	1087.912	849.131
392.190	22.942	1087.506	848.608
393.205	22.942	1086.659	847.873
394.219	22.948	1086.002	847.317
395.234	23.006	1084.987	846.724
396.248	23.123	1083.750	846.244
397.263	23.020	1082.892	845.007
398.278	23.027	1082.671	844.795
399.292	23.111	1081.796	844.439
400.307	23.230	1081.061	844.356
401.321	23.026	1080.942	843.216
402.336	23.074	1079.896	842.552
403.350	23.286	1078.783	842.621
404.365	23.225	1078.430	841.979
405.380	23.128	1078.194	841.260
406.394	23.240	1077.187	840.930
407.409	23.267	1076.990	840.832
408.423	23.241	1075.729	839.649
409.438	23.198	1074.959	838.772
410.453	23.269	1074.661	838.799
411.467	23.281	1073.617	837.968
412.482	23.316	1073.211	837.745
413.496	23.282	1072.217	836.731
414.511	23.355	1071.426	836.385
415.526	23.277	1071.460	835.970
416.540	23.288	1071.013	835.598
417.555	23.209	1070.809	834.992
418.569	23.334	1069.885	834.788
419.584	23.419	1069.289	834.650
420.599	23.377	1069.002	834.152
421.613	149.170	1399.188	1797.136
422.628	137.419	1447.247	1797.229
