DTS Sentinel unit serial number:	SN413079Multiplexer serial number:	ORYXHardware model number:	OX4-SRSoftware version number:	ORYX F/W v4.00 Oryx Data Collector v3.7.2.0data status	okinstallation	princeton_trtdifferential loss correction	single-endedforward channel	channel 2reverse channel	N/Adate	2019/09/17time	00:27:35forward acquisition time	60.00reverse acquisition time	0.00gamma	496.2192k internal	0.2329k external	0.2329temperature offset calibration	0.9973default loss term (dB/km)	0.3790temperature slope calibration	1.0000multiplexer offset coefficient	1.0000multiplexer slope coefficient	1.0000fibre end	0.00T internal ref (°C)	29.50T ext. ref 1 (°C)	0.10T ext. ref 2 (°C)	23.70length (m)	temperature (°C)	Stokes	anti-Stokes-747.200	800.000	0.020	-0.070
-746.185	-57.850	-0.423	0.186
-745.171	-200.000	0.006	0.225
-744.156	-50.518	-0.215	0.102
-743.142	-17.201	-0.232	-0.147
-742.127	800.000	-0.054	0.229
-741.112	73.590	-0.094	-0.100
-740.098	98.880	-0.038	-0.044
-739.083	697.111	-0.087	0.231
-738.069	381.349	0.050	-0.104
-737.054	7.254	0.272	-0.205
-736.039	-50.550	-0.301	0.143
-735.025	9.902	0.194	0.148
-734.010	157.582	-0.105	0.147
-732.996	103.398	-0.152	-0.180
-731.981	373.701	0.104	-0.214
-730.966	219.415	-0.112	-0.181
-729.952	-74.702	-0.303	-0.110
-728.937	-112.205	-0.158	-0.032
-727.923	-97.566	0.271	-0.071
-726.908	-136.877	-0.297	0.034
-725.894	46.621	-0.154	0.143
-724.879	23.650	0.084	0.069
-723.864	416.225	0.134	0.287
-722.850	8.740	-0.105	0.080
-721.835	40.717	-0.227	0.206
-720.821	9.198	0.250	0.190
-719.806	134.890	-0.213	0.278
-718.791	-143.602	-0.404	0.039
-717.777	322.834	0.115	-0.220
-716.762	-40.821	-0.129	-0.067
-715.748	-92.685	0.192	-0.054
-714.733	-99.778	-0.309	-0.078
-713.718	-72.257	-0.200	-0.075
-712.704	-49.589	-0.424	-0.203
-711.689	8.733	-0.090	0.068
-710.675	178.169	-0.174	0.256
-709.660	59.936	-0.182	0.181
-708.645	705.291	0.066	0.175
-707.631	-59.068	0.218	0.095
-706.616	-200.000	0.005	0.209
-705.602	-54.835	-0.101	-0.046
-704.587	15.683	0.108	0.086
-703.572	78.081	-0.302	-0.323
-702.558	-200.000	0.026	-0.121
-701.543	138.435	0.186	0.246
-700.529	-26.551	0.252	0.148
-699.514	178.701	-0.192	-0.282
-698.499	72.401	-0.150	0.157
-697.485	-41.552	-0.176	-0.091
-696.470	141.319	-0.177	-0.236
-695.456	356.820	-0.084	-0.169
-694.441	-65.639	0.445	0.179
-693.426	-62.569	0.139	-0.058
-692.412	800.000	0.043	-0.158
-691.397	-64.397	0.120	-0.049
-690.383	-87.092	0.434	0.133
-689.368	449.195	-0.101	-0.224
-688.354	-18.111	-0.390	-0.246
-687.339	-101.084	-0.256	0.063
-686.324	-23.521	0.019	0.011
-685.310	-46.909	0.059	0.029
-684.295	-149.332	-0.140	0.011
-683.281	219.655	0.016	-0.026
-682.266	-18.500	0.233	0.146
-681.251	465.120	0.114	-0.255
-680.237	-4.687	-0.275	-0.191
-679.222	65.978	0.363	0.370
-678.208	100.333	-0.140	0.163
-677.193	-180.612	0.276	-0.006
-676.178	-175.506	-0.539	-0.015
-675.164	-42.589	0.219	0.112
-674.149	800.000	0.048	0.205
-673.135	-46.444	0.022	0.011
-672.120	309.671	0.098	0.184
-671.105	5.957	0.148	0.110
-670.091	123.001	-0.135	0.170
-669.076	-123.169	-0.035	0.006
-668.062	-79.228	0.101	0.034
-667.047	-6.475	0.520	0.356
-666.032	800.000	0.051	0.201
-665.018	469.723	0.019	-0.043
-664.003	800.000	-0.059	0.210
-662.989	-29.450	0.152	-0.088
-661.974	47.232	-0.227	-0.213
-660.959	-106.741	0.192	0.043
-659.945	-200.000	0.025	-0.325
-658.930	4.146	0.315	-0.232
-657.916	-50.390	-0.266	0.126
-656.901	115.681	-0.123	0.151
-655.886	-79.496	-0.219	0.074
-654.872	143.156	0.244	-0.326
-653.857	-52.903	-0.342	-0.158
-652.843	-102.166	-0.204	-0.049
-651.828	-17.294	-0.291	-0.184
-650.814	109.485	-0.130	-0.156
-649.799	-51.171	-0.045	0.021
-648.784	254.242	-0.133	-0.227
-647.770	-200.000	-0.028	0.235
-646.755	495.701	-0.209	-0.481
-645.741	317.573	0.066	0.125
-644.726	-3.552	-0.038	-0.026
-643.711	-33.093	-0.193	-0.107
-642.697	125.324	0.005	0.006
-641.682	-102.703	-0.056	0.013
-640.668	-200.000	-0.025	0.220
-639.653	-200.000	-0.014	0.227
-638.638	-177.189	-0.472	-0.012
-637.624	2.834	-0.108	0.078
-636.609	220.077	0.033	-0.053
-635.595	473.535	0.148	0.335
-634.580	143.131	0.223	-0.298
-633.565	-67.423	-0.212	0.084
-632.551	-200.000	-0.008	0.365
-631.536	-18.234	-0.285	0.179
-630.522	90.814	-0.141	0.159
-629.507	-117.748	-0.310	-0.056
-628.492	-12.261	0.134	0.088
-627.478	-149.354	-0.399	0.032
-626.463	-76.494	0.249	0.088
-625.449	-43.756	-0.137	-0.069
-624.434	-200.000	0.110	0.000
-623.419	92.728	-0.195	-0.221
-622.405	-76.411	-0.262	0.092
-621.390	-114.633	0.232	-0.045
-620.376	-62.483	0.108	0.045
-619.361	26.639	0.140	-0.118
-618.346	-153.814	-0.299	-0.021
-617.332	-41.142	-0.146	0.076
-616.317	54.155	0.160	0.154
-615.303	800.000	-0.117	-0.368
-614.288	-200.000	-0.015	-0.118
-613.273	-200.000	-0.009	0.153
-612.259	494.969	0.144	0.331
-611.244	-154.047	0.087	0.006
-610.230	-42.756	0.146	-0.074
-609.215	-150.601	-0.237	-0.018
-608.201	-124.483	0.227	-0.035
-607.186	622.106	0.068	-0.171
-606.171	30.659	0.326	-0.279
-605.157	-200.000	0.057	-0.308
-604.142	-109.003	0.188	0.040
-603.128	-67.845	-0.118	0.046
-602.113	-200.000	-0.032	-0.346
-601.098	-39.891	-0.166	-0.087
-600.084	-87.918	-0.225	-0.068
-599.069	482.231	-0.115	-0.262
-598.055	649.246	0.057	0.146
-597.040	-121.697	-0.052	0.009
-596.025	53.646	0.182	0.174
-595.011	-129.750	0.208	0.029
-593.996	-200.000	0.031	-0.341
-592.982	-149.909	0.128	0.010
-591.967	-158.150	0.373	0.022
-590.952	20.533	-0.310	0.251
-589.938	-18.034	0.256	0.161
-588.923	41.883	0.027	0.025
-587.909	-200.000	0.027	0.298
-586.894	-23.779	-0.045	0.027
-585.879	112.924	0.028	0.034
-584.865	127.085	0.366	0.464
-583.850	-200.000	-0.030	0.195
-582.836	-74.317	0.084	0.030
-581.821	157.456	-0.061	-0.085
-580.806	-114.721	-0.190	0.036
-579.792	-200.000	-0.002	-0.235
-578.777	416.211	0.082	-0.175
-577.763	21.398	-0.199	0.162
-576.748	24.286	0.064	-0.053
-575.733	-84.215	-0.231	0.073
-574.719	-61.465	0.107	-0.045
-573.704	85.228	-0.305	0.335
-572.690	-22.999	0.176	-0.106
-571.675	-16.062	-0.164	0.104
-570.661	-18.143	0.149	0.093
-569.646	692.667	-0.041	0.106
-568.631	-156.322	0.199	-0.012
-567.617	177.338	0.160	0.233
-566.602	23.538	-0.214	-0.176
-565.588	-60.076	0.143	0.061
-564.573	-200.000	0.005	-0.192
-563.558	-200.000	-0.019	-0.117
-562.544	-22.991	0.243	-0.147
-561.529	71.614	-0.152	-0.158
-560.515	-69.550	0.198	-0.076
-559.500	-140.998	-0.425	0.044
-558.485	-22.729	-0.222	0.134
-557.471	-28.252	-0.136	-0.079
-556.456	116.158	-0.136	0.166
-555.442	-17.190	0.406	0.256
-554.427	198.271	0.043	0.066
-553.412	405.572	0.176	-0.372
-552.398	85.122	0.088	0.096
-551.383	759.771	0.179	0.486
-550.369	800.000	-0.130	0.376
-549.354	-114.703	-0.142	0.027
-548.339	442.245	0.092	-0.202
-547.325	-92.225	0.053	0.015
-546.310	-117.084	-0.272	0.050
-545.296	-194.188	-0.429	0.003
-544.281	256.183	0.218	-0.374
-543.266	-23.839	-0.240	0.144
-542.252	54.152	0.066	-0.064
-541.237	357.118	0.023	-0.046
-540.223	-200.000	0.009	0.098
-539.208	128.509	0.154	0.196
-538.193	-55.654	0.417	-0.187
-537.179	225.747	-0.140	-0.227
-536.164	-64.633	0.361	-0.146
-535.150	-46.918	-0.166	0.081
-534.135	-80.267	0.306	0.102
-533.121	-104.801	0.140	0.032
-532.106	-200.000	0.017	-0.243
-531.091	-39.571	-0.036	-0.019
-530.077	800.000	0.111	0.379
-529.062	14.021	-0.162	-0.126
-528.048	218.836	0.182	-0.290
-527.033	-71.053	-0.158	0.059
-526.018	800.000	-0.046	-0.198
-525.004	473.036	0.105	-0.236
-523.989	-200.000	0.031	-0.405
-522.975	782.188	-0.161	-0.441
-521.960	-182.201	-0.288	-0.005
-520.945	41.781	0.064	-0.058
-519.931	-53.988	0.352	-0.160
-518.916	178.211	-0.251	0.365
-517.902	-200.000	0.032	-0.172
-516.887	-12.798	-0.182	-0.118
-515.872	-46.662	-0.270	0.132
-514.858	98.340	0.156	0.180
-513.843	-175.042	0.239	0.007
-512.829	-49.728	0.118	-0.056
-511.814	-74.425	-0.345	-0.124
-510.799	-45.583	0.063	0.031
-509.785	-108.945	0.188	0.040
-508.770	-116.396	-0.123	0.023
-507.756	517.222	-0.022	0.052
-506.741	-92.525	-0.115	-0.032
-505.726	800.000	-0.049	0.181
-504.712	-137.927	0.179	-0.020
-503.697	-50.588	-0.259	0.122
-502.683	54.382	-0.126	-0.121
-501.668	175.777	-0.216	-0.313
-500.653	-10.510	0.095	-0.063
-499.639	169.971	0.176	-0.251
-498.624	-142.138	0.372	0.037
-497.610	304.412	-0.081	-0.150
-496.595	273.918	-0.069	-0.122
-495.581	128.357	0.208	0.264
-494.566	-60.181	0.135	0.057
-493.551	-70.221	-0.344	0.130
-492.537	157.631	0.180	0.249
-491.522	800.000	-0.026	-0.095
-490.508	800.000	-0.048	-0.207
-489.493	61.820	-0.189	0.188
-488.478	-200.000	0.009	0.224
-487.464	-200.000	0.017	-0.357
-486.449	-18.015	0.134	-0.083
-485.435	33.830	-0.317	0.275
-484.420	60.743	-0.105	-0.103
-483.405	61.395	0.071	-0.071
-482.391	-60.594	-0.180	0.076
-481.376	-71.725	0.225	-0.084
-480.362	-19.677	-0.191	-0.118
-479.347	127.264	-0.120	0.152
-478.332	-91.857	0.250	0.071
-477.318	-200.000	-0.026	0.132
-476.303	-16.320	0.152	-0.096
-475.289	-80.119	0.049	0.016
-474.274	545.788	0.062	0.149
-473.259	800.000	0.025	-0.088
-472.245	-42.765	-0.051	0.026
-471.230	133.019	-0.123	-0.158
-470.216	307.661	0.177	-0.328
-469.201	-107.779	-0.083	0.018
-468.186	-88.200	0.503	-0.150
-467.172	-52.753	-0.193	-0.089
-466.157	-200.000	-0.006	-0.127
-465.143	14.794	-0.058	-0.046
-464.128	800.000	0.042	0.138
-463.113	95.545	0.140	-0.159
-462.099	116.473	0.164	-0.200
-461.084	-12.733	-0.027	0.018
-460.070	-123.015	0.128	-0.021
-459.055	-66.270	0.115	-0.045
-458.040	-37.682	-0.107	-0.057
-457.026	-200.000	0.023	0.157
-456.011	800.000	0.031	0.130
-454.997	112.471	-0.077	-0.093
-453.982	46.739	-0.160	0.148
-452.968	-200.000	-0.082	0.398
-451.953	-43.043	-0.023	0.012
-450.938	372.277	-0.099	0.200
-449.924	65.102	-0.067	-0.067
-448.909	315.469	-0.017	0.032
-447.895	-187.388	0.095	0.001
-446.880	-124.852	0.188	0.029
-445.865	-42.050	0.062	0.032
-444.851	-200.000	-0.029	-0.242
-443.836	335.780	0.101	-0.195
-442.822	628.407	-0.124	0.313
-441.807	280.382	0.084	0.149
-440.792	10.642	0.340	-0.258
-439.778	-200.000	-0.005	-0.170
-438.763	-34.295	-0.196	0.107
-437.749	301.489	0.210	0.387
-436.734	131.919	-0.141	-0.181
-435.719	46.511	0.139	-0.128
-434.705	302.305	-0.078	-0.143
-433.690	-57.256	-0.235	-0.103
-432.676	393.443	0.075	0.155
-431.661	-47.625	-0.281	-0.136
-430.646	446.711	-0.222	0.485
-429.632	-16.149	0.187	0.118
-428.617	-1.496	0.174	-0.122
-427.603	-55.084	-0.289	0.129
-426.588	5.843	0.018	0.013
-425.573	-33.074	0.456	-0.252
-424.559	-97.002	-0.421	0.110
-423.544	-200.000	-0.014	-0.369
-422.530	-200.000	-0.001	0.150
-421.515	229.285	0.105	-0.171
-420.500	153.149	0.129	-0.175
-419.486	109.174	0.202	0.241
-418.471	-139.829	0.282	-0.030
-417.457	-200.000	0.002	-0.184
-416.442	47.478	-0.162	0.150
-415.428	141.072	0.180	0.236
-414.413	372.538	0.161	0.324
-413.398	78.629	0.274	-0.291
-412.384	-118.913	-0.133	-0.023
-411.369	-200.000	-0.005	0.120
-410.355	63.473	-0.095	0.094
-409.340	37.155	-0.266	0.234
-408.325	-8.929	0.357	0.238
-407.311	-148.560	0.173	-0.014
-406.296	-133.800	-0.281	-0.035
-405.282	56.485	-0.142	0.137
-404.267	45.836	0.125	-0.115
-403.252	-200.000	-0.035	0.306
-402.238	47.566	0.197	-0.182
-401.223	-200.000	-0.006	-0.389
-400.209	119.753	-0.179	0.220
-399.194	189.292	0.031	0.046
-398.179	58.645	-0.187	0.183
-397.165	800.000	-0.034	-0.120
-396.150	-61.473	0.195	0.082
-395.136	-160.044	-0.202	0.011
-394.121	-114.796	0.183	-0.035
-393.106	332.311	-0.034	0.065
-392.092	-114.527	-0.091	0.017
-391.077	-176.455	-0.233	-0.006
-390.063	-87.165	0.125	0.038
-389.048	-200.000	0.007	-0.172
-388.033	-44.898	0.233	0.115
-387.019	-48.049	0.089	0.043
-386.004	-155.852	-0.371	-0.023
-384.990	-89.159	0.261	0.077
-383.975	-200.000	-0.025	-0.287
-382.960	-69.838	-0.309	-0.117
-381.946	52.263	0.082	-0.077
-380.931	-88.694	-0.166	0.049
-379.917	-150.929	0.061	0.005
-378.902	104.242	-0.134	-0.156
-377.888	195.899	-0.132	0.199
-376.873	800.000	0.051	0.152
-375.858	-200.000	-0.013	-0.392
-374.844	-141.609	-0.150	-0.015
-373.829	-116.461	0.149	-0.027
-372.815	84.753	-0.289	-0.314
-371.800	-136.964	0.030	-0.003
-370.785	-200.000	-0.212	-0.000
-369.771	-200.000	-0.005	-0.100
-368.756	135.624	0.085	0.109
-367.742	41.218	0.122	0.110
-366.727	175.377	-0.126	0.181
-365.712	800.000	-0.032	-0.107
-364.698	207.179	-0.061	0.095
-363.683	-119.781	0.259	0.044
-362.669	-200.000	-0.038	-0.229
-361.654	800.000	0.026	0.101
-360.639	46.071	0.265	0.244
-359.625	-64.693	0.170	-0.069
-358.610	-166.190	-0.140	0.006
-357.596	-132.355	0.524	0.067
-356.581	-200.000	-0.022	-0.290
-355.566	-97.112	-0.169	-0.044
-354.552	54.031	0.045	-0.042
-353.537	-12.203	-0.059	-0.038
-352.523	-51.800	-0.201	0.093
-351.508	68.292	0.090	-0.092
-350.493	14.287	-0.404	-0.313
-349.479	-73.088	-0.372	0.135
-348.464	-72.208	-0.191	-0.070
-347.450	21.178	0.260	0.209
-346.435	-38.921	-0.441	0.231
-345.420	38.475	0.111	0.098
-344.406	257.803	0.069	0.118
-343.391	117.560	0.103	0.126
-342.377	466.235	-0.090	-0.199
-341.362	-113.540	0.197	-0.038
-340.348	241.458	-0.178	-0.295
-339.333	-200.000	0.017	-0.168
-338.318	-200.000	-0.070	0.379
-337.304	-200.000	0.011	-0.099
-336.289	-77.878	0.183	0.063
-335.275	-27.039	-0.156	0.090
-334.260	-86.530	-0.332	-0.101
-333.245	-91.503	0.253	0.072
-332.231	67.973	-0.192	0.195
-331.216	210.084	-0.159	0.248
-330.202	-200.000	0.003	-0.130
-329.187	-38.981	-0.062	-0.032
-328.172	30.484	0.223	0.189
-327.158	-200.000	-0.058	0.371
-326.143	-129.347	-0.173	-0.024
-325.129	-200.000	0.002	-0.100
-324.114	-65.717	-0.213	-0.084
-323.099	-200.000	0.008	0.132
-322.085	6.236	0.184	-0.135
-321.070	-136.115	-0.185	0.021
-320.056	-59.360	0.170	-0.072
-319.041	37.410	-0.291	-0.256
-318.026	60.780	0.162	0.159
-317.012	27.762	-0.068	-0.057
-315.997	-120.337	0.328	0.055
-314.983	-39.076	0.120	0.063
-313.968	-200.000	-0.005	-0.106
-312.953	-35.262	0.046	-0.025
-311.939	-89.170	0.430	-0.126
-310.924	-126.370	0.087	0.013
-309.910	39.374	0.238	0.211
-308.895	-200.000	0.021	-0.203
-307.880	105.292	0.201	0.235
-306.866	800.000	0.046	-0.156
-305.851	468.259	-0.055	-0.122
-304.837	-41.418	-0.216	0.110
-303.822	180.694	0.213	-0.310
-302.807	-123.884	0.183	0.029
-301.793	-200.000	0.000	-0.031
-300.778	800.000	0.039	-0.127
-299.764	185.104	-0.153	0.224
-298.749	800.000	0.095	-0.272
-297.735	-23.186	-0.102	-0.061
-296.720	800.000	-0.114	-0.364
-295.705	29.727	0.183	-0.155
-294.691	206.536	-0.035	0.053
-293.676	570.621	0.013	-0.030
-292.662	257.955	0.061	-0.104
-291.647	-78.817	0.117	0.040
-290.632	466.751	0.125	-0.278
-289.618	216.017	0.261	0.411
-288.603	377.964	0.049	0.099
-287.589	23.731	-0.505	-0.412
-286.574	800.000	0.081	0.300
-285.559	185.533	0.127	0.186
-284.545	88.802	-0.213	-0.234
-283.530	-200.000	-0.006	-0.163
-282.516	20.920	-0.251	-0.201
-281.501	29.557	-0.079	0.066
-280.486	187.723	0.082	-0.122
-279.472	-140.286	0.157	-0.016
-278.457	371.491	-0.075	-0.150
-277.443	-200.000	0.027	0.214
-276.428	469.399	0.036	-0.079
-275.413	36.833	-0.127	-0.111
-274.399	-31.705	-0.421	0.233
-273.384	116.833	0.117	0.143
-272.370	-200.000	0.013	0.118
-271.355	-102.090	0.150	0.036
-270.340	-51.046	0.293	-0.136
-269.326	-200.000	0.011	-0.139
-268.311	437.305	0.091	0.196
-267.297	-200.000	-0.047	0.306
-266.282	-82.873	0.118	-0.038
-265.267	31.718	0.195	-0.166
-264.253	-200.000	-0.001	-0.268
-263.238	-73.821	-0.344	-0.124
-262.224	432.158	0.052	0.110
-261.209	-152.198	0.165	-0.012
-260.195	388.672	0.060	0.123
-259.180	-31.592	-0.123	-0.068
-258.165	-200.000	0.333	0.001
-257.151	-200.000	-0.245	-0.001
-256.136	-200.000	0.027	-0.267
-255.122	64.916	0.163	0.162
-254.107	130.236	0.159	0.202
-253.092	527.095	-0.088	-0.204
-252.078	15.559	0.130	-0.101
-251.063	9.502	-0.302	-0.226
-250.049	-3.474	0.158	0.109
-249.034	-39.764	-0.437	-0.226
-248.019	800.000	0.095	0.396
-247.005	-90.969	0.322	-0.091
-245.990	-133.973	-0.109	-0.013
-244.976	272.289	0.047	0.081
-243.961	-200.000	-0.001	-0.157
-242.946	-200.000	0.009	0.373
-241.932	-200.000	-0.043	0.221
-240.917	-125.258	-0.259	0.039
-239.903	-200.000	-0.018	0.222
-238.888	-132.203	-0.268	0.034
-237.873	258.442	-0.101	0.171
-236.859	601.217	0.132	-0.325
-235.844	-200.000	0.001	-0.427
-234.830	-89.312	0.224	-0.065
-233.815	-200.000	0.002	-0.221
-232.800	-80.674	-0.408	0.134
-231.786	60.512	-0.173	-0.169
-230.771	-200.000	0.009	0.212
-229.757	800.000	0.102	0.310
-228.742	-200.000	0.119	-0.001
-227.727	800.000	0.022	-0.074
-226.713	-112.626	-0.049	-0.010
-225.698	-90.598	0.131	-0.037
-224.684	116.628	0.152	-0.184
-223.669	-34.371	-0.150	0.081
-222.655	800.000	0.137	0.396
-221.640	-86.932	0.279	0.084
-220.625	-200.000	-0.015	0.260
-219.611	114.687	-0.113	0.136
-218.596	742.075	0.033	-0.089
-217.582	302.128	-0.052	0.094
-216.567	-14.505	0.076	-0.048
-215.552	73.196	0.071	0.074
-214.538	462.632	0.070	0.155
-213.523	-200.000	0.001	-0.169
-212.509	226.636	-0.122	0.196
-211.494	-200.000	0.042	-0.217
-210.479	310.270	0.078	0.144
-209.465	-200.000	-0.015	0.089
-208.450	-200.000	-0.010	0.054
-207.436	43.249	0.104	0.094
-206.421	-2.289	-0.319	-0.221
-205.406	-112.172	-0.089	0.018
-204.392	-57.419	-0.286	0.124
-203.377	800.000	-0.046	-0.133
-202.363	88.657	-0.068	0.074
-201.348	-200.000	0.004	0.036
-200.333	30.399	-0.200	0.168
-199.319	302.284	0.014	-0.026
-198.304	62.902	0.141	0.139
-197.290	134.228	-0.112	0.144
-196.275	-40.978	0.416	-0.212
-195.260	800.000	0.069	-0.207
-194.246	-112.137	0.257	-0.051
-193.231	763.911	-0.096	0.256
-192.217	255.778	-0.120	-0.203
-191.202	-29.380	0.379	-0.214
-190.187	-63.736	-0.244	-0.099
-189.173	23.179	-0.149	0.121
-188.158	-42.312	-0.145	-0.073
-187.144	242.997	-0.163	0.269
-186.129	-117.562	0.349	0.062
-185.114	29.918	-0.192	-0.161
-184.100	366.547	-0.178	-0.353
-183.085	800.000	0.016	-0.058
-182.071	-178.792	0.412	-0.009
-181.056	-51.788	0.201	-0.092
-180.042	-163.406	0.119	0.006
-179.027	-31.317	-0.147	0.081
-178.012	343.131	0.227	-0.438
-176.998	11.229	-0.163	-0.123
-175.983	428.552	-0.081	-0.173
-174.969	564.847	-0.037	-0.087
-173.954	-200.000	-0.006	-0.243
-172.939	128.528	-0.096	0.120
-171.925	-73.670	0.064	0.023
-170.910	27.003	-0.231	-0.191
-169.896	800.000	0.044	-0.167
-168.881	-200.000	0.030	0.137
-167.866	388.504	0.129	0.262
-166.852	-200.000	-0.032	0.308
-165.837	394.656	0.063	0.129
-164.823	-149.080	0.354	0.028
-163.808	-81.498	-0.135	0.044
-162.793	-200.000	0.008	-0.101
-161.779	-61.279	0.153	0.063
-160.764	-137.314	-0.487	0.054
-159.750	398.525	0.148	0.304
-158.735	19.439	0.400	0.317
-157.720	31.991	0.250	0.212
-156.706	-33.951	-0.292	-0.158
-155.691	45.399	0.113	0.102
-154.677	-107.886	-0.107	-0.023
-153.662	-100.242	-0.462	0.113
-152.647	-24.672	0.127	0.074
-151.633	36.159	-0.086	0.074
-150.618	-200.000	0.234	0.000
-149.604	-200.000	0.011	0.287
-148.589	-168.608	-0.267	-0.010
-147.574	-91.513	-0.225	0.063
-146.560	109.784	0.130	-0.154
-145.545	800.000	0.048	0.149
-144.531	-12.945	0.241	0.154
-143.516	-200.000	0.023	-0.114
-142.502	800.000	0.045	-0.189
-141.487	-200.000	-0.008	-0.256
-140.472	-18.317	-0.174	-0.107
-139.458	412.743	0.178	-0.373
-138.443	-200.000	-0.013	-0.103
-137.429	124.826	-0.116	0.144
-136.414	-128.815	0.079	0.011
-135.399	263.939	0.088	-0.150
-134.385	230.688	0.176	-0.284
-133.370	-32.997	-0.341	0.186
-132.356	-21.206	0.190	0.114
-131.341	115.267	0.237	0.285
-130.326	800.000	-0.055	0.165
-129.312	256.970	0.090	0.152
-128.297	-84.912	0.181	0.056
-127.283	-98.793	0.066	-0.017
-126.268	-30.176	0.115	-0.064
-125.253	-128.422	0.435	0.061
-124.239	364.331	0.101	0.200
-123.224	115.203	-0.380	-0.456
-122.210	48.613	0.181	-0.167
-121.195	-101.006	-0.360	0.087
-120.180	86.450	0.050	0.054
-119.166	800.000	-0.057	-0.189
-118.151	-146.228	0.146	0.013
-117.137	67.631	-0.267	0.268
-116.122	797.137	0.040	0.109
-115.107	-200.000	0.059	0.313
-114.093	213.250	-0.047	-0.073
-113.078	22.225	-0.301	0.242
-112.064	705.988	-0.087	-0.225
-111.049	575.630	-0.045	0.108
-110.034	-197.116	0.453	-0.003
-109.020	-18.140	-0.361	-0.222
-108.005	87.132	-0.294	0.320
-106.991	800.000	0.077	0.250
-105.976	-200.000	-0.060	-0.264
-104.962	-91.643	0.311	-0.087
-103.947	-200.000	-0.004	-0.072
-102.932	-64.859	0.186	-0.074
-101.918	15.095	-0.439	-0.338
-100.903	179.789	-0.273	-0.392
-99.889	43.351	0.090	-0.081
-98.874	98.813	-0.037	-0.042
-97.859	121.188	0.192	0.235
-96.845	602.989	-0.084	-0.205
-95.830	-87.300	0.232	0.069
-94.816	158.173	-0.227	-0.309
-93.801	-38.004	0.135	0.070
-92.786	-143.057	0.018	0.002
-91.772	-105.840	0.097	-0.022
-90.757	96.397	0.059	0.067
-89.743	-200.000	-0.015	0.297
-88.728	161.167	0.091	0.125
-87.713	800.000	-0.095	-0.306
-86.699	-200.000	0.353	-0.002
-85.684	-122.759	0.090	0.014
-84.670	-88.751	-0.172	0.050
-83.655	491.886	0.111	0.250
-82.640	339.096	0.053	-0.100
-81.626	1.641	-0.141	0.100
-80.611	81.795	-0.240	0.255
-79.597	-68.165	-0.157	0.060
-78.582	-200.000	-0.019	-0.166
-77.567	35.784	0.107	-0.092
-76.553	-28.121	-0.109	-0.062
-75.538	-31.687	-0.189	-0.104
-74.524	-200.000	-0.007	-0.085
-73.509	39.077	0.059	0.052
-72.494	74.241	0.148	-0.152
-71.480	476.218	0.238	-0.527
-70.465	-79.995	-0.193	0.064
-69.451	-200.000	-0.006	0.179
-68.436	-83.179	0.132	-0.042
-67.422	-200.000	0.025	0.156
-66.407	253.501	0.110	0.184
-65.392	-200.000	-0.012	0.168
-64.378	21.204	0.275	-0.219
-63.363	-200.000	0.010	-0.046
-62.349	-39.057	-0.180	0.093
-61.334	158.859	-0.892	-1.216
-60.319	65.634	0.612	0.608
-59.305	800.000	-0.177	-0.721
-58.290	240.970	0.781	1.277
-57.276	800.000	0.437	1.363
-56.261	-200.000	108.974	593.540
-55.246	445.054	1487.843	3202.534
-54.232	145.708	2676.785	3516.309
-53.217	99.500	2286.008	2592.604
-52.203	38.479	1896.551	1657.171
-51.188	32.770	1685.738	1429.782
-50.173	30.095	1642.869	1373.569
-49.159	49.137	1697.516	1563.265
-48.144	49.616	1711.943	1580.100
-47.130	32.269	1669.841	1412.307
-46.115	29.571	1654.973	1379.557
-45.100	29.415	1650.079	1374.262
-44.086	29.360	1647.411	1371.572
-43.071	29.303	1644.948	1369.049
-42.057	29.280	1642.675	1366.931
-41.042	29.262	1640.498	1364.932
-40.027	29.431	1637.933	1363.995
-39.013	29.382	1636.313	1362.225
-37.998	29.327	1635.232	1360.864
-36.984	29.403	1632.982	1359.498
-35.969	29.434	1632.287	1359.097
-34.954	29.562	1630.468	1358.467
-33.940	29.522	1628.980	1356.884
-32.925	29.546	1627.202	1355.520
-31.911	29.534	1625.487	1353.955
-30.896	29.511	1623.821	1352.345
-29.881	29.539	1621.887	1350.886
-28.867	29.501	1620.439	1349.345
-27.852	29.427	1619.980	1348.373
-26.838	29.482	1617.668	1346.791
-25.823	29.566	1616.378	1346.278
-24.809	29.446	1615.158	1344.332
-23.794	29.521	1613.854	1343.740
-22.779	29.607	1611.853	1342.647
-21.765	29.495	1610.366	1340.545
-20.750	29.492	1608.618	1339.010
-19.736	29.522	1607.443	1338.199
-18.721	29.531	1605.729	1336.786
-17.706	29.533	1604.672	1335.864
-16.692	29.517	1603.262	1334.523
-15.677	29.538	1601.670	1333.294
-14.663	29.532	1600.228	1332.002
-13.648	29.621	1598.585	1331.217
-12.633	29.420	1597.572	1328.877
-11.619	29.467	1595.481	1327.419
-10.604	29.529	1594.098	1326.665
-9.590	29.550	1593.029	1325.876
-8.575	29.531	1591.957	1324.794
-7.560	29.556	1590.852	1323.999
-6.546	29.533	1589.374	1322.552
-5.531	29.572	1588.029	1321.661
-4.517	29.491	1587.349	1320.461
-3.502	29.527	1586.197	1319.710
-2.487	29.623	1584.237	1318.713
-1.473	29.299	1572.652	1306.721
-0.458	26.491	1553.576	1271.126
0.556	21.281	1554.259	1240.169
1.571	18.956	1578.533	1242.645
2.586	18.711	1590.969	1250.537
3.600	17.219	1537.792	1198.119
4.615	9.555	1428.980	1062.845
5.629	1.793	1364.225	965.542
6.644	0.207	1356.094	949.703
7.659	0.171	1355.291	948.830
8.673	0.040	1354.193	947.155
9.688	0.003	1352.125	945.391
10.702	-0.075	1349.208	942.781
11.717	3.595	1355.125	969.923
12.731	12.049	1368.207	1032.651
13.746	17.238	1374.955	1070.422
14.761	17.238	1373.888	1069.496
15.775	16.251	1370.765	1060.774
16.790	15.181	1368.474	1052.191
17.804	14.399	1366.269	1045.493
18.819	14.119	1364.548	1042.334
19.834	13.753	1363.666	1039.272
20.848	13.557	1362.150	1036.799
21.863	13.323	1360.838	1034.242
22.877	13.230	1359.473	1032.536
23.892	13.205	1358.818	1031.793
24.907	13.105	1357.987	1030.446
25.921	13.122	1357.012	1029.717
26.936	13.156	1356.167	1029.198
27.950	13.205	1355.389	1028.823
28.965	13.154	1354.918	1028.056
29.980	13.318	1353.519	1027.925
30.994	13.394	1352.550	1027.569
32.009	13.398	1351.418	1026.639
33.023	13.375	1350.629	1025.808
34.038	13.371	1349.429	1024.785
35.053	13.292	1348.408	1023.426
36.067	13.295	1347.486	1022.655
37.082	13.301	1346.510	1021.861
38.096	13.368	1345.361	1021.312
39.111	13.315	1344.802	1020.471
40.126	13.317	1343.922	1019.725
41.140	13.110	1343.242	1017.845
42.155	13.129	1342.276	1017.139
43.169	13.092	1342.352	1016.879
44.184	13.243	1342.070	1017.503
45.199	13.259	1341.306	1016.935
46.213	13.255	1340.672	1016.336
47.228	13.223	1340.178	1015.678
48.242	13.257	1338.803	1014.753
49.257	13.331	1337.220	1013.915
50.271	13.213	1336.565	1012.607
51.286	13.292	1334.740	1011.620
52.301	13.307	1333.508	1010.689
53.315	13.199	1332.508	1009.178
54.330	13.265	1331.240	1008.537
55.344	13.251	1329.923	1007.364
56.359	13.260	1329.014	1006.636
57.374	13.082	1328.545	1005.112
58.388	13.112	1327.373	1004.316
59.403	13.095	1327.226	1004.012
60.417	13.118	1326.379	1003.425
61.432	13.103	1325.901	1002.886
62.447	13.076	1324.578	1001.630
63.461	12.995	1323.147	999.968
64.476	13.034	1322.443	999.585
65.490	13.065	1320.976	998.573
66.505	13.166	1319.340	997.858
67.520	13.209	1318.171	997.148
68.534	13.071	1317.317	995.581
69.549	13.229	1316.002	995.450
70.563	13.156	1315.252	994.356
71.578	12.979	1314.543	992.667
72.593	12.983	1313.541	991.846
73.607	12.884	1312.924	990.696
74.622	13.003	1311.948	990.588
75.636	13.086	1310.856	990.173
76.651	13.116	1310.169	989.748
77.666	12.992	1310.081	988.851
78.680	13.070	1309.455	988.756
79.695	13.036	1308.572	987.797
80.709	13.115	1307.615	987.459
81.724	13.200	1306.697	987.188
82.739	13.170	1305.857	986.286
83.753	13.185	1304.969	985.622
84.768	13.224	1304.087	985.100
85.782	13.311	1302.932	984.655
86.797	13.325	1301.213	983.352
87.812	13.217	1299.834	981.581
88.826	13.089	1299.564	980.530
89.841	13.220	1298.188	980.183
90.855	13.344	1297.326	980.182
91.870	13.292	1296.073	978.839
92.884	13.353	1296.002	979.063
93.899	13.391	1294.819	978.303
94.914	13.431	1293.783	977.672
95.928	13.360	1293.256	976.772
96.943	13.437	1291.962	976.162
97.957	13.410	1290.933	975.137
98.972	13.336	1290.186	974.048
99.987	13.432	1288.711	973.412
101.001	13.202	1288.209	971.598
102.016	13.309	1286.904	971.156
103.030	13.356	1286.429	970.987
104.045	13.356	1285.229	969.993
105.060	13.195	1284.504	968.419
106.074	13.284	1282.336	967.219
107.089	13.267	1280.996	966.023
108.103	13.134	1280.138	964.513
109.118	13.148	1278.917	963.593
110.133	13.011	1278.055	962.058
111.147	13.173	1276.116	961.455
112.162	13.131	1274.805	960.139
113.176	13.098	1274.228	959.429
114.191	13.038	1273.499	958.448
115.206	13.086	1272.199	957.661
116.220	13.114	1270.824	956.705
117.235	13.240	1269.316	956.212
118.249	13.209	1268.954	955.676
119.264	13.142	1267.455	954.072
120.279	13.103	1266.367	952.947
121.293	13.181	1265.167	952.410
122.308	13.183	1263.742	951.264
123.322	13.150	1262.729	950.227
124.337	13.073	1262.322	949.393
125.352	13.077	1261.187	948.481
126.366	13.092	1260.025	947.609
127.381	13.124	1258.844	946.817
128.395	13.137	1257.884	946.086
129.410	13.249	1256.480	945.590
130.424	13.194	1255.913	944.763
131.439	13.217	1255.428	944.447
132.454	13.205	1254.219	943.387
133.468	13.157	1253.375	942.393
134.483	13.188	1252.495	941.826
135.497	13.252	1251.408	941.287
136.512	13.157	1250.309	939.836
137.527	13.300	1248.833	939.458
138.541	13.281	1247.244	938.072
139.556	13.210	1245.900	936.578
140.570	13.295	1245.157	936.417
141.585	13.364	1243.779	935.688
142.600	13.342	1242.282	934.352
143.614	13.420	1241.664	934.248
144.629	13.444	1240.873	933.702
145.643	13.384	1239.680	932.384
146.658	13.351	1238.119	930.943
147.673	13.323	1236.956	929.831
148.687	13.297	1235.878	928.791
149.702	13.269	1234.148	927.253
150.716	13.308	1233.261	926.719
151.731	13.403	1231.876	926.129
152.746	13.306	1230.928	924.792
153.760	13.335	1230.041	924.209
154.775	13.293	1229.088	923.177
155.789	13.378	1228.030	922.775
156.804	13.450	1226.407	921.873
157.819	13.456	1225.933	921.469
158.833	13.541	1224.793	921.001
159.848	13.625	1223.814	920.652
160.862	13.607	1222.735	919.659
161.877	13.505	1221.649	918.197
162.892	13.491	1220.748	917.357
163.906	13.444	1219.949	916.415
164.921	13.330	1219.547	915.404
165.935	13.470	1217.918	914.874
166.950	13.562	1217.245	914.796
167.964	13.485	1216.923	914.045
168.979	13.509	1216.409	913.710
169.994	13.659	1215.074	913.457
171.008	13.641	1214.652	912.957
172.023	13.546	1213.854	911.751
173.037	13.580	1212.886	911.135
174.052	13.639	1211.991	910.705
175.067	13.517	1211.520	909.602
176.081	13.499	1210.375	908.563
177.096	13.589	1209.146	908.053
178.110	13.578	1208.289	907.270
179.125	13.528	1206.914	905.883
180.140	13.589	1205.753	905.264
181.154	13.672	1204.408	904.626
182.169	13.740	1202.749	903.670
183.183	13.806	1201.915	903.323
184.198	13.758	1200.677	902.053
185.213	13.819	1199.620	901.508
186.227	13.768	1198.943	900.643
187.242	13.807	1197.551	899.728
188.256	13.899	1196.718	899.522
189.271	13.836	1195.911	898.497
190.286	13.811	1194.448	897.183
191.300	13.615	1194.118	895.795
192.315	13.584	1193.616	895.171
193.329	13.599	1192.752	894.528
194.344	13.682	1191.919	894.270
195.359	13.623	1191.552	893.597
196.373	13.786	1190.862	893.877
197.388	13.942	1190.426	894.311
198.402	13.871	1190.288	893.745
199.417	13.881	1189.268	892.958
200.432	14.030	1188.105	892.803
201.446	13.986	1187.484	892.022
202.461	14.059	1186.592	891.667
203.475	14.077	1185.486	890.850
204.490	14.050	1184.132	889.609
205.504	14.076	1182.541	888.477
206.519	13.926	1181.351	886.700
207.534	14.009	1180.660	886.548
208.548	14.032	1179.480	885.706
209.563	14.024	1178.717	885.012
210.577	14.001	1178.229	884.445
211.592	14.102	1177.171	884.112
212.607	14.220	1175.928	883.725
213.621	14.118	1175.625	882.879
214.636	14.193	1174.473	882.330
215.650	14.185	1173.624	881.572
216.665	14.195	1172.496	880.702
217.680	14.276	1171.560	880.349
218.694	14.363	1170.485	879.921
219.709	14.319	1170.326	879.494
220.723	14.374	1169.010	878.713
221.738	14.339	1168.667	878.193
222.753	14.283	1168.056	877.365
223.767	14.275	1167.394	876.748
224.782	14.379	1166.544	876.580
225.796	14.437	1166.262	876.593
226.811	14.369	1165.767	875.785
227.826	14.301	1165.202	874.927
228.840	14.305	1163.824	873.835
229.855	14.350	1162.993	873.371
230.869	14.318	1162.814	872.990
231.884	14.272	1161.822	871.929
232.899	14.287	1160.614	871.021
233.913	14.326	1160.018	870.705
234.928	14.310	1159.401	870.077
235.942	14.283	1158.616	869.272
236.957	14.346	1157.703	868.838
237.972	14.378	1157.006	868.406
238.986	14.297	1156.487	867.518
240.001	14.356	1155.861	867.275
241.015	14.369	1154.901	866.550
242.030	14.407	1154.070	866.048
243.045	14.491	1153.196	865.748
244.059	14.554	1151.904	865.030
245.074	14.404	1151.835	864.123
246.088	14.454	1151.380	863.967
247.103	14.522	1150.194	863.353
248.117	14.567	1149.556	863.025
249.132	14.683	1148.881	863.042
250.147	14.723	1148.257	862.704
251.161	14.904	1146.947	862.579
252.176	14.824	1146.456	861.724
253.190	14.860	1145.912	861.420
254.205	14.904	1145.721	861.430
255.220	14.931	1144.455	860.540
256.234	14.944	1144.088	860.256
257.249	14.905	1143.596	859.605
258.263	14.869	1143.224	859.065
259.278	14.954	1142.397	858.808
260.293	14.931	1141.601	858.013
261.307	15.013	1141.255	858.096
262.322	14.997	1140.756	857.565
263.336	15.054	1139.544	856.870
264.351	15.116	1138.963	856.672
265.366	15.022	1138.490	855.761
266.380	15.093	1137.618	855.396
267.395	15.063	1136.917	854.637
268.409	14.978	1136.197	853.586
269.424	14.980	1135.724	853.165
270.439	15.012	1135.233	852.886
271.453	15.043	1134.233	852.214
272.468	15.017	1133.406	851.389
273.482	14.950	1133.042	850.697
274.497	15.000	1132.502	850.470
275.512	15.072	1131.452	849.973
276.526	14.965	1131.049	849.050
277.541	15.044	1130.088	848.655
278.555	15.124	1129.405	848.474
279.570	15.160	1128.875	848.181
280.585	15.220	1127.880	847.665
281.599	15.235	1126.874	846.909
282.614	15.225	1126.027	846.145
283.628	15.243	1124.860	845.285
284.643	15.235	1123.855	844.414
285.657	15.180	1123.138	843.524
286.672	15.212	1122.294	842.977
287.687	15.373	1121.316	842.977
288.701	15.321	1120.774	842.233
289.716	15.223	1120.228	841.257
290.730	15.410	1119.056	841.242
291.745	15.351	1118.425	840.396
292.760	15.261	1118.026	839.572
293.774	15.333	1117.540	839.491
294.789	15.281	1117.231	838.923
295.803	15.534	1115.831	839.061
296.818	15.424	1115.357	838.084
297.833	15.363	1114.508	837.065
298.847	15.363	1113.703	836.390
299.862	15.338	1113.178	835.795
300.876	15.397	1112.256	835.322
301.891	15.505	1111.634	835.318
302.906	15.534	1110.711	834.697
303.920	15.531	1110.675	834.580
304.935	15.506	1110.139	833.982
305.949	15.615	1109.367	833.868
306.964	15.584	1108.467	832.961
307.979	15.543	1107.772	832.165
308.993	15.673	1106.877	832.060
310.008	15.809	1105.794	831.844
311.022	15.679	1105.454	830.876
312.037	15.864	1104.260	830.818
313.052	15.577	1103.474	828.734
314.066	15.624	1102.487	828.154
315.081	15.624	1101.732	827.512
316.095	15.601	1101.167	826.903
317.110	15.611	1100.624	826.467
318.125	15.562	1099.652	825.425
319.139	15.655	1099.209	825.476
320.154	15.618	1098.560	824.736
321.168	15.699	1097.567	824.315
322.183	15.652	1097.018	823.598
323.197	15.716	1096.756	823.641
324.212	15.764	1095.990	823.229
325.227	15.773	1095.221	822.622
326.241	15.827	1094.689	822.412
327.256	15.879	1093.794	821.923
328.270	15.771	1092.912	820.659
329.285	15.638	1092.582	819.690
330.300	15.755	1091.415	819.314
331.314	15.889	1090.044	818.865
332.329	15.803	1089.304	817.818
333.343	15.870	1088.342	817.348
334.358	15.953	1087.582	817.107
335.373	15.899	1086.915	816.275
336.387	15.897	1086.634	815.979
337.402	16.031	1085.583	815.766
338.416	15.980	1084.866	814.910
339.431	15.947	1084.321	814.266
340.446	15.972	1083.645	813.809
341.460	16.152	1083.038	814.152
342.475	16.162	1082.141	813.450
343.489	16.170	1081.170	812.689
344.504	16.321	1079.786	812.304
345.519	16.245	1079.475	811.630
346.533	16.278	1078.664	811.107
347.548	16.362	1077.462	810.536
348.562	16.345	1076.996	810.032
349.577	16.147	1076.737	808.815
350.592	16.152	1075.510	807.846
351.606	16.161	1074.909	807.367
352.621	16.227	1074.224	807.097
353.635	16.033	1073.985	805.918
354.650	16.176	1072.926	805.736
355.665	16.315	1072.376	805.915
356.679	16.245	1072.042	805.258
357.694	16.219	1071.388	804.570
358.708	16.260	1070.704	804.183
359.723	16.311	1069.824	803.690
360.738	16.192	1069.236	802.613
361.752	16.284	1068.534	802.454
362.767	16.347	1068.227	802.449
363.781	16.348	1067.608	801.921
364.796	16.398	1066.923	801.573
365.810	16.350	1066.414	800.891
366.825	16.419	1065.931	800.783
367.840	16.421	1065.425	800.341
368.854	16.454	1065.202	800.259
369.869	16.648	1063.787	800.042
370.883	16.492	1062.902	798.568
371.898	16.588	1062.391	798.569
372.913	16.495	1061.765	797.589
373.927	16.745	1060.890	798.039
374.942	16.646	1060.469	797.185
375.956	16.575	1060.173	796.556
376.971	16.673	1059.743	796.628
377.986	16.709	1059.221	796.333
379.000	16.710	1058.518	795.737
380.015	16.713	1058.262	795.492
381.029	16.918	1057.095	795.503
382.044	16.799	1056.485	794.414
383.059	16.813	1056.279	794.256
384.073	16.832	1054.983	793.302
385.088	16.783	1054.160	792.381
386.102	16.896	1053.000	791.967
387.117	16.800	1052.236	790.875
388.132	16.878	1051.131	790.337
389.146	16.776	1050.667	789.444
390.161	16.793	1049.983	788.938
391.175	16.754	1049.630	788.425
392.190	16.825	1048.988	788.204
393.205	16.810	1048.005	787.323
394.219	16.981	1047.464	787.639
395.234	16.936	1046.257	786.455
396.248	16.972	1045.060	785.653
397.263	16.837	1044.243	784.346
398.278	16.849	1043.817	784.012
399.292	16.729	1043.396	783.072
400.307	16.986	1042.013	783.152
401.321	16.847	1041.840	782.308
402.336	16.852	1040.827	781.501
403.350	16.911	1040.489	781.452
404.365	16.863	1039.908	780.725
405.380	17.008	1038.815	780.503
406.394	17.051	1038.244	780.200
407.409	17.091	1037.512	779.767
408.423	17.081	1037.037	779.296
409.438	17.130	1035.930	778.618
410.453	17.210	1035.344	778.475
411.467	17.055	1034.765	777.260
412.482	17.364	1033.860	777.927
413.496	17.190	1033.611	776.873
414.511	17.291	1033.064	776.858
415.526	17.176	1032.718	776.003
416.540	17.343	1031.991	776.147
417.555	17.422	1031.218	775.861
418.569	17.295	1031.201	775.199
419.584	17.410	1030.388	775.045
420.599	17.326	1030.160	774.421
421.613	103.368	1322.151	1468.433
422.628	94.583	1364.653	1468.535
