DTS Sentinel unit serial number:	SN413079Multiplexer serial number:	ORYXHardware model number:	OX4-SRSoftware version number:	ORYX F/W v4.00 Oryx Data Collector v3.7.2.0data status	okinstallation	princeton_trtdifferential loss correction	single-endedforward channel	channel 2reverse channel	N/Adate	2019/09/11time	19:49:11forward acquisition time	60.00reverse acquisition time	0.00gamma	496.2192k internal	0.2310k external	0.2310temperature offset calibration	1.0043default loss term (dB/km)	0.3790temperature slope calibration	1.0000multiplexer offset coefficient	1.0000multiplexer slope coefficient	1.0000fibre end	0.00T internal ref (°C)	39.36T ext. ref 1 (°C)	1.35T ext. ref 2 (°C)	32.18length (m)	temperature (°C)	Stokes	anti-Stokes-747.200	9.647	-0.136	-0.104
-746.185	-51.561	0.353	-0.167
-745.171	171.065	0.063	0.091
-744.156	73.146	-0.294	-0.312
-743.142	319.689	0.102	0.197
-742.127	166.153	-0.289	0.416
-741.112	165.801	-0.117	-0.168
-740.098	-112.573	-0.077	-0.016
-739.083	-200.000	0.002	-0.316
-738.069	21.950	-0.096	0.079
-737.054	-191.694	0.510	-0.005
-736.039	-200.000	-0.060	-0.282
-735.025	800.000	-0.006	0.024
-734.010	262.325	0.204	0.360
-732.996	-12.457	-0.298	-0.198
-731.981	370.699	0.112	0.230
-730.966	255.071	0.031	-0.054
-729.952	599.031	0.061	0.153
-728.937	-200.000	0.037	-0.416
-727.923	800.000	-0.122	-0.374
-726.908	-200.000	0.014	0.084
-725.894	10.134	-0.099	-0.076
-724.879	66.785	0.138	-0.143
-723.864	77.584	-0.071	-0.077
-722.850	-76.231	-0.304	0.109
-721.835	-92.219	-0.255	-0.073
-720.821	75.888	-0.206	0.221
-719.806	438.415	-0.043	-0.094
-718.791	220.271	-0.159	-0.259
-717.777	101.305	-0.200	-0.236
-716.762	0.974	-0.153	0.111
-715.748	345.317	0.165	0.329
-714.733	69.761	0.350	-0.366
-713.718	-115.160	0.302	-0.058
-712.704	244.257	-0.107	0.183
-711.689	-200.000	-0.053	-0.386
-710.675	-200.000	0.017	-0.182
-709.660	-90.154	-0.249	-0.074
-708.645	18.874	-0.215	-0.174
-707.631	-19.724	-0.336	0.210
-706.616	-70.196	0.083	0.032
-705.602	-200.000	-0.007	-0.075
-704.587	170.873	-0.187	-0.272
-703.572	-120.837	0.222	0.038
-702.558	-124.645	-0.274	0.043
-701.543	206.208	-0.072	-0.114
-700.529	-100.787	0.345	-0.086
-699.514	-33.688	0.145	0.081
-698.499	129.665	-0.090	-0.117
-697.485	539.325	0.092	0.221
-696.470	-64.035	-0.165	-0.068
-695.456	263.561	-0.113	-0.199
-694.441	6.373	-0.223	-0.168
-693.426	-125.001	0.080	0.013
-692.412	-56.554	-0.185	0.083
-691.397	273.371	0.079	-0.142
-690.383	-78.911	-0.323	-0.111
-689.368	-200.000	0.105	-0.807
-688.354	-41.414	0.165	-0.086
-687.339	800.000	-0.045	-0.150
-686.324	504.791	-0.075	0.177
-685.310	345.878	-0.154	-0.307
-684.295	323.640	-0.114	-0.220
-683.281	-40.501	-0.229	-0.120
-682.266	55.271	-0.062	-0.061
-681.251	-200.000	-0.006	-0.073
-680.237	11.038	-0.149	-0.116
-679.222	-200.000	-0.026	-0.252
-678.208	173.371	0.096	0.141
-677.193	-157.272	0.307	-0.019
-676.178	-109.932	-0.397	-0.084
-675.164	-200.000	-0.036	-0.259
-674.149	238.717	0.163	-0.274
-673.135	800.000	-0.086	-0.290
-672.120	-200.000	0.032	0.217
-671.105	-94.580	0.269	-0.074
-670.091	-200.000	-0.002	-0.235
-669.076	667.868	0.221	-0.579
-668.062	-96.748	-0.156	0.041
-667.047	188.078	-0.126	-0.191
-666.032	-52.695	-0.238	0.111
-665.018	-15.458	-0.234	-0.151
-664.003	-59.358	0.377	0.164
-662.989	339.799	0.168	0.332
-661.974	800.000	-0.026	-0.076
-660.959	53.559	0.217	-0.211
-659.945	-119.442	-0.282	-0.050
-658.930	106.766	0.131	0.157
-657.916	800.000	-0.006	0.019
-656.901	-200.000	-0.433	0.000
-655.886	306.740	-0.119	0.225
-654.872	800.000	0.089	0.323
-653.857	65.344	0.186	-0.191
-652.843	154.583	-0.128	-0.178
-651.828	-109.524	0.159	0.034
-650.814	-64.347	0.133	-0.055
-649.799	144.143	-0.244	0.329
-648.784	-78.488	-0.399	-0.138
-647.770	175.724	-0.145	0.213
-646.755	489.551	0.146	-0.337
-645.741	36.823	0.122	-0.109
-644.726	13.171	0.321	-0.252
-643.711	12.605	0.268	-0.209
-642.697	-29.230	0.215	-0.125
-641.682	-200.000	0.050	-0.348
-640.668	-120.670	-0.082	0.014
-639.653	-200.000	0.046	-0.238
-638.638	-200.000	0.009	0.177
-637.624	-200.000	0.023	0.235
-636.609	-200.000	0.015	-0.075
-635.595	-59.816	-0.265	0.115
-634.580	222.936	0.138	-0.226
-633.565	-110.466	-0.160	0.034
-632.551	-200.000	0.023	-0.113
-631.536	293.246	0.079	-0.147
-630.522	218.525	-0.233	-0.376
-629.507	698.693	-0.156	0.416
-628.492	-200.000	0.418	0.001
-627.478	-52.280	-0.260	-0.122
-626.463	800.000	0.029	0.122
-625.449	-176.965	-0.079	-0.002
-624.434	-146.055	-0.440	-0.039
-623.419	48.366	-0.283	-0.268
-622.405	389.177	0.183	0.384
-621.390	-200.000	-0.042	-0.542
-620.376	394.169	-0.130	-0.274
-619.361	15.726	-0.136	-0.108
-618.346	-132.926	0.305	0.039
-617.332	-29.512	-0.133	-0.077
-616.317	130.761	0.250	0.324
-615.303	310.977	0.177	-0.335
-614.288	-37.133	-0.100	-0.054
-613.273	6.843	-0.424	0.319
-612.259	288.366	-0.134	0.245
-611.244	-189.784	0.137	-0.002
-610.230	-200.000	0.054	0.258
-609.215	-200.000	-0.145	0.000
-608.201	81.947	-0.091	0.100
-607.186	212.938	-0.072	0.114
-606.171	-105.543	-0.135	0.031
-605.157	-76.597	-0.328	0.116
-604.142	-200.000	-0.012	0.216
-603.128	-200.000	0.028	-0.294
-602.113	-55.433	0.255	-0.115
-601.098	-161.500	-0.050	-0.003
-600.084	-43.077	-0.175	-0.090
-599.069	49.584	-0.331	-0.314
-598.055	-0.442	-0.060	0.043
-597.040	-75.689	0.276	0.099
-596.025	-121.390	0.082	0.014
-595.011	-200.000	0.009	0.148
-593.996	94.193	0.062	0.070
-592.982	507.130	-0.132	-0.310
-591.967	-200.000	0.053	-0.287
-590.952	124.625	0.217	0.276
-589.938	66.494	0.056	-0.057
-588.923	800.000	-0.071	-0.220
-587.909	199.483	0.153	-0.238
-586.894	-136.952	-0.044	0.005
-585.879	7.163	-0.194	-0.146
-584.865	17.431	0.168	-0.134
-583.850	-106.673	-0.136	0.031
-582.836	1.396	-0.413	0.300
-581.821	59.458	0.179	0.178
-580.806	-173.093	0.183	0.006
-579.792	189.597	0.052	0.079
-578.777	31.132	0.048	-0.041
-577.763	-200.000	0.036	-0.294
-576.748	-41.528	0.162	-0.084
-575.733	170.883	-0.237	0.343
-574.719	-24.815	0.255	0.153
-573.704	800.000	0.098	0.328
-572.690	800.000	0.024	0.105
-571.675	-200.000	0.012	-0.161
-570.661	40.779	0.190	0.173
-569.646	280.800	-0.218	-0.394
-568.631	-5.556	0.077	-0.053
-567.617	-200.000	0.022	-0.276
-566.602	-200.000	0.012	0.471
-565.588	-200.000	0.029	-0.401
-564.573	-196.307	0.115	0.001
-563.558	177.741	0.118	0.174
-562.544	131.118	-0.131	0.170
-561.529	63.203	-0.304	-0.307
-560.515	461.006	0.095	-0.213
-559.500	-91.920	-0.173	0.049
-558.485	37.475	-0.090	-0.081
-557.471	109.493	-0.155	0.187
-556.456	16.124	-0.180	0.143
-555.442	800.000	0.089	-0.319
-554.427	800.000	0.063	-0.222
-553.412	6.299	-0.110	-0.082
-552.398	149.832	-0.189	-0.258
-551.383	428.091	-0.138	-0.301
-550.369	-118.657	0.122	0.022
-549.354	-200.000	-0.005	0.109
-548.339	327.769	-0.176	-0.340
-547.325	29.020	0.138	-0.118
-546.310	-200.000	-0.006	-0.167
-545.296	451.875	-0.103	0.228
-544.281	29.524	0.073	0.063
-543.266	-138.763	0.146	0.016
-542.252	-156.149	0.261	-0.017
-541.237	17.984	0.206	-0.166
-540.223	800.000	0.038	0.112
-539.208	-156.427	0.171	0.011
-538.193	800.000	0.053	-0.161
-537.179	363.239	-0.101	-0.205
-536.164	98.331	0.161	-0.187
-535.150	-76.529	-0.314	-0.111
-534.135	-200.000	0.055	0.310
-533.121	-69.013	-0.352	-0.137
-532.106	374.868	-0.058	0.118
-531.091	116.672	0.160	0.197
-530.077	-200.000	0.089	-0.439
-529.062	405.729	0.040	0.085
-528.048	-42.593	-0.238	-0.122
-527.033	58.195	-0.073	-0.072
-526.018	-200.000	-0.018	-0.086
-525.004	-12.321	0.103	-0.068
-523.989	96.595	-0.136	0.157
-522.975	3.826	0.148	0.109
-521.960	14.833	-0.205	0.161
-520.945	800.000	-0.031	0.106
-519.931	-117.657	0.112	0.020
-518.916	210.922	0.116	0.184
-517.902	-1.891	-0.294	-0.208
-516.887	-158.688	-0.232	0.013
-515.872	87.192	0.303	-0.338
-514.858	402.947	-0.043	0.091
-513.843	-200.000	-0.030	0.179
-512.829	156.688	0.084	0.117
-511.814	-200.000	-0.013	-0.454
-510.799	-132.141	-0.080	0.010
-509.785	-81.375	-0.113	0.038
-508.770	15.446	0.177	-0.140
-507.756	-83.202	0.134	0.043
-506.741	-13.057	0.205	-0.134
-505.726	56.914	-0.073	0.072
-504.712	280.202	-0.209	0.375
-503.697	-97.686	-0.492	0.128
-502.683	67.962	-0.094	-0.097
-501.668	-200.000	-0.031	-0.552
-500.653	-133.882	0.146	-0.018
-499.639	79.841	0.124	0.134
-498.624	471.003	-0.087	-0.196
-497.610	-29.244	0.137	0.079
-496.595	-60.003	-0.373	-0.160
-495.581	-91.727	0.183	0.052
-494.566	-200.000	0.036	0.177
-493.551	-79.952	-0.131	-0.044
-492.537	-76.737	-0.313	-0.110
-491.522	-41.733	-0.060	-0.031
-490.508	61.646	-0.211	0.211
-489.493	800.000	-0.022	0.069
-488.478	-107.452	0.434	-0.096
-487.464	-79.574	-0.139	0.047
-486.449	-121.153	-0.462	-0.078
-485.435	-22.323	-0.092	0.056
-484.420	60.264	-0.156	0.155
-483.405	-126.388	0.047	-0.007
-482.391	-122.926	-0.167	-0.027
-481.376	198.499	-0.202	0.310
-480.362	-65.088	0.467	0.189
-479.347	-200.000	-0.001	-0.303
-478.332	-69.241	-0.186	-0.072
-477.318	110.801	0.255	-0.308
-476.303	-149.618	0.121	-0.010
-475.289	17.600	0.262	-0.209
-474.274	-155.449	-0.309	0.020
-473.259	-121.230	0.189	-0.032
-472.245	-30.166	0.040	-0.023
-471.230	-200.000	-0.029	-0.350
-470.216	472.253	-0.078	-0.176
-469.201	-160.985	0.425	0.022
-468.186	-132.349	0.089	-0.012
-467.172	-200.000	0.038	-0.217
-466.157	-10.083	0.220	-0.147
-465.143	18.919	0.251	-0.202
-464.128	-200.000	0.001	0.181
-463.113	-200.000	-0.006	-0.429
-462.099	190.323	0.036	0.055
-461.084	800.000	0.048	0.179
-460.070	269.805	-0.127	-0.224
-459.055	-200.000	-0.010	-0.250
-458.040	649.702	-0.056	0.143
-457.026	306.441	0.210	0.393
-456.011	54.315	-0.101	-0.097
-454.997	-51.922	0.202	0.095
-453.982	-200.000	0.009	-0.058
-452.968	216.341	-0.121	0.193
-451.953	-119.463	0.510	-0.089
-450.938	192.883	-0.077	0.117
-449.924	41.214	-0.240	0.218
-448.909	-79.181	-0.149	0.051
-447.895	40.045	0.224	-0.202
-446.880	-97.157	0.186	-0.049
-445.865	5.955	-0.043	-0.032
-444.851	9.311	0.235	0.179
-443.836	-170.439	0.087	-0.003
-442.822	-183.638	0.279	0.005
-441.807	-89.154	0.102	0.030
-440.792	-66.529	-0.195	0.078
-439.778	-200.000	0.049	0.221
-438.763	16.055	0.117	0.092
-437.749	-193.558	-0.132	-0.001
-436.734	-200.000	-0.016	0.159
-435.719	-189.814	0.095	0.001
-434.705	121.526	0.088	-0.110
-433.690	-43.445	0.255	-0.129
-432.676	800.000	0.042	-0.117
-431.661	-47.902	-0.137	0.066
-430.646	486.194	-0.088	0.200
-429.632	156.627	0.069	-0.096
-428.617	800.000	0.096	0.309
-427.603	19.710	-0.191	-0.154
-426.588	800.000	-0.066	-0.238
-425.573	773.873	0.140	-0.382
-424.559	187.099	0.136	0.203
-423.544	-122.800	-0.170	-0.028
-422.530	61.148	-0.199	-0.198
-421.515	56.092	-0.047	-0.046
-420.500	800.000	-0.068	-0.278
-419.486	800.000	0.114	-0.358
-418.471	-200.000	-0.033	0.273
-417.457	-200.000	-0.008	0.527
-416.442	281.432	-0.204	0.366
-415.428	-52.782	0.248	-0.115
-414.413	85.213	-0.112	0.123
-413.398	800.000	0.036	0.129
-412.384	-163.563	0.477	-0.023
-411.369	-82.640	0.617	-0.200
-410.355	-152.551	0.189	0.014
-409.340	-200.000	-0.057	0.305
-408.325	390.341	-0.125	-0.260
-407.311	429.948	-0.088	-0.190
-406.296	-118.365	-0.482	0.086
-405.282	-75.497	0.119	-0.043
-404.267	59.863	0.149	0.147
-403.252	-51.432	0.188	0.088
-402.238	229.659	0.140	0.229
-401.223	236.948	0.079	0.131
-400.209	800.000	-0.086	0.249
-399.194	-71.253	-0.183	-0.069
-398.179	461.819	-0.155	-0.346
-397.165	-134.040	-0.191	0.024
-396.150	87.079	0.157	-0.174
-395.136	-200.000	-0.017	0.126
-394.121	-49.998	-0.167	0.079
-393.106	-103.403	-0.228	-0.054
-392.092	-54.173	-0.372	-0.169
-391.077	-96.534	-0.260	-0.069
-390.063	800.000	-0.038	0.139
-389.048	-168.457	0.098	0.004
-388.033	800.000	0.091	0.341
-387.019	-200.000	-0.045	-0.216
-386.004	-2.116	-0.093	-0.065
-384.990	-48.336	0.069	0.033
-383.975	-200.000	-0.023	-0.197
-382.960	-200.000	0.006	0.278
-381.946	29.107	-0.243	0.207
-380.931	-159.548	0.098	-0.005
-379.917	-200.000	0.011	0.209
-378.902	89.827	-0.179	-0.200
-377.888	-82.000	-0.113	-0.037
-376.873	-18.558	0.126	-0.079
-375.858	-171.616	0.324	0.011
-374.844	-9.582	-0.043	-0.029
-373.829	800.000	0.103	0.332
-372.815	-91.302	0.113	0.032
-371.800	31.317	0.273	0.234
-370.785	-12.451	-0.192	0.125
-369.771	-200.000	-0.047	0.241
-368.756	-67.583	-0.111	-0.044
-367.742	305.660	-0.032	-0.060
-366.727	-86.477	-0.070	-0.022
-365.712	-176.406	-0.358	-0.009
-364.698	247.007	0.107	-0.181
-363.683	402.668	-0.151	-0.317
-362.669	800.000	-0.014	0.043
-361.654	-56.186	-0.172	0.077
-360.639	800.000	-0.069	-0.205
-359.625	-104.865	-0.244	0.056
-358.610	800.000	-0.027	0.078
-357.596	800.000	0.033	0.124
-356.581	800.000	-0.021	-0.087
-355.566	-99.422	0.070	0.018
-354.552	213.381	0.141	-0.223
-353.537	-200.000	-0.027	0.364
-352.523	197.065	-0.146	0.223
-351.508	57.564	-0.108	-0.105
-350.493	40.061	0.113	0.102
-349.479	122.068	-0.069	0.086
-348.464	-179.489	-0.185	0.004
-347.450	-50.691	0.162	-0.076
-346.435	8.942	0.203	-0.153
-345.420	-67.786	0.474	-0.185
-344.406	-90.566	0.082	0.024
-343.391	-89.920	0.326	0.095
-342.377	163.693	-0.094	-0.132
-341.362	222.084	0.039	-0.063
-340.348	30.145	-0.315	0.268
-339.333	145.001	0.218	0.291
-338.318	-60.396	0.051	0.022
-337.304	-89.307	-0.077	-0.023
-336.289	-0.302	0.220	-0.157
-335.275	-200.000	0.075	-0.390
-334.260	-32.605	-0.100	0.056
-333.245	548.598	-0.136	-0.327
-332.231	-131.739	-0.404	-0.053
-331.216	-143.704	0.054	0.005
-330.202	73.557	-0.048	0.050
-329.187	-200.000	-0.034	0.231
-328.172	800.000	0.026	-0.084
-327.158	-86.614	0.072	0.022
-326.143	308.748	-0.066	-0.123
-325.129	-36.522	0.127	-0.068
-324.114	-40.680	-0.168	0.087
-323.099	4.300	0.334	-0.245
-322.085	26.445	0.214	-0.179
-321.070	68.817	0.080	-0.082
-320.056	-34.720	-0.029	-0.016
-319.041	-99.204	0.145	0.037
-318.026	-50.676	0.231	0.108
-317.012	383.389	-0.111	0.228
-315.997	-200.000	0.032	0.480
-314.983	433.802	0.047	-0.103
-313.968	63.188	-0.247	0.248
-312.953	57.521	0.131	0.128
-311.939	88.421	-0.228	-0.253
-310.924	249.025	-0.128	-0.217
-309.910	-59.214	-0.262	0.113
-308.895	-33.663	-0.060	-0.033
-307.880	22.746	0.056	0.046
-306.866	-59.867	0.468	-0.200
-305.851	-144.589	0.166	0.015
-304.837	-16.750	-0.218	-0.138
-303.822	733.868	0.006	-0.015
-302.807	-52.477	0.106	0.049
-301.793	267.017	-0.056	0.098
-300.778	-45.917	-0.236	-0.116
-299.764	-94.605	0.384	-0.104
-298.749	95.121	0.204	0.231
-297.735	-65.818	-0.086	-0.034
-296.720	-17.181	-0.133	0.084
-295.705	-200.000	-0.054	0.429
-294.691	145.532	-0.120	0.160
-293.676	208.960	-0.109	-0.170
-292.662	-6.225	0.200	-0.136
-291.647	630.584	0.080	0.202
-290.632	-200.000	-0.002	0.012
-289.618	119.403	0.160	-0.198
-288.603	46.393	0.159	0.147
-287.589	588.645	0.034	-0.084
-286.574	-2.810	0.011	-0.008
-285.559	-200.000	-0.030	0.233
-284.545	-84.951	-0.254	0.080
-283.530	-72.886	-0.221	0.081
-282.516	-3.933	0.250	0.173
-281.501	-200.000	0.040	-0.188
-280.486	-131.773	-0.246	0.032
-279.472	-42.565	0.110	0.056
-278.457	59.676	0.039	-0.039
-277.443	-70.581	-0.101	0.038
-276.428	-28.789	0.117	0.067
-275.413	-49.232	0.215	-0.102
-274.399	-26.864	0.331	0.193
-273.384	311.829	-0.042	0.079
-272.370	-83.190	0.338	0.108
-271.355	-200.000	0.002	-0.045
-270.340	-89.026	0.357	0.105
-269.326	-71.532	-0.066	0.025
-268.311	18.564	-0.125	-0.099
-267.297	67.790	0.302	0.307
-266.282	-143.321	0.350	-0.033
-265.267	553.332	0.058	-0.139
-264.253	-116.481	-0.032	0.006
-263.238	-14.295	-0.136	-0.087
-262.224	-200.000	-0.016	-0.244
-261.209	211.796	-0.088	-0.139
-260.195	39.231	-0.242	-0.216
-259.180	800.000	-0.054	-0.210
-258.165	-114.986	-0.220	0.042
-257.151	-200.000	-0.008	-0.080
-256.136	-145.517	0.173	0.015
-255.122	373.248	0.115	-0.232
-254.107	631.850	-0.180	0.453
-253.092	-200.000	0.008	0.045
-252.078	352.819	-0.175	0.346
-251.063	-42.683	0.431	0.218
-250.049	800.000	0.039	0.157
-249.034	-103.052	0.053	-0.013
-248.019	-97.763	-0.165	-0.043
-247.005	-65.260	0.052	0.021
-245.990	81.723	0.180	0.194
-244.976	-200.000	-0.043	-0.230
-243.961	-77.344	-0.217	0.075
-242.946	-200.000	0.015	0.200
-241.932	-200.000	0.044	-0.272
-240.917	135.063	0.080	-0.104
-239.903	-155.381	0.073	-0.005
-238.888	-200.000	-0.079	0.360
-237.873	370.114	-0.047	-0.095
-236.859	-16.476	-0.162	0.102
-235.844	-115.770	0.113	-0.021
-234.830	-122.996	0.400	0.064
-233.815	-148.460	-0.244	0.020
-232.800	-200.000	0.007	0.438
-231.786	-98.088	-0.235	-0.060
-230.771	-36.915	0.399	0.213
-229.757	10.250	0.233	0.176
-228.742	179.488	0.181	0.264
-227.727	156.043	0.205	0.281
-226.713	33.085	0.137	0.118
-225.698	-163.951	-0.228	0.011
-224.684	117.355	0.156	-0.191
-223.669	-155.256	-0.104	-0.007
-222.655	315.220	0.094	0.175
-221.640	-28.805	-0.304	-0.174
-220.625	39.301	0.063	-0.056
-219.611	-42.329	-0.091	0.046
-218.596	438.744	0.079	0.173
-217.582	708.938	0.163	0.429
-216.567	-1.114	-0.135	0.095
-215.552	-200.000	0.010	0.297
-214.538	800.000	-0.033	0.115
-213.523	-55.172	0.337	0.151
-212.509	30.923	0.064	0.054
-211.494	800.000	0.055	-0.187
-210.479	-12.987	0.032	-0.020
-209.465	800.000	-0.004	-0.011
-208.450	-155.434	-0.416	-0.027
-207.436	107.414	0.293	-0.347
-206.421	-70.504	0.302	-0.114
-205.406	189.272	0.142	-0.212
-204.392	184.706	0.074	-0.109
-203.377	800.000	0.049	-0.144
-202.363	184.528	0.224	-0.331
-201.348	767.565	0.042	-0.113
-200.333	800.000	-0.026	0.106
-199.319	-200.000	-0.025	-0.154
-198.304	-11.810	-0.160	0.104
-197.290	196.929	-0.111	0.168
-196.275	-151.955	-0.187	-0.014
-195.260	-121.405	0.197	-0.033
-194.246	178.221	-0.149	-0.216
-193.231	-69.625	0.162	0.062
-192.217	800.000	0.037	0.130
-191.202	-3.332	-0.226	0.157
-190.187	547.425	-0.089	0.212
-189.173	-200.000	-0.021	0.221
-188.158	-50.597	-0.065	-0.031
-187.144	91.880	0.060	-0.067
-186.129	-200.000	-0.011	-0.160
-185.114	35.945	-0.137	-0.120
-184.100	-200.000	0.025	0.122
-183.085	85.604	0.069	-0.075
-182.071	113.708	0.133	-0.161
-181.056	119.858	-0.188	-0.232
-180.042	-19.729	0.253	-0.156
-179.027	-33.366	-0.276	-0.152
-178.012	-123.488	-0.135	-0.021
-176.998	212.997	-0.129	0.202
-175.983	-112.994	-0.022	-0.004
-174.969	800.000	-0.040	-0.145
-173.954	-177.659	-0.300	-0.007
-172.939	-55.832	0.080	0.036
-171.925	-45.938	0.082	0.040
-170.910	-116.399	0.042	0.008
-169.896	-200.000	-0.000	0.264
-168.881	44.254	0.147	-0.134
-167.866	-66.263	-0.256	0.101
-166.852	46.966	-0.179	0.165
-165.837	36.007	-0.014	-0.012
-164.823	-200.000	-0.005	-0.275
-163.808	-114.920	-0.447	0.085
-162.793	-52.222	-0.310	0.143
-161.779	80.205	0.231	-0.247
-160.764	-106.820	-0.377	0.083
-159.750	719.193	-0.129	0.342
-158.735	292.278	0.057	0.103
-157.720	353.955	-0.206	0.406
-156.706	78.546	0.079	0.084
-155.691	305.195	-0.105	0.194
-154.677	611.261	0.086	0.212
-153.662	-5.015	0.186	0.127
-152.647	-2.032	-0.216	-0.150
-151.633	-84.570	0.119	0.037
-150.618	-127.002	0.165	0.024
-149.604	-200.000	-0.076	-0.544
-148.589	800.000	0.058	-0.194
-147.574	457.184	0.122	-0.268
-146.560	72.653	0.065	0.068
-145.545	242.008	0.091	0.150
-144.531	189.571	-0.238	0.354
-143.516	-98.547	0.220	0.056
-142.502	-200.000	-0.016	-0.122
-141.487	-41.860	-0.038	0.019
-140.472	23.223	-0.203	-0.165
-139.458	122.620	-0.149	0.185
-138.443	85.338	-0.116	-0.127
-137.429	-50.357	0.069	0.032
-136.414	-200.000	-0.073	0.371
-135.399	155.198	0.099	0.135
-134.385	-23.672	0.165	-0.098
-133.370	-121.049	0.230	-0.038
-132.356	-136.492	-0.314	-0.036
-131.341	-62.584	0.199	-0.082
-130.326	-185.939	-0.077	-0.001
-129.312	-145.203	-0.228	0.021
-128.297	582.883	0.049	-0.119
-127.283	-46.147	0.090	-0.044
-126.268	-167.818	-0.215	-0.008
-125.253	-140.987	0.224	0.023
-124.239	800.000	0.102	0.324
-123.224	-55.774	-0.086	-0.038
-122.210	205.833	-0.080	0.123
-121.195	115.011	-0.172	0.208
-120.180	527.227	0.229	-0.534
-119.166	118.137	0.050	-0.061
-118.151	386.253	-0.127	-0.261
-117.137	73.351	-0.074	-0.077
-116.122	198.302	0.105	0.160
-115.107	-70.901	-0.180	0.067
-114.093	-200.000	-0.091	0.498
-113.078	162.366	-0.354	-0.491
-112.064	-200.000	0.033	-0.170
-111.049	193.789	-0.116	-0.174
-110.034	-70.420	-0.318	-0.119
-109.020	-200.000	0.008	0.144
-108.005	-64.343	-0.207	-0.084
-106.991	38.563	-0.263	0.232
-105.976	243.319	-0.082	0.137
-104.962	10.050	-0.121	-0.091
-103.947	-13.494	-0.199	-0.127
-102.932	-48.623	-0.184	0.088
-101.918	702.630	0.171	0.445
-100.903	-41.139	0.197	-0.100
-99.889	401.472	0.130	-0.271
-98.874	-42.814	0.249	0.125
-97.859	131.688	-0.085	-0.108
-96.845	133.851	0.254	0.325
-95.830	-88.051	-0.045	0.013
-94.816	79.254	0.183	0.194
-93.801	-200.000	0.015	-0.070
-92.786	800.000	0.064	0.187
-91.772	-200.000	-0.022	0.324
-90.757	-8.464	0.063	0.042
-89.743	358.173	0.021	0.042
-88.728	-121.688	-0.368	0.060
-87.713	800.000	0.015	0.050
-86.699	-87.761	0.335	0.100
-85.684	117.653	-0.079	-0.096
-84.670	-23.980	-0.209	0.123
-83.655	-76.584	-0.236	-0.082
-82.640	74.703	0.057	-0.059
-81.626	-200.000	0.020	-0.220
-80.611	7.459	0.156	0.115
-79.597	-113.015	0.094	0.018
-78.582	-102.623	0.407	0.096
-77.567	243.043	-0.230	0.381
-76.553	-157.125	-0.190	0.011
-75.538	8.196	0.224	-0.166
-74.524	-200.000	-0.006	0.131
-73.509	-120.965	-0.156	-0.026
-72.494	224.867	0.113	0.181
-71.480	-200.000	-0.000	0.453
-70.465	-180.371	-0.084	-0.002
-69.451	121.229	0.086	0.106
-68.436	-69.804	-0.183	0.069
-67.422	-200.000	-0.010	0.242
-66.407	800.000	0.037	-0.116
-65.392	-157.672	-0.265	0.016
-64.378	-200.000	-0.087	-0.422
-63.363	800.000	0.059	0.192
-62.349	800.000	0.095	0.407
-61.334	-34.239	-1.204	-0.653
-60.319	149.932	0.298	0.399
-59.305	-200.000	-0.056	-0.499
-58.290	66.570	0.705	0.709
-57.276	214.014	0.942	1.474
-56.261	-200.000	82.654	500.639
-55.246	516.393	1341.576	3099.549
-54.232	151.644	2563.039	3451.858
-53.217	108.433	2319.913	2737.181
-52.203	48.188	1939.264	1792.950
-51.188	42.665	1727.416	1554.471
-50.173	39.875	1681.979	1492.477
-49.159	54.381	1722.629	1639.650
-48.144	58.964	1741.398	1692.464
-47.130	42.455	1701.548	1529.345
-46.115	39.451	1687.168	1493.625
-45.100	39.319	1682.349	1488.298
-44.086	39.254	1680.688	1486.280
-43.071	39.322	1677.333	1483.766
-42.057	39.129	1675.658	1480.771
-41.042	39.245	1672.978	1479.217
-40.027	39.136	1671.533	1477.064
-39.013	39.252	1669.201	1475.815
-37.998	39.129	1667.983	1473.754
-36.984	39.345	1666.102	1473.655
-35.969	39.409	1664.852	1472.973
-34.954	39.516	1662.457	1471.592
-33.940	39.327	1661.302	1469.100
-32.925	39.435	1659.091	1467.890
-31.911	39.415	1657.821	1466.564
-30.896	39.402	1655.142	1464.032
-29.881	39.347	1654.207	1462.742
-28.867	39.305	1652.794	1461.120
-27.852	39.331	1651.282	1459.918
-26.838	39.350	1649.852	1458.739
-25.823	39.407	1648.204	1457.644
-24.809	39.361	1647.758	1456.853
-23.794	39.299	1645.916	1454.705
-22.779	39.430	1643.894	1453.831
-21.765	39.337	1642.363	1451.732
-20.750	39.285	1640.858	1449.960
-19.736	39.316	1639.201	1448.671
-18.721	39.399	1638.091	1448.241
-17.706	39.372	1636.545	1446.619
-16.692	39.373	1634.922	1445.132
-15.677	39.380	1633.790	1444.128
-14.663	39.436	1632.264	1443.129
-13.648	39.407	1631.292	1442.004
-12.633	39.387	1629.229	1439.972
-11.619	39.400	1627.895	1438.833
-10.604	39.478	1625.633	1437.346
-9.590	39.361	1624.925	1435.809
-8.575	39.326	1624.033	1434.706
-7.560	39.398	1622.680	1433.979
-6.546	39.450	1620.497	1432.377
-5.531	39.315	1619.893	1430.806
-4.517	39.323	1618.672	1429.729
-3.502	39.285	1617.806	1428.625
-2.487	39.413	1615.902	1427.817
-1.473	38.990	1603.646	1413.884
-0.458	35.713	1582.045	1371.456
0.556	30.725	1579.975	1330.247
1.571	27.770	1603.520	1328.473
2.586	27.079	1617.841	1335.147
3.600	23.998	1564.584	1269.142
4.615	13.320	1449.712	1104.896
5.629	3.414	1377.219	986.413
6.644	1.572	1367.286	967.501
7.659	1.347	1366.111	965.157
8.673	1.248	1365.168	963.778
9.688	1.223	1363.599	962.425
10.702	0.945	1360.501	958.393
11.717	4.554	1368.390	986.808
12.731	15.179	1388.311	1069.222
13.746	23.430	1401.739	1132.414
14.761	25.039	1404.024	1144.441
15.775	25.307	1404.066	1146.086
16.790	25.314	1403.352	1145.448
17.804	25.472	1402.946	1146.023
18.819	25.633	1402.415	1146.512
19.834	25.833	1401.489	1146.927
20.848	25.800	1400.954	1146.178
21.863	25.868	1399.891	1145.645
22.877	25.706	1399.488	1144.181
23.892	25.791	1397.917	1143.336
24.907	25.718	1397.611	1142.520
25.921	25.686	1397.062	1141.768
26.936	25.731	1395.799	1140.917
27.950	25.884	1394.361	1140.613
28.965	25.782	1393.266	1138.969
29.980	25.692	1392.127	1137.367
30.994	25.720	1390.745	1136.316
32.009	25.790	1389.520	1135.657
33.023	25.808	1388.582	1134.899
34.038	25.783	1387.335	1133.622
35.053	25.769	1386.187	1132.498
36.067	25.712	1385.083	1131.136
37.082	25.680	1384.751	1130.568
38.096	25.789	1383.621	1130.228
39.111	25.646	1383.016	1128.738
40.126	25.742	1382.043	1128.441
41.140	25.743	1381.613	1127.998
42.155	25.674	1381.147	1127.084
43.169	25.715	1381.230	1127.314
44.184	25.746	1380.610	1126.898
45.199	25.671	1380.196	1125.994
46.213	25.751	1379.585	1125.895
47.228	25.789	1378.381	1125.052
48.242	25.710	1377.998	1124.144
49.257	25.753	1376.137	1122.799
50.271	25.778	1374.844	1121.798
51.286	25.760	1373.345	1120.366
52.301	25.679	1372.011	1118.670
53.315	25.658	1371.214	1117.793
54.330	25.681	1370.792	1117.491
55.344	25.726	1369.433	1116.565
56.359	25.667	1368.659	1115.471
57.374	25.756	1367.350	1114.855
58.388	25.673	1367.334	1114.229
59.403	25.754	1366.630	1114.060
60.417	25.710	1366.138	1113.284
61.432	25.698	1365.268	1112.404
62.447	25.652	1364.139	1111.105
63.461	25.666	1363.424	1110.508
64.476	25.686	1362.220	1109.550
65.490	25.761	1360.911	1108.849
66.505	25.743	1359.720	1107.672
67.520	25.737	1358.156	1106.263
68.534	25.808	1357.031	1105.685
69.549	25.729	1356.137	1104.374
70.563	25.780	1355.259	1103.871
71.578	25.678	1354.628	1102.634
72.593	25.812	1353.536	1102.467
73.607	25.824	1352.811	1101.856
74.622	25.771	1352.165	1100.904
75.636	25.733	1351.329	1099.900
76.651	25.776	1350.451	1099.346
77.666	25.633	1350.441	1098.370
78.680	25.722	1349.932	1098.398
79.695	25.773	1348.837	1097.726
80.709	25.764	1347.869	1096.781
81.724	25.736	1347.338	1096.083
82.739	25.804	1346.163	1095.446
83.753	25.696	1345.172	1093.887
84.768	25.674	1343.610	1092.384
85.782	25.893	1342.301	1092.555
86.797	25.794	1341.854	1091.494
87.812	25.766	1340.821	1090.388
88.826	25.817	1340.054	1089.972
89.841	25.763	1339.236	1088.886
90.855	25.736	1337.934	1087.568
91.870	25.770	1336.990	1086.907
92.884	25.767	1335.972	1085.969
93.899	25.858	1335.065	1085.680
94.914	25.800	1334.438	1084.729
95.928	25.757	1333.969	1083.992
96.943	25.843	1332.777	1083.446
97.957	25.837	1332.326	1082.943
98.972	25.780	1331.546	1081.875
99.987	25.784	1330.393	1080.866
101.001	25.877	1329.310	1080.446
102.016	25.857	1328.292	1079.401
103.030	25.893	1327.342	1078.749
104.045	25.862	1326.814	1078.039
105.060	25.849	1325.607	1076.889
106.074	25.855	1324.421	1075.865
107.089	25.826	1323.522	1074.863
108.103	25.784	1322.794	1073.930
109.118	25.894	1321.956	1073.808
110.133	25.786	1320.598	1071.971
111.147	25.925	1319.084	1071.468
112.162	25.914	1318.348	1070.711
113.176	25.869	1317.537	1069.692
114.191	25.857	1316.694	1068.845
115.206	25.872	1315.497	1067.866
116.220	25.867	1314.672	1067.072
117.235	25.939	1313.162	1066.174
118.249	25.798	1312.678	1064.858
119.264	25.823	1311.735	1064.146
120.279	25.966	1310.570	1063.950
121.293	25.852	1310.527	1063.150
122.308	25.931	1309.363	1062.572
123.322	25.991	1308.407	1062.061
124.337	25.994	1307.553	1061.286
125.352	25.981	1306.910	1060.594
126.366	26.045	1305.541	1059.768
127.381	25.944	1305.008	1058.646
128.395	26.005	1304.005	1058.099
129.410	25.925	1303.326	1056.982
130.424	25.959	1302.357	1056.306
131.439	25.924	1302.018	1055.731
132.454	26.006	1300.618	1054.984
133.468	26.045	1300.193	1054.771
134.483	25.948	1300.054	1053.997
135.497	25.917	1299.088	1052.941
136.512	25.803	1298.695	1051.864
137.527	25.923	1296.981	1051.084
138.541	25.970	1295.825	1050.327
139.556	26.035	1293.977	1049.111
140.570	25.861	1293.447	1047.578
141.585	26.000	1292.482	1047.512
142.600	25.868	1291.447	1045.814
143.614	25.894	1290.375	1045.008
144.629	25.894	1289.340	1044.077
145.643	25.773	1288.590	1042.674
146.658	25.812	1287.419	1041.860
147.673	25.865	1286.387	1041.237
148.687	25.910	1285.385	1040.597
149.702	25.857	1284.165	1039.208
150.716	25.915	1282.794	1038.343
151.731	25.923	1282.152	1037.781
152.746	25.932	1281.438	1037.159
153.760	25.948	1280.507	1036.407
154.775	25.885	1279.438	1035.091
155.789	26.001	1278.206	1034.663
156.804	26.023	1277.216	1033.896
157.819	25.839	1276.724	1032.353
158.833	25.889	1275.971	1031.938
159.848	25.959	1274.918	1031.398
160.862	25.971	1274.507	1031.044
161.877	25.979	1273.381	1030.084
162.892	25.962	1272.513	1029.197
163.906	25.988	1272.012	1028.850
164.921	26.090	1271.437	1028.874
165.935	25.956	1270.676	1027.403
166.950	26.061	1269.733	1027.147
167.964	25.978	1268.904	1025.913
168.979	25.997	1269.110	1026.096
169.994	26.121	1268.078	1025.875
171.008	25.954	1267.340	1024.239
172.023	25.970	1266.630	1023.667
173.037	25.993	1265.811	1023.045
174.052	25.927	1265.553	1022.374
175.067	26.009	1264.400	1021.816
176.081	26.016	1263.844	1021.313
177.096	26.014	1262.940	1020.483
178.110	26.004	1261.889	1019.485
179.125	25.972	1261.143	1018.614
180.140	26.091	1259.712	1018.039
181.154	26.054	1259.060	1017.211
182.169	26.000	1257.847	1015.840
183.183	26.019	1256.703	1014.931
184.198	26.031	1255.636	1014.047
185.213	26.134	1254.818	1013.876
186.227	26.103	1253.720	1012.723
187.242	25.988	1253.509	1011.820
188.256	26.169	1252.095	1011.606
189.271	26.146	1251.300	1010.742
190.286	26.176	1250.666	1010.309
191.300	26.095	1250.406	1009.558
192.315	26.060	1249.680	1008.688
193.329	26.164	1248.958	1008.596
194.344	26.234	1248.297	1008.363
195.359	26.110	1248.306	1007.585
196.373	25.985	1247.581	1006.216
197.388	26.009	1247.409	1006.124
198.402	26.056	1247.188	1006.119
199.417	26.073	1246.685	1005.715
200.432	26.074	1245.776	1004.899
201.446	26.134	1245.099	1004.596
202.461	26.049	1244.423	1003.494
203.475	26.081	1243.710	1003.005
204.490	26.096	1242.603	1002.107
205.504	26.148	1241.983	1001.807
206.519	26.204	1240.951	1001.199
207.534	26.237	1239.619	1000.219
208.548	26.163	1238.936	999.168
209.563	26.242	1237.916	998.694
210.577	26.216	1237.119	997.819
211.592	26.192	1236.693	997.254
212.607	26.296	1235.448	996.737
213.621	26.312	1234.767	996.185
214.636	26.206	1234.455	995.263
215.650	26.133	1233.519	994.016
216.665	26.181	1232.140	993.082
217.680	26.215	1231.615	992.758
218.694	26.095	1231.250	991.715
219.709	26.259	1230.164	991.655
220.723	26.239	1229.582	990.989
221.738	26.317	1228.282	990.278
222.753	26.148	1227.879	988.943
223.767	26.216	1227.434	988.870
224.782	26.237	1227.355	988.831
225.796	26.440	1225.999	988.761
226.811	26.324	1226.088	988.113
227.826	26.316	1225.002	987.108
228.840	26.291	1224.405	986.402
229.855	26.436	1223.794	986.611
230.869	26.345	1223.483	985.776
231.884	26.369	1222.705	985.196
232.899	26.270	1221.650	983.717
233.913	26.328	1221.511	983.837
234.928	26.431	1220.804	983.737
235.942	26.412	1220.428	983.246
236.957	26.409	1219.393	982.307
237.972	26.442	1218.296	981.514
238.986	26.340	1217.977	980.618
240.001	26.286	1217.523	979.877
241.015	26.468	1216.833	980.220
242.030	26.531	1216.131	979.907
243.045	26.490	1214.697	978.446
244.059	26.517	1214.254	978.146
245.074	26.507	1213.746	977.596
246.088	26.508	1212.895	976.827
247.103	26.500	1211.636	975.685
248.117	26.580	1211.128	975.620
249.132	26.539	1210.497	974.804
250.147	26.542	1209.712	974.102
251.161	26.676	1208.884	974.071
252.176	26.508	1208.358	972.660
253.190	26.512	1207.959	972.273
254.205	26.504	1207.413	971.703
255.220	26.557	1206.498	971.169
256.234	26.641	1206.067	971.182
257.249	26.676	1205.072	970.483
258.263	26.565	1204.523	969.364
259.278	26.651	1204.263	969.528
260.293	26.634	1203.776	968.957
261.307	26.693	1203.002	968.566
262.322	26.736	1202.198	968.063
263.336	26.631	1201.735	967.040
264.351	26.580	1201.495	966.494
265.366	26.623	1200.862	966.125
266.380	26.631	1200.042	965.421
267.395	26.642	1199.046	964.593
268.409	26.532	1198.627	963.587
269.424	26.583	1198.045	963.304
270.439	26.617	1197.624	963.062
271.453	26.650	1197.009	962.656
272.468	26.644	1196.280	961.958
273.482	26.520	1195.548	960.626
274.497	26.757	1195.137	961.467
275.512	26.731	1194.393	960.643
276.526	26.727	1193.556	959.866
277.541	26.798	1192.559	959.354
278.555	26.754	1192.138	958.696
279.570	26.808	1191.263	958.196
280.585	26.720	1190.527	957.053
281.599	26.734	1189.659	956.342
282.614	26.702	1189.394	955.878
283.628	26.754	1188.335	955.218
284.643	26.765	1187.264	954.327
285.657	26.786	1186.691	953.891
286.672	26.847	1185.811	953.421
287.687	26.683	1185.361	952.115
288.701	26.716	1185.044	951.950
289.716	26.786	1183.698	951.150
290.730	26.807	1182.981	950.603
291.745	26.943	1182.483	950.828
292.760	26.853	1182.065	949.936
293.774	26.796	1181.678	949.242
294.789	26.928	1180.898	949.226
295.803	26.886	1180.268	948.414
296.818	26.904	1179.468	947.781
297.833	26.922	1178.818	947.269
298.847	26.859	1178.367	946.496
299.862	26.966	1177.504	946.276
300.876	26.983	1176.572	945.533
301.891	26.970	1176.233	945.105
302.906	26.939	1175.248	944.073
303.920	27.098	1174.734	944.400
304.935	26.983	1173.713	942.897
305.949	27.151	1173.081	943.181
306.964	26.933	1172.965	941.873
307.979	26.989	1172.427	941.646
308.993	27.103	1171.690	941.563
310.008	27.027	1170.631	940.235
311.022	26.950	1170.145	939.365
312.037	27.034	1169.509	939.204
313.052	27.111	1168.387	938.617
314.066	27.214	1166.911	937.878
315.081	27.078	1167.016	937.183
316.095	27.038	1166.541	936.508
317.110	27.049	1166.027	936.073
318.125	27.118	1164.805	935.364
319.139	27.131	1164.399	935.022
320.154	27.201	1163.785	934.804
321.168	27.189	1163.573	934.492
322.183	27.096	1162.863	933.358
323.197	27.205	1162.201	933.302
324.212	27.229	1161.571	932.839
325.227	27.158	1161.150	932.055
326.241	27.212	1160.408	931.650
327.256	27.316	1159.155	931.098
328.270	27.177	1158.881	930.082
329.285	27.166	1158.320	929.493
330.300	27.277	1157.238	929.111
331.314	27.246	1156.504	928.279
332.329	27.274	1155.569	927.589
333.343	27.348	1154.926	927.369
334.358	27.261	1154.157	926.229
335.373	27.254	1153.744	925.776
336.387	27.364	1152.835	925.526
337.402	27.414	1152.082	925.095
338.416	27.437	1151.506	924.667
339.431	27.401	1150.773	923.812
340.446	27.447	1150.014	923.355
341.460	27.406	1149.589	922.724
342.475	27.444	1148.876	922.265
343.489	27.428	1148.007	921.406
344.504	27.446	1147.232	920.792
345.519	27.525	1146.314	920.374
346.533	27.542	1145.267	919.536
347.548	27.496	1145.025	919.026
348.562	27.488	1143.894	917.998
349.577	27.541	1143.316	917.721
350.592	27.476	1142.454	916.619
351.606	27.533	1141.596	916.137
352.621	27.449	1141.434	915.504
353.635	27.558	1140.675	915.362
354.650	27.600	1140.091	915.022
355.665	27.524	1139.434	914.034
356.679	27.644	1138.763	914.015
357.694	27.631	1137.925	913.198
358.708	27.552	1137.851	912.660
359.723	27.493	1137.231	911.789
360.738	27.513	1136.161	910.949
361.752	27.458	1135.618	910.156
362.767	27.577	1135.255	910.382
363.781	27.608	1134.638	909.959
364.796	27.517	1134.301	909.154
365.810	27.613	1133.801	909.155
366.825	27.707	1132.444	908.454
367.840	27.712	1132.345	908.316
368.854	27.856	1131.462	908.248
369.869	27.748	1130.956	907.221
370.883	27.775	1130.338	906.780
371.898	27.820	1129.389	906.162
372.913	27.777	1129.121	905.654
373.927	27.746	1128.582	904.989
374.942	27.787	1128.067	904.698
375.956	27.856	1127.565	904.555
376.971	27.712	1126.933	903.255
377.986	27.799	1126.617	903.353
379.000	27.855	1126.116	903.148
380.015	27.801	1125.558	902.354
381.029	27.878	1124.474	901.785
382.044	27.826	1123.908	900.994
383.059	27.859	1123.044	900.388
384.073	27.953	1122.420	900.269
385.088	27.939	1121.492	899.375
386.102	27.884	1120.882	898.537
387.117	27.926	1120.405	898.281
388.132	27.907	1119.551	897.423
389.146	27.885	1118.511	896.406
390.161	27.862	1118.407	896.130
391.175	27.964	1117.193	895.578
392.190	27.989	1116.561	895.113
393.205	28.091	1115.788	894.913
394.219	27.969	1115.147	893.724
395.234	28.008	1114.859	893.603
396.248	28.128	1113.533	893.049
397.263	28.033	1112.602	891.760
398.278	28.032	1112.347	891.469
399.292	28.119	1111.496	891.133
400.307	28.065	1111.118	890.488
401.321	28.133	1110.531	890.269
402.336	28.171	1109.346	889.425
403.350	28.031	1109.122	888.489
404.365	28.189	1108.218	888.452
405.380	28.220	1107.776	888.169
406.394	28.157	1107.032	887.191
407.409	28.333	1106.262	887.348
408.423	28.285	1105.686	886.573
409.438	28.351	1104.361	885.749
410.453	28.293	1103.975	885.083
411.467	28.330	1103.404	884.727
412.482	28.301	1102.562	883.833
413.496	28.263	1102.125	883.222
414.511	28.297	1101.871	883.104
415.526	28.248	1101.378	882.392
416.540	28.294	1100.790	882.066
417.555	28.410	1100.186	882.061
418.569	28.360	1099.457	881.161
419.584	28.288	1099.368	880.662
420.599	28.273	1098.933	880.165
421.613	93.659	1307.155	1403.873
422.628	87.583	1337.506	1403.985
