DTS Sentinel unit serial number:	SN413079Multiplexer serial number:	ORYXHardware model number:	OX4-SRSoftware version number:	ORYX F/W v4.00 Oryx Data Collector v3.7.2.0data status	okinstallation	princeton_trtdifferential loss correction	single-endedforward channel	channel 2reverse channel	N/Adate	2019/09/11time	13:57:11forward acquisition time	60.00reverse acquisition time	0.00gamma	496.2192k internal	0.2292k external	0.2292temperature offset calibration	1.0009default loss term (dB/km)	0.3790temperature slope calibration	1.0000multiplexer offset coefficient	1.0000multiplexer slope coefficient	1.0000fibre end	0.00T internal ref (°C)	41.87T ext. ref 1 (°C)	0.86T ext. ref 2 (°C)	37.17length (m)	temperature (°C)	Stokes	anti-Stokes-747.200	176.078	0.153	0.227
-746.185	-12.884	0.353	-0.235
-745.171	-64.797	-0.259	-0.107
-744.156	-124.002	0.168	-0.027
-743.142	-200.000	-0.034	0.197
-742.127	-143.534	-0.139	0.014
-741.112	727.883	0.073	-0.200
-740.098	-97.394	-0.152	0.040
-739.083	-57.248	-0.205	0.092
-738.069	-200.000	0.042	0.311
-737.054	-200.000	-0.008	-0.145
-736.039	-200.000	0.020	0.423
-735.025	-200.000	-0.025	0.217
-734.010	-44.880	0.142	0.072
-732.996	84.153	0.056	0.063
-731.981	-163.936	-0.114	-0.005
-730.966	26.116	-0.066	-0.057
-729.952	49.068	-0.040	0.038
-728.937	-200.000	0.020	-0.208
-727.923	-9.239	0.085	0.058
-726.908	-200.000	0.015	-0.231
-725.894	24.049	-0.222	-0.187
-724.879	-85.858	-0.166	-0.053
-723.864	-7.228	0.274	-0.190
-722.850	216.040	-0.093	-0.152
-721.835	-157.393	0.422	0.026
-720.821	407.110	-0.151	0.326
-719.806	800.000	0.176	0.584
-718.791	-116.076	0.394	0.075
-717.777	-200.000	-0.031	-0.237
-716.762	-61.035	-0.148	-0.064
-715.748	800.000	-0.064	-0.199
-714.733	121.927	-0.154	0.196
-713.718	-200.000	-0.037	-0.183
-712.704	800.000	0.077	-0.266
-711.689	-200.000	-0.021	0.229
-710.675	21.694	-0.226	-0.188
-709.660	127.038	-0.045	0.059
-708.645	540.342	-0.118	0.286
-707.631	734.914	0.144	-0.393
-706.616	-117.701	0.052	-0.010
-705.602	20.407	0.195	-0.161
-704.587	-172.853	-0.208	0.007
-703.572	-199.682	-0.211	0.001
-702.558	88.731	0.144	0.164
-701.543	-78.174	0.403	0.142
-700.529	52.664	0.135	-0.131
-699.514	-127.851	-0.248	0.037
-698.499	174.893	-0.117	0.173
-697.485	-169.918	-0.181	-0.007
-696.470	-17.273	-0.142	0.091
-695.456	-108.161	0.139	-0.031
-694.441	-200.000	-0.050	-0.347
-693.426	323.936	-0.092	-0.178
-692.412	190.648	-0.142	-0.218
-691.397	-200.000	-0.017	0.151
-690.383	800.000	0.056	0.162
-689.368	-200.000	-0.034	0.270
-688.354	3.896	-0.324	0.242
-687.339	-54.794	0.088	0.041
-686.324	-46.549	0.256	-0.128
-685.310	88.091	-0.337	-0.382
-684.295	5.699	-0.116	-0.087
-683.281	-126.663	-0.197	0.030
-682.266	-68.850	-0.489	-0.193
-681.251	-200.000	-0.025	-0.260
-680.237	800.000	0.078	0.316
-679.222	-158.273	0.158	0.009
-678.208	-0.548	-0.183	0.133
-677.193	180.679	0.158	-0.237
-676.178	-200.000	-0.013	0.300
-675.164	-145.095	0.276	0.026
-674.149	618.562	0.099	-0.253
-673.135	124.635	0.076	-0.098
-672.120	213.493	-0.154	-0.248
-671.105	40.317	-0.303	-0.279
-670.091	202.901	0.116	0.183
-669.076	4.218	0.216	0.162
-668.062	127.504	0.107	-0.138
-667.047	-200.000	-0.015	0.128
-666.032	-69.252	0.335	0.132
-665.018	800.000	-0.073	0.281
-664.003	-200.000	0.052	0.347
-662.989	-200.000	-0.025	-0.114
-661.974	574.833	-0.048	-0.120
-660.959	32.300	0.226	-0.199
-659.945	-146.909	-0.251	0.022
-658.930	-115.130	0.022	0.004
-657.916	22.820	-0.259	0.216
-656.901	-200.000	0.014	0.285
-655.886	231.213	0.121	-0.202
-654.872	11.515	0.259	0.203
-653.857	800.000	0.078	-0.261
-652.843	41.610	0.174	0.161
-651.828	-53.463	0.173	-0.081
-650.814	800.000	-0.035	-0.109
-649.799	-128.073	0.125	0.018
-648.784	129.166	-0.050	0.065
-647.770	800.000	0.088	-0.314
-646.755	-57.104	0.285	0.128
-645.741	394.594	-0.119	-0.252
-644.726	-97.607	0.158	0.042
-643.711	800.000	-0.028	-0.087
-642.697	104.574	-0.081	0.097
-641.682	-200.000	-0.007	0.291
-640.668	-47.131	0.360	0.179
-639.653	-22.889	-0.128	-0.079
-638.638	85.030	-0.068	0.076
-637.624	-200.000	-0.052	-0.247
-636.609	782.724	0.064	0.180
-635.595	-104.896	-0.089	0.021
-634.580	800.000	-0.060	-0.170
-633.565	15.927	-0.192	-0.154
-632.551	-172.618	0.484	-0.016
-631.536	-155.180	0.215	-0.014
-630.522	24.286	0.133	0.112
-629.507	33.586	0.161	-0.143
-628.492	439.193	0.088	-0.196
-627.478	-85.208	0.280	0.089
-626.463	335.995	-0.115	-0.227
-625.449	-36.042	0.356	0.196
-624.434	-46.312	-0.100	0.050
-623.419	101.155	-0.109	0.129
-622.405	-84.613	-0.186	-0.060
-621.390	-155.405	-0.181	0.012
-620.376	154.831	-0.108	0.151
-619.361	36.662	0.165	-0.148
-618.346	-200.000	0.015	-0.207
-617.332	-67.877	-0.240	0.095
-616.317	-34.178	-0.305	-0.171
-615.303	108.364	0.026	-0.032
-614.288	-64.924	-0.182	0.075
-613.273	78.150	-0.052	-0.057
-612.259	-32.056	0.131	-0.075
-611.244	69.594	-0.151	0.159
-610.230	121.232	-0.225	0.285
-609.215	-20.405	0.252	0.158
-608.201	65.702	-0.188	-0.194
-607.186	800.000	0.053	0.201
-606.171	-56.280	-0.064	0.029
-605.157	-47.222	0.115	-0.057
-604.142	-200.000	-0.011	-0.169
-603.128	72.108	-0.338	-0.358
-602.113	800.000	-0.016	-0.071
-601.098	283.956	-0.073	0.133
-600.084	-200.000	0.032	0.151
-599.069	-112.317	-0.295	-0.060
-598.055	-3.889	0.214	0.151
-597.040	-200.000	-0.024	-0.337
-596.025	-200.000	-0.028	-0.175
-595.011	-113.283	-0.073	-0.015
-593.996	-90.519	-0.304	0.090
-592.982	-200.000	-0.037	-0.330
-591.967	800.000	0.045	0.187
-590.952	-200.000	-0.007	-0.210
-589.938	-200.000	-0.012	-0.087
-588.923	800.000	0.048	-0.150
-587.909	32.718	0.328	-0.289
-586.894	-63.908	-0.314	-0.131
-585.879	64.709	-0.272	-0.280
-584.865	490.238	-0.053	0.122
-583.850	-106.263	0.190	-0.043
-582.836	-113.522	0.063	-0.013
-581.821	81.835	-0.142	-0.156
-580.806	-31.540	-0.232	0.133
-579.792	-96.746	-0.257	0.069
-578.777	-92.548	0.227	-0.065
-577.763	17.089	0.151	-0.122
-576.748	-16.104	-0.048	-0.031
-575.733	-200.000	-0.004	-0.175
-574.719	-180.987	-0.055	0.001
-573.704	258.873	-0.052	-0.092
-572.690	-86.573	0.103	-0.032
-571.675	-80.520	-0.268	-0.091
-570.661	-200.000	0.008	0.048
-569.646	800.000	0.065	-0.231
-568.631	103.780	0.065	-0.078
-567.617	-200.000	0.059	0.357
-566.602	188.507	-0.190	-0.288
-565.588	-37.649	-0.092	-0.050
-564.573	306.737	-0.069	-0.131
-563.558	7.236	0.139	-0.105
-562.544	-200.000	-0.030	0.326
-561.529	200.734	0.093	0.146
-560.515	118.268	0.157	0.197
-559.500	-95.032	-0.112	0.031
-558.485	-200.000	-0.011	0.093
-557.471	-185.807	0.250	-0.004
-556.456	553.579	-0.135	-0.329
-555.442	40.413	0.211	-0.193
-554.427	61.079	0.132	0.133
-553.412	-200.000	0.002	-0.018
-552.398	-200.000	-0.001	0.098
-551.383	-79.625	0.131	-0.045
-550.369	-200.000	-0.030	0.154
-549.354	95.993	0.158	0.183
-548.339	-200.000	0.041	0.270
-547.325	-151.093	-0.351	0.027
-546.310	-17.521	-0.130	-0.083
-545.296	-23.325	-0.065	-0.040
-544.281	-22.057	-0.263	-0.162
-543.266	0.336	-0.231	-0.167
-542.252	233.304	0.139	0.232
-541.237	19.993	0.073	0.060
-540.223	24.334	0.187	0.157
-539.208	-58.019	0.180	-0.080
-538.193	202.857	0.117	-0.183
-537.179	-110.999	-0.139	-0.029
-536.164	313.253	0.085	-0.163
-535.150	213.492	-0.048	0.077
-534.135	-200.000	0.008	-0.161
-533.121	-200.000	-0.036	0.205
-532.106	-23.986	0.221	-0.134
-531.091	-39.634	-0.349	-0.185
-530.077	800.000	-0.140	-0.418
-529.062	127.152	0.200	-0.258
-528.048	272.881	-0.114	0.205
-527.033	-58.031	-0.184	0.081
-526.018	-82.417	0.193	0.064
-525.004	-0.041	-0.186	-0.134
-523.989	-193.321	-0.140	-0.001
-522.975	-91.034	-0.138	0.040
-521.960	-52.970	-0.138	0.064
-520.945	-200.000	0.004	0.214
-519.931	800.000	-0.068	-0.274
-518.916	-200.000	0.035	-0.205
-517.902	-200.000	-0.029	-0.280
-516.887	800.000	0.046	-0.184
-515.872	602.384	-0.151	0.381
-514.858	-78.173	0.155	0.054
-513.843	20.289	-0.109	0.090
-512.829	-63.229	-0.189	0.079
-511.814	-131.285	0.146	0.020
-510.799	-53.169	0.242	-0.113
-509.785	-116.840	-0.204	0.038
-508.770	-127.542	0.054	-0.008
-507.756	-124.827	-0.324	-0.051
-506.741	-3.953	0.115	0.081
-505.726	254.831	0.139	-0.241
-504.712	-33.006	0.219	-0.123
-503.697	-147.530	0.069	0.006
-502.683	-54.541	-0.489	-0.224
-501.668	-58.140	-0.082	-0.036
-500.653	55.811	0.177	0.174
-499.639	-57.152	-0.072	0.032
-498.624	-200.000	0.024	-0.230
-497.610	800.000	0.053	-0.207
-496.595	-73.498	-0.135	-0.050
-495.581	481.584	0.062	-0.142
-494.566	-200.000	0.043	0.317
-493.551	252.571	-0.095	0.164
-492.537	-38.959	0.212	-0.113
-491.522	-80.650	-0.119	-0.040
-490.508	253.574	0.050	-0.087
-489.493	-200.000	-0.017	0.202
-488.478	123.201	-0.287	0.364
-487.464	-70.315	0.019	-0.007
-486.449	60.580	0.062	-0.062
-485.435	800.000	0.055	-0.164
-484.420	-42.061	-0.113	-0.059
-483.405	-36.066	-0.258	-0.141
-482.391	-95.988	-0.374	-0.101
-481.376	-143.342	0.041	0.004
-480.362	97.656	-0.069	-0.081
-479.347	-80.840	-0.232	-0.078
-478.332	800.000	0.061	0.218
-477.318	-200.000	-0.003	-0.013
-476.303	-200.000	-0.031	0.188
-475.289	6.209	-0.237	0.178
-474.274	44.501	0.282	0.263
-473.259	712.175	0.049	-0.131
-472.245	300.278	-0.081	-0.151
-471.230	-164.482	-0.166	0.008
-470.216	-83.792	-0.203	-0.065
-469.201	800.000	0.052	0.150
-468.186	-85.771	0.329	0.103
-467.172	800.000	-0.048	0.143
-466.157	73.098	-0.114	0.120
-465.143	-200.000	-0.030	0.250
-464.128	-200.000	-0.025	-0.139
-463.113	293.875	0.053	-0.097
-462.099	295.799	0.080	-0.148
-461.084	130.541	-0.218	-0.283
-460.070	258.700	0.025	0.043
-459.055	800.000	-0.099	0.375
-458.040	-126.876	0.186	0.028
-457.026	-200.000	0.002	-0.239
-456.011	-117.119	-0.248	-0.046
-454.997	-88.907	-0.299	-0.090
-453.982	-22.582	0.055	0.034
-452.968	-200.000	0.019	-0.164
-451.953	0.774	0.356	-0.258
-450.938	-200.000	0.016	-0.140
-449.924	-76.652	-0.264	0.094
-448.909	-200.000	0.008	0.154
-447.895	-117.897	-0.323	0.059
-446.880	-45.520	-0.134	-0.067
-445.865	800.000	0.029	-0.093
-444.851	32.336	-0.137	-0.120
-443.836	800.000	-0.070	-0.213
-442.822	800.000	-0.104	0.390
-441.807	581.772	-0.073	0.181
-440.792	-92.140	0.127	0.036
-439.778	800.000	0.125	0.394
-438.763	559.805	0.168	0.410
-437.749	-106.514	-0.321	-0.072
-436.734	800.000	0.050	0.190
-435.719	-200.000	0.011	-0.139
-434.705	-6.549	0.255	-0.176
-433.690	-200.000	0.040	-0.225
-432.676	-110.850	0.180	-0.037
-431.661	-25.989	0.359	0.214
-430.646	-45.807	-0.080	0.040
-429.632	38.068	0.171	-0.154
-428.617	-10.426	-0.182	0.122
-427.603	-160.231	-0.327	0.018
-426.588	128.107	0.144	-0.185
-425.573	111.633	-0.206	0.252
-424.559	-200.000	0.027	0.282
-423.544	-75.656	0.333	-0.120
-422.530	119.880	0.333	-0.418
-421.515	-165.904	-0.300	-0.013
-420.500	-13.702	-0.016	0.010
-419.486	300.978	0.178	-0.332
-418.471	36.511	0.333	0.297
-417.457	213.554	0.014	0.023
-416.442	800.000	0.065	-0.216
-415.428	800.000	0.089	0.261
-414.413	-93.184	0.099	-0.028
-413.398	-81.446	0.113	0.038
-412.384	800.000	0.078	0.291
-411.369	-1.375	-0.213	0.152
-410.355	-97.791	-0.229	0.060
-409.340	315.454	0.090	0.171
-408.325	800.000	0.071	-0.262
-407.311	-200.000	-0.035	0.269
-406.296	-200.000	-0.030	0.219
-405.282	800.000	-0.087	-0.337
-404.267	432.208	0.063	-0.137
-403.252	800.000	0.055	0.239
-402.238	-131.880	-0.417	0.055
-401.223	55.987	0.106	-0.104
-400.209	-171.008	-0.253	0.009
-399.194	-200.000	0.011	0.165
-398.179	-45.983	0.429	-0.213
-397.165	-200.000	0.066	-0.369
-396.150	92.446	0.187	0.213
-395.136	-100.638	-0.122	-0.030
-394.121	-3.072	0.258	0.182
-393.106	62.423	-0.303	0.306
-392.092	-52.742	-0.113	0.053
-391.077	-175.218	-0.093	0.003
-390.063	-78.178	-0.332	0.115
-389.048	800.000	-0.062	-0.201
-388.033	28.534	-0.203	-0.173
-387.019	-86.034	-0.325	0.101
-386.004	-167.232	-0.238	-0.010
-384.990	110.282	-0.125	0.151
-383.975	124.166	-0.070	0.088
-382.960	13.255	0.101	0.079
-381.946	24.893	0.326	0.273
-380.931	-190.315	-0.341	0.004
-379.917	333.597	0.047	0.092
-378.902	-57.881	0.375	-0.165
-377.888	-145.920	-0.142	0.013
-376.873	-115.154	-0.091	-0.017
-375.858	-42.779	-0.071	0.037
-374.844	800.000	-0.044	-0.133
-373.829	-200.000	0.008	0.214
-372.815	800.000	-0.100	0.308
-371.800	41.452	-0.054	-0.049
-370.785	185.922	-0.090	0.136
-369.771	84.920	0.290	0.320
-368.756	800.000	-0.038	0.127
-367.742	-95.197	0.487	0.132
-366.727	35.652	-0.380	-0.337
-365.712	89.324	-0.124	-0.139
-364.698	-95.553	0.213	-0.057
-363.683	78.333	-0.073	0.079
-362.669	-200.000	-0.034	-0.231
-361.654	-4.874	0.079	-0.055
-360.639	-125.870	0.275	-0.042
-359.625	526.484	-0.173	-0.410
-358.610	-68.038	0.072	0.028
-357.596	72.860	0.080	-0.084
-356.581	-200.000	-0.027	0.211
-355.566	-54.869	0.205	0.093
-354.552	-200.000	-0.002	0.227
-353.537	-99.247	0.077	-0.020
-352.523	-200.000	0.027	0.169
-351.508	-165.933	0.235	-0.010
-350.493	441.922	-0.160	0.352
-349.479	-82.067	-0.200	-0.066
-348.464	-4.108	-0.157	-0.110
-347.450	85.195	0.068	0.075
-346.435	800.000	-0.070	0.237
-345.420	-200.000	0.006	0.046
-344.406	-129.465	0.270	0.038
-343.391	-111.043	-0.317	0.065
-342.377	-200.000	-0.036	-0.211
-341.362	40.423	0.082	0.074
-340.348	22.415	-0.209	0.172
-339.333	-102.771	0.250	-0.060
-338.318	638.127	-0.073	-0.188
-337.304	-124.060	-0.253	0.040
-336.289	-200.000	-0.037	0.185
-335.275	-145.493	-0.206	-0.019
-334.260	68.808	-0.160	-0.166
-333.245	-130.575	0.259	-0.035
-332.231	800.000	-0.060	0.194
-331.216	-70.003	-0.348	0.133
-330.202	378.866	0.052	-0.107
-329.187	-69.796	-0.254	-0.098
-328.172	588.141	-0.166	0.412
-327.158	464.093	-0.109	0.246
-326.143	-200.000	-0.039	0.204
-325.129	-28.649	0.277	0.160
-324.114	-87.596	-0.045	0.014
-323.099	-48.486	-0.261	0.127
-322.085	55.374	-0.076	-0.074
-321.070	-84.972	-0.428	-0.135
-320.056	-5.419	0.143	-0.099
-319.041	388.186	-0.118	0.246
-318.026	-50.176	0.282	-0.134
-317.012	158.287	0.057	-0.080
-315.997	-200.000	0.006	0.149
-314.983	102.465	-0.107	-0.126
-313.968	-146.134	-0.160	-0.014
-312.953	-40.782	-0.144	-0.075
-311.939	-7.840	-0.167	0.113
-310.924	89.726	0.006	-0.007
-309.910	-190.463	-0.319	0.003
-308.895	-200.000	-0.009	0.148
-307.880	-163.236	0.256	0.012
-306.866	800.000	-0.100	0.303
-305.851	100.622	-0.143	-0.167
-304.837	75.412	0.201	-0.213
-303.822	253.413	-0.104	0.178
-302.807	147.189	-0.014	-0.018
-301.793	525.590	0.013	0.030
-300.778	-200.000	0.012	0.113
-299.764	800.000	0.023	0.065
-298.749	620.193	-0.058	-0.147
-297.735	-109.974	0.648	-0.136
-296.720	513.424	0.057	0.135
-295.705	-200.000	0.010	0.068
-294.691	718.028	-0.032	0.087
-293.676	800.000	-0.056	0.205
-292.662	-200.000	-0.005	-0.202
-291.647	-90.586	-0.219	-0.064
-290.632	103.215	-0.176	-0.208
-289.618	83.571	-0.029	0.031
-288.603	-138.253	0.350	0.039
-287.589	65.616	0.078	-0.079
-286.574	800.000	0.082	-0.318
-285.559	-57.916	0.082	0.036
-284.545	213.284	-0.145	-0.231
-283.530	-99.945	-0.319	-0.080
-282.516	-59.502	0.200	0.086
-281.501	130.130	0.031	-0.040
-280.486	24.921	0.029	-0.024
-279.472	128.570	0.292	-0.374
-278.457	-16.618	-0.312	-0.199
-277.443	68.915	0.108	0.111
-276.428	-58.612	0.296	0.129
-275.413	174.604	-0.044	-0.064
-274.399	-200.000	0.076	0.622
-273.384	-78.839	-0.037	-0.013
-272.370	176.913	0.106	0.155
-271.355	-64.641	0.287	0.117
-270.340	-200.000	-0.004	-0.215
-269.326	79.497	-0.173	-0.187
-268.311	800.000	0.015	-0.042
-267.297	-134.578	-0.225	-0.028
-266.282	800.000	0.034	0.111
-265.267	800.000	0.131	0.471
-264.253	-200.000	-0.017	0.136
-263.238	-65.824	-0.129	-0.052
-262.224	800.000	0.073	0.236
-261.209	-167.328	-0.093	0.004
-260.195	-62.555	0.244	-0.102
-259.180	-200.000	-0.023	0.175
-258.165	-149.573	0.164	0.013
-257.151	793.732	0.054	0.148
-256.136	-10.274	0.228	0.152
-255.122	-40.310	-0.281	0.147
-254.107	-200.000	0.015	-0.076
-253.092	89.130	0.155	0.173
-252.078	65.880	-0.188	-0.191
-251.063	-155.586	-0.270	-0.017
-250.049	-55.041	0.370	-0.167
-249.034	37.411	0.325	0.290
-248.019	-61.116	0.235	0.099
-247.005	-127.655	-0.298	0.043
-245.990	-153.523	-0.184	-0.013
-244.976	103.635	0.145	-0.171
-243.961	-29.763	-0.204	0.117
-242.946	-57.850	0.260	-0.114
-241.932	-98.612	-0.143	0.037
-240.917	-78.278	-0.259	-0.089
-239.903	59.204	0.118	-0.116
-238.888	745.706	0.165	-0.445
-237.873	247.017	0.064	-0.109
-236.859	466.837	0.164	-0.369
-235.844	347.649	-0.058	0.115
-234.830	155.093	0.213	-0.293
-233.815	112.144	-0.132	0.161
-232.800	25.057	-0.074	0.061
-231.786	83.395	0.125	-0.137
-230.771	90.945	0.010	0.011
-229.757	267.527	0.161	0.282
-228.742	800.000	-0.069	0.229
-227.727	45.397	0.139	-0.128
-226.713	-152.142	0.266	-0.019
-225.698	10.771	-0.220	0.168
-224.684	-17.464	-0.115	-0.073
-223.669	-110.376	0.131	-0.027
-222.655	538.506	0.129	-0.308
-221.640	74.072	-0.055	-0.058
-220.625	128.813	0.051	-0.065
-219.611	-74.124	0.157	-0.057
-218.596	796.446	0.062	-0.172
-217.582	-39.217	0.309	-0.162
-216.567	82.036	0.159	0.172
-215.552	64.493	0.295	-0.298
-214.538	-200.000	-0.015	0.141
-213.523	-14.530	-0.180	0.116
-212.509	800.000	0.050	0.140
-211.494	62.278	0.250	0.250
-210.479	708.001	0.156	0.413
-209.465	-154.227	0.166	0.011
-208.450	147.199	0.021	-0.028
-207.436	-97.242	-0.131	0.034
-206.421	-150.991	-0.235	-0.018
-205.406	206.216	0.079	0.123
-204.392	217.842	-0.105	0.168
-203.377	136.947	-0.127	-0.167
-202.363	164.946	0.057	0.081
-201.348	-54.704	0.261	0.118
-200.333	-127.062	0.329	0.048
-199.319	800.000	0.112	-0.351
-198.304	-200.000	0.013	0.103
-197.290	-200.000	-0.009	0.157
-196.275	-188.273	0.403	0.005
-195.260	313.474	-0.077	0.144
-194.246	-200.000	-0.035	-0.173
-193.231	-17.918	0.160	-0.100
-192.217	153.631	-0.088	-0.121
-191.202	466.983	-0.116	-0.260
-190.187	-54.505	-0.073	-0.033
-189.173	41.536	0.100	-0.090
-188.158	115.901	0.160	-0.196
-187.144	-200.000	0.114	-0.511
-186.129	-76.152	-0.221	-0.078
-185.114	108.703	-0.073	0.087
-184.100	-100.827	0.354	-0.087
-183.085	-15.357	0.141	-0.090
-182.071	-94.835	-0.233	-0.063
-181.056	-23.664	-0.344	0.206
-180.042	178.186	0.019	-0.028
-179.027	-40.108	0.049	0.025
-178.012	-143.073	-0.185	0.018
-176.998	724.558	-0.081	0.216
-175.983	-39.374	0.180	0.095
-174.969	-36.509	-0.236	-0.127
-173.954	-73.636	0.133	0.049
-172.939	185.535	0.133	-0.198
-171.925	278.363	0.325	-0.580
-170.910	271.669	0.173	0.305
-169.896	70.970	-0.014	0.015
-168.881	-3.876	-0.291	0.202
-167.866	-117.341	0.331	0.060
-166.852	-11.497	-0.140	-0.092
-165.837	76.636	-0.035	0.037
-164.823	91.493	-0.063	-0.071
-163.808	714.397	-0.088	0.233
-162.793	-120.887	0.329	0.055
-161.779	72.502	0.260	0.271
-160.764	58.691	0.199	0.195
-159.750	-111.884	0.310	0.063
-158.735	328.335	0.113	-0.218
-157.720	-200.000	-0.062	-0.416
-156.706	-63.437	0.256	0.105
-155.691	88.153	-0.186	0.206
-154.677	63.571	-0.145	0.146
-153.662	241.107	0.113	-0.188
-152.647	-45.155	0.097	0.048
-151.633	-162.742	0.259	-0.013
-150.618	196.136	-0.250	0.381
-149.604	-67.892	-0.343	0.134
-148.589	104.369	0.181	0.213
-147.574	-48.038	0.271	0.131
-146.560	-200.000	-0.005	0.248
-145.545	106.739	0.224	0.266
-144.531	-154.027	0.112	-0.008
-143.516	-91.443	0.084	-0.024
-142.502	119.200	0.106	-0.131
-141.487	76.417	0.139	-0.148
-140.472	619.010	-0.049	-0.123
-139.458	66.877	-0.081	-0.082
-138.443	800.000	0.084	-0.273
-137.429	-3.388	0.138	0.096
-136.414	-23.764	0.231	-0.138
-135.399	73.602	0.198	-0.208
-134.385	-103.157	-0.235	0.056
-133.370	-150.850	-0.205	-0.016
-132.356	364.238	0.218	0.437
-131.341	-83.600	-0.217	-0.069
-130.326	398.080	0.060	0.125
-129.312	60.797	0.340	0.337
-128.297	-178.022	-0.077	-0.002
-127.283	-200.000	-0.055	0.360
-126.268	-200.000	0.027	0.236
-125.253	-112.757	0.219	0.044
-124.239	7.278	0.202	-0.150
-123.224	153.651	0.095	0.130
-122.210	-67.783	0.360	-0.141
-121.195	-200.000	0.009	-0.236
-120.180	800.000	-0.055	-0.182
-119.166	165.270	0.043	0.060
-118.151	-113.443	-0.145	-0.028
-117.137	324.750	0.045	0.085
-116.122	-6.813	0.191	0.130
-115.107	-44.747	0.167	-0.083
-114.093	165.869	-0.176	0.248
-113.078	261.382	0.055	-0.095
-112.064	137.729	0.293	-0.382
-111.049	-27.849	0.244	-0.141
-110.034	-108.451	-0.117	0.025
-109.020	34.037	0.193	-0.168
-108.005	-123.805	0.361	-0.057
-106.991	0.711	-0.078	-0.055
-105.976	102.054	-0.202	-0.236
-104.962	-89.778	0.516	0.151
-103.947	-80.748	-0.329	0.109
-102.932	309.609	-0.227	0.423
-101.918	-50.730	-0.070	0.033
-100.903	-149.458	-0.194	0.015
-99.889	-84.429	-0.208	-0.066
-98.874	55.794	0.084	-0.081
-97.859	-68.769	0.056	0.022
-96.845	-200.000	-0.008	0.249
-95.830	-200.000	-0.022	-0.230
-94.816	401.440	0.058	-0.122
-93.801	180.603	0.191	-0.279
-92.786	17.409	-0.048	0.038
-91.772	36.420	0.057	0.051
-90.757	800.000	-0.085	0.364
-89.743	363.449	0.112	0.224
-88.728	-143.900	0.482	0.045
-87.713	762.396	-0.079	-0.215
-86.699	147.639	0.209	-0.281
-85.684	800.000	0.053	-0.149
-84.670	-20.219	0.310	0.190
-83.655	800.000	0.032	-0.121
-82.640	38.477	-0.204	0.181
-81.626	124.039	0.336	0.421
-80.611	685.028	-0.097	-0.252
-79.597	800.000	0.036	0.130
-78.582	-45.822	0.316	0.156
-77.567	-200.000	0.004	-0.117
-76.553	-124.380	-0.096	0.015
-75.538	-111.319	-0.102	-0.021
-74.524	170.033	-0.111	-0.159
-73.509	13.184	0.017	-0.013
-72.494	134.863	-0.295	0.382
-71.480	153.172	-0.103	-0.141
-70.465	-200.000	-0.007	-0.344
-69.451	144.284	0.115	-0.153
-68.436	561.471	0.063	-0.153
-67.422	-200.000	-0.033	0.202
-66.407	68.802	0.202	-0.207
-65.392	-19.017	0.092	0.057
-64.378	94.718	0.036	0.041
-63.363	-73.063	-0.242	-0.089
-62.349	371.049	0.067	-0.135
-61.334	13.292	-0.850	-0.656
-60.319	-200.000	0.016	0.086
-59.305	-200.000	-0.101	-0.773
-58.290	78.814	0.606	0.646
-57.276	596.299	0.694	1.712
-56.261	-200.000	75.715	525.185
-55.246	548.008	1307.579	3118.758
-54.232	145.860	2551.808	3407.727
-53.217	112.194	2351.938	2831.987
-52.203	51.402	1966.866	1860.664
-51.188	45.337	1754.838	1612.383
-50.173	42.365	1708.964	1547.300
-49.159	56.720	1742.771	1689.611
-48.144	62.525	1760.693	1751.908
-47.130	45.236	1724.573	1583.543
-46.115	41.973	1710.979	1545.852
-45.100	41.808	1706.621	1540.577
-44.086	41.746	1703.933	1537.611
-43.071	41.742	1701.050	1534.920
-42.057	41.662	1698.885	1532.290
-41.042	41.736	1696.846	1530.957
-40.027	41.770	1694.999	1529.492
-39.013	41.792	1692.438	1527.292
-37.998	41.773	1690.834	1525.634
-36.984	41.758	1689.214	1523.998
-35.969	41.916	1687.709	1523.788
-34.954	41.875	1686.610	1522.421
-33.940	41.827	1684.808	1520.365
-32.925	41.916	1682.222	1518.647
-31.911	41.864	1680.527	1516.665
-30.896	41.931	1678.736	1515.495
-29.881	41.916	1677.142	1513.882
-28.867	41.922	1675.622	1512.493
-27.852	41.816	1674.210	1510.359
-26.838	41.913	1672.400	1509.398
-25.823	41.864	1670.995	1507.705
-24.809	41.917	1669.364	1506.572
-23.794	41.874	1667.926	1504.888
-22.779	41.890	1666.397	1503.567
-21.765	41.868	1664.823	1501.927
-20.750	41.861	1663.119	1500.275
-19.736	41.956	1661.037	1499.053
-18.721	41.929	1660.417	1498.226
-17.706	41.998	1658.274	1496.755
-16.692	41.855	1657.109	1494.574
-15.677	41.851	1655.772	1493.277
-14.663	41.907	1654.590	1492.572
-13.648	41.947	1653.009	1491.382
-12.633	41.857	1651.506	1489.300
-11.619	41.879	1649.958	1488.004
-10.604	41.949	1647.883	1486.596
-9.590	41.832	1646.938	1484.818
-8.575	41.874	1645.234	1483.530
-7.560	41.957	1643.790	1482.783
-6.546	41.850	1643.052	1481.268
-5.531	41.884	1641.929	1480.447
-4.517	41.822	1640.791	1478.905
-3.502	41.940	1639.260	1478.340
-2.487	41.941	1637.967	1477.122
-1.473	41.913	1626.746	1466.741
-0.458	39.441	1607.825	1431.679
0.556	34.831	1606.582	1397.842
1.571	32.350	1630.977	1400.493
2.586	31.445	1646.609	1406.983
3.600	27.628	1591.805	1332.204
4.615	14.930	1469.329	1143.351
5.629	3.261	1392.814	1007.710
6.644	0.942	1382.969	985.415
7.659	0.828	1381.203	983.333
8.673	0.868	1379.506	982.295
9.688	0.782	1378.254	980.757
10.702	0.580	1375.516	977.415
11.717	4.602	1383.992	1009.509
12.731	16.112	1406.170	1101.153
13.746	23.791	1419.160	1161.638
14.761	24.450	1419.210	1165.882
15.775	24.514	1418.200	1165.367
16.790	24.620	1417.888	1165.695
17.804	24.540	1417.493	1164.750
18.819	24.814	1417.099	1166.106
19.834	24.799	1416.051	1165.041
20.848	24.811	1415.278	1164.385
21.863	24.865	1414.956	1164.369
22.877	24.847	1413.919	1163.295
23.892	24.903	1412.582	1162.455
24.907	24.855	1411.874	1161.455
25.921	24.913	1410.806	1160.849
26.936	24.960	1409.899	1160.307
27.950	24.806	1409.324	1158.734
28.965	24.814	1407.799	1157.427
29.980	24.822	1406.285	1156.136
30.994	24.786	1405.218	1154.920
32.009	24.839	1403.701	1153.913
33.023	24.885	1402.365	1153.013
34.038	24.860	1401.520	1152.052
35.053	24.757	1400.922	1150.794
36.067	24.772	1399.693	1149.780
37.082	24.852	1398.899	1149.541
38.096	24.929	1397.261	1148.590
39.111	24.792	1397.042	1147.430
40.126	24.866	1395.941	1146.894
41.140	24.806	1395.914	1146.388
42.155	24.811	1395.578	1146.042
43.169	24.846	1395.303	1145.937
44.184	24.899	1394.794	1145.758
45.199	24.738	1395.034	1144.823
46.213	24.874	1393.655	1144.458
47.228	24.838	1393.379	1143.900
48.242	24.850	1391.766	1142.552
49.257	24.933	1390.301	1141.776
50.271	24.864	1388.991	1140.164
51.286	24.875	1387.582	1138.975
52.301	24.929	1386.093	1137.995
53.315	24.921	1385.275	1137.173
54.330	24.776	1384.849	1135.801
55.344	24.808	1383.550	1134.838
56.359	24.831	1382.146	1133.732
57.374	24.823	1381.755	1133.264
58.388	24.895	1380.569	1132.642
59.403	24.874	1380.594	1132.428
60.417	24.962	1379.472	1131.967
61.432	24.900	1378.803	1130.923
62.447	24.948	1378.123	1130.574
63.461	24.848	1376.964	1128.888
64.476	24.805	1376.017	1127.743
65.490	24.884	1374.921	1127.241
66.505	24.935	1372.996	1125.887
67.520	24.863	1372.198	1124.676
68.534	24.859	1370.809	1123.414
69.549	24.856	1370.040	1122.668
70.563	24.923	1369.304	1122.386
71.578	24.865	1368.098	1120.931
72.593	24.815	1367.394	1119.944
73.607	24.904	1366.311	1119.515
74.622	24.955	1365.451	1119.028
75.636	24.873	1365.363	1118.347
76.651	24.789	1364.725	1117.202
77.666	24.901	1363.901	1117.127
78.680	24.899	1363.311	1116.532
79.695	24.873	1362.437	1115.555
80.709	24.758	1361.777	1114.196
81.724	24.904	1360.689	1114.120
82.739	24.951	1359.699	1113.505
83.753	24.831	1358.846	1111.959
84.768	24.930	1357.708	1111.543
85.782	24.880	1356.337	1110.014
86.797	24.835	1355.281	1108.775
87.812	24.879	1354.483	1108.290
88.826	24.897	1353.101	1107.176
89.841	24.893	1352.451	1106.522
90.855	24.903	1351.158	1105.426
91.870	24.879	1349.981	1104.217
92.884	24.902	1349.430	1103.812
93.899	24.943	1348.474	1103.183
94.914	24.894	1348.028	1102.422
95.928	24.897	1347.505	1101.916
96.943	24.897	1346.239	1100.783
97.957	24.848	1345.803	1100.023
98.972	24.972	1344.900	1099.951
99.987	25.019	1343.610	1099.087
101.001	24.902	1342.588	1097.440
102.016	25.010	1341.346	1096.984
103.030	24.901	1340.763	1095.746
104.045	24.862	1340.414	1095.127
105.060	24.970	1338.687	1094.279
106.074	24.924	1337.916	1093.270
107.089	25.040	1336.904	1093.052
108.103	24.968	1335.668	1091.509
109.118	24.994	1335.107	1091.110
110.133	24.922	1334.023	1089.690
111.147	25.068	1332.370	1089.130
112.162	25.016	1331.569	1088.064
113.176	25.063	1330.248	1087.175
114.191	24.958	1329.553	1085.875
115.206	25.047	1328.364	1085.343
116.220	24.997	1327.429	1084.180
117.235	24.916	1326.600	1082.917
118.249	25.008	1325.482	1082.463
119.264	24.934	1324.751	1081.325
120.279	25.070	1323.534	1081.058
121.293	25.006	1322.893	1080.054
122.308	25.000	1322.370	1079.493
123.322	25.066	1321.227	1078.864
124.337	25.118	1320.261	1078.293
125.352	25.010	1319.828	1077.191
126.366	25.109	1318.754	1076.819
127.381	25.090	1317.334	1075.445
128.395	25.165	1316.490	1075.110
129.410	25.022	1316.179	1073.907
130.424	25.034	1315.425	1073.265
131.439	25.003	1314.730	1072.418
132.454	25.015	1313.805	1071.640
133.468	24.981	1313.596	1071.176
134.483	25.006	1312.785	1070.570
135.497	25.002	1311.731	1069.590
136.512	25.078	1310.542	1068.976
137.527	24.988	1309.875	1067.802
138.541	25.032	1308.358	1066.732
139.556	24.964	1307.199	1065.292
140.570	24.971	1306.407	1064.590
141.585	25.014	1305.025	1063.629
142.600	25.077	1303.644	1062.781
143.614	25.050	1303.011	1062.008
144.629	25.018	1301.867	1060.797
145.643	25.092	1300.510	1060.035
146.658	25.041	1299.714	1058.987
147.673	25.039	1298.696	1058.056
148.687	25.087	1297.697	1057.430
149.702	24.950	1296.931	1055.905
150.716	25.050	1295.467	1055.207
151.731	25.025	1294.716	1054.359
152.746	24.942	1293.722	1052.967
153.760	24.962	1292.403	1051.919
154.775	25.064	1291.565	1051.737
155.789	25.088	1290.661	1051.052
156.804	24.973	1289.759	1049.551
157.819	25.043	1288.926	1049.189
158.833	24.935	1288.389	1048.029
159.848	25.063	1287.510	1047.970
160.862	25.106	1286.547	1047.342
161.877	25.136	1285.831	1046.841
162.892	25.010	1285.274	1045.562
163.906	25.035	1284.487	1044.971
164.921	25.099	1283.570	1044.506
165.935	25.173	1282.437	1043.925
166.950	25.158	1281.645	1043.100
167.964	25.122	1281.404	1042.600
168.979	25.057	1281.104	1041.887
169.994	25.090	1280.374	1041.391
171.008	25.108	1279.534	1040.722
172.023	25.138	1278.973	1040.351
173.037	25.201	1277.775	1039.649
174.052	25.205	1276.893	1038.863
175.067	25.081	1276.244	1037.525
176.081	25.135	1275.659	1037.268
177.096	25.103	1274.964	1036.425
178.110	25.202	1273.841	1035.993
179.125	25.137	1273.096	1034.923
180.140	25.183	1271.720	1033.977
181.154	25.188	1270.344	1032.797
182.169	25.160	1269.455	1031.819
183.183	25.202	1268.328	1031.054
184.198	25.101	1267.809	1029.962
185.213	25.192	1266.657	1029.455
186.227	25.190	1265.900	1028.740
187.242	25.325	1264.832	1028.552
188.256	25.218	1264.140	1027.283
189.271	25.227	1263.232	1026.506
190.286	25.210	1262.542	1025.760
191.300	25.080	1262.228	1024.669
192.315	25.224	1261.385	1024.715
193.329	25.183	1261.120	1024.176
194.344	25.209	1260.689	1023.886
195.359	25.243	1260.131	1023.536
196.373	25.187	1259.502	1022.614
197.388	25.167	1259.720	1022.586
198.402	25.134	1259.047	1021.760
199.417	25.205	1258.558	1021.681
200.432	25.210	1257.729	1020.945
201.446	25.230	1256.731	1020.157
202.461	25.178	1256.311	1019.432
203.475	25.178	1255.685	1018.833
204.490	25.202	1254.693	1018.073
205.504	25.288	1253.491	1017.496
206.519	25.227	1252.867	1016.555
207.534	25.236	1251.618	1015.500
208.548	25.275	1250.547	1014.763
209.563	25.326	1249.890	1014.430
210.577	25.322	1249.242	1013.792
211.592	25.293	1248.408	1012.859
212.607	25.377	1247.394	1012.419
213.621	25.421	1246.186	1011.598
214.636	25.407	1246.000	1011.282
215.650	25.334	1245.012	1009.979
216.665	25.208	1244.412	1008.695
217.680	25.333	1243.214	1008.335
218.694	25.394	1242.352	1007.890
219.709	25.406	1241.590	1007.248
220.723	25.411	1241.044	1006.743
221.738	25.223	1240.236	1004.945
222.753	25.197	1239.628	1004.223
223.767	25.372	1238.645	1004.312
224.782	25.543	1238.204	1004.825
225.796	25.410	1238.066	1003.878
226.811	25.433	1237.366	1003.352
227.826	25.483	1236.525	1002.859
228.840	25.444	1235.887	1002.037
229.855	25.378	1235.453	1001.228
230.869	25.387	1234.576	1000.476
231.884	25.538	1234.060	1000.809
232.899	25.379	1233.229	999.166
233.913	25.354	1232.936	998.700
234.928	25.486	1232.124	998.685
235.942	25.536	1231.642	998.485
236.957	25.536	1230.660	997.602
237.972	25.405	1230.192	996.405
238.986	25.512	1229.277	996.173
240.001	25.585	1228.912	996.193
241.015	25.544	1228.077	995.203
242.030	25.625	1227.526	995.115
243.045	25.738	1226.149	994.536
244.059	25.674	1225.651	993.688
245.074	25.572	1224.966	992.479
246.088	25.586	1224.008	991.696
247.103	25.588	1223.734	991.397
248.117	25.601	1222.768	990.597
249.132	25.561	1221.993	989.663
250.147	25.738	1220.650	989.457
251.161	25.835	1220.072	989.438
252.176	25.667	1219.957	988.335
253.190	25.693	1219.264	987.824
254.205	25.721	1218.536	987.302
255.220	25.720	1217.630	986.476
256.234	25.627	1217.191	985.523
257.249	25.751	1216.659	985.686
258.263	25.726	1216.038	984.956
259.278	25.726	1215.339	984.303
260.293	25.672	1215.138	983.757
261.307	25.735	1214.778	983.722
262.322	25.722	1213.608	982.618
263.336	25.748	1212.922	982.121
264.351	25.649	1212.662	981.283
265.366	25.822	1211.528	981.218
266.380	25.779	1211.355	980.761
267.395	25.774	1210.105	979.635
268.409	25.689	1210.011	979.006
269.424	25.679	1209.472	978.431
270.439	25.861	1208.828	978.809
271.453	25.722	1208.276	977.522
272.468	25.660	1207.656	976.599
273.482	25.593	1206.755	975.419
274.497	25.854	1206.227	976.323
275.512	25.769	1205.961	975.559
276.526	25.864	1205.080	975.275
277.541	25.773	1204.434	974.174
278.555	25.867	1203.531	973.863
279.570	25.889	1202.648	973.182
280.585	25.788	1202.132	972.131
281.599	25.855	1201.046	971.533
282.614	25.813	1200.215	970.547
283.628	25.909	1199.414	970.328
284.643	25.928	1198.589	969.680
285.657	25.966	1197.497	968.913
286.672	25.910	1196.580	967.787
287.687	25.990	1195.716	967.428
288.701	26.045	1195.292	967.296
289.716	25.995	1195.003	966.709
290.730	25.935	1194.369	965.791
291.745	25.967	1193.513	965.184
292.760	26.082	1192.566	964.949
293.774	26.000	1192.195	964.125
294.789	25.937	1192.130	963.650
295.803	25.902	1191.356	962.752
296.818	26.101	1190.120	962.730
297.833	26.137	1189.461	962.303
298.847	26.089	1189.392	961.905
299.862	26.092	1188.699	961.276
300.876	25.950	1187.884	959.777
301.891	26.096	1187.210	959.921
302.906	26.019	1186.705	959.016
303.920	26.163	1185.586	958.795
304.935	26.156	1185.113	958.289
305.949	26.129	1184.392	957.478
306.964	26.187	1183.488	956.971
307.979	26.222	1183.050	956.719
308.993	26.192	1182.759	956.236
310.008	26.147	1181.621	954.996
311.022	26.145	1180.968	954.371
312.037	26.207	1180.350	954.114
313.052	26.176	1179.424	953.122
314.066	26.077	1178.597	951.848
315.081	26.054	1178.066	951.213
316.095	26.146	1177.230	950.935
317.110	26.203	1176.698	950.722
318.125	26.272	1175.716	950.209
319.139	26.229	1175.258	949.530
320.154	26.260	1174.955	949.361
321.168	26.298	1174.323	948.968
322.183	26.233	1173.803	948.120
323.197	26.184	1173.136	947.243
324.212	26.277	1172.537	947.164
325.227	26.311	1171.943	946.778
326.241	26.363	1171.526	946.626
327.256	26.343	1170.410	945.540
328.270	26.285	1170.109	944.907
329.285	26.377	1168.922	944.346
330.300	26.253	1168.232	943.060
331.314	26.323	1167.655	942.873
332.329	26.205	1167.109	941.733
333.343	26.453	1165.772	941.863
334.358	26.457	1164.965	941.148
335.373	26.467	1164.366	940.636
336.387	26.474	1163.635	939.994
337.402	26.488	1162.830	939.335
338.416	26.438	1162.466	938.697
339.431	26.473	1161.730	938.205
340.446	26.554	1161.074	938.010
341.460	26.500	1160.370	937.080
342.475	26.535	1159.958	936.843
343.489	26.507	1158.570	935.497
344.504	26.623	1157.661	935.280
345.519	26.642	1157.014	934.769
346.533	26.543	1156.315	933.611
347.548	26.495	1155.717	932.799
348.562	26.548	1155.110	932.501
349.577	26.513	1153.981	931.326
350.592	26.514	1153.221	930.638
351.606	26.593	1152.716	930.550
352.621	26.693	1152.197	930.565
353.635	26.601	1151.488	929.437
354.650	26.637	1150.816	928.997
355.665	26.526	1150.267	927.903
356.679	26.644	1149.422	927.745
357.694	26.609	1149.260	927.351
358.708	26.669	1148.300	926.803
359.723	26.734	1147.472	926.381
360.738	26.592	1147.270	925.411
361.752	26.750	1146.135	925.221
362.767	26.655	1145.674	924.281
363.781	26.762	1145.216	924.377
364.796	26.834	1144.945	924.446
365.810	26.780	1144.040	923.356
366.825	26.803	1143.447	922.911
367.840	26.786	1143.070	922.441
368.854	26.886	1142.248	922.206
369.869	26.902	1141.570	921.654
370.883	26.892	1140.760	920.870
371.898	26.923	1140.072	920.390
372.913	26.840	1139.647	919.544
373.927	26.840	1139.426	919.285
374.942	26.793	1138.682	918.365
375.956	26.826	1138.320	918.162
376.971	26.923	1137.819	918.166
377.986	26.931	1136.905	917.389
379.000	26.968	1136.564	917.218
380.015	26.958	1135.968	916.605
381.029	26.898	1135.191	915.593
382.044	26.908	1134.780	915.231
383.059	26.976	1134.069	914.921
384.073	27.133	1133.155	914.892
385.088	27.001	1132.401	913.539
386.102	27.061	1131.571	913.090
387.117	26.972	1130.646	911.814
388.132	26.872	1129.934	910.659
389.146	26.967	1129.691	910.858
390.161	27.054	1128.546	910.293
391.175	27.043	1127.704	909.475
392.190	27.085	1127.122	909.135
393.205	27.053	1126.527	908.416
394.219	27.056	1126.094	908.001
395.234	27.196	1124.924	907.675
396.248	27.102	1124.091	906.456
397.263	27.150	1123.349	906.017
398.278	27.099	1123.029	905.422
399.292	27.096	1122.156	904.626
400.307	27.185	1121.752	904.661
401.321	27.222	1121.020	904.175
402.336	27.136	1120.299	903.088
403.350	27.112	1119.946	902.605
404.365	27.272	1119.025	902.574
405.380	27.195	1118.300	901.529
406.394	27.404	1117.195	901.593
407.409	27.285	1117.077	900.829
408.423	27.266	1115.928	899.727
409.438	27.351	1114.901	899.240
410.453	27.288	1114.812	898.777
411.467	27.350	1113.881	898.253
412.482	27.300	1113.320	897.474
413.496	27.397	1112.740	897.407
414.511	27.368	1112.152	896.713
415.526	27.294	1111.875	896.043
416.540	27.326	1111.440	895.771
417.555	27.341	1110.749	895.209
418.569	27.422	1110.210	895.093
419.584	27.396	1109.372	894.213
420.599	27.527	1109.306	894.724
421.613	84.812	1294.539	1359.608
422.628	79.611	1321.524	1359.748
