DTS Sentinel unit serial number:	SN413079Multiplexer serial number:	ORYXHardware model number:	OX4-SRSoftware version number:	ORYX F/W v4.00 Oryx Data Collector v3.7.2.0data status	okinstallation	princeton_trtdifferential loss correction	single-endedforward channel	channel 2reverse channel	N/Adate	2019/09/13time	01:43:35forward acquisition time	60.00reverse acquisition time	0.00gamma	496.2192k internal	0.2334k external	0.2334temperature offset calibration	1.0174default loss term (dB/km)	0.3790temperature slope calibration	1.0000multiplexer offset coefficient	1.0000multiplexer slope coefficient	1.0000fibre end	0.00T internal ref (°C)	27.72T ext. ref 1 (°C)	3.79T ext. ref 2 (°C)	22.35length (m)	temperature (°C)	Stokes	anti-Stokes-747.200	-53.732	0.208	0.096
-746.185	94.789	-0.276	0.316
-745.171	-15.421	-0.148	0.095
-744.156	61.115	-0.052	0.052
-743.142	171.521	0.189	-0.273
-742.127	-200.000	-0.070	0.459
-741.112	-200.000	0.032	-0.307
-740.098	238.984	-0.147	0.246
-739.083	429.598	-0.069	-0.149
-738.069	-200.000	0.049	0.352
-737.054	245.067	-0.225	0.380
-736.039	106.392	-0.164	-0.196
-735.025	373.732	0.144	0.295
-734.010	-177.810	-0.316	0.008
-732.996	114.608	-0.091	-0.111
-731.981	-143.461	-0.030	-0.003
-730.966	-200.000	-0.035	0.295
-729.952	22.096	-0.155	0.127
-728.937	56.197	-0.095	-0.093
-727.923	800.000	-0.042	-0.185
-726.908	-59.893	-0.260	-0.112
-725.894	23.490	-0.165	0.136
-724.879	800.000	-0.058	-0.162
-723.864	332.405	-0.115	0.223
-722.850	-200.000	-0.018	-0.084
-721.835	165.306	0.104	-0.147
-720.821	39.368	-0.046	0.042
-719.806	-200.000	0.023	0.194
-718.791	107.228	-0.075	0.089
-717.777	158.947	-0.345	-0.482
-716.762	496.793	0.161	-0.372
-715.748	-8.367	-0.224	-0.151
-714.733	266.421	-0.052	-0.092
-713.718	228.971	0.180	-0.294
-712.704	-85.608	0.204	-0.064
-711.689	-200.000	0.021	-0.231
-710.675	-200.000	0.031	0.234
-709.660	-77.025	-0.121	-0.042
-708.645	114.430	-0.140	-0.172
-707.631	-53.814	0.051	0.024
-706.616	-28.674	0.213	-0.123
-705.602	138.487	0.108	0.143
-704.587	-19.892	0.149	0.092
-703.572	800.000	-0.057	0.172
-702.558	-180.438	-0.139	-0.003
-701.543	791.826	0.100	0.275
-700.529	-7.421	-0.060	0.041
-699.514	-200.000	0.011	-0.113
-698.499	-20.159	-0.241	-0.149
-697.485	-200.000	0.005	-0.336
-696.470	-110.262	0.087	-0.018
-695.456	-106.104	-0.252	-0.057
-694.441	490.499	-0.003	0.008
-693.426	-50.414	-0.453	0.215
-692.412	308.874	0.150	-0.282
-691.397	-74.525	-0.167	-0.060
-690.383	25.162	0.138	-0.115
-689.368	-136.650	-0.195	-0.023
-688.354	-149.485	-0.218	0.017
-687.339	-200.000	0.026	0.240
-686.324	-127.528	0.150	-0.022
-685.310	-44.168	-0.434	-0.218
-684.295	-200.000	0.090	-0.516
-683.281	-200.000	0.009	0.104
-682.266	127.596	0.083	0.105
-681.251	107.257	-0.116	-0.139
-680.237	89.390	0.041	0.046
-679.222	-42.671	-0.179	0.091
-678.208	-200.000	0.037	-0.310
-677.193	-79.444	-0.179	-0.061
-676.178	-15.524	-0.274	-0.175
-675.164	800.000	-0.117	0.361
-674.149	-166.515	0.257	0.011
-673.135	25.472	-0.269	0.224
-672.120	147.028	-0.220	-0.297
-671.105	106.826	0.089	-0.106
-670.091	-129.779	-0.264	-0.036
-669.076	800.000	0.065	0.278
-668.062	33.392	-0.108	0.094
-667.047	246.401	0.077	-0.130
-666.032	-52.835	-0.175	0.081
-665.018	248.718	0.248	0.421
-664.003	164.882	-0.152	-0.215
-662.989	800.000	-0.028	-0.083
-661.974	-200.000	-0.010	0.133
-660.959	-200.000	-0.017	-0.395
-659.945	27.587	-0.317	0.267
-658.930	-200.000	-0.035	0.583
-657.916	-3.584	-0.337	-0.235
-656.901	194.543	-0.126	-0.192
-655.886	-200.000	-0.004	0.286
-654.872	5.501	-0.131	0.097
-653.857	202.742	0.099	-0.153
-652.843	-170.876	-0.284	-0.010
-651.828	65.376	-0.271	-0.275
-650.814	800.000	-0.017	0.064
-649.799	5.025	0.053	-0.039
-648.784	640.591	0.027	-0.070
-647.770	-161.044	0.188	0.010
-646.755	137.833	-0.117	-0.153
-645.741	71.899	-0.191	0.199
-644.726	121.049	-0.201	-0.250
-643.711	526.862	0.012	-0.029
-642.697	140.053	-0.138	-0.183
-641.682	25.995	0.182	-0.152
-640.668	126.021	0.186	-0.236
-639.653	394.486	-0.095	0.199
-638.638	-10.545	-0.166	-0.110
-637.624	-19.141	-0.398	-0.247
-636.609	800.000	0.097	-0.329
-635.595	-200.000	0.004	0.171
-634.580	-38.894	0.120	-0.063
-633.565	-107.460	-0.146	0.032
-632.551	-164.748	-0.298	-0.013
-631.536	-4.443	-0.082	0.056
-630.522	146.140	-0.140	0.189
-629.507	652.341	-0.035	-0.090
-628.492	-63.098	0.353	0.146
-627.478	42.031	0.096	0.087
-626.463	673.114	0.163	0.424
-625.449	-200.000	-0.002	-0.026
-624.434	-0.150	-0.201	-0.143
-623.419	711.266	-0.037	0.097
-622.405	-200.000	0.046	0.276
-621.390	-119.738	-0.204	0.035
-620.376	-59.048	-0.111	-0.048
-619.361	-125.830	0.036	0.005
-618.346	-177.840	-0.214	-0.005
-617.332	-200.000	0.022	0.195
-616.317	-200.000	-0.022	-0.128
-615.303	51.806	-0.054	0.051
-614.288	-200.000	-0.036	0.217
-613.273	-52.762	0.096	-0.044
-612.259	316.220	-0.095	0.180
-611.244	13.535	0.115	0.089
-610.230	-75.510	0.105	-0.037
-609.215	-74.031	-0.260	0.094
-608.201	79.806	0.123	0.132
-607.186	9.669	0.121	-0.092
-606.171	710.940	0.060	-0.159
-605.157	-62.801	-0.103	0.043
-604.142	-200.000	-0.047	-0.272
-603.128	-200.000	-0.006	0.031
-602.113	-97.431	-0.255	-0.066
-601.098	299.278	0.179	-0.329
-600.084	554.456	-0.142	0.342
-599.069	532.024	-0.125	-0.297
-598.055	-126.748	-0.413	0.061
-597.040	-43.045	0.120	0.061
-596.025	-156.069	0.396	-0.025
-595.011	-52.363	-0.142	-0.066
-593.996	31.373	0.167	-0.143
-592.982	800.000	0.072	0.243
-591.967	-40.612	0.089	0.046
-590.952	800.000	-0.015	0.046
-589.938	-72.264	0.151	-0.056
-588.923	800.000	-0.145	-0.455
-587.909	-71.971	0.214	-0.080
-586.894	-96.221	0.307	0.081
-585.879	-167.880	-0.274	-0.011
-584.865	45.451	-0.186	-0.172
-583.850	637.275	0.040	-0.101
-582.836	61.506	-0.224	-0.223
-581.821	293.483	0.143	0.261
-580.806	356.905	-0.146	-0.290
-579.792	473.461	0.059	-0.132
-578.777	-125.468	-0.200	-0.030
-577.763	-200.000	0.044	-0.230
-576.748	-102.828	-0.117	-0.028
-575.733	-99.194	0.274	-0.069
-574.719	-162.995	0.216	0.010
-573.704	10.437	0.266	-0.202
-572.690	-174.214	-0.447	-0.013
-571.675	-99.767	0.176	-0.044
-570.661	-88.893	0.164	-0.049
-569.646	-173.994	0.367	-0.011
-568.631	-200.000	0.002	-0.364
-567.617	41.187	0.206	-0.186
-566.602	-200.000	0.068	0.483
-565.588	-200.000	-0.029	-0.208
-564.573	290.983	-0.172	-0.313
-563.558	-64.355	-0.286	-0.116
-562.544	59.275	-0.215	-0.211
-561.529	-132.665	-0.164	-0.021
-560.515	-158.698	-0.209	-0.012
-559.500	-37.966	-0.154	0.082
-558.485	-33.900	-0.169	0.093
-557.471	159.660	0.163	0.226
-556.456	-49.410	0.191	0.091
-555.442	-44.141	-0.185	-0.093
-554.427	800.000	-0.102	0.349
-553.412	-200.000	0.049	-0.277
-552.398	247.033	-0.133	-0.225
-551.383	-104.430	-0.152	0.035
-550.369	-200.000	-0.047	0.242
-549.354	-86.739	-0.240	-0.073
-548.339	-145.598	-0.120	-0.011
-547.325	-117.641	0.178	-0.032
-546.310	141.133	0.087	0.114
-545.296	241.414	0.073	0.121
-544.281	-143.110	-0.180	0.017
-543.266	80.116	0.199	-0.214
-542.252	286.646	0.065	-0.116
-541.237	127.621	0.045	-0.057
-540.223	800.000	0.071	0.212
-539.208	-102.822	0.246	0.058
-538.193	-47.629	-0.255	0.123
-537.179	-200.000	-0.019	-0.109
-536.164	800.000	0.031	-0.130
-535.150	31.729	-0.239	-0.205
-534.135	220.035	0.047	0.076
-533.121	170.613	0.098	0.140
-532.106	-200.000	0.011	-0.116
-531.091	411.174	-0.175	-0.371
-530.077	800.000	0.098	-0.386
-529.062	-72.930	0.327	0.120
-528.048	800.000	0.114	0.320
-527.033	234.545	-0.065	-0.107
-526.018	-200.000	0.108	-0.581
-525.004	-96.878	0.281	0.073
-523.989	-101.834	0.076	-0.018
-522.975	106.507	-0.128	0.151
-521.960	68.935	0.059	-0.061
-520.945	1.115	-0.166	0.118
-519.931	-200.000	0.000	0.249
-518.916	-96.567	-0.054	0.014
-517.902	70.114	0.152	-0.157
-516.887	-200.000	0.046	0.242
-515.872	222.891	-0.114	-0.183
-514.858	179.948	-0.125	-0.183
-513.843	-164.171	0.182	-0.008
-512.829	-140.184	0.181	0.019
-511.814	278.865	-0.016	-0.029
-510.799	29.868	-0.079	0.067
-509.785	-93.938	0.137	0.038
-508.770	-44.882	-0.330	-0.164
-507.756	-109.131	0.150	0.032
-506.741	-163.438	0.205	-0.010
-505.726	658.848	0.034	-0.088
-504.712	-200.000	-0.010	0.268
-503.697	-34.697	0.275	0.150
-502.683	132.737	-0.212	0.272
-501.668	-141.877	0.655	0.065
-500.653	800.000	-0.118	-0.411
-499.639	-124.758	-0.366	-0.056
-498.624	-200.000	0.044	-0.390
-497.610	-89.844	-0.200	-0.058
-496.595	-200.000	-0.000	-0.171
-495.581	369.801	0.133	-0.267
-494.566	-96.838	-0.250	-0.065
-493.551	234.789	0.108	-0.177
-492.537	-200.000	0.003	-0.112
-491.522	45.795	0.182	0.167
-490.508	-191.022	-0.266	-0.003
-489.493	83.176	0.229	0.248
-488.478	800.000	0.054	0.218
-487.464	-184.507	0.280	-0.005
-486.449	-59.451	-0.214	-0.092
-485.435	239.931	-0.087	-0.145
-484.420	574.882	0.115	-0.280
-483.405	-112.134	-0.236	-0.047
-482.391	-50.137	0.265	-0.125
-481.376	33.498	-0.144	-0.124
-480.362	-200.000	-0.031	-0.195
-479.347	-50.269	-0.151	0.071
-478.332	800.000	-0.022	-0.087
-477.318	-95.145	-0.087	0.023
-476.303	-200.000	0.034	-0.161
-475.289	-200.000	0.058	0.299
-474.274	73.684	-0.121	0.126
-473.259	2.300	0.051	-0.037
-472.245	73.238	-0.097	0.101
-471.230	156.923	-0.266	0.366
-470.216	169.615	0.101	-0.144
-469.201	682.271	0.095	0.246
-468.186	784.965	0.184	0.501
-467.172	-25.710	-0.082	0.048
-466.157	-20.754	-0.120	-0.073
-465.143	-188.882	0.153	-0.002
-464.128	506.985	0.188	-0.433
-463.113	-141.392	0.225	0.023
-462.099	404.976	-0.075	-0.157
-461.084	800.000	-0.046	0.196
-460.070	-200.000	0.049	0.272
-459.055	103.732	-0.152	-0.177
-458.040	247.668	-0.225	-0.378
-457.026	-198.419	0.221	-0.001
-456.011	-101.532	0.075	-0.018
-454.997	-8.811	0.136	-0.091
-453.982	15.872	-0.151	0.118
-452.968	-39.791	-0.237	-0.123
-451.953	201.184	-0.124	0.189
-450.938	-200.000	0.071	-0.341
-449.924	127.174	-0.038	-0.048
-448.909	-9.152	-0.391	-0.260
-447.895	-85.846	0.187	-0.058
-446.880	-65.053	-0.174	0.070
-445.865	-70.572	0.119	-0.045
-444.851	-89.231	0.329	0.097
-443.836	-69.681	-0.194	0.074
-442.822	-82.718	0.219	0.070
-441.807	800.000	0.070	0.262
-440.792	-200.000	0.062	0.426
-439.778	19.304	0.237	0.189
-438.763	-95.170	0.175	0.047
-437.749	-14.756	0.099	0.063
-436.734	373.173	-0.087	0.175
-435.719	-200.000	-0.034	0.288
-434.705	-200.000	-0.007	-0.214
-433.690	137.407	-0.155	-0.202
-432.676	352.585	-0.146	0.288
-431.661	800.000	0.052	-0.192
-430.646	-21.247	-0.217	-0.131
-429.632	-119.481	-0.276	0.048
-428.617	-200.000	0.021	0.216
-427.603	-37.037	-0.130	-0.069
-426.588	-200.000	-0.000	-0.270
-425.573	41.729	0.174	-0.156
-424.559	519.026	-0.101	0.235
-423.544	-200.000	-0.030	0.175
-422.530	-129.139	-0.174	0.024
-421.515	-136.164	-0.246	-0.029
-420.500	483.247	0.122	-0.274
-419.486	-2.606	-0.133	-0.092
-418.471	-77.015	0.398	0.138
-417.457	-119.073	-0.115	0.020
-416.442	-15.433	0.083	-0.053
-415.428	-51.781	-0.038	0.017
-414.413	136.616	-0.240	-0.311
-413.398	800.000	0.015	-0.066
-412.384	-31.495	0.028	0.016
-411.369	34.283	-0.165	0.143
-410.355	800.000	-0.059	-0.202
-409.340	81.660	0.130	0.139
-408.325	800.000	0.061	0.230
-407.311	800.000	-0.024	-0.093
-406.296	-51.595	-0.148	0.069
-405.282	-25.473	0.366	0.215
-404.267	-26.739	-0.253	0.147
-403.252	35.763	0.301	0.262
-402.238	-200.000	0.011	-0.095
-401.223	-14.703	0.292	0.186
-400.209	60.892	0.152	0.149
-399.194	-200.000	-0.063	-0.293
-398.179	800.000	-0.118	-0.465
-397.165	800.000	-0.004	-0.016
-396.150	408.357	-0.075	0.157
-395.136	-73.163	0.012	0.004
-394.121	-200.000	0.048	0.276
-393.106	-69.283	0.085	0.033
-392.092	-119.648	-0.233	-0.040
-391.077	365.994	-0.081	0.161
-390.063	31.610	-0.221	0.189
-389.048	800.000	0.018	-0.065
-388.033	691.260	0.051	-0.131
-387.019	204.101	-0.014	0.021
-386.004	800.000	-0.082	-0.250
-384.990	-87.863	0.056	-0.017
-383.975	-9.989	0.054	0.036
-382.960	137.498	-0.031	-0.040
-381.946	-200.000	-0.009	-0.147
-380.931	390.795	0.046	-0.095
-379.917	479.229	0.047	0.107
-378.902	61.368	-0.266	0.262
-377.888	-20.670	0.044	-0.027
-376.873	-200.000	0.004	-0.061
-375.858	-200.000	0.028	0.157
-374.844	118.166	0.168	0.205
-373.829	-133.178	0.194	0.024
-372.815	705.041	-0.035	0.091
-371.800	-99.622	-0.025	0.006
-370.785	-130.550	0.063	-0.008
-369.771	53.258	-0.329	-0.312
-368.756	-200.000	0.036	-0.227
-367.742	800.000	-0.090	0.329
-366.727	153.845	-0.155	-0.210
-365.712	34.572	0.104	-0.090
-364.698	-50.455	-0.416	0.195
-363.683	-155.162	-0.203	-0.013
-362.669	410.605	0.127	-0.266
-361.654	-112.127	0.510	0.102
-360.639	282.382	-0.144	-0.256
-359.625	-200.000	0.040	-0.206
-358.610	-200.000	-0.004	-0.122
-357.596	-200.000	-0.017	-0.075
-356.581	60.863	-0.203	-0.199
-355.566	22.255	0.104	0.084
-354.552	101.254	-0.083	-0.096
-353.537	-200.000	-0.045	0.228
-352.523	-23.844	0.326	0.193
-351.508	-200.000	-0.002	0.064
-350.493	-43.339	0.349	0.175
-349.479	28.719	0.150	0.126
-348.464	102.814	0.212	-0.245
-347.450	800.000	0.056	0.197
-346.435	-200.000	-0.001	0.124
-345.420	-55.600	-0.128	-0.057
-344.406	173.175	-0.027	0.038
-343.391	-50.412	0.200	-0.093
-342.377	800.000	0.115	0.380
-341.362	6.817	-0.268	-0.197
-340.348	5.876	0.095	0.070
-339.333	-74.540	0.143	0.051
-338.318	800.000	-0.037	-0.109
-337.304	-129.786	-0.122	-0.017
-336.289	728.215	0.036	0.094
-335.275	10.480	0.325	0.245
-334.260	-64.951	-0.180	0.072
-333.245	-200.000	0.041	0.187
-332.231	800.000	-0.041	-0.169
-331.216	174.437	-0.143	-0.204
-330.202	-107.819	-0.377	-0.081
-329.187	-100.578	-0.213	-0.052
-328.172	-108.665	0.200	-0.042
-327.158	-200.000	0.104	-0.478
-326.143	-1.462	0.173	0.121
-325.129	-70.071	0.237	-0.089
-324.114	-18.503	-0.336	0.207
-323.099	-39.058	-0.168	-0.088
-322.085	-200.000	0.084	0.414
-321.070	448.819	0.185	0.404
-320.056	19.607	-0.067	-0.053
-319.041	-60.533	0.236	-0.099
-318.026	-23.210	0.145	0.086
-317.012	-200.000	-0.037	0.259
-315.997	-53.664	-0.189	0.085
-314.983	-121.337	-0.229	0.038
-313.968	-67.073	-0.357	-0.139
-312.953	48.809	-0.256	0.238
-311.939	500.651	0.041	0.093
-310.924	23.363	0.178	-0.144
-309.910	-12.243	0.271	-0.175
-308.895	131.094	-0.090	-0.114
-307.880	76.805	0.057	-0.059
-306.866	800.000	0.060	-0.167
-305.851	11.145	-0.209	-0.158
-304.837	48.405	-0.200	0.185
-303.822	-70.689	-0.310	0.116
-302.807	-200.000	0.032	-0.162
-301.793	-200.000	-0.010	0.244
-300.778	-148.458	-0.214	0.017
-299.764	-200.000	0.044	-0.196
-298.749	-200.000	0.137	-0.000
-297.735	-66.883	-0.137	-0.054
-296.720	-200.000	-0.006	-0.244
-295.705	217.975	-0.136	0.214
-294.691	285.779	0.103	0.184
-293.676	-15.003	0.054	0.034
-292.662	-200.000	-0.032	0.261
-291.647	-200.000	-0.010	-0.271
-290.632	-83.291	-0.092	0.029
-289.618	-200.000	-0.011	0.163
-288.603	101.252	0.164	-0.189
-287.589	-51.320	-0.116	0.053
-286.574	-33.363	0.146	-0.080
-285.559	7.422	0.361	-0.266
-284.545	-200.000	0.024	0.320
-283.530	-31.838	0.260	-0.144
-282.516	39.264	-0.063	-0.056
-281.501	493.776	0.056	-0.126
-280.486	43.816	0.129	-0.117
-279.472	800.000	0.005	-0.016
-278.457	-95.842	0.194	-0.051
-277.443	-200.000	-0.033	0.246
-276.428	-90.329	0.145	0.042
-275.413	-23.730	0.290	-0.171
-274.399	-114.375	-0.187	0.036
-273.384	224.579	0.047	-0.076
-272.370	-109.984	0.046	-0.010
-271.355	-107.139	-0.037	0.008
-270.340	15.409	-0.216	-0.167
-269.326	-78.736	-0.060	0.020
-268.311	143.685	0.142	0.187
-267.297	-65.707	0.101	0.040
-266.282	-58.480	0.178	-0.076
-265.267	-22.897	0.017	0.010
-264.253	41.369	-0.201	0.179
-263.238	800.000	-0.096	0.412
-262.224	-6.986	-0.227	-0.152
-261.209	-138.222	0.340	-0.037
-260.195	253.747	0.107	0.181
-259.180	-73.726	0.372	-0.134
-258.165	192.400	-0.032	0.048
-257.151	800.000	-0.089	-0.267
-256.136	800.000	-0.045	-0.142
-255.122	-67.967	-0.098	0.038
-254.107	-87.876	-0.104	-0.031
-253.092	-77.833	0.159	0.054
-252.078	-200.000	-0.018	0.145
-251.063	-87.965	0.277	0.082
-250.049	442.521	-0.014	0.031
-249.034	800.000	-0.070	0.232
-248.019	53.766	-0.077	-0.073
-247.005	-101.893	-0.369	0.088
-245.990	110.435	-0.209	-0.248
-244.976	-200.000	-0.001	-0.171
-243.961	-37.026	0.193	0.102
-242.946	70.973	-0.204	0.208
-241.932	-66.427	0.308	0.120
-240.917	-102.233	-0.094	0.022
-239.903	-159.645	0.148	0.008
-238.888	-61.024	0.031	-0.013
-237.873	-200.000	0.025	-0.251
-236.859	208.487	-0.100	0.154
-235.844	284.387	0.106	0.187
-234.830	35.726	-0.113	0.098
-233.815	800.000	-0.078	0.216
-232.800	137.251	0.089	-0.114
-231.786	7.861	-0.339	-0.250
-230.771	100.207	-0.274	0.313
-229.757	13.209	0.245	0.187
-228.742	-200.000	-0.013	0.313
-227.727	32.910	0.057	-0.049
-226.713	-11.313	-0.250	-0.162
-225.698	76.213	0.188	0.196
-224.684	-200.000	-0.019	0.082
-223.669	-159.851	0.182	-0.010
-222.655	-15.812	0.260	0.163
-221.640	-122.408	-0.263	0.042
-220.625	-144.185	0.194	-0.018
-219.611	-200.000	0.004	0.222
-218.596	-134.392	-0.199	-0.024
-217.582	177.566	0.112	0.160
-216.567	-200.000	0.025	0.207
-215.552	129.165	-0.112	-0.140
-214.538	-78.481	0.106	0.036
-213.523	304.570	0.241	-0.440
-212.509	-200.000	0.014	-0.546
-211.494	-54.800	-0.331	-0.147
-210.479	-28.929	-0.191	0.108
-209.465	-67.975	0.449	-0.173
-208.450	-38.341	0.057	-0.029
-207.436	357.822	0.044	-0.087
-206.421	73.454	-0.231	0.238
-205.406	-200.000	-0.031	-0.157
-204.392	56.655	0.019	-0.018
-203.377	196.961	-0.175	0.263
-202.363	-200.000	0.015	0.208
-201.348	-21.979	-0.170	0.102
-200.333	29.441	-0.193	-0.161
-199.319	65.796	-0.319	-0.318
-198.304	-119.897	-0.314	-0.053
-197.290	8.508	0.198	0.147
-196.275	-63.900	0.470	0.189
-195.260	-76.827	0.392	0.135
-194.246	3.329	0.032	0.023
-193.231	492.160	0.091	0.206
-192.217	77.262	-0.108	-0.113
-191.202	-200.000	0.002	-0.054
-190.187	-51.799	0.252	0.115
-189.173	800.000	-0.075	0.277
-188.158	491.086	0.200	0.450
-187.144	-65.299	0.105	0.041
-186.129	-200.000	-0.012	-0.119
-185.114	39.362	0.189	0.166
-184.100	526.585	-0.064	0.149
-183.085	-200.000	-0.064	-0.354
-182.071	800.000	0.029	-0.084
-181.056	-156.322	0.088	0.005
-180.042	172.533	-0.040	-0.057
-179.027	-80.245	0.235	-0.077
-178.012	432.308	-0.119	0.254
-176.998	-200.000	0.045	0.335
-175.983	325.826	-0.051	0.096
-174.969	800.000	0.068	0.211
-173.954	-83.160	0.141	0.044
-172.939	800.000	-0.037	0.108
-171.925	-95.775	0.197	0.052
-170.910	-139.833	-0.190	0.020
-169.896	-93.266	-0.372	0.102
-168.881	800.000	-0.047	0.170
-167.866	101.547	0.185	0.212
-166.852	-200.000	0.036	-0.176
-165.837	50.956	0.124	-0.116
-164.823	30.748	-0.149	0.126
-163.808	459.704	0.057	0.125
-162.793	279.432	-0.060	-0.105
-161.779	295.471	-0.170	0.305
-160.764	51.810	0.040	-0.037
-159.750	-175.856	0.319	0.008
-158.735	781.108	-0.114	-0.306
-157.720	-54.800	0.120	0.053
-156.706	-172.241	0.308	-0.010
-155.691	533.549	0.062	-0.145
-154.677	-149.976	-0.373	0.029
-153.662	30.947	-0.239	-0.201
-152.647	-36.551	0.125	-0.066
-151.633	93.271	0.132	-0.146
-150.618	800.000	-0.026	-0.107
-149.604	-12.219	-0.050	-0.032
-148.589	-200.000	-0.033	-0.172
-147.574	-158.416	-0.139	0.008
-146.560	134.061	-0.302	-0.384
-145.545	-89.738	-0.224	-0.065
-144.531	-200.000	0.010	0.484
-143.516	-176.944	-0.033	0.001
-142.502	88.648	-0.072	0.079
-141.487	-200.000	0.254	0.001
-140.472	276.616	-0.084	-0.147
-139.458	-200.000	-0.026	0.141
-138.443	155.507	-0.087	-0.117
-137.429	-200.000	0.012	0.357
-136.414	-22.541	0.180	0.107
-135.399	-200.000	-0.006	-0.202
-134.385	-49.020	0.301	0.142
-133.370	800.000	-0.048	0.158
-132.356	94.567	-0.056	-0.062
-131.341	696.685	-0.054	0.139
-130.326	327.127	0.017	-0.032
-129.312	-89.860	-0.159	0.045
-128.297	-136.652	-0.180	-0.020
-127.283	-200.000	-0.004	0.044
-126.268	-78.834	0.069	0.023
-125.253	-63.135	0.227	-0.092
-124.239	123.740	0.134	-0.165
-123.224	-14.825	0.006	0.004
-122.210	-200.000	0.003	0.381
-121.195	38.287	0.105	-0.092
-120.180	-200.000	-0.037	-0.169
-119.166	612.572	0.142	-0.349
-118.151	187.873	-0.132	-0.193
-117.137	341.691	-0.071	-0.137
-116.122	-51.072	-0.041	-0.019
-115.107	118.478	0.080	0.097
-114.093	-200.000	0.102	0.462
-113.078	-200.000	0.011	-0.102
-112.064	-152.455	0.423	0.030
-111.049	57.128	-0.281	-0.269
-110.034	800.000	0.040	-0.138
-109.020	-200.000	0.008	0.346
-108.005	-200.000	0.015	0.202
-106.991	-200.000	-0.026	0.136
-105.976	-89.654	-0.280	0.081
-104.962	800.000	0.033	-0.110
-103.947	-200.000	0.035	-0.234
-102.932	71.347	0.151	-0.153
-101.918	-22.729	-0.385	0.228
-100.903	70.667	-0.159	0.161
-99.889	-118.681	-0.042	-0.007
-98.874	-147.279	0.163	0.014
-97.859	-200.000	0.001	0.103
-96.845	-130.413	0.345	-0.046
-95.830	310.368	0.080	-0.146
-94.816	316.426	0.107	0.198
-93.801	-138.793	-0.285	0.031
-92.786	562.880	-0.105	0.249
-91.772	-200.000	-0.084	0.397
-90.757	-129.175	0.062	-0.009
-89.743	-15.796	0.209	-0.130
-88.728	-100.733	0.311	0.075
-87.713	800.000	0.137	0.399
-86.699	335.026	0.154	0.293
-85.684	800.000	-0.048	-0.142
-84.670	-54.087	-0.195	-0.087
-83.655	-7.150	-0.110	-0.073
-82.640	456.901	0.098	-0.213
-81.626	-200.000	0.044	-0.390
-80.611	-45.567	0.203	0.099
-79.597	-137.136	0.180	0.020
-78.582	514.110	-0.050	-0.114
-77.567	-131.380	0.190	-0.025
-76.553	285.171	-0.104	0.183
-75.538	-115.271	-0.229	0.042
-74.524	83.758	0.279	0.298
-73.509	800.000	0.042	0.123
-72.494	-200.000	0.044	-0.195
-71.480	45.338	-0.121	0.109
-70.465	72.349	-0.098	0.100
-69.451	55.747	0.196	0.186
-68.436	416.509	-0.012	-0.026
-67.422	-200.000	0.022	-0.144
-66.407	-4.191	0.186	0.126
-65.392	-105.332	-0.135	-0.030
-64.378	34.931	0.234	-0.200
-63.363	364.946	-0.069	0.135
-62.349	15.053	0.205	0.157
-61.334	-47.646	-1.181	-0.561
-60.319	87.855	0.566	0.614
-59.305	674.074	-0.295	-0.748
-58.290	195.390	0.753	1.120
-57.276	800.000	0.487	1.550
-56.261	-200.000	114.397	651.789
-55.246	540.215	1519.735	3540.367
-54.232	178.417	2690.266	3843.925
-53.217	103.355	2282.659	2619.740
-52.203	36.914	1891.257	1636.437
-51.188	30.937	1680.817	1409.263
-50.173	28.350	1638.782	1354.856
-49.159	49.833	1694.308	1562.751
-48.144	48.907	1708.198	1568.562
-47.130	30.478	1666.452	1393.552
-46.115	27.818	1651.822	1361.454
-45.100	27.540	1647.014	1355.374
-44.086	27.652	1644.240	1353.863
-43.071	27.597	1641.450	1351.110
-42.057	27.594	1639.516	1349.437
-41.042	27.565	1637.190	1347.257
-40.027	27.558	1635.281	1345.584
-39.013	27.551	1633.129	1343.702
-37.998	27.658	1631.595	1343.179
-36.984	27.692	1629.877	1341.957
-35.969	27.615	1629.583	1341.095
-34.954	27.750	1626.964	1339.883
-33.940	27.674	1625.403	1337.984
-32.925	27.736	1623.182	1336.558
-31.911	27.736	1621.965	1335.501
-30.896	27.637	1620.300	1333.352
-29.881	27.660	1618.648	1332.113
-28.867	27.672	1616.723	1330.561
-27.852	27.663	1615.498	1329.434
-26.838	27.711	1613.546	1328.125
-25.823	27.667	1613.139	1327.421
-24.809	27.756	1611.455	1326.624
-23.794	27.694	1609.759	1324.727
-22.779	27.733	1608.376	1323.816
-21.765	27.655	1606.905	1321.990
-20.750	27.766	1605.263	1321.388
-19.736	27.749	1604.124	1320.281
-18.721	27.819	1602.225	1319.171
-17.706	27.728	1601.271	1317.672
-16.692	27.760	1599.429	1316.334
-15.677	27.825	1597.882	1315.478
-14.663	27.801	1596.651	1314.238
-13.648	27.746	1595.661	1312.974
-12.633	27.858	1594.145	1312.484
-11.619	27.767	1592.145	1310.132
-10.604	27.662	1591.293	1308.628
-9.590	27.745	1589.943	1308.055
-8.575	27.744	1588.757	1307.021
-7.560	27.875	1587.196	1306.621
-6.546	27.848	1586.077	1305.456
-5.531	27.729	1585.073	1303.728
-4.517	27.750	1584.155	1303.074
-3.502	27.848	1582.722	1302.542
-2.487	27.848	1581.160	1301.202
-1.473	27.511	1569.041	1288.798
-0.458	24.641	1549.635	1252.722
0.556	22.762	1551.097	1221.296
1.571	20.276	1574.645	1222.236
2.586	19.793	1587.076	1228.344
3.600	17.893	1533.534	1173.752
4.615	11.108	1427.312	1048.789
5.629	4.864	1367.770	966.307
6.644	3.796	1359.434	953.751
7.659	3.739	1358.907	952.941
8.673	3.760	1358.422	952.648
9.688	3.845	1356.124	951.476
10.702	3.764	1353.002	948.705
11.717	6.738	1358.152	970.536
12.731	14.507	1372.818	1029.044
13.746	21.176	1384.136	1078.785
14.761	22.991	1385.918	1091.298
15.775	22.477	1384.427	1086.855
16.790	21.573	1381.730	1079.072
17.804	21.035	1379.880	1074.217
18.819	20.735	1378.721	1071.379
19.834	20.813	1377.543	1070.847
20.848	20.794	1376.717	1069.992
21.863	20.687	1375.418	1068.228
22.877	20.527	1374.466	1066.414
23.892	20.401	1373.916	1065.124
24.907	20.356	1372.765	1063.858
25.921	20.324	1371.868	1062.871
26.936	20.283	1371.127	1061.957
27.950	20.363	1369.888	1061.391
28.965	20.485	1369.172	1061.490
29.980	20.702	1368.048	1061.847
30.994	20.762	1367.560	1061.740
32.009	20.913	1365.936	1061.307
33.023	20.830	1364.842	1059.854
34.038	20.692	1363.580	1057.945
35.053	20.494	1362.773	1056.021
36.067	20.575	1361.094	1055.119
37.082	20.547	1360.400	1054.319
38.096	20.672	1359.307	1054.135
39.111	20.702	1358.795	1053.823
40.126	20.421	1358.071	1051.465
41.140	20.137	1356.864	1048.725
42.155	19.956	1356.252	1047.065
43.169	19.891	1355.860	1046.275
44.184	19.942	1355.329	1046.077
45.199	20.074	1355.859	1047.191
46.213	20.199	1355.302	1047.425
47.228	20.399	1354.468	1047.895
48.242	20.424	1353.084	1046.882
49.257	20.449	1351.588	1045.781
50.271	20.443	1350.063	1044.478
51.286	20.364	1349.216	1043.250
52.301	20.341	1347.647	1041.810
53.315	20.242	1346.600	1040.315
54.330	20.137	1345.098	1038.431
55.344	20.100	1343.849	1037.158
56.359	20.040	1343.068	1036.105
57.374	20.116	1342.036	1035.666
58.388	19.895	1341.499	1033.841
59.403	19.811	1341.205	1033.020
60.417	19.950	1340.100	1032.909
61.432	19.738	1339.141	1030.818
62.447	19.735	1337.975	1029.808
63.461	19.681	1336.692	1028.408
64.476	19.615	1335.897	1027.312
65.490	19.571	1334.986	1026.259
66.505	19.635	1333.264	1025.227
67.520	19.673	1332.160	1024.510
68.534	19.624	1331.312	1023.481
69.549	19.578	1330.213	1022.271
70.563	19.646	1328.626	1021.363
71.578	19.431	1327.967	1019.495
72.593	19.294	1327.156	1017.974
73.607	19.422	1326.427	1018.077
74.622	19.474	1325.281	1017.414
75.636	19.490	1324.930	1017.152
76.651	19.522	1324.406	1016.848
77.666	19.576	1323.982	1016.749
78.680	19.718	1323.433	1017.071
79.695	19.698	1323.045	1016.567
80.709	19.916	1321.923	1016.900
81.724	19.960	1321.671	1016.872
82.739	20.222	1320.408	1017.345
83.753	20.340	1320.260	1017.835
84.768	20.486	1319.291	1017.855
85.782	20.663	1318.598	1018.266
86.797	20.677	1317.472	1017.386
87.812	20.534	1316.311	1015.564
88.826	20.520	1315.050	1014.420
89.841	20.625	1313.553	1013.788
90.855	20.595	1312.884	1013.008
91.870	20.693	1312.500	1013.191
92.884	20.776	1311.349	1012.698
93.899	20.748	1311.176	1012.308
94.914	20.883	1310.010	1012.103
95.928	20.774	1309.507	1010.991
96.943	20.878	1308.094	1010.418
97.957	20.688	1307.722	1008.938
98.972	20.655	1306.729	1007.891
99.987	20.628	1305.718	1006.868
101.001	20.554	1304.808	1005.648
102.016	20.594	1303.740	1004.966
103.030	20.707	1302.776	1004.789
104.045	20.703	1301.530	1003.713
105.060	20.370	1300.683	1001.051
106.074	20.171	1298.776	998.352
107.089	19.861	1297.377	995.404
108.103	19.643	1296.460	993.361
109.118	19.727	1294.553	992.290
110.133	19.768	1293.153	991.369
111.147	19.799	1292.464	990.925
112.162	19.834	1290.920	989.857
113.176	19.856	1290.035	989.217
114.191	19.941	1289.321	989.064
115.206	19.960	1287.918	988.009
116.220	19.877	1287.109	986.828
117.235	19.908	1285.786	985.903
118.249	19.670	1285.145	983.973
119.264	19.657	1283.696	982.704
120.279	19.585	1282.701	981.444
121.293	19.520	1281.865	980.346
122.308	19.521	1280.214	979.003
123.322	19.324	1279.434	977.202
124.337	19.327	1278.090	976.109
125.352	19.402	1276.805	975.464
126.366	19.282	1276.277	974.294
127.381	19.236	1275.423	973.296
128.395	19.279	1274.071	972.421
129.410	19.269	1273.431	971.794
130.424	19.426	1272.847	972.144
131.439	19.525	1272.404	972.281
132.454	19.767	1271.046	972.515
133.468	19.815	1270.288	972.119
134.483	19.794	1270.158	971.819
135.497	19.777	1269.166	970.873
136.512	19.904	1267.651	970.344
137.527	19.871	1266.222	968.981
138.541	19.972	1265.309	968.762
139.556	20.016	1264.191	968.066
140.570	20.109	1263.342	967.846
141.585	20.386	1261.979	968.265
142.600	20.402	1261.204	967.670
143.614	20.493	1260.694	967.699
144.629	20.568	1259.832	967.371
145.643	20.466	1259.147	966.190
146.658	20.349	1257.593	964.266
147.673	20.157	1256.158	962.016
148.687	19.976	1254.575	959.715
149.702	19.813	1253.109	957.606
150.716	19.814	1252.081	956.741
151.731	19.789	1250.681	955.449
152.746	19.768	1249.938	954.677
153.760	20.004	1248.502	954.798
154.775	20.200	1247.525	955.045
155.789	20.152	1246.976	954.276
156.804	20.206	1246.232	953.923
157.819	20.232	1245.245	953.227
158.833	20.447	1244.881	954.042
159.848	20.627	1243.559	953.934
160.862	20.465	1242.993	952.524
161.877	20.155	1241.135	949.319
162.892	19.857	1240.120	946.831
163.906	19.723	1239.177	945.292
164.921	19.781	1238.677	945.145
165.935	19.930	1237.314	944.834
166.950	20.041	1236.854	945.004
167.964	20.024	1236.544	944.593
168.979	19.920	1235.906	943.453
169.994	20.073	1234.317	942.991
171.008	20.026	1233.962	942.378
172.023	20.241	1233.141	942.837
173.037	20.326	1232.871	943.009
174.052	20.357	1232.178	942.563
175.067	20.062	1230.518	939.614
176.081	19.744	1229.481	937.012
177.096	19.829	1228.339	936.519
178.110	19.867	1227.312	935.863
179.125	19.948	1226.132	935.315
180.140	20.091	1225.142	935.248
181.154	20.254	1224.750	935.749
182.169	20.345	1223.878	935.490
183.183	20.394	1222.296	934.462
184.198	20.397	1221.675	933.916
185.213	20.416	1220.153	932.772
186.227	20.629	1218.972	932.933
187.242	20.594	1218.668	932.427
188.256	20.755	1217.379	932.224
189.271	20.589	1217.387	931.256
190.286	20.434	1215.527	928.925
191.300	20.044	1213.977	925.572
192.315	19.848	1213.747	924.270
193.329	19.849	1213.217	923.791
194.344	19.948	1212.413	923.622
195.359	19.820	1212.418	922.861
196.373	19.988	1211.487	922.969
197.388	20.303	1211.178	924.327
198.402	20.500	1211.200	925.314
199.417	20.751	1210.634	926.132
200.432	20.916	1209.969	926.419
201.446	21.029	1209.316	926.441
202.461	21.107	1208.798	926.376
203.475	21.033	1207.586	924.973
204.490	20.793	1205.737	922.200
205.504	20.395	1204.917	919.386
206.519	20.482	1203.232	918.477
207.534	20.260	1202.064	916.335
208.548	20.342	1201.418	916.196
209.563	20.354	1200.504	915.479
210.577	20.334	1199.652	914.642
211.592	20.522	1198.688	914.816
212.607	20.797	1198.186	915.798
213.621	20.766	1197.516	915.040
214.636	20.644	1196.761	913.742
215.650	20.619	1195.840	912.828
216.665	20.863	1194.826	913.253
217.680	21.044	1194.227	913.665
218.694	21.075	1193.655	913.307
219.709	21.019	1192.697	912.198
220.723	20.901	1191.846	910.850
221.738	20.901	1191.158	910.244
222.753	20.783	1190.527	909.064
223.767	20.889	1189.930	909.082
224.782	21.117	1189.432	909.809
225.796	21.216	1188.983	909.903
226.811	21.162	1188.048	908.825
227.826	20.856	1187.477	906.718
228.840	20.709	1186.534	905.149
229.855	20.684	1185.499	904.152
230.869	20.782	1184.811	904.057
231.884	20.679	1183.604	902.519
232.899	20.493	1182.911	900.949
233.913	20.396	1182.160	899.794
234.928	20.411	1181.210	899.068
235.942	20.415	1180.227	898.263
236.957	20.365	1179.698	897.519
237.972	20.412	1178.892	897.069
238.986	20.333	1178.297	896.129
240.001	20.462	1177.638	896.215
241.015	20.438	1176.804	895.378
242.030	20.492	1176.286	895.185
243.045	20.694	1175.386	895.457
244.059	20.682	1174.926	894.965
245.074	20.821	1173.775	894.726
246.088	20.884	1173.903	895.068
247.103	20.960	1173.196	894.840
248.117	21.227	1172.331	895.472
249.132	21.297	1172.196	895.648
250.147	21.715	1171.402	897.103
251.161	21.790	1171.200	897.251
252.176	21.883	1170.533	897.136
253.190	21.950	1169.738	896.790
254.205	22.100	1169.327	897.161
255.220	22.032	1168.642	896.210
256.234	22.008	1167.873	895.419
257.249	21.842	1167.608	894.289
258.263	21.835	1166.778	893.537
259.278	21.806	1165.973	892.695
260.293	21.984	1165.521	893.175
261.307	22.052	1164.851	892.932
262.322	22.049	1164.200	892.335
263.336	22.077	1163.427	891.807
264.351	22.033	1163.019	891.194
265.366	22.050	1162.816	891.046
266.380	22.138	1161.591	890.471
267.395	22.038	1160.908	889.366
268.409	21.768	1160.017	887.236
269.424	21.738	1159.116	886.318
270.439	21.749	1158.713	885.984
271.453	21.643	1157.465	884.415
272.468	21.526	1156.403	882.938
273.482	21.426	1155.894	881.965
274.497	21.450	1155.205	881.484
275.512	21.478	1154.667	881.133
276.526	21.324	1154.613	880.243
277.541	21.557	1153.042	880.140
278.555	21.586	1152.672	879.924
279.570	21.769	1152.530	880.655
280.585	22.001	1151.679	881.092
281.599	21.908	1150.948	879.988
282.614	21.718	1149.456	877.820
283.628	21.576	1148.365	876.199
284.643	21.608	1147.550	875.657
285.657	21.655	1146.662	875.137
286.672	21.638	1145.740	874.272
287.687	21.721	1144.676	873.794
288.701	21.647	1144.058	872.878
289.716	21.695	1143.109	872.318
290.730	21.676	1142.632	871.779
291.745	21.761	1141.785	871.480
292.760	21.763	1141.805	871.426
293.774	21.905	1140.986	871.431
294.789	22.006	1140.350	871.368
295.803	21.926	1140.183	870.768
296.818	21.803	1138.946	869.135
297.833	21.753	1138.029	868.112
298.847	21.656	1137.211	866.929
299.862	21.677	1136.305	866.269
300.876	21.656	1136.153	865.970
301.891	21.820	1135.571	866.260
302.906	21.928	1135.204	866.437
303.920	22.129	1134.748	867.004
304.935	22.291	1133.831	867.025
305.949	22.465	1133.391	867.472
306.964	22.367	1132.464	866.201
307.979	22.308	1131.659	865.221
308.993	22.166	1131.138	864.045
310.008	22.262	1130.034	863.598
311.022	22.419	1129.210	863.661
312.037	22.345	1128.812	862.919
313.052	21.997	1127.539	860.165
314.066	21.820	1126.104	858.128
315.081	21.636	1125.387	856.606
316.095	21.562	1124.765	855.694
317.110	21.607	1124.061	855.303
318.125	21.592	1122.962	854.318
319.139	21.492	1122.589	853.469
320.154	21.635	1121.533	853.289
321.168	21.593	1121.243	852.789
322.183	21.677	1120.593	852.625
323.197	21.824	1119.968	852.793
324.212	21.888	1119.236	852.467
325.227	21.789	1119.089	851.799
326.241	21.842	1118.780	851.748
327.256	21.780	1117.526	850.418
328.270	21.614	1116.627	848.850
329.285	21.689	1115.862	848.559
330.300	21.658	1114.991	847.672
331.314	21.706	1113.715	846.861
332.329	21.824	1112.844	846.693
333.343	21.760	1112.251	845.855
334.358	21.940	1111.404	846.006
335.373	22.101	1111.214	846.561
336.387	22.155	1110.481	846.186
337.402	22.212	1110.105	846.102
338.416	22.273	1109.432	845.805
339.431	22.320	1109.287	845.850
340.446	22.475	1108.709	846.078
341.460	22.698	1107.666	846.276
342.475	22.725	1107.121	845.916
343.489	22.786	1106.381	845.565
344.504	22.872	1105.555	845.271
345.519	22.966	1104.692	844.988
346.533	23.028	1103.825	844.544
347.548	22.988	1103.602	844.107
348.562	22.992	1102.310	843.063
349.577	22.728	1100.926	840.672
350.592	22.399	1099.982	838.313
351.606	22.162	1099.335	836.617
352.621	22.195	1098.110	835.768
353.635	22.049	1097.586	834.600
354.650	22.129	1096.885	834.373
355.665	22.111	1096.534	833.947
356.679	22.235	1095.991	834.048
357.694	22.383	1095.508	834.307
358.708	22.514	1094.916	834.407
359.723	22.421	1094.492	833.568
360.738	22.399	1093.938	832.966
361.752	22.443	1093.408	832.697
362.767	22.539	1092.481	832.372
363.781	22.457	1092.263	831.746
364.796	22.644	1091.651	832.087
365.810	22.886	1091.385	832.954
366.825	23.073	1091.020	833.485
367.840	23.196	1090.545	833.627
368.854	23.269	1090.010	833.484
369.869	23.220	1089.149	832.526
370.883	23.045	1088.110	830.833
371.898	22.828	1087.350	829.161
372.913	22.962	1086.606	829.149
373.927	22.963	1086.159	828.737
374.942	23.176	1085.719	829.327
375.956	22.949	1085.650	828.140
376.971	23.061	1084.339	827.589
377.986	23.093	1084.222	827.575
379.000	23.270	1083.641	827.889
380.015	23.427	1083.068	828.109
381.029	23.518	1082.358	827.920
382.044	23.413	1081.661	826.823
383.059	23.261	1080.731	825.331
384.073	23.301	1080.212	825.049
385.088	23.305	1079.312	824.307
386.102	23.267	1078.628	823.534
387.117	23.136	1077.160	821.733
388.132	22.774	1076.265	819.294
389.146	22.802	1075.302	818.619
390.161	22.747	1074.669	817.809
391.175	22.707	1073.526	816.684
392.190	22.971	1073.090	817.501
393.205	23.230	1072.745	818.364
394.219	23.187	1071.846	817.407
395.234	23.010	1070.803	815.724
396.248	22.847	1069.733	814.085
397.263	22.955	1068.209	813.351
398.278	22.758	1067.721	811.997
399.292	22.573	1067.292	810.751
400.307	22.549	1066.344	809.846
401.321	22.552	1065.780	809.360
402.336	22.633	1064.973	809.050
403.350	22.580	1064.042	808.028
404.365	22.787	1063.556	808.536
405.380	22.855	1063.138	808.455
406.394	22.881	1062.676	808.151
407.409	23.087	1061.988	808.501
408.423	23.431	1061.499	809.626
409.438	23.371	1061.190	809.046
410.453	23.546	1060.219	809.032
411.467	23.522	1059.896	808.605
412.482	23.676	1058.990	808.542
413.496	23.679	1058.583	808.176
414.511	23.699	1058.296	807.975
415.526	23.751	1058.238	808.093
416.540	24.065	1057.245	808.691
417.555	23.866	1056.716	807.312
418.569	23.735	1056.047	806.137
419.584	23.656	1055.545	805.323
420.599	23.635	1055.177	804.876
421.613	156.910	1403.606	1797.371
422.628	144.119	1454.360	1797.483
