DTS Sentinel unit serial number:	SN413079Multiplexer serial number:	ORYXHardware model number:	OX4-SRSoftware version number:	ORYX F/W v4.00 Oryx Data Collector v3.7.2.0data status	okinstallation	princeton_trtdifferential loss correction	single-endedforward channel	channel 2reverse channel	N/Adate	2019/09/13time	08:43:35forward acquisition time	60.00reverse acquisition time	0.00gamma	496.2192k internal	0.2332k external	0.2332temperature offset calibration	1.0193default loss term (dB/km)	0.3790temperature slope calibration	1.0000multiplexer offset coefficient	1.0000multiplexer slope coefficient	1.0000fibre end	0.00T internal ref (°C)	27.87T ext. ref 1 (°C)	4.32T ext. ref 2 (°C)	24.76length (m)	temperature (°C)	Stokes	anti-Stokes-747.200	39.160	0.205	0.185
-746.185	-84.000	-0.163	0.052
-745.171	-125.891	-0.345	0.052
-744.156	-200.000	0.062	0.352
-743.142	14.638	0.160	-0.126
-742.127	8.039	-0.071	0.053
-741.112	-46.582	0.055	-0.027
-740.098	-200.000	-0.003	-0.021
-739.083	122.068	-0.239	0.300
-738.069	800.000	0.095	0.292
-737.054	-5.437	0.083	0.057
-736.039	-37.443	-0.198	0.106
-735.025	76.220	0.196	-0.209
-734.010	522.598	-0.120	-0.283
-732.996	91.467	-0.049	0.055
-731.981	70.017	0.113	0.117
-730.966	800.000	0.084	0.281
-729.952	-88.272	0.114	0.034
-728.937	-200.000	-0.036	-0.240
-727.923	-200.000	0.037	-0.254
-726.908	-200.000	-0.004	0.121
-725.894	94.939	-0.139	-0.159
-724.879	-200.000	0.010	-0.215
-723.864	-85.188	0.449	0.141
-722.850	99.106	0.074	-0.086
-721.835	83.605	-0.155	-0.170
-720.821	251.956	-0.036	0.062
-719.806	-19.349	-0.256	-0.159
-718.791	-62.037	-0.136	-0.057
-717.777	800.000	0.054	0.154
-716.762	-118.682	0.298	0.053
-715.748	-114.191	-0.147	-0.028
-714.733	-8.042	-0.087	-0.059
-713.718	55.627	0.063	0.061
-712.704	-133.520	0.204	0.026
-711.689	-144.166	-0.236	0.022
-710.675	172.415	-0.105	0.152
-709.660	-53.631	0.086	-0.039
-708.645	-46.158	-0.142	-0.070
-707.631	-70.060	0.207	-0.079
-706.616	-117.536	-0.352	0.064
-705.602	-200.000	0.006	-0.158
-704.587	800.000	0.046	0.134
-703.572	-63.517	-0.291	0.120
-702.558	-200.000	-0.005	0.089
-701.543	-0.484	-0.160	0.114
-700.529	-200.000	-0.006	0.106
-699.514	528.935	-0.058	-0.137
-698.499	365.237	-0.054	-0.109
-697.485	-64.949	-0.023	-0.009
-696.470	35.894	0.301	-0.266
-695.456	-136.073	-0.269	0.032
-694.441	-119.594	-0.266	0.046
-693.426	42.440	0.282	-0.257
-692.412	-133.651	-0.384	0.048
-691.397	131.378	-0.178	-0.230
-690.383	642.558	0.059	0.151
-689.368	-120.839	0.247	-0.042
-688.354	-140.976	-0.266	0.027
-687.339	-144.777	-0.236	-0.022
-686.324	592.168	0.043	0.106
-685.310	391.213	-0.103	0.216
-684.295	800.000	-0.103	0.288
-683.281	800.000	-0.096	0.350
-682.266	-118.867	-0.170	0.030
-681.251	-130.136	0.100	0.014
-680.237	212.539	0.155	-0.245
-679.222	-76.984	-0.283	-0.099
-678.208	-200.000	0.056	0.351
-677.193	-200.000	0.052	0.683
-676.178	229.926	0.103	0.170
-675.164	180.669	-0.118	-0.174
-674.149	-200.000	-0.004	-0.167
-673.135	800.000	-0.017	0.056
-672.120	106.004	-0.061	0.073
-671.105	-150.256	-0.290	-0.023
-670.091	158.409	0.075	-0.104
-669.076	-8.646	0.147	0.099
-668.062	554.172	0.126	0.304
-667.047	-77.601	-0.223	-0.077
-666.032	800.000	-0.020	0.083
-665.018	-200.000	0.048	0.528
-664.003	42.145	-0.093	-0.084
-662.989	1.687	-0.099	-0.071
-661.974	-200.000	0.016	-0.083
-660.959	-200.000	-0.004	-0.044
-659.945	-45.829	-0.108	0.053
-658.930	-43.949	-0.308	0.155
-657.916	-10.026	-0.233	-0.155
-656.901	75.786	-0.197	-0.209
-655.886	-52.557	-0.356	-0.165
-654.872	-83.399	-0.304	-0.098
-653.857	208.056	0.108	-0.168
-652.843	-92.851	-0.113	0.032
-651.828	29.831	-0.025	-0.021
-650.814	-11.013	0.282	0.187
-649.799	-111.222	-0.408	-0.084
-648.784	-170.670	-0.118	-0.004
-647.770	12.708	0.112	0.087
-646.755	53.357	0.276	0.266
-645.741	63.432	0.126	-0.126
-644.726	-200.000	0.004	0.073
-643.711	-139.033	-0.394	0.043
-642.697	217.502	0.215	-0.343
-641.682	-200.000	0.046	0.261
-640.668	86.791	-0.160	-0.177
-639.653	18.965	-0.015	0.012
-638.638	-200.000	-0.026	0.303
-637.624	99.141	-0.064	-0.074
-636.609	-40.305	0.356	0.185
-635.595	-127.824	-0.126	0.018
-634.580	-63.697	-0.114	0.047
-633.565	-200.000	-0.013	0.067
-632.551	43.196	0.340	-0.311
-631.536	94.091	-0.081	0.092
-630.522	-79.028	0.181	-0.062
-629.507	44.473	-0.112	0.103
-628.492	-12.153	-0.443	0.291
-627.478	392.391	-0.115	0.239
-626.463	463.992	-0.192	-0.431
-625.449	406.911	0.068	-0.143
-624.434	132.916	-0.067	-0.086
-623.419	-55.940	-0.339	-0.151
-622.405	-27.361	-0.015	0.009
-621.390	-200.000	0.004	0.020
-620.376	46.852	0.265	-0.246
-619.361	376.173	0.089	0.182
-618.346	-200.000	0.007	0.163
-617.332	6.732	-0.137	-0.102
-616.317	-44.904	-0.105	0.053
-615.303	-200.000	-0.027	-0.190
-614.288	79.011	-0.133	-0.142
-613.273	352.688	0.050	0.100
-612.259	2.734	0.207	0.150
-611.244	76.425	-0.200	0.212
-610.230	-65.647	-0.296	-0.119
-609.215	249.227	-0.044	0.075
-608.201	-96.169	-0.254	0.067
-607.186	113.367	-0.167	0.203
-606.171	129.457	0.095	0.121
-605.157	-174.427	0.251	0.007
-604.142	800.000	0.043	0.137
-603.128	261.677	0.188	0.326
-602.113	-200.000	-0.029	-0.135
-601.098	-200.000	-0.026	-0.511
-600.084	-200.000	0.010	-0.068
-599.069	325.285	-0.044	0.083
-598.055	800.000	0.095	0.350
-597.040	64.377	0.069	-0.070
-596.025	215.546	-0.180	-0.286
-595.011	-200.000	0.017	0.138
-593.996	389.136	0.071	0.147
-592.982	-200.000	0.004	0.065
-591.967	800.000	0.042	-0.120
-590.952	353.753	-0.070	-0.140
-589.938	124.358	0.078	-0.098
-588.923	-114.589	-0.370	0.071
-587.909	-108.572	0.285	-0.061
-586.894	800.000	0.065	0.257
-585.879	25.439	-0.104	0.086
-584.865	76.491	-0.332	0.351
-583.850	-200.000	-0.038	0.333
-582.836	20.709	-0.071	-0.058
-581.821	38.610	-0.108	-0.096
-580.806	-200.000	0.004	-0.047
-579.792	-200.000	0.056	-0.401
-578.777	800.000	0.053	-0.208
-577.763	726.910	-0.061	0.162
-576.748	-24.066	-0.260	-0.156
-575.733	-28.785	0.190	0.109
-574.719	565.777	-0.150	0.364
-573.704	-200.000	-0.040	-0.306
-572.690	-200.000	-0.239	-0.000
-571.675	134.704	0.032	0.041
-570.661	-61.366	0.295	0.124
-569.646	492.264	-0.106	0.242
-568.631	310.980	0.085	-0.159
-567.617	800.000	-0.097	-0.421
-566.602	-109.147	-0.243	-0.052
-565.588	-44.753	0.146	0.073
-564.573	-200.000	0.009	0.197
-563.558	22.736	-0.180	0.147
-562.544	-8.097	0.199	0.134
-561.529	-91.858	0.051	-0.014
-560.515	-129.446	-0.288	0.040
-559.500	-161.298	-0.239	0.012
-558.485	-52.258	0.192	-0.089
-557.471	305.103	0.181	-0.336
-556.456	49.122	0.188	0.177
-555.442	318.410	0.110	-0.208
-554.427	74.844	0.230	-0.241
-553.412	117.791	-0.090	0.111
-552.398	-73.751	0.331	-0.120
-551.383	41.842	0.172	-0.156
-550.369	-21.962	0.291	-0.177
-549.354	56.691	-0.032	0.031
-548.339	219.484	-0.086	-0.138
-547.325	-107.453	0.187	0.041
-546.310	-200.000	-0.021	-0.480
-545.296	411.637	-0.167	0.355
-544.281	-0.179	0.126	0.090
-543.266	-53.903	-0.102	0.046
-542.252	-34.408	0.177	-0.097
-541.237	-136.566	0.251	0.029
-540.223	-32.405	-0.153	0.085
-539.208	59.638	-0.220	0.217
-538.193	-54.624	-0.100	-0.045
-537.179	-173.133	-0.065	0.002
-536.164	140.904	-0.184	-0.243
-535.150	-200.000	0.085	0.470
-534.135	3.672	0.153	-0.111
-533.121	-87.899	0.169	-0.051
-532.106	67.175	-0.157	-0.160
-531.091	-53.561	0.174	-0.079
-530.077	-192.092	-0.288	0.003
-529.062	74.113	-0.368	0.385
-528.048	800.000	0.050	0.162
-527.033	-200.000	-0.008	0.064
-526.018	-123.060	-0.451	-0.072
-525.004	-134.963	0.092	-0.011
-523.989	189.029	-0.048	0.072
-522.975	-89.531	0.304	0.089
-521.960	515.315	0.084	0.195
-520.945	-200.000	0.040	-0.278
-519.931	-86.425	-0.316	-0.097
-518.916	-44.391	-0.401	0.200
-517.902	-32.048	-0.167	-0.093
-516.887	-200.000	0.044	0.214
-515.872	-200.000	0.023	0.123
-514.858	-91.975	0.273	-0.077
-513.843	-48.646	-0.100	-0.048
-512.829	-11.737	0.172	-0.113
-511.814	-133.840	-0.308	-0.038
-510.799	-48.705	-0.310	0.148
-509.785	-165.546	-0.207	0.009
-508.770	-125.638	-0.524	-0.079
-507.756	-200.000	0.055	-0.358
-506.741	10.337	0.107	-0.081
-505.726	269.850	-0.177	0.310
-504.712	312.459	0.046	-0.085
-503.697	-12.511	0.298	-0.194
-502.683	28.649	0.216	0.183
-501.668	34.201	-0.096	-0.083
-500.653	-41.144	-0.295	-0.152
-499.639	800.000	0.090	0.263
-498.624	-145.658	-0.116	0.010
-497.610	85.324	0.169	0.185
-496.595	76.563	0.289	0.305
-495.581	74.207	-0.065	-0.068
-494.566	-20.743	0.086	-0.052
-493.551	311.557	-0.093	0.174
-492.537	800.000	-0.108	-0.419
-491.522	416.588	-0.148	-0.314
-490.508	-200.000	0.022	0.143
-489.493	422.198	-0.090	0.192
-488.478	-59.185	-0.200	-0.086
-487.464	-200.000	0.038	0.296
-486.449	-200.000	-0.005	-0.150
-485.435	0.264	-0.394	0.280
-484.420	-71.993	0.319	-0.118
-483.405	-22.972	-0.296	-0.178
-482.391	-200.000	-0.044	-0.348
-481.376	-27.825	-0.129	-0.075
-480.362	-49.036	-0.094	0.045
-479.347	54.422	0.034	-0.033
-478.332	-97.879	0.211	0.054
-477.318	800.000	-0.085	0.340
-476.303	-200.000	-0.002	0.315
-475.289	-95.035	-0.417	-0.112
-474.274	-38.894	-0.168	0.088
-473.259	127.244	0.117	-0.148
-472.245	-148.224	0.183	0.015
-471.230	28.298	0.168	0.141
-470.216	-9.698	0.017	-0.011
-469.201	-102.326	-0.201	0.048
-468.186	-89.855	-0.244	0.071
-467.172	800.000	-0.168	0.473
-466.157	-200.000	0.026	0.137
-465.143	-86.869	0.396	0.120
-464.128	-200.000	0.005	0.070
-463.113	20.025	0.189	-0.152
-462.099	-34.624	-0.263	-0.143
-461.084	-76.928	0.107	0.037
-460.070	800.000	0.064	-0.221
-459.055	-83.769	-0.158	0.050
-458.040	11.252	-0.295	0.225
-457.026	-131.476	0.315	0.041
-456.011	-18.580	0.246	0.153
-454.997	1.800	-0.432	-0.310
-453.982	162.818	0.230	-0.322
-452.968	800.000	-0.144	-0.460
-451.953	-200.000	0.001	0.352
-450.938	-200.000	-0.021	-0.349
-449.924	28.148	-0.101	0.085
-448.909	-85.710	0.301	0.093
-447.895	-122.612	-0.454	-0.073
-446.880	86.705	0.138	0.152
-445.865	-100.903	0.206	0.050
-444.851	-31.595	0.151	0.085
-443.836	-162.546	-0.297	0.015
-442.822	800.000	0.034	0.138
-441.807	-142.999	0.162	0.016
-440.792	-185.432	0.425	0.006
-439.778	14.407	-0.090	-0.070
-438.763	4.220	0.322	0.234
-437.749	800.000	0.053	-0.215
-436.734	84.297	-0.113	-0.123
-435.719	98.978	0.054	-0.062
-434.705	15.212	-0.041	0.032
-433.690	-25.473	-0.357	0.210
-432.676	-200.000	0.001	-0.032
-431.661	800.000	0.092	-0.281
-430.646	6.394	-0.094	-0.070
-429.632	151.151	-0.120	0.162
-428.617	35.841	0.073	0.064
-427.603	-200.000	-0.017	-0.080
-426.588	-172.438	0.185	-0.006
-425.573	-37.029	-0.136	0.072
-424.559	-89.718	0.081	0.024
-423.544	-200.000	0.028	0.324
-422.530	1.456	-0.207	-0.148
-421.515	-107.279	-0.026	0.006
-420.500	-30.951	0.096	0.054
-419.486	112.459	0.151	-0.182
-418.471	800.000	-0.011	-0.039
-417.457	-116.817	0.367	0.067
-416.442	-89.002	-0.163	0.048
-415.428	219.385	-0.031	0.050
-414.413	-59.423	-0.359	0.153
-413.398	87.763	-0.185	-0.204
-412.384	-200.000	0.048	0.261
-411.369	-13.082	0.106	0.068
-410.355	-97.908	-0.313	-0.080
-409.340	-200.000	0.015	0.069
-408.325	-47.358	-0.147	-0.071
-407.311	-75.365	-0.440	-0.156
-406.296	341.640	0.079	-0.153
-405.282	-200.000	-0.071	-0.369
-404.267	800.000	-0.034	0.093
-403.252	800.000	-0.072	-0.252
-402.238	16.823	-0.387	-0.304
-401.223	795.787	0.042	-0.115
-400.209	-128.596	0.222	-0.031
-399.194	114.812	0.148	-0.179
-398.179	-200.000	-0.023	-0.111
-397.165	-101.458	-0.094	0.023
-396.150	-169.984	0.236	-0.008
-395.136	-68.539	0.305	0.117
-394.121	-200.000	-0.006	-0.208
-393.106	323.708	-0.145	0.275
-392.092	190.941	0.203	0.303
-391.077	-200.000	0.002	-0.167
-390.063	50.072	0.089	0.084
-389.048	-200.000	-0.013	-0.101
-388.033	-97.911	-0.307	-0.079
-387.019	121.429	0.026	0.032
-386.004	40.941	0.147	-0.132
-384.990	0.886	0.105	-0.075
-383.975	-200.000	-0.011	0.081
-382.960	612.998	0.044	0.110
-381.946	609.701	0.053	0.132
-380.931	8.737	0.195	0.146
-379.917	-129.973	-0.196	-0.027
-378.902	-149.913	-0.336	-0.026
-377.888	58.107	0.022	0.022
-376.873	-109.166	0.182	0.038
-375.858	-93.648	-0.356	0.097
-374.844	-120.877	0.251	0.042
-373.829	618.571	0.119	0.297
-372.815	34.649	-0.301	0.261
-371.800	219.096	0.049	-0.077
-370.785	35.255	-0.107	0.093
-369.771	-59.305	-0.219	0.093
-368.756	-90.527	-0.134	-0.038
-367.742	-200.000	0.047	-0.269
-366.727	800.000	-0.091	0.370
-365.712	-92.416	0.317	-0.088
-364.698	9.474	0.174	-0.130
-363.683	-92.629	0.139	0.039
-362.669	47.124	0.166	-0.153
-361.654	-200.000	0.020	-0.214
-360.639	312.562	-0.063	0.116
-359.625	-24.523	-0.202	-0.119
-358.610	-178.045	-0.406	0.010
-357.596	151.046	-0.257	-0.347
-356.581	-200.000	-0.005	-0.074
-355.566	-54.407	-0.058	0.026
-354.552	465.686	0.058	0.129
-353.537	759.527	-0.005	0.014
-352.523	671.413	-0.052	-0.134
-351.508	-81.323	-0.305	-0.100
-350.493	55.423	0.235	0.225
-349.479	57.946	-0.180	-0.175
-348.464	800.000	0.061	-0.245
-347.450	-200.000	0.043	-0.354
-346.435	175.899	0.169	0.242
-345.420	800.000	0.024	-0.084
-344.406	-55.014	0.269	-0.120
-343.391	199.759	0.032	0.049
-342.377	-136.932	0.142	-0.016
-341.362	-100.891	0.204	-0.050
-340.348	518.612	-0.233	0.541
-339.333	499.261	-0.029	0.066
-338.318	-200.000	-0.033	-0.196
-337.304	31.571	0.086	-0.074
-336.289	101.715	-0.127	-0.147
-335.275	-183.100	-0.299	-0.005
-334.260	66.784	0.059	-0.060
-333.245	-126.528	0.188	0.028
-332.231	-76.829	-0.450	0.156
-331.216	800.000	0.146	0.415
-330.202	-121.631	-0.407	0.067
-329.187	-129.793	0.128	0.017
-328.172	162.846	0.206	-0.286
-327.158	174.997	-0.045	-0.064
-326.143	-159.541	-0.209	0.011
-325.129	166.797	-0.073	-0.102
-324.114	-0.994	0.319	0.223
-323.099	29.914	0.131	0.110
-322.085	-29.040	0.076	-0.043
-321.070	-176.474	0.379	-0.010
-320.056	-187.840	0.372	0.005
-319.041	-146.303	0.136	0.012
-318.026	141.288	0.360	0.472
-317.012	96.200	0.120	0.135
-315.997	-106.885	0.148	-0.032
-314.983	569.258	0.048	0.115
-313.968	-200.000	-0.003	-0.119
-312.953	-22.679	0.275	0.164
-311.939	-200.000	0.014	0.169
-310.924	-16.619	0.292	0.183
-309.910	33.963	0.262	0.226
-308.895	531.686	-0.094	-0.219
-307.880	14.224	-0.172	0.132
-306.866	800.000	0.031	-0.107
-305.851	-135.083	-0.614	-0.073
-304.837	-150.400	-0.177	0.013
-303.822	-200.000	0.017	0.138
-302.807	448.199	-0.034	0.073
-301.793	478.637	0.173	-0.388
-300.778	800.000	-0.083	-0.298
-299.764	-157.079	-0.232	0.014
-298.749	50.546	0.081	-0.076
-297.735	800.000	-0.102	0.285
-296.720	-27.570	0.144	-0.083
-295.705	-95.140	0.277	0.074
-294.691	-174.544	-0.313	0.009
-293.676	-200.000	0.044	-0.207
-292.662	185.371	0.086	0.126
-291.647	264.793	-0.119	0.204
-290.632	-126.166	0.026	0.004
-289.618	800.000	-0.068	0.201
-288.603	-38.732	0.126	0.066
-287.589	-200.000	0.010	-0.160
-286.574	-56.274	0.288	0.127
-285.559	-122.697	-0.150	0.024
-284.545	147.183	-0.071	-0.094
-283.530	-128.188	0.346	0.049
-282.516	-197.492	0.131	-0.001
-281.501	800.000	-0.028	0.092
-280.486	746.251	-0.050	0.132
-279.472	-2.712	-0.193	-0.134
-278.457	173.087	-0.190	0.270
-277.443	482.303	-0.153	-0.343
-276.428	252.021	-0.105	-0.177
-275.413	-23.805	-0.320	-0.189
-274.399	-50.741	0.094	0.044
-273.384	179.088	0.045	-0.065
-272.370	-9.051	-0.335	-0.222
-271.355	-131.054	-0.072	-0.009
-270.340	-200.000	0.020	-0.205
-269.326	-23.028	0.227	-0.135
-268.311	-200.000	0.012	-0.148
-267.297	800.000	-0.067	-0.254
-266.282	800.000	0.131	0.366
-265.267	67.952	-0.167	-0.169
-264.253	687.800	0.193	-0.498
-263.238	-94.635	0.390	-0.105
-262.224	-84.713	-0.213	0.066
-261.209	334.068	-0.147	0.280
-260.195	-200.000	-0.024	-0.199
-259.180	189.303	0.066	-0.097
-258.165	-160.548	-0.117	-0.006
-257.151	-200.000	-0.001	0.011
-256.136	95.618	-0.243	-0.273
-255.122	-200.000	0.082	-0.442
-254.107	141.546	-0.134	-0.175
-253.092	117.480	0.114	-0.138
-252.078	-142.405	0.253	0.025
-251.063	-59.545	0.112	-0.047
-250.049	455.438	0.122	-0.267
-249.034	525.899	-0.135	-0.313
-248.019	175.385	-0.024	-0.034
-247.005	-200.000	-0.038	0.000
-245.990	-118.092	0.348	0.061
-244.976	-72.839	-0.236	0.086
-243.961	-126.141	0.085	-0.013
-242.946	-26.974	-0.205	-0.118
-241.932	-98.413	0.165	0.042
-240.917	201.403	-0.188	0.286
-239.903	-200.000	0.037	-0.191
-238.888	-63.288	0.167	-0.068
-237.873	286.630	-0.246	0.438
-236.859	-105.583	0.172	0.038
-235.844	313.301	0.083	-0.154
-234.830	800.000	0.008	0.022
-233.815	-42.709	0.222	-0.111
-232.800	-200.000	0.017	0.075
-231.786	-136.140	0.433	-0.050
-230.771	800.000	0.063	0.190
-229.757	-7.167	0.186	0.124
-228.742	-200.000	0.011	0.291
-227.727	-143.381	-0.248	0.023
-226.713	370.674	0.095	0.190
-225.698	-123.143	0.415	0.066
-224.684	260.145	-0.032	0.055
-223.669	-22.072	-0.150	0.090
-222.655	-19.068	0.156	-0.096
-221.640	-65.966	0.350	-0.138
-220.625	800.000	0.029	0.114
-219.611	-36.702	0.066	0.035
-218.596	-130.894	-0.213	-0.028
-217.582	-200.000	0.016	-0.174
-216.567	-10.214	-0.272	0.178
-215.552	-143.905	-0.065	0.006
-214.538	151.510	-0.217	-0.291
-213.523	-78.942	0.212	0.071
-212.509	368.078	0.163	-0.324
-211.494	-63.970	0.201	0.081
-210.479	-200.000	-0.010	0.166
-209.465	2.409	0.190	0.135
-208.450	151.648	0.158	-0.212
-207.436	152.748	0.158	0.212
-206.421	70.129	0.166	-0.169
-205.406	800.000	0.124	0.345
-204.392	-8.342	0.161	-0.107
-203.377	-57.257	0.195	-0.084
-202.363	677.196	0.046	0.119
-201.348	-90.938	-0.135	0.038
-200.333	185.223	0.062	0.091
-199.319	113.670	0.068	-0.082
-198.304	800.000	0.152	-0.428
-197.290	-33.813	-0.389	-0.211
-196.275	17.778	-0.017	-0.013
-195.260	-77.011	0.328	0.113
-194.246	-4.228	0.092	0.063
-193.231	-200.000	-0.015	0.337
-192.217	446.640	-0.114	-0.247
-191.202	-92.117	0.136	-0.038
-190.187	-27.576	-0.251	-0.143
-189.173	588.162	-0.042	-0.102
-188.158	-200.000	-0.053	0.236
-187.144	-44.016	0.285	0.141
-186.129	-48.818	-0.131	-0.062
-185.114	800.000	0.055	-0.177
-184.100	-112.266	0.395	-0.078
-183.085	-200.000	0.049	-0.260
-182.071	226.308	0.136	0.218
-181.056	-22.506	0.361	0.215
-180.042	416.074	0.071	0.148
-179.027	-117.518	-0.221	0.039
-178.012	-120.902	0.277	0.046
-176.998	328.910	0.132	0.250
-175.983	413.590	0.034	-0.072
-174.969	800.000	0.023	0.091
-173.954	-200.000	-0.041	0.293
-172.939	-29.037	-0.418	-0.236
-171.925	800.000	-0.039	-0.162
-170.910	-30.400	0.139	0.078
-169.896	279.599	0.131	-0.230
-168.881	-127.442	0.146	0.021
-167.866	-32.121	-0.181	-0.100
-166.852	-200.000	-0.026	-0.143
-165.837	800.000	-0.057	-0.197
-164.823	-188.794	-0.178	-0.002
-163.808	57.677	0.258	-0.249
-162.793	-76.993	0.244	-0.084
-161.779	-200.000	-0.022	-0.121
-160.764	-35.597	0.307	-0.164
-159.750	-35.878	-0.217	0.116
-158.735	800.000	-0.122	0.365
-157.720	24.563	-0.174	0.142
-156.706	151.492	0.098	0.132
-155.691	800.000	0.047	0.168
-154.677	-35.973	0.071	0.038
-153.662	-80.213	-0.189	0.062
-152.647	-76.459	-0.116	0.040
-151.633	1.134	0.512	0.361
-150.618	800.000	-0.079	-0.260
-149.604	-48.391	-0.345	-0.163
-148.589	-2.714	-0.257	-0.177
-147.574	-200.000	-0.027	0.144
-146.560	-80.562	-0.024	-0.008
-145.545	-200.000	-0.045	-0.233
-144.531	434.590	-0.017	0.036
-143.516	41.889	0.234	0.208
-142.502	116.672	0.147	-0.177
-141.487	-99.700	0.013	0.003
-140.472	800.000	0.051	-0.184
-139.458	800.000	0.024	0.084
-138.443	125.289	-0.115	-0.143
-137.429	-70.484	-0.131	-0.049
-136.414	-169.391	0.105	0.004
-135.399	-34.135	0.322	0.174
-134.385	-200.000	0.031	-0.182
-133.370	-137.324	0.103	-0.012
-132.356	-25.037	-0.097	0.057
-131.341	-141.854	-0.205	-0.020
-130.326	-200.000	-0.030	-0.203
-129.312	-102.651	0.019	-0.004
-128.297	800.000	0.091	-0.251
-127.283	284.636	-0.134	-0.236
-126.268	-43.288	-0.077	-0.038
-125.253	386.494	0.152	-0.307
-124.239	-200.000	-0.030	-0.158
-123.224	371.425	-0.067	0.134
-122.210	41.274	0.122	-0.109
-121.195	81.096	-0.238	-0.252
-120.180	-121.229	-0.102	0.017
-119.166	-93.493	0.468	-0.127
-118.151	-200.000	-0.002	-0.126
-117.137	80.129	0.117	-0.124
-116.122	-36.124	-0.379	0.201
-115.107	31.918	0.083	0.070
-114.093	-53.251	-0.131	0.059
-113.078	-70.759	-0.194	0.072
-112.064	162.836	0.019	0.026
-111.049	-150.000	0.050	-0.004
-110.034	136.423	0.050	0.064
-109.020	226.319	-0.114	-0.181
-108.005	618.991	-0.018	0.044
-106.991	800.000	0.069	-0.224
-105.976	-83.556	-0.339	0.106
-104.962	-200.000	-0.038	0.217
-103.947	-200.000	-0.043	0.192
-102.932	226.761	-0.104	-0.166
-101.918	143.068	0.105	-0.137
-100.903	33.965	0.137	0.117
-99.889	77.565	0.210	0.219
-98.874	-75.689	-0.280	-0.098
-97.859	-200.000	-0.020	0.113
-96.845	414.510	-0.225	0.470
-95.830	-57.463	0.380	0.164
-94.816	-124.647	-0.478	0.073
-93.801	209.381	-0.045	-0.070
-92.786	800.000	0.023	0.078
-91.772	175.981	0.131	0.187
-90.757	460.734	-0.094	0.206
-89.743	-133.540	0.247	0.030
-88.728	-138.657	0.121	0.013
-87.713	16.329	-0.173	0.134
-86.699	499.681	0.165	-0.373
-85.684	32.195	0.164	-0.139
-84.670	11.711	-0.168	-0.127
-83.655	-81.845	-0.419	0.135
-82.640	-200.000	-0.056	-0.314
-81.626	-139.013	-0.339	-0.036
-80.611	-161.874	0.250	-0.012
-79.597	-200.000	-0.048	-0.303
-78.582	-200.000	0.017	-0.142
-77.567	-94.927	-0.236	0.063
-76.553	-35.380	0.574	-0.306
-75.538	112.941	-0.319	0.379
-74.524	148.528	-0.122	-0.162
-73.509	116.805	-0.262	-0.315
-72.494	243.816	-0.203	0.334
-71.480	239.939	0.142	0.232
-70.465	58.504	0.166	-0.160
-69.451	87.784	-0.122	-0.132
-68.436	-200.000	0.047	-0.209
-67.422	68.493	-0.179	0.180
-66.407	-200.000	-0.024	0.212
-65.392	-30.092	0.173	-0.097
-64.378	-98.374	0.139	0.035
-63.363	-200.000	-0.014	0.229
-62.349	-81.655	0.070	0.022
-61.334	61.819	-0.967	-0.944
-60.319	-34.028	0.458	0.247
-59.305	-200.000	-0.160	-1.143
-58.290	184.668	0.793	1.151
-57.276	800.000	0.602	1.765
-56.261	-200.000	111.535	607.827
-55.246	497.820	1530.442	3450.177
-54.232	173.388	2719.945	3841.301
-53.217	100.890	2305.844	2625.359
-52.203	37.090	1908.435	1653.998
-51.188	31.191	1694.842	1423.986
-50.173	28.543	1652.725	1368.815
-49.159	48.174	1708.870	1564.859
-48.144	47.649	1723.085	1573.830
-47.130	30.585	1679.727	1406.479
-46.115	27.981	1665.041	1374.571
-45.100	27.821	1659.992	1369.149
-44.086	27.854	1656.888	1366.780
-43.071	27.705	1654.586	1363.710
-42.057	27.718	1652.300	1361.873
-41.042	27.725	1650.237	1360.169
-40.027	27.713	1648.817	1358.851
-39.013	27.683	1646.410	1356.595
-37.998	27.680	1645.004	1355.358
-36.984	27.791	1643.071	1354.536
-35.969	27.839	1641.714	1353.723
-34.954	27.976	1639.727	1353.043
-33.940	27.850	1638.810	1351.302
-32.925	27.808	1637.229	1349.630
-31.911	27.871	1635.070	1348.263
-30.896	27.838	1633.645	1346.788
-29.881	27.831	1631.938	1345.277
-28.867	27.879	1630.015	1343.996
-27.852	27.822	1629.178	1342.830
-26.838	27.876	1626.907	1341.300
-25.823	27.831	1625.972	1340.149
-24.809	27.862	1624.719	1339.292
-23.794	27.874	1623.253	1338.117
-22.779	27.954	1621.759	1337.414
-21.765	27.710	1620.887	1334.855
-20.750	27.900	1618.526	1334.246
-19.736	27.957	1617.462	1333.733
-18.721	27.912	1616.503	1332.560
-17.706	27.886	1614.253	1330.469
-16.692	27.928	1613.004	1329.691
-15.677	28.007	1611.381	1328.872
-14.663	28.009	1610.197	1327.861
-13.648	27.997	1608.683	1326.471
-12.633	27.944	1607.308	1324.901
-11.619	27.845	1605.748	1322.844
-10.604	27.929	1604.380	1322.270
-9.590	27.947	1603.032	1321.239
-8.575	27.965	1601.641	1320.170
-7.560	27.957	1600.293	1318.948
-6.546	27.921	1599.653	1318.109
-5.531	27.924	1598.557	1317.173
-4.517	27.863	1597.516	1315.829
-3.502	27.938	1596.139	1315.177
-2.487	28.047	1594.336	1314.423
-1.473	27.887	1582.878	1303.787
-0.458	25.348	1564.429	1270.599
0.556	24.090	1566.680	1241.457
1.571	21.867	1591.752	1245.445
2.586	21.262	1604.492	1250.968
3.600	19.060	1549.521	1192.761
4.615	11.756	1441.452	1062.207
5.629	5.437	1380.768	977.992
6.644	4.196	1373.660	965.147
7.659	4.302	1372.393	964.834
8.673	4.357	1371.455	964.427
9.688	4.415	1369.181	963.102
10.702	4.338	1366.328	960.536
11.717	7.226	1372.096	982.433
12.731	14.986	1386.110	1040.826
13.746	21.076	1395.688	1085.958
14.761	22.470	1397.646	1096.063
15.775	21.945	1395.559	1091.066
16.790	20.934	1392.943	1082.648
17.804	20.263	1390.633	1076.594
18.819	19.877	1389.716	1073.398
19.834	19.795	1388.721	1072.027
20.848	19.693	1387.648	1070.469
21.863	19.466	1386.826	1068.338
22.877	19.463	1385.436	1067.155
23.892	19.548	1383.983	1066.464
24.907	19.337	1383.096	1064.381
25.921	19.401	1382.345	1064.104
26.936	19.322	1381.379	1062.782
27.950	19.462	1380.700	1063.028
28.965	19.582	1379.569	1062.803
29.980	19.683	1378.597	1062.579
30.994	19.721	1378.015	1062.269
32.009	19.815	1376.404	1061.510
33.023	19.737	1375.576	1060.303
34.038	19.723	1374.213	1059.069
35.053	19.558	1373.047	1057.066
36.067	19.546	1371.884	1056.007
37.082	19.587	1371.077	1055.542
38.096	19.683	1370.086	1055.275
39.111	19.712	1369.641	1055.013
40.126	19.468	1368.570	1052.604
41.140	19.204	1367.541	1050.114
42.155	19.034	1367.027	1048.592
43.169	19.118	1366.108	1048.306
44.184	18.964	1365.983	1047.175
45.199	19.108	1366.297	1048.201
46.213	19.359	1365.435	1048.976
47.228	19.410	1365.234	1049.038
48.242	19.655	1363.348	1048.983
49.257	19.523	1362.131	1047.155
50.271	19.426	1361.042	1045.633
51.286	19.563	1359.597	1045.262
52.301	19.471	1358.237	1043.565
53.315	19.380	1357.004	1041.977
54.330	19.203	1355.921	1039.988
55.344	19.120	1354.958	1038.653
56.359	19.196	1353.704	1038.057
57.374	19.237	1352.669	1037.422
58.388	19.026	1352.226	1035.717
59.403	19.002	1351.596	1035.002
60.417	18.992	1350.740	1034.195
61.432	18.918	1350.268	1033.293
62.447	18.879	1348.848	1031.883
63.461	18.898	1347.318	1030.736
64.476	18.855	1346.656	1029.882
65.490	18.877	1345.014	1028.668
66.505	18.837	1343.895	1027.478
67.520	18.854	1342.678	1026.557
68.534	18.948	1341.570	1026.182
69.549	18.897	1340.587	1025.035
70.563	18.836	1339.338	1023.625
71.578	18.668	1338.444	1021.855
72.593	18.663	1337.144	1020.741
73.607	18.621	1336.375	1019.812
74.622	18.570	1336.542	1019.550
75.636	18.660	1335.563	1019.242
76.651	18.777	1334.470	1019.012
77.666	18.696	1334.249	1018.274
78.680	18.784	1333.694	1018.282
79.695	18.945	1332.592	1018.306
80.709	18.999	1332.609	1018.547
81.724	19.137	1331.743	1018.609
82.739	19.234	1330.634	1018.248
83.753	19.295	1330.243	1018.217
84.768	19.567	1329.436	1019.114
85.782	19.657	1328.214	1018.618
86.797	19.642	1327.730	1018.072
87.812	19.532	1325.917	1015.941
88.826	19.393	1325.179	1014.468
89.841	19.551	1324.011	1014.415
90.855	19.593	1323.093	1013.869
91.870	19.715	1322.179	1013.790
92.884	19.681	1321.268	1012.805
93.899	19.763	1320.478	1012.590
94.914	19.761	1319.957	1012.088
95.928	19.819	1318.390	1011.139
96.943	19.668	1318.227	1010.042
97.957	19.588	1317.338	1008.805
98.972	19.692	1315.991	1008.287
99.987	19.670	1315.009	1007.319
101.001	19.697	1313.845	1006.495
102.016	19.639	1313.058	1005.463
103.030	19.737	1312.180	1005.277
104.045	19.554	1311.698	1003.755
105.060	19.486	1310.076	1002.030
106.074	19.078	1308.495	998.364
107.089	18.958	1306.545	996.092
108.103	18.798	1305.427	994.223
109.118	18.884	1304.136	993.651
110.133	18.834	1303.373	992.694
111.147	18.815	1301.741	991.253
112.162	18.949	1300.555	991.033
113.176	18.990	1299.389	990.296
114.191	19.059	1299.040	990.336
115.206	19.081	1297.598	989.280
116.220	19.009	1296.338	987.814
117.235	18.932	1294.984	986.255
118.249	18.941	1294.119	985.561
119.264	18.923	1292.740	984.320
120.279	18.785	1291.886	982.794
121.293	18.728	1290.283	981.164
122.308	18.693	1289.320	980.144
123.322	18.611	1288.619	979.054
124.337	18.552	1287.776	977.989
125.352	18.635	1285.730	976.826
126.366	18.662	1284.717	976.123
127.381	18.605	1284.014	975.175
128.395	18.641	1283.055	974.567
129.410	18.648	1282.109	973.800
130.424	18.749	1281.433	973.773
131.439	18.907	1280.308	973.731
132.454	18.925	1280.132	973.610
133.468	18.937	1279.527	973.130
134.483	19.075	1278.354	972.934
135.497	18.978	1277.307	971.501
136.512	18.989	1276.517	970.879
137.527	19.077	1274.799	969.984
138.541	19.079	1273.264	968.739
139.556	19.217	1272.016	968.479
140.570	19.290	1271.221	968.199
141.585	19.352	1270.875	968.201
142.600	19.466	1269.190	967.469
143.614	19.550	1268.626	967.422
144.629	19.593	1267.805	966.953
145.643	19.608	1266.640	966.063
146.658	19.388	1265.184	963.639
147.673	19.321	1263.417	961.831
148.687	19.190	1262.217	960.105
149.702	19.106	1260.487	958.232
150.716	19.078	1259.054	956.903
151.731	18.975	1258.328	955.695
152.746	19.074	1257.056	955.198
153.760	19.141	1256.020	954.693
154.775	19.212	1255.237	954.412
155.789	19.363	1254.096	954.293
156.804	19.407	1253.515	954.011
157.819	19.442	1252.429	953.291
158.833	19.485	1252.035	953.144
159.848	19.571	1251.096	952.819
160.862	19.530	1250.583	952.118
161.877	19.330	1248.305	949.203
162.892	19.109	1247.233	947.083
163.906	19.120	1246.463	946.477
164.921	19.057	1245.321	945.181
165.935	19.124	1244.990	945.216
166.950	19.410	1244.110	946.030
167.964	19.296	1243.512	944.864
168.979	19.101	1242.649	943.058
169.994	19.250	1241.730	943.096
171.008	19.248	1240.944	942.403
172.023	19.325	1240.629	942.502
173.037	19.462	1240.194	942.833
174.052	19.310	1239.420	941.336
175.067	19.248	1237.737	939.634
176.081	19.197	1236.135	938.060
177.096	18.987	1236.114	936.814
178.110	19.157	1234.554	936.474
179.125	19.223	1233.237	935.751
180.140	19.421	1231.792	935.643
181.154	19.410	1231.228	935.077
182.169	19.470	1230.551	934.802
183.183	19.493	1229.275	933.875
184.198	19.595	1228.087	933.444
185.213	19.613	1226.972	932.608
186.227	19.687	1225.966	932.161
187.242	19.759	1225.343	931.993
188.256	19.824	1224.343	931.498
189.271	19.864	1223.506	930.997
190.286	19.532	1222.638	928.466
191.300	19.156	1221.180	925.261
192.315	19.106	1219.795	923.859
193.329	19.170	1220.087	924.340
194.344	19.277	1219.139	924.114
195.359	19.212	1218.641	923.310
196.373	19.351	1218.549	923.903
197.388	19.563	1218.029	924.559
198.402	19.744	1217.248	924.854
199.417	19.909	1216.755	925.279
200.432	20.037	1216.369	925.590
201.446	20.220	1215.805	926.055
202.461	20.099	1215.062	924.764
203.475	20.191	1213.978	924.346
204.490	19.949	1212.279	921.681
205.504	19.732	1211.057	919.518
206.519	19.634	1209.982	918.098
207.534	19.589	1208.525	916.674
208.548	19.623	1207.532	916.018
209.563	19.694	1207.241	916.093
210.577	19.752	1205.964	915.351
211.592	19.775	1205.621	915.128
212.607	20.060	1204.447	915.663
213.621	19.948	1203.766	914.474
214.636	19.950	1202.962	913.794
215.650	19.903	1201.970	912.710
216.665	20.193	1200.580	913.105
217.680	20.141	1200.428	912.630
218.694	20.183	1199.651	912.180
219.709	20.106	1199.129	911.301
220.723	20.074	1198.290	910.412
221.738	20.063	1197.782	909.887
222.753	19.999	1196.892	908.794
223.767	20.143	1195.556	908.458
224.782	20.138	1195.308	908.161
225.796	20.305	1194.897	908.642
226.811	20.301	1193.838	907.733
227.826	20.059	1193.211	905.913
228.840	20.098	1192.226	905.289
229.855	20.051	1191.737	904.591
230.869	20.001	1190.632	903.415
231.884	19.951	1189.734	902.390
232.899	19.860	1188.881	901.192
233.913	19.756	1187.965	899.873
234.928	19.746	1187.308	899.248
235.942	19.735	1186.524	898.517
236.957	19.650	1185.775	897.427
237.972	19.716	1185.012	897.114
238.986	19.711	1184.203	896.393
240.001	19.889	1183.730	896.882
241.015	19.712	1182.844	895.215
242.030	19.844	1182.262	895.377
243.045	20.025	1181.282	895.491
244.059	20.125	1180.116	895.043
245.074	20.093	1179.799	894.559
246.088	20.119	1179.376	894.293
247.103	20.258	1178.508	894.272
248.117	20.406	1178.154	894.686
249.132	20.546	1177.448	894.790
250.147	20.898	1176.719	895.968
251.161	21.028	1176.132	896.113
252.176	20.898	1176.089	895.332
253.190	20.939	1175.309	894.872
254.205	21.135	1174.714	895.341
255.220	21.123	1174.217	894.822
256.234	21.054	1173.524	893.863
257.249	21.112	1172.206	893.077
258.263	20.917	1172.132	891.940
259.278	20.926	1171.230	891.226
260.293	20.979	1170.690	891.006
261.307	20.966	1170.508	890.721
262.322	21.188	1169.684	891.147
263.336	21.105	1169.142	890.232
264.351	21.182	1168.503	890.059
265.366	21.226	1167.484	889.430
266.380	21.228	1166.602	888.690
267.395	21.165	1165.573	887.507
268.409	21.032	1165.260	886.511
269.424	20.929	1164.303	885.185
270.439	20.960	1163.990	885.024
271.453	20.903	1162.872	883.808
272.468	20.710	1162.111	882.172
273.482	20.776	1161.174	881.718
274.497	20.815	1160.946	881.664
275.512	20.744	1160.195	880.656
276.526	20.754	1159.135	879.823
277.541	20.775	1158.580	879.430
278.555	20.841	1157.953	879.211
279.570	21.070	1157.320	879.805
280.585	21.274	1156.743	880.317
281.599	21.129	1155.971	878.924
282.614	20.988	1154.362	876.914
283.628	20.871	1153.513	875.604
284.643	21.027	1151.771	874.985
285.657	20.877	1151.917	874.264
286.672	20.911	1150.588	873.352
287.687	20.974	1149.732	872.939
288.701	20.870	1149.073	871.840
289.716	20.967	1147.877	871.344
290.730	20.960	1147.602	871.018
291.745	21.067	1147.101	871.099
292.760	21.133	1146.532	870.917
293.774	21.216	1145.906	870.780
294.789	21.382	1145.479	871.207
295.803	21.204	1144.710	869.654
296.818	20.972	1144.002	867.886
297.833	21.140	1142.883	867.794
298.847	21.122	1141.918	866.896
299.862	20.994	1141.530	865.893
300.876	21.093	1140.888	865.818
301.891	21.126	1140.321	865.474
302.906	21.273	1139.739	865.686
303.920	21.560	1138.577	866.144
304.935	21.628	1138.540	866.377
305.949	21.738	1138.210	866.597
306.964	21.606	1137.540	865.357
307.979	21.517	1136.414	863.983
308.993	21.498	1135.680	863.253
310.008	21.564	1134.637	862.711
311.022	21.593	1134.140	862.398
312.037	21.562	1133.174	861.434
313.052	21.283	1132.447	859.436
314.066	21.179	1131.207	857.909
315.081	21.090	1130.260	856.678
316.095	21.048	1129.541	855.851
317.110	21.110	1128.875	855.575
318.125	21.060	1128.124	854.685
319.139	21.054	1127.409	854.034
320.154	21.050	1126.546	853.285
321.168	21.120	1126.173	853.273
322.183	21.135	1125.544	852.793
323.197	21.060	1124.945	851.897
324.212	21.245	1124.451	852.352
325.227	21.321	1123.690	852.068
326.241	21.165	1123.509	851.094
327.256	21.214	1122.530	850.517
328.270	21.145	1121.531	849.350
329.285	21.250	1120.285	848.842
330.300	21.273	1119.405	848.213
331.314	21.118	1118.934	847.025
332.329	21.254	1117.596	846.597
333.343	21.278	1116.969	846.166
334.358	21.506	1115.999	846.456
335.373	21.530	1115.280	845.955
336.387	21.506	1114.641	845.280
337.402	21.622	1113.845	845.160
338.416	21.653	1113.535	845.000
339.431	21.536	1113.481	844.319
340.446	21.787	1112.319	844.572
341.460	21.939	1111.950	844.951
342.475	21.991	1111.184	844.542
343.489	22.014	1110.350	843.943
344.504	22.123	1109.506	843.751
345.519	22.120	1108.630	842.996
346.533	22.169	1108.111	842.760
347.548	22.185	1107.268	842.122
348.562	22.285	1106.150	841.679
349.577	21.980	1105.178	839.404
350.592	21.551	1104.396	836.686
351.606	21.617	1103.490	836.242
352.621	21.625	1102.662	835.579
353.635	21.574	1102.126	834.855
354.650	21.611	1101.131	834.204
355.665	21.567	1101.064	833.870
356.679	21.687	1100.168	833.690
357.694	21.722	1099.823	833.519
358.708	21.835	1099.479	833.723
359.723	21.910	1098.351	833.147
360.738	21.807	1098.150	832.431
361.752	21.897	1097.480	832.281
362.767	21.998	1096.688	832.085
363.781	21.875	1096.482	831.269
364.796	22.071	1095.311	831.237
365.810	22.276	1095.218	832.063
366.825	22.308	1094.669	831.725
367.840	22.450	1094.495	832.190
368.854	22.608	1093.744	832.290
369.869	22.402	1092.916	830.615
370.883	22.462	1092.002	830.128
371.898	22.302	1090.885	828.454
372.913	22.296	1090.231	827.856
373.927	22.211	1089.798	827.052
374.942	22.500	1089.534	828.141
375.956	22.391	1089.187	827.290
376.971	22.272	1088.516	826.146
377.986	22.453	1087.774	826.361
379.000	22.564	1087.350	826.485
380.015	22.637	1087.021	826.506
381.029	22.734	1086.316	826.348
382.044	22.629	1085.906	825.473
383.059	22.674	1084.589	824.612
384.073	22.561	1083.860	823.453
385.088	22.733	1082.638	823.258
386.102	22.695	1081.556	822.184
387.117	22.530	1080.523	820.559
388.132	22.118	1079.818	818.032
389.146	22.280	1078.971	818.072
390.161	22.167	1078.683	817.254
391.175	22.258	1077.175	816.464
392.190	22.350	1076.776	816.516
393.205	22.468	1076.587	816.845
394.219	22.489	1075.723	816.217
395.234	22.469	1074.663	815.248
396.248	22.364	1073.686	813.947
397.263	22.283	1072.293	812.447
398.278	22.229	1071.636	811.628
399.292	22.156	1070.645	810.469
400.307	22.141	1070.196	809.985
401.321	22.169	1069.529	809.538
402.336	22.209	1068.605	808.953
403.350	22.121	1067.711	807.798
404.365	22.125	1067.473	807.567
405.380	22.318	1066.827	807.893
406.394	22.444	1066.175	807.903
407.409	22.604	1065.185	807.817
408.423	22.660	1065.081	807.922
409.438	22.985	1064.153	808.635
410.453	22.856	1063.602	807.557
411.467	22.739	1063.081	806.553
412.482	22.910	1062.412	806.754
413.496	22.948	1062.055	806.585
414.511	23.047	1061.401	806.470
415.526	23.197	1061.104	806.858
416.540	23.209	1061.184	806.900
417.555	23.173	1059.883	805.678
418.569	23.058	1059.273	804.619
419.584	22.970	1058.617	803.648
420.599	22.976	1058.433	803.467
421.613	157.016	1403.210	1795.371
422.628	144.341	1453.425	1795.465
