DTS Sentinel unit serial number:	SN413079Multiplexer serial number:	ORYXHardware model number:	OX4-SRSoftware version number:	ORYX F/W v4.00 Oryx Data Collector v3.7.2.0data status	okinstallation	princeton_trtdifferential loss correction	single-endedforward channel	channel 2reverse channel	N/Adate	2019/09/11time	04:53:11forward acquisition time	60.00reverse acquisition time	0.00gamma	496.2192k internal	0.2329k external	0.2329temperature offset calibration	0.9939default loss term (dB/km)	0.3790temperature slope calibration	1.0000multiplexer offset coefficient	1.0000multiplexer slope coefficient	1.0000fibre end	0.00T internal ref (°C)	29.50T ext. ref 1 (°C)	-0.27T ext. ref 2 (°C)	23.31length (m)	temperature (°C)	Stokes	anti-Stokes-747.200	-0.832	0.066	-0.047
-746.185	800.000	0.153	0.591
-745.171	115.887	-0.094	0.116
-744.156	794.935	-0.168	0.465
-743.142	-127.407	0.271	0.040
-742.127	-118.705	0.180	0.032
-741.112	800.000	0.090	-0.268
-740.098	-200.000	-0.031	0.244
-739.083	-104.413	0.543	0.127
-738.069	-108.105	-0.421	-0.092
-737.054	338.584	0.046	0.091
-736.039	14.585	-0.317	0.250
-735.025	-109.250	-0.039	-0.008
-734.010	191.739	-0.235	-0.356
-732.996	78.355	0.061	-0.066
-731.981	99.684	-0.072	0.084
-730.966	727.129	-0.031	0.084
-729.952	169.368	-0.129	0.186
-728.937	800.000	-0.029	-0.109
-727.923	-200.000	0.064	0.307
-726.908	-200.000	-0.010	-0.126
-725.894	152.876	-0.062	0.085
-724.879	-200.000	0.010	0.203
-723.864	704.867	-0.044	-0.118
-722.850	-134.918	-0.185	-0.023
-721.835	-157.724	0.231	-0.014
-720.821	19.878	0.168	-0.136
-719.806	-69.689	-0.286	0.110
-718.791	800.000	-0.018	0.053
-717.777	263.469	0.249	-0.436
-716.762	800.000	0.082	0.361
-715.748	-5.314	-0.454	0.313
-714.733	223.341	0.145	0.235
-713.718	-155.849	-0.095	-0.006
-712.704	377.197	0.088	0.180
-711.689	48.968	0.266	-0.251
-710.675	-200.000	0.034	0.190
-709.660	42.351	0.078	0.071
-708.645	-104.356	-0.086	0.020
-707.631	-50.523	0.250	-0.119
-706.616	-43.382	0.220	-0.112
-705.602	-200.000	0.007	0.146
-704.587	-37.122	-0.053	-0.029
-703.572	-44.356	-0.226	-0.114
-702.558	282.554	-0.086	-0.155
-701.543	410.842	-0.084	-0.178
-700.529	-51.184	-0.246	0.116
-699.514	-200.000	0.004	-0.363
-698.499	-91.783	-0.266	-0.076
-697.485	83.250	0.187	0.204
-696.470	58.661	-0.319	-0.315
-695.456	220.809	0.079	-0.128
-694.441	111.641	0.042	-0.051
-693.426	441.227	-0.074	0.163
-692.412	76.008	0.179	0.190
-691.397	38.101	-0.139	0.124
-690.383	3.120	0.365	0.267
-689.368	800.000	-0.074	-0.209
-688.354	-10.232	-0.165	-0.110
-687.339	-5.535	-0.089	-0.062
-686.324	-200.000	0.084	-0.369
-685.310	129.795	0.225	0.289
-684.295	-157.875	0.231	-0.014
-683.281	-68.122	-0.219	0.086
-682.266	262.321	-0.064	0.111
-681.251	-133.494	0.212	-0.027
-680.237	51.330	0.095	0.091
-679.222	800.000	0.087	0.302
-678.208	-147.740	0.095	0.008
-677.193	-81.226	0.166	-0.055
-676.178	174.198	-0.046	-0.067
-675.164	800.000	-0.069	-0.251
-674.149	-8.935	-0.169	-0.114
-673.135	-100.917	-0.237	-0.058
-672.120	167.096	-0.244	0.348
-671.105	-87.545	-0.322	0.098
-670.091	269.858	0.071	-0.125
-669.076	594.382	0.103	-0.256
-668.062	-60.812	0.240	0.102
-667.047	674.809	-0.031	0.080
-666.032	-16.167	-0.281	-0.179
-665.018	-196.813	-0.227	-0.001
-664.003	-141.323	-0.117	-0.012
-662.989	-132.271	-0.072	0.009
-661.974	-65.244	0.104	0.042
-660.959	800.000	-0.041	-0.175
-659.945	139.318	-0.143	-0.188
-658.930	142.642	0.068	0.090
-657.916	-101.212	-0.189	0.046
-656.901	60.770	-0.121	-0.121
-655.886	-200.000	-0.025	0.113
-654.872	-38.616	-0.169	0.090
-653.857	-27.170	0.368	0.215
-652.843	19.822	0.075	-0.061
-651.828	-200.000	0.019	-0.314
-650.814	-37.923	-0.147	-0.078
-649.799	800.000	-0.046	0.171
-648.784	-25.379	-0.218	-0.130
-647.770	-200.000	0.008	0.159
-646.755	-5.772	-0.106	-0.073
-645.741	-6.441	0.202	-0.138
-644.726	110.149	0.067	0.081
-643.711	143.171	-0.067	0.089
-642.697	434.510	-0.101	0.220
-641.682	61.454	-0.299	0.299
-640.668	-200.000	0.027	-0.250
-639.653	-44.213	-0.422	-0.212
-638.638	-200.000	0.026	-0.224
-637.624	314.901	-0.161	-0.304
-636.609	-136.934	0.270	-0.031
-635.595	136.059	-0.068	0.088
-634.580	20.673	0.321	-0.261
-633.565	-200.000	-0.006	-0.078
-632.551	-200.000	0.024	0.293
-631.536	278.033	0.009	-0.016
-630.522	95.483	-0.156	-0.179
-629.507	-129.118	-0.020	-0.003
-628.492	-200.000	-0.014	-0.068
-627.478	222.749	0.213	-0.344
-626.463	73.512	-0.044	0.046
-625.449	2.860	0.194	-0.141
-624.434	-19.209	-0.172	0.107
-623.419	-200.000	-0.015	0.071
-622.405	-44.817	0.047	0.023
-621.390	-200.000	0.061	-0.340
-620.376	800.000	-0.107	0.466
-619.361	800.000	-0.043	-0.153
-618.346	-200.000	-0.017	-0.270
-617.332	-77.126	0.079	-0.028
-616.317	-163.435	-0.068	0.003
-615.303	-200.000	0.081	-0.414
-614.288	88.564	0.200	-0.223
-613.273	-200.000	-0.053	-0.288
-612.259	-137.142	-0.337	0.039
-611.244	-27.748	0.172	0.100
-610.230	-8.953	-0.344	0.231
-609.215	-84.462	-0.347	0.110
-608.201	-41.898	0.280	0.144
-607.186	35.234	0.087	0.077
-606.171	-200.000	-0.054	0.292
-605.157	30.551	-0.142	0.121
-604.142	-200.000	0.051	-0.286
-603.128	-200.000	0.206	-0.000
-602.113	800.000	0.055	-0.220
-601.098	-41.004	-0.148	0.077
-600.084	50.566	-0.093	-0.088
-599.069	-71.009	0.152	-0.057
-598.055	94.901	0.150	0.171
-597.040	800.000	0.053	-0.172
-596.025	-119.306	-0.210	0.037
-595.011	-112.021	0.038	0.008
-593.996	-24.168	-0.154	0.092
-592.982	-15.737	0.346	-0.221
-591.967	-71.668	-0.151	-0.056
-590.952	67.997	-0.061	0.063
-589.938	42.585	-0.095	-0.087
-588.923	-200.000	0.016	-0.144
-587.909	55.326	-0.280	-0.272
-586.894	-26.803	-0.069	0.040
-585.879	800.000	0.031	-0.094
-584.865	43.746	-0.227	-0.208
-583.850	-200.000	0.021	0.291
-582.836	-65.749	0.165	0.066
-581.821	23.687	-0.105	0.086
-580.806	160.054	0.032	-0.044
-579.792	-200.000	-0.022	-0.347
-578.777	130.752	-0.128	-0.164
-577.763	40.049	-0.291	0.262
-576.748	-31.849	-0.197	-0.110
-575.733	800.000	0.059	-0.197
-574.719	7.347	-0.253	0.189
-573.704	87.718	0.028	-0.031
-572.690	749.585	-0.136	0.367
-571.675	21.409	0.252	0.205
-570.661	-112.719	-0.106	-0.021
-569.646	414.468	0.085	0.180
-568.631	-89.722	-0.169	0.049
-567.617	172.641	-0.094	0.136
-566.602	-200.000	-0.049	-0.285
-565.588	6.044	0.350	-0.260
-564.573	-67.841	-0.286	-0.112
-563.558	416.915	-0.032	-0.068
-562.544	-200.000	-0.017	0.107
-561.529	-130.128	0.343	0.047
-560.515	-200.000	-0.026	-0.247
-559.500	-200.000	-0.011	-0.159
-558.485	-200.000	-0.043	-0.278
-557.471	214.281	0.023	0.037
-556.456	-200.000	-0.019	0.118
-555.442	120.386	0.223	0.277
-554.427	62.902	-0.482	-0.482
-553.412	-44.851	-0.040	-0.020
-552.398	-62.685	0.146	0.061
-551.383	-118.616	-0.073	0.013
-550.369	67.766	-0.182	-0.186
-549.354	800.000	0.107	0.366
-548.339	-128.660	-0.335	0.047
-547.325	-72.334	-0.258	0.095
-546.310	591.271	-0.098	-0.241
-545.296	-110.836	0.053	0.011
-544.281	-145.183	0.128	0.012
-543.266	-200.000	-0.026	0.145
-542.252	-200.000	0.045	0.211
-541.237	271.775	0.151	0.266
-540.223	70.514	-0.036	0.037
-539.208	147.559	-0.047	-0.063
-538.193	166.621	0.279	-0.395
-537.179	87.953	0.210	-0.232
-536.164	-200.000	-0.001	0.067
-535.150	416.905	0.148	0.316
-534.135	151.916	0.104	0.142
-533.121	800.000	-0.020	0.062
-532.106	374.770	0.173	0.352
-531.091	-19.638	-0.186	-0.115
-530.077	-200.000	-0.028	-0.309
-529.062	-200.000	-0.053	0.267
-528.048	36.245	0.120	-0.106
-527.033	-6.374	0.276	-0.188
-526.018	224.444	-0.231	-0.373
-525.004	52.050	0.106	-0.101
-523.989	272.071	0.193	-0.340
-522.975	-200.000	-0.027	0.275
-521.960	-200.000	-0.032	-0.310
-520.945	-32.340	-0.124	0.069
-519.931	-118.451	0.132	-0.023
-518.916	743.771	-0.030	-0.081
-517.902	-96.057	0.343	0.091
-516.887	10.111	0.115	0.087
-515.872	-200.000	-0.076	0.403
-514.858	284.464	0.104	-0.186
-513.843	-97.113	0.094	0.025
-512.829	440.115	-0.117	0.255
-511.814	-123.003	0.317	-0.051
-510.799	-120.776	0.048	0.008
-509.785	800.000	0.058	0.209
-508.770	-127.654	-0.360	0.052
-507.756	-49.136	0.219	0.105
-506.741	180.651	0.116	0.170
-505.726	28.455	0.262	0.221
-504.712	54.646	0.043	0.041
-503.697	-200.000	0.102	-0.461
-502.683	64.454	0.091	-0.091
-501.668	181.244	0.118	0.173
-500.653	-12.457	-0.257	-0.168
-499.639	-58.006	0.347	0.151
-498.624	-200.000	-0.014	-0.218
-497.610	-200.000	0.061	0.451
-496.595	-200.000	0.003	0.073
-495.581	238.270	0.121	-0.201
-494.566	-44.535	0.037	-0.019
-493.551	-200.000	-0.051	0.293
-492.537	-87.472	-0.141	-0.043
-491.522	130.814	0.117	-0.149
-490.508	-192.438	-0.335	-0.003
-489.493	-79.702	-0.136	0.046
-488.478	-41.240	0.525	-0.270
-487.464	-117.383	-0.446	-0.081
-486.449	-11.622	0.254	-0.167
-485.435	800.000	-0.106	0.397
-484.420	-134.161	0.353	0.043
-483.405	-200.000	0.011	0.201
-482.391	-200.000	0.038	0.217
-481.376	-128.790	-0.059	0.008
-480.362	66.462	-0.133	0.134
-479.347	-2.123	-0.220	0.154
-478.332	-78.276	0.149	0.051
-477.318	800.000	-0.074	0.210
-476.303	118.982	-0.177	0.218
-475.289	25.048	-0.053	0.044
-474.274	-86.084	-0.258	-0.079
-473.259	105.741	0.171	-0.202
-472.245	100.864	0.144	-0.167
-471.230	-200.000	-0.012	0.085
-470.216	624.174	0.025	-0.063
-469.201	-200.000	-0.188	0.001
-468.186	-122.396	0.203	-0.033
-467.172	1.253	0.071	0.051
-466.157	-6.069	0.097	0.066
-465.143	-200.000	-0.015	-0.304
-464.128	-200.000	0.022	-0.251
-463.113	-200.000	0.036	-0.402
-462.099	-72.884	0.133	0.049
-461.084	800.000	0.099	-0.343
-460.070	148.984	0.156	0.210
-459.055	4.523	0.084	0.061
-458.040	-141.353	-0.051	0.005
-457.026	477.192	-0.008	-0.018
-456.011	-55.710	-0.098	-0.043
-454.997	-200.000	-0.035	-0.180
-453.982	-54.605	0.276	0.124
-452.968	-200.000	-0.057	0.323
-451.953	-109.223	-0.128	0.027
-450.938	-1.554	-0.155	0.109
-449.924	413.657	0.121	-0.256
-448.909	354.074	-0.080	0.159
-447.895	-200.000	-0.052	0.459
-446.880	-115.400	0.212	-0.040
-445.865	178.195	0.147	-0.213
-444.851	534.615	0.064	0.150
-443.836	145.153	0.165	-0.219
-442.822	-200.000	0.020	0.145
-441.807	-200.000	0.001	-0.044
-440.792	53.097	-0.130	-0.124
-439.778	-200.000	0.007	-0.157
-438.763	179.883	0.108	-0.158
-437.749	165.487	-0.135	-0.190
-436.734	-2.824	0.183	0.128
-435.719	-200.000	-0.006	-0.094
-434.705	245.447	0.059	0.100
-433.690	0.516	0.222	-0.158
-432.676	38.873	0.249	0.221
-431.661	355.003	-0.092	0.182
-430.646	-200.000	-0.027	0.151
-429.632	-139.373	-0.160	-0.017
-428.617	339.841	0.164	0.318
-427.603	-200.000	0.036	0.340
-426.588	-66.693	0.265	0.105
-425.573	149.856	0.273	-0.369
-424.559	800.000	0.064	0.186
-423.544	157.965	-0.164	0.227
-422.530	296.319	-0.078	-0.143
-421.515	211.263	0.051	-0.080
-420.500	-124.517	-0.292	0.045
-419.486	79.271	-0.171	0.182
-418.471	241.291	-0.077	0.128
-417.457	360.224	0.117	-0.233
-416.442	-155.980	0.272	-0.017
-415.428	-30.979	-0.273	-0.153
-414.413	-192.329	-0.313	-0.003
-413.398	-111.681	0.236	0.048
-412.384	7.430	-0.450	-0.334
-411.369	-18.993	0.135	0.083
-410.355	-86.003	0.264	-0.081
-409.340	81.614	0.081	0.087
-408.325	-35.972	0.063	-0.034
-407.311	-71.743	0.217	0.080
-406.296	-82.748	0.163	0.053
-405.282	458.573	0.063	0.139
-404.267	157.989	0.188	-0.259
-403.252	137.113	-0.257	-0.334
-402.238	66.810	-0.123	-0.125
-401.223	42.683	0.093	-0.084
-400.209	217.331	-0.295	-0.468
-399.194	800.000	0.110	-0.374
-398.179	-200.000	-0.056	-0.328
-397.165	-26.839	-0.194	-0.113
-396.150	90.527	-0.192	-0.214
-395.136	190.418	0.087	0.130
-394.121	-5.952	-0.215	0.146
-393.106	67.908	0.084	0.085
-392.092	-200.000	-0.044	-0.219
-391.077	-55.466	-0.273	0.122
-390.063	-130.701	-0.345	-0.046
-389.048	-106.908	-0.163	-0.036
-388.033	28.820	0.165	-0.138
-387.019	68.403	0.010	-0.010
-386.004	-59.217	0.402	-0.172
-384.990	12.563	0.032	-0.024
-383.975	19.616	0.033	-0.027
-382.960	11.320	0.125	0.095
-381.946	800.000	-0.175	0.620
-380.931	163.795	-0.074	-0.103
-379.917	-121.143	-0.063	0.010
-378.902	-55.913	0.152	-0.067
-377.888	-200.000	0.059	-0.329
-376.873	-13.487	0.060	0.039
-375.858	-115.439	-0.053	0.010
-374.844	44.072	-0.165	0.151
-373.829	-57.879	-0.149	-0.064
-372.815	-55.397	0.096	-0.043
-371.800	119.039	-0.179	0.220
-370.785	-200.000	0.016	-0.195
-369.771	18.587	0.067	0.053
-368.756	-75.042	0.329	0.117
-367.742	-200.000	-0.005	-0.104
-366.727	-200.000	-0.000	-0.333
-365.712	97.037	-0.192	0.219
-364.698	-94.946	0.081	-0.022
-363.683	-200.000	-0.140	0.000
-362.669	-52.671	0.306	-0.140
-361.654	90.726	-0.099	-0.110
-360.639	346.373	0.078	-0.153
-359.625	-23.867	0.350	0.208
-358.610	173.054	-0.121	-0.173
-357.596	-152.697	-0.126	0.009
-356.581	134.435	-0.047	-0.060
-355.566	118.564	0.187	0.228
-354.552	509.176	0.027	0.062
-353.537	-118.546	-0.458	0.080
-352.523	-200.000	0.025	0.141
-351.508	457.848	0.172	-0.380
-350.493	800.000	0.037	0.138
-349.479	-200.000	-0.009	0.110
-348.464	-43.207	-0.129	0.065
-347.450	197.735	-0.039	0.060
-346.435	-200.000	-0.049	0.385
-345.420	-200.000	-0.079	0.352
-344.406	-80.493	0.138	-0.046
-343.391	-200.000	-0.014	-0.373
-342.377	-180.109	0.298	-0.006
-341.362	-60.105	-0.080	-0.034
-340.348	91.956	-0.260	-0.290
-339.333	8.351	-0.130	0.097
-338.318	91.076	0.136	0.152
-337.304	72.641	-0.048	0.049
-336.289	-78.143	0.295	-0.101
-335.275	800.000	0.117	0.396
-334.260	-74.432	-0.086	-0.031
-333.245	9.886	-0.213	-0.160
-332.231	-49.917	-0.103	0.048
-331.216	-84.405	-0.467	0.146
-330.202	-83.319	0.108	-0.034
-329.187	307.276	-0.138	0.254
-328.172	0.124	-0.264	0.187
-327.158	95.570	0.082	0.093
-326.143	36.762	0.224	-0.196
-325.129	-200.000	-0.037	-0.203
-324.114	-200.000	0.017	-0.171
-323.099	-26.566	-0.286	-0.166
-322.085	16.369	-0.181	0.142
-321.070	-200.000	0.000	0.214
-320.056	19.935	0.204	0.163
-319.041	-69.185	-0.253	0.097
-318.026	228.072	0.143	-0.230
-317.012	90.906	-0.198	-0.220
-315.997	799.031	-0.100	-0.272
-314.983	81.428	0.253	0.271
-313.968	-90.654	-0.188	-0.054
-312.953	-167.910	0.514	-0.020
-311.939	12.505	0.048	0.037
-310.924	-200.000	0.017	0.197
-309.910	-157.627	0.118	0.007
-308.895	-55.682	0.302	0.134
-307.880	203.885	-0.080	0.122
-306.866	800.000	0.013	0.038
-305.851	37.348	0.252	0.221
-304.837	468.876	-0.071	0.158
-303.822	81.680	0.219	-0.235
-302.807	-36.305	-0.060	0.032
-301.793	316.140	-0.049	-0.091
-300.778	-31.429	0.137	0.076
-299.764	-200.000	-0.011	0.255
-298.749	738.193	0.030	-0.079
-297.735	730.101	0.054	0.143
-296.720	-200.000	-0.037	0.469
-295.705	-148.830	-0.148	-0.012
-294.691	3.974	-0.162	0.117
-293.676	289.693	-0.195	0.349
-292.662	133.971	-0.232	0.297
-291.647	-76.282	-0.388	-0.135
-290.632	169.461	0.189	-0.267
-289.618	-57.660	-0.267	-0.116
-288.603	800.000	0.084	0.323
-287.589	-66.047	-0.370	-0.146
-286.574	-74.642	0.109	-0.039
-285.559	-84.609	0.270	-0.084
-284.545	-200.000	0.029	0.238
-283.530	-55.343	0.114	0.051
-282.516	-65.488	-0.169	0.067
-281.501	-200.000	0.041	-0.275
-280.486	175.760	-0.266	-0.382
-279.472	-200.000	-0.012	0.120
-278.457	-58.374	0.061	0.026
-277.443	800.000	0.085	-0.339
-276.428	-162.189	-0.078	0.004
-275.413	-200.000	-0.008	-0.097
-274.399	34.297	0.057	0.049
-273.384	596.466	-0.050	-0.121
-272.370	-200.000	-0.030	-0.160
-271.355	-133.242	-0.233	0.029
-270.340	800.000	-0.074	-0.234
-269.326	-64.369	0.184	0.074
-268.311	-15.017	-0.292	0.185
-267.297	-127.528	-0.215	0.031
-266.282	-47.293	0.252	0.121
-265.267	-200.000	0.015	0.166
-264.253	-200.000	-0.001	-0.035
-263.238	31.806	-0.068	-0.058
-262.224	267.397	-0.036	-0.062
-261.209	6.325	-0.290	-0.213
-260.195	203.443	0.106	0.162
-259.180	-200.000	0.019	0.111
-258.165	171.921	-0.153	0.217
-257.151	133.035	0.159	-0.203
-256.136	132.481	0.230	-0.292
-255.122	171.152	0.102	0.144
-254.107	76.630	0.158	-0.166
-253.092	-128.375	0.272	0.038
-252.078	-39.681	-0.161	-0.083
-251.063	-195.964	-0.146	0.001
-250.049	-200.000	-0.045	0.265
-249.034	570.532	-0.025	-0.060
-248.019	15.147	0.208	0.161
-247.005	-200.000	0.010	-0.141
-245.990	384.630	0.116	0.236
-244.976	800.000	-0.049	0.175
-243.961	323.590	0.093	-0.175
-242.946	-200.000	-0.034	0.155
-241.932	-160.107	-0.240	-0.013
-240.917	-103.741	-0.391	0.090
-239.903	800.000	0.084	0.285
-238.888	72.631	-0.069	-0.071
-237.873	-165.949	-0.266	-0.011
-236.859	-200.000	-0.018	0.134
-235.844	800.000	0.041	0.113
-234.830	-200.000	0.000	0.187
-233.815	-63.012	0.115	0.047
-232.800	-200.000	0.026	0.189
-231.786	375.446	0.137	0.275
-230.771	-200.000	0.009	0.175
-229.757	27.389	0.266	-0.221
-228.742	28.732	-0.132	-0.110
-227.727	95.965	0.099	-0.111
-226.713	800.000	-0.016	-0.045
-225.698	800.000	0.043	0.139
-224.684	51.231	-0.248	-0.232
-223.669	42.852	0.239	0.215
-222.655	647.060	0.123	-0.311
-221.640	15.915	-0.156	-0.121
-220.625	800.000	0.066	-0.200
-219.611	41.216	-0.038	-0.033
-218.596	-103.010	-0.457	0.107
-217.582	-200.000	0.011	-0.070
-216.567	33.531	-0.265	-0.227
-215.552	-24.827	-0.139	0.081
-214.538	155.777	-0.107	0.146
-213.523	250.954	-0.190	-0.318
-212.509	64.760	-0.125	-0.124
-211.494	184.783	0.081	-0.118
-210.479	-144.203	-0.273	0.025
-209.465	29.093	0.130	0.108
-208.450	20.528	-0.314	0.250
-207.436	373.932	0.180	0.362
-206.421	-5.660	0.329	0.222
-205.406	676.665	-0.038	0.099
-204.392	-34.554	0.152	0.082
-203.377	-59.213	0.266	0.113
-202.363	703.765	0.176	0.457
-201.348	110.013	0.171	0.202
-200.333	-200.000	-0.037	0.443
-199.319	-200.000	-0.036	0.236
-198.304	-200.000	0.007	0.246
-197.290	-169.347	0.263	0.010
-196.275	-6.588	0.083	0.056
-195.260	491.475	0.073	-0.164
-194.246	-76.686	0.116	-0.040
-193.231	-200.000	0.033	0.313
-192.217	-46.220	-0.182	-0.088
-191.202	800.000	0.110	-0.348
-190.187	-30.007	0.113	-0.064
-189.173	-115.986	-0.155	-0.028
-188.158	-200.000	-0.010	-0.333
-187.144	104.328	0.170	-0.197
-186.129	-200.000	0.001	0.067
-185.114	57.915	0.188	-0.181
-184.100	56.763	-0.176	0.169
-183.085	-11.661	-0.155	-0.100
-182.071	-103.790	-0.178	-0.041
-181.056	-200.000	-0.018	-0.089
-180.042	-28.683	-0.146	0.083
-179.027	320.254	0.105	0.196
-178.012	216.205	-0.065	-0.102
-176.998	112.571	-0.185	-0.220
-175.983	800.000	0.050	0.183
-174.969	133.907	0.075	-0.095
-173.954	237.382	-0.157	0.257
-172.939	351.722	0.041	-0.081
-171.925	800.000	0.012	-0.038
-170.910	-172.712	0.177	-0.005
-169.896	-38.776	0.076	0.040
-168.881	36.956	0.111	0.097
-167.866	-200.000	-0.023	-0.255
-166.852	177.407	-0.041	-0.058
-165.837	262.181	0.114	0.195
-164.823	-200.000	0.011	-0.076
-163.808	800.000	-0.047	-0.136
-162.793	-170.120	0.224	-0.008
-161.779	800.000	-0.032	-0.129
-160.764	166.980	-0.137	-0.192
-159.750	800.000	-0.035	-0.145
-158.735	0.547	0.137	0.097
-157.720	220.889	0.153	-0.242
-156.706	-162.095	-0.164	-0.008
-155.691	281.038	0.079	0.140
-154.677	121.683	0.246	-0.302
-153.662	-200.000	-0.003	-0.189
-152.647	-200.000	0.090	0.419
-151.633	-90.536	0.336	0.096
-150.618	-2.046	0.034	0.023
-149.604	-121.758	0.099	-0.016
-148.589	-200.000	0.064	0.341
-147.574	-135.561	0.181	-0.021
-146.560	-34.078	0.179	-0.097
-145.545	94.905	0.189	-0.211
-144.531	302.366	0.146	0.266
-143.516	61.644	-0.037	0.036
-142.502	-200.000	0.005	-0.191
-141.487	-120.829	0.164	0.027
-140.472	-27.854	-0.052	0.030
-139.458	-200.000	0.013	0.115
-138.443	-7.667	0.237	0.158
-137.429	29.369	0.129	-0.108
-136.414	140.700	0.114	-0.148
-135.399	-200.000	-0.016	0.101
-134.385	-145.245	0.306	-0.027
-133.370	81.831	-0.357	0.380
-132.356	-200.000	-0.022	0.360
-131.341	800.000	0.018	0.071
-130.326	-137.311	-0.080	0.009
-129.312	429.203	0.102	0.217
-128.297	-200.000	-0.071	-0.337
-127.283	-22.160	0.307	-0.183
-126.268	259.880	0.048	-0.082
-125.253	-200.000	-0.037	0.262
-124.239	65.077	0.252	0.251
-123.224	-76.069	0.363	-0.126
-122.210	800.000	0.027	0.096
-121.195	-172.768	0.218	-0.007
-120.180	264.560	0.058	-0.099
-119.166	-34.630	-0.089	-0.048
-118.151	-200.000	-0.006	-0.185
-117.137	-159.292	-0.078	0.004
-116.122	361.233	-0.066	-0.130
-115.107	25.021	0.213	-0.173
-114.093	-113.973	0.208	0.040
-113.078	-45.206	-0.190	0.093
-112.064	-116.260	-0.251	0.046
-111.049	-30.787	0.152	0.084
-110.034	-200.000	-0.027	0.406
-109.020	-124.179	-0.754	-0.116
-108.005	201.147	0.068	0.103
-106.991	308.746	0.129	0.237
-105.976	-57.588	-0.240	0.104
-104.962	-117.073	0.097	-0.017
-103.947	664.713	0.020	-0.051
-102.932	-200.000	-0.059	-0.399
-101.918	-4.197	0.514	0.349
-100.903	148.109	-0.213	0.282
-99.889	-200.000	-0.017	0.148
-98.874	367.467	-0.144	0.285
-97.859	-200.000	0.012	0.216
-96.845	272.596	0.147	0.254
-95.830	4.842	0.159	0.115
-94.816	-40.270	0.194	-0.099
-93.801	195.980	-0.074	0.111
-92.786	-134.520	0.277	-0.033
-91.772	-55.430	0.546	0.241
-90.757	96.820	-0.249	0.280
-89.743	52.011	0.050	-0.047
-88.728	-200.000	-0.010	0.048
-87.713	84.643	0.034	-0.036
-86.699	464.875	0.142	0.312
-85.684	-200.000	0.034	0.445
-84.670	800.000	0.067	0.219
-83.655	-150.593	0.340	0.026
-82.640	-166.823	-0.162	-0.007
-81.626	761.433	0.031	-0.081
-80.611	22.781	-0.136	0.109
-79.597	-88.044	-0.158	0.046
-78.582	-96.557	-0.107	0.028
-77.567	-150.376	-0.030	0.002
-76.553	800.000	-0.061	0.251
-75.538	-160.207	-0.310	0.016
-74.524	525.543	-0.061	-0.141
-73.509	-200.000	0.013	-0.249
-72.494	245.440	-0.183	0.302
-71.480	-130.705	0.197	0.026
-70.465	66.033	0.216	0.215
-69.451	-38.265	0.153	-0.080
-68.436	-54.655	-0.063	-0.028
-67.422	-75.621	-0.122	0.042
-66.407	800.000	0.070	0.242
-65.392	-156.843	-0.127	-0.008
-64.378	362.683	-0.107	0.210
-63.363	75.121	-0.135	-0.140
-62.349	-91.342	0.337	0.095
-61.334	-30.179	-1.153	-0.643
-60.319	6.480	0.431	0.314
-59.305	800.000	-0.480	-1.555
-58.290	160.086	0.809	1.106
-57.276	-200.000	0.167	1.437
-56.261	-200.000	106.210	615.951
-55.246	506.842	1510.834	3435.103
-54.232	174.516	2712.313	3845.391
-53.217	104.499	2301.741	2656.971
-52.203	38.665	1905.564	1666.694
-51.188	32.711	1691.310	1434.110
-50.173	30.108	1648.073	1378.070
-49.159	49.227	1701.968	1568.105
-48.144	49.347	1717.480	1583.239
-47.130	32.245	1674.967	1416.520
-46.115	29.659	1659.719	1384.226
-45.100	29.485	1655.441	1379.301
-44.086	29.440	1652.472	1376.439
-43.071	29.384	1650.020	1373.925
-42.057	29.381	1647.565	1371.807
-41.042	29.436	1645.189	1370.176
-40.027	29.431	1643.881	1369.002
-39.013	29.399	1641.416	1366.655
-37.998	29.301	1640.018	1364.709
-36.984	29.402	1638.822	1364.411
-35.969	29.552	1637.074	1364.006
-34.954	29.621	1635.742	1363.350
-33.940	29.524	1633.649	1360.839
-32.925	29.531	1631.915	1359.395
-31.911	29.460	1630.447	1357.594
-30.896	29.470	1628.361	1355.875
-29.881	29.424	1627.490	1354.761
-28.867	29.458	1625.801	1353.547
-27.852	29.408	1624.125	1351.730
-26.838	29.505	1622.441	1350.985
-25.823	29.490	1621.183	1349.777
-24.809	29.539	1619.778	1348.910
-23.794	29.496	1618.559	1347.527
-22.779	29.524	1617.082	1346.450
-21.765	29.507	1615.142	1344.661
-20.750	29.504	1613.856	1343.514
-19.736	29.510	1612.686	1342.529
-18.721	29.577	1611.038	1341.593
-17.706	29.560	1609.114	1339.814
-16.692	29.462	1608.289	1338.362
-15.677	29.484	1606.950	1337.353
-14.663	29.566	1605.516	1336.697
-13.648	29.607	1603.762	1335.482
-12.633	29.479	1602.672	1333.597
-11.619	29.525	1600.977	1332.469
-10.604	29.495	1599.194	1330.709
-9.590	29.536	1598.398	1330.292
-8.575	29.647	1596.788	1329.701
-7.560	29.636	1595.438	1328.444
-6.546	29.517	1594.975	1327.150
-5.531	29.534	1593.592	1326.071
-4.517	29.474	1592.926	1325.027
-3.502	29.575	1591.756	1324.729
-2.487	29.692	1589.566	1323.693
-1.473	29.273	1578.071	1311.084
-0.458	26.456	1558.721	1275.134
0.556	20.750	1559.936	1245.198
1.571	18.591	1584.260	1248.802
2.586	18.191	1598.588	1257.045
3.600	16.512	1546.166	1203.771
4.615	8.777	1436.258	1066.765
5.629	1.250	1372.747	971.451
6.644	-0.201	1364.491	956.283
7.659	-0.179	1363.167	955.415
8.673	-0.384	1362.510	953.562
9.688	-0.315	1360.379	952.424
10.702	-0.509	1357.523	949.117
11.717	3.079	1364.270	976.562
12.731	12.378	1381.812	1048.621
13.746	19.705	1394.175	1104.924
14.761	21.771	1396.615	1119.976
15.775	22.018	1396.727	1121.543
16.790	22.063	1396.588	1121.621
17.804	22.218	1395.357	1121.519
18.819	22.281	1395.617	1122.033
19.834	22.461	1395.085	1122.650
20.848	22.537	1393.886	1122.072
21.863	22.516	1393.023	1121.144
22.877	22.444	1392.578	1120.230
23.892	22.493	1391.713	1119.743
24.907	22.522	1390.544	1118.892
25.921	22.523	1389.515	1117.968
26.936	22.507	1388.790	1117.188
27.950	22.513	1387.714	1116.259
28.965	22.540	1386.699	1115.514
29.980	22.547	1385.311	1114.341
30.994	22.529	1384.053	1113.118
32.009	22.493	1383.042	1111.980
33.023	22.498	1382.351	1111.356
34.038	22.551	1380.625	1110.204
35.053	22.482	1379.972	1109.150
36.067	22.508	1379.142	1108.544
37.082	22.525	1378.198	1107.797
38.096	22.522	1377.451	1107.083
39.111	22.563	1376.574	1106.533
40.126	22.565	1375.395	1105.504
41.140	22.447	1375.313	1104.597
42.155	22.467	1374.955	1104.340
43.169	22.586	1374.894	1104.938
44.184	22.619	1374.431	1104.674
45.199	22.418	1374.238	1103.162
46.213	22.356	1374.500	1102.884
47.228	22.490	1372.373	1101.922
48.242	22.479	1371.333	1100.920
49.257	22.482	1370.296	1100.005
50.271	22.503	1368.523	1098.615
51.286	22.638	1366.754	1097.941
52.301	22.468	1366.038	1096.211
53.315	22.569	1364.759	1095.715
54.330	22.596	1364.020	1095.195
55.344	22.539	1363.556	1094.369
56.359	22.506	1362.069	1092.876
57.374	22.492	1361.454	1092.200
58.388	22.455	1360.887	1091.420
59.403	22.512	1360.285	1091.189
60.417	22.490	1359.661	1090.458
61.432	22.549	1358.506	1089.796
62.447	22.515	1357.608	1088.774
63.461	22.527	1356.609	1087.950
64.476	22.563	1355.291	1087.015
65.490	22.481	1354.777	1086.005
66.505	22.586	1352.934	1085.077
67.520	22.542	1352.049	1084.000
68.534	22.538	1350.975	1083.017
69.549	22.546	1349.951	1082.154
70.563	22.582	1348.788	1081.342
71.578	22.584	1347.833	1080.494
72.593	22.475	1347.371	1079.358
73.607	22.556	1346.872	1079.360
74.622	22.678	1345.199	1078.674
75.636	22.571	1345.046	1077.797
76.651	22.562	1344.412	1077.139
77.666	22.558	1343.731	1076.477
78.680	22.436	1343.384	1075.357
79.695	22.438	1342.707	1074.730
80.709	22.442	1341.969	1074.073
81.724	22.413	1341.167	1073.158
82.739	22.493	1340.192	1072.771
83.753	22.612	1338.550	1072.086
84.768	22.482	1337.758	1070.567
85.782	22.510	1336.573	1069.692
86.797	22.572	1335.153	1068.835
87.812	22.547	1334.441	1068.023
88.826	22.588	1333.168	1067.156
89.841	22.478	1332.253	1065.663
90.855	22.594	1331.218	1065.439
91.870	22.585	1330.869	1065.016
92.884	22.602	1329.802	1064.165
93.899	22.619	1328.789	1063.367
94.914	22.601	1328.283	1062.761
95.928	22.719	1327.025	1062.368
96.943	22.643	1326.579	1061.458
97.957	22.609	1325.527	1060.320
98.972	22.584	1324.869	1059.549
99.987	22.599	1323.775	1058.673
101.001	22.527	1323.010	1057.535
102.016	22.630	1321.744	1057.047
103.030	22.614	1321.243	1056.458
104.045	22.601	1320.222	1055.466
105.060	22.621	1319.294	1054.755
106.074	22.586	1318.473	1053.795
107.089	22.562	1317.557	1052.827
108.103	22.622	1316.297	1052.085
109.118	22.659	1315.172	1051.309
110.133	22.720	1313.680	1050.391
111.147	22.710	1312.730	1049.475
112.162	22.621	1311.931	1048.214
113.176	22.698	1310.330	1047.301
114.191	22.625	1309.764	1046.323
115.206	22.680	1308.812	1045.795
116.220	22.688	1307.771	1044.920
117.235	22.727	1306.710	1044.208
118.249	22.663	1305.959	1043.137
119.264	22.553	1305.218	1041.806
120.279	22.786	1303.867	1042.007
121.293	22.734	1303.061	1040.967
122.308	22.756	1302.382	1040.460
123.322	22.729	1301.654	1039.631
124.337	22.688	1300.435	1038.324
125.352	22.782	1299.679	1038.177
126.366	22.757	1298.999	1037.400
127.381	22.727	1297.948	1036.288
128.395	22.688	1297.120	1035.309
129.410	22.710	1296.531	1034.874
130.424	22.700	1295.394	1033.818
131.439	22.714	1294.172	1032.832
132.454	22.629	1294.128	1032.211
133.468	22.693	1293.278	1031.816
134.483	22.692	1292.442	1031.051
135.497	22.740	1291.682	1030.632
136.512	22.726	1290.187	1029.264
137.527	22.718	1289.018	1028.199
138.541	22.700	1287.851	1027.072
139.556	22.713	1286.606	1026.064
140.570	22.611	1286.055	1024.941
141.585	22.674	1284.506	1023.980
142.600	22.705	1283.302	1023.106
143.614	22.652	1282.601	1022.152
144.629	22.750	1281.425	1021.692
145.643	22.637	1280.444	1020.166
146.658	22.687	1279.530	1019.635
147.673	22.595	1278.481	1018.181
148.687	22.702	1277.520	1017.943
149.702	22.567	1276.679	1016.400
150.716	22.622	1275.085	1015.362
151.731	22.729	1273.868	1014.916
152.746	22.684	1273.356	1014.161
153.760	22.803	1272.113	1013.764
154.775	22.811	1271.326	1013.093
155.789	22.664	1270.742	1011.693
156.804	22.653	1269.855	1010.835
157.819	22.616	1269.110	1009.940
158.833	22.822	1267.854	1010.032
159.848	22.897	1266.898	1009.607
160.862	22.817	1266.616	1008.838
161.877	22.631	1265.695	1006.951
162.892	22.762	1264.781	1006.882
163.906	22.809	1263.964	1006.412
164.921	22.866	1263.086	1005.950
165.935	22.867	1262.238	1005.188
166.950	22.859	1262.063	1004.915
167.964	22.866	1261.453	1004.383
168.979	22.817	1261.195	1003.808
169.994	22.848	1260.224	1003.121
171.008	22.834	1259.566	1002.432
172.023	22.750	1259.157	1001.538
173.037	22.826	1258.460	1001.331
174.052	22.924	1257.571	1001.088
175.067	22.870	1256.826	1000.099
176.081	22.894	1255.609	999.179
177.096	22.907	1254.704	998.443
178.110	22.884	1254.061	997.717
179.125	22.876	1253.054	996.779
180.140	22.933	1251.814	996.029
181.154	22.908	1250.748	994.949
182.169	22.839	1249.946	993.832
183.183	22.943	1248.523	993.199
184.198	22.829	1248.006	992.062
185.213	22.980	1246.907	991.947
186.227	22.978	1246.093	991.201
187.242	22.939	1245.107	990.112
188.256	22.917	1244.349	989.294
189.271	22.934	1243.696	988.786
190.286	22.910	1242.577	987.675
191.300	22.911	1242.067	987.187
192.315	22.789	1242.048	986.404
193.329	22.853	1241.587	986.305
194.344	22.898	1241.169	986.138
195.359	23.024	1240.597	986.300
196.373	22.935	1239.913	985.173
197.388	22.907	1239.509	984.609
198.402	22.821	1239.289	983.863
199.417	22.970	1238.783	984.207
200.432	23.080	1237.669	983.847
201.446	22.939	1237.402	982.765
202.461	23.000	1236.275	982.118
203.475	22.959	1235.464	981.163
204.490	22.949	1234.447	980.212
205.504	23.011	1233.530	979.743
206.519	23.044	1232.325	978.882
207.534	22.982	1231.723	977.972
208.548	22.946	1231.052	977.155
209.563	23.002	1230.457	976.901
210.577	23.032	1229.676	976.365
211.592	23.042	1228.708	975.564
212.607	23.080	1227.588	974.800
213.621	23.031	1227.446	974.329
214.636	23.094	1226.637	973.946
215.650	23.124	1225.656	973.245
216.665	23.018	1224.521	971.676
217.680	22.976	1223.788	970.777
218.694	23.083	1222.750	970.457
219.709	23.041	1221.972	969.524
220.723	23.049	1221.522	969.121
221.738	23.014	1220.764	968.242
222.753	23.024	1219.878	967.514
223.767	23.185	1218.894	967.526
224.782	23.090	1219.103	967.084
225.796	23.181	1218.016	966.635
226.811	23.087	1217.918	965.957
227.826	23.125	1216.983	965.342
228.840	23.140	1216.520	964.970
229.855	23.142	1215.897	964.401
230.869	23.139	1215.443	963.940
231.884	23.228	1214.006	963.195
232.899	23.143	1213.781	962.469
233.913	23.255	1212.788	962.207
234.928	23.168	1212.695	961.574
235.942	23.208	1212.072	961.211
236.957	23.222	1211.591	960.824
237.972	23.300	1210.228	960.080
238.986	23.173	1209.870	959.025
240.001	23.295	1209.728	959.488
241.015	23.402	1208.332	958.873
242.030	23.330	1207.761	957.946
243.045	23.375	1206.914	957.431
244.059	23.201	1206.463	956.052
245.074	23.285	1205.498	955.654
246.088	23.320	1204.558	955.011
247.103	23.348	1203.695	954.395
248.117	23.371	1202.870	953.779
249.132	23.395	1202.189	953.284
250.147	23.313	1201.732	952.398
251.161	23.333	1200.556	951.489
252.176	23.368	1200.037	951.184
253.190	23.299	1199.805	950.540
254.205	23.357	1199.359	950.419
255.220	23.348	1198.376	949.507
256.234	23.443	1197.753	949.438
257.249	23.355	1197.351	948.561
258.263	23.461	1196.528	948.395
259.278	23.562	1195.902	948.354
260.293	23.521	1195.777	947.952
261.307	23.590	1194.577	947.288
262.322	23.558	1194.361	946.861
263.336	23.479	1193.390	945.585
264.351	23.519	1193.357	945.687
265.366	23.490	1192.610	944.856
266.380	23.363	1192.383	943.916
267.395	23.460	1191.197	943.410
268.409	23.475	1190.780	943.077
269.424	23.491	1189.714	942.237
270.439	23.500	1189.599	942.107
271.453	23.513	1188.730	941.407
272.468	23.483	1188.187	940.733
273.482	23.482	1187.616	940.193
274.497	23.537	1186.693	939.668
275.512	23.502	1186.181	938.996
276.526	23.531	1185.725	938.707
277.541	23.551	1185.080	938.218
278.555	23.638	1183.881	937.645
279.570	23.597	1183.655	937.166
280.585	23.526	1182.777	936.015
281.599	23.493	1182.397	935.455
282.614	23.526	1181.262	934.649
283.628	23.687	1180.070	934.471
284.643	23.722	1179.016	933.734
285.657	23.660	1178.231	932.708
286.672	23.524	1178.072	931.782
287.687	23.650	1177.263	931.726
288.701	23.666	1176.234	930.913
289.716	23.717	1175.689	930.664
290.730	23.646	1175.066	929.718
291.745	23.656	1174.443	929.193
292.760	23.818	1173.584	929.280
293.774	23.735	1173.207	928.467
294.789	23.735	1172.758	928.028
295.803	23.668	1172.580	927.452
296.818	23.777	1171.220	926.867
297.833	23.733	1170.837	926.249
298.847	23.857	1169.685	925.901
299.862	23.996	1168.808	925.848
300.876	23.814	1168.417	924.511
301.891	23.831	1167.937	924.137
302.906	23.956	1167.021	923.982
303.920	23.813	1166.955	923.102
304.935	23.949	1165.885	922.883
305.949	23.871	1165.371	921.989
306.964	23.839	1165.118	921.541
307.979	23.777	1164.493	920.643
308.993	23.968	1163.397	920.682
310.008	23.949	1162.538	919.825
311.022	23.927	1161.769	919.024
312.037	23.890	1161.468	918.510
313.052	24.002	1160.598	918.319
314.066	23.928	1159.350	916.868
315.081	23.927	1158.839	916.379
316.095	23.973	1158.101	915.951
317.110	23.958	1157.484	915.306
318.125	23.978	1156.903	914.869
319.139	23.867	1156.774	914.115
320.154	23.848	1156.234	913.510
321.168	23.968	1155.381	913.368
322.183	24.063	1154.455	913.044
323.197	23.958	1154.309	912.308
324.212	24.129	1153.139	912.180
325.227	23.922	1153.160	911.055
326.241	24.055	1152.153	910.860
327.256	24.048	1151.502	910.227
328.270	24.095	1150.833	909.863
329.285	24.032	1150.279	909.019
330.300	24.115	1149.203	908.510
331.314	24.081	1148.237	907.493
332.329	24.103	1147.838	907.210
333.343	24.116	1146.803	906.379
334.358	24.097	1146.315	905.816
335.373	24.109	1145.454	905.120
336.387	24.218	1144.690	904.986
337.402	24.089	1144.488	904.092
338.416	24.284	1143.208	903.992
339.431	24.272	1142.507	903.297
340.446	24.307	1142.106	903.073
341.460	24.304	1141.541	902.536
342.475	24.325	1140.481	901.721
343.489	24.127	1140.409	900.585
344.504	24.214	1138.894	899.746
345.519	24.235	1138.060	899.117
346.533	24.323	1137.483	899.023
347.548	24.371	1136.438	898.360
348.562	24.189	1136.143	897.127
349.577	24.240	1135.171	896.541
350.592	24.150	1134.443	895.432
351.606	24.176	1134.034	895.162
352.621	24.356	1133.376	895.466
353.635	24.253	1133.269	894.785
354.650	24.444	1131.864	894.557
355.665	24.355	1131.253	893.545
356.679	24.283	1130.966	892.883
357.694	24.458	1130.543	893.345
358.708	24.484	1129.395	892.490
359.723	24.422	1128.750	891.588
360.738	24.324	1128.606	890.907
361.752	24.388	1127.791	890.506
362.767	24.434	1127.346	890.304
363.781	24.425	1126.401	889.431
364.796	24.544	1126.101	889.709
365.810	24.550	1125.838	889.452
366.825	24.518	1125.114	888.646
367.840	24.465	1124.830	888.080
368.854	24.634	1123.445	887.746
369.869	24.614	1122.930	887.161
370.883	24.636	1122.426	886.794
371.898	24.663	1121.555	886.161
372.913	24.665	1120.776	885.474
373.927	24.644	1120.556	885.120
374.942	24.748	1119.976	885.100
375.956	24.667	1119.617	884.335
376.971	24.672	1118.879	883.700
377.986	24.638	1118.750	883.352
379.000	24.660	1118.139	882.900
380.015	24.790	1116.858	882.451
381.029	24.731	1116.661	881.925
382.044	24.590	1116.158	880.755
383.059	24.679	1115.830	880.856
384.073	24.783	1114.468	880.214
385.088	24.708	1113.949	879.358
386.102	24.702	1112.938	878.452
387.117	24.720	1112.349	877.999
388.132	24.602	1111.510	876.680
389.146	24.778	1110.427	876.612
390.161	24.741	1110.100	876.093
391.175	24.824	1109.404	875.873
392.190	24.917	1108.523	875.556
393.205	24.760	1108.409	874.622
394.219	24.749	1107.498	873.773
395.234	24.862	1106.449	873.415
396.248	24.854	1105.627	872.651
397.263	24.913	1104.353	871.858
398.278	24.883	1104.409	871.676
399.292	24.850	1103.911	871.047
400.307	24.959	1102.674	870.524
401.321	24.858	1102.268	869.633
402.336	24.875	1102.078	869.489
403.350	24.844	1101.224	868.588
404.365	24.916	1100.440	868.245
405.380	24.961	1099.856	867.924
406.394	24.924	1098.870	866.889
407.409	25.021	1098.152	866.718
408.423	25.129	1097.497	866.646
409.438	25.107	1096.865	865.965
410.453	25.082	1096.060	865.128
411.467	25.071	1095.376	864.461
412.482	25.031	1094.950	863.856
413.496	25.105	1093.930	863.329
414.511	25.098	1093.523	862.898
415.526	25.050	1093.100	862.257
416.540	25.010	1092.795	861.748
417.555	24.994	1092.117	861.062
418.569	25.097	1091.481	860.975
419.584	25.024	1091.601	860.647
420.599	25.268	1090.784	861.095
421.613	148.026	1403.558	1798.824
422.628	136.962	1449.081	1798.905
