DTS Sentinel unit serial number:	SN413079Multiplexer serial number:	ORYXHardware model number:	OX4-SRSoftware version number:	ORYX F/W v4.00 Oryx Data Collector v3.7.2.0data status	okinstallation	princeton_trtdifferential loss correction	single-endedforward channel	channel 2reverse channel	N/Adate	2019/09/11time	02:45:10forward acquisition time	60.00reverse acquisition time	0.00gamma	496.2192k internal	0.2331k external	0.2331temperature offset calibration	0.9939default loss term (dB/km)	0.3790temperature slope calibration	1.0000multiplexer offset coefficient	1.0000multiplexer slope coefficient	1.0000fibre end	0.00T internal ref (°C)	29.25T ext. ref 1 (°C)	-0.31T ext. ref 2 (°C)	23.19length (m)	temperature (°C)	Stokes	anti-Stokes-747.200	-10.344	0.082	-0.055
-746.185	800.000	-0.062	0.272
-745.171	-173.181	0.280	-0.009
-744.156	-143.202	-0.075	0.007
-743.142	21.706	-0.143	-0.117
-742.127	-182.575	-0.185	-0.003
-741.112	-90.060	-0.193	0.056
-740.098	-74.554	0.106	0.039
-739.083	-109.173	0.219	-0.047
-738.069	-32.977	-0.140	0.078
-737.054	478.098	-0.131	0.299
-736.039	8.057	-0.214	0.161
-735.025	-98.715	0.211	0.054
-734.010	-200.000	0.036	-0.363
-732.996	-200.000	0.019	-0.225
-731.981	203.258	-0.093	0.145
-730.966	-168.647	-0.132	0.005
-729.952	157.526	-0.180	0.250
-728.937	-73.579	-0.225	0.083
-727.923	367.199	0.065	0.132
-726.908	-200.000	-0.020	-0.132
-725.894	-44.564	-0.332	-0.167
-724.879	451.047	-0.034	-0.076
-723.864	-115.371	-0.414	0.079
-722.850	527.591	0.056	0.133
-721.835	156.232	-0.041	-0.058
-720.821	82.349	-0.105	0.114
-719.806	-102.115	-0.286	0.069
-718.791	-117.655	0.164	0.030
-717.777	117.011	0.237	-0.293
-716.762	660.972	0.044	-0.113
-715.748	-77.535	-0.348	0.121
-714.733	45.927	0.054	-0.050
-713.718	257.459	-0.076	0.131
-712.704	67.419	-0.099	0.102
-711.689	-153.370	-0.144	-0.010
-710.675	47.865	0.069	-0.064
-709.660	-174.767	0.083	0.002
-708.645	-125.085	-0.140	0.022
-707.631	49.285	-0.172	0.163
-706.616	-92.282	-0.422	-0.120
-705.602	-143.320	-0.240	0.023
-704.587	800.000	-0.131	0.481
-703.572	186.602	0.078	0.117
-702.558	-120.626	0.343	-0.058
-701.543	800.000	0.086	-0.297
-700.529	-187.507	0.156	-0.002
-699.514	-200.000	0.004	0.102
-698.499	38.194	-0.196	0.175
-697.485	-111.660	-0.482	-0.098
-696.470	-26.080	0.137	0.081
-695.456	-66.644	-0.036	-0.014
-694.441	15.299	-0.139	-0.110
-693.426	-71.374	0.311	0.117
-692.412	-34.859	-0.240	0.132
-691.397	-62.394	-0.187	-0.078
-690.383	800.000	-0.058	-0.204
-689.368	233.131	-0.060	0.099
-688.354	-15.998	-0.158	-0.101
-687.339	-130.291	-0.127	-0.017
-686.324	-200.000	-0.014	0.062
-685.310	-200.000	0.043	-0.447
-684.295	59.071	-0.252	-0.249
-683.281	-67.035	0.149	-0.059
-682.266	800.000	0.085	0.281
-681.251	4.644	-0.116	-0.086
-680.237	31.040	0.268	-0.230
-679.222	-20.993	0.066	0.041
-678.208	40.874	-0.281	0.255
-677.193	219.871	-0.047	0.076
-676.178	250.361	-0.122	0.208
-675.164	3.584	-0.182	0.133
-674.149	39.650	-0.108	0.097
-673.135	182.767	0.226	0.335
-672.120	225.487	-0.105	0.171
-671.105	-156.590	0.321	0.020
-670.091	-120.724	0.289	0.049
-669.076	-77.595	0.027	-0.009
-668.062	-200.000	-0.020	0.182
-667.047	800.000	0.049	0.209
-666.032	-200.000	0.027	0.183
-665.018	-73.991	-0.114	-0.041
-664.003	596.434	-0.044	0.109
-662.989	-200.000	0.010	-0.132
-661.974	-63.859	0.230	-0.094
-660.959	-24.980	0.146	-0.087
-659.945	63.337	0.017	-0.017
-658.930	26.503	-0.282	-0.236
-657.916	-81.840	-0.090	0.030
-656.901	161.602	0.187	-0.262
-655.886	360.915	0.096	0.192
-654.872	508.380	0.094	0.219
-653.857	54.679	-0.147	-0.142
-652.843	-127.389	0.291	0.043
-651.828	5.237	-0.176	-0.130
-650.814	261.586	-0.268	-0.466
-649.799	-27.709	-0.107	-0.062
-648.784	161.742	-0.143	0.200
-647.770	800.000	-0.058	-0.240
-646.755	411.639	0.184	-0.392
-645.741	319.201	0.033	-0.062
-644.726	800.000	0.059	0.224
-643.711	-200.000	-0.057	0.321
-642.697	-200.000	0.008	-0.215
-641.682	133.053	0.185	0.240
-640.668	-181.306	0.270	-0.005
-639.653	-200.000	0.010	-0.167
-638.638	-181.301	-0.210	0.004
-637.624	40.390	-0.154	0.139
-636.609	-51.486	0.129	0.060
-635.595	-47.433	0.154	-0.075
-634.580	800.000	0.087	0.244
-633.565	-57.715	0.223	-0.098
-632.551	434.218	-0.071	-0.154
-631.536	-19.947	0.308	-0.191
-630.522	693.863	0.035	-0.092
-629.507	-200.000	-0.284	-0.001
-628.492	-60.758	-0.027	0.012
-627.478	-94.827	-0.080	-0.022
-626.463	-19.328	-0.205	-0.127
-625.449	-200.000	-0.001	0.230
-624.434	-200.000	0.041	0.279
-623.419	691.994	0.011	-0.028
-622.405	93.090	0.208	-0.236
-621.390	-130.970	0.315	-0.042
-620.376	69.283	-0.211	0.218
-619.361	45.888	0.177	0.164
-618.346	-200.000	0.038	-0.263
-617.332	-84.348	-0.343	-0.109
-616.317	-134.497	-0.047	-0.006
-615.303	-65.984	-0.350	-0.140
-614.288	333.020	-0.163	-0.316
-613.273	-80.556	0.149	-0.050
-612.259	-59.170	0.199	-0.086
-611.244	98.305	-0.177	-0.205
-610.230	-21.816	0.292	0.178
-609.215	7.396	0.273	0.204
-608.201	47.842	0.251	0.235
-607.186	-34.513	0.021	0.011
-606.171	89.204	-0.057	-0.064
-605.157	2.582	0.172	0.125
-604.142	-200.000	-0.035	-0.198
-603.128	336.731	0.121	-0.235
-602.113	800.000	0.119	-0.411
-601.098	-137.210	0.114	0.013
-600.084	212.939	0.089	-0.141
-599.069	-106.821	0.119	0.026
-598.055	-200.000	-0.003	0.231
-597.040	-200.000	-0.001	-0.086
-596.025	71.020	0.191	-0.199
-595.011	35.872	-0.117	0.103
-593.996	-27.881	0.158	-0.092
-592.982	800.000	0.118	-0.367
-591.967	-115.605	0.236	-0.044
-590.952	-112.660	-0.392	-0.078
-589.938	553.329	-0.053	0.126
-588.923	-65.470	0.291	0.117
-587.909	-200.000	0.036	-0.176
-586.894	315.290	-0.164	-0.309
-585.879	-200.000	-0.047	0.219
-584.865	25.876	-0.318	0.265
-583.850	-180.839	0.366	-0.007
-582.836	567.630	0.015	0.036
-581.821	-200.000	0.021	0.282
-580.806	87.342	-0.118	0.130
-579.792	-28.828	0.412	0.237
-578.777	-16.515	-0.194	0.123
-577.763	-138.548	-0.186	0.020
-576.748	-126.549	0.035	-0.005
-575.733	-200.000	0.041	0.354
-574.719	104.681	-0.148	0.174
-573.704	8.316	-0.336	-0.252
-572.690	-61.252	-0.156	-0.066
-571.675	494.232	0.103	-0.236
-570.661	-131.785	-0.307	-0.040
-569.646	5.447	0.076	0.056
-568.631	-42.920	0.176	-0.089
-567.617	-85.845	-0.183	-0.057
-566.602	-20.838	-0.074	0.045
-565.588	800.000	0.054	0.235
-564.573	-16.688	0.106	0.067
-563.558	-200.000	-0.039	-0.468
-562.544	-103.541	0.208	-0.049
-561.529	800.000	-0.139	-0.425
-560.515	76.835	-0.180	-0.191
-559.500	-200.000	-0.009	-0.123
-558.485	35.552	0.135	0.118
-557.471	-200.000	-0.001	-0.007
-556.456	-117.999	-0.383	-0.068
-555.442	-11.724	0.090	-0.059
-554.427	-61.379	0.348	-0.146
-553.412	174.537	0.116	0.167
-552.398	-87.257	-0.297	-0.090
-551.383	-200.000	-0.001	-0.269
-550.369	-200.000	0.012	-0.141
-549.354	261.433	-0.160	0.277
-548.339	-144.079	0.087	-0.008
-547.325	-126.352	0.399	-0.059
-546.310	-200.000	0.009	0.066
-545.296	135.280	-0.089	0.116
-544.281	414.831	-0.098	0.208
-543.266	525.392	0.072	0.168
-542.252	-74.043	0.285	-0.103
-541.237	-97.050	0.199	-0.052
-540.223	-43.281	0.125	-0.063
-539.208	51.309	-0.116	0.110
-538.193	-134.908	-0.253	0.031
-537.179	800.000	-0.052	0.178
-536.164	800.000	0.074	0.234
-535.150	37.158	-0.158	0.140
-534.135	-128.535	-0.341	0.048
-533.121	-60.881	0.279	-0.118
-532.106	-184.995	-0.112	0.002
-531.091	93.345	-0.179	0.202
-530.077	-200.000	-0.087	0.422
-529.062	800.000	0.027	-0.103
-528.048	-141.733	-0.383	0.038
-527.033	-200.000	0.052	-0.508
-526.018	609.087	0.060	-0.151
-525.004	-15.785	0.253	0.161
-523.989	408.897	-0.045	-0.095
-522.975	-90.886	0.130	-0.037
-521.960	389.387	-0.231	-0.478
-520.945	62.468	0.319	-0.318
-519.931	-38.363	0.272	0.144
-518.916	-200.000	0.001	0.225
-517.902	800.000	-0.029	-0.110
-516.887	537.075	0.033	-0.078
-515.872	-147.291	0.366	-0.031
-514.858	-2.695	0.190	0.132
-513.843	-96.266	-0.093	0.025
-512.829	69.050	-0.091	-0.093
-511.814	-72.503	-0.204	0.075
-510.799	-200.000	0.011	-0.250
-509.785	5.848	0.258	-0.191
-508.770	-14.699	-0.141	0.091
-507.756	62.984	0.048	0.047
-506.741	273.477	-0.133	-0.234
-505.726	40.200	0.044	0.039
-504.712	-21.447	0.081	0.049
-503.697	-72.010	-0.190	-0.071
-502.683	-200.000	0.039	0.515
-501.668	265.046	-0.096	-0.167
-500.653	206.153	0.306	-0.474
-499.639	800.000	-0.033	0.134
-498.624	-106.118	0.305	0.068
-497.610	-16.347	-0.252	-0.159
-496.595	210.712	0.083	0.130
-495.581	-185.892	-0.131	-0.002
-494.566	-75.437	-0.334	-0.119
-493.551	129.011	0.075	-0.095
-492.537	-78.589	0.196	0.067
-491.522	98.456	0.250	-0.287
-490.508	9.520	0.048	0.036
-489.493	17.132	-0.120	0.095
-488.478	-200.000	0.259	-0.001
-487.464	-97.902	-0.122	-0.031
-486.449	-99.183	-0.195	0.049
-485.435	240.316	-0.112	0.187
-484.420	158.675	0.109	-0.151
-483.405	18.019	-0.165	0.131
-482.391	800.000	-0.039	-0.134
-481.376	486.221	-0.074	0.168
-480.362	-56.363	-0.158	0.070
-479.347	203.274	0.027	0.041
-478.332	800.000	0.086	0.270
-477.318	-200.000	-0.030	0.275
-476.303	-200.000	0.036	0.421
-475.289	321.040	0.162	0.307
-474.274	-43.200	-0.039	0.020
-473.259	-153.054	-0.161	0.011
-472.245	12.371	-0.168	0.129
-471.230	33.729	-0.166	0.144
-470.216	-200.000	0.001	0.319
-469.201	-118.176	0.080	-0.014
-468.186	-7.355	0.015	0.010
-467.172	-48.608	-0.082	0.039
-466.157	-56.618	-0.128	-0.056
-465.143	217.170	0.189	0.299
-464.128	-200.000	-0.015	-0.270
-463.113	230.323	-0.079	-0.128
-462.099	-116.767	-0.262	-0.048
-461.084	-41.838	0.303	-0.155
-460.070	56.521	-0.124	0.120
-459.055	25.809	0.339	-0.281
-458.040	685.888	0.094	0.245
-457.026	517.181	0.031	-0.072
-456.011	800.000	0.068	0.196
-454.997	122.477	0.140	-0.174
-453.982	800.000	-0.129	0.400
-452.968	7.108	0.038	-0.028
-451.953	-200.000	-0.041	0.188
-450.938	-124.559	0.227	-0.035
-449.924	-73.705	0.124	0.045
-448.909	-153.249	0.393	-0.027
-447.895	-163.842	0.175	-0.008
-446.880	-16.696	0.130	0.082
-445.865	-146.437	0.237	-0.021
-444.851	478.155	-0.052	0.118
-443.836	-4.874	0.318	-0.218
-442.822	106.896	0.116	0.137
-441.807	15.319	-0.258	0.202
-440.792	4.304	-0.107	-0.078
-439.778	-69.250	-0.405	0.155
-438.763	-88.631	-0.118	-0.035
-437.749	-200.000	-0.003	0.133
-436.734	275.392	0.240	0.423
-435.719	-56.037	0.132	-0.059
-434.705	800.000	0.076	0.218
-433.690	0.637	-0.508	-0.362
-432.676	132.039	0.056	0.071
-431.661	135.923	0.102	-0.133
-430.646	486.590	-0.079	-0.179
-429.632	-2.049	-0.274	-0.192
-428.617	8.288	0.222	0.166
-427.603	10.810	-0.155	0.117
-426.588	-99.691	0.040	0.010
-425.573	201.427	-0.081	0.125
-424.559	-200.000	-0.040	0.295
-423.544	-106.849	0.096	0.021
-422.530	170.829	-0.119	0.170
-421.515	145.025	0.161	0.214
-420.500	-116.234	-0.356	-0.066
-419.486	-200.000	0.073	-0.373
-418.471	399.618	-0.095	0.198
-417.457	219.942	-0.074	0.117
-416.442	3.423	-0.169	-0.123
-415.428	238.771	0.047	0.078
-414.413	21.338	0.109	-0.088
-413.398	-200.000	0.024	-0.384
-412.384	800.000	0.060	-0.174
-411.369	97.472	0.133	-0.152
-410.355	-118.183	-0.221	-0.039
-409.340	-51.665	0.192	-0.089
-408.325	-200.000	-0.063	0.320
-407.311	59.604	0.243	0.238
-406.296	625.765	0.072	0.180
-405.282	800.000	-0.094	-0.260
-404.267	749.649	-0.029	0.077
-403.252	275.926	-0.053	0.093
-402.238	-57.707	-0.320	-0.139
-401.223	-200.000	-0.040	0.312
-400.209	-78.797	0.259	-0.088
-399.194	-200.000	-0.022	0.379
-398.179	-147.652	-0.149	0.012
-397.165	-38.448	0.102	-0.054
-396.150	371.916	0.040	-0.081
-395.136	25.722	0.024	-0.020
-394.121	438.201	0.116	-0.251
-393.106	340.369	0.129	-0.250
-392.092	-200.000	-0.082	-0.467
-391.077	21.120	0.121	0.097
-390.063	-180.136	0.404	-0.008
-389.048	169.582	-0.088	0.124
-388.033	-72.251	-0.309	-0.114
-387.019	399.940	0.091	0.189
-386.004	-200.000	-0.048	-0.324
-384.990	16.476	-0.333	-0.261
-383.975	-55.086	-0.207	0.093
-382.960	-134.413	-0.071	0.009
-381.946	-101.278	0.203	-0.049
-380.931	47.354	0.169	0.157
-379.917	-47.883	-0.150	0.072
-378.902	75.549	0.096	-0.100
-377.888	688.299	-0.099	0.256
-376.873	-44.330	0.406	-0.202
-375.858	-2.964	0.283	-0.196
-374.844	-95.599	0.111	-0.029
-373.829	-200.000	-0.001	0.276
-372.815	-19.539	0.176	0.108
-371.800	-17.301	-0.260	0.162
-370.785	531.306	-0.050	-0.117
-369.771	-10.716	0.487	0.319
-368.756	-10.354	-0.062	-0.041
-367.742	649.379	0.055	-0.140
-366.727	88.284	-0.091	0.101
-365.712	-200.000	-0.010	-0.057
-364.698	800.000	-0.073	0.202
-363.683	291.945	0.004	0.007
-362.669	210.524	-0.259	0.404
-361.654	407.238	0.114	-0.239
-360.639	-91.563	0.347	-0.098
-359.625	101.762	-0.164	0.190
-358.610	410.746	0.146	0.308
-357.596	7.466	0.040	0.030
-356.581	-41.999	-0.226	0.115
-355.566	800.000	0.077	-0.307
-354.552	-157.704	-0.241	0.014
-353.537	-28.813	-0.055	0.032
-352.523	800.000	-0.095	-0.326
-351.508	196.466	0.076	-0.115
-350.493	-57.281	-0.146	0.063
-349.479	44.557	0.275	0.251
-348.464	66.250	0.062	0.063
-347.450	-103.066	0.419	-0.098
-346.435	-56.404	-0.173	0.076
-345.420	205.441	0.093	0.143
-344.406	173.018	-0.197	0.281
-343.391	-194.100	-0.402	-0.003
-342.377	70.738	0.109	-0.112
-341.362	800.000	-0.031	-0.088
-340.348	18.039	-0.112	-0.088
-339.333	-190.466	-0.098	-0.001
-338.318	-47.049	-0.102	-0.049
-337.304	3.442	-0.150	-0.108
-336.289	-43.963	-0.284	0.141
-335.275	-200.000	0.016	-0.114
-334.260	160.877	-0.012	-0.017
-333.245	-164.540	0.168	-0.008
-332.231	-52.119	-0.356	0.164
-331.216	800.000	-0.015	-0.055
-330.202	800.000	-0.036	-0.147
-329.187	518.820	-0.235	-0.545
-328.172	800.000	0.081	-0.236
-327.158	-200.000	0.017	-0.074
-326.143	-107.434	0.212	-0.046
-325.129	18.272	-0.196	-0.155
-324.114	-67.295	-0.209	0.081
-323.099	-172.431	0.387	-0.012
-322.085	57.408	-0.177	0.171
-321.070	665.146	0.037	-0.095
-320.056	800.000	0.043	0.141
-319.041	-200.000	0.006	0.089
-318.026	-200.000	0.011	-0.278
-317.012	110.914	0.207	-0.247
-315.997	-71.733	0.267	0.099
-314.983	-200.000	0.074	0.337
-313.968	372.606	-0.117	-0.235
-312.953	326.205	-0.118	-0.224
-311.939	-148.889	-0.191	-0.015
-310.924	-200.000	0.005	0.145
-309.910	-200.000	0.029	-0.282
-308.895	-114.699	-0.182	0.034
-307.880	-200.000	-0.000	0.182
-306.866	135.511	-0.200	-0.257
-305.851	-113.385	-0.225	-0.044
-304.837	57.324	0.244	-0.236
-303.822	-152.873	0.313	0.022
-302.807	-57.592	0.473	-0.205
-301.793	-102.671	-0.036	-0.008
-300.778	85.570	0.105	0.114
-299.764	-200.000	-0.016	0.132
-298.749	-141.668	-0.403	-0.040
-297.735	265.615	0.134	0.231
-296.720	-61.284	0.028	0.012
-295.705	-200.000	0.018	0.260
-294.691	16.021	-0.280	0.218
-293.676	178.676	0.142	-0.206
-292.662	-42.093	-0.284	-0.144
-291.647	-200.000	-0.052	-0.231
-290.632	-200.000	0.027	0.132
-289.618	341.315	-0.106	0.204
-288.603	59.135	-0.026	0.025
-287.589	-138.527	0.030	0.003
-286.574	-2.404	-0.137	0.095
-285.559	-45.238	-0.277	-0.136
-284.545	256.302	0.236	-0.400
-283.530	-178.111	-0.089	-0.002
-282.516	-91.923	0.235	-0.066
-281.501	449.374	-0.045	-0.098
-280.486	800.000	0.038	-0.165
-279.472	-52.282	-0.234	0.107
-278.457	82.551	0.173	0.186
-277.443	203.721	0.100	-0.154
-276.428	-200.000	-0.051	-0.280
-275.413	13.759	0.132	-0.102
-274.399	-184.527	-0.240	0.004
-273.384	-67.223	0.039	-0.015
-272.370	385.752	-0.160	0.326
-271.355	195.230	-0.203	-0.305
-270.340	91.258	-0.179	-0.198
-269.326	-49.854	-0.059	-0.028
-268.311	-200.000	-0.014	-0.222
-267.297	-62.123	0.127	0.052
-266.282	-200.000	-0.002	0.260
-265.267	306.061	-0.089	0.163
-264.253	-200.000	-0.044	0.341
-263.238	161.829	0.078	-0.109
-262.224	411.682	-0.104	-0.218
-261.209	324.180	-0.056	0.106
-260.195	-65.827	0.179	-0.071
-259.180	-42.861	-0.332	-0.167
-258.165	-185.188	0.368	-0.006
-257.151	-99.745	-0.153	0.038
-256.136	33.658	-0.082	-0.071
-255.122	-153.369	-0.140	0.010
-254.107	-43.956	-0.202	0.100
-253.092	159.455	0.177	-0.243
-252.078	-62.342	-0.069	-0.028
-251.063	-29.143	-0.253	0.143
-250.049	800.000	-0.020	0.079
-249.034	-200.000	0.062	-0.276
-248.019	-39.379	-0.330	0.171
-247.005	229.181	0.078	-0.125
-245.990	800.000	0.108	0.362
-244.976	-200.000	-0.007	0.084
-243.961	-44.234	-0.273	0.135
-242.946	98.123	0.161	-0.183
-241.932	800.000	0.122	-0.335
-240.917	7.242	-0.145	-0.107
-239.903	-15.004	-0.122	0.077
-238.888	245.083	0.101	-0.167
-237.873	-71.981	-0.150	0.055
-236.859	242.969	0.017	0.027
-235.844	-125.963	-0.154	0.023
-234.830	-128.241	-0.345	-0.049
-233.815	-200.000	0.011	-0.203
-232.800	86.550	-0.194	-0.211
-231.786	-200.000	-0.029	-0.209
-230.771	-200.000	0.063	-0.273
-229.757	-200.000	-0.028	0.300
-228.742	-200.000	-0.014	0.099
-227.727	-20.007	0.056	-0.034
-226.713	-200.000	-0.015	0.187
-225.698	-36.008	0.368	-0.196
-224.684	800.000	0.025	-0.091
-223.669	800.000	0.028	-0.117
-222.655	-200.000	0.251	0.001
-221.640	-193.690	-0.126	-0.001
-220.625	365.167	0.120	-0.239
-219.611	-200.000	0.000	-0.170
-218.596	45.776	-0.276	0.252
-217.582	-71.952	-0.189	-0.069
-216.567	659.196	0.115	0.292
-215.552	-24.266	0.040	0.023
-214.538	-200.000	0.062	0.552
-213.523	221.613	0.157	0.249
-212.509	-31.413	0.251	0.139
-211.494	210.960	0.183	0.284
-210.479	69.929	-0.047	-0.048
-209.465	143.336	-0.129	0.169
-208.450	540.527	-0.125	-0.294
-207.436	404.891	-0.044	0.091
-206.421	-6.603	-0.152	-0.102
-205.406	-200.000	-0.014	-0.415
-204.392	-44.218	0.222	0.110
-203.377	182.910	-0.080	0.116
-202.363	349.646	-0.216	-0.421
-201.348	-200.000	0.026	0.122
-200.333	-165.673	-0.167	-0.007
-199.319	35.347	0.205	-0.177
-198.304	-200.000	-0.032	0.168
-197.290	220.710	0.039	0.062
-196.275	-188.120	0.247	0.003
-195.260	369.509	0.101	0.202
-194.246	157.477	0.150	0.205
-193.231	557.427	-0.144	-0.341
-192.217	332.630	-0.136	0.259
-191.202	95.421	0.075	0.085
-190.187	-105.812	-0.069	-0.015
-189.173	-40.026	0.059	-0.030
-188.158	800.000	0.026	-0.079
-187.144	800.000	0.106	0.408
-186.129	-112.458	-0.125	0.025
-185.114	800.000	-0.101	-0.316
-184.100	-80.629	-0.182	-0.060
-183.085	-8.316	0.249	0.165
-182.071	-134.973	0.075	0.009
-181.056	-200.000	-0.003	0.104
-180.042	-200.000	-0.025	0.156
-179.027	261.750	-0.061	-0.104
-178.012	697.896	-0.055	0.143
-176.998	718.215	0.107	0.280
-175.983	446.754	0.119	-0.258
-174.969	-33.922	0.307	0.166
-173.954	-132.445	-0.077	-0.010
-172.939	74.186	0.043	-0.044
-171.925	800.000	0.104	-0.284
-170.910	-88.457	0.127	-0.037
-169.896	-155.761	-0.427	-0.027
-168.881	-175.812	0.123	0.003
-167.866	17.439	0.144	-0.113
-166.852	257.402	0.110	0.186
-165.837	-200.000	-0.025	-0.186
-164.823	-109.392	-0.488	0.102
-163.808	167.152	0.094	0.131
-162.793	5.503	0.084	0.061
-161.779	-200.000	-0.025	-0.205
-160.764	800.000	-0.055	-0.151
-159.750	621.830	-0.109	0.270
-158.735	-200.000	-0.273	-0.001
-157.720	-200.000	0.021	0.278
-156.706	217.833	0.102	0.160
-155.691	20.379	-0.123	-0.098
-154.677	-60.401	0.274	0.114
-153.662	82.511	-0.147	0.157
-152.647	169.883	0.149	0.209
-151.633	136.936	0.022	0.028
-150.618	-6.764	-0.279	0.187
-149.604	-200.000	0.006	0.228
-148.589	71.100	0.173	0.176
-147.574	80.393	0.080	-0.085
-146.560	-40.989	-0.232	-0.118
-145.545	179.858	0.065	0.093
-144.531	-108.496	0.557	-0.118
-143.516	-153.514	-0.161	-0.011
-142.502	800.000	0.107	0.351
-141.487	-85.563	-0.172	0.052
-140.472	0.682	-0.075	0.053
-139.458	-59.158	0.432	-0.183
-138.443	591.135	0.226	0.549
-137.429	78.171	0.154	0.161
-136.414	269.622	-0.102	-0.176
-135.399	-97.751	0.288	-0.073
-134.385	-90.205	-0.031	0.009
-133.370	459.456	-0.109	0.238
-132.356	33.842	0.120	0.103
-131.341	148.555	0.026	-0.034
-130.326	-94.774	-0.120	-0.032
-129.312	-200.000	0.064	0.315
-128.297	-200.000	0.001	0.198
-127.283	-11.892	0.339	0.219
-126.268	-118.245	-0.214	-0.037
-125.253	800.000	0.010	-0.040
-124.239	-200.000	0.061	-0.415
-123.224	564.731	-0.015	0.035
-122.210	-87.094	0.285	-0.085
-121.195	800.000	-0.040	-0.159
-120.180	218.339	0.115	0.180
-119.166	-99.898	-0.137	0.034
-118.151	190.040	0.231	0.340
-117.137	-167.901	0.269	0.010
-116.122	-24.373	-0.339	0.199
-115.107	1.629	-0.052	0.037
-114.093	177.772	0.110	-0.157
-113.078	-152.445	-0.307	-0.022
-112.064	205.065	0.090	0.138
-111.049	5.988	-0.137	0.100
-110.034	417.461	0.025	0.051
-109.020	-200.000	-0.016	0.160
-108.005	-51.659	-0.251	0.115
-106.991	435.443	0.100	-0.214
-105.976	-77.073	0.174	-0.060
-104.962	-87.968	-0.472	-0.139
-103.947	615.648	-0.169	0.416
-102.932	-200.000	-0.045	-0.314
-101.918	-71.261	-0.076	-0.028
-100.903	-158.649	0.271	-0.015
-99.889	45.090	-0.137	0.124
-98.874	-200.000	-0.014	0.151
-97.859	102.569	0.213	0.245
-96.845	-162.023	-0.177	-0.009
-95.830	259.515	0.036	0.061
-94.816	-78.724	0.177	-0.059
-93.801	-94.819	0.266	0.071
-92.786	221.280	-0.128	-0.202
-91.772	-200.000	-0.005	-0.135
-90.757	-155.801	0.272	0.017
-89.743	-102.341	0.318	0.075
-88.728	-200.000	0.058	-0.435
-87.713	-200.000	-0.010	-0.377
-86.699	-200.000	0.010	0.094
-85.684	27.151	-0.205	0.169
-84.670	-110.983	-0.320	-0.065
-83.655	-200.000	0.032	0.271
-82.640	83.632	0.140	0.150
-81.626	-11.588	-0.251	0.162
-80.611	11.209	0.111	-0.083
-79.597	-200.000	-0.008	0.248
-78.582	15.292	0.256	-0.197
-77.567	392.920	0.038	0.077
-76.553	-200.000	-0.039	-0.225
-75.538	207.018	-0.016	0.024
-74.524	-200.000	0.012	-0.157
-73.509	29.787	0.143	0.120
-72.494	146.707	0.135	0.178
-71.480	800.000	0.061	0.215
-70.465	-50.869	-0.111	0.051
-69.451	32.977	0.191	-0.162
-68.436	239.080	0.087	-0.142
-67.422	800.000	-0.030	0.089
-66.407	264.628	0.101	0.173
-65.392	-108.949	-0.142	0.030
-64.378	69.827	0.137	-0.139
-63.363	-200.000	0.092	-0.409
-62.349	-86.110	-0.070	0.021
-61.334	56.239	-1.104	-1.051
-60.319	57.505	0.411	0.394
-59.305	-200.000	-0.246	-1.192
-58.290	218.669	0.744	1.164
-57.276	800.000	0.435	1.584
-56.261	-200.000	106.716	619.306
-55.246	513.013	1513.549	3456.245
-54.232	174.735	2713.210	3846.228
-53.217	104.296	2299.617	2650.912
-52.203	38.425	1903.880	1662.088
-51.188	32.433	1690.217	1430.139
-50.173	29.932	1646.145	1374.256
-49.159	48.876	1700.994	1563.554
-48.144	48.968	1716.133	1578.098
-47.130	31.982	1673.136	1412.069
-46.115	29.348	1658.504	1379.984
-45.100	29.253	1653.574	1375.113
-44.086	29.124	1650.998	1371.960
-43.071	29.148	1648.114	1369.685
-42.057	29.029	1645.993	1366.983
-41.042	29.194	1643.605	1366.172
-40.027	29.091	1642.109	1364.111
-39.013	29.136	1639.879	1362.538
-37.998	29.110	1638.646	1361.264
-36.984	29.113	1637.522	1360.299
-35.969	29.215	1636.088	1359.808
-34.954	29.291	1633.754	1358.375
-33.940	29.311	1632.022	1357.030
-32.925	29.244	1630.248	1355.005
-31.911	29.273	1628.513	1353.724
-30.896	29.243	1627.420	1352.539
-29.881	29.216	1625.384	1350.594
-28.867	29.214	1623.980	1349.361
-27.852	29.168	1622.433	1347.684
-26.838	29.227	1620.626	1346.560
-25.823	29.273	1619.441	1345.858
-24.809	29.234	1618.292	1344.567
-23.794	29.240	1616.685	1343.225
-22.779	29.326	1615.345	1342.682
-21.765	29.292	1613.526	1340.873
-20.750	29.151	1612.166	1338.664
-19.736	29.296	1610.334	1338.139
-18.721	29.270	1608.863	1336.679
-17.706	29.285	1607.229	1335.374
-16.692	29.246	1605.961	1333.983
-15.677	29.327	1604.749	1333.509
-14.663	29.333	1603.620	1332.562
-13.648	29.372	1602.047	1331.487
-12.633	29.294	1600.533	1329.615
-11.619	29.286	1599.194	1328.388
-10.604	29.227	1597.683	1326.654
-9.590	29.229	1596.434	1325.584
-8.575	29.345	1595.159	1325.301
-7.560	29.324	1593.625	1323.827
-6.546	29.307	1593.237	1323.332
-5.531	29.334	1591.717	1322.206
-4.517	29.303	1590.879	1321.238
-3.502	29.263	1589.694	1319.916
-2.487	29.385	1588.136	1319.443
-1.473	28.989	1576.232	1306.688
-0.458	26.288	1556.810	1271.554
0.556	20.579	1557.937	1241.542
1.571	18.421	1582.995	1245.725
2.586	18.132	1596.201	1253.890
3.600	16.364	1543.578	1199.897
4.615	8.575	1434.018	1063.045
5.629	1.118	1370.686	968.496
6.644	-0.250	1362.754	954.116
7.659	-0.258	1361.376	953.011
8.673	-0.378	1360.242	951.376
9.688	-0.334	1358.416	950.291
10.702	-0.600	1355.583	946.543
11.717	2.792	1362.030	972.485
12.731	11.923	1379.594	1043.337
13.746	19.391	1391.352	1099.939
14.761	21.328	1394.135	1114.406
15.775	21.695	1394.054	1116.585
16.790	21.753	1393.650	1116.533
17.804	21.879	1392.649	1116.433
18.819	22.035	1392.869	1117.502
19.834	22.097	1392.050	1117.142
20.848	22.149	1391.263	1116.742
21.863	22.167	1390.528	1116.167
22.877	22.139	1389.398	1114.987
23.892	22.053	1389.003	1114.023
24.907	22.207	1387.759	1113.903
25.921	22.186	1386.845	1112.937
26.936	22.150	1385.879	1111.834
27.950	22.159	1385.155	1111.213
28.965	22.215	1383.974	1110.519
29.980	22.189	1382.265	1108.890
30.994	22.186	1381.614	1108.250
32.009	22.129	1380.863	1107.192
33.023	22.195	1379.269	1106.230
34.038	22.171	1377.994	1104.958
35.053	22.182	1376.915	1104.065
36.067	22.159	1375.760	1102.897
37.082	22.142	1375.159	1102.208
38.096	22.172	1373.994	1101.368
39.111	22.116	1373.593	1100.597
40.126	22.127	1372.992	1100.084
41.140	22.132	1372.337	1099.497
42.155	22.136	1371.967	1099.126
43.169	22.119	1371.966	1098.924
44.184	22.160	1371.593	1098.785
45.199	22.173	1370.890	1098.202
46.213	22.076	1370.847	1097.464
47.228	22.068	1370.079	1096.703
48.242	22.137	1368.288	1095.606
49.257	22.116	1367.131	1094.447
50.271	22.184	1365.439	1093.423
51.286	22.179	1364.307	1092.388
52.301	22.110	1363.144	1090.929
53.315	22.155	1361.772	1090.013
54.330	22.248	1361.207	1090.041
55.344	22.224	1359.887	1088.742
56.359	22.198	1358.748	1087.573
57.374	22.130	1358.527	1086.876
58.388	22.163	1357.564	1086.215
59.403	22.065	1357.525	1085.484
60.417	22.094	1356.658	1084.872
61.432	22.086	1355.960	1084.169
62.447	22.117	1354.916	1083.427
63.461	22.190	1353.886	1082.960
64.476	22.117	1352.798	1081.541
65.490	22.133	1351.968	1080.884
66.505	22.183	1350.222	1079.700
67.520	22.111	1349.504	1078.585
68.534	22.229	1348.112	1078.103
69.549	22.107	1347.387	1076.677
70.563	22.200	1346.095	1076.121
71.578	22.223	1344.848	1075.171
72.593	22.177	1344.604	1074.598
73.607	22.277	1343.631	1074.339
74.622	22.192	1342.868	1073.113
75.636	22.162	1342.294	1072.378
76.651	22.116	1341.850	1071.646
77.666	22.120	1341.137	1071.003
78.680	22.214	1340.321	1070.830
79.695	22.181	1339.640	1069.995
80.709	22.210	1338.714	1069.336
81.724	22.254	1337.771	1068.756
82.739	22.289	1336.710	1068.023
83.753	22.300	1335.315	1066.879
84.768	22.210	1334.724	1065.766
85.782	22.136	1333.644	1064.364
86.797	22.162	1332.718	1063.686
87.812	22.306	1331.199	1063.253
88.826	22.292	1330.045	1062.154
89.841	22.216	1329.257	1060.971
90.855	22.262	1328.394	1060.463
91.870	22.240	1327.520	1059.542
92.884	22.172	1326.734	1058.408
93.899	22.291	1325.876	1058.347
94.914	22.159	1325.746	1057.358
95.928	22.205	1324.370	1056.445
96.943	22.281	1323.725	1056.291
97.957	22.284	1322.535	1055.267
98.972	22.270	1321.804	1054.503
99.987	22.256	1321.101	1053.769
101.001	22.207	1319.816	1052.357
102.016	22.197	1319.315	1051.803
103.030	22.206	1318.075	1050.774
104.045	22.223	1317.562	1050.372
105.060	22.234	1316.414	1049.430
106.074	22.289	1315.365	1048.834
107.089	22.245	1314.178	1047.529
108.103	22.281	1312.876	1046.614
109.118	22.307	1311.774	1045.795
110.133	22.327	1310.685	1044.953
111.147	22.317	1309.432	1043.802
112.162	22.305	1307.925	1042.441
113.176	22.337	1306.960	1041.765
114.191	22.406	1306.275	1041.540
115.206	22.362	1305.355	1040.455
116.220	22.368	1304.361	1039.601
117.235	22.268	1303.494	1038.233
118.249	22.231	1302.644	1037.242
119.264	22.210	1301.827	1036.380
120.279	22.353	1300.928	1036.411
121.293	22.238	1300.035	1034.932
122.308	22.278	1299.104	1034.336
123.322	22.353	1297.941	1033.754
124.337	22.415	1296.871	1033.175
125.352	22.336	1296.350	1032.207
126.366	22.346	1295.683	1031.643
127.381	22.410	1294.344	1030.859
128.395	22.341	1293.797	1029.929
129.410	22.344	1292.959	1029.191
130.424	22.331	1292.596	1028.731
131.439	22.390	1291.666	1028.248
132.454	22.361	1290.584	1027.128
133.468	22.428	1289.453	1026.522
134.483	22.224	1289.338	1025.151
135.497	22.343	1288.203	1024.853
136.512	22.286	1286.852	1023.356
137.527	22.322	1285.826	1022.658
138.541	22.314	1284.807	1021.712
139.556	22.325	1283.447	1020.605
140.570	22.408	1282.543	1020.277
141.585	22.338	1281.515	1018.960
142.600	22.275	1280.421	1017.637
143.614	22.238	1279.604	1016.687
144.629	22.299	1278.690	1016.223
145.643	22.273	1277.918	1015.368
146.658	22.283	1276.806	1014.450
147.673	22.263	1275.558	1013.253
148.687	22.345	1274.551	1012.839
149.702	22.266	1273.801	1011.698
150.716	22.299	1272.271	1010.584
151.731	22.234	1271.735	1009.696
152.746	22.301	1270.596	1009.085
153.760	22.313	1269.458	1008.161
154.775	22.372	1267.861	1007.140
155.789	22.319	1267.633	1006.565
156.804	22.352	1266.397	1005.686
157.819	22.323	1265.614	1004.807
158.833	22.311	1265.084	1004.231
159.848	22.529	1263.600	1004.204
160.862	22.412	1263.433	1003.317
161.877	22.398	1262.212	1002.181
162.892	22.579	1261.288	1002.386
163.906	22.463	1260.660	1001.139
164.921	22.449	1260.196	1000.604
165.935	22.426	1259.514	999.845
166.950	22.616	1258.494	1000.025
167.964	22.491	1258.160	998.962
168.979	22.466	1257.471	998.185
169.994	22.547	1256.625	997.880
171.008	22.583	1256.019	997.514
172.023	22.407	1255.325	995.882
173.037	22.404	1255.058	995.562
174.052	22.473	1254.022	995.041
175.067	22.395	1253.188	993.854
176.081	22.482	1252.261	993.521
177.096	22.517	1251.545	993.060
178.110	22.467	1250.439	991.817
179.125	22.604	1249.366	991.650
180.140	22.670	1248.124	990.945
181.154	22.624	1246.949	989.667
182.169	22.543	1245.834	988.240
183.183	22.565	1245.538	988.039
184.198	22.518	1244.419	986.802
185.213	22.569	1242.874	985.773
186.227	22.654	1242.305	985.714
187.242	22.462	1241.809	984.156
188.256	22.630	1240.522	983.992
189.271	22.519	1239.820	982.726
190.286	22.607	1238.736	982.267
191.300	22.609	1238.695	982.161
192.315	22.531	1238.177	981.230
193.329	22.570	1237.848	981.101
194.344	22.626	1237.032	980.678
195.359	22.622	1236.650	980.262
196.373	22.476	1236.274	979.070
197.388	22.482	1235.732	978.586
198.402	22.585	1235.140	978.601
199.417	22.556	1234.947	978.200
200.432	22.600	1234.080	977.675
201.446	22.564	1233.635	977.033
202.461	22.649	1232.799	976.756
203.475	22.621	1231.701	975.648
204.490	22.567	1231.118	974.799
205.504	22.515	1230.356	973.824
206.519	22.547	1229.558	973.281
207.534	22.568	1228.213	972.244
208.548	22.623	1227.243	971.695
209.563	22.723	1226.609	971.655
210.577	22.665	1225.525	970.394
211.592	22.551	1224.952	969.229
212.607	22.687	1224.415	969.464
213.621	22.714	1222.956	968.372
214.636	22.722	1222.440	967.919
215.650	22.712	1221.561	967.085
216.665	22.742	1220.705	966.487
217.680	22.686	1220.033	965.560
218.694	22.745	1218.929	964.928
219.709	22.740	1218.827	964.730
220.723	22.800	1217.652	964.042
221.738	22.698	1217.073	962.945
222.753	22.635	1216.243	961.860
223.767	22.776	1215.865	962.241
224.782	22.896	1215.378	962.426
225.796	22.820	1214.579	961.294
226.811	22.800	1213.969	960.619
227.826	22.819	1213.371	960.162
228.840	22.871	1212.948	960.024
229.855	22.820	1212.656	959.432
230.869	22.888	1211.508	958.806
231.884	22.874	1210.518	957.864
232.899	22.802	1209.791	956.817
233.913	22.815	1209.422	956.505
234.928	22.904	1209.132	956.678
235.942	22.840	1208.359	955.634
236.957	22.829	1207.574	954.870
237.972	22.792	1206.678	953.878
238.986	22.773	1206.320	953.405
240.001	22.908	1205.759	953.607
241.015	22.974	1204.798	953.119
242.030	22.907	1204.595	952.514
243.045	22.913	1203.701	951.752
244.059	22.987	1202.691	951.268
245.074	22.897	1202.046	950.192
246.088	22.929	1201.139	949.562
247.103	23.021	1200.402	949.390
248.117	23.045	1199.316	948.573
249.132	22.916	1198.947	947.508
250.147	22.946	1198.152	946.956
251.161	23.006	1197.348	946.556
252.176	22.988	1196.236	945.499
253.190	23.107	1195.810	945.715
254.205	23.071	1195.198	944.953
255.220	22.910	1194.756	943.663
256.234	23.085	1194.363	944.199
257.249	23.143	1193.465	943.719
258.263	23.014	1193.389	942.885
259.278	22.987	1192.687	942.102
260.293	23.171	1191.668	942.198
261.307	23.085	1191.751	941.720
262.322	23.100	1190.633	940.832
263.336	23.100	1190.092	940.324
264.351	23.046	1189.713	939.654
265.366	23.168	1188.923	939.592
266.380	23.109	1188.206	938.628
267.395	23.060	1187.323	937.587
268.409	23.001	1187.270	937.150
269.424	23.083	1186.693	937.051
270.439	23.041	1186.176	936.335
271.453	23.130	1185.559	936.234
272.468	23.101	1184.169	934.900
273.482	23.124	1183.608	934.499
274.497	23.122	1183.089	933.994
275.512	23.249	1182.180	933.867
276.526	23.137	1182.047	933.083
277.541	23.142	1181.556	932.641
278.555	23.226	1180.658	932.292
279.570	23.286	1180.285	932.235
280.585	23.222	1179.228	930.980
281.599	23.224	1177.645	929.659
282.614	23.302	1177.254	929.677
283.628	23.216	1176.589	928.614
284.643	23.210	1175.528	927.668
285.657	23.285	1174.521	927.183
286.672	23.301	1173.733	926.559
287.687	23.342	1173.284	926.337
288.701	23.384	1172.545	925.891
289.716	23.295	1172.070	924.969
290.730	23.384	1171.321	924.763
291.745	23.248	1170.595	923.397
292.760	23.323	1169.768	923.055
293.774	23.357	1169.731	923.121
294.789	23.353	1168.880	922.349
295.803	23.375	1168.091	921.756
296.818	23.381	1167.712	921.408
297.833	23.421	1167.102	921.055
298.847	23.432	1166.281	920.382
299.862	23.487	1165.179	919.714
300.876	23.382	1164.643	918.667
301.891	23.403	1164.430	918.527
302.906	23.550	1163.840	918.742
303.920	23.447	1163.160	917.588
304.935	23.456	1162.731	917.218
305.949	23.417	1161.696	916.119
306.964	23.622	1160.840	916.419
307.979	23.563	1160.583	915.831
308.993	23.509	1159.956	914.976
310.008	23.509	1159.436	914.484
311.022	23.523	1158.489	913.731
312.037	23.647	1157.587	913.574
313.052	23.632	1156.424	912.502
314.066	23.645	1155.366	911.653
315.081	23.587	1154.940	910.936
316.095	23.638	1154.574	910.827
317.110	23.515	1153.999	909.664
318.125	23.649	1153.336	909.750
319.139	23.525	1153.030	908.790
320.154	23.605	1152.197	908.462
321.168	23.592	1151.513	907.779
322.183	23.633	1150.953	907.467
323.197	23.678	1150.356	907.141
324.212	23.661	1150.144	906.807
325.227	23.614	1149.179	905.730
326.241	23.694	1148.598	905.597
327.256	23.642	1148.219	904.952
328.270	23.694	1147.215	904.346
329.285	23.641	1146.601	903.512
330.300	23.810	1145.205	903.193
331.314	23.751	1144.720	902.432
332.329	23.701	1144.095	901.603
333.343	23.832	1143.115	901.416
334.358	23.828	1142.336	900.702
335.373	23.618	1142.262	899.502
336.387	23.802	1141.022	899.377
337.402	23.797	1140.406	898.784
338.416	23.842	1139.997	898.611
339.431	23.950	1139.042	898.325
340.446	23.883	1138.469	897.455
341.460	23.816	1138.499	897.061
342.475	24.001	1137.265	896.941
343.489	23.954	1136.043	895.661
344.504	23.883	1135.180	894.544
345.519	23.859	1134.417	893.744
346.533	23.920	1133.839	893.513
347.548	23.992	1133.029	893.158
348.562	23.969	1132.222	892.330
349.577	23.904	1131.496	891.354
350.592	23.840	1131.144	890.677
351.606	23.851	1129.968	889.724
352.621	23.900	1129.878	889.819
353.635	23.925	1129.203	889.339
354.650	23.953	1128.397	888.762
355.665	24.038	1127.703	888.563
356.679	23.962	1127.399	887.866
357.694	23.977	1127.212	887.713
358.708	24.054	1125.953	887.027
359.723	23.938	1125.433	885.959
360.738	24.078	1124.771	886.057
361.752	24.040	1124.138	885.292
362.767	24.005	1123.827	884.792
363.781	24.122	1123.172	884.780
364.796	24.162	1122.738	884.559
365.810	24.131	1121.776	883.569
366.825	24.194	1120.925	883.135
367.840	24.299	1120.655	883.362
368.854	24.201	1120.280	882.503
369.869	24.166	1119.335	881.509
370.883	24.219	1118.421	880.973
371.898	24.122	1117.938	880.038
372.913	24.272	1117.314	880.208
373.927	24.230	1116.986	879.661
374.942	24.211	1116.513	879.121
375.956	24.200	1116.096	878.661
376.971	24.429	1115.549	879.277
377.986	24.327	1114.733	878.056
379.000	24.276	1114.487	877.535
380.015	24.389	1113.926	877.571
381.029	24.226	1113.101	876.043
382.044	24.331	1112.290	875.842
383.059	24.449	1111.589	875.788
384.073	24.311	1111.067	874.625
385.088	24.398	1109.897	874.055
386.102	24.410	1109.210	873.491
387.117	24.314	1108.749	872.584
388.132	24.274	1107.871	871.620
389.146	24.384	1107.214	871.561
390.161	24.320	1106.331	870.477
391.175	24.400	1105.514	870.148
392.190	24.373	1105.278	869.755
393.205	24.459	1104.387	869.393
394.219	24.447	1103.746	868.754
395.234	24.457	1102.999	868.137
396.248	24.561	1101.981	867.765
397.263	24.414	1101.023	866.222
398.278	24.546	1100.507	866.377
399.292	24.487	1099.899	865.540
400.307	24.621	1099.176	865.539
401.321	24.556	1098.593	864.693
402.336	24.569	1098.009	864.218
403.350	24.560	1097.584	863.764
404.365	24.578	1097.082	863.380
405.380	24.670	1095.874	862.797
406.394	24.627	1095.252	862.022
407.409	24.733	1094.607	861.947
408.423	24.655	1094.005	861.022
409.438	24.690	1093.153	860.443
410.453	24.660	1092.606	859.796
411.467	24.756	1091.841	859.577
412.482	24.684	1090.920	858.431
413.496	24.743	1089.909	857.844
414.511	24.784	1089.950	857.994
415.526	24.701	1089.700	857.325
416.540	24.798	1089.076	857.223
417.555	24.799	1088.101	856.386
418.569	24.755	1087.764	855.831
419.584	24.809	1087.415	855.739
420.599	24.672	1087.238	854.870
421.613	148.727	1402.520	1799.804
422.628	137.532	1448.411	1799.883
