DTS Sentinel unit serial number:	SN413079Multiplexer serial number:	ORYXHardware model number:	OX4-SRSoftware version number:	ORYX F/W v4.00 Oryx Data Collector v3.7.2.0data status	okinstallation	princeton_trtdifferential loss correction	single-endedforward channel	channel 2reverse channel	N/Adate	2019/09/18time	03:51:35forward acquisition time	60.00reverse acquisition time	0.00gamma	496.2192k internal	0.2349k external	0.2349temperature offset calibration	0.9982default loss term (dB/km)	0.3790temperature slope calibration	1.0000multiplexer offset coefficient	1.0000multiplexer slope coefficient	1.0000fibre end	0.00T internal ref (°C)	23.05T ext. ref 1 (°C)	0.17T ext. ref 2 (°C)	18.05length (m)	temperature (°C)	Stokes	anti-Stokes-747.200	-107.901	-0.267	0.058
-746.185	581.826	0.094	-0.231
-745.171	800.000	-0.095	-0.392
-744.156	-64.409	-0.308	0.125
-743.142	-80.105	-0.059	0.020
-742.127	-200.000	0.004	0.263
-741.112	800.000	0.066	0.264
-740.098	93.884	0.130	0.148
-739.083	-166.890	0.341	-0.014
-738.069	-153.238	-0.114	0.008
-737.054	135.124	-0.085	-0.110
-736.039	-34.874	-0.210	0.114
-735.025	631.631	0.134	0.340
-734.010	-67.767	-0.280	-0.110
-732.996	-66.255	-0.249	-0.099
-731.981	80.683	0.156	0.168
-730.966	88.322	0.090	-0.099
-729.952	19.560	-0.170	0.136
-728.937	36.822	0.120	-0.106
-727.923	-41.042	-0.133	-0.069
-726.908	-200.000	-0.002	0.069
-725.894	24.290	-0.164	-0.136
-724.879	-9.607	-0.184	0.122
-723.864	728.229	0.132	-0.352
-722.850	-30.145	-0.257	-0.146
-721.835	-91.765	0.290	0.082
-720.821	-9.773	-0.388	-0.258
-719.806	695.796	-0.124	-0.324
-718.791	191.366	-0.209	-0.314
-717.777	-200.000	0.135	-0.000
-716.762	768.975	-0.106	-0.287
-715.748	-192.312	-0.260	-0.002
-714.733	-146.775	-0.303	-0.026
-713.718	87.518	0.106	-0.117
-712.704	-81.184	-0.136	-0.045
-711.689	-200.000	0.025	0.271
-710.675	86.013	-0.080	-0.088
-709.660	800.000	-0.037	0.126
-708.645	-114.194	0.231	-0.045
-707.631	118.571	-0.323	-0.398
-706.616	-7.488	-0.039	0.026
-705.602	122.670	0.040	-0.050
-704.587	-148.113	-0.190	0.016
-703.572	136.102	0.061	0.079
-702.558	-53.297	0.098	0.045
-701.543	446.084	-0.143	0.313
-700.529	663.792	-0.066	0.171
-699.514	-178.251	-0.073	-0.002
-698.499	45.792	0.090	0.083
-697.485	-0.873	-0.226	0.160
-696.470	100.388	0.162	-0.187
-695.456	-112.315	-0.385	0.077
-694.441	-66.545	-0.039	-0.015
-693.426	-93.294	0.182	0.050
-692.412	-97.497	0.449	0.116
-691.397	-114.842	0.136	-0.026
-690.383	25.502	0.108	0.089
-689.368	-51.260	-0.166	-0.078
-688.354	-6.092	0.185	-0.126
-687.339	85.774	0.126	-0.138
-686.324	232.215	-0.037	-0.061
-685.310	-200.000	-0.004	0.206
-684.295	-85.612	-0.107	-0.033
-683.281	-82.351	0.115	-0.037
-682.266	-112.280	0.133	-0.027
-681.251	-61.679	0.225	-0.094
-680.237	-19.657	-0.167	-0.103
-679.222	90.078	0.124	0.138
-678.208	-68.436	-0.158	0.061
-677.193	-144.503	-0.175	-0.016
-676.178	-41.224	-0.254	-0.131
-675.164	800.000	-0.037	0.114
-674.149	-200.000	0.026	0.292
-673.135	-5.112	-0.195	-0.134
-672.120	-111.220	0.131	0.027
-671.105	-15.006	-0.106	0.067
-670.091	-109.852	-0.212	-0.044
-669.076	800.000	-0.054	-0.227
-668.062	-14.971	0.240	-0.153
-667.047	-59.267	-0.057	0.025
-666.032	49.616	-0.112	-0.105
-665.018	54.315	-0.113	0.108
-664.003	-59.281	0.348	0.149
-662.989	69.926	-0.085	0.088
-661.974	264.090	0.151	0.262
-660.959	-14.308	-0.263	-0.169
-659.945	-200.000	0.055	-0.272
-658.930	-200.000	-0.027	0.171
-657.916	48.721	-0.265	0.247
-656.901	-75.904	-0.072	-0.025
-655.886	-162.013	-0.321	0.016
-654.872	-139.092	-0.096	-0.010
-653.857	689.075	0.095	-0.248
-652.843	-41.310	-0.309	0.159
-651.828	-78.055	0.111	-0.038
-650.814	-200.000	0.004	-0.256
-649.799	800.000	-0.060	0.225
-648.784	-155.789	-0.463	-0.029
-647.770	-200.000	0.008	-0.052
-646.755	252.251	0.163	-0.277
-645.741	-57.326	-0.237	0.104
-644.726	81.354	-0.174	0.187
-643.711	800.000	0.198	0.545
-642.697	-145.533	0.316	-0.028
-641.682	-200.000	0.003	0.071
-640.668	39.045	-0.147	-0.130
-639.653	383.218	-0.079	-0.162
-638.638	98.364	-0.268	-0.308
-637.624	-200.000	0.065	-0.407
-636.609	130.036	0.163	0.207
-635.595	-126.631	-0.044	0.006
-634.580	-51.681	0.100	-0.046
-633.565	-59.167	0.174	0.075
-632.551	-95.978	0.280	0.074
-631.536	800.000	0.090	-0.280
-630.522	-128.735	0.118	-0.017
-629.507	-105.918	-0.353	-0.079
-628.492	-75.897	0.316	0.111
-627.478	36.628	-0.086	-0.076
-626.463	27.626	0.255	0.214
-625.449	-92.729	0.079	-0.022
-624.434	-200.000	-0.021	-0.115
-623.419	-200.000	0.033	-0.179
-622.405	21.006	-0.205	-0.165
-621.390	-10.450	-0.203	-0.134
-620.376	475.087	0.167	-0.375
-619.361	286.117	0.049	0.089
-618.346	-200.000	-0.023	-0.213
-617.332	-61.218	-0.205	0.086
-616.317	97.362	-0.153	-0.175
-615.303	-200.000	-0.037	-0.192
-614.288	232.236	-0.203	0.331
-613.273	-200.000	0.032	0.163
-612.259	-200.000	0.004	-0.235
-611.244	-83.738	-0.110	-0.035
-610.230	525.972	0.033	-0.078
-609.215	800.000	0.018	-0.063
-608.201	-200.000	-0.006	0.101
-607.186	-114.293	-0.321	-0.061
-606.171	-200.000	0.023	-0.304
-605.157	-80.302	0.365	0.121
-604.142	-116.672	-0.087	-0.016
-603.128	147.252	0.104	-0.139
-602.113	-165.594	-0.067	0.003
-601.098	-76.381	0.232	-0.081
-600.084	125.910	0.075	-0.094
-599.069	212.101	0.145	0.227
-598.055	580.748	-0.021	-0.052
-597.040	42.543	0.121	-0.109
-596.025	19.183	0.218	-0.174
-595.011	-61.040	-0.054	-0.023
-593.996	-48.121	0.062	-0.030
-592.982	-200.000	-0.013	0.304
-591.967	20.252	-0.199	-0.160
-590.952	-79.797	-0.217	-0.072
-589.938	649.209	-0.093	-0.237
-588.923	-112.661	0.307	-0.061
-587.909	659.814	0.089	0.228
-586.894	-36.131	-0.192	-0.103
-585.879	-200.000	-0.054	0.252
-584.865	-82.851	0.365	-0.117
-583.850	-69.185	-0.272	0.104
-582.836	-200.000	0.024	-0.238
-581.821	800.000	0.019	0.057
-580.806	9.336	0.191	-0.143
-579.792	112.145	0.197	-0.236
-578.777	-126.901	-0.226	-0.033
-577.763	36.690	0.037	-0.032
-576.748	503.804	0.035	-0.080
-575.733	-200.000	0.020	-0.205
-574.719	167.792	0.112	0.158
-573.704	-85.848	-0.092	-0.028
-572.690	-80.490	-0.146	-0.048
-571.675	16.231	0.103	0.080
-570.661	-46.128	-0.221	0.108
-569.646	-77.012	0.233	0.081
-568.631	159.522	0.226	-0.312
-567.617	11.220	0.076	-0.057
-566.602	-156.433	0.097	0.006
-565.588	-87.890	-0.261	-0.078
-564.573	225.193	0.144	0.232
-563.558	-8.256	-0.146	-0.098
-562.544	-38.711	-0.064	0.033
-561.529	-200.000	-0.043	-0.191
-560.515	-140.001	-0.307	-0.032
-559.500	63.414	-0.293	-0.291
-558.485	-126.605	0.116	0.017
-557.471	-200.000	0.004	-0.183
-556.456	-58.869	0.256	-0.110
-555.442	-42.170	0.136	0.069
-554.427	-113.678	-0.145	0.028
-553.412	285.231	-0.081	-0.144
-552.398	-5.647	0.306	-0.208
-551.383	-200.000	0.020	-0.211
-550.369	-14.012	0.245	-0.157
-549.354	-200.000	-0.018	-0.235
-548.339	137.319	-0.127	-0.164
-547.325	322.106	0.109	-0.205
-546.310	-200.000	-0.023	-0.203
-545.296	800.000	0.108	0.298
-544.281	135.313	0.127	-0.163
-543.266	308.310	-0.237	0.439
-542.252	-5.034	-0.087	-0.060
-541.237	764.789	0.115	-0.310
-540.223	176.531	-0.209	0.301
-539.208	-200.000	-0.013	0.219
-538.193	89.940	0.095	0.106
-537.179	-124.294	0.166	0.026
-536.164	-180.743	0.259	-0.005
-535.150	-156.836	0.381	-0.023
-534.135	-53.097	-0.233	-0.106
-533.121	-77.419	-0.155	0.053
-532.106	743.378	0.066	0.176
-531.091	106.576	0.116	-0.137
-530.077	-136.269	-0.380	0.044
-529.062	-200.000	-0.001	0.059
-528.048	-106.409	0.251	-0.056
-527.033	194.301	0.140	0.211
-526.018	-200.000	-0.013	-0.093
-525.004	-126.628	-0.208	0.030
-523.989	800.000	0.111	0.419
-522.975	361.075	0.103	0.205
-521.960	-57.991	0.097	-0.042
-520.945	102.508	0.089	0.104
-519.931	-200.000	0.027	-0.158
-518.916	262.817	-0.071	-0.123
-517.902	-107.798	0.137	-0.030
-516.887	136.617	0.044	0.057
-515.872	-187.802	0.145	0.002
-514.858	112.120	0.065	0.078
-513.843	-29.500	0.222	0.126
-512.829	285.679	-0.284	-0.507
-511.814	301.088	-0.151	0.275
-510.799	100.341	-0.161	0.185
-509.785	53.237	-0.103	-0.097
-508.770	202.767	-0.259	-0.396
-507.756	-1.543	-0.066	0.046
-506.741	97.393	-0.326	0.370
-505.726	-34.233	-0.079	0.043
-504.712	-200.000	-0.060	-0.369
-503.697	-11.658	0.133	0.086
-502.683	-188.397	-0.602	0.007
-501.668	143.335	-0.210	0.276
-500.653	327.542	0.160	0.303
-499.639	800.000	-0.038	-0.125
-498.624	-67.796	-0.307	-0.119
-497.610	-69.780	-0.261	-0.099
-496.595	-74.839	-0.225	0.080
-495.581	-54.727	0.251	-0.112
-494.566	800.000	0.032	-0.106
-493.551	-143.408	-0.194	0.018
-492.537	-200.000	-0.069	-0.305
-491.522	-35.950	-0.240	-0.129
-490.508	-18.197	0.203	0.125
-489.493	366.405	-0.172	-0.344
-488.478	438.819	0.165	-0.356
-487.464	-91.429	-0.374	-0.106
-486.449	-200.000	0.034	-0.195
-485.435	-24.128	0.127	-0.075
-484.420	-26.947	0.308	-0.178
-483.405	-19.120	-0.099	0.061
-482.391	-111.805	0.432	0.086
-481.376	293.803	0.224	-0.405
-480.362	257.074	-0.075	-0.127
-479.347	800.000	0.042	0.160
-478.332	-200.000	-0.008	-0.101
-477.318	-66.638	0.113	0.044
-476.303	683.839	0.074	-0.190
-475.289	-111.480	0.337	0.068
-474.274	547.878	-0.047	-0.112
-473.259	-38.011	0.243	0.127
-472.245	-200.000	-0.011	-0.104
-471.230	293.482	0.116	0.210
-470.216	225.164	-0.052	0.083
-469.201	-77.621	-0.093	0.032
-468.186	-9.509	-0.142	0.094
-467.172	-13.238	0.446	-0.286
-466.157	800.000	-0.027	0.079
-465.143	-32.208	-0.285	-0.158
-464.128	205.042	-0.111	0.170
-463.113	31.063	0.139	0.118
-462.099	259.633	-0.184	0.314
-461.084	82.764	0.117	0.125
-460.070	272.876	0.060	-0.105
-459.055	51.368	0.257	0.241
-458.040	-85.880	-0.209	-0.064
-457.026	-151.665	0.079	0.006
-456.011	800.000	0.071	0.276
-454.997	175.147	0.039	0.055
-453.982	-113.742	-0.450	0.087
-452.968	-200.000	-0.009	-0.196
-451.953	800.000	0.011	-0.038
-450.938	342.294	-0.107	-0.207
-449.924	-17.970	-0.389	-0.240
-448.909	108.165	-0.026	-0.031
-447.895	-134.199	-0.096	0.012
-446.880	33.305	-0.049	0.042
-445.865	403.936	-0.126	0.261
-444.851	-63.360	-0.225	0.092
-443.836	531.013	0.107	0.250
-442.822	-86.534	-0.138	-0.042
-441.807	696.135	-0.046	0.118
-440.792	0.744	-0.196	-0.139
-439.778	-51.662	-0.289	-0.133
-438.763	241.243	-0.194	-0.320
-437.749	206.874	0.210	0.324
-436.734	-103.580	-0.170	0.039
-435.719	342.801	0.131	-0.253
-434.705	-77.055	-0.414	0.142
-433.690	102.996	-0.200	0.231
-432.676	-200.000	0.025	-0.170
-431.661	260.260	0.123	-0.210
-430.646	-151.997	-0.211	-0.015
-429.632	74.948	-0.187	0.195
-428.617	-38.120	-0.109	-0.057
-427.603	-34.809	-0.367	0.198
-426.588	48.116	0.187	-0.172
-425.573	194.009	0.112	0.168
-424.559	800.000	-0.075	-0.223
-423.544	312.013	-0.100	-0.185
-422.530	800.000	0.038	0.165
-421.515	696.653	0.135	0.351
-420.500	-107.628	-0.158	-0.034
-419.486	471.293	0.112	-0.248
-418.471	800.000	0.097	0.373
-417.457	-131.262	0.355	-0.046
-416.442	-58.890	0.251	-0.107
-415.428	-200.000	-0.001	0.008
-414.413	123.117	-0.157	-0.194
-413.398	196.535	0.150	0.225
-412.384	288.034	-0.121	-0.216
-411.369	431.415	-0.092	-0.197
-410.355	-125.424	0.247	0.037
-409.340	26.767	0.022	-0.018
-408.325	800.000	0.008	-0.029
-407.311	-200.000	0.052	-0.229
-406.296	408.148	-0.047	-0.098
-405.282	-159.607	-0.289	0.016
-404.267	800.000	-0.083	0.258
-403.252	-200.000	0.011	0.082
-402.238	-63.403	0.316	0.128
-401.223	-16.545	0.088	-0.055
-400.209	-85.987	0.274	0.084
-399.194	-130.313	-0.127	-0.017
-398.179	-200.000	-0.191	0.000
-397.165	-105.985	-0.226	-0.050
-396.150	209.861	0.048	-0.074
-395.136	-58.751	0.296	-0.126
-394.121	36.375	-0.233	0.202
-393.106	23.374	-0.291	-0.236
-392.092	-28.916	0.107	0.061
-391.077	467.659	-0.103	-0.227
-390.063	525.410	-0.091	0.212
-389.048	-58.382	0.252	-0.108
-388.033	800.000	-0.180	-0.494
-387.019	-36.227	0.018	0.010
-386.004	3.302	0.126	-0.090
-384.990	21.140	-0.349	-0.279
-383.975	350.157	0.041	0.081
-382.960	94.303	0.274	-0.306
-381.946	-126.548	0.232	0.034
-380.931	11.632	-0.209	0.158
-379.917	-200.000	0.097	-0.452
-378.902	-111.657	-0.441	0.088
-377.888	-104.327	0.427	0.097
-376.873	181.519	-0.051	-0.074
-375.858	350.764	-0.158	0.308
-374.844	32.382	0.236	0.201
-373.829	288.815	-0.107	0.191
-372.815	27.580	-0.254	0.211
-371.800	313.026	-0.210	-0.388
-370.785	-137.643	-0.284	0.032
-369.771	-108.326	0.141	0.030
-368.756	-200.000	-0.005	0.190
-367.742	512.287	-0.107	-0.246
-366.727	800.000	-0.071	-0.260
-365.712	17.301	-0.055	0.043
-364.698	800.000	0.055	0.215
-363.683	-16.376	-0.080	0.050
-362.669	532.819	0.134	0.311
-361.654	-69.803	-0.267	0.100
-360.639	-200.000	-0.050	0.339
-359.625	-95.881	0.287	0.075
-358.610	52.844	0.092	0.087
-357.596	150.862	-0.035	0.047
-356.581	800.000	0.073	0.270
-355.566	-63.452	0.231	0.093
-354.552	-63.830	0.054	0.022
-353.537	-49.414	0.169	-0.079
-352.523	40.817	-0.252	0.224
-351.508	800.000	0.043	0.130
-350.493	-107.604	0.226	0.049
-349.479	-200.000	-0.225	0.000
-348.464	-77.352	-0.323	0.111
-347.450	-178.420	-0.108	0.002
-346.435	-112.853	0.200	0.039
-345.420	347.325	0.212	-0.410
-344.406	-124.674	-0.200	-0.030
-343.391	-44.748	-0.399	0.196
-342.377	-200.000	-0.023	0.105
-341.362	-30.781	-0.200	0.111
-340.348	247.899	0.096	0.159
-339.333	251.532	-0.172	-0.288
-338.318	-200.000	-0.017	-0.101
-337.304	-35.026	0.160	-0.086
-336.289	-155.160	-0.110	0.007
-335.275	-200.000	-0.019	0.153
-334.260	309.842	-0.060	0.110
-333.245	615.346	0.122	-0.301
-332.231	137.284	-0.156	-0.201
-331.216	-200.000	0.001	0.326
-330.202	-25.843	-0.187	-0.108
-329.187	240.048	-0.189	-0.309
-328.172	157.715	-0.218	0.297
-327.158	532.686	0.073	0.170
-326.143	-153.038	-0.156	-0.011
-325.129	109.192	-0.134	0.157
-324.114	-200.000	0.048	0.292
-323.099	800.000	0.074	-0.231
-322.085	21.012	0.079	0.063
-321.070	574.504	-0.069	-0.165
-320.056	95.553	0.054	0.061
-319.041	-124.574	-0.072	-0.011
-318.026	800.000	0.062	0.205
-317.012	9.020	0.181	-0.134
-315.997	-200.000	-0.029	0.147
-314.983	-148.067	0.396	0.032
-313.968	-89.747	0.176	0.051
-312.953	153.917	-0.224	0.302
-311.939	28.458	0.103	0.085
-310.924	-200.000	-0.005	0.168
-309.910	-200.000	0.000	-0.136
-308.895	-1.587	0.334	0.231
-307.880	402.741	-0.118	0.244
-306.866	-113.886	0.163	0.031
-305.851	-124.331	0.206	0.032
-304.837	-200.000	-0.028	0.176
-303.822	131.645	0.038	0.048
-302.807	-33.672	-0.210	0.114
-301.793	-2.765	0.228	-0.156
-300.778	-189.712	0.352	0.004
-299.764	-200.000	-0.012	-0.204
-298.749	11.712	-0.064	0.048
-297.735	127.595	0.091	-0.113
-296.720	121.193	-0.038	0.046
-295.705	-162.949	0.157	0.007
-294.691	-153.953	0.123	0.008
-293.676	216.512	-0.218	0.340
-292.662	-68.805	-0.141	-0.053
-291.647	-60.318	0.155	0.065
-290.632	800.000	0.110	0.392
-289.618	124.499	-0.177	-0.219
-288.603	800.000	-0.169	0.490
-287.589	28.599	-0.154	-0.128
-286.574	-90.219	0.319	0.091
-285.559	-96.620	0.111	0.029
-284.545	-200.000	-0.046	0.205
-283.530	-42.578	0.289	0.144
-282.516	-77.581	0.062	-0.021
-281.501	-167.802	0.362	-0.014
-280.486	282.804	-0.269	0.474
-279.472	395.203	-0.038	0.078
-278.457	-112.362	-0.012	-0.002
-277.443	146.124	-0.136	-0.179
-276.428	117.400	-0.045	-0.054
-275.413	239.418	0.122	-0.199
-274.399	185.921	0.040	-0.058
-273.384	-56.972	-0.192	-0.083
-272.370	-83.441	0.219	0.069
-271.355	-63.713	-0.055	0.022
-270.340	-94.591	0.055	0.015
-269.326	800.000	-0.023	0.073
-268.311	459.282	0.111	0.242
-267.297	-149.495	0.181	-0.014
-266.282	64.930	-0.279	-0.276
-265.267	117.671	0.293	-0.353
-264.253	105.985	-0.018	0.021
-263.238	800.000	-0.083	0.243
-262.224	95.937	-0.148	-0.165
-261.209	225.004	0.226	0.358
-260.195	-110.946	0.320	0.064
-259.180	203.725	0.059	-0.089
-258.165	12.180	0.352	0.266
-257.151	654.880	0.058	-0.145
-256.136	68.974	-0.175	-0.176
-255.122	7.441	-0.091	0.066
-254.107	649.848	0.043	-0.108
-253.092	69.889	-0.121	-0.122
-252.078	75.020	0.123	0.127
-251.063	-121.032	0.106	0.017
-250.049	-200.000	-0.051	-0.311
-249.034	-85.632	0.097	0.030
-248.019	-63.354	-0.465	-0.187
-247.005	-200.000	0.025	-0.321
-245.990	25.108	-0.081	-0.066
-244.976	-67.264	0.098	0.038
-243.961	-54.250	0.128	-0.057
-242.946	39.705	-0.009	0.008
-241.932	35.175	-0.192	0.165
-240.917	51.300	-0.047	-0.044
-239.903	236.235	-0.189	-0.306
-238.888	-77.240	-0.332	0.113
-237.873	-93.182	0.333	-0.091
-236.859	142.849	-0.145	0.189
-235.844	-179.332	-0.100	0.002
-234.830	43.029	0.193	0.172
-233.815	-35.640	-0.244	0.129
-232.800	375.142	0.129	0.257
-231.786	-59.724	-0.091	0.038
-230.771	-1.559	-0.292	0.201
-229.757	-79.612	-0.233	0.077
-228.742	31.862	0.177	0.150
-227.727	-183.358	-0.255	-0.004
-226.713	-200.000	-0.024	0.238
-225.698	-153.034	-0.212	-0.015
-224.684	457.552	0.165	-0.358
-223.669	125.172	0.105	0.129
-222.655	-168.979	-0.196	0.007
-221.640	-65.133	-0.162	-0.064
-220.625	800.000	0.010	-0.041
-219.611	96.911	0.221	-0.248
-218.596	-61.812	0.119	0.049
-217.582	-140.147	-0.226	0.023
-216.567	50.059	0.267	-0.246
-215.552	-87.322	-0.267	-0.079
-214.538	800.000	0.058	0.224
-213.523	205.009	0.085	-0.129
-212.509	-113.727	0.220	0.042
-211.494	-112.314	-0.287	0.056
-210.479	27.185	-0.048	-0.039
-209.465	-16.258	-0.132	-0.082
-208.450	62.760	-0.242	-0.237
-207.436	204.530	-0.140	0.213
-206.421	-54.553	-0.133	-0.059
-205.406	-200.000	0.026	-0.437
-204.392	675.482	0.013	0.034
-203.377	-200.000	0.001	0.231
-202.363	-200.000	-0.017	-0.077
-201.348	192.439	0.154	0.228
-200.333	154.930	0.062	0.083
-199.319	69.368	-0.222	0.223
-198.304	800.000	0.096	0.311
-197.290	-27.487	-0.191	-0.109
-196.275	-16.084	0.300	-0.187
-195.260	-179.869	0.365	0.008
-194.246	-184.471	0.116	0.002
-193.231	-64.397	0.190	0.076
-192.217	47.759	-0.104	-0.095
-191.202	800.000	-0.119	0.344
-190.187	29.633	0.272	0.226
-189.173	-65.469	0.256	-0.100
-188.158	153.423	0.018	0.024
-187.144	656.807	-0.099	-0.247
-186.129	551.127	0.082	0.192
-185.114	-74.167	0.190	0.067
-184.100	28.001	-0.124	0.102
-183.085	349.767	-0.093	0.180
-182.071	-87.280	0.406	0.120
-181.056	542.268	-0.064	0.148
-180.042	795.340	0.142	-0.381
-179.027	800.000	0.057	0.191
-178.012	-200.000	0.158	-0.001
-176.998	617.048	-0.053	0.131
-175.983	12.357	0.126	-0.095
-174.969	-200.000	-0.027	-0.231
-173.954	-200.000	0.006	0.033
-172.939	96.395	0.240	-0.268
-171.925	-66.195	0.374	-0.146
-170.910	228.593	0.141	-0.225
-169.896	-85.411	0.154	0.047
-168.881	-40.450	0.137	0.070
-167.866	-3.236	0.292	0.199
-166.852	407.989	0.184	0.381
-165.837	6.456	0.252	0.182
-164.823	800.000	0.043	-0.135
-163.808	68.897	-0.137	-0.138
-162.793	800.000	0.074	0.224
-161.779	-200.000	-0.059	0.369
-160.764	2.442	0.221	0.156
-159.750	-96.130	0.114	0.030
-158.735	95.131	-0.123	0.136
-157.720	-200.000	-0.001	0.159
-156.706	250.332	0.033	-0.054
-155.691	130.973	-0.193	-0.242
-154.677	-79.319	-0.205	-0.068
-153.662	-54.448	0.202	-0.089
-152.647	-100.379	0.075	0.018
-151.633	-173.440	-0.193	0.006
-150.618	-70.259	-0.293	0.109
-149.604	-63.317	0.185	-0.074
-148.589	236.163	0.087	-0.141
-147.574	-0.270	-0.205	0.142
-146.560	800.000	0.097	0.377
-145.545	-200.000	-0.033	0.181
-144.531	-42.380	0.086	0.043
-143.516	-56.617	-0.224	0.097
-142.502	-134.648	0.209	0.025
-141.487	-109.727	0.290	0.060
-140.472	-95.411	0.373	-0.098
-139.458	-200.000	0.015	0.164
-138.443	292.932	0.073	-0.129
-137.429	263.073	-0.284	0.481
-136.414	133.033	-0.150	0.189
-135.399	800.000	0.038	-0.110
-134.385	-7.403	0.205	0.135
-133.370	701.990	0.082	0.210
-132.356	5.616	-0.082	0.059
-131.341	800.000	0.031	0.091
-130.326	-200.000	-0.058	-0.313
-129.312	-200.000	0.042	-0.209
-128.297	-200.000	-0.051	-0.264
-127.283	800.000	0.052	-0.211
-126.268	61.476	-0.117	-0.113
-125.253	800.000	0.055	0.231
-124.239	-24.167	0.095	-0.055
-123.224	-200.000	-0.031	0.154
-122.210	-25.350	0.103	0.059
-121.195	-200.000	0.008	0.080
-120.180	-47.301	-0.175	0.083
-119.166	60.858	0.253	-0.245
-118.151	-86.123	0.076	-0.023
-117.137	-177.096	-0.228	0.006
-116.122	800.000	-0.043	0.147
-115.107	-80.184	-0.180	0.059
-114.093	48.721	-0.313	0.286
-113.078	-7.300	0.195	-0.129
-112.064	-200.000	0.035	-0.202
-111.049	-5.101	0.191	0.128
-110.034	333.441	0.068	0.128
-109.020	-99.148	0.131	0.032
-108.005	-200.000	-0.009	-0.095
-106.991	-167.808	-0.253	-0.010
-105.976	223.110	0.155	0.244
-104.962	-200.000	0.058	0.296
-103.947	-45.090	0.362	0.176
-102.932	-44.840	-0.243	0.118
-101.918	-91.033	0.195	0.055
-100.903	800.000	0.047	0.173
-99.889	800.000	0.024	-0.066
-98.874	-135.447	-0.087	-0.010
-97.859	-99.425	0.342	-0.084
-96.845	-200.000	-0.005	0.092
-95.830	-24.582	-0.200	0.116
-94.816	-200.000	-0.053	0.286
-93.801	80.938	0.013	-0.014
-92.786	-200.000	-0.047	-0.402
-91.772	-91.254	0.240	-0.067
-90.757	-61.074	0.335	0.138
-89.743	602.348	0.140	0.340
-88.728	-58.576	0.272	-0.115
-87.713	456.609	0.170	-0.367
-86.699	-123.951	-0.402	0.062
-85.684	-73.718	0.074	0.026
-84.670	625.182	-0.076	-0.187
-83.655	800.000	-0.072	0.308
-82.640	447.406	-0.085	-0.183
-81.626	-21.788	0.196	-0.116
-80.611	-200.000	-0.047	-0.400
-79.597	124.536	-0.250	0.306
-78.582	39.364	0.104	0.090
-77.567	-100.739	0.144	-0.034
-76.553	-200.000	-0.017	0.340
-75.538	-200.000	-0.018	-0.081
-74.524	592.105	-0.058	-0.140
-73.509	278.659	0.083	-0.144
-72.494	-164.580	-0.133	-0.006
-71.480	-100.253	0.203	-0.049
-70.465	-77.625	0.333	0.112
-69.451	-143.046	-0.243	-0.023
-68.436	209.486	0.209	-0.319
-67.422	-104.317	0.275	0.062
-66.407	-144.563	-0.182	0.016
-65.392	-200.000	0.090	-0.416
-64.378	800.000	0.042	0.117
-63.363	579.443	0.085	0.202
-62.349	-4.908	0.128	0.085
-61.334	111.700	-1.015	-1.192
-60.319	5.784	0.761	0.547
-59.305	603.890	-0.520	-1.259
-58.290	800.000	0.525	1.559
-57.276	800.000	0.471	1.462
-56.261	-200.000	125.698	651.751
-55.246	413.077	1576.501	3259.248
-54.232	141.793	2744.276	3536.028
-53.217	89.380	2305.733	2499.158
-52.203	32.200	1912.774	1604.400
-51.188	25.892	1709.067	1385.176
-50.173	23.944	1670.009	1338.820
-49.159	45.862	1739.279	1563.843
-48.144	43.102	1750.838	1552.945
-47.130	25.639	1702.177	1377.431
-46.115	23.167	1686.933	1346.259
-45.100	22.990	1681.905	1340.856
-44.086	23.008	1679.299	1338.860
-43.071	22.943	1676.916	1336.414
-42.057	22.843	1674.705	1333.846
-41.042	23.003	1672.424	1333.182
-40.027	22.997	1670.701	1331.709
-39.013	22.917	1668.988	1329.691
-37.998	22.832	1667.735	1327.997
-36.984	22.972	1666.405	1327.937
-35.969	23.023	1664.814	1326.999
-34.954	23.084	1662.907	1325.886
-33.940	23.006	1661.244	1323.926
-32.925	23.000	1659.773	1322.657
-31.911	22.969	1657.981	1320.939
-30.896	23.032	1656.247	1319.981
-29.881	23.071	1654.646	1318.941
-28.867	23.115	1653.427	1318.246
-27.852	23.045	1651.884	1316.442
-26.838	23.003	1650.558	1315.019
-25.823	23.069	1649.121	1314.310
-24.809	23.142	1647.774	1313.729
-23.794	23.114	1646.541	1312.485
-22.779	23.028	1645.032	1310.598
-21.765	23.033	1643.749	1309.561
-20.750	23.095	1641.149	1307.894
-19.736	23.051	1639.771	1306.421
-18.721	23.107	1639.053	1306.211
-17.706	23.099	1637.125	1304.562
-16.692	23.035	1635.880	1303.047
-15.677	23.030	1634.628	1301.956
-14.663	23.206	1632.964	1301.879
-13.648	23.106	1632.327	1300.581
-12.633	23.069	1630.803	1299.042
-11.619	23.021	1628.792	1297.039
-10.604	23.067	1627.365	1296.188
-9.590	23.075	1626.333	1295.369
-8.575	23.103	1624.537	1294.097
-7.560	23.144	1623.334	1293.385
-6.546	23.093	1622.431	1292.241
-5.531	23.064	1621.354	1291.124
-4.517	23.027	1620.356	1290.003
-3.502	23.136	1618.983	1289.654
-2.487	23.154	1617.315	1288.406
-1.473	22.826	1605.163	1276.308
-0.458	20.221	1586.402	1242.701
0.556	15.600	1589.291	1215.732
1.571	13.655	1613.702	1219.995
2.586	13.590	1626.666	1229.205
3.600	12.578	1571.375	1180.063
4.615	6.859	1462.828	1060.169
5.629	1.248	1403.813	981.106
6.644	0.192	1397.036	969.484
7.659	0.135	1396.091	968.378
8.673	0.138	1394.788	967.406
9.688	0.205	1392.184	965.944
10.702	-0.045	1388.946	962.011
11.717	2.747	1392.797	982.494
12.731	9.850	1403.370	1035.572
13.746	15.406	1411.471	1077.221
14.761	16.802	1413.073	1087.313
15.775	16.159	1411.395	1081.806
16.790	15.142	1408.556	1073.021
17.804	14.500	1406.347	1067.136
18.819	14.157	1404.897	1063.745
19.834	13.868	1403.476	1060.733
20.848	13.613	1402.305	1058.124
21.863	13.437	1400.763	1055.745
22.877	13.329	1399.716	1054.175
23.892	13.253	1398.488	1052.670
24.907	13.155	1397.839	1051.463
25.921	13.204	1396.582	1050.739
26.936	13.244	1395.918	1050.401
27.950	13.300	1395.438	1050.301
28.965	13.299	1394.264	1049.316
29.980	13.337	1393.417	1048.832
30.994	13.460	1392.212	1048.608
32.009	13.429	1391.658	1047.904
33.023	13.495	1389.885	1046.893
34.038	13.418	1388.807	1045.504
35.053	13.349	1387.657	1044.107
36.067	13.323	1386.147	1042.717
37.082	13.330	1385.302	1042.030
38.096	13.330	1385.166	1041.834
39.111	13.420	1383.323	1040.927
40.126	13.231	1383.257	1039.593
41.140	13.190	1382.166	1038.424
42.155	13.177	1381.665	1037.877
43.169	13.181	1381.518	1037.697
44.184	13.281	1381.314	1038.081
45.199	13.235	1380.544	1037.120
46.213	13.160	1380.184	1036.287
47.228	13.306	1379.149	1036.335
48.242	13.337	1377.388	1035.114
49.257	13.339	1376.157	1034.109
50.271	13.178	1375.337	1032.398
51.286	13.294	1373.534	1031.674
52.301	13.272	1372.066	1030.344
53.315	13.261	1370.733	1029.186
54.330	13.120	1370.842	1028.299
55.344	13.182	1368.757	1027.025
56.359	13.162	1367.982	1026.231
57.374	13.082	1367.159	1025.028
58.388	13.166	1366.288	1024.800
59.403	13.174	1365.404	1024.099
60.417	13.095	1364.661	1022.964
61.432	13.080	1364.010	1022.292
62.447	13.156	1362.573	1021.594
63.461	13.004	1361.899	1020.060
64.476	12.994	1360.869	1019.136
65.490	13.107	1358.878	1018.247
66.505	13.102	1357.656	1017.216
67.520	13.137	1356.377	1016.378
68.534	13.202	1355.356	1015.922
69.549	13.204	1354.236	1015.009
70.563	13.158	1353.484	1014.070
71.578	13.063	1352.424	1012.603
72.593	13.040	1351.452	1011.648
73.607	13.041	1350.408	1010.783
74.622	13.065	1349.601	1010.234
75.636	13.083	1348.616	1009.516
76.651	13.067	1347.755	1008.685
77.666	13.070	1347.407	1008.356
78.680	13.028	1346.477	1007.315
79.695	13.086	1345.726	1007.018
80.709	13.151	1344.989	1006.770
81.724	13.179	1343.566	1005.787
82.739	13.144	1343.195	1005.208
83.753	13.311	1341.463	1004.839
84.768	13.261	1341.235	1004.274
85.782	13.276	1340.003	1003.353
86.797	13.304	1338.256	1002.126
87.812	13.190	1337.299	1000.629
88.826	13.196	1336.284	999.821
89.841	13.253	1335.111	999.200
90.855	13.242	1334.033	998.235
91.870	13.240	1333.221	997.531
92.884	13.319	1332.145	997.112
93.899	13.373	1331.347	996.752
94.914	13.302	1331.060	996.024
95.928	13.337	1329.981	995.339
96.943	13.302	1328.614	994.017
97.957	13.413	1327.871	994.041
98.972	13.315	1326.668	992.460
99.987	13.391	1325.517	991.968
101.001	13.327	1324.686	990.877
102.016	13.299	1323.683	989.870
103.030	13.348	1322.786	989.403
104.045	13.493	1321.153	988.959
105.060	13.345	1320.191	987.272
106.074	13.237	1319.367	985.921
107.089	13.249	1318.036	984.915
108.103	13.237	1316.868	983.882
109.118	13.316	1315.107	982.949
110.133	13.188	1314.590	981.716
111.147	13.204	1313.210	980.692
112.162	13.283	1311.527	979.814
113.176	13.201	1310.678	978.610
114.191	13.355	1309.494	978.549
115.206	13.264	1308.328	977.055
116.220	13.204	1307.594	976.064
117.235	13.218	1306.264	975.066
118.249	13.295	1304.849	974.378
119.264	13.249	1303.930	973.335
120.279	13.234	1302.824	972.336
121.293	13.182	1301.702	971.107
122.308	13.163	1300.957	970.352
123.322	13.282	1299.415	969.815
124.337	13.168	1298.588	968.444
125.352	13.191	1297.050	967.346
126.366	13.103	1296.315	966.200
127.381	13.184	1295.072	965.659
128.395	13.141	1293.870	964.427
129.410	13.197	1292.909	963.955
130.424	13.143	1292.037	962.899
131.439	13.196	1291.100	962.427
132.454	13.136	1290.052	961.210
133.468	13.264	1289.144	961.193
134.483	13.232	1288.138	960.175
135.497	13.221	1287.251	959.366
136.512	13.272	1285.701	958.421
137.527	13.310	1284.442	957.618
138.541	13.195	1283.433	956.115
139.556	13.242	1281.895	955.154
140.570	13.346	1280.583	954.696
141.585	13.333	1280.067	954.151
142.600	13.353	1278.813	953.247
143.614	13.453	1277.642	952.864
144.629	13.447	1276.408	951.826
145.643	13.480	1275.288	951.094
146.658	13.438	1273.648	949.548
147.673	13.280	1272.867	947.975
148.687	13.302	1271.377	946.906
149.702	13.370	1270.288	946.402
150.716	13.378	1269.128	945.498
151.731	13.315	1267.892	944.136
152.746	13.371	1266.722	943.498
153.760	13.374	1265.461	942.491
154.775	13.470	1264.341	942.124
155.789	13.429	1263.532	941.201
156.804	13.394	1262.716	940.316
157.819	13.435	1261.435	939.508
158.833	13.543	1260.158	939.085
159.848	13.638	1258.740	938.488
160.862	13.631	1258.317	938.044
161.877	13.604	1256.724	936.626
162.892	13.578	1255.484	935.472
163.906	13.419	1255.268	934.330
164.921	13.487	1254.482	934.043
165.935	13.536	1253.517	933.517
166.950	13.575	1252.254	932.715
167.964	13.619	1251.722	932.487
168.979	13.547	1250.925	931.403
169.994	13.603	1249.703	930.729
171.008	13.593	1249.473	930.416
172.023	13.597	1248.304	929.484
173.037	13.619	1247.993	929.296
174.052	13.688	1246.979	928.846
175.067	13.539	1245.785	927.038
176.081	13.661	1244.608	926.763
177.096	13.531	1244.086	925.566
178.110	13.583	1242.897	924.891
179.125	13.682	1241.366	924.221
180.140	13.736	1240.186	923.563
181.154	13.764	1238.768	922.581
182.169	13.721	1237.784	921.527
183.183	13.789	1236.676	920.998
184.198	13.744	1235.688	919.932
185.213	13.799	1234.304	919.125
186.227	13.864	1233.157	918.549
187.242	13.873	1232.497	918.024
188.256	13.872	1231.326	917.066
189.271	13.861	1230.125	916.031
190.286	13.843	1229.162	915.134
191.300	13.687	1228.215	913.488
192.315	13.634	1228.041	912.984
193.329	13.789	1226.709	912.767
194.344	13.730	1226.294	912.052
195.359	13.774	1225.773	911.828
196.373	13.913	1224.875	911.840
197.388	13.931	1224.605	911.657
198.402	14.057	1223.865	911.715
199.417	14.068	1223.112	911.136
200.432	13.994	1222.582	910.253
201.446	14.068	1221.597	909.846
202.461	14.075	1220.614	909.071
203.475	14.092	1219.828	908.500
204.490	14.068	1218.258	907.118
205.504	14.067	1217.034	906.124
206.519	14.106	1215.530	905.134
207.534	14.133	1214.147	904.172
208.548	14.109	1213.789	903.696
209.563	14.038	1213.101	902.716
210.577	14.069	1212.256	902.172
211.592	14.096	1211.129	901.404
212.607	14.214	1210.349	901.380
213.621	14.206	1209.871	900.900
214.636	14.167	1208.757	899.781
215.650	14.256	1207.626	899.341
216.665	14.358	1206.399	898.900
217.680	14.364	1205.731	898.355
218.694	14.347	1205.013	897.648
219.709	14.407	1204.127	897.232
220.723	14.345	1203.552	896.392
221.738	14.324	1202.718	895.574
222.753	14.391	1202.083	895.386
223.767	14.377	1201.201	894.572
224.782	14.284	1200.677	893.604
225.796	14.378	1200.259	893.720
226.811	14.414	1199.076	892.951
227.826	14.413	1198.616	892.526
228.840	14.455	1197.955	892.177
229.855	14.454	1196.958	891.354
230.869	14.495	1196.420	891.089
231.884	14.461	1195.278	889.979
232.899	14.402	1194.402	888.936
233.913	14.396	1193.828	888.396
234.928	14.390	1192.930	887.620
235.942	14.297	1192.370	886.627
236.957	14.387	1191.335	886.257
237.972	14.414	1190.665	885.823
238.986	14.548	1189.819	885.827
240.001	14.407	1189.261	884.586
241.015	14.483	1188.373	884.253
242.030	14.448	1188.075	883.765
243.045	14.592	1186.886	883.564
244.059	14.550	1186.372	882.885
245.074	14.673	1185.328	882.676
246.088	14.573	1184.681	881.588
247.103	14.681	1183.263	881.024
248.117	14.691	1182.452	880.396
249.132	14.558	1182.385	879.566
250.147	14.767	1181.574	879.989
251.161	14.821	1180.414	879.332
252.176	14.780	1179.940	878.684
253.190	14.785	1179.556	878.344
254.205	14.803	1179.014	877.960
255.220	14.938	1178.013	877.846
256.234	14.977	1177.189	877.357
257.249	14.875	1177.000	876.604
258.263	14.897	1176.337	876.149
259.278	14.921	1175.634	875.674
260.293	14.950	1174.914	875.211
261.307	14.976	1174.235	874.765
262.322	15.072	1173.488	874.630
263.336	15.024	1173.332	874.184
264.351	15.137	1172.251	873.893
265.366	15.051	1171.538	872.836
266.380	15.017	1170.953	872.148
267.395	15.002	1170.548	871.691
268.409	14.967	1169.639	870.755
269.424	15.126	1168.588	870.719
270.439	15.165	1168.035	870.431
271.453	15.098	1167.531	869.632
272.468	15.138	1166.346	868.879
273.482	15.052	1165.953	868.066
274.497	15.015	1165.279	867.295
275.512	15.060	1164.393	866.793
276.526	15.171	1163.456	866.590
277.541	15.166	1162.673	865.904
278.555	15.179	1162.053	865.435
279.570	15.228	1161.193	864.973
280.585	15.241	1160.559	864.492
281.599	15.287	1159.374	863.768
282.614	15.242	1158.718	862.970
283.628	15.188	1157.848	861.970
284.643	15.348	1156.482	861.696
285.657	15.272	1155.899	860.796
286.672	15.295	1154.642	859.904
287.687	15.330	1154.112	859.612
288.701	15.405	1153.063	859.136
289.716	15.502	1152.243	858.947
290.730	15.283	1151.924	857.512
291.745	15.294	1151.301	857.029
292.760	15.508	1150.168	857.204
293.774	15.507	1150.069	857.049
294.789	15.571	1149.565	856.923
295.803	15.447	1148.757	855.611
296.818	15.403	1148.339	855.003
297.833	15.350	1147.571	854.082
298.847	15.470	1146.186	853.590
299.862	15.508	1145.197	852.971
300.876	15.477	1145.134	852.688
301.891	15.546	1144.369	852.392
302.906	15.616	1143.192	851.797
303.920	15.457	1143.001	850.774
304.935	15.602	1142.210	850.845
305.949	15.613	1141.626	850.388
306.964	15.731	1140.678	850.204
307.979	15.694	1140.054	849.478
308.993	15.676	1139.035	848.553
310.008	15.760	1138.614	848.589
311.022	15.706	1137.650	847.522
312.037	15.674	1136.907	846.731
313.052	15.733	1135.879	846.187
314.066	15.760	1134.805	845.446
315.081	15.652	1134.130	844.329
316.095	15.689	1133.706	844.123
317.110	15.615	1132.886	843.068
318.125	15.660	1131.970	842.534
319.139	15.814	1131.041	842.540
320.154	15.757	1130.641	841.885
321.168	15.739	1129.783	841.083
322.183	15.687	1129.665	840.659
323.197	15.770	1129.060	840.547
324.212	15.769	1128.209	839.835
325.227	15.761	1127.484	839.182
326.241	15.808	1127.196	839.126
327.256	15.827	1126.067	838.308
328.270	15.791	1125.338	837.510
329.285	15.824	1124.261	836.799
330.300	15.829	1123.082	835.874
331.314	15.827	1122.196	835.130
332.329	15.826	1121.239	834.337
333.343	15.770	1120.532	833.459
334.358	15.894	1119.572	833.289
335.373	15.911	1119.243	833.054
336.387	15.964	1118.210	832.471
337.402	16.030	1117.363	832.095
338.416	16.008	1116.691	831.411
339.431	16.069	1116.006	831.129
340.446	16.028	1115.874	830.755
341.460	16.112	1114.866	830.342
342.475	16.156	1114.107	829.919
343.489	16.137	1112.958	828.898
344.504	16.244	1112.025	828.655
345.519	16.243	1111.390	828.107
346.533	16.306	1110.708	827.829
347.548	16.219	1109.647	826.544
348.562	16.374	1108.537	826.401
349.577	16.290	1107.838	825.398
350.592	16.198	1107.499	824.620
351.606	16.197	1106.655	823.912
352.621	16.241	1105.869	823.471
353.635	16.104	1105.685	822.590
354.650	16.181	1104.913	822.321
355.665	16.348	1103.463	821.981
356.679	16.144	1103.511	820.951
357.694	16.363	1102.707	821.345
358.708	16.284	1102.357	820.626
359.723	16.382	1101.208	820.177
360.738	16.354	1100.863	819.709
361.752	16.251	1100.252	818.682
362.767	16.352	1100.124	819.005
363.781	16.544	1098.559	818.699
364.796	16.457	1098.161	817.910
365.810	16.489	1097.546	817.534
366.825	16.611	1096.899	817.567
367.840	16.602	1096.757	817.345
368.854	16.516	1096.051	816.334
369.869	16.643	1095.195	816.237
370.883	16.500	1094.300	814.806
371.898	16.590	1093.228	814.371
372.913	16.564	1093.426	814.321
373.927	16.683	1091.990	813.752
374.942	16.669	1091.491	813.241
375.956	16.649	1091.236	812.883
376.971	16.647	1090.717	812.415
377.986	16.774	1089.914	812.352
379.000	16.691	1089.686	811.714
380.015	16.809	1088.976	811.678
381.029	16.828	1088.389	811.260
382.044	16.915	1087.430	810.887
383.059	16.791	1087.163	810.023
384.073	16.885	1085.896	809.459
385.088	16.843	1085.232	808.690
386.102	16.807	1084.683	808.036
387.117	16.891	1083.072	807.166
388.132	16.907	1082.234	806.546
389.146	16.877	1081.430	805.732
390.161	16.768	1080.777	804.656
391.175	16.742	1080.392	804.176
392.190	16.824	1079.784	804.043
393.205	17.003	1078.567	803.915
394.219	17.084	1077.559	803.476
395.234	16.915	1077.064	802.233
396.248	16.913	1076.022	801.380
397.263	16.930	1075.061	800.673
398.278	17.012	1074.545	800.603
399.292	16.865	1073.785	799.274
400.307	16.920	1073.125	798.970
401.321	16.888	1072.358	798.178
402.336	16.826	1072.162	797.670
403.350	16.965	1071.039	797.416
404.365	17.018	1070.402	797.121
405.380	17.072	1069.278	796.467
406.394	17.137	1068.634	796.220
407.409	17.196	1067.898	795.880
408.423	17.130	1067.244	795.012
409.438	17.204	1066.757	794.924
410.453	17.128	1065.994	793.930
411.467	17.189	1065.168	793.532
412.482	17.171	1065.034	793.275
413.496	17.211	1064.271	792.827
414.511	17.294	1063.091	792.263
415.526	17.398	1062.859	792.503
416.540	17.387	1062.272	791.947
417.555	17.394	1061.839	791.583
418.569	17.316	1061.541	790.928
419.584	17.307	1061.343	790.672
420.599	17.446	1060.303	790.470
421.613	107.870	1331.731	1488.780
422.628	99.548	1371.220	1488.861
