DTS Sentinel unit serial number:	SN413079Multiplexer serial number:	ORYXHardware model number:	OX4-SRSoftware version number:	ORYX F/W v4.00 Oryx Data Collector v3.7.2.0data status	okinstallation	princeton_trtdifferential loss correction	single-endedforward channel	channel 2reverse channel	N/Adate	2019/09/18time	08:11:35forward acquisition time	60.00reverse acquisition time	0.00gamma	496.2192k internal	0.2344k external	0.2344temperature offset calibration	0.9980default loss term (dB/km)	0.3790temperature slope calibration	1.0000multiplexer offset coefficient	1.0000multiplexer slope coefficient	1.0000fibre end	0.00T internal ref (°C)	23.87T ext. ref 1 (°C)	0.20T ext. ref 2 (°C)	19.63length (m)	temperature (°C)	Stokes	anti-Stokes-747.200	-20.307	-0.023	-0.014
-746.185	-98.163	-0.154	0.040
-745.171	132.202	-0.221	0.285
-744.156	43.849	-0.151	0.139
-743.142	84.116	-0.125	0.137
-742.127	-84.412	0.162	0.051
-741.112	417.280	-0.106	0.226
-740.098	402.107	0.054	0.113
-739.083	-81.382	0.324	0.107
-738.069	121.146	0.172	-0.214
-737.054	339.551	0.021	0.042
-736.039	-24.808	-0.603	0.358
-735.025	45.137	-0.190	-0.175
-734.010	-127.113	-0.576	-0.084
-732.996	-200.000	-0.041	-0.330
-731.981	-14.638	0.258	-0.166
-730.966	620.286	-0.168	0.422
-729.952	-37.871	-0.308	0.164
-728.937	25.651	-0.018	-0.015
-727.923	800.000	0.011	0.033
-726.908	32.868	0.133	-0.115
-725.894	800.000	-0.044	-0.153
-724.879	388.387	0.044	0.092
-723.864	116.741	-0.129	0.158
-722.850	324.430	-0.034	-0.065
-721.835	132.159	0.112	0.145
-720.821	39.703	-0.097	-0.087
-719.806	172.662	0.189	-0.272
-718.791	796.558	-0.034	-0.093
-717.777	368.784	-0.073	-0.148
-716.762	-76.691	0.136	-0.048
-715.748	-149.258	-0.270	-0.022
-714.733	81.761	-0.061	0.066
-713.718	-163.181	-0.218	0.010
-712.704	129.499	-0.072	-0.092
-711.689	-142.400	0.066	0.006
-710.675	-200.000	0.028	0.152
-709.660	-138.344	-0.142	-0.016
-708.645	193.133	-0.099	-0.150
-707.631	-130.471	0.163	-0.022
-706.616	29.754	-0.152	0.129
-705.602	99.914	0.152	0.177
-704.587	-27.152	-0.079	-0.046
-703.572	-7.716	0.157	-0.106
-702.558	-200.000	-0.006	-0.455
-701.543	-200.000	0.026	-0.233
-700.529	55.754	-0.144	-0.139
-699.514	472.653	-0.136	0.307
-698.499	25.568	0.140	-0.117
-697.485	71.862	-0.102	-0.106
-696.470	800.000	-0.059	-0.253
-695.456	15.505	0.316	-0.248
-694.441	120.637	0.200	-0.248
-693.426	-87.981	0.266	-0.080
-692.412	-200.000	-0.019	-0.099
-691.397	-98.313	-0.202	0.052
-690.383	-89.434	-0.150	-0.044
-689.368	117.652	-0.063	0.078
-688.354	-200.000	-0.069	-0.456
-687.339	-95.218	-0.169	-0.046
-686.324	-125.958	-0.167	0.025
-685.310	800.000	0.141	-0.466
-684.295	-46.146	0.196	-0.096
-683.281	-136.811	-0.153	0.018
-682.266	69.120	-0.167	0.171
-681.251	217.431	0.088	0.139
-680.237	-98.162	-0.355	0.091
-679.222	-3.834	-0.119	0.082
-678.208	156.301	-0.067	0.092
-677.193	441.652	-0.039	0.086
-676.178	55.506	-0.144	-0.139
-675.164	-152.884	-0.211	0.015
-674.149	-200.000	-0.026	-0.145
-673.135	539.660	0.072	-0.172
-672.120	-54.321	0.174	0.079
-671.105	-119.430	-0.427	0.074
-670.091	158.960	0.033	-0.045
-669.076	-113.563	-0.112	-0.022
-668.062	-128.900	0.433	-0.061
-667.047	-148.570	-0.157	-0.013
-666.032	39.028	0.087	0.077
-665.018	632.635	-0.103	-0.259
-664.003	-145.766	-0.145	0.013
-662.989	-35.011	-0.073	0.040
-661.974	-170.228	-0.241	-0.009
-660.959	-59.192	0.174	-0.075
-659.945	463.628	-0.080	0.178
-658.930	-43.514	-0.235	0.119
-657.916	-69.464	0.264	-0.101
-656.901	314.464	0.068	0.128
-655.886	-30.134	-0.072	0.041
-654.872	613.751	0.084	0.211
-653.857	-67.268	-0.278	-0.109
-652.843	-33.033	0.067	0.037
-651.828	-200.000	-0.020	0.207
-650.814	289.786	0.088	-0.159
-649.799	377.600	-0.086	-0.176
-648.784	330.835	-0.085	-0.163
-647.770	238.384	-0.007	0.011
-646.755	46.643	-0.058	0.054
-645.741	99.218	-0.286	0.329
-644.726	169.605	-0.044	-0.063
-643.711	633.892	0.087	-0.220
-642.697	583.970	0.086	0.210
-641.682	61.614	-0.118	0.117
-640.668	-123.592	0.364	-0.058
-639.653	59.128	-0.099	-0.097
-638.638	156.001	0.066	0.091
-637.624	-200.000	-0.029	-0.147
-636.609	-88.686	-0.142	-0.042
-635.595	-200.000	-0.013	0.109
-634.580	-200.000	0.015	-0.174
-633.565	57.136	-0.129	0.125
-632.551	-22.120	0.087	0.053
-631.536	422.951	-0.090	-0.193
-630.522	800.000	-0.079	0.335
-629.507	-136.081	0.109	0.013
-628.492	-142.551	-0.541	-0.053
-627.478	-65.907	0.402	-0.160
-626.463	122.516	0.107	-0.133
-625.449	-200.000	-0.004	0.030
-624.434	381.913	0.112	-0.230
-623.419	-200.000	-0.047	-0.207
-622.405	-54.679	-0.107	0.048
-621.390	-120.434	0.391	0.066
-620.376	-200.000	0.051	-0.393
-619.361	58.950	-0.111	0.108
-618.346	34.616	-0.133	-0.116
-617.332	-128.807	0.286	-0.040
-616.317	722.679	-0.108	0.286
-615.303	-200.000	0.045	0.297
-614.288	39.192	0.138	-0.123
-613.273	800.000	0.100	-0.407
-612.259	270.884	-0.090	-0.158
-611.244	-77.333	-0.159	-0.055
-610.230	-70.677	0.109	0.041
-609.215	-16.078	-0.072	0.046
-608.201	-28.381	0.123	-0.071
-607.186	54.210	-0.104	0.099
-606.171	5.461	-0.097	0.072
-605.157	-200.000	0.015	-0.129
-604.142	84.337	0.078	0.085
-603.128	-106.906	-0.202	0.045
-602.113	-131.998	-0.265	0.034
-601.098	-200.000	0.010	-0.119
-600.084	800.000	0.115	-0.463
-599.069	-49.220	-0.126	0.060
-598.055	456.121	-0.088	0.194
-597.040	-86.520	0.421	0.129
-596.025	-113.449	0.193	0.038
-595.011	190.459	-0.095	-0.142
-593.996	-90.634	0.226	0.065
-592.982	143.397	0.137	0.181
-591.967	-108.061	0.198	0.043
-590.952	800.000	0.111	-0.363
-589.938	12.655	-0.092	-0.071
-588.923	-7.991	-0.118	0.079
-587.909	180.587	0.131	0.191
-586.894	15.345	-0.098	0.077
-585.879	113.390	0.093	0.112
-584.865	57.497	-0.148	0.144
-583.850	-181.017	-0.368	0.007
-582.836	-59.250	-0.112	0.048
-581.821	-85.530	-0.280	-0.087
-580.806	-127.141	-0.296	0.043
-579.792	-200.000	-0.315	-0.001
-578.777	800.000	-0.072	-0.271
-577.763	-20.666	-0.333	0.203
-576.748	163.269	0.182	0.254
-575.733	-180.062	0.158	-0.003
-574.719	73.769	-0.076	0.079
-573.704	-125.595	-0.273	0.041
-572.690	556.880	-0.107	0.255
-571.675	-42.870	-0.460	0.232
-570.661	-125.450	-0.084	0.013
-569.646	-66.688	-0.228	-0.090
-568.631	-132.591	-0.404	0.052
-567.617	14.068	0.279	0.216
-566.602	402.951	-0.074	-0.155
-565.588	-115.135	-0.126	0.024
-564.573	-56.507	-0.166	-0.073
-563.558	-119.042	-0.333	0.058
-562.544	109.667	-0.130	0.155
-561.529	-181.537	0.295	0.006
-560.515	-150.732	0.368	0.028
-559.500	71.245	0.060	0.061
-558.485	-59.504	-0.130	0.056
-557.471	-9.873	-0.379	0.250
-556.456	226.290	-0.019	0.031
-555.442	67.793	0.098	-0.099
-554.427	254.122	-0.172	-0.293
-553.412	272.175	0.045	0.080
-552.398	800.000	0.045	0.186
-551.383	352.719	-0.044	0.086
-550.369	800.000	0.022	0.087
-549.354	-200.000	0.036	-0.229
-548.339	-140.555	0.051	0.005
-547.325	79.065	0.299	-0.318
-546.310	-0.693	-0.170	0.120
-545.296	800.000	-0.096	-0.320
-544.281	39.631	-0.058	-0.052
-543.266	-144.740	-0.165	-0.015
-542.252	-34.734	0.227	-0.123
-541.237	136.771	0.064	0.083
-540.223	800.000	0.098	0.270
-539.208	-37.182	-0.162	-0.086
-538.193	-116.124	0.253	-0.047
-537.179	44.230	0.184	-0.168
-536.164	-200.000	0.002	-0.020
-535.150	153.140	0.134	-0.181
-534.135	174.364	-0.330	-0.474
-533.121	4.668	-0.305	-0.222
-532.106	-53.353	-0.409	0.186
-531.091	61.485	-0.220	0.217
-530.077	-157.127	0.093	0.006
-529.062	-44.524	0.162	0.080
-528.048	-81.229	-0.131	0.043
-527.033	-200.000	0.002	-0.244
-526.018	296.675	0.177	-0.323
-525.004	348.874	0.162	-0.317
-523.989	800.000	0.020	0.075
-522.975	41.882	0.183	0.165
-521.960	-35.997	-0.364	-0.195
-520.945	133.737	0.109	0.140
-519.931	-80.744	0.202	0.067
-518.916	-90.029	-0.476	-0.138
-517.902	-13.870	0.147	0.094
-516.887	43.357	0.229	-0.207
-515.872	-200.000	0.027	-0.222
-514.858	171.145	0.074	0.106
-513.843	793.706	0.069	-0.189
-512.829	800.000	0.048	-0.180
-511.814	8.016	-0.077	0.057
-510.799	-200.000	-0.007	0.113
-509.785	-118.852	-0.136	-0.024
-508.770	121.882	-0.117	0.145
-507.756	151.111	-0.303	0.409
-506.741	800.000	0.058	0.247
-505.726	433.072	-0.132	0.283
-504.712	528.596	0.014	-0.033
-503.697	-200.000	0.004	0.088
-502.683	69.752	0.287	-0.293
-501.668	185.425	-0.095	0.140
-500.653	800.000	-0.057	0.166
-499.639	689.044	0.075	-0.194
-498.624	-137.020	0.363	-0.041
-497.610	156.280	-0.180	0.246
-496.595	540.729	0.082	-0.193
-495.581	-200.000	0.014	0.217
-494.566	30.306	0.242	-0.205
-493.551	-55.553	0.245	0.109
-492.537	-15.947	0.101	0.064
-491.522	-200.000	0.011	-0.064
-490.508	0.587	-0.110	-0.078
-489.493	-43.623	-0.385	-0.192
-488.478	-69.635	-0.197	0.075
-487.464	800.000	0.046	0.131
-486.449	-59.137	-0.161	0.069
-485.435	800.000	-0.071	-0.233
-484.420	-200.000	-0.021	0.430
-483.405	800.000	-0.105	0.397
-482.391	-186.437	0.162	0.002
-481.376	-90.436	-0.298	0.086
-480.362	508.047	-0.098	-0.224
-479.347	-75.884	-0.252	0.088
-478.332	800.000	0.051	-0.168
-477.318	123.512	0.038	-0.048
-476.303	34.525	0.371	0.321
-475.289	-200.000	-0.000	-0.259
-474.274	-200.000	-0.016	0.119
-473.259	4.107	0.155	0.112
-472.245	308.160	0.108	0.200
-471.230	-99.343	-0.095	-0.024
-470.216	488.829	-0.122	0.275
-469.201	247.063	0.180	0.300
-468.186	19.755	-0.121	-0.096
-467.172	800.000	0.095	0.393
-466.157	-166.368	-0.166	0.007
-465.143	-131.494	0.165	-0.022
-464.128	28.974	-0.251	0.211
-463.113	800.000	0.090	0.295
-462.099	491.192	-0.068	-0.154
-461.084	368.275	-0.106	0.213
-460.070	-200.000	0.046	-0.366
-459.055	95.510	0.191	-0.215
-458.040	27.814	-0.109	-0.091
-457.026	29.704	-0.226	-0.190
-456.011	-42.409	-0.114	0.057
-454.997	-200.000	0.086	0.534
-453.982	-200.000	0.057	0.274
-452.968	-200.000	-0.028	0.247
-451.953	-176.928	-0.241	0.006
-450.938	328.487	-0.102	0.193
-449.924	30.159	0.157	0.132
-448.909	-200.000	-0.017	0.159
-447.895	-60.837	0.069	0.029
-446.880	192.911	-0.108	0.162
-445.865	-130.915	0.086	0.011
-444.851	95.260	-0.110	-0.124
-443.836	-92.207	-0.308	-0.086
-442.822	-199.521	0.164	0.001
-441.807	51.218	-0.073	-0.069
-440.792	-151.158	0.125	0.009
-439.778	-70.346	-0.322	0.121
-438.763	21.744	-0.255	0.205
-437.749	-200.000	-0.011	0.053
-436.734	800.000	0.124	-0.384
-435.719	-200.000	-0.040	0.367
-434.705	-77.731	-0.224	0.077
-433.690	781.539	0.115	0.310
-432.676	-200.000	-0.030	0.225
-431.661	-200.000	-0.020	-0.110
-430.646	251.603	0.070	0.118
-429.632	-200.000	-0.010	0.183
-428.617	541.648	0.061	0.144
-427.603	-200.000	-0.013	-0.254
-426.588	-26.766	-0.413	0.239
-425.573	-13.643	0.417	-0.267
-424.559	-165.555	0.409	0.018
-423.544	-83.738	-0.140	0.044
-422.530	61.447	0.199	0.196
-421.515	-200.000	0.022	0.129
-420.500	53.070	0.194	-0.183
-419.486	156.282	-0.218	0.298
-418.471	-200.000	0.013	-0.086
-417.457	-133.724	-0.264	-0.033
-416.442	-200.000	0.011	0.106
-415.428	98.854	0.246	0.281
-414.413	-20.081	-0.212	0.129
-413.398	800.000	-0.025	0.083
-412.384	628.408	0.037	-0.093
-411.369	-200.000	0.028	-0.230
-410.355	-118.450	-0.349	-0.061
-409.340	-5.812	-0.117	-0.079
-408.325	800.000	0.009	-0.028
-407.311	425.456	0.068	0.144
-406.296	13.487	0.238	-0.183
-405.282	-150.122	0.053	0.004
-404.267	-91.494	-0.213	-0.060
-403.252	-109.378	0.309	0.065
-402.238	-148.834	0.426	0.034
-401.223	465.112	0.120	0.265
-400.209	800.000	-0.055	-0.151
-399.194	-21.481	-0.161	0.097
-398.179	274.278	0.099	0.173
-397.165	-108.991	-0.160	-0.034
-396.150	800.000	0.104	-0.399
-395.136	-30.805	-0.319	0.178
-394.121	90.365	-0.158	-0.174
-393.106	-112.208	0.232	0.046
-392.092	-154.471	-0.069	0.005
-391.077	-46.083	0.066	0.032
-390.063	122.279	-0.148	-0.183
-389.048	-200.000	0.035	-0.298
-388.033	494.185	-0.160	-0.361
-387.019	-65.727	0.226	0.089
-386.004	55.245	-0.151	-0.144
-384.990	13.816	-0.218	0.167
-383.975	54.034	0.247	0.234
-382.960	108.292	0.120	-0.141
-381.946	779.233	0.159	-0.430
-380.931	-200.000	0.001	0.168
-379.917	800.000	0.106	0.313
-378.902	800.000	0.044	0.167
-377.888	-84.322	0.208	-0.065
-376.873	254.607	-0.119	-0.201
-375.858	800.000	-0.064	-0.254
-374.844	97.373	0.182	0.206
-373.829	800.000	0.033	0.101
-372.815	800.000	-0.044	0.156
-371.800	-49.758	-0.158	0.074
-370.785	-93.607	0.192	-0.052
-369.771	-66.701	-0.131	-0.051
-368.756	539.057	0.108	-0.253
-367.742	57.517	0.132	-0.127
-366.727	-25.433	-0.187	-0.109
-365.712	-200.000	-0.035	-0.166
-364.698	80.531	-0.157	-0.166
-363.683	62.327	0.335	-0.330
-362.669	-78.635	0.101	0.034
-361.654	-23.137	-0.211	-0.125
-360.639	-14.919	0.151	0.095
-359.625	199.635	0.164	-0.248
-358.610	-22.117	0.078	-0.047
-357.596	560.575	0.077	-0.184
-356.581	-129.018	0.200	-0.028
-355.566	800.000	-0.052	0.225
-354.552	141.505	0.301	0.393
-353.537	12.668	-0.222	0.169
-352.523	-57.105	0.125	0.055
-351.508	535.673	0.081	-0.188
-350.493	-15.967	0.049	-0.031
-349.479	-96.113	0.125	0.033
-348.464	800.000	0.089	-0.343
-347.450	0.923	0.073	0.051
-346.435	-68.260	-0.204	0.078
-345.420	-200.000	0.006	-0.094
-344.406	183.587	0.192	0.280
-343.391	175.365	-0.089	0.127
-342.377	-71.985	-0.242	-0.089
-341.362	605.434	-0.106	0.260
-340.348	367.078	0.026	-0.051
-339.333	163.420	0.099	0.137
-338.318	-24.410	0.255	-0.150
-337.304	800.000	0.145	0.437
-336.289	446.335	-0.054	-0.116
-335.275	8.348	-0.135	-0.100
-334.260	-26.254	0.350	-0.202
-333.245	800.000	0.020	-0.070
-332.231	29.757	-0.241	0.202
-331.216	-200.000	0.018	-0.158
-330.202	-12.203	-0.214	0.138
-329.187	800.000	0.083	0.234
-328.172	-185.471	0.222	0.003
-327.158	-169.808	0.227	-0.008
-326.143	800.000	-0.009	-0.024
-325.129	33.992	0.242	0.207
-324.114	-96.387	-0.542	-0.141
-323.099	-51.799	-0.338	0.155
-322.085	-99.870	0.162	0.040
-321.070	238.570	0.058	0.095
-320.056	-95.601	-0.276	0.073
-319.041	0.825	0.123	-0.087
-318.026	139.665	0.180	0.234
-317.012	-200.000	-0.066	-0.389
-315.997	-130.398	0.150	-0.020
-314.983	-200.000	-0.035	0.179
-313.968	121.407	-0.160	-0.196
-312.953	189.184	-0.056	-0.083
-311.939	800.000	-0.057	-0.219
-310.924	-162.553	-0.347	0.017
-309.910	-200.000	0.003	0.101
-308.895	-116.962	0.156	0.028
-307.880	-116.370	-0.242	-0.044
-306.866	800.000	-0.069	-0.210
-305.851	117.395	0.187	-0.227
-304.837	-200.000	0.268	0.000
-303.822	800.000	0.143	-0.444
-302.807	-117.184	0.274	0.049
-301.793	691.932	0.044	-0.113
-300.778	-200.000	0.024	-0.136
-299.764	800.000	0.054	-0.148
-298.749	800.000	0.109	-0.364
-297.735	-100.974	0.316	-0.076
-296.720	-90.830	-0.188	-0.053
-295.705	800.000	0.040	0.132
-294.691	164.141	0.079	-0.110
-293.676	256.169	0.135	-0.228
-292.662	-200.000	-0.028	0.183
-291.647	-171.387	-0.386	0.013
-290.632	800.000	-0.082	-0.307
-289.618	489.309	-0.045	0.101
-288.603	-200.000	0.040	-0.231
-287.589	154.727	-0.093	0.126
-286.574	487.018	0.065	0.145
-285.559	-115.275	0.197	-0.037
-284.545	-200.000	0.050	0.237
-283.530	800.000	0.132	-0.385
-282.516	800.000	-0.107	0.366
-281.501	500.992	-0.125	0.285
-280.486	-200.000	-0.014	0.076
-279.472	-200.000	0.032	0.509
-278.457	68.440	-0.235	0.237
-277.443	-86.635	0.255	0.077
-276.428	249.821	0.070	0.117
-275.413	-200.000	-0.013	0.146
-274.399	-32.804	0.208	-0.114
-273.384	-136.463	-0.176	0.020
-272.370	-162.437	-0.106	0.005
-271.355	-61.905	-0.295	-0.121
-270.340	-200.000	-0.042	-0.334
-269.326	-120.639	0.481	-0.080
-268.311	798.903	-0.051	0.139
-267.297	-106.766	0.153	-0.033
-266.282	-200.000	0.114	0.513
-265.267	114.767	-0.154	0.184
-264.253	269.621	-0.093	0.160
-263.238	-200.000	0.015	-0.081
-262.224	87.537	-0.174	-0.189
-261.209	-182.860	0.323	-0.006
-260.195	9.939	0.137	-0.102
-259.180	71.473	-0.104	-0.106
-258.165	63.019	0.129	-0.127
-257.151	-155.448	-0.109	-0.007
-256.136	156.347	0.154	-0.209
-255.122	-200.000	-0.005	-0.110
-254.107	79.837	0.096	-0.101
-253.092	-58.350	-0.166	-0.071
-252.078	-200.000	0.031	-0.257
-251.063	-144.391	0.289	0.026
-250.049	-200.000	0.029	-0.206
-249.034	9.118	-0.066	0.049
-248.019	346.969	-0.043	-0.084
-247.005	-200.000	-0.018	-0.122
-245.990	-200.000	0.047	-0.215
-244.976	-134.669	0.384	-0.046
-243.961	-58.918	-0.172	-0.073
-242.946	-23.553	0.207	-0.122
-241.932	-175.881	0.285	-0.007
-240.917	-200.000	0.013	-0.081
-239.903	-200.000	-0.025	0.205
-238.888	-6.113	0.104	-0.070
-237.873	-29.827	-0.028	-0.016
-236.859	131.762	-0.153	-0.193
-235.844	9.096	-0.184	-0.136
-234.830	-200.000	-0.042	-0.309
-233.815	-200.000	0.023	-0.369
-232.800	-200.000	0.035	-0.312
-231.786	14.950	-0.115	-0.088
-230.771	109.946	-0.156	0.183
-229.757	-169.844	0.297	0.010
-228.742	-200.000	0.033	-0.352
-227.727	242.248	0.053	-0.086
-226.713	-70.208	0.159	0.059
-225.698	-84.560	-0.179	-0.056
-224.684	41.826	-0.153	0.136
-223.669	800.000	0.129	0.376
-222.655	52.498	-0.179	0.168
-221.640	-196.754	0.130	0.001
-220.625	-37.338	-0.240	-0.126
-219.611	-200.000	-0.016	0.113
-218.596	-193.189	-0.095	0.001
-217.582	800.000	0.076	-0.229
-216.567	-200.000	-0.063	0.299
-215.552	-143.943	0.066	-0.006
-214.538	-56.435	0.289	-0.126
-213.523	-200.000	-0.027	0.191
-212.509	310.982	-0.262	0.481
-211.494	604.316	0.226	0.551
-210.479	-200.000	-0.037	0.196
-209.465	-200.000	-0.066	-0.368
-208.450	-121.587	0.150	0.024
-207.436	3.002	-0.065	-0.046
-206.421	-200.000	0.042	-0.232
-205.406	800.000	0.018	0.076
-204.392	-123.372	0.184	0.029
-203.377	-67.505	0.143	-0.055
-202.363	-103.181	-0.125	-0.029
-201.348	-57.407	0.141	0.061
-200.333	1.491	-0.203	0.143
-199.319	-70.203	0.311	0.116
-198.304	-18.245	-0.124	-0.076
-197.290	187.014	-0.052	0.076
-196.275	800.000	-0.027	0.103
-195.260	800.000	0.040	-0.128
-194.246	73.545	0.353	-0.362
-193.231	47.386	-0.246	-0.224
-192.217	37.345	-0.278	0.241
-191.202	-200.000	0.003	-0.025
-190.187	-200.000	0.036	-0.309
-189.173	428.620	0.097	0.206
-188.158	-145.011	0.042	-0.004
-187.144	-61.863	-0.289	0.118
-186.129	173.937	0.120	0.170
-185.114	55.814	-0.104	-0.099
-184.100	417.743	0.124	0.260
-183.085	217.920	0.247	0.386
-182.071	304.327	0.116	-0.210
-181.056	371.046	-0.141	-0.281
-180.042	185.032	0.184	0.267
-179.027	1.674	0.236	-0.166
-178.012	-21.370	0.124	0.074
-176.998	-75.103	0.437	0.153
-175.983	-200.000	-0.027	-0.196
-174.969	-199.829	-0.190	-0.001
-173.954	-81.419	-0.193	0.062
-172.939	13.213	0.192	-0.145
-171.925	-200.000	-0.032	0.225
-170.910	800.000	0.059	0.219
-169.896	650.688	-0.105	-0.264
-168.881	101.851	0.116	-0.132
-167.866	-200.000	-0.025	-0.161
-166.852	-69.907	0.157	-0.058
-165.837	-158.895	0.321	-0.018
-164.823	-5.162	-0.252	0.169
-163.808	-200.000	0.026	0.256
-162.793	26.138	-0.115	-0.094
-161.779	-172.868	0.246	-0.007
-160.764	800.000	0.063	-0.216
-159.750	-103.703	-0.169	-0.039
-158.735	54.891	0.083	0.078
-157.720	114.640	0.078	-0.093
-156.706	800.000	-0.057	-0.184
-155.691	-57.991	-0.278	0.119
-154.677	396.245	0.218	-0.446
-153.662	72.092	-0.188	-0.191
-152.647	-89.746	-0.153	0.044
-151.633	-200.000	-0.014	0.063
-150.618	76.156	0.152	0.157
-149.604	20.238	0.358	0.282
-148.589	366.309	-0.020	-0.040
-147.574	-90.743	0.450	-0.127
-146.560	231.150	0.071	0.113
-145.545	322.191	-0.023	-0.042
-144.531	800.000	0.034	-0.132
-143.516	-200.000	-0.006	-0.412
-142.502	76.833	-0.040	-0.042
-141.487	-65.074	0.122	0.048
-140.472	-19.639	-0.483	-0.292
-139.458	46.061	0.213	-0.193
-138.443	-103.365	-0.354	-0.082
-137.429	-56.823	0.337	0.146
-136.414	55.454	-0.228	0.216
-135.399	-75.633	0.240	-0.083
-134.385	622.449	-0.080	0.198
-133.370	253.335	-0.057	0.095
-132.356	-155.309	0.253	-0.016
-131.341	5.881	0.205	0.148
-130.326	65.152	-0.163	-0.161
-129.312	800.000	-0.060	-0.189
-128.297	-35.069	0.026	0.014
-127.283	1.759	0.096	0.067
-126.268	-200.000	0.021	0.232
-125.253	160.479	0.123	0.168
-124.239	-140.910	-0.043	-0.004
-123.224	-35.828	0.238	0.126
-122.210	149.747	-0.084	-0.112
-121.195	768.096	-0.050	-0.133
-120.180	62.641	0.254	-0.248
-119.166	639.187	-0.068	0.168
-118.151	-200.000	0.010	0.086
-117.137	244.168	-0.237	0.389
-116.122	28.193	0.156	0.129
-115.107	-94.761	0.316	-0.084
-114.093	-200.000	0.031	0.135
-113.078	-200.000	0.545	0.001
-112.064	10.677	-0.211	0.157
-111.049	117.104	0.152	0.182
-110.034	-200.000	-0.034	0.181
-109.020	-200.000	-0.007	-0.100
-108.005	18.849	0.100	0.078
-106.991	507.043	0.037	0.083
-105.976	134.342	-0.150	-0.190
-104.962	-61.369	-0.296	-0.122
-103.947	-200.000	-0.052	0.267
-102.932	-44.088	-0.312	-0.153
-101.918	61.197	0.143	-0.139
-100.903	800.000	0.078	-0.236
-99.889	694.624	0.142	-0.364
-98.874	-107.355	-0.150	-0.032
-97.859	88.482	-0.065	0.070
-96.845	800.000	-0.089	0.273
-95.830	-200.000	-0.042	-0.389
-94.816	-145.388	-0.225	-0.020
-93.801	-54.808	0.263	-0.116
-92.786	800.000	0.079	-0.271
-91.772	-17.250	0.204	0.125
-90.757	-108.937	-0.198	0.041
-89.743	-88.370	-0.272	0.079
-88.728	77.418	0.044	0.046
-87.713	0.398	-0.013	0.009
-86.699	-114.030	0.255	0.048
-85.684	-57.346	0.158	0.068
-84.670	8.032	-0.214	-0.156
-83.655	141.446	-0.200	-0.259
-82.640	355.112	-0.152	-0.295
-81.626	-58.045	0.240	-0.102
-80.611	-200.000	-0.040	-0.311
-79.597	-92.389	-0.261	-0.072
-78.582	800.000	-0.055	-0.193
-77.567	-82.038	0.242	0.077
-76.553	170.212	0.082	0.114
-75.538	42.796	-0.325	-0.288
-74.524	-168.974	0.027	0.001
-73.509	-21.822	-0.042	0.025
-72.494	-18.133	0.272	-0.166
-71.480	96.530	-0.180	0.201
-70.465	-38.376	-0.113	-0.058
-69.451	-76.048	-0.413	0.142
-68.436	-200.000	-0.018	-0.281
-67.422	4.081	0.225	-0.161
-66.407	38.022	-0.025	0.021
-65.392	-146.154	0.191	-0.016
-64.378	-140.501	-0.187	-0.019
-63.363	-189.596	0.281	-0.003
-62.349	77.096	0.152	0.158
-61.334	79.793	-0.988	-1.034
-60.319	-20.357	0.986	0.591
-59.305	376.290	-0.558	-1.110
-58.290	191.950	0.975	1.432
-57.276	800.000	0.516	1.442
-56.261	-200.000	121.429	610.968
-55.246	397.746	1555.062	3167.988
-54.232	142.979	2728.277	3533.837
-53.217	89.116	2310.120	2505.963
-52.203	32.839	1917.101	1616.439
-51.188	26.879	1710.137	1396.166
-50.173	24.636	1670.347	1346.743
-49.159	44.699	1736.916	1555.674
-48.144	42.792	1749.276	1551.995
-47.130	26.452	1700.821	1385.069
-46.115	23.966	1685.748	1353.849
-45.100	23.825	1680.747	1348.704
-44.086	23.822	1678.857	1347.115
-43.071	23.774	1675.639	1344.119
-42.057	23.727	1673.433	1341.936
-41.042	23.783	1671.088	1340.424
-40.027	23.757	1669.585	1338.973
-39.013	23.801	1667.653	1337.700
-37.998	23.714	1666.526	1336.091
-36.984	23.732	1664.539	1334.578
-35.969	23.797	1663.302	1334.024
-34.954	23.902	1661.779	1333.532
-33.940	23.838	1660.335	1331.846
-32.925	23.897	1658.404	1330.687
-31.911	23.827	1656.885	1328.887
-30.896	23.850	1655.346	1327.774
-29.881	23.896	1653.541	1326.615
-28.867	23.863	1652.026	1325.104
-27.852	23.857	1650.553	1323.824
-26.838	23.923	1648.935	1322.966
-25.823	23.955	1647.525	1322.016
-24.809	23.901	1646.332	1320.605
-23.794	23.931	1644.826	1319.570
-22.779	23.910	1643.595	1318.373
-21.765	23.858	1642.059	1316.702
-20.750	23.848	1640.248	1315.128
-19.736	23.879	1639.036	1314.330
-18.721	23.931	1637.286	1313.260
-17.706	23.870	1635.745	1311.519
-16.692	23.867	1634.143	1310.164
-15.677	23.858	1632.892	1309.039
-14.663	24.013	1631.482	1308.998
-13.648	23.890	1630.592	1307.327
-12.633	23.861	1629.047	1305.825
-11.619	23.981	1626.814	1304.865
-10.604	23.943	1625.243	1303.276
-9.590	23.883	1624.443	1302.139
-8.575	24.013	1622.859	1301.768
-7.560	23.845	1621.709	1299.566
-6.546	23.908	1620.805	1299.250
-5.531	23.949	1619.829	1298.718
-4.517	23.863	1618.620	1297.069
-3.502	23.997	1616.986	1296.688
-2.487	24.006	1615.616	1295.603
-1.473	23.713	1604.213	1284.289
-0.458	21.186	1584.984	1250.765
0.556	16.381	1587.744	1222.699
1.571	14.381	1611.802	1226.411
2.586	14.076	1624.351	1233.588
3.600	12.900	1569.587	1183.454
4.615	7.041	1460.693	1062.022
5.629	1.395	1400.833	981.989
6.644	0.319	1393.806	970.051
7.659	0.177	1392.926	968.439
8.673	0.123	1392.083	967.422
9.688	0.191	1389.521	965.988
10.702	-0.036	1386.387	962.272
11.717	2.818	1390.413	983.283
12.731	9.861	1400.949	1035.984
13.746	15.300	1408.661	1076.610
14.761	16.694	1410.029	1086.509
15.775	16.128	1408.431	1081.551
16.790	15.132	1405.905	1073.140
17.804	14.413	1403.564	1066.655
18.819	14.129	1401.765	1063.376
19.834	13.907	1400.636	1061.014
20.848	13.591	1399.517	1058.049
21.863	13.462	1398.040	1056.019
22.877	13.263	1396.404	1053.422
23.892	13.129	1396.059	1052.213
24.907	13.022	1395.473	1050.999
25.921	13.082	1394.624	1050.648
26.936	13.139	1393.521	1050.085
27.950	13.262	1391.950	1049.588
28.965	13.391	1391.132	1049.700
29.980	13.345	1390.657	1048.954
30.994	13.347	1389.487	1047.995
32.009	13.413	1388.230	1047.370
33.023	13.349	1387.220	1046.111
34.038	13.385	1385.819	1045.190
35.053	13.279	1384.687	1043.571
36.067	13.329	1383.823	1043.149
37.082	13.312	1382.779	1042.162
38.096	13.237	1381.958	1040.976
39.111	13.373	1380.870	1040.923
40.126	13.229	1379.987	1039.255
41.140	13.199	1379.368	1038.513
42.155	13.161	1378.943	1037.859
43.169	13.047	1379.271	1037.299
44.184	13.152	1378.638	1037.389
45.199	13.191	1377.825	1036.929
46.213	13.241	1377.070	1036.582
47.228	13.307	1376.337	1036.356
48.242	13.244	1375.120	1034.951
49.257	13.146	1374.083	1033.471
50.271	13.278	1372.354	1032.902
51.286	13.269	1371.014	1031.742
52.301	13.257	1369.561	1030.486
53.315	13.137	1369.073	1029.279
54.330	13.138	1367.940	1028.344
55.344	13.193	1366.704	1027.663
56.359	13.216	1365.357	1026.705
57.374	13.153	1364.472	1025.554
58.388	13.158	1364.127	1025.237
59.403	13.039	1363.610	1024.019
60.417	13.168	1362.255	1023.712
61.432	13.056	1361.809	1022.592
62.447	13.012	1361.042	1021.653
63.461	13.002	1359.629	1020.442
64.476	13.058	1358.273	1019.678
65.490	13.062	1356.911	1018.590
66.505	13.033	1355.485	1017.248
67.520	13.108	1354.212	1016.666
68.534	13.075	1353.518	1015.850
69.549	13.180	1352.148	1015.378
70.563	13.189	1350.499	1014.107
71.578	13.100	1349.966	1013.073
72.593	12.999	1349.194	1011.782
73.607	12.990	1348.233	1010.919
74.622	12.987	1347.547	1010.297
75.636	13.026	1346.718	1009.824
76.651	13.022	1345.676	1008.926
77.666	13.017	1345.561	1008.722
78.680	13.000	1344.576	1007.790
79.695	13.084	1343.387	1007.319
80.709	13.044	1342.864	1006.597
81.724	13.033	1342.390	1006.086
82.739	13.177	1340.685	1005.597
83.753	13.163	1340.276	1005.114
84.768	13.217	1338.809	1004.256
85.782	13.360	1337.520	1004.065
86.797	13.241	1336.467	1002.463
87.812	13.219	1335.107	1001.220
88.826	13.131	1334.203	999.924
89.841	13.298	1333.238	1000.122
90.855	13.273	1331.937	998.906
91.870	13.317	1331.212	998.538
92.884	13.240	1330.578	997.513
93.899	13.404	1329.621	997.696
94.914	13.408	1328.430	996.737
95.928	13.420	1327.496	996.019
96.943	13.364	1326.891	995.138
97.957	13.238	1325.990	993.618
98.972	13.341	1324.751	993.221
99.987	13.297	1323.392	991.849
101.001	13.399	1322.103	991.408
102.016	13.323	1321.583	990.475
103.030	13.259	1320.751	989.380
104.045	13.347	1319.936	989.208
105.060	13.206	1319.158	987.698
106.074	13.162	1317.471	986.081
107.089	13.066	1316.245	984.504
108.103	13.077	1315.353	983.816
109.118	13.233	1313.361	983.171
110.133	13.136	1311.779	981.323
111.147	13.135	1310.812	980.506
112.162	13.140	1309.782	979.674
113.176	13.096	1308.654	978.488
114.191	13.219	1307.706	978.418
115.206	13.247	1306.343	977.477
116.220	13.219	1304.705	975.998
117.235	13.245	1304.135	975.639
118.249	13.089	1303.501	974.163
119.264	13.213	1301.766	973.509
120.279	13.148	1300.698	972.243
121.293	13.182	1299.262	971.279
122.308	13.201	1298.535	970.766
123.322	13.110	1297.808	969.597
124.337	13.142	1296.537	968.751
125.352	13.051	1295.562	967.404
126.366	13.216	1293.756	966.937
127.381	13.110	1292.932	965.614
128.395	13.132	1291.364	964.490
129.410	13.165	1290.854	964.214
130.424	13.133	1290.764	963.872
131.439	13.245	1288.802	962.973
132.454	13.116	1288.127	961.634
133.468	13.234	1287.080	961.455
134.483	13.207	1286.024	960.426
135.497	13.199	1285.323	959.769
136.512	13.314	1283.568	959.039
137.527	13.231	1282.542	957.710
138.541	13.154	1281.209	956.183
139.556	13.298	1279.618	955.745
140.570	13.162	1279.228	954.584
141.585	13.250	1277.414	953.652
142.600	13.361	1276.662	953.646
143.614	13.309	1275.944	952.727
144.629	13.285	1274.531	951.450
145.643	13.387	1273.309	951.040
146.658	13.348	1272.100	949.826
147.673	13.352	1270.456	948.541
148.687	13.303	1269.383	947.371
149.702	13.270	1267.996	946.066
150.716	13.265	1266.946	945.167
151.731	13.296	1265.325	944.056
152.746	13.389	1264.544	943.918
153.760	13.409	1262.981	942.779
154.775	13.387	1262.423	942.154
155.789	13.522	1260.765	941.604
156.804	13.574	1259.611	940.954
157.819	13.501	1258.490	939.620
158.833	13.448	1258.141	938.972
159.848	13.552	1257.000	938.631
160.862	13.533	1255.865	937.591
161.877	13.435	1254.913	936.245
162.892	13.424	1253.589	935.107
163.906	13.477	1252.756	934.703
164.921	13.410	1252.446	934.015
165.935	13.484	1251.237	933.445
166.950	13.446	1249.959	932.197
167.964	13.590	1249.326	932.451
168.979	13.461	1248.982	931.388
169.994	13.534	1247.745	930.789
171.008	13.593	1247.170	930.612
172.023	13.647	1246.313	930.193
173.037	13.534	1246.406	929.546
174.052	13.660	1244.680	928.883
175.067	13.590	1244.041	927.929
176.081	13.668	1242.858	927.401
177.096	13.595	1242.039	926.300
178.110	13.626	1240.340	925.128
179.125	13.697	1239.319	924.678
180.140	13.613	1238.048	923.183
181.154	13.692	1237.152	922.870
182.169	13.702	1236.012	921.994
183.183	13.630	1235.090	920.822
184.198	13.722	1233.816	920.303
185.213	13.744	1232.297	919.213
186.227	13.741	1231.490	918.510
187.242	13.791	1230.492	917.962
188.256	13.824	1229.489	917.317
189.271	13.845	1228.610	916.697
190.286	13.716	1227.367	914.974
191.300	13.619	1226.719	913.876
192.315	13.766	1225.492	913.692
193.329	13.693	1225.347	913.099
194.344	13.824	1224.162	912.853
195.359	13.782	1224.031	912.446
196.373	13.785	1223.648	912.098
197.388	13.880	1223.052	912.093
198.402	13.970	1221.895	911.644
199.417	13.965	1221.723	911.408
200.432	13.990	1220.673	910.682
201.446	14.003	1219.811	910.027
202.461	14.146	1219.308	910.355
203.475	14.123	1217.876	909.081
204.490	14.119	1216.593	908.020
205.504	14.001	1215.515	906.489
206.519	14.095	1213.997	905.793
207.534	13.971	1213.164	904.413
208.548	13.993	1212.095	903.656
209.563	14.081	1211.411	903.547
210.577	14.084	1210.667	902.927
211.592	14.121	1209.967	902.525
212.607	14.156	1209.058	901.959
213.621	14.100	1208.175	900.917
214.636	14.225	1206.531	900.288
215.650	14.210	1206.256	899.923
216.665	14.168	1205.368	898.952
217.680	14.213	1204.444	898.425
218.694	14.210	1203.770	897.828
219.709	14.272	1202.714	897.296
220.723	14.371	1201.396	896.765
221.738	14.241	1201.406	895.993
222.753	14.268	1200.672	895.512
223.767	14.238	1199.617	894.485
224.782	14.322	1199.060	894.442
225.796	14.306	1198.896	894.153
226.811	14.478	1197.580	894.013
227.826	14.348	1197.024	892.825
228.840	14.412	1196.050	892.360
229.855	14.378	1195.841	891.945
230.869	14.287	1194.910	890.683
231.884	14.288	1193.997	889.933
232.899	14.247	1193.237	889.066
233.913	14.388	1192.338	889.072
234.928	14.430	1191.393	888.512
235.942	14.352	1190.664	887.475
236.957	14.462	1189.521	887.126
237.972	14.323	1189.228	886.091
238.986	14.340	1188.524	885.578
240.001	14.505	1187.554	885.656
241.015	14.360	1187.006	884.398
242.030	14.437	1185.617	883.693
243.045	14.501	1185.234	883.669
244.059	14.345	1184.445	882.175
245.074	14.476	1183.945	882.419
246.088	14.473	1182.832	881.493
247.103	14.496	1182.309	881.148
248.117	14.591	1181.411	880.901
249.132	14.652	1180.306	880.321
250.147	14.719	1179.832	880.244
251.161	14.644	1179.071	879.206
252.176	14.832	1177.905	879.246
253.190	14.825	1177.705	878.983
254.205	14.762	1176.961	878.016
255.220	14.768	1176.602	877.704
256.234	14.913	1175.353	877.456
257.249	14.840	1175.202	876.880
258.263	14.830	1174.283	876.068
259.278	15.026	1173.481	876.417
260.293	14.927	1173.482	875.820
261.307	14.962	1172.973	875.550
262.322	15.003	1171.935	874.910
263.336	14.989	1171.297	874.282
264.351	15.015	1170.627	873.839
265.366	15.033	1170.027	873.408
266.380	14.997	1169.389	872.669
267.395	15.038	1168.168	871.894
268.409	15.012	1167.724	871.350
269.424	15.062	1167.004	870.996
270.439	15.008	1166.529	870.285
271.453	14.986	1165.910	869.631
272.468	14.995	1165.024	868.941
273.482	14.975	1164.597	868.441
274.497	14.972	1164.112	867.986
275.512	15.043	1163.162	867.569
276.526	15.106	1162.102	867.026
277.541	15.067	1161.324	866.171
278.555	15.129	1160.419	865.740
279.570	15.169	1159.730	865.354
280.585	15.208	1158.902	864.858
281.599	15.209	1158.277	864.323
282.614	15.246	1156.980	863.470
283.628	15.236	1156.100	862.682
284.643	15.206	1154.973	861.612
285.657	15.231	1154.449	861.271
286.672	15.246	1153.106	860.271
287.687	15.277	1152.410	859.836
288.701	15.314	1151.668	859.397
289.716	15.318	1150.661	858.588
290.730	15.452	1149.928	858.654
291.745	15.208	1149.968	857.359
292.760	15.364	1149.022	857.372
293.774	15.397	1148.003	856.705
294.789	15.479	1147.381	856.586
295.803	15.413	1147.037	855.915
296.818	15.404	1146.462	855.363
297.833	15.385	1145.843	854.729
298.847	15.284	1145.139	853.618
299.862	15.460	1143.814	853.449
300.876	15.501	1143.284	853.185
301.891	15.574	1142.308	852.751
302.906	15.526	1141.669	851.956
303.920	15.657	1141.244	852.226
304.935	15.589	1140.371	851.158
305.949	15.645	1139.767	850.911
306.964	15.601	1138.990	850.033
307.979	15.703	1138.092	849.807
308.993	15.617	1137.266	848.676
310.008	15.744	1136.678	848.808
311.022	15.791	1136.158	848.579
312.037	15.763	1134.638	847.228
313.052	15.685	1133.838	846.164
314.066	15.604	1133.014	845.064
315.081	15.613	1132.400	844.581
316.095	15.568	1131.757	843.799
317.110	15.596	1130.917	843.238
318.125	15.654	1130.218	842.931
319.139	15.734	1129.847	842.982
320.154	15.742	1128.829	842.187
321.168	15.611	1128.180	840.973
322.183	15.769	1127.489	841.175
323.197	15.736	1126.871	840.475
324.212	15.739	1126.344	840.019
325.227	15.660	1126.127	839.393
326.241	15.792	1125.342	839.390
327.256	15.680	1124.598	838.205
328.270	15.805	1123.524	837.949
329.285	15.795	1122.339	836.941
330.300	15.624	1121.913	835.699
331.314	15.741	1120.915	835.465
332.329	15.806	1119.721	834.825
333.343	15.869	1118.862	834.424
334.358	15.789	1118.138	833.409
335.373	15.842	1117.469	833.101
336.387	15.827	1116.499	832.233
337.402	16.077	1115.312	832.508
338.416	15.937	1115.589	831.948
339.431	15.941	1114.221	830.875
340.446	16.140	1113.774	831.451
341.460	15.985	1113.475	830.385
342.475	16.071	1112.350	829.898
343.489	16.112	1111.672	829.523
344.504	16.208	1110.323	828.911
345.519	16.172	1109.895	828.341
346.533	16.310	1108.627	828.002
347.548	16.159	1108.618	827.181
348.562	16.162	1107.281	826.122
349.577	16.196	1106.600	825.707
350.592	16.182	1105.462	824.718
351.606	16.148	1104.924	824.076
352.621	16.160	1104.011	823.381
353.635	16.278	1103.450	823.466
354.650	16.166	1102.706	822.294
355.665	16.294	1102.160	822.436
356.679	16.226	1101.768	821.738
357.694	16.248	1100.898	821.126
358.708	16.214	1100.116	820.303
359.723	16.373	1099.591	820.612
360.738	16.208	1099.035	819.322
361.752	16.327	1098.342	819.314
362.767	16.329	1097.778	818.829
363.781	16.455	1097.211	818.944
364.796	16.366	1096.872	818.188
365.810	16.513	1095.898	818.100
366.825	16.533	1095.158	817.572
367.840	16.520	1094.816	817.182
368.854	16.620	1094.110	817.063
369.869	16.578	1093.068	816.014
370.883	16.535	1092.769	815.507
371.898	16.491	1091.816	814.515
372.913	16.620	1091.374	814.732
373.927	16.581	1090.798	814.041
374.942	16.640	1090.137	813.761
375.956	16.728	1089.728	813.808
376.971	16.618	1089.259	812.855
377.986	16.647	1088.532	812.381
379.000	16.752	1087.693	812.186
380.015	16.677	1087.429	811.561
381.029	16.713	1086.357	810.858
382.044	16.730	1086.116	810.690
383.059	16.816	1085.100	810.269
384.073	16.722	1084.939	809.630
385.088	16.782	1083.452	808.732
386.102	16.819	1083.016	808.514
387.117	16.818	1081.693	807.448
388.132	16.755	1080.902	806.486
389.146	16.842	1080.055	806.199
390.161	16.922	1078.881	805.629
391.175	16.834	1078.538	804.884
392.190	16.903	1077.823	804.608
393.205	17.025	1076.721	804.292
394.219	16.932	1076.323	803.484
395.234	16.954	1075.156	802.646
396.248	16.954	1074.398	802.008
397.263	16.956	1073.463	801.248
398.278	16.838	1072.658	800.019
399.292	16.857	1072.159	799.667
400.307	16.898	1071.169	799.051
401.321	16.951	1070.663	798.854
402.336	16.864	1069.987	797.866
403.350	16.939	1069.489	797.779
404.365	16.967	1068.668	797.225
405.380	16.904	1068.067	796.410
406.394	17.028	1067.285	796.339
407.409	17.030	1066.661	795.813
408.423	17.097	1065.792	795.407
409.438	17.128	1065.249	795.079
410.453	17.046	1064.652	794.178
411.467	17.189	1063.811	794.149
412.482	17.192	1063.228	793.659
413.496	17.234	1062.289	793.082
414.511	17.277	1062.011	793.004
415.526	17.387	1061.225	792.863
416.540	17.347	1060.619	792.154
417.555	17.245	1060.215	791.307
418.569	17.269	1060.016	791.199
419.584	17.376	1059.332	791.114
420.599	17.308	1058.976	790.464
421.613	107.117	1330.674	1486.818
422.628	98.807	1370.225	1486.891
