DTS Sentinel unit serial number:	SN413079Multiplexer serial number:	ORYXHardware model number:	OX4-SRSoftware version number:	ORYX F/W v4.00 Oryx Data Collector v3.7.2.0data status	okinstallation	princeton_trtdifferential loss correction	single-endedforward channel	channel 2reverse channel	N/Adate	2019/09/12time	22:55:35forward acquisition time	60.00reverse acquisition time	0.00gamma	496.2192k internal	0.2332k external	0.2332temperature offset calibration	1.0172default loss term (dB/km)	0.3790temperature slope calibration	1.0000multiplexer offset coefficient	1.0000multiplexer slope coefficient	1.0000fibre end	0.00T internal ref (°C)	29.39T ext. ref 1 (°C)	3.73T ext. ref 2 (°C)	23.95length (m)	temperature (°C)	Stokes	anti-Stokes-747.200	-200.000	-0.016	-0.072
-746.185	-106.130	-0.277	0.063
-745.171	-83.448	0.318	0.103
-744.156	72.373	-0.286	-0.300
-743.142	800.000	-0.037	-0.110
-742.127	-200.000	0.012	0.159
-741.112	-5.952	0.083	0.057
-740.098	-200.000	0.003	0.289
-739.083	197.054	-0.172	-0.264
-738.069	99.578	0.046	-0.054
-737.054	38.352	-0.284	0.255
-736.039	-200.000	-0.280	0.001
-735.025	29.273	0.060	0.051
-734.010	-200.000	-0.009	-0.098
-732.996	-139.231	-0.231	-0.025
-731.981	-200.000	0.022	-0.124
-730.966	669.017	0.034	-0.089
-729.952	651.920	-0.047	0.122
-728.937	-200.000	-0.025	-0.182
-727.923	-123.890	-0.241	-0.038
-726.908	-103.631	-0.366	-0.086
-725.894	574.305	0.068	-0.167
-724.879	-200.000	0.007	-0.031
-723.864	-106.209	-0.143	0.032
-722.850	-74.738	-0.106	-0.038
-721.835	-127.549	-0.204	-0.030
-720.821	-72.773	0.374	-0.139
-719.806	-68.998	0.197	-0.076
-718.791	800.000	-0.101	-0.398
-717.777	800.000	-0.052	-0.165
-716.762	-99.716	-0.053	-0.013
-715.748	19.070	-0.125	0.101
-714.733	538.860	-0.059	0.141
-713.718	-82.659	0.337	0.110
-712.704	183.766	0.184	0.273
-711.689	86.413	-0.257	-0.285
-710.675	-65.062	0.192	0.078
-709.660	28.597	0.088	0.075
-708.645	-48.037	-0.084	-0.041
-707.631	-117.232	-0.207	0.038
-706.616	-90.019	-0.207	-0.061
-705.602	497.440	0.109	-0.253
-704.587	518.963	-0.055	0.129
-703.572	222.242	0.201	-0.325
-702.558	114.955	-0.122	0.149
-701.543	33.631	0.173	-0.151
-700.529	220.133	-0.206	-0.332
-699.514	-80.287	0.161	-0.054
-698.499	251.147	-0.161	-0.274
-697.485	-46.639	-0.131	-0.064
-696.470	36.963	0.178	-0.158
-695.456	-200.000	-0.006	-0.029
-694.441	-97.921	-0.105	0.027
-693.426	-24.269	0.226	-0.136
-692.412	-200.000	-0.019	0.188
-691.397	-71.028	-0.111	-0.042
-690.383	39.790	-0.499	-0.450
-689.368	-200.000	-0.010	0.223
-688.354	93.964	0.111	-0.127
-687.339	427.446	-0.015	0.033
-686.324	384.287	0.153	0.317
-685.310	15.598	0.427	0.337
-684.295	800.000	-0.074	0.292
-683.281	-45.578	0.271	0.135
-682.266	-200.000	0.001	-0.012
-681.251	-74.334	0.456	-0.165
-680.237	-200.000	0.019	-0.114
-679.222	8.612	-0.128	0.096
-678.208	119.607	0.085	-0.105
-677.193	-106.814	0.336	0.075
-676.178	800.000	-0.061	-0.197
-675.164	800.000	-0.088	0.252
-674.149	25.189	0.281	-0.234
-673.135	165.430	0.186	-0.263
-672.120	-41.340	-0.061	0.032
-671.105	800.000	0.086	-0.312
-670.091	-11.404	-0.186	0.122
-669.076	-178.489	-0.124	-0.003
-668.062	220.284	-0.183	-0.295
-667.047	800.000	0.044	-0.154
-666.032	23.240	0.125	0.103
-665.018	721.386	-0.083	0.222
-664.003	42.565	0.129	0.118
-662.989	166.619	0.143	0.204
-661.974	95.448	0.188	-0.215
-660.959	-98.879	0.319	-0.081
-659.945	800.000	0.055	0.162
-658.930	-66.165	0.184	-0.074
-657.916	-90.178	0.024	-0.007
-656.901	658.973	0.112	0.289
-655.886	-130.452	-0.290	0.039
-654.872	-61.014	-0.329	0.139
-653.857	82.320	0.063	-0.068
-652.843	203.324	0.015	-0.024
-651.828	23.788	0.165	-0.137
-650.814	-200.000	0.006	0.100
-649.799	-200.000	0.035	-0.227
-648.784	-102.728	-0.093	-0.022
-647.770	800.000	-0.117	-0.325
-646.755	269.940	-0.197	-0.347
-645.741	-200.000	-0.316	-0.001
-644.726	324.381	0.034	-0.066
-643.711	117.818	0.061	-0.075
-642.697	374.865	0.032	0.066
-641.682	-81.460	0.101	-0.033
-640.668	-200.000	-0.007	-0.098
-639.653	21.544	0.144	0.117
-638.638	128.627	-0.097	0.124
-637.624	-48.076	-0.170	-0.082
-636.609	-50.910	0.061	0.029
-635.595	800.000	0.097	-0.334
-634.580	-162.531	-0.223	-0.011
-633.565	464.781	-0.086	0.193
-632.551	-200.000	-0.039	-0.281
-631.536	800.000	-0.125	-0.360
-630.522	15.926	0.137	0.108
-629.507	-64.573	-0.144	0.059
-628.492	63.006	-0.086	-0.086
-627.478	451.922	0.114	-0.252
-626.463	-79.224	0.533	-0.181
-625.449	-98.177	-0.225	0.058
-624.434	22.072	0.055	0.045
-623.419	245.155	-0.198	-0.334
-622.405	-123.393	0.443	-0.071
-621.390	-47.660	0.251	0.122
-620.376	213.592	0.101	-0.160
-619.361	385.634	-0.119	0.247
-618.346	53.440	-0.128	-0.122
-617.332	-94.332	0.198	-0.054
-616.317	635.299	-0.057	-0.144
-615.303	-200.000	0.002	-0.079
-614.288	-0.028	-0.202	-0.144
-613.273	-7.308	0.195	-0.132
-612.259	6.873	0.106	-0.079
-611.244	-77.267	-0.222	0.077
-610.230	297.342	0.132	-0.242
-609.215	-86.927	-0.309	-0.094
-608.201	34.569	-0.232	0.203
-607.186	-50.312	0.247	0.117
-606.171	160.586	-0.199	0.278
-605.157	758.091	-0.098	-0.266
-604.142	-49.007	0.186	-0.089
-603.128	-32.705	0.491	-0.274
-602.113	-21.217	0.219	0.134
-601.098	-62.331	-0.085	-0.036
-600.084	173.569	0.068	-0.098
-599.069	119.435	0.121	0.150
-598.055	-77.082	0.436	-0.152
-597.040	20.182	0.020	-0.016
-596.025	74.042	0.150	-0.157
-595.011	-135.720	0.294	-0.035
-593.996	-200.000	-0.005	0.262
-592.982	4.729	-0.230	0.169
-591.967	-32.125	-0.144	-0.081
-590.952	57.876	0.188	0.184
-589.938	-76.863	0.233	0.081
-588.923	800.000	-0.031	-0.097
-587.909	-200.000	0.010	0.050
-586.894	-146.690	-0.111	-0.010
-585.879	219.007	-0.106	-0.170
-584.865	538.132	-0.145	-0.345
-583.850	220.054	0.057	-0.091
-582.836	7.045	0.071	0.053
-581.821	-200.000	-0.005	-0.106
-580.806	-80.899	0.058	-0.019
-579.792	157.631	-0.048	-0.066
-578.777	142.228	0.227	0.301
-577.763	-125.967	-0.290	-0.044
-576.748	-115.933	-0.150	-0.028
-575.733	-175.856	-0.225	0.006
-574.719	-25.327	-0.261	0.154
-573.704	57.090	0.302	0.295
-572.690	-23.977	0.535	0.320
-571.675	460.834	0.121	-0.269
-570.661	240.697	-0.158	-0.263
-569.646	-63.835	0.079	0.032
-568.631	391.011	0.130	-0.270
-567.617	113.530	0.080	-0.097
-566.602	239.088	0.192	-0.319
-565.588	-149.617	-0.228	-0.018
-564.573	-200.000	-0.058	0.528
-563.558	-200.000	-0.029	-0.358
-562.544	-200.000	-0.072	-0.355
-561.529	-200.000	0.005	0.151
-560.515	-32.862	-0.194	0.108
-559.500	59.579	0.157	-0.154
-558.485	754.375	-0.170	-0.460
-557.471	-45.571	-0.146	0.072
-556.456	-200.000	0.059	0.334
-555.442	800.000	-0.074	0.211
-554.427	-9.298	-0.210	-0.140
-553.412	-157.601	0.006	0.000
-552.398	-22.854	0.072	0.044
-551.383	-27.739	-0.050	0.029
-550.369	150.985	0.127	0.172
-549.354	-200.000	-0.003	-0.388
-548.339	-19.938	-0.128	0.079
-547.325	-12.074	-0.249	-0.163
-546.310	478.354	0.106	0.240
-545.296	-90.178	-0.310	-0.090
-544.281	-130.415	-0.318	-0.043
-543.266	-82.001	0.283	-0.092
-542.252	687.797	-0.075	-0.195
-541.237	62.351	-0.233	-0.232
-540.223	107.249	0.093	-0.110
-539.208	118.510	-0.078	0.096
-538.193	-96.818	0.222	0.058
-537.179	-200.000	0.009	0.123
-536.164	-169.221	0.277	-0.010
-535.150	-58.019	-0.420	-0.183
-534.135	24.844	-0.163	0.135
-533.121	-147.954	-0.160	0.013
-532.106	195.941	-0.049	0.074
-531.091	800.000	0.007	-0.023
-530.077	-111.269	0.291	0.059
-529.062	-137.281	-0.563	-0.064
-528.048	-123.549	-0.381	-0.060
-527.033	144.315	0.099	0.132
-526.018	-163.057	-0.046	0.002
-525.004	800.000	-0.062	-0.222
-523.989	-141.244	-0.174	-0.018
-522.975	59.842	0.086	-0.084
-521.960	508.323	0.143	-0.331
-520.945	-200.000	-0.004	0.222
-519.931	-28.305	0.236	0.136
-518.916	-167.160	-0.350	0.014
-517.902	415.920	-0.119	-0.253
-516.887	800.000	-0.071	-0.297
-515.872	54.792	0.125	0.121
-514.858	476.635	0.176	-0.396
-513.843	800.000	0.076	-0.216
-512.829	-8.247	-0.076	0.051
-511.814	-200.000	-0.033	0.285
-510.799	800.000	-0.076	0.264
-509.785	21.645	0.263	-0.213
-508.770	-200.000	-0.057	-0.279
-507.756	14.057	-0.406	-0.315
-506.741	-70.709	-0.268	-0.101
-505.726	800.000	-0.051	-0.198
-504.712	575.809	0.035	-0.086
-503.697	33.148	0.163	0.141
-502.683	-200.000	-0.031	-0.237
-501.668	46.562	-0.093	-0.086
-500.653	27.314	-0.194	-0.162
-499.639	-97.704	0.241	-0.062
-498.624	707.648	-0.092	0.241
-497.610	-98.243	-0.272	0.070
-496.595	8.256	0.100	0.075
-495.581	174.760	0.223	-0.322
-494.566	-200.000	0.003	0.020
-493.551	-200.000	0.040	-0.353
-492.537	-3.931	0.103	-0.071
-491.522	-46.637	0.126	-0.062
-490.508	-142.016	-0.297	0.029
-489.493	-200.000	-0.064	0.286
-488.478	70.271	0.216	0.222
-487.464	-180.689	0.225	-0.005
-486.449	-11.581	0.066	-0.043
-485.435	-200.000	0.018	0.159
-484.420	-67.594	-0.247	-0.097
-483.405	-200.000	-0.002	-0.057
-482.391	366.074	0.114	-0.230
-481.376	177.347	0.163	-0.236
-480.362	-156.231	0.354	0.022
-479.347	800.000	0.064	0.190
-478.332	25.913	-0.062	0.052
-477.318	-89.801	-0.121	0.035
-476.303	49.698	0.325	0.305
-475.289	-98.957	0.197	0.050
-474.274	219.213	-0.061	0.097
-473.259	-183.385	-0.333	-0.006
-472.245	-102.679	0.440	-0.104
-471.230	-155.130	-0.442	0.029
-470.216	-39.049	-0.351	-0.184
-469.201	-200.000	-0.021	0.144
-468.186	222.725	0.238	0.381
-467.172	800.000	0.082	-0.352
-466.157	68.403	-0.101	0.103
-465.143	-95.134	-0.150	-0.040
-464.128	182.126	-0.098	-0.143
-463.113	-131.542	-0.110	0.014
-462.099	19.910	-0.097	0.078
-461.084	-122.619	-0.051	0.008
-460.070	800.000	-0.052	-0.174
-459.055	5.295	0.198	-0.145
-458.040	-128.013	0.349	0.050
-457.026	11.126	-0.066	-0.051
-456.011	253.030	0.098	0.166
-454.997	-110.525	-0.253	-0.052
-453.982	106.947	0.036	0.043
-452.968	51.885	-0.023	-0.021
-451.953	29.654	0.099	0.084
-450.938	-112.771	-0.082	0.016
-449.924	132.496	0.192	0.246
-448.909	17.562	-0.345	-0.273
-447.895	286.869	-0.042	-0.075
-446.880	-132.608	0.218	-0.028
-445.865	-39.228	-0.332	0.174
-444.851	217.152	-0.145	0.230
-443.836	-200.000	0.004	-0.125
-442.822	-200.000	0.021	0.270
-441.807	130.973	-0.044	-0.056
-440.792	-89.492	0.142	-0.042
-439.778	-83.341	-0.211	-0.067
-438.763	-17.459	-0.252	0.157
-437.749	800.000	-0.092	-0.263
-436.734	-168.343	-0.147	0.006
-435.719	-88.074	-0.223	-0.067
-434.705	326.305	-0.039	0.073
-433.690	130.469	0.115	-0.146
-432.676	-14.517	-0.279	0.179
-431.661	-148.943	-0.166	0.013
-430.646	359.443	0.154	-0.306
-429.632	26.405	-0.202	0.168
-428.617	-156.635	0.092	0.006
-427.603	-200.000	-0.001	-0.143
-426.588	-200.000	-0.003	0.111
-425.573	-38.201	0.074	0.039
-424.559	582.958	0.081	0.196
-423.544	-60.012	0.305	-0.130
-422.530	-98.176	-0.475	0.121
-421.515	-175.920	-0.132	-0.003
-420.500	127.509	-0.206	0.260
-419.486	-164.902	0.235	0.010
-418.471	273.957	-0.018	0.032
-417.457	800.000	0.053	-0.157
-416.442	-22.160	0.222	0.134
-415.428	-200.000	0.004	-0.081
-414.413	-52.718	0.213	-0.098
-413.398	-159.993	-0.212	-0.011
-412.384	116.702	0.385	-0.469
-411.369	243.260	0.067	-0.112
-410.355	-200.000	-0.020	-0.129
-409.340	0.188	0.126	-0.089
-408.325	-198.123	-0.204	0.001
-407.311	-28.806	-0.084	-0.048
-406.296	-200.000	0.001	0.030
-405.282	770.744	0.021	0.056
-404.267	144.546	0.046	0.060
-403.252	192.451	0.034	-0.051
-402.238	131.587	-0.044	-0.056
-401.223	385.040	-0.082	0.168
-400.209	-135.219	-0.325	0.039
-399.194	560.144	-0.055	0.132
-398.179	-200.000	0.087	-0.420
-397.165	-2.017	0.160	0.112
-396.150	15.749	0.224	0.175
-395.136	406.565	0.039	0.081
-394.121	431.529	0.095	0.204
-393.106	800.000	0.036	0.125
-392.092	-90.778	-0.275	0.079
-391.077	20.963	0.307	0.247
-390.063	-167.471	-0.064	0.003
-389.048	-38.177	0.113	-0.059
-388.033	-64.565	0.264	-0.106
-387.019	665.001	0.101	0.258
-386.004	-200.000	0.024	-0.211
-384.990	800.000	-0.012	0.043
-383.975	110.322	0.125	0.148
-382.960	91.532	-0.229	0.256
-381.946	-47.498	0.269	-0.130
-380.931	-200.000	0.014	0.465
-379.917	-200.000	-0.040	0.198
-378.902	-92.519	-0.359	0.100
-377.888	-200.000	-0.037	0.160
-376.873	4.629	0.166	-0.121
-375.858	-134.041	0.183	0.022
-374.844	-81.873	0.321	0.104
-373.829	-200.000	0.040	0.500
-372.815	-137.351	-0.192	0.022
-371.800	-52.719	0.279	-0.128
-370.785	-138.852	-0.322	-0.035
-369.771	-200.000	0.080	0.408
-368.756	90.231	0.150	0.167
-367.742	-200.000	0.008	-0.252
-366.727	55.075	0.020	0.019
-365.712	154.942	0.144	0.197
-364.698	89.067	0.030	0.034
-363.683	-149.142	0.356	-0.028
-362.669	-178.307	-0.080	-0.002
-361.654	-200.000	-0.015	0.098
-360.639	-1.486	0.243	0.170
-359.625	-33.617	-0.097	-0.053
-358.610	-200.000	0.004	0.078
-357.596	302.977	-0.046	0.084
-356.581	-200.000	0.003	0.099
-355.566	567.884	0.030	0.072
-354.552	-200.000	0.047	-0.412
-353.537	121.449	0.197	0.243
-352.523	6.901	-0.139	-0.103
-351.508	649.622	0.096	0.244
-350.493	-200.000	0.005	-0.264
-349.479	77.072	-0.104	-0.109
-348.464	-200.000	-0.204	0.000
-347.450	458.689	0.026	0.057
-346.435	800.000	0.007	0.032
-345.420	-200.000	0.049	-0.442
-344.406	-139.790	0.428	0.045
-343.391	230.925	-0.302	-0.490
-342.377	99.352	-0.212	0.243
-341.362	0.219	-0.276	0.195
-340.348	800.000	-0.098	0.356
-339.333	-147.037	-0.052	-0.004
-338.318	-61.794	-0.217	0.090
-337.304	800.000	0.109	-0.353
-336.289	800.000	-0.079	0.268
-335.275	-200.000	0.050	-0.241
-334.260	370.855	-0.208	0.419
-333.245	145.406	0.071	-0.094
-332.231	-117.720	0.277	-0.049
-331.216	800.000	0.124	-0.402
-330.202	-200.000	0.002	-0.012
-329.187	-94.372	-0.336	-0.091
-328.172	-200.000	0.025	0.278
-327.158	360.428	-0.116	0.229
-326.143	-98.146	-0.335	-0.085
-325.129	66.908	-0.166	0.168
-324.114	52.127	0.174	0.165
-323.099	-200.000	0.021	0.315
-322.085	335.389	0.051	0.098
-321.070	-200.000	0.038	-0.198
-320.056	163.792	-0.050	-0.070
-319.041	800.000	0.009	0.030
-318.026	146.989	-0.055	-0.073
-317.012	-15.881	0.277	0.174
-315.997	491.793	-0.016	-0.035
-314.983	-158.719	-0.076	0.004
-313.968	109.104	-0.095	-0.112
-312.953	-200.000	-0.018	-0.127
-311.939	358.571	-0.193	0.382
-310.924	246.693	0.170	-0.284
-309.910	-200.000	-0.013	-0.370
-308.895	-200.000	-0.028	-0.267
-307.880	-18.741	-0.280	0.173
-306.866	-200.000	-0.015	0.087
-305.851	-200.000	0.041	-0.208
-304.837	40.323	-0.200	-0.178
-303.822	506.017	0.047	0.107
-302.807	800.000	-0.032	0.137
-301.793	116.016	0.103	-0.125
-300.778	-98.843	0.213	0.054
-299.764	-23.351	-0.104	0.062
-298.749	-50.053	0.087	-0.041
-297.735	333.081	-0.118	0.226
-296.720	-200.000	0.048	0.262
-295.705	184.307	-0.177	-0.259
-294.691	-103.951	-0.195	0.045
-293.676	120.301	0.030	-0.036
-292.662	172.705	-0.046	0.065
-291.647	-36.771	0.271	-0.144
-290.632	33.564	-0.303	-0.260
-289.618	800.000	-0.070	-0.249
-288.603	181.303	-0.085	-0.123
-287.589	34.971	0.212	-0.184
-286.574	20.887	0.032	-0.026
-285.559	800.000	-0.108	0.309
-284.545	-92.832	0.075	-0.021
-283.530	189.940	0.168	0.249
-282.516	-157.195	0.364	0.022
-281.501	130.325	0.182	-0.230
-280.486	-106.091	-0.343	0.076
-279.472	235.636	0.157	0.256
-278.457	26.970	-0.188	0.156
-277.443	-92.111	0.187	-0.052
-276.428	-200.000	-0.020	0.253
-275.413	38.383	0.143	-0.126
-274.399	-145.477	0.481	-0.043
-273.384	37.133	0.205	0.180
-272.370	-37.783	-0.136	0.071
-271.355	-57.566	-0.222	-0.096
-270.340	63.728	-0.150	0.149
-269.326	-61.019	0.040	-0.017
-268.311	-123.134	-0.195	-0.031
-267.297	800.000	-0.050	0.155
-266.282	539.269	-0.073	0.172
-265.267	-160.867	-0.295	0.015
-264.253	-93.989	-0.060	0.016
-263.238	-200.000	0.002	-0.074
-262.224	-11.925	0.219	0.142
-261.209	133.902	-0.031	-0.040
-260.195	364.703	-0.141	-0.279
-259.180	-28.500	0.133	-0.076
-258.165	-67.299	0.394	0.153
-257.151	148.453	0.115	-0.153
-256.136	-47.488	-0.172	0.083
-255.122	-32.181	0.201	0.111
-254.107	509.648	0.011	0.024
-253.092	-76.828	-0.061	0.021
-252.078	-61.698	0.435	0.180
-251.063	800.000	0.037	0.154
-250.049	-63.818	0.369	0.149
-249.034	-123.722	-0.177	-0.028
-248.019	-40.827	-0.088	-0.045
-247.005	-28.605	-0.141	0.080
-245.990	12.440	0.173	0.132
-244.976	172.139	0.144	0.204
-243.961	-64.725	0.164	-0.065
-242.946	14.573	-0.191	0.147
-241.932	-200.000	0.007	0.136
-240.917	226.955	0.075	-0.120
-239.903	84.625	-0.089	-0.096
-238.888	96.545	0.187	0.212
-237.873	350.233	-0.051	0.099
-236.859	276.390	0.045	-0.079
-235.844	-198.280	0.258	-0.001
-234.830	-200.000	0.010	-0.106
-233.815	-136.728	-0.227	0.026
-232.800	165.445	0.110	-0.153
-231.786	-200.000	-0.043	0.250
-230.771	-130.239	0.272	-0.037
-229.757	17.003	-0.139	-0.109
-228.742	-200.000	-0.046	-0.245
-227.727	800.000	-0.049	0.154
-226.713	-66.221	-0.114	0.045
-225.698	-200.000	-0.109	0.000
-224.684	-65.534	0.140	0.056
-223.669	800.000	-0.105	0.298
-222.655	-38.978	-0.149	0.077
-221.640	22.432	0.074	-0.060
-220.625	43.189	0.269	0.242
-219.611	-200.000	-0.016	0.181
-218.596	56.419	0.194	0.186
-217.582	-42.821	0.269	0.135
-216.567	21.797	0.118	0.095
-215.552	-144.133	-0.447	-0.041
-214.538	-200.000	0.050	0.280
-213.523	12.266	0.335	0.254
-212.509	-37.801	0.396	0.208
-211.494	-10.192	-0.310	0.203
-210.479	-44.343	0.373	0.184
-209.465	-101.257	0.200	-0.048
-208.450	134.228	0.204	-0.261
-207.436	-200.000	-0.094	-0.524
-206.421	780.566	0.022	0.059
-205.406	-24.732	0.446	0.261
-204.392	-200.000	-0.005	0.069
-203.377	-92.826	-0.160	0.044
-202.363	-0.580	-0.208	0.145
-201.348	6.995	-0.244	0.179
-200.333	33.150	-0.222	0.189
-199.319	800.000	0.063	-0.170
-198.304	-200.000	-0.009	0.197
-197.290	-200.000	-0.020	-0.111
-196.275	-87.942	-0.345	0.102
-195.260	-10.212	0.282	-0.184
-194.246	-51.578	0.136	0.063
-193.231	662.249	0.039	0.100
-192.217	-200.000	-0.036	-0.178
-191.202	800.000	0.111	0.409
-190.187	251.894	0.121	0.203
-189.173	63.472	0.084	0.083
-188.158	483.095	0.078	-0.176
-187.144	15.994	-0.264	0.205
-186.129	333.067	0.053	0.101
-185.114	800.000	0.056	0.240
-184.100	-21.089	0.112	-0.068
-183.085	-70.856	-0.339	-0.126
-182.071	39.577	-0.017	0.015
-181.056	-200.000	0.023	0.289
-180.042	487.909	-0.127	0.286
-179.027	-82.853	0.246	-0.078
-178.012	-200.000	-0.043	-0.201
-176.998	-200.000	-0.015	-0.097
-175.983	219.648	-0.061	0.096
-174.969	-200.000	0.020	0.234
-173.954	800.000	0.015	-0.064
-172.939	314.461	0.067	-0.125
-171.925	-68.893	0.273	-0.104
-170.910	800.000	-0.101	0.285
-169.896	-32.766	-0.133	0.073
-168.881	-86.520	0.085	0.026
-167.866	152.661	-0.223	-0.299
-166.852	455.037	-0.155	-0.338
-165.837	800.000	-0.091	0.279
-164.823	332.252	0.122	-0.231
-163.808	357.700	-0.151	-0.297
-162.793	145.928	-0.089	0.118
-161.779	-98.429	-0.213	-0.054
-160.764	-164.211	0.134	-0.006
-159.750	-43.965	0.189	-0.093
-158.735	-143.701	-0.078	-0.007
-157.720	-200.000	-0.074	-0.411
-156.706	800.000	-0.104	0.354
-155.691	750.155	0.065	0.172
-154.677	237.727	-0.171	-0.279
-153.662	222.580	-0.048	-0.076
-152.647	-109.734	-0.165	-0.034
-151.633	-200.000	0.037	-0.213
-150.618	-18.789	0.168	-0.103
-149.604	800.000	0.038	0.148
-148.589	800.000	-0.054	0.213
-147.574	-33.990	0.232	-0.125
-146.560	67.569	-0.112	-0.112
-145.545	-32.759	0.172	0.094
-144.531	-200.000	-0.043	-0.389
-143.516	124.494	0.348	0.431
-142.502	-200.000	0.007	-0.047
-141.487	800.000	-0.053	0.216
-140.472	800.000	-0.029	0.125
-139.458	800.000	-0.076	-0.219
-138.443	-72.519	0.230	0.084
-137.429	-160.750	-0.041	0.002
-136.414	800.000	-0.069	-0.200
-135.399	-20.208	0.032	-0.019
-134.385	-120.101	-0.338	0.057
-133.370	148.041	0.190	0.252
-132.356	-98.024	0.180	0.046
-131.341	-66.345	0.187	0.073
-130.326	-41.579	-0.135	0.068
-129.312	4.705	-0.068	-0.049
-128.297	-200.000	-0.001	-0.005
-127.283	727.792	-0.068	0.180
-126.268	195.085	0.168	0.250
-125.253	529.970	-0.074	-0.171
-124.239	397.262	0.085	-0.174
-123.224	-24.680	-0.280	0.163
-122.210	-33.259	0.246	-0.134
-121.195	-43.939	-0.331	-0.163
-120.180	419.246	0.050	-0.105
-119.166	22.802	0.144	0.116
-118.151	53.088	-0.193	0.181
-117.137	-147.230	0.326	0.027
-116.122	622.965	-0.060	0.149
-115.107	6.509	-0.190	0.139
-114.093	49.666	-0.174	-0.161
-113.078	-99.118	0.348	-0.086
-112.064	800.000	-0.018	-0.069
-111.049	206.472	-0.200	0.306
-110.034	-41.979	-0.243	-0.122
-109.020	208.989	-0.157	-0.242
-108.005	800.000	-0.080	-0.229
-106.991	77.869	0.065	0.068
-105.976	-120.566	0.102	-0.017
-104.962	-23.908	0.297	0.175
-103.947	-51.736	-0.248	-0.113
-102.932	257.786	-0.121	0.204
-101.918	-169.363	0.617	-0.022
-100.903	581.632	-0.071	-0.170
-99.889	-200.000	-0.021	-0.344
-98.874	-84.679	0.214	0.066
-97.859	591.863	0.015	0.036
-96.845	-97.700	0.198	0.050
-95.830	-59.791	0.178	-0.075
-94.816	108.467	-0.099	-0.115
-93.801	423.622	-0.105	-0.221
-92.786	800.000	0.075	0.245
-91.772	727.507	-0.041	-0.107
-90.757	-155.135	-0.276	-0.018
-89.743	-106.393	0.111	-0.024
-88.728	151.810	0.097	0.129
-87.713	21.921	0.200	0.160
-86.699	-200.000	0.064	-0.398
-85.684	359.239	0.108	-0.212
-84.670	84.315	0.182	-0.195
-83.655	-77.589	0.289	0.098
-82.640	128.445	-0.141	-0.176
-81.626	800.000	-0.048	-0.183
-80.611	520.783	0.100	0.230
-79.597	800.000	-0.126	0.415
-78.582	235.789	0.080	-0.130
-77.567	190.405	-0.052	0.076
-76.553	-83.421	0.151	-0.048
-75.538	-57.748	-0.262	-0.113
-74.524	209.806	0.172	-0.265
-73.509	-85.972	-0.054	0.016
-72.494	-200.000	-0.004	0.092
-71.480	217.447	-0.055	-0.086
-70.465	21.798	0.081	-0.065
-69.451	-19.843	-0.199	-0.120
-68.436	-132.895	0.146	-0.018
-67.422	-98.105	0.073	0.018
-66.407	-9.251	0.021	-0.014
-65.392	-106.256	-0.077	-0.017
-64.378	686.054	-0.098	-0.250
-63.363	-97.591	-0.235	-0.060
-62.349	-115.164	-0.197	-0.037
-61.334	80.758	-0.838	-0.885
-60.319	-71.211	0.373	0.137
-59.305	800.000	-0.380	-1.307
-58.290	266.715	0.520	0.890
-57.276	-200.000	0.237	1.667
-56.261	-200.000	110.082	606.547
-55.246	507.288	1499.846	3408.156
-54.232	178.133	2688.963	3842.686
-53.217	103.645	2281.330	2623.114
-52.203	38.300	1892.372	1650.513
-51.188	32.602	1681.648	1423.758
-50.173	30.003	1638.158	1367.722
-49.159	48.394	1693.937	1553.034
-48.144	48.723	1708.728	1569.002
-47.130	32.068	1665.813	1406.130
-46.115	29.510	1650.406	1374.058
-45.100	29.353	1645.827	1369.025
-44.086	29.266	1643.316	1366.238
-43.071	29.289	1640.769	1364.233
-42.057	29.192	1638.439	1361.530
-41.042	29.335	1635.387	1359.994
-40.027	29.304	1634.109	1358.643
-39.013	29.288	1632.255	1356.933
-37.998	29.144	1631.065	1354.832
-36.984	29.251	1630.185	1354.829
-35.969	29.361	1628.145	1353.889
-34.954	29.450	1626.381	1353.022
-33.940	29.398	1625.027	1351.461
-32.925	29.359	1623.074	1349.500
-31.911	29.405	1621.269	1348.279
-30.896	29.340	1619.569	1346.339
-29.881	29.367	1618.035	1345.210
-28.867	29.371	1616.589	1343.978
-27.852	29.331	1614.957	1342.278
-26.838	29.381	1613.634	1341.491
-25.823	29.339	1612.600	1340.276
-24.809	29.428	1611.058	1339.586
-23.794	29.395	1609.483	1337.981
-22.779	29.406	1607.564	1336.412
-21.765	29.362	1606.333	1335.016
-20.750	29.404	1604.225	1333.514
-19.736	29.401	1603.189	1332.579
-18.721	29.412	1602.067	1331.671
-17.706	29.439	1600.586	1330.586
-16.692	29.491	1598.770	1329.401
-15.677	29.467	1597.365	1328.001
-14.663	29.457	1596.030	1326.770
-13.648	29.389	1594.517	1324.971
-12.633	29.383	1592.992	1323.605
-11.619	29.438	1591.646	1322.829
-10.604	29.511	1589.750	1321.728
-9.590	29.515	1588.627	1320.771
-8.575	29.540	1587.524	1319.978
-7.560	29.465	1586.316	1318.383
-6.546	29.490	1585.506	1317.840
-5.531	29.355	1584.578	1316.049
-4.517	29.528	1582.858	1315.805
-3.502	29.440	1582.003	1314.414
-2.487	29.410	1580.613	1312.990
-1.473	29.081	1568.498	1300.555
-0.458	26.059	1549.370	1263.512
0.556	24.098	1550.506	1231.363
1.571	21.633	1573.754	1232.392
2.586	21.154	1586.475	1238.845
3.600	19.127	1533.015	1183.077
4.615	11.579	1426.781	1052.540
5.629	4.863	1365.649	965.826
6.644	3.747	1357.439	953.052
7.659	3.708	1356.360	951.973
8.673	3.698	1355.255	951.047
9.688	3.787	1353.303	950.143
10.702	3.653	1350.793	947.476
11.717	6.793	1356.326	970.593
12.731	15.089	1371.815	1032.969
13.746	21.946	1383.564	1084.238
14.761	23.867	1385.024	1097.155
15.775	23.339	1383.248	1092.395
16.790	22.512	1381.763	1086.032
17.804	22.034	1379.500	1081.210
18.819	21.823	1378.682	1079.178
19.834	21.797	1377.641	1078.104
20.848	21.717	1376.985	1077.004
21.863	21.701	1376.180	1076.180
22.877	21.609	1375.105	1074.681
23.892	21.605	1373.937	1073.648
24.907	21.424	1372.998	1071.712
25.921	21.420	1372.297	1071.048
26.936	21.522	1371.165	1070.690
27.950	21.533	1370.316	1069.999
28.965	21.615	1369.452	1069.736
29.980	21.702	1369.046	1069.850
30.994	21.832	1367.457	1069.307
32.009	21.899	1366.433	1068.824
33.023	21.853	1365.419	1067.656
34.038	21.693	1364.532	1065.890
35.053	21.683	1362.882	1064.449
36.067	21.599	1361.799	1062.999
37.082	21.677	1360.554	1062.405
38.096	21.722	1360.186	1062.295
39.111	21.802	1359.156	1061.884
40.126	21.564	1358.663	1059.965
41.140	21.266	1357.473	1057.137
42.155	21.114	1356.542	1055.401
43.169	21.073	1356.611	1055.110
44.184	20.943	1356.781	1054.363
45.199	21.182	1356.182	1055.249
46.213	21.450	1355.772	1056.455
47.228	21.641	1354.740	1056.711
48.242	21.630	1354.100	1056.052
49.257	21.543	1352.410	1054.118
50.271	21.663	1350.751	1053.451
51.286	21.396	1350.184	1051.313
52.301	21.430	1348.688	1050.258
53.315	21.364	1347.249	1048.650
54.330	21.190	1346.152	1046.662
55.344	21.213	1344.957	1045.778
56.359	21.192	1344.210	1044.975
57.374	21.153	1342.972	1043.689
58.388	21.079	1342.150	1042.516
59.403	20.958	1341.764	1041.398
60.417	20.920	1341.065	1040.539
61.432	20.841	1340.131	1039.249
62.447	20.833	1338.979	1038.219
63.461	20.743	1337.634	1036.550
64.476	20.724	1336.913	1035.783
65.490	20.683	1335.793	1034.581
66.505	20.653	1334.211	1033.085
67.520	20.760	1333.170	1032.821
68.534	20.780	1331.704	1031.712
69.549	20.694	1330.984	1030.556
70.563	20.657	1329.484	1029.085
71.578	20.634	1328.244	1027.901
72.593	20.421	1327.308	1025.824
73.607	20.443	1326.796	1025.466
74.622	20.625	1325.993	1025.830
75.636	20.526	1326.204	1025.318
76.651	20.596	1325.175	1024.846
77.666	20.627	1325.051	1024.838
78.680	20.628	1324.739	1024.516
79.695	20.713	1324.045	1024.390
80.709	20.959	1323.064	1024.986
81.724	21.114	1322.466	1025.344
82.739	21.183	1322.140	1025.407
83.753	21.397	1321.691	1026.220
84.768	21.689	1320.607	1026.999
85.782	21.784	1319.372	1026.504
86.797	21.799	1318.514	1025.838
87.812	21.877	1316.989	1025.014
88.826	21.608	1316.441	1022.923
89.841	21.621	1315.388	1022.091
90.855	21.688	1314.670	1021.837
91.870	21.857	1313.683	1021.961
92.884	21.867	1312.808	1021.248
93.899	21.850	1311.957	1020.400
94.914	21.885	1311.573	1020.211
95.928	21.817	1311.002	1019.283
96.943	21.854	1309.626	1018.335
97.957	21.899	1308.323	1017.494
98.972	21.724	1307.656	1015.870
99.987	21.861	1306.345	1015.556
101.001	21.661	1305.949	1014.003
102.016	21.780	1304.871	1013.763
103.030	21.713	1303.986	1012.596
104.045	21.730	1303.313	1012.085
105.060	21.471	1301.836	1009.355
106.074	21.210	1299.492	1005.945
107.089	20.888	1298.116	1002.938
108.103	20.727	1296.838	1000.935
109.118	20.738	1295.499	999.878
110.133	20.695	1294.208	998.547
111.147	20.809	1292.802	998.023
112.162	20.952	1291.781	997.969
113.176	20.963	1290.921	997.280
114.191	20.931	1289.945	996.254
115.206	20.916	1289.036	995.374
116.220	21.058	1287.503	994.914
117.235	20.918	1286.304	993.102
118.249	20.834	1285.490	991.909
119.264	20.770	1283.653	990.036
120.279	20.585	1283.253	988.589
121.293	20.520	1282.562	987.601
122.308	20.377	1281.251	985.695
123.322	20.275	1280.026	984.083
124.337	20.344	1278.788	983.436
125.352	20.267	1277.222	981.711
126.366	20.271	1275.928	980.652
127.381	20.413	1275.011	980.664
128.395	20.178	1274.489	978.845
129.410	20.295	1273.247	978.465
130.424	20.367	1272.962	978.567
131.439	20.585	1272.350	979.238
132.454	20.749	1271.495	979.414
133.468	20.882	1270.996	979.693
134.483	20.953	1270.135	979.338
135.497	20.733	1269.592	977.601
136.512	20.823	1268.125	976.886
137.527	20.996	1266.672	976.653
138.541	20.940	1265.570	975.405
139.556	20.925	1265.361	975.073
140.570	21.220	1263.818	975.444
141.585	21.313	1262.980	975.231
142.600	21.474	1262.069	975.339
143.614	21.587	1261.751	975.634
144.629	21.657	1260.640	975.078
145.643	21.698	1259.231	974.132
146.658	21.462	1258.221	971.956
147.673	21.196	1256.846	969.329
148.687	21.169	1255.352	967.942
149.702	21.051	1253.815	966.015
150.716	20.941	1251.975	963.907
151.731	20.809	1251.142	962.447
152.746	20.955	1250.236	962.474
153.760	20.957	1249.378	961.740
154.775	21.150	1248.693	962.191
155.789	21.261	1247.979	962.168
156.804	21.253	1246.405	960.824
157.819	21.338	1245.898	960.815
158.833	21.423	1245.648	961.006
159.848	21.657	1244.155	961.050
160.862	21.485	1243.534	959.543
161.877	21.191	1241.657	956.400
162.892	20.759	1240.446	953.019
163.906	20.693	1239.973	952.207
164.921	20.717	1238.951	951.470
165.935	20.864	1238.372	951.747
166.950	21.115	1237.588	952.428
167.964	21.040	1237.240	951.666
168.979	21.108	1236.023	951.021
169.994	20.971	1235.449	949.747
171.008	20.967	1234.791	949.136
172.023	21.169	1234.429	949.871
173.037	21.303	1234.132	950.288
174.052	21.318	1232.772	949.238
175.067	21.137	1231.362	947.085
176.081	20.809	1230.149	944.293
177.096	20.728	1229.417	943.208
178.110	20.844	1228.150	942.777
179.125	20.932	1227.222	942.459
180.140	21.112	1226.703	942.953
181.154	21.275	1225.941	943.163
182.169	21.309	1224.576	942.210
183.183	21.428	1223.654	942.060
184.198	21.429	1222.723	941.262
185.213	21.441	1222.022	940.708
186.227	21.609	1220.535	940.379
187.242	21.616	1219.632	939.642
188.256	21.745	1218.760	939.575
189.271	21.733	1218.384	939.137
190.286	21.523	1217.158	936.985
191.300	21.178	1215.259	933.596
192.315	21.029	1214.893	932.437
193.329	20.957	1214.558	931.711
194.344	20.865	1213.717	930.492
195.359	20.934	1213.013	930.237
196.373	21.031	1212.578	930.343
197.388	21.109	1212.475	930.598
198.402	21.516	1212.543	932.738
199.417	21.638	1212.428	933.216
200.432	21.871	1211.701	933.811
201.446	21.998	1211.173	933.997
202.461	22.094	1210.084	933.588
203.475	21.965	1209.168	932.115
204.490	21.727	1207.385	929.393
205.504	21.456	1206.147	926.922
206.519	21.448	1204.895	925.834
207.534	21.326	1203.375	923.943
208.548	21.329	1202.926	923.529
209.563	21.269	1202.739	922.988
210.577	21.282	1201.488	922.014
211.592	21.381	1200.936	922.032
212.607	21.707	1200.305	923.185
213.621	21.767	1199.334	922.669
214.636	21.570	1198.775	921.121
215.650	21.660	1197.668	920.665
216.665	21.864	1196.885	921.052
217.680	21.942	1196.572	921.142
218.694	21.986	1195.455	920.426
219.709	21.867	1195.154	919.490
220.723	21.901	1193.839	918.579
221.738	21.970	1193.028	918.235
222.753	21.725	1192.468	916.438
223.767	21.845	1191.483	916.228
224.782	22.041	1191.356	917.075
225.796	22.077	1191.295	917.131
226.811	22.112	1190.312	916.474
227.826	21.766	1189.444	913.925
228.840	21.699	1188.129	912.483
229.855	21.532	1187.977	911.419
230.869	21.628	1186.763	910.906
231.884	21.587	1185.724	909.811
232.899	21.322	1185.047	907.836
233.913	21.243	1184.087	906.611
234.928	21.234	1183.295	905.879
235.942	21.130	1182.377	904.557
236.957	21.068	1181.625	903.580
237.972	21.091	1180.909	903.071
238.986	21.221	1180.701	903.502
240.001	21.177	1179.990	902.652
241.015	21.216	1178.815	901.876
242.030	21.448	1177.966	902.342
243.045	21.519	1177.778	902.485
244.059	21.687	1176.711	902.453
245.074	21.704	1176.132	902.018
246.088	21.767	1175.496	901.771
247.103	21.932	1174.612	901.863
248.117	22.022	1175.009	902.550
249.132	22.345	1174.292	903.580
250.147	22.593	1174.217	904.716
251.161	22.887	1173.267	905.413
252.176	22.935	1172.675	905.120
253.190	22.855	1172.338	904.369
254.205	22.932	1172.191	904.573
255.220	22.987	1171.568	904.292
256.234	22.946	1170.942	903.517
257.249	23.064	1169.260	902.745
258.263	22.780	1169.133	901.114
259.278	22.827	1168.540	900.816
260.293	22.818	1168.110	900.362
261.307	22.929	1167.462	900.348
262.322	23.040	1166.570	900.145
263.336	23.097	1165.962	899.888
264.351	22.975	1165.521	898.844
265.366	23.142	1164.566	898.877
266.380	23.030	1163.982	897.778
267.395	22.948	1163.179	896.665
268.409	22.635	1162.254	894.284
269.424	22.626	1161.374	893.485
270.439	22.674	1160.817	893.216
271.453	22.571	1159.842	891.869
272.468	22.427	1158.475	890.008
273.482	22.286	1158.291	889.078
274.497	22.257	1157.837	888.502
275.512	22.229	1157.005	887.644
276.526	22.396	1155.961	887.609
277.541	22.559	1154.777	887.439
278.555	22.564	1154.802	887.407
279.570	22.781	1154.383	888.097
280.585	23.006	1154.235	889.038
281.599	22.886	1153.005	887.410
282.614	22.649	1151.660	885.104
283.628	22.421	1150.326	882.858
284.643	22.397	1149.669	882.157
285.657	22.477	1148.953	881.932
286.672	22.467	1148.060	881.118
287.687	22.491	1146.634	880.065
288.701	22.541	1146.223	879.919
289.716	22.598	1145.314	879.430
290.730	22.525	1144.602	878.442
291.745	22.504	1143.990	877.786
292.760	22.665	1143.590	878.204
293.774	22.674	1143.025	877.739
294.789	22.865	1142.703	878.363
295.803	22.857	1142.221	877.876
296.818	22.619	1141.241	875.862
297.833	22.680	1140.023	875.153
298.847	22.518	1139.304	873.722
299.862	22.466	1138.873	873.058
300.876	22.492	1138.051	872.478
301.891	22.704	1137.668	873.156
302.906	22.915	1137.267	873.815
303.920	23.156	1136.744	874.529
304.935	23.289	1136.267	874.741
305.949	23.365	1135.634	874.548
306.964	23.334	1135.051	873.867
307.979	23.104	1134.339	872.112
308.993	23.017	1133.354	870.847
310.008	23.066	1132.324	870.221
311.022	23.122	1131.838	870.045
312.037	23.160	1130.775	869.338
313.052	22.901	1130.162	867.520
314.066	22.700	1128.589	865.249
315.081	22.462	1127.111	862.870
316.095	22.421	1126.530	862.149
317.110	22.387	1126.231	861.678
318.125	22.403	1125.326	860.991
319.139	22.434	1124.607	860.511
320.154	22.323	1124.266	859.635
321.168	22.416	1123.262	859.242
322.183	22.338	1123.102	858.663
323.197	22.479	1122.452	858.778
324.212	22.652	1121.231	858.611
325.227	22.697	1121.395	858.882
326.241	22.628	1120.589	857.852
327.256	22.580	1119.425	856.654
328.270	22.530	1118.756	855.822
329.285	22.543	1117.452	854.813
330.300	22.476	1116.939	854.019
331.314	22.485	1116.191	853.413
332.329	22.439	1114.958	852.170
333.343	22.628	1114.194	852.427
334.358	22.814	1114.019	853.115
335.373	22.904	1113.704	853.235
336.387	22.997	1112.895	852.988
337.402	23.060	1112.099	852.605
338.416	23.091	1111.761	852.422
339.431	23.214	1111.255	852.553
340.446	23.327	1110.934	852.772
341.460	23.529	1110.377	853.242
342.475	23.697	1109.570	853.356
343.489	23.749	1108.773	852.913
344.504	23.674	1108.094	851.957
345.519	23.822	1107.009	851.757
346.533	23.849	1106.464	851.394
347.548	23.864	1105.885	850.942
348.562	23.872	1104.711	850.002
349.577	23.431	1103.547	846.926
350.592	23.158	1102.552	844.783
351.606	23.019	1101.517	843.251
352.621	22.818	1100.935	841.776
353.635	22.787	1100.005	840.839
354.650	22.856	1099.259	840.523
355.665	22.876	1098.870	840.247
356.679	23.077	1098.339	840.724
357.694	23.084	1098.202	840.577
358.708	23.266	1097.162	840.570
359.723	23.277	1096.573	840.095
360.738	23.264	1096.095	839.595
361.752	23.210	1095.513	838.821
362.767	23.218	1094.857	838.282
363.781	23.287	1094.211	838.037
364.796	23.539	1094.321	839.241
365.810	23.809	1093.684	839.952
366.825	23.949	1093.076	840.072
367.840	24.044	1093.258	840.587
368.854	24.038	1092.801	840.134
369.869	24.135	1091.449	839.479
370.883	23.896	1090.774	837.756
371.898	23.772	1089.367	836.023
372.913	23.589	1088.983	834.789
373.927	23.709	1088.901	835.220
374.942	24.011	1088.100	835.949
375.956	23.971	1087.481	835.213
376.971	23.862	1086.567	833.922
377.986	23.935	1086.438	834.093
379.000	24.214	1086.265	835.197
380.015	24.184	1085.873	834.679
381.029	24.277	1084.982	834.357
382.044	24.214	1084.240	833.415
383.059	24.178	1083.622	832.699
384.073	24.127	1082.928	831.855
385.088	24.125	1081.893	830.978
386.102	24.043	1081.042	829.866
387.117	23.781	1079.571	827.444
388.132	23.567	1078.613	825.640
389.146	23.586	1077.615	824.893
390.161	23.435	1077.212	823.812
391.175	23.517	1076.371	823.477
392.190	23.808	1075.855	824.358
393.205	24.022	1075.587	825.071
394.219	23.980	1074.607	824.051
395.234	23.638	1073.305	821.400
396.248	23.533	1072.208	820.002
397.263	23.552	1071.276	819.300
398.278	23.487	1070.845	818.601
399.292	23.430	1069.928	817.566
400.307	23.314	1069.224	816.419
401.321	23.403	1068.226	815.995
402.336	23.321	1067.279	814.821
403.350	23.259	1066.945	814.209
404.365	23.419	1066.572	814.588
405.380	23.528	1066.405	814.889
406.394	23.667	1065.394	814.681
407.409	23.865	1065.021	815.234
408.423	24.176	1064.127	815.900
409.438	24.220	1063.810	815.787
410.453	24.216	1063.392	815.376
411.467	24.229	1062.817	814.922
412.482	24.420	1062.136	815.202
413.496	24.436	1061.748	814.905
414.511	24.621	1060.868	815.002
415.526	24.642	1060.964	815.097
416.540	24.720	1060.492	815.020
417.555	24.556	1059.699	813.593
418.569	24.587	1059.082	813.187
419.584	24.510	1058.282	812.148
420.599	24.265	1058.475	811.109
421.613	156.031	1404.851	1796.612
422.628	143.379	1455.276	1796.715
