DTS Sentinel unit serial number:	SN413079Multiplexer serial number:	ORYXHardware model number:	OX4-SRSoftware version number:	ORYX F/W v4.00 Oryx Data Collector v3.7.2.0data status	okinstallation	princeton_trtdifferential loss correction	single-endedforward channel	channel 2reverse channel	N/Adate	2019/09/19time	05:47:35forward acquisition time	60.00reverse acquisition time	0.00gamma	496.2192k internal	0.2351k external	0.2351temperature offset calibration	1.0013default loss term (dB/km)	0.3790temperature slope calibration	1.0000multiplexer offset coefficient	1.0000multiplexer slope coefficient	1.0000fibre end	0.00T internal ref (°C)	19.25T ext. ref 1 (°C)	0.59T ext. ref 2 (°C)	12.90length (m)	temperature (°C)	Stokes	anti-Stokes-747.200	-48.270	-0.092	-0.044
-746.185	-51.203	-0.145	0.068
-745.171	-114.255	-0.126	-0.024
-744.156	-11.528	-0.280	0.184
-743.142	218.546	0.185	-0.294
-742.127	-68.556	-0.302	-0.117
-741.112	215.299	0.119	0.188
-740.098	13.103	0.124	0.096
-739.083	-17.729	0.029	-0.018
-738.069	-30.802	-0.134	-0.075
-737.054	-74.628	0.169	0.061
-736.039	3.603	-0.281	-0.204
-735.025	-200.000	-0.009	0.370
-734.010	-146.584	-0.289	-0.025
-732.996	-200.000	0.053	0.341
-731.981	152.130	0.032	-0.044
-730.966	-70.850	-0.368	0.138
-729.952	-200.000	-0.034	0.200
-728.937	85.199	0.087	-0.096
-727.923	526.255	0.032	0.076
-726.908	-200.000	-0.011	0.105
-725.894	-20.176	-0.238	-0.146
-724.879	558.498	0.136	-0.326
-723.864	-200.000	-0.040	-0.305
-722.850	-10.939	0.149	-0.098
-721.835	-82.360	0.317	0.103
-720.821	-61.373	0.117	0.049
-719.806	38.525	-0.185	0.165
-718.791	-138.118	-0.325	0.036
-717.777	-35.333	-0.103	0.056
-716.762	58.366	0.310	-0.303
-715.748	-200.000	-0.008	0.131
-714.733	-22.764	-0.217	-0.131
-713.718	231.607	0.162	-0.264
-712.704	447.725	0.179	-0.392
-711.689	95.911	0.146	0.166
-710.675	-200.000	-0.031	0.149
-709.660	-200.000	0.007	0.194
-708.645	378.145	0.066	-0.134
-707.631	-114.727	0.099	0.019
-706.616	70.808	-0.111	-0.114
-705.602	76.905	-0.109	-0.116
-704.587	64.286	-0.107	0.107
-703.572	800.000	0.028	0.110
-702.558	-111.968	-0.268	-0.054
-701.543	800.000	0.045	-0.126
-700.529	-200.000	-0.024	-0.280
-699.514	-200.000	0.049	-0.229
-698.499	91.995	-0.249	-0.279
-697.485	-55.979	0.194	0.086
-696.470	-107.670	0.013	0.003
-695.456	530.369	0.013	0.031
-694.441	-78.278	-0.262	0.090
-693.426	-200.000	-0.002	-0.317
-692.412	-143.372	-0.159	-0.015
-691.397	800.000	0.120	-0.450
-690.383	-109.532	-0.131	-0.028
-689.368	279.662	-0.049	-0.087
-688.354	50.327	0.060	0.056
-687.339	177.650	-0.093	0.136
-686.324	19.432	0.451	0.361
-685.310	278.792	-0.139	0.246
-684.295	101.220	-0.023	0.026
-683.281	309.062	0.136	-0.254
-682.266	-106.725	-0.023	-0.005
-681.251	104.179	-0.101	0.118
-680.237	800.000	-0.071	0.257
-679.222	196.193	0.200	-0.303
-678.208	-200.000	-0.013	-0.070
-677.193	-98.484	-0.478	-0.122
-676.178	800.000	-0.098	-0.357
-675.164	642.450	-0.101	-0.257
-674.149	0.706	0.191	0.136
-673.135	462.071	0.109	-0.242
-672.120	-200.000	-0.016	0.177
-671.105	-63.317	0.241	0.099
-670.091	-110.174	0.073	0.015
-669.076	-24.239	0.162	-0.096
-668.062	-66.102	-0.445	-0.176
-667.047	3.592	-0.227	0.165
-666.032	-200.000	0.003	-0.130
-665.018	15.436	0.048	-0.037
-664.003	-200.000	-0.009	-0.330
-662.989	259.026	0.238	0.409
-661.974	-200.000	0.057	-0.263
-660.959	9.157	-0.258	-0.194
-659.945	-1.844	0.276	-0.193
-658.930	-110.714	0.369	0.076
-657.916	176.438	0.093	-0.134
-656.901	-68.996	0.121	-0.046
-655.886	-200.000	0.026	0.311
-654.872	-13.121	-0.181	0.117
-653.857	-77.894	-0.071	-0.024
-652.843	-86.043	-0.328	0.101
-651.828	425.711	0.236	-0.506
-650.814	-48.916	0.280	0.134
-649.799	-200.000	-0.018	0.139
-648.784	558.745	0.068	0.164
-647.770	300.396	0.179	-0.328
-646.755	99.369	-0.160	0.184
-645.741	592.042	0.070	-0.171
-644.726	-101.576	0.269	0.065
-643.711	207.446	-0.115	-0.178
-642.697	-84.762	-0.361	-0.113
-641.682	38.723	-0.237	-0.210
-640.668	-200.000	-0.118	-0.609
-639.653	15.097	-0.119	0.093
-638.638	785.920	-0.094	-0.257
-637.624	87.933	-0.062	-0.069
-636.609	-98.387	0.081	0.021
-635.595	-200.000	-0.314	0.001
-634.580	41.508	0.098	-0.088
-633.565	800.000	0.028	-0.105
-632.551	-200.000	-0.002	-0.163
-631.536	-200.000	-0.043	-0.193
-630.522	119.048	0.107	0.132
-629.507	76.147	-0.267	-0.280
-628.492	-102.163	-0.243	-0.058
-627.478	120.313	0.276	-0.341
-626.463	-156.777	-0.239	-0.015
-625.449	43.354	-0.340	0.308
-624.434	-74.514	0.056	0.020
-623.419	-67.726	-0.049	0.019
-622.405	-2.900	0.568	0.394
-621.390	-185.759	-0.228	0.003
-620.376	-133.067	-0.193	-0.024
-619.361	102.837	-0.176	0.205
-618.346	231.338	0.198	0.322
-617.332	-87.489	-0.464	-0.139
-616.317	-48.423	0.067	-0.032
-615.303	800.000	-0.122	0.412
-614.288	284.479	0.135	-0.242
-613.273	-82.403	-0.148	-0.048
-612.259	800.000	-0.088	-0.261
-611.244	505.588	-0.144	-0.332
-610.230	-114.238	0.165	0.032
-609.215	421.638	0.042	-0.090
-608.201	274.417	-0.111	0.194
-607.186	-109.169	-0.124	0.026
-606.171	-200.000	-0.024	0.138
-605.157	800.000	-0.074	0.294
-604.142	800.000	-0.079	0.266
-603.128	493.435	0.069	0.157
-602.113	149.789	-0.132	0.178
-601.098	-200.000	-0.010	0.196
-600.084	800.000	0.023	0.087
-599.069	336.978	-0.092	-0.177
-598.055	-176.009	0.230	-0.006
-597.040	-28.609	0.504	0.288
-596.025	-48.440	-0.519	-0.248
-595.011	64.753	-0.101	-0.101
-593.996	-43.092	0.293	0.147
-592.982	154.940	-0.077	0.105
-591.967	-34.285	-0.380	-0.207
-590.952	171.516	-0.279	0.397
-589.938	-200.000	0.025	0.187
-588.923	103.987	-0.158	0.184
-587.909	-67.240	-0.172	0.067
-586.894	-200.000	0.001	-0.224
-585.879	133.779	0.052	0.067
-584.865	176.656	-0.034	-0.050
-583.850	-23.290	0.169	-0.101
-582.836	-61.653	0.217	-0.090
-581.821	661.301	0.092	0.235
-580.806	-200.000	-0.045	-0.230
-579.792	407.723	0.105	0.220
-578.777	473.552	0.210	0.470
-577.763	-200.000	0.016	-0.091
-576.748	-21.970	-0.248	0.149
-575.733	-71.639	-0.271	-0.100
-574.719	173.939	0.069	-0.099
-573.704	20.243	-0.060	-0.048
-572.690	10.458	0.129	0.097
-571.675	229.252	-0.145	0.235
-570.661	89.497	0.208	-0.229
-569.646	-115.744	-0.105	0.019
-568.631	-149.959	-0.094	0.007
-567.617	178.820	0.124	0.179
-566.602	1.671	-0.059	0.042
-565.588	-48.747	-0.170	0.081
-564.573	800.000	0.011	-0.030
-563.558	-34.067	0.199	-0.108
-562.544	800.000	0.042	0.138
-561.529	111.001	0.106	-0.126
-560.515	800.000	0.026	-0.075
-559.500	48.708	0.190	0.177
-558.485	-200.000	-0.032	0.383
-557.471	800.000	-0.079	0.260
-556.456	763.814	0.087	0.233
-555.442	-179.615	0.184	-0.004
-554.427	270.006	-0.089	0.155
-553.412	174.327	-0.192	-0.275
-552.398	-74.950	-0.181	-0.064
-551.383	177.822	0.065	-0.093
-550.369	68.651	-0.208	-0.211
-549.354	-200.000	0.036	0.222
-548.339	-56.434	0.047	0.020
-547.325	-93.687	-0.394	0.108
-546.310	800.000	0.034	0.119
-545.296	47.495	0.103	-0.095
-544.281	6.515	0.118	-0.087
-543.266	44.860	-0.043	0.039
-542.252	-44.215	0.237	0.118
-541.237	212.242	-0.194	-0.302
-540.223	76.329	-0.077	0.081
-539.208	195.226	0.066	-0.099
-538.193	-147.986	0.299	-0.025
-537.179	-50.271	-0.294	-0.138
-536.164	50.564	-0.198	0.185
-535.150	9.771	0.136	0.102
-534.135	-152.727	-0.106	-0.007
-533.121	-200.000	-0.053	-0.280
-532.106	291.568	-0.084	0.151
-531.091	-200.000	-0.091	-0.447
-530.077	-105.280	-0.226	-0.051
-529.062	-200.000	-0.044	-0.356
-528.048	195.034	-0.152	-0.228
-527.033	-55.467	0.187	-0.083
-526.018	-200.000	-0.013	-0.315
-525.004	800.000	0.066	0.210
-523.989	136.349	0.145	-0.188
-522.975	77.708	-0.121	-0.127
-521.960	-96.477	-0.416	-0.109
-520.945	562.743	0.174	-0.418
-519.931	-200.000	0.056	-0.336
-518.916	-32.711	0.213	0.117
-517.902	572.990	-0.056	0.134
-516.887	-51.601	0.392	-0.181
-515.872	-94.270	0.244	0.066
-514.858	203.688	-0.062	-0.094
-513.843	373.514	0.096	0.193
-512.829	-71.042	-0.105	0.039
-511.814	800.000	0.035	-0.147
-510.799	-66.274	-0.113	-0.044
-509.785	-112.792	-0.125	-0.025
-508.770	800.000	-0.047	-0.163
-507.756	-200.000	0.005	-0.284
-506.741	-62.182	-0.144	-0.059
-505.726	-188.757	0.231	0.003
-504.712	-44.040	0.192	0.095
-503.697	-200.000	-0.010	-0.084
-502.683	154.150	-0.189	-0.256
-501.668	143.703	-0.139	-0.183
-500.653	800.000	0.021	0.066
-499.639	-200.000	0.019	0.091
-498.624	-124.401	0.074	-0.011
-497.610	52.348	-0.353	0.333
-496.595	25.543	0.144	-0.118
-495.581	-160.057	0.160	-0.009
-494.566	266.481	0.124	-0.214
-493.551	-200.000	-0.015	-0.237
-492.537	-59.645	-0.157	-0.067
-491.522	231.472	0.132	-0.214
-490.508	800.000	0.110	-0.307
-489.493	-99.687	-0.169	0.042
-488.478	-83.353	-0.115	0.037
-487.464	-164.068	0.077	0.004
-486.449	-174.518	0.256	-0.007
-485.435	-200.000	-0.040	0.400
-484.420	-200.000	0.015	-0.104
-483.405	-171.532	-0.244	0.008
-482.391	76.683	0.343	-0.360
-481.376	-122.714	-0.307	-0.049
-480.362	800.000	0.052	-0.211
-479.347	375.899	-0.060	0.120
-478.332	-200.000	-0.016	0.140
-477.318	-73.618	0.309	-0.111
-476.303	182.836	-0.098	0.143
-475.289	-200.000	-0.045	0.295
-474.274	-106.451	-0.221	-0.049
-473.259	-68.149	-0.278	-0.107
-472.245	10.509	0.108	-0.081
-471.230	-200.000	-0.028	-0.237
-470.216	757.388	-0.107	-0.285
-469.201	798.265	0.071	-0.193
-468.186	185.345	-0.070	-0.103
-467.172	-73.989	-0.084	0.030
-466.157	5.783	0.208	0.152
-465.143	43.275	0.061	0.055
-464.128	76.792	-0.101	0.106
-463.113	-3.132	-0.274	0.188
-462.099	-84.098	-0.088	-0.028
-461.084	203.101	0.126	-0.192
-460.070	-22.929	-0.106	-0.063
-459.055	-200.000	-0.025	-0.165
-458.040	310.595	-0.152	0.281
-457.026	-93.588	-0.290	0.079
-456.011	-140.425	-0.212	-0.022
-454.997	-116.641	-0.161	0.029
-453.982	800.000	0.070	0.227
-452.968	-64.280	0.364	-0.146
-451.953	37.592	-0.143	-0.125
-450.938	800.000	0.059	0.236
-449.924	34.150	-0.045	0.039
-448.909	-79.366	-0.168	-0.056
-447.895	-172.170	0.256	-0.008
-446.880	800.000	0.095	0.268
-445.865	-156.474	0.172	0.011
-444.851	-125.963	-0.173	0.026
-443.836	296.732	-0.127	0.229
-442.822	-21.010	-0.229	0.138
-441.807	133.447	0.136	0.173
-440.792	-109.943	0.339	0.070
-439.778	-10.828	0.164	0.107
-438.763	413.226	0.068	0.143
-437.749	60.020	-0.239	-0.233
-436.734	-48.572	0.353	0.167
-435.719	154.320	-0.285	0.386
-434.705	-21.419	-0.369	0.222
-433.690	77.972	0.235	0.247
-432.676	800.000	-0.044	0.164
-431.661	800.000	-0.113	-0.340
-430.646	-200.000	-0.025	0.121
-429.632	-106.202	0.239	-0.053
-428.617	90.413	0.163	0.180
-427.603	475.939	0.059	-0.131
-426.588	-84.416	0.454	0.142
-425.573	388.369	-0.044	-0.090
-424.559	702.358	-0.086	0.222
-423.544	83.492	-0.383	0.411
-422.530	-108.505	0.383	-0.081
-421.515	-200.000	0.015	0.116
-420.500	-43.201	0.284	0.142
-419.486	58.624	-0.104	0.101
-418.471	-200.000	0.009	-0.170
-417.457	36.093	0.056	-0.049
-416.442	800.000	0.102	-0.324
-415.428	-172.155	-0.050	-0.002
-414.413	-116.949	0.148	0.027
-413.398	-200.000	-0.008	0.107
-412.384	-67.063	0.167	-0.065
-411.369	-104.641	-0.330	-0.075
-410.355	-21.457	-0.045	-0.027
-409.340	-64.471	-0.191	-0.076
-408.325	-200.000	-0.013	-0.118
-407.311	77.788	0.277	0.290
-406.296	-200.000	-0.006	0.267
-405.282	-200.000	-0.078	0.336
-404.267	-115.649	0.091	0.017
-403.252	-200.000	-0.069	-0.375
-402.238	520.039	-0.023	0.052
-401.223	-200.000	-0.026	0.145
-400.209	-200.000	0.052	-0.325
-399.194	94.464	0.016	-0.018
-398.179	70.745	0.211	0.215
-397.165	-157.115	0.278	0.017
-396.150	-74.139	-0.306	0.109
-395.136	-200.000	0.010	0.248
-394.121	-128.946	-0.124	0.017
-393.106	78.164	-0.114	-0.120
-392.092	-200.000	-0.005	0.095
-391.077	203.308	-0.089	-0.136
-390.063	-68.670	-0.224	0.085
-389.048	73.434	-0.190	-0.196
-388.033	203.701	0.209	-0.318
-387.019	-200.000	0.010	-0.144
-386.004	527.496	0.220	-0.511
-384.990	66.017	-0.240	0.240
-383.975	-33.445	-0.228	0.124
-382.960	-24.619	0.084	0.049
-381.946	-195.840	0.165	0.001
-380.931	-200.000	0.083	-0.409
-379.917	-76.741	0.131	-0.045
-378.902	1.603	0.231	0.164
-377.888	-23.633	-0.376	-0.222
-376.873	-30.766	-0.249	0.139
-375.858	-39.456	-0.379	-0.195
-374.844	86.978	0.196	0.213
-373.829	52.412	-0.084	0.079
-372.815	203.095	0.165	-0.251
-371.800	742.451	-0.072	-0.190
-370.785	39.679	0.189	0.166
-369.771	333.266	-0.170	0.323
-368.756	40.397	0.225	0.199
-367.742	73.246	-0.189	0.194
-366.727	-89.788	0.335	0.096
-365.712	800.000	-0.047	0.128
-364.698	800.000	-0.109	-0.360
-363.683	-59.751	-0.132	-0.056
-362.669	355.347	0.098	0.191
-361.654	-57.050	0.109	-0.047
-360.639	459.431	0.138	-0.301
-359.625	800.000	0.049	-0.187
-358.610	-200.000	0.005	-0.114
-357.596	46.568	-0.236	0.216
-356.581	380.647	-0.099	-0.199
-355.566	-95.915	-0.301	-0.079
-354.552	-134.798	-0.329	-0.039
-353.537	56.859	-0.225	0.216
-352.523	130.880	0.140	-0.177
-351.508	764.321	-0.040	-0.107
-350.493	511.464	0.045	-0.102
-349.479	-200.000	-0.036	-0.271
-348.464	-153.320	-0.276	0.019
-347.450	800.000	0.080	0.221
-346.435	66.311	0.062	0.062
-345.420	23.418	-0.110	-0.089
-344.406	-44.468	0.322	0.158
-343.391	43.189	0.317	-0.284
-342.377	10.813	0.092	-0.069
-341.362	-62.486	-0.069	0.028
-340.348	-168.009	0.123	-0.005
-339.333	10.125	0.216	0.161
-338.318	800.000	0.104	0.309
-337.304	-62.029	-0.268	-0.110
-336.289	-55.289	0.261	0.115
-335.275	-87.872	0.470	-0.139
-334.260	-123.793	-0.074	-0.012
-333.245	-200.000	-0.020	0.265
-332.231	2.040	0.054	0.039
-331.216	14.417	0.089	-0.068
-330.202	-33.202	0.056	-0.031
-329.187	264.132	0.195	0.332
-328.172	142.678	0.351	0.458
-327.158	74.186	-0.152	-0.157
-326.143	149.589	0.153	-0.203
-325.129	107.657	-0.105	0.123
-324.114	-200.000	0.022	0.153
-323.099	-200.000	-0.037	-0.223
-322.085	800.000	-0.067	-0.184
-321.070	297.775	-0.016	-0.030
-320.056	211.552	-0.087	0.134
-319.041	400.469	0.065	0.133
-318.026	77.570	-0.108	-0.113
-317.012	-118.365	0.018	0.003
-315.997	-70.425	-0.114	0.042
-314.983	-200.000	0.045	0.653
-313.968	800.000	0.047	0.170
-312.953	14.474	-0.080	-0.061
-311.939	-171.176	0.292	0.010
-310.924	-114.817	0.129	-0.024
-309.910	32.414	-0.059	0.050
-308.895	-63.169	0.113	-0.046
-307.880	-58.504	0.149	0.063
-306.866	-200.000	0.022	-0.132
-305.851	-142.738	-0.228	0.022
-304.837	263.344	0.159	-0.271
-303.822	155.377	-0.019	-0.026
-302.807	6.437	0.203	0.148
-301.793	-77.274	-0.262	0.089
-300.778	-18.576	0.226	-0.139
-299.764	-45.362	-0.190	-0.093
-298.749	-200.000	-0.002	0.327
-297.735	-200.000	0.030	-0.151
-296.720	-19.477	-0.103	-0.063
-295.705	183.869	0.116	0.168
-294.691	-110.688	0.128	-0.026
-293.676	-77.749	0.193	-0.065
-292.662	117.819	-0.192	0.232
-291.647	800.000	-0.082	0.308
-290.632	-88.730	-0.027	-0.008
-289.618	724.356	-0.122	0.317
-288.603	303.911	0.065	0.117
-287.589	24.937	-0.228	0.186
-286.574	532.487	0.080	0.186
-285.559	-93.635	-0.197	-0.053
-284.545	-142.840	-0.241	0.023
-283.530	94.497	-0.078	-0.087
-282.516	71.942	0.161	0.164
-281.501	-115.525	0.122	-0.023
-280.486	-180.240	-0.316	0.007
-279.472	800.000	-0.045	-0.124
-278.457	-200.000	-0.048	-0.271
-277.443	600.709	-0.042	0.101
-276.428	85.759	0.264	-0.284
-275.413	63.389	-0.135	0.133
-274.399	19.806	-0.263	-0.207
-273.384	-78.969	0.171	-0.057
-272.370	21.204	-0.318	0.253
-271.355	73.401	-0.233	-0.239
-270.340	-24.358	0.139	0.081
-269.326	363.383	0.049	-0.096
-268.311	-192.842	0.136	-0.001
-267.297	-61.457	-0.369	0.152
-266.282	-102.167	0.406	-0.096
-265.267	800.000	0.147	0.600
-264.253	-139.341	-0.120	-0.013
-263.238	106.045	-0.045	-0.053
-262.224	234.948	-0.218	0.353
-261.209	-76.395	0.111	-0.038
-260.195	-24.444	0.078	0.046
-259.180	34.995	-0.192	0.165
-258.165	-22.959	0.105	-0.062
-257.151	-106.064	-0.311	-0.068
-256.136	172.352	0.140	-0.197
-255.122	-62.160	0.142	0.058
-254.107	-115.130	-0.079	0.015
-253.092	-39.870	0.221	-0.113
-252.078	800.000	0.083	-0.273
-251.063	800.000	0.105	0.305
-250.049	113.086	0.053	0.062
-249.034	69.194	-0.097	0.097
-248.019	359.431	-0.058	-0.114
-247.005	-60.148	-0.136	-0.057
-245.990	126.188	-0.063	0.078
-244.976	153.952	-0.084	-0.112
-243.961	-78.968	0.164	0.055
-242.946	-200.000	-0.007	0.032
-241.932	3.196	-0.237	-0.169
-240.917	-44.513	-0.311	0.152
-239.903	-15.193	0.156	0.098
-238.888	141.918	-0.030	0.039
-237.873	265.515	0.094	-0.160
-236.859	15.540	0.174	-0.134
-235.844	35.107	0.106	-0.091
-234.830	424.334	-0.045	-0.095
-233.815	266.842	-0.065	-0.112
-232.800	-200.000	-0.002	-0.172
-231.786	653.806	0.137	-0.344
-230.771	-200.000	0.002	-0.254
-229.757	-180.848	0.076	-0.002
-228.742	-18.086	0.171	0.105
-227.727	278.348	-0.111	0.193
-226.713	-110.869	0.210	-0.042
-225.698	258.752	0.123	-0.208
-224.684	800.000	-0.112	-0.433
-223.669	-69.230	0.197	0.074
-222.655	-132.994	0.273	-0.034
-221.640	-39.235	0.092	-0.047
-220.625	-32.802	-0.417	0.226
-219.611	-90.967	-0.056	0.016
-218.596	-200.000	0.001	-0.317
-217.582	228.225	0.150	0.238
-216.567	91.358	-0.188	0.207
-215.552	-37.719	0.442	0.230
-214.538	-200.000	0.028	-0.239
-213.523	800.000	-0.019	0.057
-212.509	-35.705	0.098	0.052
-211.494	-200.000	0.048	0.226
-210.479	3.176	0.138	-0.098
-209.465	-8.954	0.220	-0.144
-208.450	325.115	0.172	-0.321
-207.436	-52.512	0.187	0.085
-206.421	94.455	0.147	0.163
-205.406	-65.142	0.245	0.097
-204.392	-200.000	0.019	0.221
-203.377	-200.000	-0.003	0.120
-202.363	100.692	0.205	-0.232
-201.348	-102.772	0.143	-0.033
-200.333	231.031	-0.111	0.178
-199.319	-55.861	-0.217	0.095
-198.304	29.106	0.189	0.157
-197.290	-36.349	0.405	-0.213
-196.275	208.166	0.168	-0.257
-195.260	534.152	0.044	-0.102
-194.246	-200.000	-0.098	-0.474
-193.231	800.000	-0.077	-0.259
-192.217	-7.335	0.083	0.055
-191.202	-161.410	-0.133	-0.007
-190.187	-105.015	-0.072	0.016
-189.173	2.855	0.205	-0.145
-188.158	248.320	-0.145	-0.240
-187.144	-66.666	-0.113	0.044
-186.129	-50.590	0.260	-0.120
-185.114	330.676	-0.037	-0.070
-184.100	224.665	-0.103	0.163
-183.085	366.780	0.044	-0.088
-182.071	-200.000	-0.035	0.211
-181.056	-200.000	0.015	-0.407
-180.042	-119.664	0.309	-0.052
-179.027	-200.000	0.007	-0.250
-178.012	51.025	-0.144	-0.133
-176.998	-36.642	0.309	0.162
-175.983	62.140	-0.184	0.179
-174.969	-67.999	0.197	0.075
-173.954	-200.000	-0.032	0.167
-172.939	-93.227	0.164	0.044
-171.925	528.511	-0.043	0.100
-170.910	563.005	0.044	-0.104
-169.896	236.022	0.187	0.301
-168.881	800.000	0.058	-0.160
-167.866	-83.190	-0.305	0.096
-166.852	800.000	-0.095	-0.386
-165.837	800.000	0.098	0.273
-164.823	-20.955	-0.125	0.075
-163.808	-182.610	-0.060	0.001
-162.793	-200.000	-0.008	0.256
-161.779	-105.260	0.546	0.121
-160.764	175.525	0.129	0.182
-159.750	-134.482	-0.392	0.047
-158.735	-200.000	-0.002	-0.012
-157.720	-17.938	0.364	0.223
-156.706	-200.000	0.036	-0.288
-155.691	-156.227	-0.244	-0.015
-154.677	-137.962	-0.221	-0.024
-153.662	37.130	0.130	-0.112
-152.647	265.877	0.184	0.313
-151.633	-20.074	-0.211	-0.127
-150.618	-113.766	-0.488	-0.093
-149.604	-98.638	-0.028	-0.007
-148.589	25.644	-0.188	-0.152
-147.574	-20.432	-0.088	-0.052
-146.560	-191.732	0.203	-0.002
-145.545	324.895	0.067	0.125
-144.531	-105.067	-0.147	-0.033
-143.516	23.719	-0.140	0.112
-142.502	79.055	0.255	-0.266
-141.487	33.183	-0.051	-0.043
-140.472	-113.953	0.106	-0.020
-139.458	800.000	0.097	-0.267
-138.443	22.375	-0.040	0.032
-137.429	-200.000	-0.014	-0.108
-136.414	-3.317	-0.185	0.126
-135.399	-45.396	-0.095	0.046
-134.385	-140.845	0.291	-0.029
-133.370	-68.926	0.246	-0.093
-132.356	55.092	-0.108	0.102
-131.341	-200.000	0.004	-0.095
-130.326	52.504	-0.033	0.031
-129.312	-142.183	0.020	-0.002
-128.297	800.000	-0.086	-0.279
-127.283	-200.000	-0.002	-0.044
-126.268	-73.073	0.316	0.113
-125.253	-103.032	-0.225	-0.052
-124.239	800.000	-0.095	-0.330
-123.224	-70.033	0.208	0.077
-122.210	800.000	-0.018	-0.058
-121.195	-10.115	-0.211	0.137
-120.180	-87.828	0.271	0.079
-119.166	800.000	0.082	0.295
-118.151	-46.543	0.027	-0.013
-117.137	340.588	0.156	-0.297
-116.122	-33.557	0.055	0.030
-115.107	-90.560	-0.263	-0.074
-114.093	-200.000	0.013	0.072
-113.078	-168.325	-0.424	0.016
-112.064	-63.899	0.107	-0.042
-111.049	121.737	0.201	0.244
-110.034	-134.681	-0.287	0.034
-109.020	227.065	0.065	-0.102
-108.005	-200.000	-0.031	0.384
-106.991	-66.342	-0.263	0.102
-105.976	587.094	-0.054	0.128
-104.962	138.853	0.096	0.123
-103.947	800.000	-0.018	0.074
-102.932	-186.659	-0.132	0.002
-101.918	77.558	0.133	0.138
-100.903	208.307	-0.065	-0.099
-99.889	4.595	0.089	-0.063
-98.874	-166.251	0.458	-0.019
-97.859	259.162	-0.143	0.239
-96.845	-26.449	0.108	-0.062
-95.830	113.417	-0.227	-0.268
-94.816	717.240	-0.124	-0.320
-93.801	222.488	0.179	-0.281
-92.786	-200.000	-0.008	-0.092
-91.772	24.753	-0.343	-0.276
-90.757	800.000	0.024	0.067
-89.743	94.189	0.082	-0.091
-88.728	-148.650	0.182	0.014
-87.713	204.107	-0.058	0.088
-86.699	-47.256	0.160	0.076
-85.684	726.136	-0.153	0.397
-84.670	-55.172	-0.091	0.040
-83.655	370.320	-0.039	-0.077
-82.640	62.826	0.232	-0.226
-81.626	206.659	0.125	0.189
-80.611	253.453	0.114	-0.189
-79.597	145.927	0.104	-0.135
-78.582	53.139	0.189	0.176
-77.567	-200.000	0.021	-0.215
-76.553	-47.618	-0.017	0.008
-75.538	7.372	-0.182	-0.132
-74.524	-200.000	0.061	-0.339
-73.509	180.564	0.074	0.106
-72.494	264.887	0.113	0.191
-71.480	32.452	-0.103	0.087
-70.465	-158.987	-0.052	0.003
-69.451	-154.952	0.181	0.012
-68.436	800.000	0.055	0.217
-67.422	422.526	-0.029	0.061
-66.407	148.397	0.050	0.066
-65.392	10.494	0.283	0.210
-64.378	-200.000	-0.031	-0.163
-63.363	162.059	-0.040	0.054
-62.349	-96.316	-0.157	0.040
-61.334	66.983	-1.058	-1.047
-60.319	126.818	0.845	1.041
-59.305	301.119	-0.760	-1.363
-58.290	460.128	0.770	1.666
-57.276	406.445	0.652	1.338
-56.261	-200.000	135.890	623.783
-55.246	344.825	1636.498	3120.701
-54.232	137.506	2781.816	3536.660
-53.217	76.780	2300.001	2370.864
-52.203	27.546	1905.597	1557.239
-51.188	21.998	1701.612	1348.023
-50.173	20.418	1664.844	1306.961
-49.159	41.131	1738.702	1525.731
-48.144	37.480	1747.450	1505.151
-47.130	21.521	1699.761	1342.678
-46.115	19.312	1684.802	1313.991
-45.100	19.268	1679.031	1309.106
-44.086	19.117	1676.833	1306.196
-43.071	19.146	1673.978	1304.139
-42.057	19.141	1671.930	1302.456
-41.042	19.117	1669.969	1300.693
-40.027	19.213	1667.651	1299.562
-39.013	19.110	1665.979	1297.425
-37.998	19.137	1664.436	1296.377
-36.984	19.184	1663.281	1295.779
-35.969	19.286	1661.611	1295.194
-34.954	19.284	1660.131	1293.977
-33.940	19.195	1658.073	1291.649
-32.925	19.095	1656.934	1289.968
-31.911	19.148	1655.027	1288.825
-30.896	19.175	1653.450	1287.750
-29.881	19.220	1652.113	1286.990
-28.867	19.271	1650.210	1285.838
-27.852	19.272	1648.909	1284.780
-26.838	19.257	1647.620	1283.617
-25.823	19.257	1646.661	1282.819
-24.809	19.265	1644.892	1281.447
-23.794	19.294	1643.181	1280.279
-22.779	19.304	1642.050	1279.419
-21.765	19.236	1641.019	1278.060
-20.750	19.254	1639.004	1276.575
-19.736	19.270	1637.909	1275.794
-18.721	19.289	1635.905	1274.321
-17.706	19.339	1634.759	1273.747
-16.692	19.322	1632.982	1272.185
-15.677	19.373	1631.609	1271.443
-14.663	19.339	1630.427	1270.216
-13.648	19.273	1628.941	1268.524
-12.633	19.310	1627.674	1267.763
-11.619	19.242	1625.469	1265.496
-10.604	19.227	1624.576	1264.634
-9.590	19.263	1623.591	1264.084
-8.575	19.295	1622.250	1263.223
-7.560	19.318	1621.125	1262.466
-6.546	19.259	1620.197	1261.264
-5.531	19.373	1618.634	1260.827
-4.517	19.320	1617.358	1259.397
-3.502	19.254	1616.299	1258.038
-2.487	19.305	1615.200	1257.512
-1.473	18.868	1602.582	1244.468
-0.458	15.831	1582.769	1207.280
0.556	11.233	1584.694	1175.901
1.571	9.016	1609.404	1177.870
2.586	8.952	1620.471	1185.391
3.600	8.404	1565.929	1141.473
4.615	4.863	1461.728	1041.773
5.629	1.221	1407.084	979.266
6.644	0.650	1401.240	971.438
7.659	0.562	1399.875	969.842
8.673	0.624	1398.851	969.445
9.688	0.524	1396.760	967.269
10.702	0.427	1393.108	964.033
11.717	2.253	1394.542	976.618
12.731	7.791	1402.652	1017.722
13.746	14.151	1412.784	1065.854
14.761	16.964	1416.535	1086.631
15.775	16.412	1415.523	1082.229
16.790	15.509	1413.212	1074.590
17.804	14.901	1410.578	1068.605
18.819	14.451	1408.615	1064.150
19.834	14.279	1407.545	1062.151
20.848	14.038	1406.765	1059.935
21.863	13.742	1405.744	1057.182
22.877	13.564	1404.378	1054.931
23.892	13.502	1403.355	1053.674
24.907	13.564	1402.161	1053.080
25.921	13.541	1401.706	1052.497
26.936	13.582	1400.542	1051.789
27.950	13.601	1399.403	1050.964
28.965	13.662	1398.896	1050.872
29.980	13.736	1397.632	1050.304
30.994	13.750	1396.534	1049.469
32.009	13.772	1395.650	1048.855
33.023	13.849	1394.345	1048.266
34.038	13.725	1393.305	1046.607
35.053	13.704	1391.927	1045.347
36.067	13.616	1391.494	1044.378
37.082	13.750	1389.738	1043.809
38.096	13.663	1389.406	1042.919
39.111	13.743	1387.890	1042.194
40.126	13.707	1387.351	1041.468
41.140	13.555	1387.017	1040.172
42.155	13.601	1385.989	1039.597
43.169	13.653	1386.321	1040.080
44.184	13.626	1385.727	1039.375
45.199	13.473	1385.583	1038.215
46.213	13.672	1384.862	1038.831
47.228	13.658	1383.811	1037.861
48.242	13.697	1382.552	1037.069
49.257	13.687	1381.043	1035.782
50.271	13.565	1379.865	1034.045
51.286	13.588	1378.447	1033.034
52.301	13.637	1376.859	1032.062
53.315	13.683	1375.705	1031.390
54.330	13.573	1375.119	1030.176
55.344	13.496	1373.695	1028.540
56.359	13.491	1372.791	1027.743
57.374	13.543	1371.814	1027.241
58.388	13.549	1371.148	1026.685
59.403	13.574	1370.644	1026.374
60.417	13.496	1369.977	1025.299
61.432	13.549	1368.861	1024.703
62.447	13.509	1367.986	1023.708
63.461	13.467	1366.711	1022.405
64.476	13.537	1365.762	1022.037
65.490	13.520	1364.552	1020.935
66.505	13.490	1362.656	1019.243
67.520	13.494	1361.463	1018.288
68.534	13.546	1360.073	1017.474
69.549	13.456	1359.776	1016.608
70.563	13.494	1358.596	1015.871
71.578	13.528	1356.995	1014.792
72.593	13.483	1356.666	1014.180
73.607	13.480	1355.491	1013.198
74.622	13.519	1354.765	1012.801
75.636	13.459	1354.106	1011.850
76.651	13.492	1353.080	1011.198
77.666	13.430	1352.676	1010.431
78.680	13.523	1351.727	1010.196
79.695	13.401	1350.960	1008.793
80.709	13.465	1350.484	1008.733
81.724	13.482	1349.513	1008.024
82.739	13.479	1348.819	1007.399
83.753	13.636	1347.654	1007.392
84.768	13.560	1346.500	1005.980
85.782	13.623	1345.475	1005.507
86.797	13.637	1343.805	1004.255
87.812	13.614	1342.397	1002.973
88.826	13.657	1341.172	1002.231
89.841	13.610	1340.076	1001.042
90.855	13.692	1338.795	1000.491
91.870	13.694	1338.449	1000.154
92.884	13.700	1337.762	999.589
93.899	13.663	1336.770	998.534
94.914	13.751	1335.320	997.892
95.928	13.748	1335.038	997.575
96.943	13.714	1333.767	996.334
97.957	13.705	1333.019	995.635
98.972	13.670	1331.536	994.227
99.987	13.635	1330.538	993.184
101.001	13.731	1329.459	992.866
102.016	13.784	1328.605	992.458
103.030	13.764	1327.634	991.526
104.045	13.727	1326.452	990.336
105.060	13.481	1326.055	988.480
106.074	13.583	1324.154	987.583
107.089	13.530	1323.132	986.422
108.103	13.652	1321.326	985.715
109.118	13.597	1320.227	984.476
110.133	13.576	1318.743	983.160
111.147	13.581	1317.305	982.032
112.162	13.601	1316.125	981.182
113.176	13.633	1315.373	980.724
114.191	13.680	1314.455	980.231
115.206	13.640	1313.117	978.907
116.220	13.666	1311.725	977.938
117.235	13.736	1310.522	977.367
118.249	13.628	1309.905	976.184
119.264	13.615	1308.075	974.657
120.279	13.646	1307.146	974.064
121.293	13.665	1305.896	973.159
122.308	13.631	1305.064	972.254
123.322	13.588	1304.135	971.222
124.337	13.708	1302.750	970.805
125.352	13.524	1302.266	969.285
126.366	13.513	1300.899	968.114
127.381	13.591	1299.650	967.556
128.395	13.620	1298.216	966.572
129.410	13.576	1297.572	965.748
130.424	13.605	1296.948	965.370
131.439	13.643	1295.694	964.572
132.454	13.692	1294.435	963.834
133.468	13.712	1293.887	963.455
134.483	13.642	1293.326	962.544
135.497	13.699	1291.758	961.623
136.512	13.506	1290.570	959.536
137.527	13.695	1289.035	959.403
138.541	13.646	1287.315	957.757
139.556	13.653	1286.546	957.139
140.570	13.765	1285.250	956.741
141.585	13.713	1284.599	955.867
142.600	13.731	1283.532	955.092
143.614	13.867	1281.948	954.614
144.629	13.797	1281.929	954.110
145.643	13.786	1280.119	952.620
146.658	13.881	1278.531	951.896
147.673	13.721	1277.503	950.132
148.687	13.739	1276.067	949.080
149.702	13.771	1275.150	948.500
150.716	13.835	1273.159	947.300
151.731	13.851	1272.233	946.615
152.746	13.731	1271.195	945.079
153.760	13.775	1269.949	944.320
154.775	13.956	1268.334	944.063
155.789	13.859	1267.403	942.733
156.804	13.918	1266.798	942.535
157.819	13.868	1265.790	941.420
158.833	13.825	1264.918	940.446
159.848	13.991	1263.171	940.002
160.862	13.958	1262.736	939.410
161.877	13.961	1261.333	938.298
162.892	13.834	1260.615	936.965
163.906	13.893	1259.584	936.448
164.921	13.757	1258.941	935.118
165.935	13.971	1257.682	935.308
166.950	13.848	1257.740	934.572
167.964	14.051	1256.126	934.435
168.979	13.925	1255.570	933.228
169.994	13.967	1254.822	932.827
171.008	13.986	1253.863	932.140
172.023	14.076	1253.050	931.953
173.037	14.067	1252.431	931.360
174.052	14.099	1251.170	930.522
175.067	14.050	1249.816	929.156
176.081	14.015	1249.299	928.496
177.096	14.066	1247.980	927.716
178.110	14.005	1247.087	926.631
179.125	14.109	1245.633	926.046
180.140	14.102	1244.763	925.280
181.154	14.057	1243.785	924.225
182.169	14.084	1242.635	923.434
183.183	14.139	1241.223	922.609
184.198	14.183	1240.254	922.049
185.213	14.264	1238.979	921.468
186.227	14.285	1237.486	920.393
187.242	14.256	1236.587	919.487
188.256	14.438	1235.154	919.340
189.271	14.287	1234.666	918.066
190.286	14.245	1234.044	917.291
191.300	14.188	1232.634	915.844
192.315	14.113	1232.284	915.090
193.329	14.222	1231.714	915.189
194.344	14.200	1230.655	914.201
195.359	14.176	1230.330	913.743
196.373	14.451	1229.537	914.585
197.388	14.183	1229.781	913.212
198.402	14.300	1229.008	913.198
199.417	14.432	1227.950	913.058
200.432	14.445	1227.030	912.365
201.446	14.561	1226.091	912.219
202.461	14.542	1225.081	911.283
203.475	14.489	1224.059	910.151
204.490	14.387	1223.003	908.733
205.504	14.435	1221.709	907.952
206.519	14.537	1220.555	907.566
207.534	14.417	1219.426	905.995
208.548	14.415	1218.444	905.174
209.563	14.573	1217.431	905.200
210.577	14.464	1217.109	904.287
211.592	14.461	1216.251	903.553
212.607	14.620	1214.881	903.317
213.621	14.561	1214.210	902.419
214.636	14.564	1213.337	901.707
215.650	14.575	1212.528	901.088
216.665	14.641	1211.686	900.734
217.680	14.679	1210.658	900.095
218.694	14.780	1209.782	899.913
219.709	14.700	1208.781	898.654
220.723	14.863	1207.539	898.531
221.738	14.706	1207.921	897.890
222.753	14.717	1206.223	896.609
223.767	14.812	1205.560	896.545
224.782	14.836	1205.298	896.399
225.796	14.901	1204.306	895.929
226.811	14.860	1203.980	895.387
227.826	14.955	1202.836	894.965
228.840	14.772	1202.835	893.910
229.855	14.895	1201.830	893.739
230.869	14.846	1200.921	892.726
231.884	14.741	1200.324	891.643
232.899	14.801	1199.693	891.414
233.913	14.886	1198.830	891.146
234.928	14.932	1197.838	890.574
235.942	14.857	1197.126	889.568
236.957	14.812	1196.127	888.509
237.972	14.820	1195.687	888.144
238.986	14.772	1195.318	887.535
240.001	14.838	1194.065	886.878
241.015	14.913	1193.119	886.493
242.030	14.937	1192.347	885.971
243.045	14.977	1191.919	885.783
244.059	15.052	1190.650	885.157
245.074	14.981	1190.008	884.229
246.088	14.998	1189.245	883.671
247.103	15.035	1188.559	883.282
248.117	15.055	1187.683	882.659
249.132	15.078	1187.521	882.581
250.147	15.307	1186.190	882.715
251.161	15.199	1185.309	881.414
252.176	15.241	1184.820	881.196
253.190	15.243	1183.984	880.504
254.205	15.310	1183.782	880.628
255.220	15.289	1183.042	879.891
256.234	15.274	1182.270	879.159
257.249	15.210	1182.264	878.744
258.263	15.269	1181.280	878.244
259.278	15.355	1180.434	877.988
260.293	15.424	1179.799	877.797
261.307	15.379	1179.543	877.293
262.322	15.486	1178.640	877.105
263.336	15.480	1178.001	876.519
264.351	15.537	1177.313	876.228
265.366	15.541	1176.456	875.535
266.380	15.445	1175.777	874.452
267.395	15.515	1175.271	874.358
268.409	15.460	1174.456	873.393
269.424	15.537	1173.522	873.018
270.439	15.559	1173.045	872.700
271.453	15.516	1172.536	872.023
272.468	15.515	1171.153	870.912
273.482	15.440	1170.898	870.258
274.497	15.449	1170.262	869.751
275.512	15.563	1169.634	869.800
276.526	15.647	1168.368	869.213
277.541	15.551	1167.920	868.306
278.555	15.581	1167.223	867.868
279.570	15.706	1166.154	867.640
280.585	15.678	1165.468	866.910
281.599	15.718	1165.057	866.734
282.614	15.681	1163.257	865.126
283.628	15.687	1162.422	864.460
284.643	15.712	1161.521	863.842
285.657	15.779	1160.661	863.470
286.672	15.806	1159.737	862.843
287.687	15.721	1158.749	861.600
288.701	15.707	1158.233	861.065
289.716	15.746	1157.614	860.731
290.730	15.830	1156.416	860.195
291.745	15.854	1155.698	859.703
292.760	15.855	1155.015	859.127
293.774	15.840	1154.630	858.686
294.789	15.914	1154.297	858.743
295.803	15.850	1153.479	857.732
296.818	15.863	1152.936	857.319
297.833	15.881	1152.153	856.750
298.847	16.056	1151.044	856.738
299.862	15.963	1150.049	855.449
300.876	15.956	1149.563	854.980
301.891	15.941	1149.242	854.587
302.906	15.965	1148.374	853.988
303.920	16.144	1147.103	853.872
304.935	16.087	1147.112	853.518
305.949	16.120	1146.062	852.826
306.964	16.137	1145.378	852.329
307.979	16.216	1144.382	851.909
308.993	16.284	1143.525	851.542
310.008	16.060	1143.021	849.962
311.022	16.167	1142.498	850.034
312.037	16.255	1140.915	849.227
313.052	16.253	1140.474	848.810
314.066	16.163	1139.467	847.535
315.081	16.183	1138.593	846.912
316.095	16.182	1137.907	846.319
317.110	16.211	1137.249	845.902
318.125	16.198	1136.432	845.153
319.139	16.294	1135.521	844.882
320.154	16.227	1134.856	843.974
321.168	16.196	1134.474	843.465
322.183	16.305	1133.614	843.291
323.197	16.071	1133.572	842.020
324.212	16.218	1132.994	842.247
325.227	16.289	1132.132	841.890
326.241	16.292	1131.092	841.053
327.256	16.269	1130.697	840.570
328.270	16.285	1129.639	839.792
329.285	16.239	1128.463	838.612
330.300	16.368	1127.359	838.359
331.314	16.307	1126.956	837.685
332.329	16.358	1125.697	836.927
333.343	16.506	1124.294	836.539
334.358	16.423	1124.320	836.077
335.373	16.406	1123.665	835.432
336.387	16.484	1122.628	834.973
337.402	16.444	1121.637	833.963
338.416	16.375	1121.131	833.170
339.431	16.547	1120.550	833.511
340.446	16.579	1119.767	833.017
341.460	16.566	1118.903	832.236
342.475	16.638	1118.150	831.957
343.489	16.589	1117.630	831.254
344.504	16.612	1116.224	830.248
345.519	16.683	1115.153	829.728
346.533	16.703	1114.614	829.351
347.548	16.686	1113.841	828.619
348.562	16.867	1112.954	828.767
349.577	16.660	1112.448	827.306
350.592	16.601	1112.453	826.947
351.606	16.721	1110.981	826.368
352.621	16.712	1109.877	825.430
353.635	16.629	1109.519	824.685
354.650	16.648	1108.844	824.203
355.665	16.741	1108.118	824.042
356.679	16.705	1107.574	823.391
357.694	16.767	1106.986	823.182
358.708	16.768	1106.462	822.723
359.723	16.827	1105.576	822.281
360.738	16.819	1105.090	821.806
361.752	16.726	1104.388	820.761
362.767	16.998	1103.369	821.248
363.781	16.909	1102.867	820.371
364.796	16.886	1102.523	819.933
365.810	16.931	1101.886	819.605
366.825	17.063	1100.852	819.398
367.840	17.059	1100.670	819.169
368.854	17.059	1100.214	818.761
369.869	17.087	1099.126	818.010
370.883	16.965	1098.510	816.891
371.898	17.065	1097.632	816.651
372.913	17.019	1097.535	816.285
373.927	17.123	1096.653	816.056
374.942	17.117	1095.832	815.342
375.956	17.234	1095.313	815.448
376.971	17.298	1094.749	815.263
377.986	17.098	1094.694	814.191
379.000	17.229	1093.643	813.966
380.015	17.242	1093.278	813.684
381.029	17.330	1092.263	813.276
382.044	17.211	1091.742	812.247
383.059	17.268	1091.380	812.177
384.073	17.219	1090.082	810.905
385.088	17.276	1089.258	810.494
386.102	17.409	1087.625	809.839
387.117	17.329	1087.608	809.374
388.132	17.297	1086.588	808.390
389.146	17.296	1085.739	807.684
390.161	17.302	1085.198	807.236
391.175	17.288	1084.832	806.826
392.190	17.303	1083.851	806.097
393.205	17.355	1082.971	805.618
394.219	17.477	1081.683	805.167
395.234	17.383	1081.110	804.225
396.248	17.404	1080.039	803.454
397.263	17.377	1079.187	802.624
398.278	17.397	1078.419	802.077
399.292	17.327	1078.100	801.438
400.307	17.481	1077.246	801.458
401.321	17.447	1076.523	800.687
402.336	17.479	1076.255	800.567
403.350	17.505	1075.226	799.853
404.365	17.558	1074.575	799.549
405.380	17.601	1073.263	798.705
406.394	17.534	1073.027	798.140
407.409	17.576	1071.790	797.349
408.423	17.639	1071.121	797.077
409.438	17.702	1070.535	796.862
410.453	17.720	1069.938	796.433
411.467	17.576	1069.326	795.234
412.482	17.757	1068.639	795.496
413.496	17.719	1067.990	794.766
414.511	17.704	1067.611	794.341
415.526	17.905	1067.042	794.785
416.540	17.845	1066.479	794.018
417.555	17.827	1065.832	793.383
418.569	17.855	1065.439	793.149
419.584	17.813	1065.063	792.604
420.599	17.863	1064.259	792.166
421.613	109.666	1332.830	1493.113
422.628	101.363	1371.878	1493.188
