DTS Sentinel unit serial number:	SN413079Multiplexer serial number:	ORYXHardware model number:	OX4-SRSoftware version number:	ORYX F/W v4.00 Oryx Data Collector v3.7.2.0data status	okinstallation	princeton_trtdifferential loss correction	single-endedforward channel	channel 2reverse channel	N/Adate	2019/09/15time	02:27:35forward acquisition time	60.00reverse acquisition time	0.00gamma	496.2192k internal	0.2326k external	0.2326temperature offset calibration	1.0031default loss term (dB/km)	0.3790temperature slope calibration	1.0000multiplexer offset coefficient	1.0000multiplexer slope coefficient	1.0000fibre end	0.00T internal ref (°C)	31.56T ext. ref 1 (°C)	4.55T ext. ref 2 (°C)	25.94length (m)	temperature (°C)	Stokes	anti-Stokes-747.200	481.541	0.099	0.227
-746.185	267.020	-0.141	0.248
-745.171	75.983	0.221	0.235
-744.156	-61.370	-0.421	-0.179
-743.142	-38.146	-0.047	0.025
-742.127	424.065	-0.026	0.057
-741.112	800.000	0.032	0.112
-740.098	-43.272	0.254	0.130
-739.083	800.000	-0.130	-0.398
-738.069	467.920	0.074	0.167
-737.054	183.552	0.118	-0.176
-736.039	406.631	-0.159	0.339
-735.025	269.284	0.285	0.505
-734.010	-73.860	0.112	0.041
-732.996	31.958	0.071	0.062
-731.981	302.755	-0.143	-0.267
-730.966	19.624	-0.236	-0.191
-729.952	-14.190	-0.170	0.111
-728.937	-37.915	0.154	-0.083
-727.923	-109.151	0.103	0.022
-726.908	-56.538	0.205	0.092
-725.894	-200.000	-0.024	-0.154
-724.879	-137.979	-0.292	-0.033
-723.864	23.438	-0.201	0.167
-722.850	74.375	0.268	-0.284
-721.835	109.496	-0.246	-0.297
-720.821	90.586	-0.181	0.204
-719.806	80.645	0.074	-0.081
-718.791	273.045	0.087	-0.154
-717.777	800.000	-0.052	-0.204
-716.762	-48.655	-0.304	0.147
-715.748	-200.000	0.007	0.258
-714.733	35.554	0.012	0.010
-713.718	234.150	-0.071	-0.119
-712.704	683.623	-0.109	-0.287
-711.689	-116.269	0.310	-0.058
-710.675	-62.406	0.039	-0.016
-709.660	-63.406	0.168	0.070
-708.645	-70.247	0.208	-0.080
-707.631	-89.141	0.274	-0.082
-706.616	330.553	0.146	0.282
-705.602	451.832	-0.004	0.009
-704.587	-107.482	-0.449	-0.099
-703.572	-108.396	0.196	0.042
-702.558	-90.748	-0.095	0.028
-701.543	102.555	0.119	-0.141
-700.529	-200.000	-0.019	-0.194
-699.514	615.982	-0.044	0.110
-698.499	-99.967	0.164	0.041
-697.485	100.482	0.074	-0.086
-696.470	-200.000	0.024	-0.130
-695.456	189.663	-0.134	0.202
-694.441	28.082	-0.228	-0.193
-693.426	395.931	0.074	0.156
-692.412	14.726	-0.079	0.063
-691.397	-111.570	0.189	0.039
-690.383	800.000	0.154	0.544
-689.368	152.951	0.085	0.117
-688.354	-200.000	0.005	-0.365
-687.339	53.768	-0.196	-0.190
-686.324	-128.102	-0.089	0.013
-685.310	-142.610	-0.368	-0.036
-684.295	800.000	0.085	-0.279
-683.281	-29.948	-0.218	-0.125
-682.266	359.436	-0.056	-0.113
-681.251	-200.000	-0.020	0.126
-680.237	480.898	0.085	-0.194
-679.222	-158.469	-0.185	0.011
-678.208	-116.269	0.214	0.040
-677.193	-136.982	-0.464	0.053
-676.178	-200.000	0.022	0.142
-675.164	-67.435	-0.246	0.097
-674.149	-127.066	-0.198	0.029
-673.135	682.092	-0.030	-0.080
-672.120	158.725	-0.144	-0.202
-671.105	-78.945	-0.076	-0.026
-670.091	11.847	0.093	-0.072
-669.076	-78.740	-0.188	0.064
-668.062	-94.680	0.156	0.043
-667.047	-174.124	-0.240	0.007
-666.032	72.893	-0.026	0.028
-665.018	-200.000	0.019	0.141
-664.003	800.000	-0.083	-0.325
-662.989	-200.000	-0.002	-0.350
-661.974	-18.555	-0.104	0.065
-660.959	485.399	-0.052	-0.118
-659.945	127.174	-0.141	-0.180
-658.930	57.668	-0.167	0.165
-657.916	180.531	0.231	0.340
-656.901	-84.423	0.266	0.085
-655.886	-70.796	0.075	-0.028
-654.872	179.288	-0.217	-0.319
-653.857	498.703	-0.097	-0.225
-652.843	14.879	0.356	-0.280
-651.828	-17.489	-0.105	-0.067
-650.814	-200.000	0.022	-0.099
-649.799	-200.000	-0.067	-0.451
-648.784	-3.354	0.113	-0.079
-647.770	-47.482	-0.391	0.191
-646.755	-200.000	-0.017	0.244
-645.741	718.745	-0.068	0.181
-644.726	49.358	0.227	0.215
-643.711	384.313	0.054	-0.112
-642.697	-43.347	-0.151	-0.076
-641.682	-200.000	-0.013	-0.229
-640.668	-155.403	0.332	0.022
-639.653	-200.000	0.033	-0.270
-638.638	800.000	0.025	-0.071
-637.624	-124.353	-0.105	-0.016
-636.609	-200.000	-0.041	-0.303
-635.595	-99.252	0.199	-0.050
-634.580	-200.000	0.005	-0.272
-633.565	-81.534	-0.037	0.012
-632.551	-200.000	-0.003	-0.071
-631.536	-67.925	-0.162	-0.063
-630.522	-145.168	-0.253	-0.023
-629.507	-200.000	0.002	0.103
-628.492	-125.465	-0.303	-0.046
-627.478	335.176	-0.219	-0.426
-626.463	-93.264	-0.319	-0.089
-625.449	-55.573	-0.164	-0.074
-624.434	-200.000	0.015	0.147
-623.419	-200.000	-0.032	-0.363
-622.405	-184.670	-0.060	0.001
-621.390	52.710	0.092	0.088
-620.376	35.607	0.025	0.022
-619.361	60.143	0.296	-0.294
-618.346	-104.741	-0.238	0.055
-617.332	132.287	-0.061	-0.079
-616.317	-107.081	0.228	0.051
-615.303	214.720	0.182	-0.290
-614.288	-104.305	-0.074	-0.017
-613.273	-81.714	-0.092	-0.030
-612.259	-200.000	-0.040	-0.213
-611.244	-57.070	0.556	0.246
-610.230	-80.500	-0.268	-0.090
-609.215	-141.578	0.043	-0.004
-608.201	-39.651	-0.291	0.153
-607.186	-109.968	0.250	0.053
-606.171	95.706	-0.044	-0.050
-605.157	-40.574	-0.158	-0.082
-604.142	-122.695	-0.190	-0.031
-603.128	331.907	-0.096	0.186
-602.113	800.000	0.080	-0.286
-601.098	-98.326	-0.400	-0.103
-600.084	62.639	-0.259	-0.260
-599.069	-91.129	-0.097	-0.028
-598.055	-200.000	0.005	-0.199
-597.040	-16.343	-0.071	-0.045
-596.025	69.787	0.101	-0.104
-595.011	64.472	0.376	-0.380
-593.996	-43.718	-0.337	0.170
-592.982	-200.000	-0.020	-0.186
-591.967	-200.000	-0.020	-0.090
-590.952	-153.854	0.083	0.006
-589.938	-200.000	-0.011	0.236
-588.923	-1.297	0.250	0.177
-587.909	201.897	-0.075	0.115
-586.894	-29.851	-0.138	-0.079
-585.879	460.506	0.014	-0.032
-584.865	-35.627	-0.098	-0.053
-583.850	800.000	0.115	-0.343
-582.836	800.000	-0.009	-0.036
-581.821	-200.000	0.039	0.234
-580.806	-200.000	-0.026	0.139
-579.792	-200.000	0.014	0.072
-578.777	-200.000	0.044	-0.204
-577.763	479.045	0.157	-0.356
-576.748	800.000	-0.038	0.149
-575.733	-61.550	-0.152	0.064
-574.719	75.990	-0.274	0.291
-573.704	315.556	-0.078	0.147
-572.690	-44.269	0.246	-0.123
-571.675	-200.000	-0.007	-0.199
-570.661	800.000	0.033	0.102
-569.646	-6.904	-0.126	0.086
-568.631	626.003	-0.070	0.177
-567.617	320.504	0.069	-0.132
-566.602	40.276	-0.258	-0.233
-565.588	-1.865	-0.186	0.131
-564.573	141.769	-0.089	0.118
-563.558	32.581	0.375	0.325
-562.544	-116.570	-0.089	-0.016
-561.529	-122.614	0.184	-0.030
-560.515	334.643	-0.080	-0.154
-559.500	-97.672	-0.111	-0.029
-558.485	-18.229	-0.095	-0.059
-557.471	800.000	-0.080	0.266
-556.456	141.757	-0.085	-0.113
-555.442	-11.203	-0.221	0.146
-554.427	10.354	-0.240	-0.183
-553.412	-33.932	-0.394	-0.217
-552.398	109.640	-0.148	-0.178
-551.383	-124.975	-0.164	-0.025
-550.369	43.877	0.340	-0.311
-549.354	800.000	-0.032	0.114
-548.339	329.098	-0.017	0.032
-547.325	373.349	0.090	-0.183
-546.310	534.604	0.068	0.161
-545.296	-23.047	-0.100	0.060
-544.281	800.000	0.051	0.187
-543.266	206.421	-0.047	-0.074
-542.252	290.719	0.061	-0.111
-541.237	-137.505	-0.372	0.042
-540.223	30.312	-0.180	-0.153
-539.208	-200.000	0.165	-0.000
-538.193	-105.421	-0.255	-0.058
-537.179	48.651	0.148	-0.139
-536.164	508.057	0.056	0.130
-535.150	-85.778	-0.127	0.039
-534.135	800.000	0.106	0.428
-533.121	-75.526	0.046	0.016
-532.106	-200.000	0.024	-0.109
-531.091	-75.115	0.140	-0.050
-530.077	800.000	-0.070	-0.224
-529.062	-2.173	0.020	0.014
-528.048	-79.160	0.018	-0.006
-527.033	-10.149	-0.141	0.094
-526.018	-148.938	-0.139	0.011
-525.004	-200.000	-0.030	0.341
-523.989	733.627	-0.130	-0.348
-522.975	-78.150	0.289	-0.099
-521.960	206.586	0.247	-0.384
-520.945	171.980	0.139	-0.200
-519.931	272.390	0.145	-0.256
-518.916	47.810	-0.036	-0.034
-517.902	-122.610	0.326	-0.053
-516.887	-76.854	0.227	-0.079
-515.872	-7.231	-0.180	-0.122
-514.858	593.493	0.066	-0.164
-513.843	-96.126	0.224	-0.059
-512.829	-49.059	0.063	0.030
-511.814	-107.539	0.052	0.011
-510.799	-200.000	-0.001	-0.299
-509.785	224.155	-0.189	-0.306
-508.770	285.206	0.105	-0.190
-507.756	81.076	0.225	0.243
-506.741	-38.146	0.238	0.126
-505.726	-95.084	-0.078	-0.021
-504.712	176.740	-0.157	-0.228
-503.697	413.660	-0.058	0.124
-502.683	-53.060	-0.180	-0.083
-501.668	594.485	0.136	-0.337
-500.653	-26.431	0.197	0.116
-499.639	22.752	0.181	-0.148
-498.624	-126.366	-0.277	-0.041
-497.610	172.421	-0.214	-0.307
-496.595	216.080	0.049	-0.078
-495.581	800.000	-0.091	0.294
-494.566	264.392	-0.190	0.331
-493.551	-72.215	-0.150	0.056
-492.537	144.292	0.093	0.124
-491.522	598.720	-0.175	0.433
-490.508	-134.720	0.152	-0.018
-489.493	63.351	0.263	0.264
-488.478	680.529	-0.018	-0.046
-487.464	-14.279	-0.426	0.274
-486.449	800.000	-0.134	0.426
-485.435	187.108	0.151	0.225
-484.420	-117.367	0.172	0.031
-483.405	800.000	-0.111	-0.334
-482.391	-5.822	-0.196	-0.134
-481.376	159.710	-0.130	0.180
-480.362	-111.804	-0.252	0.051
-479.347	74.291	0.218	0.229
-478.332	5.391	0.214	0.158
-477.318	326.696	-0.052	0.099
-476.303	14.045	0.192	-0.149
-475.289	-131.912	0.416	0.054
-474.274	-169.785	-0.245	-0.009
-473.259	-90.512	-0.112	-0.032
-472.245	-177.291	0.237	0.006
-471.230	-88.435	-0.462	-0.138
-470.216	800.000	0.021	-0.081
-469.201	66.765	-0.188	0.191
-468.186	-200.000	-0.020	0.125
-467.172	-84.910	0.006	0.002
-466.157	431.292	0.155	-0.335
-465.143	54.056	-0.231	0.222
-464.128	204.212	-0.138	0.214
-463.113	105.063	-0.332	-0.391
-462.099	82.068	0.077	0.083
-461.084	-200.000	0.033	0.282
-460.070	-200.000	0.010	-0.153
-459.055	-200.000	0.016	-0.276
-458.040	246.750	0.172	-0.289
-457.026	-48.294	0.265	0.127
-456.011	800.000	-0.016	-0.057
-454.997	63.156	0.230	-0.230
-453.982	59.079	0.007	-0.007
-452.968	-124.649	-0.102	-0.016
-451.953	-60.174	0.131	0.056
-450.938	-152.321	-0.465	0.033
-449.924	-200.000	0.020	-0.338
-448.909	-1.482	0.152	-0.107
-447.895	138.294	-0.192	0.251
-446.880	304.238	0.156	-0.288
-445.865	140.210	0.291	0.383
-444.851	524.477	0.041	-0.097
-443.836	201.943	0.101	-0.156
-442.822	530.162	0.178	0.419
-441.807	-200.000	0.005	0.110
-440.792	34.121	0.054	-0.047
-439.778	790.268	-0.092	0.253
-438.763	118.061	0.030	0.037
-437.749	800.000	0.083	0.236
-436.734	-82.200	0.089	0.029
-435.719	-200.000	0.007	0.157
-434.705	-94.200	0.118	-0.032
-433.690	428.560	-0.120	0.259
-432.676	-113.979	-0.015	-0.003
-431.661	-118.317	0.089	-0.016
-430.646	-173.045	0.389	-0.012
-429.632	671.861	-0.033	-0.086
-428.617	476.801	0.058	-0.132
-427.603	396.944	-0.015	0.031
-426.588	256.359	-0.183	0.312
-425.573	-162.396	0.229	0.011
-424.559	-200.000	-0.035	0.171
-423.544	69.629	-0.286	-0.294
-422.530	617.886	0.032	-0.079
-421.515	800.000	0.129	0.508
-420.500	-51.058	0.141	-0.066
-419.486	-97.396	-0.225	0.058
-418.471	-200.000	-0.032	0.149
-417.457	-200.000	0.022	0.150
-416.442	95.060	-0.132	-0.150
-415.428	196.672	-0.152	-0.231
-414.413	-164.321	0.407	0.019
-413.398	-77.891	0.402	0.138
-412.384	-39.583	0.098	0.051
-411.369	295.593	-0.064	0.118
-410.355	-89.914	0.244	-0.071
-409.340	85.034	-0.126	-0.138
-408.325	5.782	-0.205	-0.151
-407.311	246.174	0.077	0.130
-406.296	-91.103	-0.361	0.103
-405.282	-115.951	-0.195	0.036
-404.267	-47.388	0.474	-0.229
-403.252	-131.555	-0.152	0.020
-402.238	146.700	-0.312	0.418
-401.223	18.447	-0.160	-0.127
-400.209	800.000	0.113	0.404
-399.194	112.492	0.137	-0.165
-398.179	-138.395	0.156	-0.017
-397.165	-95.820	-0.079	0.021
-396.150	98.394	0.216	-0.248
-395.136	800.000	-0.067	-0.248
-394.121	-200.000	0.033	0.234
-393.106	800.000	-0.032	-0.111
-392.092	-200.000	0.019	0.171
-391.077	800.000	-0.040	0.142
-390.063	-13.547	0.148	0.095
-389.048	-27.497	-0.093	-0.054
-388.033	78.823	0.071	0.076
-387.019	-19.176	-0.289	0.179
-386.004	33.286	-0.116	0.100
-384.990	113.267	0.035	0.042
-383.975	-65.426	0.180	-0.072
-382.960	-7.396	0.156	-0.105
-381.946	173.143	-0.290	0.415
-380.931	-126.014	0.227	0.034
-379.917	-64.374	-0.226	0.091
-378.902	800.000	-0.057	-0.217
-377.888	-22.185	0.184	-0.111
-376.873	-159.233	0.190	-0.011
-375.858	800.000	-0.105	0.371
-374.844	-5.095	0.379	-0.259
-373.829	83.449	0.174	-0.189
-372.815	-15.396	-0.099	0.063
-371.800	-114.920	-0.231	0.044
-370.785	-115.559	0.115	0.022
-369.771	-104.679	0.267	0.061
-368.756	341.800	-0.055	0.106
-367.742	800.000	0.073	0.230
-366.727	77.589	0.143	0.151
-365.712	-36.039	0.262	-0.141
-364.698	-200.000	-0.019	0.214
-363.683	-161.383	-0.374	-0.019
-362.669	-121.202	0.304	0.051
-361.654	465.612	0.060	0.134
-360.639	-70.530	0.312	-0.117
-359.625	-166.000	-0.261	-0.011
-358.610	-47.246	0.133	0.064
-357.596	-103.865	-0.069	-0.016
-356.581	176.418	-0.084	-0.122
-355.566	-100.427	0.277	0.068
-354.552	8.991	0.094	0.071
-353.537	35.968	-0.110	-0.096
-352.523	154.973	0.059	-0.081
-351.508	219.468	0.168	0.267
-350.493	-101.708	-0.233	-0.056
-349.479	-43.482	0.030	-0.015
-348.464	-174.874	0.204	0.006
-347.450	800.000	-0.077	0.251
-346.435	395.046	0.087	-0.181
-345.420	197.994	0.062	0.095
-344.406	-37.931	0.396	0.209
-343.391	58.436	-0.144	-0.140
-342.377	-16.535	0.267	-0.168
-341.362	-200.000	-0.008	0.407
-340.348	-28.674	0.105	0.060
-339.333	-200.000	-0.041	0.403
-338.318	800.000	0.046	0.145
-337.304	-22.777	-0.267	0.160
-336.289	-34.838	-0.299	0.162
-335.275	-200.000	-0.016	0.240
-334.260	-42.721	-0.081	-0.041
-333.245	800.000	-0.017	-0.058
-332.231	-200.000	0.023	0.177
-331.216	-51.113	-0.215	-0.100
-330.202	-30.861	0.331	0.186
-329.187	565.006	0.097	-0.234
-328.172	-32.224	-0.167	0.092
-327.158	-61.239	0.055	0.023
-326.143	-31.962	-0.283	0.157
-325.129	12.870	-0.290	-0.223
-324.114	-200.000	0.032	0.314
-323.099	800.000	-0.033	-0.133
-322.085	1.686	0.261	-0.187
-321.070	150.444	-0.145	0.196
-320.056	-64.875	0.254	0.102
-319.041	-200.000	0.020	0.093
-318.026	800.000	0.044	-0.153
-317.012	-200.000	-0.035	-0.227
-315.997	800.000	-0.033	0.096
-314.983	800.000	-0.089	-0.269
-313.968	-104.250	-0.080	0.018
-312.953	139.729	-0.130	-0.169
-311.939	800.000	-0.042	0.177
-310.924	42.470	-0.143	0.129
-309.910	721.077	0.045	0.118
-308.895	800.000	-0.082	0.246
-307.880	169.429	0.064	0.090
-306.866	591.358	-0.129	0.317
-305.851	-127.990	0.117	-0.017
-304.837	294.140	0.041	-0.074
-303.822	23.131	-0.010	0.009
-302.807	187.391	-0.144	0.213
-301.793	105.617	0.301	0.353
-300.778	-60.967	-0.151	-0.063
-299.764	-200.000	0.034	-0.549
-298.749	118.643	0.149	0.183
-297.735	217.216	0.079	0.124
-296.720	-200.000	-0.028	-0.157
-295.705	-166.587	-0.304	-0.013
-294.691	800.000	0.054	0.171
-293.676	600.328	0.076	0.186
-292.662	-111.696	0.208	0.042
-291.647	-200.000	0.020	0.095
-290.632	-142.457	0.142	-0.014
-289.618	18.610	-0.117	-0.092
-288.603	-89.932	-0.221	-0.064
-287.589	82.787	0.137	-0.148
-286.574	-200.000	0.038	-0.263
-285.559	238.269	-0.090	0.148
-284.545	7.857	-0.029	0.021
-283.530	229.734	-0.096	0.155
-282.516	-117.710	0.321	-0.057
-281.501	-90.495	0.242	0.069
-280.486	68.717	-0.159	0.162
-279.472	134.573	-0.058	0.074
-278.457	-163.478	-0.144	-0.007
-277.443	-120.562	-0.048	-0.008
-276.428	-151.375	-0.127	0.009
-275.413	-200.000	-0.031	-0.135
-274.399	-91.277	0.142	-0.040
-273.384	180.586	-0.147	0.214
-272.370	297.756	0.017	-0.031
-271.355	-200.000	0.014	0.123
-270.340	18.260	0.187	-0.148
-269.326	800.000	0.166	-0.529
-268.311	800.000	-0.040	0.139
-267.297	-16.289	-0.401	-0.252
-266.282	-200.000	-0.002	0.080
-265.267	-200.000	0.029	-0.155
-264.253	-30.408	0.077	0.043
-263.238	94.948	-0.039	-0.043
-262.224	-54.710	0.102	-0.046
-261.209	24.000	0.154	0.125
-260.195	556.219	-0.046	0.111
-259.180	-54.104	-0.181	0.082
-258.165	-158.874	-0.130	-0.007
-257.151	28.945	-0.103	-0.087
-256.136	-95.846	0.214	0.056
-255.122	-147.673	-0.021	-0.002
-254.107	-77.125	0.419	-0.144
-253.092	-166.767	0.045	-0.002
-252.078	536.206	0.195	0.457
-251.063	-123.377	0.269	-0.043
-250.049	-155.600	-0.185	0.012
-249.034	772.229	0.090	-0.244
-248.019	-169.214	-0.447	0.016
-247.005	-126.007	-0.288	0.043
-245.990	-43.653	-0.204	-0.102
-244.976	547.372	-0.136	-0.321
-243.961	135.365	-0.019	0.024
-242.946	-3.169	0.136	0.094
-241.932	-55.135	-0.203	0.091
-240.917	-200.000	-0.014	0.141
-239.903	-7.361	-0.103	-0.069
-238.888	94.385	0.264	0.296
-237.873	-28.269	0.403	-0.230
-236.859	245.234	0.077	0.129
-235.844	-200.000	-0.007	-0.209
-234.830	159.939	-0.081	-0.112
-233.815	-200.000	-0.006	-0.174
-232.800	341.519	0.078	-0.150
-231.786	439.289	-0.050	0.108
-230.771	-67.970	0.181	0.070
-229.757	800.000	0.058	-0.223
-228.742	-183.649	-0.416	-0.007
-227.727	28.842	-0.092	0.077
-226.713	800.000	0.040	0.118
-225.698	-153.059	-0.227	-0.016
-224.684	800.000	0.088	-0.296
-223.669	800.000	0.046	-0.185
-222.655	-11.530	-0.135	-0.088
-221.640	133.140	0.116	0.148
-220.625	233.046	0.113	-0.183
-219.611	206.649	-0.123	0.189
-218.596	-149.798	0.386	-0.030
-217.582	-89.169	0.323	0.094
-216.567	-135.106	-0.450	0.053
-215.552	150.169	0.109	-0.147
-214.538	120.707	0.162	0.199
-213.523	39.995	0.197	-0.175
-212.509	257.681	-0.099	-0.168
-211.494	-127.364	0.200	0.029
-210.479	800.000	0.072	-0.202
-209.465	452.271	-0.129	0.282
-208.450	-85.641	-0.386	-0.118
-207.436	-200.000	-0.172	-0.000
-206.421	32.948	0.095	0.082
-205.406	286.889	-0.270	0.482
-204.392	-200.000	0.038	-0.170
-203.377	-200.000	-0.062	0.383
-202.363	-111.676	-0.191	0.038
-201.348	800.000	0.051	0.189
-200.333	-128.986	0.168	-0.023
-199.319	-200.000	-0.018	-0.313
-198.304	-137.164	-0.171	-0.019
-197.290	-200.000	-0.040	0.268
-196.275	-143.875	-0.162	0.015
-195.260	-146.713	0.098	-0.008
-194.246	-200.000	-0.004	0.293
-193.231	162.990	0.117	-0.163
-192.217	-1.303	0.150	0.105
-191.202	-119.020	-0.135	-0.023
-190.187	-14.498	-0.125	-0.079
-189.173	-100.649	-0.238	-0.058
-188.158	-171.599	-0.175	0.006
-187.144	-76.006	0.345	-0.120
-186.129	190.516	-0.171	-0.253
-185.114	250.595	0.098	-0.164
-184.100	-100.065	-0.023	-0.006
-183.085	800.000	-0.020	0.071
-182.071	-178.981	0.230	0.005
-181.056	-60.578	0.171	-0.072
-180.042	-66.485	0.219	0.086
-179.027	37.125	-0.331	0.289
-178.012	-101.815	-0.151	0.036
-176.998	281.412	0.023	-0.041
-175.983	282.941	0.109	0.193
-174.969	-200.000	0.015	-0.255
-173.954	-200.000	0.005	-0.034
-172.939	-200.000	0.011	-0.086
-171.925	629.834	0.072	-0.179
-170.910	800.000	0.123	-0.525
-169.896	676.577	-0.074	0.189
-168.881	225.927	0.047	0.074
-167.866	-200.000	0.019	-0.145
-166.852	-138.486	0.169	-0.018
-165.837	-16.719	0.177	0.110
-164.823	-93.238	0.295	-0.081
-163.808	-66.745	0.137	0.053
-162.793	-186.319	0.308	-0.004
-161.779	167.293	0.203	-0.285
-160.764	800.000	0.025	-0.088
-159.750	-28.455	-0.269	-0.153
-158.735	-114.517	-0.230	0.044
-157.720	-0.449	-0.288	-0.202
-156.706	23.507	0.256	-0.207
-155.691	-200.000	-0.044	0.246
-154.677	-88.218	0.249	0.074
-153.662	-200.000	-0.024	-0.115
-152.647	800.000	-0.104	0.390
-151.633	-200.000	0.059	0.292
-150.618	-100.897	0.316	-0.077
-149.604	-200.000	0.042	0.481
-148.589	-79.185	-0.585	0.196
-147.574	-200.000	-0.031	0.226
-146.560	-111.655	0.221	0.044
-145.545	-200.000	0.028	0.220
-144.531	800.000	-0.081	0.329
-143.516	-165.769	-0.148	-0.006
-142.502	383.963	0.135	0.273
-141.487	40.441	0.307	0.273
-140.472	-146.073	-0.149	-0.013
-139.458	-38.632	-0.122	-0.064
-138.443	-200.000	0.065	-0.370
-137.429	433.225	-0.082	0.175
-136.414	469.538	0.145	0.321
-135.399	-82.293	-0.497	-0.159
-134.385	-200.000	0.013	-0.271
-133.370	38.987	0.271	0.239
-132.356	62.986	-0.204	0.201
-131.341	777.810	-0.081	0.218
-130.326	222.423	0.146	0.231
-129.312	432.259	-0.097	-0.206
-128.297	-200.000	0.057	0.311
-127.283	-25.934	0.036	-0.021
-126.268	-130.421	-0.265	0.035
-125.253	-112.828	0.316	0.062
-124.239	17.187	-0.089	-0.069
-123.224	43.730	0.168	0.151
-122.210	-18.036	0.101	-0.063
-121.195	-7.478	-0.395	-0.263
-120.180	-200.000	-0.012	-0.153
-119.166	-98.348	-0.007	-0.002
-118.151	800.000	-0.084	0.361
-117.137	210.820	-0.078	-0.120
-116.122	800.000	0.102	0.349
-115.107	-69.423	0.247	0.093
-114.093	-95.805	0.047	0.012
-113.078	-192.509	0.024	0.000
-112.064	800.000	0.053	0.168
-111.049	-162.930	-0.361	0.017
-110.034	302.406	0.120	-0.219
-109.020	184.464	0.067	-0.098
-108.005	800.000	-0.057	-0.195
-106.991	-46.691	-0.023	0.011
-105.976	-18.057	0.081	-0.050
-104.962	46.827	-0.021	0.019
-103.947	800.000	-0.025	-0.073
-102.932	-173.007	-0.188	0.006
-101.918	345.946	-0.308	-0.596
-100.903	326.155	0.134	0.252
-99.889	-6.385	0.184	-0.123
-98.874	800.000	-0.029	-0.122
-97.859	-71.412	0.332	0.122
-96.845	-96.016	-0.048	0.013
-95.830	504.680	-0.139	-0.317
-94.816	800.000	-0.083	0.281
-93.801	800.000	-0.031	0.131
-92.786	-70.179	0.158	0.059
-91.772	-101.469	-0.307	0.073
-90.757	-200.000	0.002	-0.294
-89.743	-79.024	0.177	0.059
-88.728	-200.000	-0.004	-0.098
-87.713	147.845	0.180	-0.239
-86.699	17.834	0.178	0.140
-85.684	-95.230	-0.222	-0.059
-84.670	186.337	-0.174	0.254
-83.655	112.634	-0.159	0.189
-82.640	-200.000	-0.014	0.282
-81.626	-109.574	-0.264	-0.055
-80.611	204.453	-0.031	0.048
-79.597	800.000	-0.082	-0.306
-78.582	61.796	0.168	0.164
-77.567	156.454	0.288	0.390
-76.553	-94.170	-0.262	-0.071
-75.538	83.713	-0.123	0.132
-74.524	6.915	0.295	0.216
-73.509	-44.820	0.169	0.083
-72.494	60.656	0.174	-0.170
-71.480	-73.474	0.295	0.106
-70.465	465.014	-0.101	0.223
-69.451	333.216	-0.108	0.206
-68.436	8.431	0.139	0.102
-67.422	66.300	-0.129	-0.129
-66.407	-167.159	0.158	-0.006
-65.392	-25.321	0.101	0.059
-64.378	-71.057	-0.176	0.065
-63.363	-167.280	0.203	0.008
-62.349	792.987	0.155	0.418
-61.334	-18.224	-1.135	-0.698
-60.319	111.979	0.597	0.708
-59.305	554.421	-0.348	-0.823
-58.290	224.524	0.621	0.987
-57.276	431.771	0.668	1.422
-56.261	-200.000	98.016	604.117
-55.246	626.010	1387.201	3437.213
-54.232	195.331	2575.333	3841.920
-53.217	112.872	2270.647	2701.376
-52.203	41.139	1895.576	1681.663
-51.188	34.817	1685.386	1447.455
-50.173	32.163	1641.631	1390.212
-49.159	50.143	1689.581	1566.113
-48.144	51.736	1705.605	1592.845
-47.130	34.550	1665.613	1428.244
-46.115	31.595	1652.286	1394.776
-45.100	31.539	1647.026	1389.869
-44.086	31.538	1644.018	1387.263
-43.071	31.504	1641.314	1384.676
-42.057	31.376	1639.664	1382.283
-41.042	31.488	1637.368	1381.123
-40.027	31.448	1635.493	1379.187
-39.013	31.359	1633.603	1376.884
-37.998	31.433	1631.811	1375.863
-36.984	31.458	1630.476	1374.872
-35.969	31.585	1628.727	1374.275
-34.954	31.688	1626.776	1373.329
-33.940	31.519	1625.558	1371.007
-32.925	31.557	1624.137	1370.028
-31.911	31.531	1622.440	1368.356
-30.896	31.483	1620.419	1366.245
-29.881	31.517	1619.017	1365.259
-28.867	31.540	1617.062	1363.721
-27.852	31.530	1615.195	1362.023
-26.838	31.496	1614.671	1361.280
-25.823	31.597	1612.505	1360.132
-24.809	31.564	1611.419	1358.923
-23.794	31.600	1610.028	1357.955
-22.779	31.661	1608.683	1357.211
-21.765	31.619	1607.348	1355.725
-20.750	31.590	1605.660	1354.038
-19.736	31.552	1604.216	1352.492
-18.721	31.642	1602.516	1351.656
-17.706	31.620	1601.378	1350.480
-16.692	31.589	1599.667	1348.762
-15.677	31.586	1598.248	1347.488
-14.663	31.601	1597.223	1346.683
-13.648	31.621	1596.034	1345.768
-12.633	31.693	1594.041	1344.552
-11.619	31.593	1592.799	1342.737
-10.604	31.609	1591.277	1341.516
-9.590	31.566	1589.878	1339.974
-8.575	31.643	1588.403	1339.229
-7.560	31.627	1587.180	1338.025
-6.546	31.544	1586.545	1336.845
-5.531	31.548	1585.428	1335.883
-4.517	31.628	1583.945	1335.148
-3.502	31.542	1583.558	1334.159
-2.487	31.698	1581.179	1333.206
-1.473	31.316	1569.535	1320.642
-0.458	28.464	1550.272	1284.432
0.556	24.080	1551.404	1252.494
1.571	21.802	1574.322	1254.603
2.586	21.212	1587.108	1260.420
3.600	18.809	1534.212	1201.518
4.615	11.463	1427.227	1069.664
5.629	5.448	1365.980	985.854
6.644	4.635	1358.843	975.518
7.659	4.543	1357.344	973.780
8.673	4.478	1355.985	972.308
9.688	4.545	1354.314	971.443
10.702	4.452	1351.203	968.549
11.717	7.218	1356.520	989.571
12.731	14.225	1369.505	1043.012
13.746	18.911	1376.439	1077.643
14.761	18.724	1375.247	1075.445
15.775	17.718	1372.543	1066.943
16.790	16.790	1370.063	1059.123
17.804	15.938	1367.456	1051.695
18.819	15.567	1366.473	1048.526
19.834	15.272	1365.185	1045.605
20.848	15.037	1363.963	1043.113
21.863	14.786	1363.041	1040.756
22.877	14.764	1361.314	1039.209
23.892	14.604	1360.764	1037.698
24.907	14.613	1359.883	1036.995
25.921	14.682	1358.921	1036.595
26.936	14.739	1357.742	1035.962
27.950	14.643	1357.239	1034.890
28.965	14.849	1355.810	1034.983
29.980	14.844	1354.703	1034.012
30.994	14.970	1353.435	1033.736
32.009	14.991	1352.739	1033.239
33.023	15.055	1350.991	1032.212
34.038	14.931	1350.039	1030.626
35.053	14.921	1348.576	1029.354
36.067	14.870	1347.461	1028.099
37.082	14.814	1346.761	1027.133
38.096	14.846	1346.001	1026.657
39.111	14.787	1345.212	1025.604
40.126	14.701	1344.198	1024.210
41.140	14.597	1343.318	1022.813
42.155	14.550	1342.574	1021.869
43.169	14.627	1342.306	1022.044
44.184	14.541	1342.184	1021.333
45.199	14.580	1341.739	1021.147
46.213	14.661	1341.133	1021.090
47.228	14.737	1340.225	1020.770
48.242	14.819	1339.046	1020.281
49.257	14.734	1337.666	1018.626
50.271	14.827	1336.181	1017.970
51.286	14.780	1335.052	1016.732
52.301	14.773	1333.742	1015.605
53.315	14.727	1333.105	1014.749
54.330	14.714	1331.641	1013.468
55.344	14.606	1330.541	1011.886
56.359	14.785	1329.061	1011.752
57.374	14.566	1328.429	1009.858
58.388	14.493	1327.710	1008.777
59.403	14.626	1326.813	1008.812
60.417	14.561	1326.562	1008.143
61.432	14.397	1325.852	1006.517
62.447	14.408	1324.775	1005.678
63.461	14.393	1323.406	1004.463
64.476	14.487	1322.297	1004.097
65.490	14.468	1321.098	1002.984
66.505	14.507	1319.765	1002.118
67.520	14.424	1318.409	1000.503
68.534	14.626	1317.199	1000.702
69.549	14.628	1315.829	999.587
70.563	14.403	1315.227	997.697
71.578	14.437	1313.892	996.794
72.593	14.379	1313.287	995.903
73.607	14.310	1312.536	994.833
74.622	14.354	1311.932	994.551
75.636	14.303	1311.310	993.684
76.651	14.329	1310.574	993.193
77.666	14.398	1309.891	992.999
78.680	14.318	1309.835	992.393
79.695	14.448	1308.587	992.133
80.709	14.576	1307.538	992.012
81.724	14.560	1306.995	991.416
82.739	14.508	1306.721	990.814
83.753	14.684	1305.705	990.998
84.768	14.820	1304.745	990.992
85.782	14.805	1303.442	989.825
86.797	14.773	1302.311	988.691
87.812	14.791	1300.750	987.524
88.826	14.772	1299.483	986.360
89.841	14.873	1298.344	986.008
90.855	14.857	1297.610	985.263
91.870	14.861	1296.762	984.561
92.884	14.871	1295.470	983.549
93.899	14.989	1295.012	983.809
94.914	14.959	1294.951	983.497
95.928	14.920	1293.493	982.078
96.943	14.752	1293.416	980.943
97.957	14.929	1291.822	980.683
98.972	14.887	1290.415	979.287
99.987	14.813	1289.986	978.441
101.001	14.818	1289.041	977.667
102.016	14.809	1287.814	976.595
103.030	14.812	1287.110	975.991
104.045	14.792	1286.207	975.107
105.060	14.742	1284.935	973.760
106.074	14.661	1283.033	971.766
107.089	14.557	1281.587	969.980
108.103	14.495	1280.670	968.838
109.118	14.483	1279.733	967.975
110.133	14.540	1278.084	966.972
111.147	14.522	1276.743	965.769
112.162	14.644	1275.047	965.102
113.176	14.594	1274.371	964.220
114.191	14.694	1273.462	964.020
115.206	14.563	1272.429	962.402
116.220	14.720	1270.555	961.799
117.235	14.557	1269.556	960.022
118.249	14.611	1268.951	959.789
119.264	14.582	1268.334	959.072
120.279	14.559	1266.648	957.577
121.293	14.574	1265.543	956.748
122.308	14.470	1265.043	955.689
123.322	14.429	1264.055	954.623
124.337	14.597	1262.589	954.393
125.352	14.473	1261.522	952.791
126.366	14.464	1260.770	952.090
127.381	14.458	1259.230	950.803
128.395	14.499	1258.553	950.445
129.410	14.552	1257.245	949.676
130.424	14.632	1256.491	949.476
131.439	14.583	1255.690	948.510
132.454	14.636	1254.614	947.915
133.468	14.699	1253.643	947.454
134.483	14.699	1253.617	947.347
135.497	14.600	1252.559	945.902
136.512	14.670	1250.992	945.036
137.527	14.656	1249.627	943.840
138.541	14.673	1248.533	943.024
139.556	14.687	1247.319	942.102
140.570	14.761	1246.103	941.520
141.585	14.774	1244.929	940.624
142.600	14.828	1244.083	940.205
143.614	14.971	1242.692	939.876
144.629	15.042	1241.622	939.380
145.643	14.862	1241.203	937.969
146.658	14.839	1239.619	936.562
147.673	14.849	1238.143	935.416
148.687	14.736	1237.169	933.968
149.702	14.691	1235.804	932.606
150.716	14.676	1234.486	931.441
151.731	14.819	1233.088	931.105
152.746	14.801	1231.802	929.947
153.760	14.826	1230.673	929.155
154.775	14.729	1229.637	927.748
155.789	14.862	1228.614	927.635
156.804	14.886	1227.779	927.056
157.819	14.939	1226.631	926.399
158.833	15.044	1225.720	926.209
159.848	15.066	1224.949	925.668
160.862	15.075	1223.992	924.911
161.877	14.849	1222.816	922.692
162.892	14.786	1221.492	921.265
163.906	14.853	1220.700	920.955
164.921	14.833	1219.357	919.752
165.935	14.894	1218.846	919.622
166.950	14.938	1218.405	919.447
167.964	14.927	1217.649	918.737
168.979	14.919	1216.714	917.907
169.994	14.931	1215.882	917.263
171.008	14.912	1215.726	916.960
172.023	14.985	1214.773	916.562
173.037	15.001	1214.157	916.103
174.052	15.204	1212.660	916.001
175.067	14.968	1211.714	913.917
176.081	14.877	1211.053	912.840
177.096	14.855	1210.196	911.994
178.110	14.985	1208.837	911.595
179.125	14.932	1207.680	910.357
180.140	14.974	1206.548	909.651
181.154	14.976	1205.407	908.718
182.169	15.078	1203.926	908.076
183.183	15.170	1202.963	907.769
184.198	15.185	1201.840	906.921
185.213	15.149	1200.597	905.710
186.227	15.277	1199.570	905.542
187.242	15.153	1198.788	904.205
188.256	15.255	1197.862	903.978
189.271	15.196	1197.185	903.067
190.286	15.217	1195.652	901.944
191.300	14.940	1194.411	899.439
192.315	14.894	1194.035	898.829
193.329	14.989	1193.522	898.875
194.344	14.994	1192.860	898.323
195.359	15.120	1191.693	898.039
196.373	15.119	1191.809	898.040
197.388	15.192	1191.430	898.066
198.402	15.364	1191.002	898.589
199.417	15.490	1190.327	898.671
200.432	15.421	1189.557	897.642
201.446	15.501	1188.482	897.182
202.461	15.597	1187.796	897.095
203.475	15.489	1187.019	895.854
204.490	15.526	1185.389	894.740
205.504	15.399	1184.598	893.389
206.519	15.500	1183.083	892.706
207.534	15.349	1181.999	891.008
208.548	15.394	1181.149	890.527
209.563	15.358	1180.194	889.537
210.577	15.479	1178.991	889.193
211.592	15.422	1178.705	888.593
212.607	15.509	1178.140	888.549
213.621	15.595	1177.116	888.152
214.636	15.582	1176.019	887.181
215.650	15.473	1175.254	885.947
216.665	15.620	1174.250	885.886
217.680	15.655	1173.263	885.247
218.694	15.721	1173.039	885.348
219.709	15.582	1172.183	883.894
220.723	15.723	1171.165	883.790
221.738	15.705	1170.778	883.323
222.753	15.658	1169.931	882.360
223.767	15.681	1168.981	881.686
224.782	15.643	1168.708	881.202
225.796	15.783	1167.845	881.210
226.811	15.897	1167.236	881.268
227.826	15.706	1166.864	879.907
228.840	15.739	1165.454	878.938
229.855	15.757	1164.758	878.429
230.869	15.737	1163.777	877.509
231.884	15.657	1163.198	876.581
232.899	15.697	1162.003	875.808
233.913	15.752	1161.491	875.632
234.928	15.722	1160.842	874.906
235.942	15.734	1160.237	874.436
236.957	15.694	1159.336	873.471
237.972	15.562	1158.785	872.297
238.986	15.611	1158.190	872.023
240.001	15.676	1157.393	871.683
241.015	15.803	1155.961	871.189
242.030	15.803	1155.581	870.822
243.045	15.878	1154.669	870.449
244.059	15.827	1154.204	869.758
245.074	15.921	1153.499	869.631
246.088	15.822	1152.819	868.532
247.103	15.934	1151.913	868.349
248.117	15.959	1151.093	867.782
249.132	16.057	1150.527	867.783
250.147	16.226	1149.538	867.830
251.161	16.275	1148.809	867.459
252.176	16.337	1148.321	867.329
253.190	16.278	1148.111	866.789
254.205	16.405	1147.167	866.652
255.220	16.437	1146.985	866.603
256.234	16.272	1146.439	865.268
257.249	16.337	1145.590	864.882
258.263	16.448	1144.574	864.608
259.278	16.418	1143.945	863.905
260.293	16.357	1143.636	863.282
261.307	16.422	1142.934	863.005
262.322	16.510	1142.253	862.863
263.336	16.547	1141.362	862.306
264.351	16.606	1140.896	862.178
265.366	16.573	1140.413	861.567
266.380	16.589	1139.354	860.771
267.395	16.434	1138.946	859.599
268.409	16.371	1138.289	858.707
269.424	16.464	1137.407	858.441
270.439	16.541	1136.683	858.206
271.453	16.576	1135.817	857.655
272.468	16.470	1134.900	856.349
273.482	16.448	1133.842	855.362
274.497	16.320	1133.908	854.692
275.512	16.340	1133.119	854.123
276.526	16.382	1132.556	853.835
277.541	16.492	1131.396	853.439
278.555	16.514	1130.930	853.121
279.570	16.553	1130.292	852.763
280.585	16.805	1129.294	853.202
281.599	16.774	1128.219	852.161
282.614	16.658	1127.171	850.712
283.628	16.437	1126.570	849.070
284.643	16.577	1125.422	848.833
285.657	16.646	1124.369	848.309
286.672	16.602	1123.524	847.378
287.687	16.602	1123.111	846.988
288.701	16.704	1122.468	846.939
289.716	16.698	1121.305	845.957
290.730	16.656	1121.057	845.488
291.745	16.653	1120.140	844.705
292.760	16.805	1119.590	844.971
293.774	16.838	1118.776	844.451
294.789	16.835	1118.206	843.927
295.803	16.828	1117.804	843.515
296.818	16.864	1116.676	842.768
297.833	16.752	1116.337	841.883
298.847	16.791	1115.438	841.322
299.862	16.805	1114.609	840.695
300.876	16.783	1114.362	840.323
301.891	16.913	1113.447	840.204
302.906	16.941	1112.699	839.701
303.920	16.995	1111.979	839.350
304.935	16.985	1111.454	838.832
305.949	17.065	1110.738	838.613
306.964	17.104	1110.286	838.391
307.979	17.160	1109.323	837.863
308.993	17.120	1108.572	837.026
310.008	17.163	1108.039	836.765
311.022	17.166	1107.289	836.138
312.037	17.090	1106.386	835.009
313.052	17.087	1105.270	834.074
314.066	17.003	1104.449	832.968
315.081	16.910	1103.487	831.714
316.095	16.952	1103.077	831.538
317.110	16.949	1102.413	830.952
318.125	17.011	1101.328	830.360
319.139	16.910	1100.969	829.522
320.154	17.000	1099.893	829.078
321.168	16.885	1100.126	828.619
322.183	17.023	1098.936	828.323
323.197	17.116	1098.451	828.337
324.212	17.047	1098.231	827.761
325.227	17.112	1097.267	827.281
326.241	17.213	1096.332	826.991
327.256	17.102	1095.837	826.006
328.270	17.106	1094.854	825.213
329.285	17.149	1093.827	824.574
330.300	17.174	1092.862	823.896
331.314	17.130	1091.932	822.909
332.329	17.106	1091.179	822.151
333.343	17.180	1090.183	821.686
334.358	17.232	1089.652	821.466
335.373	17.214	1088.886	820.728
336.387	17.313	1088.053	820.504
337.402	17.373	1087.281	820.141
338.416	17.364	1086.786	819.651
339.431	17.392	1085.995	819.115
340.446	17.483	1085.432	819.054
341.460	17.495	1084.867	818.616
342.475	17.607	1084.055	818.469
343.489	17.560	1083.342	817.632
344.504	17.633	1082.267	817.096
345.519	17.617	1081.638	816.472
346.533	17.671	1080.655	815.917
347.548	17.629	1079.821	815.015
348.562	17.629	1079.416	814.638
349.577	17.556	1078.666	813.652
350.592	17.569	1077.513	812.773
351.606	17.419	1076.913	811.532
352.621	17.506	1076.112	811.270
353.635	17.451	1075.792	810.693
354.650	17.403	1074.938	809.752
355.665	17.514	1074.317	809.740
356.679	17.536	1073.603	809.234
357.694	17.630	1072.911	809.085
358.708	17.672	1072.559	808.952
359.723	17.650	1071.884	808.263
360.738	17.629	1071.453	807.767
361.752	17.636	1071.090	807.457
362.767	17.589	1070.307	806.571
363.781	17.680	1069.590	806.391
364.796	17.653	1069.366	806.022
365.810	17.723	1068.778	805.839
366.825	17.798	1068.069	805.590
367.840	17.992	1067.536	806.030
368.854	18.247	1066.562	806.425
369.869	18.026	1066.307	805.122
370.883	18.029	1064.762	803.898
371.898	17.969	1064.523	803.362
372.913	18.030	1063.676	802.940
373.927	18.007	1063.262	802.449
374.942	18.042	1062.788	802.185
375.956	18.036	1062.079	801.550
376.971	17.992	1061.825	801.078
377.986	18.051	1061.427	800.985
379.000	18.249	1060.703	801.295
380.015	18.166	1060.350	800.567
381.029	18.205	1059.265	799.862
382.044	18.228	1058.732	799.496
383.059	18.216	1057.885	798.728
384.073	18.220	1057.275	798.216
385.088	18.289	1055.955	797.471
386.102	18.289	1055.571	797.111
387.117	18.151	1054.536	795.618
388.132	18.176	1053.306	794.734
389.146	18.055	1052.875	793.778
390.161	18.017	1052.234	793.046
391.175	18.053	1051.542	792.620
392.190	18.155	1050.724	792.408
393.205	18.324	1049.734	792.372
394.219	18.324	1048.834	791.624
395.234	18.241	1048.301	790.770
396.248	18.231	1047.055	789.713
397.263	18.150	1046.493	788.843
398.278	18.140	1045.868	788.259
399.292	18.167	1044.982	787.645
400.307	18.084	1044.104	786.530
401.321	18.111	1043.586	786.194
402.336	18.159	1043.063	785.952
403.350	17.978	1042.521	784.645
404.365	18.253	1041.497	785.065
405.380	18.147	1041.186	784.276
406.394	18.272	1040.495	784.256
407.409	18.361	1039.595	783.916
408.423	18.468	1039.029	783.912
409.438	18.530	1038.370	783.627
410.453	18.513	1037.459	782.793
411.467	18.621	1037.244	783.055
412.482	18.633	1036.186	782.243
413.496	18.516	1035.794	781.342
414.511	18.682	1034.945	781.388
415.526	18.576	1034.920	780.819
416.540	18.755	1034.193	781.016
417.555	18.768	1033.554	780.523
418.569	18.667	1033.143	779.685
419.584	18.712	1032.535	779.361
420.599	18.734	1031.992	778.984
421.613	150.708	1400.402	1794.541
422.628	137.570	1454.069	1794.662
