DTS Sentinel unit serial number:	SN413079Multiplexer serial number:	ORYXHardware model number:	OX4-SRSoftware version number:	ORYX F/W v4.00 Oryx Data Collector v3.7.2.0data status	okinstallation	princeton_trtdifferential loss correction	single-endedforward channel	channel 2reverse channel	N/Adate	2019/09/11time	21:09:11forward acquisition time	60.00reverse acquisition time	0.00gamma	496.2192k internal	0.2323k external	0.2323temperature offset calibration	1.0057default loss term (dB/km)	0.3790temperature slope calibration	1.0000multiplexer offset coefficient	1.0000multiplexer slope coefficient	1.0000fibre end	0.00T internal ref (°C)	36.48T ext. ref 1 (°C)	1.60T ext. ref 2 (°C)	30.60length (m)	temperature (°C)	Stokes	anti-Stokes-747.200	-122.190	0.239	0.040
-746.185	-16.023	-0.388	-0.250
-745.171	44.659	-0.281	0.261
-744.156	22.420	0.413	0.341
-743.142	7.123	-0.100	0.075
-742.127	800.000	0.076	0.299
-741.112	-200.000	-0.037	0.229
-740.098	314.412	-0.060	0.113
-739.083	-200.000	0.009	0.268
-738.069	-200.000	0.001	0.103
-737.054	673.771	-0.077	0.202
-736.039	620.508	-0.033	0.085
-735.025	126.453	0.199	0.255
-734.010	-52.067	0.137	-0.064
-732.996	68.370	0.101	-0.105
-731.981	69.176	-0.277	0.287
-730.966	-140.575	0.216	-0.023
-729.952	-7.306	-0.256	0.175
-728.937	31.615	0.068	-0.059
-727.923	486.564	-0.086	0.199
-726.908	800.000	0.099	-0.296
-725.894	-73.683	-0.242	0.089
-724.879	-200.000	0.028	-0.226
-723.864	800.000	0.089	-0.264
-722.850	-200.000	-0.056	-0.265
-721.835	31.180	0.275	0.238
-720.821	176.929	0.174	0.256
-719.806	300.723	-0.110	-0.205
-718.791	221.784	-0.204	-0.331
-717.777	-88.513	-0.071	-0.021
-716.762	-197.386	0.267	0.002
-715.748	-15.493	-0.278	0.179
-714.733	-200.000	0.048	0.242
-713.718	58.921	0.120	-0.119
-712.704	-148.418	-0.473	-0.039
-711.689	-46.336	0.199	0.099
-710.675	800.000	0.066	0.207
-709.660	-200.000	0.036	0.265
-708.645	576.003	0.027	-0.066
-707.631	-3.950	-0.435	-0.305
-706.616	800.000	0.027	0.084
-705.602	-12.652	0.197	0.130
-704.587	-105.695	0.156	0.036
-703.572	800.000	-0.013	-0.050
-702.558	-147.945	-0.317	-0.027
-701.543	74.261	0.230	0.244
-700.529	-200.000	0.035	0.251
-699.514	157.075	-0.112	0.156
-698.499	184.720	0.105	-0.157
-697.485	179.962	0.213	0.314
-696.470	310.572	0.027	0.052
-695.456	781.608	0.056	-0.155
-694.441	-108.036	0.167	-0.036
-693.426	-200.000	-0.013	-0.145
-692.412	393.716	0.044	0.092
-691.397	517.165	0.068	0.161
-690.383	-63.842	-0.079	0.033
-689.368	800.000	-0.057	-0.166
-688.354	-113.390	0.183	0.036
-687.339	173.305	0.183	-0.265
-686.324	151.601	0.177	-0.243
-685.310	-78.028	0.206	-0.072
-684.295	-200.000	0.008	-0.180
-683.281	-165.557	-0.213	-0.009
-682.266	108.510	-0.297	-0.357
-681.251	800.000	0.046	-0.134
-680.237	88.998	0.176	-0.197
-679.222	-200.000	-0.009	-0.248
-678.208	-120.784	-0.156	-0.026
-677.193	-56.099	-0.114	0.051
-676.178	-173.960	0.122	0.004
-675.164	-122.193	-0.454	0.075
-674.149	-61.505	-0.144	0.061
-673.135	-200.000	0.037	-0.523
-672.120	19.145	-0.361	-0.292
-671.105	334.734	-0.101	0.196
-670.091	113.969	-0.094	-0.116
-669.076	225.487	0.115	0.188
-668.062	-74.767	-0.145	0.053
-667.047	-8.578	0.123	-0.083
-666.032	-93.350	-0.131	0.037
-665.018	779.195	0.038	0.104
-664.003	-6.947	0.391	0.267
-662.989	108.202	-0.057	0.069
-661.974	654.344	-0.015	0.040
-660.959	426.253	0.064	-0.138
-659.945	97.211	0.256	-0.296
-658.930	-200.000	0.025	0.257
-657.916	800.000	0.064	-0.191
-656.901	-68.942	-0.072	0.028
-655.886	-104.358	-0.107	0.025
-654.872	-134.951	-0.242	0.029
-653.857	-120.318	0.149	0.026
-652.843	-159.196	-0.099	-0.006
-651.828	-200.000	-0.045	-0.211
-650.814	-200.000	-0.026	-0.485
-649.799	-200.000	-0.013	-0.125
-648.784	-200.000	0.012	0.238
-647.770	6.719	-0.186	-0.139
-646.755	41.678	-0.188	-0.171
-645.741	409.896	-0.069	0.148
-644.726	541.440	-0.048	-0.115
-643.711	-22.610	0.213	0.130
-642.697	733.298	0.082	-0.220
-641.682	-24.003	-0.366	-0.220
-640.668	-146.177	-0.139	0.012
-639.653	-200.000	-0.011	-0.385
-638.638	6.341	0.126	0.094
-637.624	144.450	0.138	-0.185
-636.609	-16.455	-0.169	0.108
-635.595	-200.000	0.024	-0.152
-634.580	-49.074	0.113	0.054
-633.565	800.000	0.078	0.260
-632.551	503.297	-0.025	0.059
-631.536	-200.000	0.044	-0.219
-630.522	-30.027	0.096	0.055
-629.507	-200.000	-0.090	-0.458
-628.492	74.116	0.205	-0.216
-627.478	-50.990	-0.220	0.104
-626.463	85.458	-0.316	0.349
-625.449	14.205	-0.178	-0.140
-624.434	99.431	-0.068	0.079
-623.419	-44.545	-0.070	-0.035
-622.405	-140.974	0.131	0.014
-621.390	-200.000	-0.170	0.000
-620.376	146.189	-0.171	-0.231
-619.361	194.319	-0.307	0.468
-618.346	-121.947	0.112	-0.019
-617.332	-200.000	0.003	0.153
-616.317	3.265	-0.234	-0.171
-615.303	800.000	-0.061	0.176
-614.288	-97.949	-0.225	0.058
-613.273	-42.445	-0.101	0.052
-612.259	195.445	-0.147	-0.225
-611.244	467.497	0.114	-0.256
-610.230	62.343	0.169	-0.169
-609.215	81.671	0.108	-0.118
-608.201	671.679	-0.044	-0.115
-607.186	8.901	0.266	0.202
-606.171	354.046	-0.080	-0.159
-605.157	428.580	0.145	-0.315
-604.142	443.565	0.143	0.315
-603.128	800.000	-0.086	-0.286
-602.113	800.000	0.072	-0.221
-601.098	211.505	-0.064	-0.101
-600.084	-78.263	-0.140	-0.048
-599.069	800.000	-0.144	0.416
-598.055	-112.311	-0.194	-0.039
-597.040	-110.762	-0.154	-0.032
-596.025	122.595	0.166	-0.208
-595.011	800.000	0.143	0.480
-593.996	676.802	0.173	0.450
-592.982	-83.442	0.157	-0.051
-591.967	800.000	0.044	-0.147
-590.952	-5.600	0.086	-0.059
-589.938	-85.344	-0.025	0.008
-588.923	14.363	-0.049	-0.039
-587.909	371.002	0.028	-0.056
-586.894	-70.633	0.062	-0.024
-585.879	-179.671	0.116	-0.003
-584.865	-26.004	0.235	0.139
-583.850	556.296	0.103	0.248
-582.836	384.120	-0.077	0.159
-581.821	194.019	0.082	0.125
-580.806	-67.428	0.086	0.034
-579.792	-57.852	0.229	0.101
-578.777	-94.681	0.138	0.038
-577.763	79.959	0.154	0.166
-576.748	-159.943	-0.196	0.011
-575.733	2.130	0.072	-0.052
-574.719	175.876	0.097	-0.141
-573.704	-200.000	0.024	0.190
-572.690	91.653	0.154	0.173
-571.675	-130.547	0.237	-0.032
-570.661	363.455	-0.159	-0.321
-569.646	800.000	0.082	0.329
-568.631	-125.020	-0.465	0.072
-567.617	-200.000	-0.012	0.268
-566.602	-89.133	-0.163	-0.048
-565.588	-200.000	0.040	0.201
-564.573	-200.000	-0.001	0.074
-563.558	-79.642	0.229	0.077
-562.544	-183.726	-0.402	0.007
-561.529	358.946	-0.094	0.187
-560.515	219.981	-0.136	0.219
-559.500	113.164	0.054	-0.065
-558.485	212.723	-0.094	-0.148
-557.471	-66.891	0.242	0.096
-556.456	-65.784	-0.188	0.075
-555.442	800.000	0.094	-0.334
-554.427	-200.000	0.100	-0.488
-553.412	800.000	0.040	0.119
-552.398	-85.777	-0.320	0.099
-551.383	-157.360	0.042	0.003
-550.369	-150.889	0.117	-0.009
-549.354	52.411	0.213	0.204
-548.339	71.676	-0.326	-0.339
-547.325	-60.111	0.098	0.042
-546.310	66.624	-0.036	-0.037
-545.296	63.753	0.257	0.258
-544.281	-200.000	-0.010	-0.068
-543.266	530.905	-0.042	0.100
-542.252	-34.710	0.350	0.192
-541.237	-76.872	0.172	-0.060
-540.223	365.623	-0.150	-0.303
-539.208	-45.541	-0.292	0.145
-538.193	82.963	-0.076	-0.083
-537.179	-4.362	0.204	-0.141
-536.164	-20.211	-0.179	0.111
-535.150	123.528	-0.182	0.229
-534.135	-200.000	0.087	-0.391
-533.121	-200.000	0.003	0.066
-532.106	-136.288	-0.082	0.010
-531.091	-114.328	0.158	-0.031
-530.077	-41.855	0.458	-0.235
-529.062	40.447	-0.153	-0.138
-528.048	102.684	0.045	-0.052
-527.033	365.451	-0.089	-0.180
-526.018	800.000	-0.093	-0.265
-525.004	-76.233	-0.430	0.152
-523.989	125.859	-0.152	-0.193
-522.975	555.813	-0.045	0.107
-521.960	61.396	-0.142	0.141
-520.945	71.752	0.393	0.409
-519.931	390.814	0.039	-0.081
-518.916	-32.047	-0.369	0.207
-517.902	-58.647	-0.152	0.066
-516.887	35.629	-0.307	0.270
-515.872	-103.458	0.155	0.037
-514.858	660.902	0.094	-0.242
-513.843	-100.125	-0.236	-0.059
-512.829	-57.865	-0.155	-0.068
-511.814	251.598	0.200	-0.340
-510.799	53.400	-0.133	-0.127
-509.785	800.000	-0.028	-0.097
-508.770	185.725	0.259	-0.384
-507.756	253.954	-0.189	-0.324
-506.741	383.947	-0.055	-0.113
-505.726	-103.682	0.325	-0.076
-504.712	-71.781	-0.269	-0.100
-503.697	-181.254	-0.222	-0.004
-502.683	517.899	0.076	0.178
-501.668	-17.572	0.194	-0.122
-500.653	-26.590	-0.404	-0.236
-499.639	537.123	-0.064	-0.152
-498.624	61.911	0.072	0.072
-497.610	146.653	-0.114	-0.153
-496.595	18.998	-0.130	-0.105
-495.581	-4.155	-0.101	-0.070
-494.566	27.781	-0.277	0.233
-493.551	800.000	-0.051	-0.156
-492.537	55.489	0.193	-0.187
-491.522	-77.390	-0.138	-0.048
-490.508	800.000	0.014	-0.056
-489.493	295.656	-0.101	0.185
-488.478	800.000	-0.030	-0.110
-487.464	392.986	-0.051	0.107
-486.449	96.089	0.095	-0.109
-485.435	-73.974	0.369	-0.134
-484.420	-29.524	0.364	0.208
-483.405	-71.499	0.223	0.083
-482.391	12.598	0.069	-0.053
-481.376	-147.702	-0.509	-0.043
-480.362	-130.202	-0.312	-0.042
-479.347	-25.359	-0.207	0.122
-478.332	198.481	0.026	0.039
-477.318	800.000	0.042	-0.178
-476.303	-53.171	-0.096	0.044
-475.289	-124.087	0.577	-0.091
-474.274	389.357	0.137	-0.283
-473.259	-54.604	0.448	-0.203
-472.245	-44.902	-0.117	-0.058
-471.230	166.277	-0.101	-0.143
-470.216	30.039	0.053	0.045
-469.201	364.220	-0.087	0.174
-468.186	-200.000	0.003	-0.181
-467.172	-137.410	0.348	-0.039
-466.157	-67.812	-0.203	-0.079
-465.143	567.970	0.064	0.156
-464.128	197.688	0.148	0.226
-463.113	-200.000	0.012	-0.073
-462.099	686.168	0.047	-0.124
-461.084	422.571	-0.082	0.175
-460.070	174.730	0.379	0.548
-459.055	-200.000	0.019	0.333
-458.040	-200.000	0.008	0.206
-457.026	-75.115	-0.046	0.017
-456.011	-150.684	0.068	-0.005
-454.997	233.096	-0.078	-0.129
-453.982	-50.736	0.218	0.103
-452.968	-200.000	0.033	0.206
-451.953	-19.204	-0.168	0.104
-450.938	53.720	-0.238	0.228
-449.924	208.936	0.111	0.174
-448.909	101.535	-0.104	0.121
-447.895	-200.000	0.070	-0.468
-446.880	560.966	0.073	0.175
-445.865	-89.215	0.297	0.087
-444.851	-23.896	0.192	0.115
-443.836	517.310	-0.086	-0.200
-442.822	778.673	-0.070	-0.192
-441.807	-20.637	-0.054	0.033
-440.792	285.720	0.096	0.173
-439.778	800.000	-0.136	-0.375
-438.763	-200.000	-0.066	0.662
-437.749	214.426	0.070	0.111
-436.734	1.283	-0.197	0.141
-435.719	-200.000	-0.010	0.285
-434.705	800.000	-0.228	-0.754
-433.690	165.409	0.170	-0.239
-432.676	72.961	0.255	-0.266
-431.661	-128.053	0.322	-0.046
-430.646	492.179	0.163	0.372
-429.632	132.457	0.103	0.132
-428.617	-160.297	-0.131	-0.007
-427.603	60.973	-0.309	-0.305
-426.588	-8.069	0.220	-0.148
-425.573	136.446	-0.090	0.116
-424.559	-200.000	0.077	0.345
-423.544	-32.078	-0.205	-0.114
-422.530	-98.898	-0.074	-0.019
-421.515	-200.000	-0.071	0.332
-420.500	24.338	-0.237	-0.195
-419.486	800.000	0.059	-0.202
-418.471	-2.439	-0.023	-0.016
-417.457	349.825	0.090	-0.177
-416.442	-161.428	0.217	0.011
-415.428	-200.000	-0.008	-0.394
-414.413	-110.951	0.216	-0.044
-413.398	-126.391	0.114	0.017
-412.384	-116.625	-0.195	-0.036
-411.369	-37.082	0.098	0.052
-410.355	-94.924	-0.196	0.053
-409.340	-67.445	0.110	0.043
-408.325	38.255	-0.134	0.119
-407.311	38.200	0.015	-0.014
-406.296	35.774	0.125	0.110
-405.282	-75.896	0.371	0.131
-404.267	-200.000	-0.031	-0.203
-403.252	137.782	0.108	0.141
-402.238	-77.442	-0.190	0.066
-401.223	225.385	-0.132	-0.213
-400.209	-104.301	-0.293	-0.068
-399.194	800.000	0.071	-0.263
-398.179	-95.955	-0.081	0.022
-397.165	-74.561	-0.476	0.171
-396.150	341.824	0.176	0.342
-395.136	267.052	0.222	0.387
-394.121	-6.182	-0.142	-0.096
-393.106	1.131	-0.235	-0.168
-392.092	-200.000	0.072	-0.395
-391.077	-14.015	0.238	-0.153
-390.063	37.099	0.208	0.183
-389.048	724.477	-0.097	-0.258
-388.033	-51.372	0.253	-0.118
-387.019	-85.585	0.298	0.092
-386.004	421.094	0.131	-0.280
-384.990	30.414	-0.297	0.252
-383.975	327.886	0.113	0.215
-382.960	323.307	-0.086	0.163
-381.946	-200.000	-0.002	-0.024
-380.931	-200.000	0.030	0.360
-379.917	101.245	0.032	-0.037
-378.902	59.350	0.197	0.193
-377.888	227.922	-0.208	0.337
-376.873	-42.611	0.189	0.096
-375.858	409.265	-0.052	-0.110
-374.844	-200.000	-0.002	-0.186
-373.829	-71.214	-0.088	-0.033
-372.815	-43.941	-0.100	-0.050
-371.800	-45.606	0.153	0.075
-370.785	-200.000	0.020	0.124
-369.771	213.183	-0.098	0.154
-368.756	74.680	-0.182	0.191
-367.742	-113.938	-0.173	-0.033
-366.727	-200.000	0.038	-0.392
-365.712	197.123	0.198	0.301
-364.698	73.048	-0.178	-0.185
-363.683	126.325	0.076	-0.096
-362.669	-200.000	0.023	-0.440
-361.654	-113.065	0.166	-0.033
-360.639	-107.672	-0.281	-0.061
-359.625	187.560	-0.100	0.149
-358.610	-78.786	0.078	0.027
-357.596	-200.000	-0.027	0.426
-356.581	230.075	-0.063	-0.102
-355.566	111.732	0.154	-0.184
-354.552	-200.000	0.001	0.280
-353.537	-31.601	-0.346	0.193
-352.523	-98.586	-0.272	0.069
-351.508	-50.422	-0.329	0.154
-350.493	-100.996	0.460	0.112
-349.479	-165.460	-0.152	-0.007
-348.464	-73.915	-0.316	0.114
-347.450	800.000	-0.043	-0.172
-346.435	-157.732	0.183	-0.011
-345.420	-92.699	-0.275	-0.077
-344.406	411.708	-0.019	-0.040
-343.391	-200.000	-0.063	0.283
-342.377	-126.973	-0.180	0.026
-341.362	800.000	0.070	0.204
-340.348	-28.194	0.078	-0.045
-339.333	14.701	0.201	0.156
-338.318	115.689	-0.084	0.103
-337.304	358.397	-0.112	0.223
-336.289	121.121	-0.076	0.093
-335.275	-149.864	-0.226	-0.018
-334.260	-200.000	-0.013	0.082
-333.245	12.984	-0.286	0.220
-332.231	81.767	-0.048	0.052
-331.216	140.027	0.170	0.223
-330.202	-115.537	-0.302	-0.056
-329.187	-200.000	-0.031	-0.494
-328.172	346.072	-0.091	0.178
-327.158	133.841	0.085	0.110
-326.143	-68.559	0.135	-0.052
-325.129	-51.593	0.175	-0.081
-324.114	-83.471	-0.099	-0.031
-323.099	-127.764	0.149	0.021
-322.085	137.275	0.288	-0.375
-321.070	-122.701	0.134	0.022
-320.056	-21.071	0.197	-0.120
-319.041	-52.470	0.265	0.122
-318.026	67.856	-0.121	-0.123
-317.012	295.002	0.180	0.326
-315.997	-200.000	-0.009	0.123
-314.983	800.000	-0.087	0.301
-313.968	106.253	0.168	0.198
-312.953	-129.080	0.024	0.003
-311.939	115.409	-0.307	-0.372
-310.924	29.728	0.208	-0.175
-309.910	-200.000	0.037	-0.304
-308.895	1.191	-0.072	-0.051
-307.880	12.976	0.179	0.137
-306.866	45.176	-0.268	-0.245
-305.851	-3.254	0.072	-0.050
-304.837	-2.490	0.165	0.115
-303.822	-180.051	0.141	0.003
-302.807	-200.000	0.025	0.167
-301.793	800.000	0.077	-0.288
-300.778	-119.589	0.093	0.016
-299.764	-151.011	0.184	0.014
-298.749	703.208	0.088	-0.231
-297.735	-185.342	-0.194	-0.003
-296.720	-89.706	-0.276	-0.080
-295.705	381.556	-0.077	0.156
-294.691	-90.292	0.409	-0.118
-293.676	12.121	-0.160	0.122
-292.662	81.849	0.060	0.065
-291.647	-200.000	0.067	-0.456
-290.632	-148.135	0.137	-0.011
-289.618	-200.000	0.039	0.185
-288.603	-195.700	-0.261	-0.002
-287.589	-22.046	-0.060	-0.036
-286.574	-67.636	0.274	0.106
-285.559	-200.000	0.031	-0.190
-284.545	62.720	-0.150	-0.149
-283.530	-92.135	-0.255	-0.071
-282.516	-200.000	0.018	0.204
-281.501	800.000	-0.036	-0.121
-280.486	800.000	-0.032	-0.136
-279.472	-61.995	-0.215	-0.089
-278.457	-105.712	0.245	-0.055
-277.443	-48.453	0.248	-0.119
-276.428	305.061	-0.220	-0.406
-275.413	-70.627	-0.221	-0.083
-274.399	-200.000	0.012	-0.221
-273.384	5.014	0.135	-0.099
-272.370	-14.092	0.066	0.042
-271.355	308.056	-0.103	0.191
-270.340	-200.000	-0.048	0.612
-269.326	84.580	0.060	0.065
-268.311	-29.730	-0.173	0.098
-267.297	800.000	-0.056	-0.205
-266.282	-128.044	0.387	-0.055
-265.267	448.208	0.114	-0.249
-264.253	-14.926	0.348	0.221
-263.238	800.000	0.055	-0.202
-262.224	701.553	0.063	-0.165
-261.209	26.873	0.050	-0.041
-260.195	77.456	-0.062	-0.065
-259.180	-50.057	0.235	-0.111
-258.165	101.234	0.220	0.253
-257.151	-136.024	-0.250	-0.029
-256.136	-51.010	0.215	0.100
-255.122	-86.787	0.017	0.005
-254.107	-65.085	-0.110	0.044
-253.092	-0.936	-0.048	0.034
-252.078	13.717	-0.228	-0.176
-251.063	-119.458	-0.070	0.012
-250.049	800.000	0.005	-0.014
-249.034	-200.000	0.010	-0.195
-248.019	-70.198	-0.277	-0.104
-247.005	-4.491	-0.065	0.045
-245.990	-200.000	-0.011	0.127
-244.976	-152.500	0.098	-0.007
-243.961	-64.393	0.222	0.089
-242.946	800.000	0.099	0.311
-241.932	589.889	-0.061	-0.149
-240.917	800.000	-0.040	-0.155
-239.903	-81.880	0.161	-0.052
-238.888	50.833	0.011	0.010
-237.873	-36.344	0.204	0.109
-236.859	-200.000	0.028	-0.122
-235.844	-161.243	0.276	-0.014
-234.830	40.770	0.102	0.091
-233.815	-200.000	-0.021	0.171
-232.800	-200.000	-0.025	0.229
-231.786	46.536	0.154	0.142
-230.771	-200.000	-0.050	0.350
-229.757	291.987	-0.067	-0.121
-228.742	-134.332	0.229	-0.028
-227.727	-186.318	0.079	-0.001
-226.713	42.942	-0.038	-0.035
-225.698	3.716	-0.192	0.138
-224.684	-116.952	-0.261	0.047
-223.669	-200.000	-0.016	0.113
-222.655	74.980	-0.287	0.299
-221.640	530.850	0.076	-0.178
-220.625	51.936	0.078	0.074
-219.611	315.159	0.093	-0.173
-218.596	-200.000	0.055	-0.313
-217.582	166.674	-0.076	-0.106
-216.567	-180.214	-0.249	-0.005
-215.552	314.952	0.104	-0.194
-214.538	-53.532	0.195	-0.088
-213.523	-85.235	0.239	-0.074
-212.509	800.000	0.019	0.066
-211.494	69.445	-0.274	0.279
-210.479	-85.529	-0.221	0.068
-209.465	-54.382	0.256	-0.115
-208.450	40.141	-0.086	0.076
-207.436	-80.922	0.354	-0.116
-206.421	-99.393	-0.407	0.101
-205.406	22.234	0.097	-0.079
-204.392	-14.827	0.114	0.073
-203.377	131.187	0.109	0.138
-202.363	139.411	-0.066	0.086
-201.348	-126.792	0.223	0.033
-200.333	-59.294	0.089	0.038
-199.319	54.103	-0.059	0.056
-198.304	-110.387	0.146	0.030
-197.290	201.304	-0.014	0.021
-196.275	-121.267	-0.267	0.044
-195.260	768.960	-0.052	-0.140
-194.246	16.523	0.120	0.094
-193.231	69.141	-0.136	-0.138
-192.217	76.392	-0.160	-0.167
-191.202	-200.000	0.012	0.110
-190.187	19.849	-0.170	-0.135
-189.173	-200.000	0.026	0.198
-188.158	-121.412	-0.143	-0.024
-187.144	146.771	0.117	-0.156
-186.129	-53.342	-0.172	0.078
-185.114	139.213	-0.142	0.185
-184.100	19.271	0.319	-0.253
-183.085	-110.533	-0.222	-0.045
-182.071	-78.076	-0.093	0.032
-181.056	-34.962	0.151	-0.081
-180.042	-5.579	-0.217	0.147
-179.027	-54.402	0.083	0.037
-178.012	800.000	-0.025	-0.080
-176.998	57.635	0.188	0.181
-175.983	180.505	-0.075	-0.108
-174.969	79.642	0.112	0.118
-173.954	659.483	-0.066	-0.169
-172.939	144.575	-0.079	-0.104
-171.925	-200.000	-0.011	0.115
-170.910	-119.646	-0.324	-0.055
-169.896	-51.344	-0.279	0.129
-168.881	-83.229	-0.079	0.025
-167.866	-124.054	0.351	-0.054
-166.852	262.656	0.212	0.364
-165.837	-100.127	0.241	0.059
-164.823	-145.472	-0.129	0.011
-163.808	-114.408	0.049	-0.009
-162.793	800.000	0.040	0.116
-161.779	45.707	0.300	0.274
-160.764	622.406	0.028	0.071
-159.750	225.186	-0.163	0.261
-158.735	-200.000	0.130	0.000
-157.720	388.304	-0.036	0.074
-156.706	-58.843	-0.255	-0.109
-155.691	82.036	-0.076	0.082
-154.677	-112.903	-0.214	-0.042
-153.662	-200.000	0.071	-0.359
-152.647	-131.411	0.170	-0.022
-151.633	-49.276	0.277	-0.131
-150.618	-64.816	-0.278	0.111
-149.604	108.088	-0.249	-0.293
-148.589	-29.492	-0.193	-0.109
-147.574	-102.263	-0.043	0.010
-146.560	-84.128	-0.494	0.155
-145.545	-76.946	0.120	0.041
-144.531	-35.022	-0.185	-0.099
-143.516	-55.116	0.117	-0.052
-142.502	-30.898	-0.414	-0.230
-141.487	-37.488	-0.160	0.084
-140.472	-79.507	0.097	-0.032
-139.458	27.234	0.221	0.183
-138.443	-55.875	-0.139	-0.061
-137.429	-200.000	0.082	0.417
-136.414	58.155	-0.085	-0.082
-135.399	-15.036	0.243	0.154
-134.385	116.252	-0.024	0.029
-133.370	-9.039	-0.152	0.101
-132.356	800.000	0.127	-0.368
-131.341	-200.000	-0.016	0.110
-130.326	-157.110	0.128	-0.008
-129.312	-61.890	0.183	0.076
-128.297	-200.000	0.003	0.301
-127.283	-136.033	0.340	0.039
-126.268	95.471	-0.182	0.205
-125.253	-15.819	-0.112	0.070
-124.239	-200.000	-0.280	0.001
-123.224	-200.000	0.015	0.290
-122.210	144.137	-0.112	-0.147
-121.195	126.970	0.088	-0.110
-120.180	-122.136	-0.308	-0.050
-119.166	-200.000	-0.012	-0.242
-118.151	800.000	-0.065	-0.198
-117.137	-42.324	-0.115	0.058
-116.122	-2.874	-0.092	0.063
-115.107	273.914	0.076	0.132
-114.093	3.153	-0.228	-0.164
-113.078	-44.737	0.104	-0.051
-112.064	-29.593	0.257	-0.144
-111.049	25.994	0.120	0.098
-110.034	-144.477	0.194	0.018
-109.020	-98.842	0.675	0.169
-108.005	-94.353	-0.241	0.065
-106.991	206.043	0.172	-0.264
-105.976	144.168	-0.150	0.198
-104.962	-200.000	-0.032	0.141
-103.947	83.208	0.075	-0.080
-102.932	68.487	-0.072	0.073
-101.918	-130.790	-0.073	-0.010
-100.903	800.000	-0.063	0.187
-99.889	-200.000	-0.006	-0.192
-98.874	2.570	-0.079	0.056
-97.859	-200.000	0.052	0.286
-96.845	-114.214	0.166	0.032
-95.830	-10.958	0.037	-0.024
-94.816	-141.836	0.113	-0.011
-93.801	-200.000	-0.047	-0.217
-92.786	65.591	0.124	0.123
-91.772	29.950	0.206	0.173
-90.757	-105.436	-0.091	0.020
-89.743	26.229	0.359	0.295
-88.728	-52.647	0.233	0.106
-87.713	800.000	0.073	0.265
-86.699	511.365	-0.130	0.297
-85.684	1.743	-0.144	0.102
-84.670	-107.723	-0.258	-0.055
-83.655	31.622	-0.220	0.186
-82.640	-126.859	-0.047	0.007
-81.626	-93.826	0.109	-0.029
-80.611	-200.000	-0.052	0.352
-79.597	14.512	0.307	-0.236
-78.582	-200.000	0.060	0.353
-77.567	436.905	-0.088	0.188
-76.553	-124.327	0.195	-0.030
-75.538	-132.817	-0.302	0.038
-74.524	-158.140	-0.131	0.008
-73.509	-125.353	-0.143	0.021
-72.494	360.373	0.166	0.326
-71.480	-87.645	0.168	-0.050
-70.465	362.641	-0.091	0.180
-69.451	-37.159	-0.046	-0.024
-68.436	59.623	0.182	0.176
-67.422	-93.443	-0.256	0.070
-66.407	158.774	0.037	0.051
-65.392	-111.387	0.356	-0.071
-64.378	98.555	0.172	0.195
-63.363	90.575	-0.054	0.059
-62.349	-66.111	0.220	-0.086
-61.334	77.997	-0.994	-1.042
-60.319	-55.730	0.452	0.198
-59.305	800.000	0.145	-0.528
-58.290	159.699	0.548	0.750
-57.276	800.000	0.360	1.473
-56.261	-200.000	91.261	544.384
-55.246	540.373	1365.291	3195.198
-54.232	153.960	2582.965	3481.054
-53.217	111.457	2296.054	2721.439
-52.203	46.381	1913.973	1744.282
-51.188	39.864	1703.627	1503.135
-50.173	36.971	1659.217	1442.399
-49.159	53.926	1705.286	1610.591
-48.144	57.344	1723.947	1653.902
-47.130	39.520	1681.180	1480.503
-46.115	36.581	1666.223	1445.345
-45.100	36.326	1661.369	1439.176
-44.086	36.421	1658.010	1436.922
-43.071	36.357	1655.959	1434.607
-42.057	36.358	1653.556	1432.477
-41.042	36.392	1651.809	1431.160
-40.027	36.434	1649.464	1429.380
-39.013	36.280	1648.136	1427.033
-37.998	36.304	1646.228	1425.500
-36.984	36.313	1645.243	1424.657
-35.969	36.453	1643.476	1424.108
-34.954	36.551	1641.532	1423.089
-33.940	36.518	1639.999	1421.460
-32.925	36.500	1638.359	1419.848
-31.911	36.509	1636.751	1418.462
-30.896	36.463	1634.693	1416.288
-29.881	36.555	1632.895	1415.349
-28.867	36.448	1631.846	1413.600
-27.852	36.395	1630.786	1412.235
-26.838	36.431	1628.464	1410.431
-25.823	36.436	1627.477	1409.556
-24.809	36.474	1625.993	1408.492
-23.794	36.386	1624.989	1406.931
-22.779	36.485	1622.978	1405.847
-21.765	36.605	1620.950	1404.909
-20.750	36.463	1619.667	1402.713
-19.736	36.618	1618.456	1402.728
-18.721	36.686	1616.582	1401.543
-17.706	36.558	1615.045	1399.228
-16.692	36.572	1613.286	1397.754
-15.677	36.520	1612.393	1396.543
-14.663	36.512	1611.113	1395.328
-13.648	36.520	1609.723	1394.124
-12.633	36.629	1607.997	1393.360
-11.619	36.512	1606.077	1390.799
-10.604	36.502	1605.009	1389.748
-9.590	36.493	1603.930	1388.688
-8.575	36.619	1602.418	1388.234
-7.560	36.500	1601.610	1386.622
-6.546	36.472	1600.492	1385.397
-5.531	36.445	1599.493	1384.287
-4.517	36.516	1598.250	1383.660
-3.502	36.540	1596.988	1382.690
-2.487	36.637	1595.383	1381.933
-1.473	36.257	1583.753	1369.115
-0.458	33.318	1564.259	1331.571
0.556	29.288	1563.873	1297.420
1.571	26.781	1588.437	1299.738
2.586	26.266	1602.303	1307.236
3.600	23.154	1549.765	1242.450
4.615	13.028	1436.314	1085.149
5.629	3.399	1367.080	972.243
6.644	1.726	1357.757	955.042
7.659	1.612	1356.078	953.058
8.673	1.597	1354.547	951.809
9.688	1.475	1352.884	949.791
10.702	1.204	1350.625	946.429
11.717	4.868	1357.519	974.123
12.731	15.211	1377.280	1053.549
13.746	23.639	1391.356	1117.519
14.761	25.477	1393.682	1130.867
15.775	25.737	1393.505	1132.254
16.790	25.840	1392.684	1132.137
17.804	25.892	1392.336	1132.080
18.819	26.027	1392.537	1132.995
19.834	26.217	1391.679	1133.387
20.848	26.222	1390.685	1132.511
21.863	26.230	1389.655	1131.618
22.877	26.238	1389.228	1131.223
23.892	26.162	1388.402	1129.973
24.907	26.251	1387.388	1129.603
25.921	26.131	1386.778	1128.257
26.936	26.237	1385.456	1127.745
27.950	26.239	1384.026	1126.494
28.965	26.201	1382.752	1125.119
29.980	26.193	1381.820	1124.213
30.994	26.126	1380.754	1122.828
32.009	26.164	1379.848	1122.229
33.023	26.193	1378.337	1121.082
34.038	26.117	1377.305	1119.671
35.053	26.184	1376.243	1119.121
36.067	26.193	1375.531	1118.503
37.082	26.147	1374.425	1117.220
38.096	26.175	1373.332	1116.401
39.111	26.223	1372.937	1116.281
40.126	26.133	1372.102	1114.947
41.140	26.153	1371.636	1114.594
42.155	26.191	1370.874	1114.108
43.169	26.166	1371.225	1114.142
44.184	26.192	1370.879	1113.922
45.199	26.109	1370.931	1113.356
46.213	26.144	1370.276	1112.942
47.228	26.114	1369.239	1111.812
48.242	26.181	1368.186	1111.270
49.257	26.123	1366.112	1109.132
50.271	26.213	1364.608	1108.365
51.286	26.107	1363.585	1106.786
52.301	26.147	1362.457	1106.017
53.315	26.116	1361.769	1105.172
54.330	26.105	1360.827	1104.245
55.344	26.103	1359.694	1103.212
56.359	26.067	1358.813	1102.183
57.374	26.227	1357.436	1101.946
58.388	26.105	1357.230	1100.935
59.403	26.047	1357.090	1100.372
60.417	26.154	1356.071	1100.098
61.432	26.093	1355.899	1099.490
62.447	26.085	1354.681	1098.357
63.461	26.150	1353.593	1097.775
64.476	26.133	1352.380	1096.589
65.490	26.181	1350.927	1095.606
66.505	26.072	1349.795	1093.927
67.520	26.110	1348.585	1093.080
68.534	26.171	1347.205	1092.238
69.549	26.176	1346.618	1091.689
70.563	26.182	1345.327	1090.585
71.578	26.167	1344.905	1090.058
72.593	26.094	1343.737	1088.576
73.607	26.204	1343.012	1088.554
74.622	26.234	1341.937	1087.764
75.636	26.204	1341.474	1087.110
76.651	26.184	1340.746	1086.306
77.666	26.196	1340.233	1085.867
78.680	26.172	1339.913	1085.370
79.695	26.064	1339.667	1084.425
80.709	26.243	1338.239	1084.247
81.724	26.223	1337.201	1083.190
82.739	26.137	1336.629	1082.115
83.753	26.236	1335.186	1081.443
84.768	26.142	1334.588	1080.302
85.782	26.234	1333.123	1079.571
86.797	26.173	1332.037	1078.232
87.812	26.101	1331.046	1076.901
88.826	26.239	1329.388	1076.290
89.841	26.158	1328.930	1075.337
90.855	26.124	1328.023	1074.307
91.870	26.186	1327.268	1073.972
92.884	26.258	1326.107	1073.367
93.899	26.289	1325.353	1072.842
94.914	26.189	1325.018	1071.884
95.928	26.228	1323.683	1070.942
96.943	26.304	1322.750	1070.543
97.957	26.290	1322.558	1070.211
98.972	26.275	1321.341	1069.039
99.987	26.195	1320.486	1067.782
101.001	26.180	1319.721	1066.978
102.016	26.218	1318.435	1066.066
103.030	26.187	1317.907	1065.365
104.045	26.122	1317.295	1064.394
105.060	26.184	1316.432	1063.969
106.074	26.270	1314.847	1063.098
107.089	26.209	1313.907	1061.882
108.103	26.166	1313.506	1061.213
109.118	26.170	1311.977	1059.909
110.133	26.229	1310.866	1059.261
111.147	26.259	1309.649	1058.360
112.162	26.305	1308.694	1057.768
113.176	26.296	1307.797	1056.897
114.191	26.311	1306.941	1056.195
115.206	26.308	1305.891	1055.237
116.220	26.289	1304.972	1054.292
117.235	26.278	1303.812	1053.195
118.249	26.206	1303.279	1052.251
119.264	26.252	1302.240	1051.589
120.279	26.254	1301.294	1050.746
121.293	26.298	1300.651	1050.386
122.308	26.338	1300.021	1050.017
123.322	26.382	1298.873	1049.252
124.337	26.343	1298.068	1048.282
125.352	26.319	1297.365	1047.482
126.366	26.305	1296.243	1046.404
127.381	26.326	1295.381	1045.736
128.395	26.396	1294.276	1045.154
129.410	26.368	1294.005	1044.685
130.424	26.337	1293.281	1043.825
131.439	26.372	1292.146	1043.022
132.454	26.482	1290.930	1042.580
133.468	26.396	1290.652	1041.766
134.483	26.335	1290.687	1041.355
135.497	26.408	1289.347	1040.602
136.512	26.470	1288.255	1039.984
137.527	26.334	1287.544	1038.535
138.541	26.348	1286.149	1037.399
139.556	26.289	1285.179	1036.184
140.570	26.200	1284.396	1034.956
141.585	26.384	1282.812	1034.642
142.600	26.260	1282.220	1033.358
143.614	26.308	1281.165	1032.693
144.629	26.267	1280.272	1031.646
145.643	26.263	1278.822	1030.367
146.658	26.088	1278.154	1028.739
147.673	26.314	1277.091	1029.078
148.687	26.158	1276.405	1027.546
149.702	26.295	1274.698	1026.858
150.716	26.243	1273.657	1025.637
151.731	26.371	1272.867	1025.637
152.746	26.236	1272.106	1024.166
153.760	26.448	1270.377	1023.882
154.775	26.347	1269.589	1022.588
155.789	26.317	1268.896	1021.766
156.804	26.302	1268.110	1020.958
157.819	26.278	1267.350	1020.125
158.833	26.306	1266.429	1019.448
159.848	26.437	1265.765	1019.564
160.862	26.345	1265.181	1018.481
161.877	26.303	1264.411	1017.539
162.892	26.418	1263.820	1017.617
163.906	26.455	1262.684	1016.822
164.921	26.334	1262.901	1016.226
165.935	26.359	1261.733	1015.335
166.950	26.437	1260.664	1014.822
167.964	26.471	1259.969	1014.366
168.979	26.428	1259.457	1013.621
169.994	26.413	1259.277	1013.307
171.008	26.438	1258.273	1012.549
172.023	26.493	1257.218	1011.917
173.037	26.400	1256.722	1010.905
174.052	26.485	1256.063	1010.763
175.067	26.488	1255.407	1010.163
176.081	26.511	1254.497	1009.471
177.096	26.384	1254.040	1008.303
178.110	26.422	1252.755	1007.395
179.125	26.527	1251.417	1006.812
180.140	26.549	1250.667	1006.240
181.154	26.458	1249.858	1004.998
182.169	26.342	1249.002	1003.574
183.183	26.466	1247.805	1003.211
184.198	26.520	1246.637	1002.484
185.213	26.551	1245.237	1001.442
186.227	26.484	1245.484	1001.181
187.242	26.460	1244.060	999.815
188.256	26.586	1243.178	999.713
189.271	26.472	1242.672	998.588
190.286	26.489	1241.286	997.477
191.300	26.517	1241.100	997.398
192.315	26.525	1240.700	997.032
193.329	26.570	1240.275	996.848
194.344	26.601	1239.637	996.417
195.359	26.601	1238.913	995.750
196.373	26.482	1238.615	994.766
197.388	26.388	1238.524	994.089
198.402	26.400	1238.318	993.901
199.417	26.457	1237.406	993.392
200.432	26.481	1236.559	992.755
201.446	26.529	1235.930	992.426
202.461	26.478	1235.281	991.542
203.475	26.464	1234.915	991.083
204.490	26.568	1233.334	990.296
205.504	26.551	1232.603	989.528
206.519	26.520	1231.963	988.757
207.534	26.604	1230.738	988.143
208.548	26.667	1229.759	987.615
209.563	26.572	1229.109	986.489
210.577	26.677	1228.321	986.340
211.592	26.620	1227.450	985.241
212.607	26.675	1227.094	985.165
213.621	26.748	1225.684	984.348
214.636	26.743	1224.977	983.664
215.650	26.675	1224.362	982.715
216.665	26.611	1223.449	981.546
217.680	26.652	1222.493	980.917
218.694	26.782	1221.851	981.016
219.709	26.684	1221.395	980.033
220.723	26.754	1220.415	979.541
221.738	26.584	1220.061	978.247
222.753	26.677	1218.631	977.517
223.767	26.668	1218.411	977.208
224.782	26.681	1218.099	976.940
225.796	26.707	1217.498	976.510
226.811	26.841	1216.741	976.542
227.826	26.724	1216.390	975.544
228.840	26.671	1215.894	974.773
229.855	26.733	1214.669	974.036
230.869	26.705	1214.423	973.604
231.884	26.749	1213.458	972.982
232.899	26.779	1212.888	972.598
233.913	26.686	1212.341	971.572
234.928	26.808	1211.674	971.605
235.942	26.760	1211.396	971.043
236.957	26.781	1210.716	970.521
237.972	26.812	1210.006	970.034
238.986	26.837	1209.040	969.308
240.001	26.767	1208.967	968.792
241.015	26.984	1207.480	968.671
242.030	26.861	1207.034	967.570
243.045	26.862	1206.305	966.906
244.059	26.896	1205.403	966.277
245.074	26.937	1204.485	965.675
246.088	26.992	1203.642	965.205
247.103	27.015	1202.729	964.510
248.117	27.100	1202.032	964.319
249.132	26.949	1201.388	962.915
250.147	26.937	1200.944	962.411
251.161	27.022	1200.089	962.089
252.176	26.989	1199.443	961.309
253.190	26.979	1198.737	960.607
254.205	27.024	1198.256	960.377
255.220	27.046	1197.612	959.892
256.234	26.984	1197.310	959.236
257.249	27.031	1196.634	958.855
258.263	26.985	1196.426	958.361
259.278	27.072	1195.061	957.645
260.293	27.054	1194.974	957.394
261.307	27.102	1194.523	957.203
262.322	27.083	1193.847	956.476
263.336	27.074	1193.068	955.718
264.351	27.122	1192.460	955.400
265.366	26.930	1192.001	953.937
266.380	27.021	1191.429	953.876
267.395	27.090	1190.488	953.397
268.409	27.047	1189.824	952.558
269.424	27.110	1189.288	952.372
270.439	27.119	1188.991	952.100
271.453	27.018	1188.222	950.869
272.468	27.040	1187.276	950.145
273.482	27.050	1186.652	949.613
274.497	27.018	1186.556	949.284
275.512	27.127	1185.916	949.257
276.526	27.107	1184.859	948.224
277.541	27.177	1183.768	947.633
278.555	27.163	1183.500	947.261
279.570	27.085	1183.263	946.580
280.585	27.208	1182.002	946.129
281.599	27.058	1181.442	944.817
282.614	27.202	1180.286	944.553
283.628	27.199	1179.492	943.822
284.643	27.176	1178.760	943.034
285.657	27.235	1177.487	942.237
286.672	27.115	1177.006	941.145
287.687	27.361	1176.108	941.620
288.701	27.318	1175.987	941.217
289.716	27.306	1175.100	940.360
290.730	27.400	1174.252	940.083
291.745	27.293	1173.960	939.213
292.760	27.365	1173.134	938.844
293.774	27.391	1172.454	938.347
294.789	27.283	1172.143	937.460
295.803	27.356	1171.540	937.271
296.818	27.324	1170.325	936.052
297.833	27.343	1170.046	935.841
298.847	27.433	1169.511	935.793
299.862	27.426	1168.304	934.709
300.876	27.391	1167.996	934.199
301.891	27.388	1167.445	933.662
302.906	27.487	1166.640	933.444
303.920	27.476	1166.261	933.002
304.935	27.415	1165.317	931.851
305.949	27.385	1165.141	931.476
306.964	27.517	1164.089	931.225
307.979	27.559	1163.419	930.822
308.993	27.558	1162.945	930.354
310.008	27.462	1162.410	929.355
311.022	27.416	1161.909	928.636
312.037	27.548	1160.801	928.346
313.052	27.571	1159.942	927.690
314.066	27.448	1159.252	926.433
315.081	27.503	1158.558	926.076
316.095	27.575	1157.848	925.789
317.110	27.520	1157.406	925.078
318.125	27.699	1156.506	925.182
319.139	27.600	1155.968	924.171
320.154	27.604	1155.289	923.566
321.168	27.591	1155.028	923.207
322.183	27.568	1154.548	922.625
323.197	27.492	1153.827	921.586
324.212	27.500	1153.408	921.209
325.227	27.579	1152.524	920.818
326.241	27.580	1152.305	920.569
327.256	27.650	1151.297	920.033
328.270	27.636	1150.366	919.136
329.285	27.641	1149.544	918.425
330.300	27.629	1148.820	917.704
331.314	27.709	1147.985	917.362
332.329	27.705	1147.522	916.891
333.343	27.722	1146.909	916.404
334.358	27.832	1145.763	915.961
335.373	27.781	1145.231	915.197
336.387	27.715	1144.659	914.326
337.402	27.848	1143.523	914.005
338.416	27.833	1143.315	913.680
339.431	27.782	1142.638	912.804
340.446	27.847	1142.059	912.588
341.460	27.839	1141.580	912.083
342.475	27.840	1140.488	911.134
343.489	27.905	1139.526	910.613
344.504	27.822	1138.798	909.536
345.519	27.863	1138.087	909.091
346.533	27.937	1137.261	908.718
347.548	27.918	1136.193	907.691
348.562	27.940	1135.721	907.342
349.577	27.918	1135.183	906.721
350.592	27.827	1134.232	905.430
351.606	27.890	1133.470	905.057
352.621	27.857	1133.316	904.689
353.635	27.880	1132.699	904.229
354.650	27.868	1132.287	903.759
355.665	27.957	1131.394	903.407
356.679	28.058	1130.607	903.200
357.694	28.024	1130.077	902.527
358.708	27.994	1129.496	901.836
359.723	27.988	1128.680	901.078
360.738	27.940	1128.122	900.312
361.752	28.017	1127.608	900.206
362.767	27.908	1127.455	899.465
363.781	27.986	1126.845	899.281
364.796	28.129	1125.631	898.938
365.810	28.128	1125.331	898.614
366.825	28.153	1124.743	898.187
367.840	28.167	1124.236	897.769
368.854	28.210	1123.539	897.344
369.869	28.134	1122.635	896.173
370.883	28.106	1122.152	895.570
371.898	28.137	1121.387	895.030
372.913	28.278	1120.404	894.858
373.927	28.163	1120.578	894.353
374.942	28.248	1119.997	894.227
375.956	28.259	1119.461	893.773
376.971	28.203	1118.971	893.029
377.986	28.198	1118.219	892.326
379.000	28.191	1118.033	892.066
380.015	28.335	1117.211	892.030
381.029	28.157	1116.666	890.653
382.044	28.199	1115.916	890.179
383.059	28.368	1115.365	890.480
384.073	28.259	1115.129	889.684
385.088	28.302	1113.820	888.770
386.102	28.317	1112.961	888.077
387.117	28.321	1111.832	887.118
388.132	28.274	1111.453	886.510
389.146	28.397	1110.959	886.631
390.161	28.407	1110.116	885.929
391.175	28.376	1109.575	885.273
392.190	28.473	1108.528	884.824
393.205	28.559	1107.654	884.462
394.219	28.449	1107.329	883.594
395.234	28.431	1106.628	882.873
396.248	28.391	1105.889	882.012
397.263	28.399	1105.100	881.342
398.278	28.410	1104.783	881.065
399.292	28.510	1103.857	880.730
400.307	28.509	1103.238	880.150
401.321	28.642	1102.025	879.745
402.336	28.467	1101.827	878.671
403.350	28.581	1101.149	878.595
404.365	28.526	1100.996	878.134
405.380	28.550	1100.081	877.443
406.394	28.607	1099.013	876.785
407.409	28.666	1098.073	876.238
408.423	28.632	1097.777	875.761
409.438	28.671	1096.904	875.176
410.453	28.628	1096.724	874.750
411.467	28.632	1095.803	873.954
412.482	28.604	1094.911	873.031
413.496	28.732	1094.119	872.931
414.511	28.775	1093.329	872.429
415.526	28.672	1093.263	871.808
416.540	28.778	1092.663	871.757
417.555	28.794	1092.249	871.428
418.569	28.647	1091.967	870.426
419.584	28.768	1091.811	870.802
420.599	28.823	1091.235	870.524
421.613	99.897	1313.587	1433.013
422.628	93.231	1346.006	1433.141
