DTS Sentinel unit serial number:	SN413079Multiplexer serial number:	ORYXHardware model number:	OX4-SRSoftware version number:	ORYX F/W v4.00 Oryx Data Collector v3.7.2.0data status	okinstallation	princeton_trtdifferential loss correction	single-endedforward channel	channel 2reverse channel	N/Adate	2019/09/13time	22:19:35forward acquisition time	60.00reverse acquisition time	0.00gamma	496.2192k internal	0.2335k external	0.2335temperature offset calibration	1.0135default loss term (dB/km)	0.3790temperature slope calibration	1.0000multiplexer offset coefficient	1.0000multiplexer slope coefficient	1.0000fibre end	0.00T internal ref (°C)	27.87T ext. ref 1 (°C)	3.24T ext. ref 2 (°C)	22.54length (m)	temperature (°C)	Stokes	anti-Stokes-747.200	800.000	0.028	-0.088
-746.185	-132.929	0.195	-0.025
-745.171	-92.156	-0.176	-0.050
-744.156	-200.000	0.039	0.405
-743.142	-200.000	-0.006	0.135
-742.127	44.382	-0.049	0.046
-741.112	-13.871	-0.130	0.085
-740.098	800.000	-0.105	0.438
-739.083	-6.210	-0.287	-0.197
-738.069	141.363	-0.030	0.040
-737.054	-122.960	-0.376	-0.061
-736.039	5.537	-0.495	-0.367
-735.025	528.484	-0.016	-0.039
-734.010	-70.387	0.116	0.044
-732.996	10.707	-0.108	0.083
-731.981	-200.000	-0.008	-0.407
-730.966	-200.000	0.031	0.152
-729.952	10.339	0.055	-0.042
-728.937	442.826	-0.067	-0.147
-727.923	-15.694	0.160	-0.103
-726.908	173.664	0.067	-0.096
-725.894	-38.650	-0.421	-0.223
-724.879	-200.000	0.005	-0.079
-723.864	796.581	-0.159	-0.440
-722.850	-30.622	-0.231	-0.131
-721.835	800.000	-0.073	-0.219
-720.821	-200.000	-0.031	0.300
-719.806	4.963	-0.287	-0.212
-718.791	129.439	0.198	-0.254
-717.777	67.988	-0.230	-0.236
-716.762	-144.296	-0.357	0.033
-715.748	-61.048	-0.116	0.049
-714.733	-200.000	0.009	0.222
-713.718	-34.753	0.310	0.170
-712.704	61.067	-0.090	0.090
-711.689	70.439	-0.217	-0.225
-710.675	-200.000	-0.009	-0.184
-709.660	-200.000	0.002	0.162
-708.645	-90.195	0.343	-0.100
-707.631	-104.472	-0.263	-0.061
-706.616	-57.285	-0.181	0.080
-705.602	-31.875	-0.340	-0.191
-704.587	-200.000	0.024	0.195
-703.572	-22.579	0.168	-0.102
-702.558	-135.364	-0.210	-0.025
-701.543	800.000	0.035	0.118
-700.529	105.400	0.125	0.148
-699.514	-117.530	0.172	0.031
-698.499	-200.000	0.003	-0.381
-697.485	-200.000	-0.039	-0.251
-696.470	-88.407	0.248	-0.074
-695.456	286.106	-0.047	-0.085
-694.441	-105.770	-0.072	-0.016
-693.426	-155.252	0.043	0.003
-692.412	-125.992	-0.485	-0.073
-691.397	488.391	-0.169	0.386
-690.383	-178.103	0.243	0.006
-689.368	164.469	-0.036	0.050
-688.354	164.304	0.133	0.188
-687.339	213.475	-0.123	-0.196
-686.324	-115.236	-0.035	-0.007
-685.310	-200.000	-0.035	0.346
-684.295	-200.000	-0.022	-0.223
-683.281	-200.000	-0.045	-0.294
-682.266	264.268	0.060	-0.105
-681.251	-36.421	-0.162	0.087
-680.237	32.612	-0.138	0.120
-679.222	79.682	-0.242	-0.260
-678.208	-6.509	0.344	0.235
-677.193	265.948	-0.085	0.149
-676.178	-133.494	-0.035	0.004
-675.164	-60.994	0.018	-0.008
-674.149	258.295	0.043	-0.075
-673.135	-90.337	0.032	-0.009
-672.120	-19.095	-0.242	-0.150
-671.105	159.830	0.312	-0.435
-670.091	43.849	-0.249	-0.229
-669.076	800.000	-0.023	0.074
-668.062	-115.387	-0.240	-0.045
-667.047	58.396	-0.261	0.257
-666.032	-185.857	0.131	-0.002
-665.018	-1.299	-0.214	-0.151
-664.003	-172.078	-0.325	0.011
-662.989	388.369	0.089	0.184
-661.974	-137.635	-0.375	-0.042
-660.959	-64.144	-0.199	-0.081
-659.945	-5.627	0.115	-0.079
-658.930	44.139	0.056	-0.052
-657.916	52.437	-0.121	0.116
-656.901	56.131	-0.148	0.144
-655.886	-200.000	-0.015	0.148
-654.872	-162.102	-0.151	-0.008
-653.857	27.040	-0.179	-0.150
-652.843	-55.017	0.057	-0.026
-651.828	800.000	-0.009	-0.030
-650.814	90.568	0.202	-0.227
-649.799	161.602	-0.120	0.168
-648.784	2.894	0.148	-0.107
-647.770	-85.137	-0.426	0.133
-646.755	-8.816	0.220	-0.147
-645.741	800.000	-0.092	-0.256
-644.726	-26.364	-0.106	-0.062
-643.711	563.551	-0.012	0.029
-642.697	-200.000	0.051	-0.234
-641.682	116.039	-0.052	0.063
-640.668	-200.000	-0.068	0.347
-639.653	458.392	-0.041	-0.092
-638.638	800.000	0.076	-0.230
-637.624	-200.000	-0.012	-0.086
-636.609	-148.839	-0.195	-0.016
-635.595	39.513	0.075	-0.068
-634.580	-97.292	0.244	0.064
-633.565	26.628	0.455	0.381
-632.551	183.275	0.220	-0.325
-631.536	-56.530	0.045	0.020
-630.522	396.443	0.046	0.095
-629.507	188.825	-0.103	-0.154
-628.492	6.872	0.094	-0.070
-627.478	220.390	0.175	-0.280
-626.463	-93.558	-0.204	-0.057
-625.449	225.096	-0.113	-0.183
-624.434	723.962	-0.052	-0.140
-623.419	-98.987	-0.103	0.026
-622.405	91.682	0.023	-0.025
-621.390	-35.785	-0.297	0.161
-620.376	-65.508	0.275	0.110
-619.361	-28.571	0.137	-0.079
-618.346	800.000	0.044	-0.142
-617.332	-46.243	0.272	-0.134
-616.317	187.837	-0.046	0.069
-615.303	800.000	-0.060	0.167
-614.288	-43.117	0.115	-0.058
-613.273	153.734	-0.017	-0.024
-612.259	-179.260	0.213	0.005
-611.244	182.000	0.091	0.135
-610.230	41.429	-0.131	0.119
-609.215	-200.000	0.012	-0.098
-608.201	-103.955	0.246	0.057
-607.186	193.977	0.167	-0.252
-606.171	-16.310	-0.149	-0.094
-605.157	126.055	-0.223	-0.282
-604.142	-200.000	-0.036	-0.216
-603.128	-100.343	0.222	-0.055
-602.113	-90.164	0.320	-0.093
-601.098	58.775	-0.089	-0.087
-600.084	-152.533	-0.081	-0.006
-599.069	-63.200	-0.288	0.119
-598.055	-2.136	-0.071	-0.050
-597.040	-81.511	0.065	0.021
-596.025	-74.813	0.191	-0.068
-595.011	162.790	-0.034	-0.048
-593.996	83.172	-0.130	0.141
-592.982	-200.000	-0.044	0.193
-591.967	800.000	-0.030	0.110
-590.952	-200.000	0.005	-0.099
-589.938	800.000	-0.023	-0.094
-588.923	16.092	0.136	-0.107
-587.909	800.000	0.106	0.382
-586.894	371.935	0.177	0.358
-585.879	-200.000	-0.039	-0.232
-584.865	800.000	0.060	-0.175
-583.850	-152.731	0.217	0.015
-582.836	-162.630	-0.046	-0.002
-581.821	-111.465	-0.507	-0.103
-580.806	800.000	0.039	0.129
-579.792	32.796	0.099	0.085
-578.777	145.079	-0.179	0.238
-577.763	92.875	0.264	-0.298
-576.748	-35.052	-0.268	0.146
-575.733	800.000	-0.054	0.204
-574.719	8.241	-0.288	0.216
-573.704	-145.252	0.118	0.011
-572.690	-200.000	0.045	0.388
-571.675	-141.032	0.187	0.019
-570.661	-185.373	0.089	-0.001
-569.646	800.000	-0.108	0.345
-568.631	800.000	0.028	-0.107
-567.617	188.383	-0.106	-0.158
-566.602	-76.129	-0.168	0.059
-565.588	-200.000	0.083	-0.415
-564.573	-200.000	-0.026	0.176
-563.558	178.265	0.074	0.108
-562.544	-103.499	-0.259	0.061
-561.529	-31.118	0.221	0.124
-560.515	-148.066	0.240	0.020
-559.500	-10.978	-0.149	0.098
-558.485	-200.000	0.002	0.216
-557.471	-200.000	-0.016	-0.264
-556.456	-169.728	-0.580	0.021
-555.442	-114.722	-0.631	-0.120
-554.427	-64.755	-0.043	0.017
-553.412	98.155	-0.157	0.181
-552.398	90.931	-0.160	0.179
-551.383	-200.000	0.001	-0.094
-550.369	-4.193	0.478	-0.330
-549.354	-200.000	0.028	0.482
-548.339	413.582	-0.131	0.277
-547.325	4.287	-0.117	0.085
-546.310	-200.000	-0.002	-0.074
-545.296	141.098	0.094	-0.123
-544.281	-42.999	-0.228	0.115
-543.266	-200.000	0.008	0.300
-542.252	165.464	0.119	-0.168
-541.237	-200.000	0.044	-0.277
-540.223	-167.898	-0.558	-0.022
-539.208	-11.459	0.237	0.155
-538.193	274.196	-0.022	-0.039
-537.179	-25.259	-0.138	-0.082
-536.164	165.143	0.140	-0.197
-535.150	-70.134	0.391	-0.148
-534.135	90.115	0.318	0.354
-533.121	-126.653	0.187	0.028
-532.106	-200.000	-0.040	-0.192
-531.091	19.463	0.154	0.124
-530.077	286.144	-0.049	-0.089
-529.062	-200.000	-0.020	-0.275
-528.048	26.233	-0.203	-0.169
-527.033	498.494	-0.070	-0.162
-526.018	54.101	-0.103	-0.098
-525.004	-141.317	0.073	0.007
-523.989	-64.151	0.280	0.114
-522.975	-200.000	0.062	-0.371
-521.960	800.000	-0.062	0.220
-520.945	-200.000	-0.015	-0.109
-519.931	258.894	0.028	0.048
-518.916	-200.000	0.046	0.210
-517.902	121.138	-0.141	-0.175
-516.887	-200.000	0.009	0.164
-515.872	-44.319	-0.232	0.115
-514.858	144.001	0.128	-0.170
-513.843	247.028	0.093	-0.155
-512.829	-98.602	-0.203	0.052
-511.814	-171.870	-0.106	-0.003
-510.799	-156.452	-0.263	-0.016
-509.785	592.421	0.111	-0.274
-508.770	222.726	0.232	0.371
-507.756	-89.109	-0.313	0.092
-506.741	248.957	0.119	0.200
-505.726	40.381	-0.185	-0.166
-504.712	-22.480	-0.315	-0.190
-503.697	-48.544	0.116	-0.056
-502.683	77.190	0.112	0.118
-501.668	97.954	0.169	0.193
-500.653	-24.703	0.294	0.174
-499.639	-126.859	0.100	0.015
-498.624	-98.409	0.244	-0.062
-497.610	29.998	-0.286	0.242
-496.595	-200.000	0.009	0.050
-495.581	41.810	-0.145	-0.131
-494.566	-165.337	0.105	0.005
-493.551	76.929	0.179	0.189
-492.537	231.274	-0.118	0.192
-491.522	127.167	-0.246	0.310
-490.508	647.489	-0.054	-0.137
-489.493	-133.578	0.278	0.035
-488.478	-63.566	0.094	-0.038
-487.464	132.969	-0.105	-0.135
-486.449	136.252	-0.146	0.190
-485.435	101.036	0.112	-0.129
-484.420	36.115	0.069	0.060
-483.405	160.078	-0.064	0.089
-482.391	800.000	-0.006	-0.017
-481.376	-75.423	-0.200	-0.071
-480.362	375.259	-0.076	-0.155
-479.347	-196.003	-0.279	-0.002
-478.332	-64.525	0.137	-0.055
-477.318	-39.485	-0.221	0.115
-476.303	143.406	-0.178	0.235
-475.289	55.523	0.164	-0.158
-474.274	75.679	-0.130	0.137
-473.259	36.536	-0.261	0.229
-472.245	742.271	0.085	-0.228
-471.230	-46.448	0.247	0.120
-470.216	-145.124	0.073	-0.007
-469.201	409.185	-0.022	0.046
-468.186	800.000	-0.031	-0.130
-467.172	-113.941	0.249	0.048
-466.157	-91.666	-0.429	0.121
-465.143	-45.727	-0.159	-0.078
-464.128	-200.000	-0.033	0.174
-463.113	-142.259	-0.333	0.033
-462.099	43.108	-0.136	-0.123
-461.084	62.513	0.072	-0.072
-460.070	-7.011	-0.156	0.105
-459.055	-106.618	-0.248	0.055
-458.040	-43.962	0.238	-0.119
-457.026	94.814	0.155	0.175
-456.011	160.622	-0.127	0.176
-454.997	800.000	0.076	-0.321
-453.982	-66.826	-0.267	-0.105
-452.968	274.454	0.111	-0.196
-451.953	-29.515	-0.208	-0.118
-450.938	-200.000	-0.028	-0.163
-449.924	248.122	0.089	-0.150
-448.909	110.690	0.211	-0.252
-447.895	388.879	0.106	0.219
-446.880	800.000	0.098	-0.410
-445.865	-10.833	-0.099	0.065
-444.851	42.226	-0.113	0.102
-443.836	133.841	-0.148	0.190
-442.822	-63.085	0.258	-0.106
-441.807	393.607	-0.048	-0.100
-440.792	-200.000	0.039	0.248
-439.778	-200.000	-0.006	-0.156
-438.763	-120.736	0.247	0.041
-437.749	-115.319	-0.289	0.054
-436.734	-200.000	0.007	0.152
-435.719	-42.056	0.125	0.063
-434.705	-200.000	-0.004	0.070
-433.690	-65.676	0.101	-0.040
-432.676	-189.740	0.146	-0.002
-431.661	-200.000	-0.030	0.272
-430.646	-98.418	0.087	0.022
-429.632	-36.304	0.161	-0.086
-428.617	-123.075	-0.388	0.062
-427.603	800.000	-0.021	0.087
-426.588	-9.012	0.063	0.042
-425.573	-89.230	-0.061	0.018
-424.559	-200.000	0.009	0.061
-423.544	25.231	-0.393	0.324
-422.530	183.924	-0.214	0.314
-421.515	-25.829	-0.136	0.079
-420.500	-67.953	0.283	0.109
-419.486	95.995	0.084	0.095
-418.471	46.637	0.099	0.091
-417.457	-59.773	0.110	0.047
-416.442	306.688	0.029	0.053
-415.428	407.182	0.051	-0.106
-414.413	289.462	-0.240	-0.432
-413.398	135.201	-0.040	0.051
-412.384	-16.657	-0.185	0.116
-411.369	-185.682	-0.088	0.001
-410.355	-103.531	-0.250	-0.058
-409.340	-43.375	-0.099	-0.049
-408.325	154.261	0.183	0.249
-407.311	800.000	-0.028	-0.107
-406.296	12.178	-0.300	-0.229
-405.282	-52.932	-0.010	0.005
-404.267	11.392	0.185	0.141
-403.252	-96.975	0.266	0.069
-402.238	129.472	0.194	0.245
-401.223	436.577	0.049	-0.106
-400.209	43.373	0.102	0.092
-399.194	-35.645	0.364	-0.196
-398.179	96.728	0.241	0.274
-397.165	-75.337	-0.140	0.049
-396.150	-80.566	0.113	0.037
-395.136	502.904	-0.126	-0.289
-394.121	-88.455	0.122	-0.036
-393.106	-107.633	-0.401	0.087
-392.092	-142.630	0.090	0.009
-391.077	645.253	-0.046	0.116
-390.063	-200.000	-0.035	-0.169
-389.048	242.667	-0.189	0.314
-388.033	800.000	-0.043	-0.135
-387.019	-200.000	-0.024	-0.479
-386.004	-158.259	-0.287	0.017
-384.990	98.658	0.075	-0.085
-383.975	43.222	-0.057	-0.052
-382.960	406.968	-0.101	-0.211
-381.946	800.000	0.137	0.447
-380.931	-164.864	0.160	0.007
-379.917	-200.000	-0.004	-0.285
-378.902	800.000	-0.021	-0.082
-377.888	69.916	-0.281	0.287
-376.873	400.960	-0.088	0.183
-375.858	-42.710	0.278	0.140
-374.844	256.937	-0.091	-0.155
-373.829	89.419	0.067	0.074
-372.815	-136.967	0.310	0.035
-371.800	-200.000	0.016	-0.437
-370.785	-15.645	0.357	0.226
-369.771	-32.134	-0.345	-0.191
-368.756	-200.000	0.015	0.318
-367.742	-200.000	-0.056	0.285
-366.727	-200.000	0.023	-0.398
-365.712	272.396	0.116	0.203
-364.698	532.004	-0.104	-0.244
-363.683	-186.120	0.125	-0.002
-362.669	286.917	0.052	0.093
-361.654	800.000	-0.139	0.397
-360.639	-69.327	-0.394	-0.150
-359.625	35.460	-0.052	-0.045
-358.610	-0.844	-0.133	0.093
-357.596	-49.422	0.062	-0.029
-356.581	443.761	-0.082	-0.178
-355.566	-200.000	0.021	0.122
-354.552	-42.993	0.461	-0.231
-353.537	64.814	0.436	-0.435
-352.523	800.000	-0.046	-0.128
-351.508	707.053	0.079	-0.207
-350.493	356.723	0.189	-0.372
-349.479	800.000	0.058	-0.183
-348.464	-17.441	-0.353	-0.220
-347.450	-200.000	0.078	0.390
-346.435	36.871	0.079	-0.069
-345.420	44.123	-0.168	0.152
-344.406	252.681	-0.099	0.167
-343.391	-71.722	0.227	0.084
-342.377	-200.000	0.054	0.336
-341.362	-200.000	-0.029	0.218
-340.348	-7.485	-0.117	0.078
-339.333	-200.000	-0.005	-0.067
-338.318	64.386	-0.182	0.181
-337.304	63.148	0.109	0.108
-336.289	265.643	0.177	0.304
-335.275	87.275	-0.102	-0.111
-334.260	145.805	0.022	0.029
-333.245	-200.000	0.025	-0.191
-332.231	100.954	-0.334	0.384
-331.216	79.155	-0.281	-0.298
-330.202	139.112	-0.165	0.215
-329.187	-38.361	0.162	0.085
-328.172	187.849	0.028	0.042
-327.158	-83.128	0.233	0.074
-326.143	800.000	0.145	-0.466
-325.129	198.108	0.069	-0.105
-324.114	800.000	-0.132	0.369
-323.099	53.011	0.074	0.070
-322.085	751.460	-0.142	0.379
-321.070	-27.972	0.302	-0.173
-320.056	-68.320	-0.129	-0.049
-319.041	28.692	-0.103	-0.086
-318.026	593.259	-0.112	-0.273
-317.012	-200.000	0.041	0.296
-315.997	34.216	-0.208	-0.179
-314.983	-200.000	-0.026	-0.146
-313.968	14.599	0.147	0.113
-312.953	-41.773	0.345	0.175
-311.939	-50.260	0.275	-0.128
-310.924	-106.459	0.334	-0.074
-309.910	-200.000	-0.020	-0.102
-308.895	-7.584	0.076	0.051
-307.880	-90.137	-0.215	0.062
-306.866	341.689	0.101	-0.195
-305.851	-200.000	0.020	0.206
-304.837	-101.596	-0.036	0.009
-303.822	-190.029	-0.333	0.004
-302.807	68.967	0.393	0.398
-301.793	119.927	-0.113	-0.139
-300.778	-39.570	0.287	-0.148
-299.764	-10.892	-0.143	-0.093
-298.749	800.000	-0.024	-0.092
-297.735	-134.308	-0.211	0.026
-296.720	-200.000	-0.008	-0.141
-295.705	-82.348	0.120	0.038
-294.691	337.793	0.151	0.290
-293.676	800.000	0.063	-0.215
-292.662	16.861	0.129	0.101
-291.647	-92.802	0.103	0.028
-290.632	-200.000	0.046	-0.275
-289.618	800.000	0.016	-0.054
-288.603	800.000	-0.039	0.142
-287.589	-122.644	-0.169	0.027
-286.574	-37.680	-0.238	-0.125
-285.559	345.187	-0.110	-0.214
-284.545	-200.000	-0.007	-0.360
-283.530	-200.000	-0.023	-0.125
-282.516	108.637	0.131	0.155
-281.501	-33.007	0.057	0.031
-280.486	-200.000	0.047	-0.267
-279.472	800.000	-0.101	0.276
-278.457	-52.901	-0.119	0.054
-277.443	-96.040	0.292	-0.077
-276.428	542.842	0.131	-0.307
-275.413	-200.000	0.002	-0.081
-274.399	64.431	0.163	0.162
-273.384	24.077	-0.372	0.303
-272.370	504.475	0.055	0.125
-271.355	-14.409	0.143	-0.091
-270.340	38.447	-0.047	0.041
-269.326	-68.391	0.557	0.213
-268.311	96.222	-0.110	0.124
-267.297	-62.539	-0.304	-0.124
-266.282	329.225	0.256	-0.485
-265.267	-200.000	-0.016	-0.328
-264.253	-200.000	0.037	-0.206
-263.238	-83.490	0.142	0.045
-262.224	278.552	0.246	-0.432
-261.209	228.382	0.054	-0.087
-260.195	202.466	-0.107	0.162
-259.180	12.960	0.252	-0.192
-258.165	-46.879	-0.113	0.054
-257.151	-200.000	0.040	0.218
-256.136	-99.875	-0.210	-0.052
-255.122	655.723	0.068	0.171
-254.107	275.641	0.056	-0.097
-253.092	-200.000	0.001	-0.159
-252.078	294.538	0.122	0.220
-251.063	-200.000	-0.000	0.002
-250.049	66.606	0.004	0.004
-249.034	-145.926	0.263	0.023
-248.019	800.000	-0.025	-0.091
-247.005	465.039	-0.086	-0.189
-245.990	25.464	0.256	-0.210
-244.976	50.364	-0.109	-0.101
-243.961	-85.827	0.124	0.038
-242.946	45.912	0.155	0.141
-241.932	-49.109	-0.210	0.099
-240.917	223.659	0.134	0.213
-239.903	-21.585	-0.127	0.076
-238.888	47.575	0.120	-0.111
-237.873	378.022	0.077	0.155
-236.859	56.926	0.013	0.012
-235.844	130.589	0.053	-0.067
-234.830	-150.914	0.329	-0.024
-233.815	-136.148	0.265	-0.031
-232.800	-200.000	-0.026	-0.375
-231.786	-0.219	-0.112	0.078
-230.771	7.118	0.289	-0.212
-229.757	-28.332	0.427	0.243
-228.742	-60.602	-0.225	0.094
-227.727	-19.521	-0.108	0.066
-226.713	78.668	-0.223	0.235
-225.698	34.116	-0.244	-0.210
-224.684	-26.621	0.497	0.286
-223.669	-129.601	0.350	-0.048
-222.655	-23.135	0.132	0.078
-221.640	253.915	-0.183	-0.309
-220.625	679.188	0.025	0.063
-219.611	37.165	0.124	-0.108
-218.596	-0.400	-0.309	0.216
-217.582	22.472	-0.268	0.215
-216.567	450.997	0.109	-0.236
-215.552	126.917	-0.283	0.354
-214.538	-58.177	-0.192	-0.082
-213.523	-41.495	0.262	0.133
-212.509	251.837	0.030	0.050
-211.494	-48.661	0.152	0.072
-210.479	480.989	0.092	-0.206
-209.465	-9.925	-0.096	-0.063
-208.450	-200.000	-0.011	0.059
-207.436	189.309	-0.223	-0.329
-206.421	511.138	0.098	0.224
-205.406	-130.148	-0.202	0.027
-204.392	361.481	0.135	0.267
-203.377	333.624	0.075	-0.142
-202.363	40.533	0.064	-0.057
-201.348	-90.756	-0.186	0.053
-200.333	-200.000	0.006	0.345
-199.319	800.000	0.094	-0.361
-198.304	-25.445	-0.112	0.065
-197.290	-200.000	0.019	-0.104
-196.275	-56.854	-0.174	0.076
-195.260	327.428	0.134	-0.253
-194.246	66.222	-0.079	0.079
-193.231	-200.000	-0.233	0.000
-192.217	800.000	-0.187	-0.514
-191.202	195.586	0.048	0.072
-190.187	-45.913	-0.057	-0.027
-189.173	378.980	-0.016	0.033
-188.158	-200.000	-0.051	0.251
-187.144	-5.170	-0.232	0.157
-186.129	22.964	-0.242	0.195
-185.114	-193.385	-0.101	0.001
-184.100	269.535	0.073	0.126
-183.085	-60.150	-0.290	-0.121
-182.071	-200.000	-0.005	0.034
-181.056	-76.038	0.116	-0.040
-180.042	-200.000	-0.049	-0.236
-179.027	-5.512	0.216	-0.146
-178.012	-42.409	0.023	0.012
-176.998	-200.000	-0.036	-0.155
-175.983	161.132	0.086	-0.118
-174.969	-2.611	0.026	-0.018
-173.954	-200.000	-0.033	0.277
-172.939	-200.000	-0.003	0.259
-171.925	218.601	0.179	-0.280
-170.910	-40.993	-0.136	-0.069
-169.896	-133.898	-0.172	0.021
-168.881	800.000	0.065	0.186
-167.866	44.981	-0.089	-0.081
-166.852	-82.426	0.105	0.033
-165.837	-184.348	0.238	0.004
-164.823	190.602	-0.186	-0.275
-163.808	251.297	0.068	-0.114
-162.793	-200.000	-0.012	0.098
-161.779	16.193	-0.217	0.168
-160.764	77.741	-0.118	0.123
-159.750	-126.765	0.271	-0.039
-158.735	-58.118	0.118	-0.050
-157.720	-35.242	-0.231	0.123
-156.706	-42.449	-0.137	-0.069
-155.691	-94.123	0.246	-0.066
-154.677	-116.056	-0.308	-0.056
-153.662	-85.275	-0.043	0.013
-152.647	126.624	0.086	-0.107
-151.633	41.360	-0.008	0.007
-150.618	-71.852	0.337	0.123
-149.604	-103.922	0.079	-0.018
-148.589	-120.237	-0.325	0.054
-147.574	179.451	0.130	0.187
-146.560	-200.000	-0.062	-0.286
-145.545	763.956	-0.186	0.497
-144.531	-200.000	0.015	-0.368
-143.516	64.105	0.036	-0.035
-142.502	-200.000	-0.007	0.069
-141.487	110.462	-0.112	-0.132
-140.472	-54.787	-0.027	-0.012
-139.458	-39.658	-0.050	0.025
-138.443	-131.524	0.355	0.046
-137.429	229.884	0.073	0.117
-136.414	71.499	-0.239	-0.243
-135.399	-200.000	-0.026	-0.225
-134.385	-124.124	-0.392	-0.060
-133.370	6.217	0.234	-0.170
-132.356	-66.994	0.269	-0.104
-131.341	-68.254	-0.151	0.058
-130.326	-200.000	-0.000	-0.174
-129.312	376.727	0.101	-0.202
-128.297	366.236	0.097	0.191
-127.283	-138.474	-0.385	0.041
-126.268	-65.835	0.575	0.226
-125.253	-104.696	-0.069	-0.016
-124.239	669.665	0.030	-0.077
-123.224	343.439	-0.081	-0.156
-122.210	76.975	0.396	0.412
-121.195	-37.219	0.086	0.045
-120.180	771.786	0.123	0.329
-119.166	-110.139	0.062	-0.013
-118.151	-66.469	0.048	0.019
-117.137	-8.098	0.097	0.064
-116.122	-109.600	-0.248	-0.051
-115.107	-83.238	-0.078	-0.025
-114.093	-200.000	-0.040	0.398
-113.078	-200.000	-0.014	-0.689
-112.064	800.000	-0.159	-0.469
-111.049	-200.000	-0.019	0.172
-110.034	519.784	-0.052	-0.120
-109.020	-67.587	0.225	-0.086
-108.005	-200.000	-0.041	-0.237
-106.991	-200.000	0.032	-0.216
-105.976	-146.545	-0.065	-0.006
-104.962	-24.855	0.134	0.078
-103.947	800.000	0.103	-0.314
-102.932	139.544	0.170	-0.219
-101.918	-39.948	0.244	0.125
-100.903	-38.686	0.119	0.062
-99.889	-1.288	0.142	-0.098
-98.874	-9.810	-0.183	-0.119
-97.859	-140.432	0.151	-0.015
-96.845	-46.943	0.158	0.075
-95.830	-200.000	-0.011	-0.072
-94.816	-132.104	-0.147	0.019
-93.801	-107.519	-0.228	-0.049
-92.786	-61.958	0.135	0.055
-91.772	232.392	-0.088	0.141
-90.757	-133.340	0.298	0.037
-89.743	-88.499	0.107	-0.031
-88.728	-106.858	-0.324	0.070
-87.713	-69.665	0.556	0.208
-86.699	17.041	0.260	0.202
-85.684	176.877	-0.043	-0.062
-84.670	-86.525	0.241	-0.072
-83.655	-144.877	-0.271	0.024
-82.640	-200.000	0.029	0.126
-81.626	-104.402	-0.388	-0.088
-80.611	18.995	0.143	0.112
-79.597	-91.797	0.295	0.082
-78.582	136.526	0.175	-0.223
-77.567	-59.750	-0.381	-0.160
-76.553	511.394	-0.136	-0.309
-75.538	543.267	-0.143	0.334
-74.524	77.902	0.029	0.031
-73.509	-157.538	0.273	0.016
-72.494	140.657	0.177	0.229
-71.480	74.313	-0.088	0.091
-70.465	74.990	0.144	-0.149
-69.451	-64.942	0.272	-0.108
-68.436	81.714	-0.346	-0.367
-67.422	-200.000	0.032	-0.424
-66.407	205.119	0.152	-0.231
-65.392	161.711	-0.186	0.255
-64.378	-46.266	-0.213	-0.102
-63.363	-101.253	0.215	-0.051
-62.349	-200.000	0.047	-0.209
-61.334	48.079	-1.214	-1.110
-60.319	261.049	0.477	0.808
-59.305	328.003	-0.623	-1.169
-58.290	107.103	0.821	0.954
-57.276	356.151	0.873	1.700
-56.261	-200.000	113.756	660.201
-55.246	551.808	1514.938	3556.891
-54.232	178.514	2690.467	3842.213
-53.217	105.012	2284.934	2635.555
-52.203	37.267	1893.288	1639.945
-51.188	31.018	1683.551	1411.102
-50.173	28.511	1641.343	1357.141
-49.159	50.481	1696.772	1568.660
-48.144	49.494	1710.960	1574.312
-47.130	30.716	1668.804	1396.253
-46.115	27.958	1654.504	1363.678
-45.100	27.765	1649.437	1358.011
-44.086	27.842	1646.580	1356.183
-43.071	27.770	1644.315	1353.726
-42.057	27.705	1641.989	1351.274
-41.042	27.728	1640.310	1350.008
-40.027	27.822	1637.957	1348.714
-39.013	27.736	1635.909	1346.338
-37.998	27.742	1634.517	1345.185
-36.984	27.711	1633.004	1343.656
-35.969	27.801	1631.950	1343.398
-34.954	27.907	1630.015	1342.533
-33.940	27.868	1628.275	1340.764
-32.925	27.843	1626.293	1338.892
-31.911	27.853	1624.750	1337.640
-30.896	27.826	1623.327	1336.219
-29.881	27.924	1621.139	1335.083
-28.867	27.921	1619.320	1333.511
-27.852	27.932	1617.930	1332.396
-26.838	27.852	1616.882	1330.897
-25.823	27.823	1615.674	1329.639
-24.809	27.953	1614.094	1329.225
-23.794	27.916	1612.854	1327.883
-22.779	27.796	1611.594	1325.924
-21.765	27.784	1610.039	1324.503
-20.750	27.800	1608.276	1323.118
-19.736	27.882	1607.385	1322.929
-18.721	27.948	1605.656	1321.926
-17.706	27.909	1603.959	1320.197
-16.692	27.817	1602.946	1318.646
-15.677	27.951	1601.145	1318.075
-14.663	28.007	1600.157	1317.614
-13.648	28.005	1598.587	1316.259
-12.633	27.962	1597.038	1314.620
-11.619	27.912	1595.483	1312.927
-10.604	27.829	1594.208	1311.233
-9.590	27.914	1592.811	1310.639
-8.575	28.039	1591.192	1310.150
-7.560	27.976	1590.632	1309.186
-6.546	27.927	1589.604	1307.940
-5.531	27.938	1588.364	1306.942
-4.517	27.967	1586.987	1305.971
-3.502	27.977	1585.730	1304.951
-2.487	28.052	1584.099	1304.090
-1.473	27.649	1572.212	1291.400
-0.458	24.685	1552.728	1254.579
0.556	22.178	1553.586	1223.025
1.571	19.661	1577.654	1224.054
2.586	19.276	1589.517	1230.401
3.600	17.005	1534.945	1172.380
4.615	9.949	1428.219	1045.251
5.629	4.094	1368.899	965.340
6.644	3.266	1361.881	955.175
7.659	3.194	1360.603	953.748
8.673	3.184	1359.471	952.804
9.688	3.336	1357.508	952.284
10.702	3.252	1354.460	949.543
11.717	5.957	1359.394	969.646
12.731	13.407	1373.106	1025.669
13.746	19.453	1382.770	1070.417
14.761	20.669	1383.745	1078.624
15.775	20.002	1381.983	1073.022
16.790	19.061	1379.411	1065.110
17.804	18.160	1377.222	1057.756
18.819	17.800	1376.265	1054.702
19.834	17.646	1374.920	1052.625
20.848	17.587	1373.428	1051.025
21.863	17.352	1372.189	1048.537
22.877	17.170	1371.681	1046.935
23.892	17.135	1370.920	1046.046
24.907	17.170	1369.823	1045.330
25.921	17.100	1369.099	1044.254
26.936	17.188	1368.157	1043.984
27.950	17.248	1367.125	1043.474
28.965	17.416	1365.582	1043.234
29.980	17.478	1364.403	1042.620
30.994	17.582	1363.528	1042.496
32.009	17.633	1362.602	1042.007
33.023	17.641	1360.760	1040.554
34.038	17.455	1360.278	1038.960
35.053	17.397	1358.707	1037.313
36.067	17.365	1357.737	1036.287
37.082	17.414	1356.704	1035.708
38.096	17.525	1355.268	1035.191
39.111	17.520	1354.923	1034.808
40.126	17.330	1354.115	1032.946
41.140	17.128	1352.893	1030.694
42.155	17.056	1352.427	1029.809
43.169	16.884	1352.500	1028.733
44.184	16.890	1352.215	1028.462
45.199	17.118	1351.294	1029.050
46.213	17.174	1351.167	1029.202
47.228	17.330	1350.174	1029.302
48.242	17.362	1349.264	1028.709
49.257	17.358	1347.504	1027.255
50.271	17.330	1345.926	1025.787
51.286	17.358	1344.162	1024.522
52.301	17.338	1343.196	1023.574
53.315	17.274	1342.150	1022.305
54.330	17.120	1341.267	1020.615
55.344	17.055	1340.218	1019.336
56.359	17.108	1339.416	1018.950
57.374	17.106	1338.416	1018.091
58.388	16.906	1337.618	1016.192
59.403	17.079	1336.694	1016.440
60.417	17.028	1336.378	1015.800
61.432	16.826	1335.725	1014.007
62.447	16.725	1334.932	1012.712
63.461	16.723	1333.207	1011.304
64.476	16.792	1331.938	1010.664
65.490	16.903	1330.756	1010.335
66.505	16.885	1329.070	1008.860
67.520	16.828	1328.416	1007.934
68.534	16.959	1326.973	1007.528
69.549	16.865	1326.208	1006.304
70.563	16.718	1325.229	1004.596
71.578	16.661	1324.061	1003.287
72.593	16.641	1322.933	1002.224
73.607	16.560	1322.488	1001.319
74.622	16.617	1321.420	1000.761
75.636	16.797	1320.647	1001.150
76.651	16.715	1320.334	1000.335
77.666	16.707	1319.843	999.832
78.680	16.745	1319.291	999.545
79.695	16.853	1318.452	999.458
80.709	16.952	1317.850	999.499
81.724	16.929	1317.635	999.113
82.739	17.141	1316.027	999.052
83.753	17.222	1315.248	998.845
84.768	17.365	1314.572	999.085
85.782	17.363	1313.929	998.497
86.797	17.402	1312.286	997.387
87.812	17.242	1311.167	995.516
88.826	17.347	1309.763	994.975
89.841	17.281	1308.888	993.838
90.855	17.446	1307.853	993.922
91.870	17.502	1307.246	993.704
92.884	17.454	1306.170	992.519
93.899	17.575	1305.182	992.385
94.914	17.569	1304.849	992.006
95.928	17.520	1303.969	990.964
96.943	17.448	1303.088	989.787
97.957	17.439	1301.995	988.819
98.972	17.468	1300.796	987.989
99.987	17.481	1300.065	987.424
101.001	17.399	1299.098	986.123
102.016	17.426	1297.956	985.329
103.030	17.470	1297.117	984.861
104.045	17.399	1296.603	983.970
105.060	17.295	1295.234	982.243
106.074	17.123	1293.626	979.942
107.089	16.947	1292.136	977.712
108.103	16.917	1290.619	976.305
109.118	16.952	1289.798	975.801
110.133	16.878	1288.297	974.156
111.147	16.900	1286.704	972.990
112.162	16.941	1285.686	972.367
113.176	17.089	1284.426	972.175
114.191	17.093	1283.667	971.538
115.206	17.067	1282.370	970.324
116.220	16.905	1281.221	968.445
117.235	17.084	1280.036	968.481
118.249	16.911	1279.161	966.752
119.264	16.971	1277.642	965.855
120.279	16.927	1276.634	964.758
121.293	16.865	1275.294	963.310
122.308	16.663	1274.959	961.824
123.322	16.747	1273.379	961.025
124.337	16.588	1272.576	959.430
125.352	16.810	1270.657	959.156
126.366	16.680	1269.780	957.671
127.381	16.707	1269.140	957.261
128.395	16.893	1267.740	957.168
129.410	16.835	1266.520	955.837
130.424	16.842	1266.174	955.527
131.439	17.083	1264.845	955.801
132.454	17.008	1264.569	955.084
133.468	16.999	1263.485	954.132
134.483	17.085	1262.806	954.017
135.497	16.930	1262.489	952.822
136.512	16.978	1261.255	952.074
137.527	17.003	1259.885	951.099
138.541	17.097	1258.433	950.442
139.556	17.122	1256.906	949.343
140.570	17.219	1256.057	949.162
141.585	17.366	1254.781	948.932
142.600	17.347	1253.806	948.006
143.614	17.379	1252.802	947.339
144.629	17.558	1251.790	947.491
145.643	17.398	1250.592	945.610
146.658	17.319	1249.573	944.315
147.673	17.217	1247.925	942.424
148.687	17.102	1246.952	940.967
149.702	17.151	1245.449	940.021
150.716	17.042	1244.197	938.386
151.731	17.043	1243.121	937.502
152.746	17.093	1242.023	936.862
153.760	17.192	1240.681	936.316
154.775	17.210	1239.607	935.518
155.789	17.334	1238.635	935.385
156.804	17.224	1238.242	934.401
157.819	17.419	1237.021	934.467
158.833	17.465	1236.048	933.905
159.848	17.480	1235.396	933.411
160.862	17.460	1234.124	932.256
161.877	17.353	1232.545	930.398
162.892	17.181	1231.389	928.501
163.906	17.199	1230.528	927.870
164.921	17.188	1230.229	927.503
165.935	17.256	1229.410	927.170
166.950	17.258	1228.799	926.639
167.964	17.284	1227.638	925.827
168.979	17.281	1226.654	924.982
169.994	17.205	1225.986	923.984
171.008	17.395	1225.002	924.194
172.023	17.396	1224.792	923.963
173.037	17.462	1223.743	923.443
174.052	17.444	1222.590	922.396
175.067	17.207	1221.883	920.498
176.081	17.218	1220.267	919.256
177.096	17.208	1219.709	918.702
178.110	17.279	1218.634	918.192
179.125	17.280	1217.375	917.171
180.140	17.386	1215.968	916.600
181.154	17.473	1214.882	916.170
182.169	17.460	1213.939	915.305
183.183	17.576	1213.149	915.251
184.198	17.547	1212.177	914.283
185.213	17.608	1210.355	913.156
186.227	17.564	1209.722	912.363
187.242	17.691	1208.632	912.137
188.256	17.762	1207.714	911.746
189.271	17.800	1206.512	910.960
190.286	17.530	1205.706	908.827
191.300	17.242	1204.697	906.455
192.315	17.166	1203.730	905.242
193.329	17.170	1203.199	904.782
194.344	17.315	1202.455	904.914
195.359	17.324	1202.961	905.262
196.373	17.552	1201.614	905.379
197.388	17.541	1201.337	905.034
198.402	17.771	1201.248	906.109
199.417	17.862	1200.797	906.173
200.432	17.964	1199.787	905.872
201.446	18.025	1199.318	905.756
202.461	18.084	1198.225	905.165
203.475	18.007	1196.946	903.709
204.490	17.937	1195.493	902.165
205.504	17.853	1194.238	900.697
206.519	17.731	1192.984	899.029
207.534	17.729	1192.145	898.301
208.548	17.704	1191.401	897.534
209.563	17.732	1190.294	896.766
210.577	17.780	1189.369	896.242
211.592	17.807	1188.533	895.674
212.607	18.006	1187.488	895.852
213.621	17.947	1187.075	895.151
214.636	17.890	1186.249	894.153
215.650	17.898	1185.434	893.498
216.665	17.980	1184.296	892.992
217.680	18.048	1183.659	892.788
218.694	18.097	1182.820	892.333
219.709	18.057	1182.285	891.638
220.723	18.093	1181.202	890.930
221.738	18.024	1180.344	889.847
222.753	18.054	1179.273	889.117
223.767	18.102	1178.534	888.730
224.782	18.193	1178.730	889.274
225.796	18.304	1178.038	889.249
226.811	18.279	1177.308	888.487
227.826	18.261	1176.065	887.379
228.840	18.065	1175.338	885.734
229.855	18.059	1174.645	885.103
230.869	18.048	1173.645	884.217
231.884	18.049	1172.588	883.345
232.899	17.996	1171.696	882.323
233.913	17.852	1171.665	881.476
234.928	17.925	1170.716	881.060
235.942	17.843	1169.730	879.819
236.957	17.878	1169.028	879.392
237.972	17.906	1168.249	878.875
238.986	17.905	1167.768	878.428
240.001	17.946	1167.138	878.088
241.015	18.030	1165.886	877.499
242.030	18.103	1165.439	877.458
243.045	18.126	1164.453	876.760
244.059	18.060	1164.172	876.130
245.074	18.121	1163.142	875.588
246.088	18.262	1162.094	875.447
247.103	18.254	1161.670	875.007
248.117	18.335	1160.948	874.803
249.132	18.503	1160.771	875.447
250.147	18.668	1160.017	875.643
251.161	18.931	1159.258	876.333
252.176	18.851	1158.332	875.147
253.190	18.888	1157.742	874.816
254.205	18.806	1157.704	874.292
255.220	18.946	1156.493	874.012
256.234	18.946	1155.866	873.460
257.249	18.891	1155.683	872.965
258.263	18.891	1154.829	872.244
259.278	18.877	1154.278	871.676
260.293	18.993	1153.369	871.501
261.307	18.988	1153.321	871.365
262.322	19.000	1152.145	870.460
263.336	18.973	1151.580	869.818
264.351	19.197	1150.583	870.120
265.366	19.013	1150.545	869.084
266.380	19.053	1149.627	868.514
267.395	18.950	1148.829	867.316
268.409	18.754	1148.391	865.921
269.424	18.943	1147.403	866.053
270.439	18.892	1146.635	865.139
271.453	18.795	1146.132	864.193
272.468	18.774	1145.137	863.263
273.482	18.775	1143.918	862.271
274.497	18.826	1143.665	862.263
275.512	18.782	1143.323	861.707
276.526	18.854	1141.948	860.953
277.541	18.837	1141.504	860.458
278.555	18.886	1140.826	860.114
279.570	19.007	1140.192	860.166
280.585	19.198	1138.973	860.126
281.599	19.082	1138.656	859.229
282.614	19.067	1136.958	857.800
283.628	18.986	1136.247	856.783
284.643	18.890	1135.672	855.798
285.657	18.989	1134.513	855.338
286.672	19.054	1133.375	854.727
287.687	19.042	1132.709	854.093
288.701	18.982	1132.467	853.535
289.716	19.036	1131.195	852.770
290.730	18.948	1130.998	852.110
291.745	19.061	1130.441	852.172
292.760	19.122	1129.618	851.779
293.774	19.068	1128.939	850.923
294.789	19.206	1128.572	851.255
295.803	19.231	1127.887	850.786
296.818	19.188	1126.728	849.624
297.833	19.096	1126.110	848.627
298.847	19.049	1125.690	848.008
299.862	19.165	1124.715	847.769
300.876	19.279	1123.735	847.515
301.891	19.199	1123.447	846.830
302.906	19.234	1123.068	846.639
303.920	19.360	1122.329	846.628
304.935	19.454	1121.671	846.515
305.949	19.655	1120.733	846.722
306.964	19.589	1120.399	846.068
307.979	19.485	1119.088	844.494
308.993	19.404	1118.603	843.657
310.008	19.548	1117.851	843.721
311.022	19.483	1116.904	842.614
312.037	19.427	1116.254	841.775
313.052	19.400	1115.256	840.817
314.066	19.282	1114.285	839.434
315.081	19.245	1112.953	838.177
316.095	19.317	1112.576	838.170
317.110	19.260	1111.668	837.133
318.125	19.212	1111.501	836.704
319.139	19.167	1110.838	835.911
320.154	19.189	1110.091	835.379
321.168	19.138	1109.437	834.569
322.183	19.262	1108.621	834.479
323.197	19.333	1108.095	834.353
324.212	19.357	1107.326	833.816
325.227	19.466	1106.928	833.971
326.241	19.366	1106.274	832.923
327.256	19.258	1105.601	831.818
328.270	19.331	1104.815	831.506
329.285	19.386	1103.510	830.716
330.300	19.369	1102.490	829.794
331.314	19.174	1102.046	828.448
332.329	19.352	1100.992	828.438
333.343	19.410	1099.995	827.893
334.358	19.495	1099.361	827.748
335.373	19.627	1098.683	827.799
336.387	19.560	1098.025	826.909
337.402	19.557	1097.589	826.491
338.416	19.704	1096.706	826.456
339.431	19.792	1096.082	826.336
340.446	19.758	1095.960	826.008
341.460	19.871	1095.470	826.106
342.475	19.974	1094.431	825.736
343.489	19.977	1093.619	825.065
344.504	20.093	1092.452	824.667
345.519	19.989	1091.685	823.520
346.533	20.124	1090.769	823.398
347.548	20.171	1090.350	823.230
348.562	20.198	1089.284	822.483
349.577	19.997	1088.318	820.725
350.592	19.906	1087.832	819.859
351.606	19.801	1086.801	818.510
352.621	19.786	1086.062	817.811
353.635	19.647	1085.572	816.710
354.650	19.716	1084.842	816.414
355.665	19.779	1084.292	816.227
356.679	19.903	1083.750	816.332
357.694	19.951	1083.022	815.936
358.708	20.043	1082.099	815.604
359.723	20.037	1081.855	815.318
360.738	20.042	1081.204	814.779
361.752	19.995	1080.988	814.321
362.767	20.147	1080.329	814.470
363.781	20.097	1079.660	813.657
364.796	20.164	1079.033	813.427
365.810	20.230	1078.906	813.572
366.825	20.201	1078.399	812.980
367.840	20.402	1077.822	813.416
368.854	20.423	1077.224	812.987
369.869	20.459	1076.114	812.250
370.883	20.346	1075.408	811.116
371.898	20.291	1074.487	810.094
372.913	20.308	1074.139	809.836
373.927	20.416	1073.535	809.815
374.942	20.423	1073.060	809.418
375.956	20.440	1072.356	808.893
376.971	20.468	1071.428	808.250
377.986	20.402	1071.678	808.061
379.000	20.577	1070.493	807.910
380.015	20.740	1069.928	808.170
381.029	20.662	1069.990	807.783
382.044	20.639	1068.844	806.740
383.059	20.651	1067.960	806.058
384.073	20.504	1067.513	804.967
385.088	20.584	1066.519	804.517
386.102	20.570	1065.872	803.892
387.117	20.498	1064.516	802.465
388.132	20.349	1063.459	800.909
389.146	20.400	1062.741	800.534
390.161	20.298	1061.930	799.382
391.175	20.532	1061.252	799.878
392.190	20.553	1060.531	799.359
393.205	20.644	1060.019	799.324
394.219	20.595	1059.311	798.494
395.234	20.429	1058.503	797.053
396.248	20.600	1056.983	796.620
397.263	20.463	1055.980	795.165
398.278	20.389	1055.691	794.539
399.292	20.325	1055.050	793.695
400.307	20.362	1054.082	793.064
401.321	20.304	1053.725	792.459
402.336	20.310	1052.772	791.700
403.350	20.249	1052.086	790.840
404.365	20.437	1051.131	790.907
405.380	20.495	1050.586	790.691
406.394	20.549	1050.139	790.529
407.409	20.562	1049.706	790.191
408.423	20.786	1048.806	790.460
409.438	20.797	1048.126	789.928
410.453	20.839	1047.719	789.744
411.467	20.854	1047.156	789.319
412.482	20.938	1046.173	788.887
413.496	21.040	1045.691	788.916
414.511	21.145	1045.077	788.856
415.526	21.251	1044.470	788.808
416.540	21.113	1044.313	787.995
417.555	21.144	1043.964	787.802
418.569	21.052	1043.211	786.748
419.584	21.143	1042.739	786.734
420.599	21.264	1042.207	786.809
421.613	155.396	1403.352	1795.345
422.628	142.240	1455.958	1795.415
