DTS Sentinel unit serial number:	SN413079Multiplexer serial number:	ORYXHardware model number:	OX4-SRSoftware version number:	ORYX F/W v4.00 Oryx Data Collector v3.7.2.0data status	okinstallation	princeton_trtdifferential loss correction	single-endedforward channel	channel 2reverse channel	N/Adate	2019/09/18time	00:15:35forward acquisition time	60.00reverse acquisition time	0.00gamma	496.2192k internal	0.2349k external	0.2349temperature offset calibration	0.9985default loss term (dB/km)	0.3790temperature slope calibration	1.0000multiplexer offset coefficient	1.0000multiplexer slope coefficient	1.0000fibre end	0.00T internal ref (°C)	23.69T ext. ref 1 (°C)	0.16T ext. ref 2 (°C)	17.20length (m)	temperature (°C)	Stokes	anti-Stokes-747.200	800.000	-0.032	-0.094
-746.185	26.054	-0.220	0.183
-745.171	94.284	-0.265	0.300
-744.156	-200.000	-0.030	0.240
-743.142	-109.557	-0.094	0.020
-742.127	-141.907	0.309	0.031
-741.112	1.413	-0.088	0.063
-740.098	-200.000	-0.005	0.045
-739.083	43.010	-0.061	-0.056
-738.069	-200.000	-0.016	0.120
-737.054	-108.355	-0.266	0.057
-736.039	-120.932	-0.156	0.026
-735.025	-129.272	0.138	-0.019
-734.010	800.000	-0.083	-0.297
-732.996	661.751	-0.060	-0.155
-731.981	381.354	0.216	-0.442
-730.966	-200.000	0.004	-0.154
-729.952	695.201	-0.033	-0.088
-728.937	800.000	0.040	-0.143
-727.923	80.345	-0.174	0.187
-726.908	33.813	-0.207	0.180
-725.894	-86.533	-0.098	0.030
-724.879	170.616	-0.073	0.105
-723.864	85.052	0.124	-0.136
-722.850	-200.000	0.006	0.074
-721.835	204.452	-0.044	-0.068
-720.821	218.278	-0.065	-0.103
-719.806	533.394	0.127	-0.300
-718.791	-139.584	-0.297	-0.032
-717.777	800.000	-0.044	-0.189
-716.762	-66.346	0.108	-0.043
-715.748	38.552	-0.075	0.067
-714.733	-78.084	-0.272	0.093
-713.718	278.472	0.093	0.165
-712.704	109.315	-0.040	0.048
-711.689	-123.792	0.197	0.031
-710.675	580.205	0.062	0.151
-709.660	800.000	-0.131	-0.371
-708.645	-114.695	-0.096	0.018
-707.631	76.849	-0.119	-0.126
-706.616	800.000	0.050	-0.169
-705.602	99.744	-0.105	-0.121
-704.587	-69.488	-0.192	-0.074
-703.572	-200.000	0.017	-0.222
-702.558	301.826	-0.035	-0.065
-701.543	-156.385	0.039	0.002
-700.529	-133.513	-0.109	0.014
-699.514	-128.764	-0.362	-0.051
-698.499	-200.000	0.086	0.448
-697.485	479.323	0.170	0.384
-696.470	238.813	0.118	0.196
-695.456	800.000	-0.075	-0.303
-694.441	103.953	0.092	0.108
-693.426	136.174	0.037	0.048
-692.412	-200.000	-0.013	0.060
-691.397	-82.643	-0.099	-0.032
-690.383	-59.796	-0.182	0.078
-689.368	-200.000	0.008	0.171
-688.354	-132.601	-0.362	-0.046
-687.339	113.607	-0.189	0.228
-686.324	-200.000	-0.063	-0.291
-685.310	-111.154	0.336	-0.069
-684.295	-115.983	0.268	-0.050
-683.281	-181.334	-0.125	0.002
-682.266	800.000	-0.077	0.302
-681.251	201.449	-0.139	0.213
-680.237	-90.201	0.245	0.071
-679.222	-156.335	-0.334	-0.021
-678.208	-82.397	-0.082	0.027
-677.193	-200.000	0.047	-0.233
-676.178	-26.547	0.105	0.061
-675.164	-58.881	0.200	0.086
-674.149	120.984	-0.241	0.298
-673.135	-0.150	0.097	0.069
-672.120	12.911	-0.147	-0.113
-671.105	65.815	-0.115	0.116
-670.091	-200.000	0.022	0.224
-669.076	38.235	0.346	0.307
-668.062	298.989	-0.075	-0.138
-667.047	132.918	0.197	0.253
-666.032	-67.847	-0.203	-0.079
-665.018	70.176	-0.144	-0.148
-664.003	-200.000	-0.001	-0.041
-662.989	-200.000	-0.006	0.101
-661.974	114.843	-0.098	-0.119
-660.959	-166.155	-0.219	-0.009
-659.945	-200.000	-0.000	-0.345
-658.930	-87.783	0.332	-0.099
-657.916	-200.000	0.022	0.121
-656.901	-64.460	0.060	-0.024
-655.886	-158.393	-0.259	0.015
-654.872	-32.950	0.318	-0.176
-653.857	-200.000	-0.016	0.175
-652.843	-38.181	0.028	0.015
-651.828	660.724	-0.125	0.322
-650.814	-98.151	-0.155	-0.040
-649.799	-62.327	-0.408	0.169
-648.784	39.688	-0.226	0.201
-647.770	337.853	0.059	0.114
-646.755	-30.064	0.092	0.052
-645.741	-67.870	0.258	0.100
-644.726	390.171	-0.146	0.301
-643.711	-55.239	-0.325	0.145
-642.697	197.841	-0.116	-0.177
-641.682	-200.000	0.006	0.122
-640.668	64.997	0.062	-0.062
-639.653	-103.156	-0.055	-0.013
-638.638	-94.680	-0.102	0.028
-637.624	-200.000	-0.014	-0.168
-636.609	-61.469	-0.412	-0.172
-635.595	-144.003	-0.284	0.027
-634.580	-200.000	0.082	0.507
-633.565	61.838	0.092	-0.091
-632.551	-112.990	-0.218	-0.043
-631.536	-28.534	-0.308	-0.176
-630.522	65.375	0.178	-0.179
-629.507	316.997	-0.191	-0.359
-628.492	-200.000	0.175	0.001
-627.478	-41.759	0.242	0.124
-626.463	-200.000	0.014	-0.107
-625.449	-34.252	0.247	0.135
-624.434	-200.000	-0.033	-0.165
-623.419	-129.272	-0.356	0.049
-622.405	-37.390	-0.236	0.125
-621.390	-125.106	0.132	0.020
-620.376	266.188	0.099	0.173
-619.361	-200.000	0.022	-0.305
-618.346	-200.000	-0.014	-0.195
-617.332	-38.230	-0.295	-0.155
-616.317	-16.512	-0.376	0.236
-615.303	-200.000	-0.009	0.158
-614.288	496.148	-0.244	0.557
-613.273	625.396	-0.125	-0.314
-612.259	276.690	0.069	-0.122
-611.244	-22.589	0.348	0.209
-610.230	-200.000	-0.034	-0.237
-609.215	-200.000	0.019	0.143
-608.201	-80.857	0.308	-0.101
-607.186	-114.512	0.240	0.046
-606.171	765.148	0.005	0.012
-605.157	36.382	-0.082	-0.072
-604.142	-200.000	0.018	0.133
-603.128	77.009	-0.173	0.183
-602.113	-116.096	-0.425	0.079
-601.098	-125.319	-0.350	0.053
-600.084	-40.236	-0.099	-0.051
-599.069	800.000	0.080	-0.225
-598.055	-48.492	-0.279	-0.133
-597.040	406.727	-0.132	0.276
-596.025	111.157	-0.201	-0.240
-595.011	-182.205	-0.120	-0.002
-593.996	-200.000	0.011	-0.150
-592.982	-134.516	0.226	0.027
-591.967	61.710	0.140	-0.139
-590.952	162.494	0.045	0.062
-589.938	289.413	-0.125	-0.225
-588.923	-163.250	0.334	0.016
-587.909	-161.992	0.147	0.007
-586.894	-82.939	0.120	-0.038
-585.879	758.590	0.055	0.149
-584.865	-13.605	0.076	0.049
-583.850	72.014	-0.027	-0.028
-582.836	-124.370	-0.415	-0.064
-581.821	-85.780	0.096	0.030
-580.806	395.683	-0.135	-0.279
-579.792	41.998	0.156	0.141
-578.777	-127.329	-0.211	-0.031
-577.763	-200.000	0.004	0.026
-576.748	800.000	-0.029	0.123
-575.733	155.964	0.042	0.058
-574.719	780.780	0.054	0.148
-573.704	-200.000	-0.010	-0.522
-572.690	-69.067	-0.045	0.017
-571.675	-64.094	0.416	-0.168
-570.661	-2.934	-0.405	0.280
-569.646	345.437	-0.122	-0.237
-568.631	536.972	0.112	-0.264
-567.617	800.000	-0.052	-0.181
-566.602	9.798	-0.166	0.125
-565.588	129.034	0.140	0.178
-564.573	226.050	0.084	-0.135
-563.558	-154.857	0.058	-0.004
-562.544	255.255	0.137	-0.232
-561.529	31.312	-0.150	0.128
-560.515	21.794	-0.348	-0.281
-559.500	-200.000	-0.040	-0.241
-558.485	-111.271	0.370	0.075
-557.471	-10.751	0.229	-0.150
-556.456	559.514	0.082	0.196
-555.442	83.741	-0.232	0.251
-554.427	563.184	-0.118	0.283
-553.412	-164.282	-0.135	-0.006
-552.398	107.383	0.111	0.131
-551.383	-185.209	-0.478	0.007
-550.369	-200.000	-0.012	0.193
-549.354	84.820	-0.122	0.132
-548.339	-106.082	-0.261	-0.058
-547.325	-30.277	-0.169	0.095
-546.310	-64.832	0.302	0.121
-545.296	800.000	-0.047	-0.140
-544.281	-109.941	0.156	-0.032
-543.266	180.823	-0.041	0.060
-542.252	200.164	-0.110	-0.167
-541.237	-0.856	-0.196	0.138
-540.223	24.044	0.238	-0.194
-539.208	62.583	0.193	0.191
-538.193	-129.210	0.094	-0.013
-537.179	-91.200	0.384	-0.109
-536.164	-28.564	0.183	0.104
-535.150	-200.000	0.012	-0.187
-534.135	226.481	0.098	-0.158
-533.121	-98.085	-0.319	-0.081
-532.106	-200.000	-0.001	-0.112
-531.091	800.000	0.097	-0.333
-530.077	-120.391	-0.173	-0.029
-529.062	372.372	0.042	-0.085
-528.048	16.838	-0.219	-0.172
-527.033	-12.580	0.223	-0.144
-526.018	-119.523	0.241	0.041
-525.004	188.741	-0.097	0.143
-523.989	229.786	0.173	-0.279
-522.975	-77.981	0.061	-0.021
-521.960	5.142	0.240	-0.175
-520.945	154.513	0.172	-0.233
-519.931	800.000	0.029	-0.097
-518.916	-200.000	-0.017	0.142
-517.902	-30.921	0.249	0.139
-516.887	-85.839	-0.106	-0.032
-515.872	83.931	0.019	0.020
-514.858	-200.000	0.033	-0.158
-513.843	-200.000	0.035	0.387
-512.829	-12.633	0.146	0.094
-511.814	-153.595	-0.193	0.013
-510.799	136.694	0.075	-0.097
-509.785	800.000	-0.055	-0.176
-508.770	800.000	-0.054	0.217
-507.756	-2.411	-0.199	-0.138
-506.741	-165.267	-0.192	0.008
-505.726	-121.032	0.082	-0.014
-504.712	-93.563	0.038	-0.010
-503.697	-200.000	0.009	0.090
-502.683	391.861	-0.077	0.159
-501.668	154.004	0.185	0.251
-500.653	81.641	-0.079	0.084
-499.639	13.693	-0.257	0.197
-498.624	798.977	-0.107	-0.291
-497.610	800.000	-0.062	0.181
-496.595	89.038	-0.090	0.099
-495.581	-39.120	-0.346	-0.180
-494.566	493.363	0.165	-0.375
-493.551	79.161	-0.162	0.172
-492.537	-200.000	0.033	-0.163
-491.522	78.917	0.211	-0.224
-490.508	582.006	0.171	-0.414
-489.493	-200.000	0.006	-0.274
-488.478	-200.000	-0.008	-0.318
-487.464	15.112	-0.219	0.170
-486.449	-84.323	0.136	-0.042
-485.435	800.000	0.077	0.211
-484.420	-19.201	-0.333	-0.204
-483.405	263.611	0.127	0.218
-482.391	-117.019	0.289	0.052
-481.376	63.233	0.031	-0.031
-480.362	40.464	-0.267	0.237
-479.347	-25.882	0.130	0.076
-478.332	307.930	-0.118	0.217
-477.318	-42.546	0.174	0.088
-476.303	-156.984	-0.335	0.020
-475.289	-126.907	0.056	-0.008
-474.274	-51.168	0.105	0.049
-473.259	127.265	0.032	-0.040
-472.245	-200.000	-0.061	-0.464
-471.230	-14.766	0.209	0.133
-470.216	-2.937	0.075	-0.052
-469.201	597.073	-0.069	-0.169
-468.186	251.100	0.158	0.265
-467.172	-84.247	-0.199	-0.062
-466.157	-160.210	-0.168	-0.009
-465.143	73.629	0.329	-0.341
-464.128	-53.742	-0.212	-0.096
-463.113	-144.627	-0.140	-0.013
-462.099	126.138	0.157	-0.196
-461.084	35.602	0.179	0.155
-460.070	18.845	0.041	0.033
-459.055	41.258	0.424	-0.379
-458.040	800.000	0.060	-0.217
-457.026	-116.679	-0.279	0.051
-456.011	-200.000	0.076	-0.380
-454.997	-72.160	-0.190	0.070
-453.982	-72.505	0.140	0.051
-452.968	-12.820	-0.143	-0.092
-451.953	-45.908	-0.112	0.054
-450.938	13.361	0.257	-0.196
-449.924	-200.000	0.029	0.201
-448.909	20.887	-0.153	-0.122
-447.895	-76.470	-0.051	-0.018
-446.880	-200.000	-0.049	0.254
-445.865	-200.000	0.017	0.277
-444.851	-115.465	0.172	-0.032
-443.836	-99.394	-0.089	0.022
-442.822	-200.000	-0.005	0.036
-441.807	800.000	0.105	-0.307
-440.792	-150.357	-0.320	0.024
-439.778	-200.000	-0.002	0.356
-438.763	27.384	-0.094	0.078
-437.749	606.639	-0.073	-0.181
-436.734	-124.038	0.217	0.034
-435.719	6.178	0.051	0.038
-434.705	-200.000	0.021	-0.110
-433.690	-124.597	-0.230	0.035
-432.676	67.173	-0.129	0.130
-431.661	729.111	0.022	-0.058
-430.646	-129.866	0.039	0.005
-429.632	800.000	0.049	-0.200
-428.617	19.611	-0.010	-0.008
-427.603	-200.000	-0.026	-0.425
-426.588	10.209	0.275	-0.206
-425.573	-100.876	-0.062	-0.015
-424.559	220.174	-0.104	-0.165
-423.544	800.000	0.101	-0.320
-422.530	-200.000	0.002	0.160
-421.515	-44.319	0.143	0.071
-420.500	800.000	0.045	0.162
-419.486	154.487	-0.120	-0.163
-418.471	-137.237	0.253	0.028
-417.457	-200.000	0.024	-0.179
-416.442	-78.806	0.192	-0.065
-415.428	403.564	-0.166	-0.344
-414.413	545.735	-0.094	-0.222
-413.398	603.346	0.141	-0.345
-412.384	567.083	0.192	0.459
-411.369	2.946	0.164	0.118
-410.355	-200.000	0.012	0.261
-409.340	236.873	-0.049	0.080
-408.325	800.000	-0.093	-0.297
-407.311	75.279	0.079	-0.082
-406.296	127.348	0.207	-0.259
-405.282	526.365	0.055	0.127
-404.267	-36.695	0.121	0.064
-403.252	-200.000	-0.048	0.254
-402.238	-118.607	-0.087	0.015
-401.223	299.280	0.261	0.473
-400.209	512.097	-0.160	0.367
-399.194	25.281	-0.283	0.231
-398.179	108.391	-0.180	-0.211
-397.165	800.000	-0.041	-0.141
-396.150	32.354	0.210	-0.179
-395.136	-200.000	0.003	0.206
-394.121	129.400	-0.077	-0.097
-393.106	-200.000	-0.041	0.350
-392.092	15.437	0.194	0.150
-391.077	242.051	0.188	-0.310
-390.063	-97.230	-0.169	0.043
-389.048	-190.693	0.162	-0.002
-388.033	-98.691	0.222	-0.056
-387.019	269.978	-0.014	0.025
-386.004	73.916	0.145	-0.150
-384.990	-77.663	-0.114	0.039
-383.975	211.112	-0.113	-0.175
-382.960	-200.000	0.037	0.289
-381.946	-22.779	-0.235	0.140
-380.931	-171.267	-0.119	-0.004
-379.917	148.288	-0.088	0.117
-378.902	-34.178	-0.256	0.138
-377.888	84.850	-0.238	-0.257
-376.873	220.741	0.070	-0.111
-375.858	561.526	0.129	0.307
-374.844	800.000	-0.061	-0.239
-373.829	-22.069	0.071	0.043
-372.815	52.307	-0.254	-0.238
-371.800	-62.860	-0.367	-0.149
-370.785	242.138	0.092	-0.152
-369.771	800.000	-0.102	-0.354
-368.756	-200.000	0.010	0.046
-367.742	-89.767	0.212	0.061
-366.727	-122.619	0.353	0.056
-365.712	-139.686	-0.205	-0.022
-364.698	-83.949	-0.136	-0.043
-363.683	-131.041	-0.270	-0.035
-362.669	60.512	-0.086	-0.084
-361.654	-183.620	0.158	0.003
-360.639	365.277	-0.082	-0.162
-359.625	457.274	-0.083	-0.182
-358.610	-200.000	-0.010	-0.228
-357.596	-37.386	-0.238	-0.125
-356.581	-10.199	0.192	0.126
-355.566	49.589	0.144	-0.134
-354.552	86.411	0.168	0.182
-353.537	800.000	0.012	-0.050
-352.523	-106.420	0.027	0.006
-351.508	-89.339	-0.139	0.040
-350.493	508.882	0.038	0.086
-349.479	-100.114	-0.294	-0.072
-348.464	125.328	0.201	0.250
-347.450	-116.987	-0.176	-0.032
-346.435	70.399	-0.176	0.179
-345.420	-200.000	0.004	-0.062
-344.406	438.638	0.133	0.286
-343.391	43.746	0.124	-0.112
-342.377	-40.787	-0.309	-0.157
-341.362	-170.449	0.341	0.012
-340.348	-200.000	0.027	-0.123
-339.333	-179.939	0.162	-0.003
-338.318	-176.805	0.169	-0.004
-337.304	-155.294	0.316	-0.020
-336.289	-9.750	0.339	0.222
-335.275	34.390	-0.150	-0.129
-334.260	-82.394	0.131	0.042
-333.245	-147.888	0.118	-0.010
-332.231	20.916	-0.162	-0.129
-331.216	146.397	0.073	0.096
-330.202	398.758	0.029	-0.060
-329.187	-85.766	-0.271	0.083
-328.172	-200.000	0.038	-0.205
-327.158	97.701	0.088	0.100
-326.143	525.820	0.057	0.132
-325.129	800.000	-0.019	-0.054
-324.114	800.000	-0.099	0.293
-323.099	-19.372	-0.101	0.062
-322.085	-200.000	0.060	0.349
-321.070	-13.772	-0.018	-0.011
-320.056	-50.451	0.211	-0.098
-319.041	800.000	0.065	-0.183
-318.026	-200.000	-0.048	0.223
-317.012	-126.351	-0.347	0.051
-315.997	46.983	-0.089	-0.081
-314.983	158.636	-0.082	-0.112
-313.968	345.751	-0.093	0.180
-312.953	-37.772	-0.039	0.021
-311.939	25.641	0.214	-0.175
-310.924	800.000	0.047	-0.138
-309.910	-110.500	-0.057	-0.012
-308.895	800.000	-0.039	-0.123
-307.880	403.951	0.045	0.093
-306.866	-95.749	-0.139	-0.036
-305.851	-159.718	0.163	-0.009
-304.837	-129.081	0.339	0.047
-303.822	36.965	-0.228	-0.198
-302.807	-139.030	-0.273	-0.029
-301.793	-158.927	-0.142	0.008
-300.778	40.163	0.241	0.212
-299.764	-43.067	0.260	-0.129
-298.749	58.441	0.119	-0.115
-297.735	644.460	0.189	0.474
-296.720	-200.000	0.000	0.049
-295.705	-35.074	-0.136	0.073
-294.691	36.927	0.111	-0.096
-293.676	-28.738	0.174	0.098
-292.662	-90.877	-0.362	0.102
-291.647	-200.000	0.033	0.165
-290.632	-179.829	-0.176	-0.004
-289.618	686.978	0.114	0.291
-288.603	800.000	-0.054	0.173
-287.589	54.515	0.258	-0.244
-286.574	453.607	0.057	-0.124
-285.559	800.000	0.103	0.287
-284.545	-9.719	0.189	-0.123
-283.530	-148.429	0.185	0.015
-282.516	527.664	0.037	-0.086
-281.501	315.652	0.092	-0.169
-280.486	-172.746	0.251	-0.008
-279.472	-71.608	-0.474	-0.174
-278.457	-72.919	-0.148	-0.053
-277.443	136.555	-0.189	0.242
-276.428	659.815	0.069	0.174
-275.413	27.880	0.233	-0.193
-274.399	607.106	0.129	-0.316
-273.384	10.920	0.172	0.129
-272.370	-158.592	0.215	-0.012
-271.355	81.095	-0.254	-0.269
-270.340	-22.930	0.244	-0.144
-269.326	-83.707	0.123	0.038
-268.311	99.177	0.184	0.209
-267.297	-162.701	0.208	-0.010
-266.282	183.532	-0.052	0.076
-265.267	19.851	-0.114	-0.090
-264.253	386.208	0.065	-0.131
-263.238	800.000	-0.082	0.274
-262.224	81.698	0.160	0.169
-261.209	-200.000	0.054	-0.245
-260.195	104.592	-0.187	-0.215
-259.180	-142.827	-0.281	0.027
-258.165	-76.462	-0.049	0.017
-257.151	28.448	-0.097	0.080
-256.136	-82.287	-0.034	-0.011
-255.122	320.947	-0.219	-0.408
-254.107	-156.039	0.167	0.010
-253.092	-83.970	0.171	-0.053
-252.078	7.371	0.332	-0.243
-251.063	288.332	-0.100	-0.177
-250.049	-200.000	0.000	-0.287
-249.034	-200.000	-0.020	0.302
-248.019	800.000	0.033	-0.098
-247.005	800.000	0.075	0.217
-245.990	-83.394	0.181	-0.057
-244.976	-100.339	-0.409	0.099
-243.961	258.947	0.148	0.250
-242.946	46.691	0.302	0.275
-241.932	-91.232	-0.318	-0.089
-240.917	-129.178	-0.166	0.023
-239.903	800.000	-0.018	-0.073
-238.888	43.414	0.138	0.123
-237.873	72.475	-0.172	0.176
-236.859	-75.779	0.151	0.052
-235.844	800.000	-0.065	-0.182
-234.830	-51.118	-0.378	-0.174
-233.815	161.603	0.163	0.224
-232.800	260.601	-0.187	-0.317
-231.786	163.851	-0.136	0.187
-230.771	33.464	-0.162	0.138
-229.757	-200.000	-0.017	0.124
-228.742	174.631	0.158	0.224
-227.727	-64.017	-0.121	-0.048
-226.713	-200.000	0.012	-0.199
-225.698	53.180	-0.212	0.199
-224.684	-121.941	0.202	-0.033
-223.669	100.913	-0.220	0.250
-222.655	-42.725	0.170	0.085
-221.640	127.441	-0.071	0.088
-220.625	145.580	0.197	-0.258
-219.611	463.214	-0.189	-0.413
-218.596	149.352	0.070	0.093
-217.582	-12.177	0.222	-0.142
-216.567	-84.983	0.132	0.040
-215.552	-67.322	-0.193	-0.074
-214.538	-152.737	0.447	-0.031
-213.523	-200.000	0.010	0.200
-212.509	800.000	-0.027	0.092
-211.494	285.826	-0.053	-0.094
-210.479	-146.373	0.181	0.016
-209.465	27.879	-0.076	0.063
-208.450	51.526	-0.188	0.175
-207.436	95.003	0.156	-0.174
-206.421	732.021	0.148	-0.386
-205.406	-200.000	-0.070	0.532
-204.392	-200.000	0.018	0.181
-203.377	-200.000	0.010	0.046
-202.363	-82.523	0.566	-0.180
-201.348	-88.786	-0.414	-0.120
-200.333	-127.251	0.206	0.029
-199.319	-85.671	-0.161	-0.049
-198.304	173.169	-0.143	0.202
-197.290	-200.000	0.023	0.149
-196.275	85.998	0.257	0.276
-195.260	-64.266	0.232	-0.092
-194.246	252.526	-0.059	-0.099
-193.231	89.777	-0.065	0.071
-192.217	-60.835	-0.451	0.186
-191.202	800.000	-0.082	0.313
-190.187	145.884	0.106	0.138
-189.173	48.646	-0.115	-0.105
-188.158	800.000	0.175	-0.496
-187.144	20.998	0.165	0.131
-186.129	168.637	-0.081	0.112
-185.114	-138.954	-0.200	-0.021
-184.100	800.000	-0.071	0.229
-183.085	217.866	-0.111	0.173
-182.071	800.000	0.025	-0.089
-181.056	-123.854	-0.139	-0.021
-180.042	-104.819	0.306	0.069
-179.027	179.452	-0.271	0.388
-178.012	15.297	-0.080	-0.061
-176.998	238.156	0.099	0.161
-175.983	-30.999	-0.089	0.049
-174.969	-85.618	0.386	0.117
-173.954	-157.230	-0.029	-0.002
-172.939	-83.714	0.205	0.064
-171.925	800.000	0.017	-0.065
-170.910	213.958	0.184	-0.285
-169.896	666.880	-0.110	-0.279
-168.881	9.236	0.337	0.249
-167.866	584.659	-0.038	-0.092
-166.852	-200.000	0.012	0.073
-165.837	-59.398	0.120	0.050
-164.823	120.058	-0.057	0.069
-163.808	114.838	0.129	0.154
-162.793	544.225	0.084	0.197
-161.779	-172.075	-0.238	0.007
-160.764	-107.537	0.087	0.019
-159.750	-200.000	0.007	0.441
-158.735	-200.000	-0.037	-0.177
-157.720	141.867	0.279	0.361
-156.706	800.000	0.059	0.159
-155.691	-196.000	0.117	-0.001
-154.677	383.255	0.178	0.357
-153.662	92.256	-0.268	0.295
-152.647	74.017	0.244	-0.249
-151.633	173.098	-0.337	0.474
-150.618	249.729	0.229	0.380
-149.604	-89.438	-0.422	0.121
-148.589	800.000	0.036	-0.111
-147.574	-81.329	0.190	0.061
-146.560	272.233	0.105	0.180
-145.545	55.388	-0.113	0.107
-144.531	137.845	-0.135	0.172
-143.516	-5.482	0.063	0.042
-142.502	-122.442	0.226	-0.036
-141.487	291.766	-0.037	0.066
-140.472	276.065	-0.056	0.097
-139.458	-152.828	0.246	-0.017
-138.443	-200.000	-0.023	-0.169
-137.429	380.384	-0.127	-0.253
-136.414	-86.568	0.232	0.069
-135.399	182.184	-0.075	0.108
-134.385	268.148	0.155	0.265
-133.370	65.954	-0.356	0.352
-132.356	800.000	-0.068	-0.235
-131.341	86.507	0.285	0.306
-130.326	434.299	-0.053	0.112
-129.312	-37.934	0.216	0.112
-128.297	-200.000	-0.014	-0.124
-127.283	392.778	0.122	0.247
-126.268	115.376	0.128	0.152
-125.253	-114.117	-0.026	-0.005
-124.239	-65.753	0.137	-0.054
-123.224	207.747	0.083	0.127
-122.210	800.000	0.044	0.133
-121.195	250.321	-0.076	0.126
-120.180	29.138	-0.133	-0.110
-119.166	-76.688	0.221	-0.076
-118.151	-38.900	-0.067	0.034
-117.137	-200.000	0.029	-0.207
-116.122	-200.000	-0.019	-0.194
-115.107	-127.270	-0.494	-0.070
-114.093	-200.000	0.017	0.173
-113.078	317.457	0.142	-0.261
-112.064	800.000	0.069	0.283
-111.049	-135.494	-0.102	0.012
-110.034	800.000	-0.026	-0.082
-109.020	-167.816	0.427	-0.016
-108.005	112.160	0.105	0.124
-106.991	-126.065	-0.198	0.029
-105.976	-200.000	0.016	-0.097
-104.962	-200.000	0.004	-0.285
-103.947	-113.967	0.404	0.076
-102.932	800.000	0.150	0.470
-101.918	-200.000	0.007	0.035
-100.903	-127.756	0.326	-0.046
-99.889	177.340	-0.067	-0.095
-98.874	472.462	-0.038	-0.084
-97.859	332.903	-0.067	0.127
-96.845	21.105	0.174	0.137
-95.830	73.064	0.102	0.104
-94.816	424.194	-0.112	0.234
-93.801	-200.000	-0.002	0.136
-92.786	-200.000	-0.038	0.391
-91.772	183.703	0.117	-0.169
-90.757	16.198	-0.386	-0.296
-89.743	469.367	-0.058	-0.127
-88.728	358.192	0.078	-0.151
-87.713	635.337	-0.096	0.236
-86.699	361.214	-0.049	0.095
-85.684	229.141	-0.261	-0.415
-84.670	395.907	0.107	0.218
-83.655	-128.442	0.250	0.035
-82.640	-171.006	0.333	-0.011
-81.626	-39.395	-0.274	0.140
-80.611	-200.000	-0.005	0.070
-79.597	165.206	0.202	0.277
-78.582	353.332	0.102	0.197
-77.567	-48.075	0.312	0.147
-76.553	387.970	-0.057	0.115
-75.538	-91.562	0.040	0.011
-74.524	202.836	-0.074	-0.111
-73.509	797.529	0.056	0.149
-72.494	-35.140	0.336	-0.178
-71.480	-200.000	-0.004	-0.070
-70.465	24.103	0.129	-0.104
-69.451	320.103	0.053	0.098
-68.436	-27.402	-0.135	-0.076
-67.422	-97.965	0.046	-0.011
-66.407	631.694	-0.108	-0.266
-65.392	185.993	0.033	0.047
-64.378	55.177	0.163	0.153
-63.363	314.176	0.164	-0.300
-62.349	-150.738	0.446	0.033
-61.334	89.141	-1.151	-1.247
-60.319	119.431	0.421	0.506
-59.305	-200.000	-0.252	-1.659
-58.290	347.256	0.801	1.534
-57.276	147.006	0.924	1.208
-56.261	-200.000	122.504	660.147
-55.246	447.161	1539.887	3293.052
-54.232	147.553	2699.959	3534.949
-53.217	92.128	2278.986	2494.739
-52.203	32.731	1893.932	1592.451
-51.188	26.759	1691.843	1377.259
-50.173	24.622	1652.561	1329.351
-49.159	46.191	1721.365	1549.597
-48.144	43.909	1732.671	1542.371
-47.130	26.403	1684.840	1368.647
-46.115	23.863	1669.112	1336.744
-45.100	23.559	1664.657	1330.842
-44.086	23.582	1662.542	1329.269
-43.071	23.526	1659.763	1326.579
-42.057	23.465	1658.107	1324.748
-41.042	23.564	1655.634	1323.461
-40.027	23.613	1653.777	1322.287
-39.013	23.522	1651.872	1320.036
-37.998	23.576	1650.711	1319.453
-36.984	23.604	1649.610	1318.732
-35.969	23.698	1647.502	1317.688
-34.954	23.728	1646.341	1316.930
-33.940	23.606	1644.693	1314.657
-32.925	23.635	1642.844	1313.340
-31.911	23.748	1640.812	1312.501
-30.896	23.661	1639.551	1310.800
-29.881	23.701	1638.098	1309.879
-28.867	23.705	1635.908	1308.106
-27.852	23.659	1635.161	1307.119
-26.838	23.680	1634.009	1306.302
-25.823	23.781	1632.024	1305.399
-24.809	23.691	1631.039	1303.899
-23.794	23.706	1629.500	1302.731
-22.779	23.786	1627.687	1301.815
-21.765	23.623	1626.595	1299.696
-20.750	23.647	1625.118	1298.640
-19.736	23.618	1623.670	1297.218
-18.721	23.746	1622.206	1296.933
-17.706	23.747	1620.610	1295.616
-16.692	23.652	1619.678	1294.126
-15.677	23.740	1617.880	1293.278
-14.663	23.709	1617.065	1292.350
-13.648	23.708	1615.525	1291.060
-12.633	23.737	1613.832	1289.868
-11.619	23.778	1612.302	1288.889
-10.604	23.766	1610.646	1287.426
-9.590	23.789	1609.345	1286.499
-8.575	23.726	1608.377	1285.220
-7.560	23.739	1607.212	1284.335
-6.546	23.732	1605.854	1283.147
-5.531	23.651	1605.029	1281.851
-4.517	23.768	1603.850	1281.700
-3.502	23.699	1602.898	1280.392
-2.487	23.811	1600.876	1279.536
-1.473	23.234	1589.268	1266.079
-0.458	20.315	1569.689	1229.780
0.556	15.183	1572.577	1199.163
1.571	13.088	1595.734	1201.486
2.586	12.786	1608.816	1209.009
3.600	11.601	1554.665	1159.807
4.615	6.503	1447.952	1046.328
5.629	1.272	1389.636	970.704
6.644	0.236	1383.127	959.472
7.659	0.137	1382.074	958.029
8.673	0.209	1380.836	957.543
9.688	0.069	1378.595	955.015
10.702	0.003	1375.446	952.334
11.717	2.641	1379.153	971.550
12.731	9.550	1388.769	1022.214
13.746	15.264	1397.565	1064.998
14.761	16.898	1399.275	1076.592
15.775	16.254	1397.665	1071.171
16.790	15.279	1395.180	1062.994
17.804	14.450	1392.900	1055.911
18.819	14.097	1391.105	1052.223
19.834	13.998	1389.540	1050.318
20.848	13.663	1388.618	1047.416
21.863	13.417	1387.358	1044.820
22.877	13.233	1386.526	1042.940
23.892	13.191	1385.491	1041.801
24.907	13.216	1384.310	1040.982
25.921	13.310	1383.467	1040.848
26.936	13.229	1382.845	1039.774
27.950	13.270	1381.862	1039.206
28.965	13.285	1380.809	1038.416
29.980	13.419	1379.547	1038.212
30.994	13.440	1378.504	1037.466
32.009	13.424	1378.137	1036.999
33.023	13.420	1376.601	1035.728
34.038	13.332	1375.437	1034.210
35.053	13.362	1374.559	1033.645
36.067	13.286	1373.558	1032.329
37.082	13.391	1372.817	1032.334
38.096	13.439	1371.427	1031.494
39.111	13.350	1370.719	1030.316
40.126	13.362	1369.830	1029.633
41.140	13.331	1368.749	1028.537
42.155	13.250	1368.588	1027.825
43.169	13.229	1368.271	1027.364
44.184	13.194	1367.692	1026.617
45.199	13.190	1367.670	1026.485
46.213	13.323	1366.956	1026.686
47.228	13.263	1366.105	1025.581
48.242	13.288	1364.806	1024.672
49.257	13.381	1363.024	1023.816
50.271	13.381	1362.073	1023.014
51.286	13.320	1360.554	1021.407
52.301	13.311	1359.317	1020.335
53.315	13.344	1357.961	1019.427
54.330	13.285	1357.081	1018.316
55.344	13.265	1355.911	1017.223
56.359	13.200	1355.145	1016.158
57.374	13.181	1354.341	1015.348
58.388	13.226	1353.224	1014.695
59.403	13.159	1352.855	1013.918
60.417	13.117	1351.773	1012.759
61.432	13.179	1350.795	1012.320
62.447	13.156	1349.640	1011.222
63.461	13.187	1348.404	1010.399
64.476	13.155	1347.600	1009.507
65.490	13.153	1346.358	1008.477
66.505	13.146	1344.889	1007.247
67.520	13.241	1342.946	1006.278
68.534	13.153	1342.313	1005.183
69.549	13.241	1341.192	1004.787
70.563	13.222	1339.970	1003.668
71.578	13.164	1338.808	1002.354
72.593	13.023	1338.187	1000.946
73.607	12.983	1337.675	1000.233
74.622	13.140	1336.361	1000.113
75.636	12.970	1336.070	998.776
76.651	13.131	1334.864	998.760
77.666	13.089	1334.186	997.913
78.680	13.153	1333.463	997.672
79.695	13.124	1332.806	996.916
80.709	13.151	1331.910	996.320
81.724	13.099	1331.315	995.471
82.739	13.219	1330.156	995.240
83.753	13.169	1329.555	994.401
84.768	13.231	1328.345	993.783
85.782	13.371	1326.762	993.347
86.797	13.339	1324.960	991.721
87.812	13.264	1324.163	990.587
88.826	13.278	1322.895	989.638
89.841	13.126	1322.626	988.434
90.855	13.203	1321.755	988.157
91.870	13.339	1320.036	987.599
92.884	13.381	1318.989	986.979
93.899	13.424	1318.100	986.480
94.914	13.470	1317.537	986.249
95.928	13.425	1316.849	985.375
96.943	13.328	1316.006	984.079
97.957	13.384	1314.997	983.574
98.972	13.278	1314.491	982.476
99.987	13.332	1313.197	981.747
101.001	13.434	1312.159	981.487
102.016	13.465	1310.627	980.440
103.030	13.347	1310.197	979.329
104.045	13.398	1309.108	978.730
105.060	13.339	1307.794	977.315
106.074	13.148	1306.975	975.489
107.089	13.322	1305.033	974.975
108.103	13.221	1303.983	973.514
109.118	13.195	1302.653	972.282
110.133	13.250	1301.357	971.551
111.147	13.149	1300.320	970.096
112.162	13.280	1298.882	969.708
113.176	13.234	1297.728	968.488
114.191	13.279	1296.946	968.086
115.206	13.290	1295.363	966.880
116.220	13.269	1294.275	965.863
117.235	13.189	1293.487	964.718
118.249	13.249	1292.533	964.275
119.264	13.279	1290.933	963.168
120.279	13.263	1289.948	962.259
121.293	13.331	1289.148	961.969
122.308	13.211	1288.191	960.474
123.322	13.177	1287.236	959.477
124.337	13.158	1286.415	958.672
125.352	13.163	1285.030	957.585
126.366	13.146	1283.853	956.524
127.381	13.343	1282.112	956.279
128.395	13.283	1281.389	955.311
129.410	13.208	1280.896	954.422
130.424	13.234	1279.812	953.680
131.439	13.222	1278.647	952.661
132.454	13.249	1278.121	952.342
133.468	13.390	1276.688	952.002
134.483	13.282	1276.152	950.896
135.497	13.287	1274.963	949.953
136.512	13.221	1273.734	948.576
137.527	13.256	1272.743	947.952
138.541	13.267	1271.015	946.643
139.556	13.329	1269.993	946.154
140.570	13.250	1269.197	945.028
141.585	13.398	1267.221	944.317
142.600	13.514	1265.999	943.984
143.614	13.462	1265.082	942.922
144.629	13.502	1264.034	942.281
145.643	13.474	1263.520	941.659
146.658	13.386	1262.177	940.074
147.673	13.339	1260.726	938.645
148.687	13.470	1259.282	938.230
149.702	13.389	1258.220	936.896
150.716	13.362	1256.984	935.737
151.731	13.449	1255.192	934.815
152.746	13.376	1254.472	933.781
153.760	13.468	1253.310	933.352
154.775	13.458	1252.185	932.378
155.789	13.476	1251.123	931.604
156.804	13.494	1249.975	930.770
157.819	13.486	1249.090	929.984
158.833	13.591	1247.917	929.613
159.848	13.692	1247.229	929.589
160.862	13.778	1245.740	928.877
161.877	13.606	1244.706	927.063
162.892	13.503	1244.269	926.075
163.906	13.371	1243.581	924.748
164.921	13.620	1241.852	924.767
165.935	13.473	1241.474	923.587
166.950	13.584	1240.424	923.339
167.964	13.680	1239.612	923.188
168.979	13.638	1238.800	922.271
169.994	13.659	1238.203	921.861
171.008	13.702	1236.947	921.080
172.023	13.739	1236.460	920.842
173.037	13.771	1235.302	920.079
174.052	13.804	1234.749	919.767
175.067	13.647	1233.667	918.012
176.081	13.606	1233.071	917.259
177.096	13.783	1231.357	916.880
178.110	13.599	1230.329	915.015
179.125	13.720	1229.310	914.848
180.140	13.670	1228.085	913.580
181.154	13.697	1227.191	912.981
182.169	13.790	1226.098	912.597
183.183	13.830	1224.432	911.497
184.198	13.918	1223.520	911.220
185.213	13.775	1222.864	909.865
186.227	13.894	1221.175	909.182
187.242	13.909	1220.438	908.635
188.256	13.903	1219.779	908.032
189.271	14.014	1218.219	907.394
190.286	13.861	1217.184	905.711
191.300	13.793	1216.250	904.562
192.315	13.764	1215.729	903.937
193.329	13.730	1215.476	903.487
194.344	13.763	1214.627	902.953
195.359	13.987	1213.595	903.323
196.373	13.840	1213.663	902.495
197.388	13.932	1213.293	902.640
198.402	14.011	1212.768	902.598
199.417	14.002	1211.821	901.768
200.432	14.091	1211.170	901.682
201.446	14.141	1210.080	901.066
202.461	14.100	1209.206	900.109
203.475	14.163	1208.267	899.671
204.490	14.175	1206.961	898.688
205.504	14.154	1205.474	897.388
206.519	14.079	1204.498	896.174
207.534	14.211	1203.364	895.962
208.548	14.072	1202.725	894.663
209.563	14.069	1201.816	893.888
210.577	14.123	1200.927	893.437
211.592	14.168	1199.836	892.793
212.607	14.264	1199.111	892.687
213.621	14.190	1198.251	891.573
214.636	14.221	1197.229	890.895
215.650	14.162	1196.432	889.912
216.665	14.347	1195.288	889.970
217.680	14.328	1194.501	889.200
218.694	14.335	1193.703	888.567
219.709	14.254	1193.396	887.826
220.723	14.325	1192.249	887.274
221.738	14.375	1191.178	886.663
222.753	14.319	1190.802	886.009
223.767	14.327	1190.237	885.554
224.782	14.471	1189.278	885.527
225.796	14.567	1188.362	885.274
226.811	14.496	1188.011	884.557
227.826	14.406	1187.480	883.607
228.840	14.411	1186.862	883.097
229.855	14.462	1186.050	882.686
230.869	14.416	1185.269	881.779
231.884	14.441	1183.884	880.806
232.899	14.354	1184.005	880.358
233.913	14.375	1182.851	879.533
234.928	14.498	1182.106	879.551
235.942	14.470	1180.967	878.476
236.957	14.479	1180.609	878.177
237.972	14.464	1179.568	877.250
238.986	14.550	1178.877	877.106
240.001	14.542	1178.284	876.548
241.015	14.617	1176.930	875.857
242.030	14.563	1176.613	875.262
243.045	14.624	1175.681	874.807
244.059	14.656	1175.193	874.538
245.074	14.705	1174.082	873.890
246.088	14.663	1173.505	873.165
247.103	14.659	1172.723	872.483
248.117	14.763	1171.778	872.244
249.132	14.658	1171.303	871.266
250.147	14.723	1170.440	870.888
251.161	14.937	1169.660	871.345
252.176	14.893	1168.823	870.413
253.190	14.898	1168.273	869.952
254.205	14.976	1167.459	869.677
255.220	14.751	1167.810	868.691
256.234	14.822	1166.879	868.291
257.249	14.933	1165.507	867.768
258.263	15.000	1165.212	867.821
259.278	14.923	1164.788	867.030
260.293	14.997	1164.145	866.858
261.307	15.087	1163.437	866.719
262.322	15.038	1162.775	865.894
263.336	14.997	1161.902	864.956
264.351	15.084	1161.343	864.913
265.366	15.116	1160.723	864.540
266.380	15.184	1159.810	864.133
267.395	15.137	1158.994	863.205
268.409	15.163	1158.274	862.727
269.424	15.077	1157.809	861.863
270.439	15.082	1157.383	861.496
271.453	15.141	1156.579	861.126
272.468	15.120	1155.194	859.906
273.482	15.166	1154.303	859.404
274.497	15.206	1154.152	859.423
275.512	15.136	1153.565	858.552
276.526	15.176	1152.782	858.095
277.541	15.261	1151.719	857.662
278.555	15.234	1151.173	857.045
279.570	15.301	1150.391	856.730
280.585	15.350	1149.773	856.442
281.599	15.342	1148.720	855.540
282.614	15.317	1147.787	854.645
283.628	15.327	1146.771	853.860
284.643	15.176	1145.974	852.422
285.657	15.248	1145.172	852.118
286.672	15.395	1143.980	851.902
287.687	15.362	1142.925	850.875
288.701	15.339	1142.437	850.321
289.716	15.421	1141.450	849.923
290.730	15.426	1140.899	849.463
291.745	15.459	1140.024	848.906
292.760	15.519	1139.813	848.978
293.774	15.530	1138.502	847.979
294.789	15.643	1138.254	848.292
295.803	15.642	1137.600	847.723
296.818	15.557	1136.895	846.691
297.833	15.614	1136.106	846.317
298.847	15.494	1135.523	845.203
299.862	15.460	1134.691	844.342
300.876	15.622	1133.979	844.550
301.891	15.572	1133.754	844.054
302.906	15.650	1132.598	843.513
303.920	15.635	1132.274	843.122
304.935	15.779	1131.064	842.868
305.949	15.926	1130.218	842.901
306.964	15.717	1129.965	841.589
307.979	15.808	1128.952	841.213
308.993	15.740	1128.312	840.323
310.008	15.735	1127.369	839.525
311.022	15.801	1127.016	839.513
312.037	15.971	1126.228	839.701
313.052	15.854	1124.922	838.069
314.066	15.725	1124.130	836.765
315.081	15.741	1123.225	836.095
316.095	15.786	1122.458	835.673
317.110	15.703	1122.408	835.152
318.125	15.722	1121.320	834.363
319.139	15.716	1120.596	833.719
320.154	15.854	1119.397	833.435
321.168	15.759	1119.520	832.984
322.183	15.732	1118.820	832.257
323.197	15.892	1118.056	832.408
324.212	15.894	1117.369	831.829
325.227	15.879	1116.841	831.290
326.241	15.855	1116.368	830.746
327.256	15.767	1115.533	829.614
328.270	15.838	1114.443	829.084
329.285	15.780	1113.582	828.084
330.300	15.879	1112.390	827.612
331.314	15.959	1111.357	827.160
332.329	15.813	1111.289	826.319
333.343	15.944	1109.776	825.766
334.358	16.109	1108.620	825.638
335.373	15.973	1108.367	824.713
336.387	16.022	1107.437	824.188
337.402	15.978	1107.014	823.586
338.416	16.047	1106.043	823.126
339.431	16.115	1105.215	822.768
340.446	16.147	1105.135	822.792
341.460	16.228	1104.279	822.479
342.475	16.174	1103.190	821.332
343.489	16.187	1102.259	820.626
344.504	16.191	1101.473	819.987
345.519	16.220	1100.492	819.326
346.533	16.397	1099.202	819.153
347.548	16.376	1099.372	819.105
348.562	16.430	1098.296	818.491
349.577	16.303	1097.413	817.148
350.592	16.190	1097.054	816.260
351.606	16.309	1095.947	815.939
352.621	16.344	1095.315	815.567
353.635	16.336	1094.787	815.063
354.650	16.282	1094.315	814.379
355.665	16.279	1093.165	813.435
356.679	16.338	1092.562	813.198
357.694	16.372	1092.060	812.919
358.708	16.351	1091.559	812.374
359.723	16.390	1090.830	811.944
360.738	16.363	1090.298	811.349
361.752	16.477	1089.432	811.179
362.767	16.453	1088.974	810.651
363.781	16.376	1088.577	809.913
364.796	16.476	1087.776	809.724
365.810	16.455	1087.236	809.152
366.825	16.679	1086.508	809.611
367.840	16.722	1085.620	809.081
368.854	16.643	1085.424	808.484
369.869	16.681	1084.521	807.925
370.883	16.637	1083.867	807.153
371.898	16.575	1083.289	806.360
372.913	16.651	1082.466	806.035
373.927	16.756	1081.695	805.892
374.942	16.777	1081.396	805.694
375.956	16.747	1081.037	805.216
376.971	16.840	1080.221	804.976
377.986	16.644	1079.798	803.661
379.000	16.815	1079.169	803.932
380.015	16.834	1078.831	803.701
381.029	16.880	1077.787	803.070
382.044	16.923	1077.129	802.709
383.059	16.845	1076.698	801.951
384.073	16.938	1075.694	801.569
385.088	16.979	1074.332	800.678
386.102	16.903	1073.742	799.810
387.117	16.814	1072.744	798.575
388.132	16.939	1071.847	798.425
389.146	16.776	1071.501	797.332
390.161	16.921	1070.315	797.058
391.175	16.949	1069.733	796.685
392.190	16.950	1069.208	796.231
393.205	16.891	1068.652	795.468
394.219	17.045	1067.992	795.627
395.234	16.996	1066.770	794.419
396.248	17.030	1065.766	793.758
397.263	17.011	1064.826	792.899
398.278	16.951	1063.926	791.878
399.292	16.903	1063.489	791.262
400.307	16.914	1062.492	790.498
401.321	16.897	1062.045	790.018
402.336	17.044	1061.038	789.881
403.350	16.979	1060.527	789.131
404.365	17.105	1059.610	788.965
405.380	17.250	1058.822	788.979
406.394	17.084	1058.376	787.809
407.409	17.212	1057.767	787.876
408.423	17.244	1057.019	787.402
409.438	17.280	1055.984	786.724
410.453	17.219	1055.477	785.995
411.467	17.201	1054.982	785.474
412.482	17.503	1053.663	785.816
413.496	17.325	1053.544	784.836
414.511	17.328	1052.812	784.237
415.526	17.400	1052.503	784.269
416.540	17.517	1051.928	784.309
417.555	17.428	1051.547	783.545
418.569	17.443	1051.136	783.241
419.584	17.376	1050.599	782.464
420.599	17.467	1050.166	782.490
421.613	108.156	1330.313	1487.659
422.628	99.554	1371.055	1487.723
