DTS Sentinel unit serial number:	SN413079Multiplexer serial number:	ORYXHardware model number:	OX4-SRSoftware version number:	ORYX F/W v4.00 Oryx Data Collector v3.7.2.0data status	okinstallation	princeton_trtdifferential loss correction	single-endedforward channel	channel 2reverse channel	N/Adate	2019/09/15time	08:19:35forward acquisition time	60.00reverse acquisition time	0.00gamma	496.2192k internal	0.2324k external	0.2324temperature offset calibration	1.0027default loss term (dB/km)	0.3790temperature slope calibration	1.0000multiplexer offset coefficient	1.0000multiplexer slope coefficient	1.0000fibre end	0.00T internal ref (°C)	31.23T ext. ref 1 (°C)	5.01T ext. ref 2 (°C)	28.33length (m)	temperature (°C)	Stokes	anti-Stokes-747.200	207.746	-0.160	-0.251
-746.185	-129.949	-0.301	-0.042
-745.171	286.959	0.116	-0.211
-744.156	-20.417	0.254	0.158
-743.142	727.175	0.192	0.517
-742.127	23.826	-0.350	0.291
-741.112	254.719	-0.107	0.186
-740.098	-36.212	0.124	0.067
-739.083	-130.003	0.429	0.059
-738.069	-98.571	-0.190	0.049
-737.054	-116.487	0.022	-0.004
-736.039	800.000	-0.024	-0.081
-735.025	172.531	0.089	0.130
-734.010	3.282	-0.052	0.038
-732.996	-77.779	-0.371	-0.130
-731.981	-93.443	-0.087	-0.024
-730.966	-104.553	-0.152	0.035
-729.952	-200.000	-0.012	-0.057
-728.937	-200.000	0.012	0.061
-727.923	395.516	-0.116	0.244
-726.908	138.128	-0.127	0.168
-725.894	768.465	-0.008	-0.021
-724.879	-154.483	-0.543	-0.037
-723.864	226.158	-0.075	0.122
-722.850	23.657	-0.167	-0.138
-721.835	-113.929	-0.144	-0.028
-720.821	-137.671	0.191	0.022
-719.806	259.718	0.052	0.091
-718.791	-6.590	-0.231	0.159
-717.777	402.130	0.074	0.156
-716.762	800.000	-0.016	-0.046
-715.748	-72.590	0.115	-0.043
-714.733	160.037	-0.144	0.202
-713.718	-67.577	0.174	-0.069
-712.704	-119.603	-0.331	-0.058
-711.689	-37.032	0.422	-0.228
-710.675	238.366	0.204	0.341
-709.660	113.006	-0.156	0.190
-708.645	-100.793	0.166	-0.041
-707.631	800.000	0.090	-0.295
-706.616	302.930	-0.222	0.415
-705.602	-105.283	0.156	0.036
-704.587	93.118	-0.104	0.119
-703.572	-200.000	-0.021	0.102
-702.558	226.839	-0.138	-0.226
-701.543	-64.617	0.222	-0.091
-700.529	3.891	-0.202	-0.149
-699.514	-200.000	-0.045	0.203
-698.499	-149.255	0.288	-0.023
-697.485	-105.019	-0.362	-0.083
-696.470	-200.000	0.054	0.328
-695.456	768.906	-0.051	-0.139
-694.441	-187.068	0.149	-0.002
-693.426	-58.968	-0.049	0.021
-692.412	27.161	0.065	0.055
-691.397	800.000	0.067	0.198
-690.383	159.096	-0.059	0.082
-689.368	-55.813	-0.437	0.197
-688.354	672.418	-0.078	-0.204
-687.339	11.044	-0.058	0.045
-686.324	-200.000	0.045	-0.200
-685.310	776.236	-0.042	-0.114
-684.295	-57.386	-0.119	-0.053
-683.281	800.000	-0.021	0.084
-682.266	16.942	-0.151	0.121
-681.251	-200.000	-0.050	-0.338
-680.237	129.509	0.057	-0.073
-679.222	-200.000	0.007	-0.238
-678.208	800.000	-0.061	0.186
-677.193	65.414	0.102	0.104
-676.178	-53.338	-0.192	-0.088
-675.164	-200.000	-0.008	-0.317
-674.149	-3.828	0.107	-0.075
-673.135	-89.952	0.114	-0.033
-672.120	-200.000	-0.003	-0.154
-671.105	-113.295	-0.171	-0.034
-670.091	-60.145	-0.361	-0.155
-669.076	-96.777	-0.049	-0.013
-668.062	66.585	-0.119	0.122
-667.047	89.052	0.227	-0.255
-666.032	-105.452	-0.191	-0.044
-665.018	378.214	0.183	-0.376
-664.003	-110.414	-0.451	-0.094
-662.989	47.172	0.207	-0.194
-661.974	-72.081	-0.181	-0.067
-660.959	-35.341	-0.202	0.110
-659.945	-44.069	-0.169	0.085
-658.930	371.556	0.074	-0.150
-657.916	201.394	-0.255	-0.395
-656.901	58.431	0.051	-0.051
-655.886	-200.000	0.006	-0.152
-654.872	30.728	-0.116	0.100
-653.857	-92.390	-0.053	-0.015
-652.843	-96.092	0.312	-0.083
-651.828	269.713	-0.101	0.179
-650.814	-200.000	-0.009	-0.167
-649.799	11.550	0.124	-0.095
-648.784	98.411	0.048	0.056
-647.770	18.019	0.196	0.157
-646.755	368.513	0.085	0.172
-645.741	-103.887	-0.291	-0.068
-644.726	-119.689	-0.410	0.071
-643.711	32.135	0.245	-0.213
-642.697	-141.311	0.271	0.028
-641.682	-48.372	-0.188	-0.091
-640.668	800.000	0.123	-0.391
-639.653	-129.457	0.331	-0.046
-638.638	-66.383	-0.294	0.117
-637.624	800.000	0.145	-0.449
-636.609	-200.000	0.106	0.000
-635.595	-138.125	-0.142	-0.016
-634.580	-133.890	-0.153	-0.019
-633.565	9.391	-0.126	0.096
-632.551	-103.311	0.052	0.012
-631.536	42.930	0.095	-0.087
-630.522	33.537	0.115	0.100
-629.507	-123.300	0.060	0.010
-628.492	800.000	-0.056	-0.172
-627.478	-200.000	-0.034	0.244
-626.463	196.323	0.119	0.182
-625.449	157.437	-0.121	-0.169
-624.434	201.806	0.180	0.279
-623.419	232.603	0.152	-0.251
-622.405	-198.738	-0.381	-0.002
-621.390	-94.973	-0.334	-0.091
-620.376	-200.000	0.007	0.190
-619.361	439.459	0.073	0.159
-618.346	-200.000	0.102	-0.471
-617.332	310.505	0.033	0.061
-616.317	-200.000	-0.024	0.151
-615.303	-78.819	0.337	0.115
-614.288	800.000	-0.066	0.204
-613.273	-200.000	0.049	0.383
-612.259	800.000	-0.070	0.303
-611.244	-76.139	-0.199	0.071
-610.230	4.853	-0.190	-0.140
-609.215	-89.716	-0.102	-0.030
-608.201	800.000	0.031	-0.097
-607.186	9.414	-0.203	-0.155
-606.171	-101.060	-0.262	-0.064
-605.157	-134.253	0.400	-0.049
-604.142	-168.474	-0.250	0.010
-603.128	800.000	0.073	-0.294
-602.113	17.980	0.198	-0.158
-601.098	-97.644	-0.316	-0.082
-600.084	-27.692	-0.207	-0.121
-599.069	32.799	0.238	0.207
-598.055	-200.000	-0.037	-0.177
-597.040	528.617	0.155	0.366
-596.025	57.200	-0.103	0.100
-595.011	-116.965	-0.043	-0.008
-593.996	-31.186	0.105	-0.059
-592.982	-105.640	0.146	0.033
-591.967	-64.240	0.296	-0.121
-590.952	-159.224	-0.260	-0.015
-589.938	120.659	-0.012	0.015
-588.923	-29.335	-0.240	0.138
-587.909	-49.384	0.182	0.087
-586.894	-200.000	0.012	-0.090
-585.879	407.797	-0.128	-0.271
-584.865	614.968	0.042	0.107
-583.850	-200.000	0.034	-0.350
-582.836	-79.963	-0.114	0.038
-581.821	42.161	0.199	-0.181
-580.806	342.612	0.037	0.073
-579.792	-60.184	-0.300	0.128
-578.777	-94.525	0.203	0.056
-577.763	-52.188	0.158	-0.073
-576.748	-30.474	0.192	-0.109
-575.733	-200.000	0.037	-0.233
-574.719	57.135	0.248	-0.242
-573.704	10.831	0.130	0.099
-572.690	-200.000	0.017	-0.128
-571.675	-61.765	0.435	0.183
-570.661	-14.707	0.092	0.059
-569.646	-162.713	-0.300	-0.015
-568.631	-78.894	-0.135	0.046
-567.617	-72.367	0.346	-0.128
-566.602	8.309	-0.095	-0.071
-565.588	133.389	-0.129	0.167
-564.573	-146.216	0.044	0.004
-563.558	70.219	0.120	-0.125
-562.544	-83.228	0.215	-0.069
-561.529	800.000	0.124	0.448
-560.515	605.862	-0.114	-0.284
-559.500	-200.000	-0.016	0.163
-558.485	-200.000	0.016	0.152
-557.471	37.952	-0.179	-0.160
-556.456	-1.273	0.127	0.090
-555.442	-200.000	0.039	0.221
-554.427	-63.913	-0.088	-0.036
-553.412	129.531	-0.124	0.159
-552.398	-62.473	0.173	0.072
-551.383	-4.401	0.219	0.152
-550.369	-114.547	0.102	0.020
-549.354	71.488	0.177	0.184
-548.339	-113.177	-0.256	-0.051
-547.325	427.248	-0.133	-0.287
-546.310	34.113	-0.167	-0.146
-545.296	800.000	-0.020	0.082
-544.281	-108.170	0.304	0.066
-543.266	18.282	0.151	-0.121
-542.252	-142.251	-0.253	0.025
-541.237	800.000	0.017	0.063
-540.223	-65.045	-0.131	-0.053
-539.208	139.279	-0.076	0.100
-538.193	68.618	0.100	-0.102
-537.179	158.758	-0.065	0.091
-536.164	-200.000	-0.003	-0.049
-535.150	27.304	-0.061	0.051
-534.135	185.011	0.051	-0.076
-533.121	70.679	-0.203	-0.211
-532.106	47.045	0.172	-0.160
-531.091	-200.000	-0.360	-0.001
-530.077	-31.935	-0.172	-0.096
-529.062	468.700	0.059	-0.133
-528.048	-200.000	-0.047	0.335
-527.033	12.344	-0.102	-0.078
-526.018	-200.000	0.041	0.411
-525.004	-53.872	0.271	-0.124
-523.989	266.791	-0.191	-0.335
-522.975	-152.028	-0.563	-0.041
-521.960	112.320	-0.192	-0.232
-520.945	61.048	0.361	-0.359
-519.931	64.228	-0.073	-0.074
-518.916	8.683	0.108	-0.082
-517.902	-27.855	-0.321	0.186
-516.887	316.677	-0.057	0.109
-515.872	-200.000	-0.011	0.301
-514.858	110.865	-0.270	0.325
-513.843	11.116	-0.313	0.240
-512.829	800.000	0.061	0.257
-511.814	127.165	-0.106	0.135
-510.799	-57.579	0.376	0.165
-509.785	-200.000	0.048	-0.451
-508.770	140.872	0.182	0.241
-507.756	-5.614	0.201	-0.138
-506.741	14.036	0.286	-0.223
-505.726	29.675	-0.217	-0.184
-504.712	-200.000	-0.022	0.223
-503.697	-2.371	-0.140	-0.098
-502.683	-200.000	0.094	-0.528
-501.668	-66.355	-0.361	-0.144
-500.653	-200.000	-0.063	0.503
-499.639	800.000	-0.043	-0.139
-498.624	800.000	0.107	0.329
-497.610	-146.233	-0.463	-0.041
-496.595	5.760	-0.182	0.135
-495.581	26.680	0.081	-0.068
-494.566	-130.668	0.188	-0.025
-493.551	-143.089	0.367	-0.035
-492.537	-83.285	0.091	-0.029
-491.522	-145.226	0.322	0.029
-490.508	290.243	-0.095	-0.172
-489.493	-39.799	-0.247	0.129
-488.478	98.883	-0.245	0.282
-487.464	-60.544	-0.153	-0.065
-486.449	-72.683	-0.217	-0.080
-485.435	-200.000	-0.017	-0.151
-484.420	30.091	-0.119	0.101
-483.405	-200.000	0.024	-0.214
-482.391	-118.650	0.171	0.030
-481.376	-200.000	-0.036	0.238
-480.362	440.921	0.076	0.167
-479.347	706.181	0.067	0.177
-478.332	-87.236	-0.188	-0.057
-477.318	-87.502	0.136	0.041
-476.303	417.764	0.054	0.116
-475.289	-95.815	0.265	-0.071
-474.274	707.933	0.089	0.235
-473.259	391.166	-0.270	-0.559
-472.245	-141.056	0.184	0.019
-471.230	599.000	0.094	0.234
-470.216	-200.000	-0.008	0.075
-469.201	-200.000	-0.052	0.266
-468.186	800.000	0.066	-0.201
-467.172	-200.000	-0.095	0.446
-466.157	53.751	0.157	-0.150
-465.143	-200.000	0.030	0.133
-464.128	-37.970	0.104	0.055
-463.113	239.649	0.127	-0.211
-462.099	128.550	0.227	-0.289
-461.084	-200.000	-0.008	0.226
-460.070	185.092	0.072	0.106
-459.055	153.429	0.129	-0.177
-458.040	800.000	-0.053	0.190
-457.026	-53.411	0.176	0.080
-456.011	221.987	0.257	0.413
-454.997	-200.000	-0.031	-0.161
-453.982	291.168	-0.029	-0.052
-452.968	-200.000	-0.027	0.156
-451.953	-73.785	0.198	0.072
-450.938	742.212	-0.071	-0.192
-449.924	80.788	-0.159	0.171
-448.909	-200.000	0.012	-0.150
-447.895	15.671	0.154	0.120
-446.880	-200.000	-0.012	0.287
-445.865	-163.385	-0.167	0.008
-444.851	-167.147	-0.022	0.001
-443.836	-55.940	0.389	-0.173
-442.822	-100.320	-0.163	0.040
-441.807	177.828	0.132	0.192
-440.792	61.735	0.363	-0.360
-439.778	-200.000	-0.019	0.088
-438.763	184.154	0.056	0.083
-437.749	-200.000	-0.022	0.280
-436.734	-20.767	-0.232	0.142
-435.719	-122.462	-0.080	0.013
-434.705	99.800	-0.055	-0.064
-433.690	205.703	-0.054	-0.083
-432.676	2.299	0.241	-0.174
-431.661	72.497	-0.049	-0.051
-430.646	-82.021	0.060	0.020
-429.632	-18.524	-0.366	-0.228
-428.617	-200.000	0.054	-0.250
-427.603	149.788	-0.037	0.050
-426.588	-41.888	-0.209	0.107
-425.573	-147.201	0.183	0.016
-424.559	213.729	0.063	0.100
-423.544	-129.734	0.342	0.047
-422.530	-130.726	0.322	0.043
-421.515	-46.523	0.357	-0.175
-420.500	-128.551	-0.436	-0.062
-419.486	475.611	0.025	-0.057
-418.471	11.110	-0.112	-0.085
-417.457	800.000	-0.032	-0.118
-416.442	97.012	-0.158	-0.180
-415.428	-149.213	0.394	-0.031
-414.413	800.000	0.007	0.026
-413.398	-188.570	-0.344	0.004
-412.384	-124.072	0.361	0.057
-411.369	-152.792	-0.360	-0.025
-410.355	-200.000	-0.051	0.287
-409.340	-200.000	-0.006	0.225
-408.325	-103.629	-0.246	0.057
-407.311	-200.000	-0.025	-0.114
-406.296	231.951	0.088	-0.143
-405.282	800.000	0.062	0.184
-404.267	-181.734	-0.109	0.002
-403.252	-136.203	0.231	-0.027
-402.238	-34.636	-0.389	-0.212
-401.223	-25.351	-0.362	0.213
-400.209	-200.000	0.028	0.259
-399.194	138.886	-0.362	0.474
-398.179	-200.000	0.054	0.250
-397.165	-42.741	-0.391	-0.198
-396.150	26.562	0.358	0.298
-395.136	4.155	-0.117	0.085
-394.121	-200.000	-0.011	0.244
-393.106	174.327	-0.052	-0.075
-392.092	44.481	0.201	0.184
-391.077	86.112	0.083	-0.091
-390.063	745.001	-0.035	0.094
-389.048	-200.000	0.138	0.001
-388.033	-99.475	-0.248	0.062
-387.019	11.268	-0.053	-0.040
-386.004	384.040	-0.147	-0.302
-384.990	53.579	-0.216	0.206
-383.975	213.362	0.066	0.103
-382.960	71.618	0.177	-0.183
-381.946	-167.921	-0.140	-0.005
-380.931	-200.000	-0.005	0.077
-379.917	-51.719	0.227	-0.105
-378.902	-104.870	-0.134	0.031
-377.888	-41.794	-0.156	0.079
-376.873	260.969	0.143	0.247
-375.858	579.000	-0.040	0.098
-374.844	800.000	-0.101	-0.423
-373.829	79.666	-0.104	-0.111
-372.815	28.072	0.164	-0.138
-371.800	800.000	-0.054	-0.184
-370.785	113.210	0.186	0.224
-369.771	-200.000	0.042	-0.194
-368.756	604.069	0.090	0.223
-367.742	183.992	-0.134	0.197
-366.727	-108.733	0.095	-0.020
-365.712	800.000	-0.180	0.561
-364.698	-200.000	0.019	0.412
-363.683	-81.722	0.278	0.091
-362.669	38.288	-0.160	0.142
-361.654	-200.000	-0.058	-0.456
-360.639	800.000	0.085	0.327
-359.625	-16.604	0.221	0.139
-358.610	46.394	-0.053	-0.049
-357.596	-104.271	-0.221	-0.051
-356.581	60.287	-0.124	-0.122
-355.566	-195.653	0.162	-0.001
-354.552	-65.705	0.157	-0.063
-353.537	-78.694	0.256	0.087
-352.523	-145.364	-0.154	-0.014
-351.508	52.961	-0.116	-0.111
-350.493	-149.845	0.564	0.044
-349.479	188.416	-0.073	0.109
-348.464	-200.000	-0.015	-0.120
-347.450	-109.238	0.238	-0.050
-346.435	125.103	-0.171	-0.214
-345.420	12.740	-0.147	-0.113
-344.406	800.000	-0.030	0.114
-343.391	45.641	-0.091	0.083
-342.377	-79.962	0.166	-0.055
-341.362	-35.697	0.249	0.134
-340.348	-200.000	-0.023	-0.177
-339.333	-154.562	0.235	-0.016
-338.318	286.757	0.140	-0.252
-337.304	-71.084	-0.072	0.027
-336.289	800.000	-0.033	0.125
-335.275	-200.000	0.010	-0.208
-334.260	-200.000	0.044	-0.224
-333.245	144.477	-0.113	0.150
-332.231	539.126	-0.131	0.309
-331.216	20.064	-0.138	-0.110
-330.202	-98.670	-0.155	0.039
-329.187	-56.972	0.124	0.054
-328.172	-21.000	-0.160	-0.097
-327.158	433.279	0.155	-0.334
-326.143	-72.434	-0.187	-0.069
-325.129	760.224	0.151	0.405
-324.114	-133.197	-0.149	0.019
-323.099	167.947	0.067	0.094
-322.085	85.395	-0.054	0.058
-321.070	251.362	-0.091	-0.154
-320.056	-157.593	0.256	-0.015
-319.041	295.499	-0.075	-0.137
-318.026	129.311	0.163	-0.206
-317.012	-200.000	-0.002	0.219
-315.997	28.211	-0.188	0.158
-314.983	-21.562	-0.186	0.112
-313.968	-151.854	-0.271	0.020
-312.953	70.793	-0.235	-0.242
-311.939	-200.000	-0.050	-0.243
-310.924	111.046	-0.232	-0.277
-309.910	-10.771	0.031	-0.021
-308.895	17.708	-0.237	-0.187
-307.880	-24.346	-0.178	-0.105
-306.866	-200.000	-0.031	0.287
-305.851	-89.103	-0.132	0.039
-304.837	-32.868	-0.182	-0.100
-303.822	-9.640	0.043	0.029
-302.807	42.820	-0.164	0.148
-301.793	-200.000	0.043	0.264
-300.778	202.407	-0.014	-0.021
-299.764	-200.000	0.013	-0.152
-298.749	14.730	-0.264	-0.205
-297.735	-59.482	0.257	-0.110
-296.720	229.410	-0.200	0.323
-295.705	-200.000	-0.020	0.117
-294.691	-13.906	0.065	0.042
-293.676	-89.510	-0.146	0.043
-292.662	140.456	-0.197	-0.258
-291.647	-154.382	0.112	-0.007
-290.632	-200.000	0.013	0.207
-289.618	-200.000	0.016	-0.451
-288.603	88.380	-0.106	-0.117
-287.589	-84.206	0.182	0.057
-286.574	-96.805	0.130	-0.034
-285.559	-69.107	-0.145	-0.055
-284.545	-200.000	-0.037	0.176
-283.530	118.789	0.038	-0.046
-282.516	-200.000	-0.022	0.127
-281.501	800.000	-0.084	0.304
-280.486	594.894	0.033	0.080
-279.472	-82.424	-0.420	-0.135
-278.457	-126.555	-0.063	-0.009
-277.443	22.740	-0.175	-0.142
-276.428	736.273	-0.163	-0.432
-275.413	-200.000	-0.063	0.313
-274.399	72.145	-0.237	0.245
-273.384	560.112	-0.055	-0.132
-272.370	-200.000	-0.038	0.432
-271.355	800.000	-0.038	0.135
-270.340	93.925	-0.091	0.102
-269.326	279.890	-0.084	0.148
-268.311	351.983	0.124	0.244
-267.297	-200.000	0.010	-0.047
-266.282	-200.000	0.001	-0.057
-265.267	21.533	0.037	-0.030
-264.253	-200.000	0.020	-0.133
-263.238	426.905	-0.105	0.224
-262.224	-70.389	-0.039	0.015
-261.209	-88.030	-0.289	0.086
-260.195	-54.188	-0.137	-0.062
-259.180	-200.000	0.048	-0.269
-258.165	-88.327	-0.179	-0.053
-257.151	800.000	0.082	0.314
-256.136	8.710	0.281	0.210
-255.122	111.068	-0.311	-0.371
-254.107	122.027	0.159	-0.196
-253.092	-129.581	-0.369	0.051
-252.078	74.321	0.157	0.163
-251.063	-71.917	-0.158	-0.058
-250.049	-200.000	-0.044	-0.203
-249.034	-11.011	0.334	-0.218
-248.019	-71.144	0.323	0.120
-247.005	-0.522	0.301	-0.212
-245.990	16.172	0.148	-0.115
-244.976	-200.000	0.002	-0.150
-243.961	-91.680	-0.121	-0.034
-242.946	-124.596	-0.044	-0.007
-241.932	-161.635	-0.331	0.017
-240.917	-32.274	-0.214	0.119
-239.903	-187.674	0.226	-0.003
-238.888	-134.092	0.096	-0.012
-237.873	23.091	-0.185	0.150
-236.859	-62.521	-0.261	-0.107
-235.844	94.945	0.114	-0.129
-234.830	519.895	-0.055	0.127
-233.815	521.634	-0.077	-0.178
-232.800	-99.981	0.233	-0.057
-231.786	668.116	-0.066	-0.169
-230.771	-28.688	-0.167	-0.095
-229.757	-200.000	-0.009	-0.093
-228.742	-200.000	-0.073	0.397
-227.727	411.782	-0.209	-0.439
-226.713	-117.103	0.295	0.053
-225.698	478.839	0.105	-0.235
-224.684	-148.825	0.434	-0.035
-223.669	143.969	0.069	-0.090
-222.655	-200.000	0.023	-0.389
-221.640	84.061	-0.168	-0.181
-220.625	-84.989	-0.192	-0.059
-219.611	-200.000	0.039	0.200
-218.596	22.380	-0.109	-0.088
-217.582	-200.000	-0.045	-0.213
-216.567	337.530	-0.143	-0.275
-215.552	-136.180	0.171	0.020
-214.538	800.000	-0.055	-0.212
-213.523	-1.892	0.080	-0.055
-212.509	-69.072	0.136	-0.052
-211.494	800.000	0.070	-0.277
-210.479	-120.581	0.174	0.029
-209.465	-48.998	-0.053	0.025
-208.450	-4.357	-0.125	-0.085
-207.436	800.000	0.110	0.333
-206.421	-43.100	0.037	0.018
-205.406	-28.329	-0.217	0.124
-204.392	-120.852	0.144	-0.024
-203.377	240.907	0.150	0.247
-202.363	800.000	0.081	0.340
-201.348	-36.050	0.174	0.093
-200.333	312.718	-0.127	-0.235
-199.319	800.000	-0.055	-0.219
-198.304	219.967	-0.097	0.153
-197.290	-116.640	0.129	-0.023
-196.275	364.661	0.183	-0.363
-195.260	68.548	0.330	-0.334
-194.246	72.964	0.129	0.133
-193.231	-200.000	0.032	0.140
-192.217	111.810	0.214	-0.255
-191.202	-200.000	0.002	-0.155
-190.187	231.554	-0.113	-0.183
-189.173	47.548	0.349	0.321
-188.158	311.163	0.086	-0.159
-187.144	-200.000	0.009	-0.282
-186.129	371.038	-0.107	-0.213
-185.114	101.455	0.115	0.132
-184.100	111.274	-0.087	-0.103
-183.085	800.000	0.077	0.273
-182.071	-14.695	-0.097	0.061
-181.056	800.000	-0.040	-0.159
-180.042	20.165	0.114	0.091
-179.027	800.000	-0.043	-0.154
-178.012	184.603	0.053	0.077
-176.998	-156.953	0.189	-0.011
-175.983	-200.000	0.031	0.406
-174.969	96.486	0.073	-0.083
-173.954	20.068	-0.228	0.182
-172.939	-138.950	0.327	-0.035
-171.925	-70.691	0.153	-0.057
-170.910	-144.082	0.015	0.001
-169.896	-45.711	-0.120	-0.059
-168.881	111.005	0.097	0.116
-167.866	-200.000	0.021	-0.212
-166.852	245.296	0.195	0.324
-165.837	279.931	0.056	-0.099
-164.823	-200.000	0.035	0.406
-163.808	-37.409	0.140	0.074
-162.793	165.312	-0.184	0.257
-161.779	173.072	-0.199	-0.283
-160.764	77.577	0.257	-0.270
-159.750	800.000	0.103	-0.302
-158.735	-149.693	0.283	0.022
-157.720	-38.128	0.241	-0.126
-156.706	800.000	0.059	0.225
-155.691	800.000	0.016	-0.046
-154.677	-135.157	-0.263	0.031
-153.662	-123.118	-0.027	-0.004
-152.647	12.464	0.235	0.179
-151.633	-185.436	0.124	0.002
-150.618	-200.000	0.038	-0.225
-149.604	-63.037	0.279	0.114
-148.589	421.763	0.092	0.195
-147.574	-14.144	0.079	0.050
-146.560	-57.293	-0.479	0.208
-145.545	-36.339	0.391	-0.208
-144.531	800.000	-0.085	0.240
-143.516	-84.185	-0.065	0.020
-142.502	800.000	-0.067	-0.204
-141.487	-4.845	0.070	0.048
-140.472	800.000	0.069	0.270
-139.458	-200.000	0.045	-0.274
-138.443	-200.000	0.038	-0.271
-137.429	412.155	0.076	0.159
-136.414	-101.165	-0.138	-0.033
-135.399	-79.879	-0.377	-0.125
-134.385	-80.538	-0.151	0.050
-133.370	-200.000	0.012	-0.153
-132.356	-129.991	-0.266	-0.036
-131.341	800.000	0.100	-0.331
-130.326	-138.815	-0.383	0.041
-129.312	689.436	0.109	-0.282
-128.297	10.068	0.269	-0.201
-127.283	-179.061	0.199	0.004
-126.268	-200.000	-0.029	0.177
-125.253	-148.818	0.267	0.021
-124.239	205.352	-0.098	-0.149
-123.224	-200.000	0.043	0.314
-122.210	15.498	0.073	0.057
-121.195	272.122	0.036	0.063
-120.180	572.635	-0.072	0.174
-119.166	347.198	0.033	-0.064
-118.151	162.591	-0.093	-0.129
-117.137	18.783	0.204	-0.161
-116.122	121.969	0.172	0.211
-115.107	270.121	0.170	-0.294
-114.093	800.000	-0.045	-0.136
-113.078	70.284	-0.167	0.170
-112.064	182.600	0.053	0.076
-111.049	-181.449	-0.280	-0.005
-110.034	105.321	0.063	0.074
-109.020	-200.000	0.017	0.130
-108.005	661.008	-0.053	0.134
-106.991	-200.000	-0.012	0.066
-105.976	-200.000	0.001	-0.109
-104.962	140.558	0.205	0.266
-103.947	-200.000	-0.009	-0.153
-102.932	-3.430	-0.323	-0.221
-101.918	33.761	-0.092	0.079
-100.903	-200.000	0.037	-0.164
-99.889	161.818	0.111	0.153
-98.874	13.446	-0.135	-0.103
-97.859	-80.945	0.215	-0.070
-96.845	-155.540	0.345	-0.022
-95.830	-57.738	0.205	-0.088
-94.816	-85.051	0.489	-0.151
-93.801	-200.000	-0.005	0.164
-92.786	74.393	-0.238	0.246
-91.772	-47.939	-0.200	-0.095
-90.757	23.870	-0.278	0.225
-89.743	131.964	-0.146	-0.185
-88.728	-42.295	0.150	-0.076
-87.713	-51.788	0.011	0.005
-86.699	-139.725	0.331	-0.035
-85.684	-200.000	-0.012	-0.133
-84.670	-64.578	-0.154	0.061
-83.655	-200.000	-0.025	-0.116
-82.640	-15.036	-0.124	-0.078
-81.626	-200.000	-0.029	-0.352
-80.611	462.213	-0.085	-0.188
-79.597	800.000	0.078	0.267
-78.582	800.000	-0.043	0.147
-77.567	80.258	0.141	-0.149
-76.553	698.197	0.044	0.113
-75.538	-13.590	0.267	-0.170
-74.524	800.000	-0.047	-0.145
-73.509	363.814	0.188	-0.372
-72.494	-200.000	-0.070	-0.349
-71.480	-200.000	-0.015	-0.099
-70.465	-20.661	-0.338	-0.204
-69.451	79.921	-0.178	-0.188
-68.436	-67.613	0.043	0.017
-67.422	-47.352	0.212	-0.102
-66.407	-61.825	-0.059	0.024
-65.392	22.781	0.237	-0.191
-64.378	-200.000	0.003	0.194
-63.363	-167.921	0.511	-0.020
-62.349	172.097	0.145	-0.205
-61.334	5.198	-0.835	-0.605
-60.319	27.047	0.333	0.275
-59.305	69.238	-0.785	-0.793
-58.290	55.512	0.884	0.841
-57.276	743.132	0.490	1.294
-56.261	-200.000	96.985	605.893
-55.246	644.668	1386.596	3476.300
-54.232	194.400	2578.567	3840.658
-53.217	113.204	2278.359	2714.966
-52.203	40.903	1901.662	1685.947
-51.188	34.579	1690.088	1450.444
-50.173	31.805	1646.134	1392.094
-49.159	50.246	1692.963	1570.838
-48.144	51.585	1709.156	1595.868
-47.130	34.150	1670.149	1429.881
-46.115	31.278	1656.171	1396.420
-45.100	31.188	1650.905	1391.254
-44.086	31.137	1648.170	1388.519
-43.071	31.170	1645.491	1386.450
-42.057	31.172	1643.183	1384.466
-41.042	31.153	1641.317	1382.701
-40.027	31.138	1639.618	1381.097
-39.013	31.003	1637.873	1378.577
-37.998	31.021	1636.396	1377.416
-36.984	31.120	1634.971	1376.890
-35.969	31.289	1633.064	1376.475
-34.954	31.348	1631.072	1375.177
-33.940	31.234	1629.880	1373.281
-32.925	31.222	1628.165	1371.686
-31.911	31.168	1626.449	1369.794
-30.896	31.251	1624.718	1368.890
-29.881	31.232	1623.338	1367.532
-28.867	31.175	1621.162	1365.228
-27.852	31.167	1619.793	1363.964
-26.838	31.197	1618.510	1363.050
-25.823	31.207	1617.134	1361.908
-24.809	31.243	1615.792	1360.989
-23.794	31.351	1614.080	1360.278
-22.779	31.199	1613.049	1358.245
-21.765	31.267	1611.097	1357.043
-20.750	31.225	1609.308	1355.175
-19.736	31.322	1608.352	1355.023
-18.721	31.300	1606.558	1353.300
-17.706	31.340	1604.998	1352.223
-16.692	31.276	1603.664	1350.577
-15.677	31.312	1602.108	1349.476
-14.663	31.338	1601.142	1348.795
-13.648	31.178	1600.235	1346.827
-12.633	31.319	1598.442	1346.277
-11.619	31.302	1596.793	1344.711
-10.604	31.208	1595.344	1342.764
-9.590	31.327	1593.928	1342.375
-8.575	31.321	1592.772	1341.304
-7.560	31.333	1591.117	1339.941
-6.546	31.254	1590.740	1339.008
-5.531	31.169	1589.825	1337.573
-4.517	31.231	1588.367	1336.736
-3.502	31.263	1586.630	1335.451
-2.487	31.321	1585.320	1334.710
-1.473	31.140	1574.651	1324.392
-0.458	29.026	1555.907	1293.730
0.556	25.064	1557.329	1265.477
1.571	22.989	1581.061	1269.756
2.586	22.605	1594.229	1277.435
3.600	20.212	1540.534	1217.520
4.615	12.500	1432.342	1081.389
5.629	6.029	1370.354	993.667
6.644	5.107	1362.838	982.329
7.659	5.026	1360.942	980.364
8.673	4.938	1360.178	979.173
9.688	4.980	1357.739	977.596
10.702	4.923	1354.850	975.073
11.717	7.968	1361.770	999.091
12.731	15.302	1375.234	1055.193
13.746	19.380	1380.643	1084.960
14.761	18.752	1378.096	1078.919
15.775	17.706	1375.369	1070.127
16.790	16.617	1373.096	1061.435
17.804	15.785	1370.219	1053.908
18.819	15.339	1369.645	1050.579
19.834	15.160	1368.068	1048.153
20.848	14.923	1366.605	1045.458
21.863	14.599	1365.402	1042.421
22.877	14.537	1363.987	1040.862
23.892	14.454	1363.504	1039.886
24.907	14.517	1362.258	1039.238
25.921	14.488	1361.484	1038.374
26.936	14.538	1360.976	1038.205
27.950	14.553	1359.968	1037.439
28.965	14.638	1358.784	1036.969
29.980	14.702	1357.573	1036.353
30.994	14.716	1356.758	1035.722
32.009	14.904	1355.232	1035.635
33.023	14.874	1354.095	1034.484
34.038	14.752	1353.074	1032.858
35.053	14.629	1351.802	1031.039
36.067	14.629	1350.660	1030.073
37.082	14.649	1349.254	1029.036
38.096	14.731	1348.854	1029.148
39.111	14.714	1348.143	1028.408
40.126	14.708	1346.446	1026.983
41.140	14.498	1346.217	1025.427
42.155	14.421	1345.263	1024.135
43.169	14.462	1345.217	1024.263
44.184	14.411	1345.184	1023.834
45.199	14.374	1344.587	1023.060
46.213	14.524	1343.996	1023.442
47.228	14.609	1343.274	1023.325
48.242	14.678	1342.224	1022.857
49.257	14.661	1340.309	1021.199
50.271	14.597	1338.867	1019.624
51.286	14.667	1337.710	1019.077
52.301	14.560	1336.471	1017.392
53.315	14.551	1335.327	1016.376
54.330	14.523	1334.106	1015.189
55.344	14.566	1333.095	1014.588
56.359	14.421	1332.418	1013.099
57.374	14.440	1331.508	1012.437
58.388	14.440	1330.520	1011.596
59.403	14.371	1330.216	1010.855
60.417	14.407	1329.083	1010.122
61.432	14.325	1328.601	1009.169
62.447	14.340	1327.307	1008.192
63.461	14.333	1325.905	1006.994
64.476	14.219	1325.040	1005.557
65.490	14.203	1324.098	1004.660
66.505	14.280	1322.640	1003.927
67.520	14.358	1321.058	1003.109
68.534	14.396	1320.687	1002.968
69.549	14.382	1319.286	1001.725
70.563	14.326	1318.619	1000.794
71.578	14.255	1317.449	999.392
72.593	14.171	1316.761	998.279
73.607	14.128	1315.858	997.249
74.622	14.229	1314.840	996.993
75.636	14.280	1313.972	996.551
76.651	14.283	1313.051	995.782
77.666	14.275	1313.328	995.856
78.680	14.277	1312.499	995.156
79.695	14.247	1312.116	994.593
80.709	14.394	1310.915	994.474
81.724	14.428	1310.673	994.409
82.739	14.449	1309.362	993.451
83.753	14.545	1308.632	993.382
84.768	14.530	1307.844	992.604
85.782	14.685	1306.090	992.105
86.797	14.689	1305.164	991.340
87.812	14.598	1304.183	989.966
88.826	14.547	1302.666	988.424
89.841	14.609	1302.218	988.366
90.855	14.583	1301.208	987.358
91.870	14.685	1300.068	987.005
92.884	14.644	1299.477	986.229
93.899	14.827	1298.388	986.393
94.914	14.796	1297.500	985.450
95.928	14.732	1297.095	984.676
96.943	14.747	1296.319	984.091
97.957	14.604	1295.327	982.407
98.972	14.617	1294.360	981.665
99.987	14.600	1293.156	980.564
101.001	14.662	1291.757	979.782
102.016	14.655	1291.125	979.173
103.030	14.706	1290.333	978.788
104.045	14.639	1289.474	977.655
105.060	14.645	1288.072	976.542
106.074	14.517	1286.712	974.675
107.089	14.373	1285.313	972.686
108.103	14.346	1284.284	971.664
109.118	14.416	1282.529	970.660
110.133	14.449	1281.341	969.865
111.147	14.368	1279.863	968.194
112.162	14.457	1278.462	967.561
113.176	14.362	1278.009	966.586
114.191	14.535	1276.733	966.538
115.206	14.441	1276.006	965.356
116.220	14.404	1274.531	963.940
117.235	14.530	1273.553	963.844
118.249	14.488	1272.600	962.793
119.264	14.484	1271.106	961.556
120.279	14.408	1270.366	960.473
121.293	14.370	1269.901	959.815
122.308	14.326	1268.519	958.435
123.322	14.392	1266.854	957.472
124.337	14.359	1266.259	956.745
125.352	14.392	1264.812	955.756
126.366	14.273	1264.098	954.451
127.381	14.365	1262.918	954.006
128.395	14.316	1262.011	952.954
129.410	14.347	1261.025	952.303
130.424	14.296	1260.406	951.460
131.439	14.463	1259.298	951.492
132.454	14.441	1257.953	950.268
133.468	14.378	1257.617	949.569
134.483	14.419	1256.879	949.159
135.497	14.493	1255.872	948.736
136.512	14.500	1254.365	947.555
137.527	14.534	1253.058	946.679
138.541	14.552	1251.898	945.818
139.556	14.628	1250.335	944.983
140.570	14.658	1249.832	944.692
141.585	14.692	1248.092	943.482
142.600	14.843	1246.891	943.343
143.614	14.767	1246.394	942.457
144.629	14.784	1245.230	941.590
145.643	14.781	1244.411	940.869
146.658	14.699	1243.035	939.283
147.673	14.649	1241.608	937.841
148.687	14.543	1240.624	936.422
149.702	14.471	1239.419	935.024
150.716	14.586	1238.129	934.612
151.731	14.607	1236.773	933.624
152.746	14.506	1236.095	932.466
153.760	14.578	1234.754	931.772
154.775	14.589	1233.725	930.974
155.789	14.702	1232.643	930.709
156.804	14.803	1231.566	930.376
157.819	14.761	1230.430	929.201
158.833	14.807	1229.634	928.774
159.848	14.933	1228.607	928.612
160.862	14.820	1227.373	926.974
161.877	14.729	1226.021	925.367
162.892	14.669	1225.412	924.492
163.906	14.626	1224.678	923.618
164.921	14.756	1223.297	923.211
165.935	14.720	1222.756	922.526
166.950	14.724	1222.146	922.003
167.964	14.730	1221.106	921.170
168.979	14.783	1220.569	920.978
169.994	14.917	1219.395	920.747
171.008	14.861	1218.825	919.928
172.023	14.894	1217.936	919.357
173.037	14.893	1217.458	918.910
174.052	14.925	1216.857	918.550
175.067	14.945	1215.142	917.284
176.081	14.772	1214.575	915.825
177.096	14.732	1214.034	915.117
178.110	14.795	1213.060	914.646
179.125	14.810	1211.437	913.424
180.140	14.818	1210.275	912.510
181.154	14.892	1209.189	912.015
182.169	14.800	1208.207	910.693
183.183	14.963	1206.613	910.299
184.198	15.001	1205.261	909.405
185.213	14.942	1204.628	908.524
186.227	15.003	1203.406	907.857
187.242	15.026	1202.770	907.419
188.256	15.305	1201.147	907.622
189.271	15.127	1200.897	906.390
190.286	14.962	1199.618	904.453
191.300	14.775	1198.792	902.740
192.315	14.803	1198.004	902.219
193.329	14.783	1197.227	901.448
194.344	14.779	1197.181	901.309
195.359	14.931	1196.121	901.254
196.373	15.036	1195.646	901.382
197.388	15.071	1195.050	901.042
198.402	15.167	1194.807	901.291
199.417	15.293	1193.753	901.094
200.432	15.328	1193.172	900.764
201.446	15.428	1192.351	900.604
202.461	15.386	1191.177	899.409
203.475	15.326	1190.814	898.738
204.490	15.285	1189.204	897.221
205.504	15.208	1187.913	895.759
206.519	15.169	1187.175	894.911
207.534	15.159	1185.809	893.751
208.548	15.172	1185.167	893.255
209.563	15.230	1184.134	892.710
210.577	15.329	1182.969	892.276
211.592	15.332	1182.226	891.654
212.607	15.447	1181.055	891.303
213.621	15.384	1180.595	890.541
214.636	15.358	1179.688	889.639
215.650	15.347	1178.827	888.856
216.665	15.443	1178.049	888.695
217.680	15.494	1177.101	888.174
218.694	15.542	1176.310	887.754
219.709	15.584	1175.265	887.105
220.723	15.452	1174.811	885.987
221.738	15.478	1174.334	885.686
222.753	15.631	1173.032	885.434
223.767	15.563	1172.656	884.716
224.782	15.637	1171.846	884.416
225.796	15.733	1171.211	884.360
226.811	15.656	1170.614	883.429
227.826	15.554	1169.656	882.092
228.840	15.591	1169.223	881.879
229.855	15.638	1168.267	881.327
230.869	15.605	1167.449	880.457
231.884	15.644	1166.353	879.761
232.899	15.531	1165.834	878.699
233.913	15.586	1164.911	878.211
234.928	15.575	1164.349	877.656
235.942	15.398	1163.606	876.095
236.957	15.439	1162.721	875.563
237.972	15.450	1162.390	875.295
238.986	15.483	1161.884	875.006
240.001	15.471	1160.973	874.180
241.015	15.618	1159.980	874.119
242.030	15.644	1159.225	873.607
243.045	15.689	1158.224	873.008
244.059	15.688	1157.718	872.547
245.074	15.794	1156.577	872.157
246.088	15.737	1156.170	871.482
247.103	15.785	1155.661	871.269
248.117	15.870	1154.932	871.081
249.132	16.034	1153.544	870.807
250.147	16.152	1153.250	871.116
251.161	16.119	1152.574	870.358
252.176	16.082	1152.071	869.711
253.190	16.106	1151.258	869.144
254.205	16.189	1150.988	869.289
255.220	16.153	1150.189	868.425
256.234	16.179	1149.636	868.065
257.249	16.270	1148.922	867.917
258.263	16.227	1148.049	866.959
259.278	16.226	1147.485	866.450
260.293	16.321	1146.884	866.405
261.307	16.298	1146.206	865.699
262.322	16.339	1145.741	865.484
263.336	16.311	1145.292	864.922
264.351	16.342	1144.095	864.104
265.366	16.391	1143.550	863.863
266.380	16.407	1142.815	863.315
267.395	16.519	1141.893	863.112
268.409	16.270	1141.525	861.485
269.424	16.241	1140.979	860.850
270.439	16.358	1139.811	860.492
271.453	16.279	1139.517	859.791
272.468	16.168	1138.821	858.625
273.482	16.316	1137.462	858.277
274.497	16.371	1137.045	858.165
275.512	16.343	1136.413	857.467
276.526	16.351	1135.733	856.920
277.541	16.303	1135.196	856.194
278.555	16.467	1133.969	856.025
279.570	16.514	1133.521	855.852
280.585	16.467	1133.256	855.336
281.599	16.486	1132.047	854.444
282.614	16.479	1130.530	853.185
283.628	16.532	1129.142	852.332
284.643	16.486	1128.621	851.633
285.657	16.456	1127.885	850.852
286.672	16.484	1126.968	850.225
287.687	16.510	1126.218	849.712
288.701	16.493	1125.605	849.089
289.716	16.554	1124.780	848.697
290.730	16.551	1123.926	847.965
291.745	16.589	1123.390	847.675
292.760	16.567	1122.577	846.878
293.774	16.706	1121.903	846.991
294.789	16.659	1121.591	846.444
295.803	16.704	1120.786	845.985
296.818	16.609	1120.558	845.262
297.833	16.549	1119.280	843.925
298.847	16.624	1118.512	843.647
299.862	16.655	1117.532	842.989
300.876	16.713	1117.101	842.873
301.891	16.700	1116.513	842.291
302.906	16.802	1115.919	842.275
303.920	16.871	1115.074	841.910
304.935	16.958	1114.328	841.700
305.949	16.954	1113.868	841.260
306.964	16.895	1113.211	840.397
307.979	16.907	1112.256	839.660
308.993	16.847	1111.443	838.677
310.008	16.913	1111.063	838.640
311.022	17.018	1110.295	838.507
312.037	16.900	1109.610	837.331
313.052	16.852	1108.599	836.256
314.066	16.906	1107.592	835.690
315.081	16.845	1106.180	834.249
316.095	16.778	1105.900	833.639
317.110	16.835	1105.222	833.332
318.125	16.861	1104.415	832.780
319.139	16.845	1103.937	832.267
320.154	16.802	1103.523	831.668
321.168	16.948	1102.556	831.581
322.183	16.908	1101.579	830.574
323.197	16.923	1101.501	830.517
324.212	16.874	1100.898	829.747
325.227	16.919	1100.396	829.515
326.241	17.003	1099.177	828.933
327.256	17.035	1098.605	828.586
328.270	17.050	1097.550	827.793
329.285	16.982	1097.073	827.027
330.300	16.987	1096.071	826.223
331.314	17.007	1095.101	825.513
332.329	16.906	1094.352	824.388
333.343	17.037	1092.943	823.889
334.358	17.069	1092.353	823.523
335.373	17.175	1091.870	823.603
336.387	17.183	1091.053	822.953
337.402	17.259	1090.175	822.587
338.416	17.235	1089.791	822.106
339.431	17.251	1089.164	821.639
340.446	17.298	1088.744	821.474
341.460	17.328	1087.664	820.732
342.475	17.460	1086.853	820.684
343.489	17.425	1086.362	820.072
344.504	17.499	1085.397	819.626
345.519	17.460	1084.508	818.698
346.533	17.405	1083.871	817.877
347.548	17.516	1083.278	817.891
348.562	17.571	1082.273	817.327
349.577	17.470	1081.412	816.118
350.592	17.346	1080.570	814.816
351.606	17.280	1080.064	814.045
352.621	17.215	1079.322	813.106
353.635	17.270	1078.568	812.726
354.650	17.428	1077.696	812.751
355.665	17.387	1077.039	811.988
356.679	17.385	1076.265	811.325
357.694	17.404	1076.187	811.283
358.708	17.480	1075.360	810.953
359.723	17.499	1074.573	810.376
360.738	17.560	1074.073	810.219
361.752	17.575	1073.320	809.649
362.767	17.566	1072.596	808.991
363.781	17.597	1072.138	808.721
364.796	17.571	1071.609	808.125
365.810	17.576	1071.209	807.777
366.825	17.730	1070.707	808.056
367.840	17.782	1070.065	807.747
368.854	17.889	1069.310	807.612
369.869	17.932	1068.748	807.317
370.883	17.830	1068.071	806.255
371.898	17.715	1067.285	805.045
372.913	17.824	1066.688	805.040
373.927	17.815	1066.045	804.439
374.942	17.873	1065.227	804.025
375.956	17.986	1064.886	804.229
376.971	17.898	1064.337	803.329
377.986	17.924	1063.885	803.039
379.000	17.971	1063.456	802.866
380.015	17.944	1063.049	802.359
381.029	18.135	1061.832	802.267
382.044	18.113	1061.352	801.729
383.059	18.039	1060.619	800.756
384.073	17.942	1060.220	799.932
385.088	18.128	1058.926	799.755
386.102	18.157	1057.982	799.106
387.117	18.166	1057.163	798.457
388.132	17.869	1056.579	796.560
389.146	17.969	1055.619	796.233
390.161	18.023	1054.743	795.753
391.175	18.009	1053.970	795.034
392.190	18.083	1053.418	794.892
393.205	18.217	1052.703	794.903
394.219	18.072	1052.038	793.661
395.234	18.020	1051.050	792.603
396.248	18.085	1050.018	792.056
397.263	18.145	1048.915	791.429
398.278	18.090	1048.448	790.752
399.292	18.084	1047.559	789.985
400.307	18.087	1046.557	789.176
401.321	18.075	1045.993	788.626
402.336	18.101	1045.632	788.403
403.350	18.100	1044.949	787.811
404.365	18.102	1044.538	787.443
405.380	18.125	1044.056	787.113
406.394	18.079	1043.353	786.304
407.409	18.158	1042.374	785.859
408.423	18.196	1042.079	785.744
409.438	18.389	1040.857	785.635
410.453	18.351	1040.165	784.870
411.467	18.441	1039.459	784.681
412.482	18.444	1038.861	784.175
413.496	18.554	1038.086	784.022
414.511	18.488	1037.588	783.277
415.526	18.581	1037.081	783.249
416.540	18.463	1037.068	782.628
417.555	18.640	1036.149	782.673
418.569	18.668	1035.489	782.233
419.584	18.637	1035.077	781.713
420.599	18.532	1034.860	781.002
421.613	149.882	1401.199	1793.233
422.628	136.860	1454.585	1793.325
