DTS Sentinel unit serial number:	SN413079Multiplexer serial number:	ORYXHardware model number:	OX4-SRSoftware version number:	ORYX F/W v4.00 Oryx Data Collector v3.7.2.0data status	okinstallation	princeton_trtdifferential loss correction	single-endedforward channel	channel 2reverse channel	N/Adate	2019/09/11time	19:09:11forward acquisition time	60.00reverse acquisition time	0.00gamma	496.2192k internal	0.2298k external	0.2298temperature offset calibration	1.0041default loss term (dB/km)	0.3790temperature slope calibration	1.0000multiplexer offset coefficient	1.0000multiplexer slope coefficient	1.0000fibre end	0.00T internal ref (°C)	41.75T ext. ref 1 (°C)	1.30T ext. ref 2 (°C)	33.94length (m)	temperature (°C)	Stokes	anti-Stokes-747.200	-42.286	-0.260	-0.136
-746.185	224.886	0.144	0.238
-745.171	-200.000	0.041	-0.317
-744.156	283.352	0.099	0.182
-743.142	221.583	0.075	-0.122
-742.127	262.463	-0.082	0.145
-741.112	-98.336	-0.242	0.063
-740.098	291.561	-0.207	0.384
-739.083	-110.220	-0.213	-0.045
-738.069	-200.000	0.005	0.530
-737.054	-75.569	0.094	0.034
-736.039	-68.042	-0.173	0.069
-735.025	-105.272	0.087	0.020
-734.010	800.000	0.032	-0.109
-732.996	-98.752	-0.424	0.110
-731.981	-0.656	0.079	0.057
-730.966	-44.159	-0.229	-0.117
-729.952	-140.304	-0.444	0.047
-728.937	-200.000	-0.006	0.026
-727.923	-200.000	-0.023	-0.176
-726.908	-77.662	-0.415	-0.146
-725.894	11.291	0.098	0.077
-724.879	-140.600	-0.312	0.033
-723.864	-152.128	-0.223	-0.017
-722.850	355.655	0.116	0.235
-721.835	15.844	0.161	0.129
-720.821	98.352	-0.034	-0.040
-719.806	68.639	-0.116	0.122
-718.791	-21.194	0.068	-0.042
-717.777	-8.359	0.172	0.118
-716.762	800.000	-0.036	0.136
-715.748	119.349	-0.228	-0.288
-714.733	-115.181	-0.085	0.016
-713.718	57.338	0.221	0.220
-712.704	-72.270	-0.118	-0.044
-711.689	-200.000	0.000	0.144
-710.675	199.869	-0.214	-0.335
-709.660	-114.370	-0.031	0.006
-708.645	-59.275	0.257	0.113
-707.631	-200.000	0.003	0.135
-706.616	-135.147	-0.318	0.039
-705.602	460.671	0.131	-0.298
-704.587	-26.918	-0.223	-0.133
-703.572	264.686	0.169	-0.300
-702.558	800.000	0.030	-0.096
-701.543	-147.413	-0.213	0.018
-700.529	-134.129	-0.070	0.009
-699.514	-89.008	-0.127	-0.038
-698.499	277.487	0.216	-0.391
-697.485	-2.016	-0.104	0.075
-696.470	-119.576	0.197	-0.035
-695.456	-15.923	-0.346	-0.224
-694.441	800.000	-0.122	0.348
-693.426	-116.776	0.294	-0.055
-692.412	31.176	0.086	0.075
-691.397	708.778	-0.079	-0.213
-690.383	-200.000	-0.000	-0.075
-689.368	27.112	-0.199	-0.170
-688.354	800.000	0.007	-0.021
-687.339	31.308	0.299	-0.262
-686.324	80.838	-0.094	-0.103
-685.310	180.879	-0.102	-0.152
-684.295	-151.310	-0.027	-0.002
-683.281	558.882	-0.081	-0.200
-682.266	-200.000	-0.069	-0.376
-681.251	-200.000	0.001	-0.088
-680.237	-200.000	-0.029	-0.431
-679.222	800.000	-0.051	-0.219
-678.208	-123.503	0.038	0.006
-677.193	168.775	-0.123	0.179
-676.178	-103.459	-0.090	-0.022
-675.164	800.000	0.046	0.184
-674.149	-38.351	-0.145	-0.078
-673.135	800.000	0.032	-0.131
-672.120	212.136	-0.121	0.194
-671.105	800.000	-0.032	0.115
-670.091	-78.357	-0.307	0.107
-669.076	-166.533	-0.411	0.017
-668.062	-95.710	-0.101	0.027
-667.047	72.952	0.162	0.172
-666.032	-62.030	-0.262	-0.111
-665.018	-200.000	0.013	0.184
-664.003	0.088	-0.118	0.086
-662.989	260.914	0.075	0.131
-661.974	99.851	-0.061	-0.072
-660.959	-4.527	-0.229	0.161
-659.945	-200.000	-0.001	0.121
-658.930	-146.102	-0.079	0.007
-657.916	-110.627	-0.212	0.045
-656.901	-200.000	-0.022	0.321
-655.886	-131.031	-0.155	0.021
-654.872	538.419	-0.048	-0.117
-653.857	319.725	0.040	-0.078
-652.843	53.197	0.207	0.201
-651.828	-78.714	-0.294	-0.102
-650.814	800.000	0.145	0.414
-649.799	604.659	0.033	0.084
-648.784	105.196	-0.249	0.300
-647.770	-0.933	-0.036	-0.026
-646.755	92.699	-0.022	-0.025
-645.741	311.982	0.166	0.316
-644.726	357.761	0.140	0.284
-643.711	-102.322	0.231	0.056
-642.697	48.028	0.388	0.368
-641.682	-87.510	-0.192	-0.059
-640.668	200.887	-0.098	-0.153
-639.653	112.742	0.098	-0.121
-638.638	-5.393	-0.373	-0.260
-637.624	-200.000	-0.029	-0.149
-636.609	466.418	0.078	-0.178
-635.595	508.822	0.132	-0.312
-634.580	207.196	-0.065	-0.103
-633.565	116.753	-0.127	0.158
-632.551	-84.250	-0.111	-0.036
-631.536	66.261	-0.201	0.208
-630.522	-137.935	-0.221	-0.025
-629.507	-19.215	0.253	0.160
-628.492	-36.310	-0.339	0.186
-627.478	556.232	0.050	0.124
-626.463	388.683	-0.167	-0.351
-625.449	-127.953	-0.419	-0.061
-624.434	218.585	-0.091	-0.148
-623.419	450.880	0.030	-0.067
-622.405	-139.330	-0.335	-0.037
-621.390	-200.000	-0.044	0.205
-620.376	28.256	-0.165	0.141
-619.361	-200.000	0.007	-0.054
-618.346	-34.334	-0.148	0.082
-617.332	271.251	0.240	0.429
-616.317	-22.924	-0.194	-0.119
-615.303	-200.000	-0.023	0.317
-614.288	-82.894	0.194	0.064
-613.273	607.872	-0.052	0.131
-612.259	800.000	-0.036	0.134
-611.244	-200.000	-0.014	0.286
-610.230	61.811	0.170	0.172
-609.215	-36.620	-0.244	-0.133
-608.201	-59.027	-0.144	0.063
-607.186	-118.569	-0.114	-0.020
-606.171	511.921	0.119	-0.281
-605.157	88.703	-0.062	-0.070
-604.142	26.761	0.022	0.018
-603.128	800.000	0.064	0.234
-602.113	268.407	-0.171	-0.304
-601.098	-163.833	-0.112	-0.005
-600.084	-59.794	0.364	0.158
-599.069	-112.320	0.167	-0.034
-598.055	-200.000	0.003	0.112
-597.040	800.000	-0.097	-0.418
-596.025	-100.042	-0.164	0.041
-595.011	-200.000	-0.007	0.190
-593.996	-98.412	0.089	-0.023
-592.982	800.000	0.044	0.129
-591.967	-170.669	-0.231	0.008
-590.952	-26.789	0.272	0.161
-589.938	138.866	-0.235	0.313
-588.923	401.474	-0.085	-0.181
-587.909	28.777	0.163	-0.140
-586.894	-128.942	-0.137	-0.020
-585.879	-200.000	-0.037	-0.272
-584.865	-90.199	-0.336	-0.099
-583.850	89.916	0.162	-0.184
-582.836	-121.991	-0.261	-0.044
-581.821	-75.079	-0.462	0.168
-580.806	-25.227	-0.119	0.071
-579.792	-22.543	0.214	-0.131
-578.777	-135.597	0.123	0.015
-577.763	249.010	0.179	0.308
-576.748	90.164	-0.165	-0.187
-575.733	-29.777	0.150	0.087
-574.719	-12.330	-0.294	0.195
-573.704	137.435	0.207	-0.275
-572.690	83.517	-0.136	-0.150
-571.675	-32.704	-0.220	0.124
-570.661	-43.568	0.390	0.199
-569.646	403.067	0.035	-0.074
-568.631	607.568	-0.050	0.127
-567.617	7.922	0.064	-0.049
-566.602	65.846	-0.164	0.169
-565.588	-24.802	-0.268	-0.162
-564.573	-139.146	-0.129	0.014
-563.558	800.000	-0.028	-0.099
-562.544	581.572	-0.012	-0.029
-561.529	800.000	0.157	0.588
-560.515	-46.400	-0.040	0.020
-559.500	-31.765	-0.072	-0.041
-558.485	-128.080	-0.457	-0.066
-557.471	229.129	-0.114	-0.189
-556.456	-36.142	-0.113	-0.062
-555.442	2.532	-0.329	-0.242
-554.427	-200.000	-0.014	-0.325
-553.412	31.733	0.156	0.136
-552.398	-89.548	-0.210	0.062
-551.383	-72.265	0.158	0.059
-550.369	105.877	-0.283	0.339
-549.354	245.591	0.088	-0.150
-548.339	189.020	-0.121	0.184
-547.325	135.278	0.137	-0.181
-546.310	-200.000	-0.049	-0.423
-545.296	241.077	0.276	-0.466
-544.281	800.000	-0.079	-0.249
-543.266	-52.728	0.235	-0.110
-542.252	-200.000	-0.033	-0.407
-541.237	-200.000	-0.016	0.362
-540.223	57.882	0.143	-0.141
-539.208	800.000	0.041	-0.148
-538.193	224.865	-0.089	0.146
-537.179	-120.582	0.047	0.008
-536.164	800.000	0.024	0.079
-535.150	51.548	0.071	0.068
-534.135	128.005	-0.255	0.328
-533.121	117.845	0.263	0.327
-532.106	-200.000	-0.004	0.166
-531.091	-121.949	-0.121	0.020
-530.077	8.645	0.108	-0.082
-529.062	395.387	0.159	-0.335
-528.048	86.297	-0.195	-0.217
-527.033	9.641	-0.042	0.033
-526.018	492.270	0.036	0.082
-525.004	-200.000	0.173	-0.000
-523.989	-50.030	0.167	-0.080
-522.975	-135.416	-0.191	0.023
-521.960	-17.973	-0.181	-0.115
-520.945	36.978	0.275	-0.246
-519.931	800.000	-0.031	0.109
-518.916	299.720	0.103	0.193
-517.902	211.868	0.166	0.264
-516.887	-76.952	-0.092	-0.033
-515.872	-119.255	0.305	-0.054
-514.858	-200.000	0.039	-0.203
-513.843	-70.856	-0.336	-0.128
-512.829	-99.043	0.132	-0.034
-511.814	-115.667	-0.103	-0.020
-510.799	-114.442	0.393	-0.076
-509.785	-113.600	0.357	0.071
-508.770	46.789	0.361	0.340
-507.756	44.516	0.190	-0.177
-506.741	-200.000	0.045	-0.283
-505.726	733.029	-0.112	-0.304
-504.712	-80.077	0.141	-0.048
-503.697	-70.365	-0.270	-0.103
-502.683	55.459	-0.235	0.230
-501.668	-110.906	-0.127	-0.026
-500.653	246.729	0.099	-0.168
-499.639	222.984	0.018	0.029
-498.624	-200.000	-0.014	0.324
-497.610	-200.000	0.010	0.153
-496.595	-200.000	0.001	0.166
-495.581	-200.000	0.031	0.178
-494.566	-200.000	-0.110	-0.491
-493.551	-15.054	0.198	-0.129
-492.537	3.319	0.134	0.099
-491.522	-93.374	0.175	-0.049
-490.508	-200.000	0.380	0.001
-489.493	242.060	0.143	-0.242
-488.478	-158.985	0.084	-0.005
-487.464	800.000	-0.152	-0.613
-486.449	800.000	0.065	-0.286
-485.435	-200.000	-0.058	-0.520
-484.420	685.183	0.185	-0.487
-483.405	-111.203	-0.059	0.012
-482.391	-71.220	-0.169	-0.064
-481.376	122.516	-0.076	0.096
-480.362	21.761	-0.163	-0.134
-479.347	325.554	-0.144	-0.278
-478.332	-11.152	0.180	-0.120
-477.318	-66.880	0.033	0.013
-476.303	-91.941	0.158	-0.045
-475.289	-165.242	-0.114	0.005
-474.274	1.795	0.131	-0.095
-473.259	-133.850	-0.290	0.036
-472.245	-143.792	0.108	0.010
-471.230	45.766	-0.111	-0.104
-470.216	63.543	0.143	0.145
-469.201	104.788	-0.221	-0.263
-468.186	-200.000	0.041	-0.483
-467.172	31.892	0.131	0.114
-466.157	-200.000	0.034	0.343
-465.143	434.701	0.070	-0.154
-464.128	198.270	-0.090	-0.139
-463.113	800.000	-0.022	0.065
-462.099	161.167	0.030	-0.043
-461.084	162.342	0.079	0.112
-460.070	207.346	-0.257	0.404
-459.055	155.869	0.298	-0.414
-458.040	-200.000	-0.010	0.087
-457.026	583.148	-0.057	-0.142
-456.011	577.171	-0.046	-0.114
-454.997	-49.296	0.438	0.211
-453.982	23.827	0.154	-0.128
-452.968	-1.136	0.118	0.084
-451.953	800.000	-0.051	0.144
-450.938	444.950	0.163	-0.361
-449.924	800.000	-0.019	-0.054
-448.909	57.021	-0.189	-0.186
-447.895	707.712	-0.120	0.321
-446.880	-31.692	0.221	-0.125
-445.865	63.307	0.155	0.157
-444.851	-200.000	-0.019	0.207
-443.836	-134.683	-0.090	-0.011
-442.822	-46.142	0.109	-0.054
-441.807	800.000	0.054	0.181
-440.792	-200.000	-0.068	-0.439
-439.778	-129.523	-0.273	0.038
-438.763	-148.986	-0.307	0.025
-437.749	13.424	-0.455	-0.356
-436.734	270.705	0.127	0.225
-435.719	509.221	-0.030	-0.070
-434.705	-200.000	0.022	0.217
-433.690	-0.116	-0.113	0.081
-432.676	190.057	-0.162	-0.245
-431.661	-64.760	-0.137	-0.056
-430.646	81.073	-0.255	-0.277
-429.632	-200.000	0.011	0.111
-428.617	55.398	-0.181	-0.177
-427.603	-126.683	0.393	0.059
-426.588	-122.680	-0.064	-0.010
-425.573	50.945	0.114	-0.109
-424.559	-162.751	0.324	-0.016
-423.544	31.920	-0.062	-0.054
-422.530	-200.000	0.009	-0.080
-421.515	-107.551	0.086	0.019
-420.500	-40.630	-0.307	-0.161
-419.486	-86.259	-0.279	-0.087
-418.471	-200.000	0.011	0.172
-417.457	-200.000	0.061	0.339
-416.442	-0.739	0.274	-0.196
-415.428	-200.000	-0.029	-0.302
-414.413	-99.818	0.186	-0.047
-413.398	-104.174	0.151	-0.035
-412.384	217.807	0.055	0.088
-411.369	59.605	-0.183	0.182
-410.355	392.256	0.050	-0.105
-409.340	122.238	-0.300	-0.378
-408.325	-112.749	-0.088	0.018
-407.311	-7.258	0.024	0.016
-406.296	12.943	-0.223	-0.173
-405.282	79.063	0.142	-0.154
-404.267	-200.000	-0.052	-0.251
-403.252	115.030	0.117	-0.144
-402.238	-173.671	0.356	0.011
-401.223	134.239	-0.088	-0.115
-400.209	-200.000	0.414	0.002
-399.194	351.595	0.175	-0.349
-398.179	800.000	-0.003	0.014
-397.165	287.055	0.068	0.123
-396.150	800.000	-0.028	0.111
-395.136	-200.000	-0.013	-0.267
-394.121	73.358	0.099	0.104
-393.106	-200.000	0.021	-0.161
-392.092	-38.285	-0.104	0.055
-391.077	-200.000	0.010	-0.198
-390.063	-78.016	-0.128	0.044
-389.048	127.095	-0.057	-0.073
-388.033	50.483	-0.341	0.324
-387.019	800.000	0.052	0.144
-386.004	-78.285	0.403	-0.139
-384.990	-35.829	0.240	0.131
-383.975	-60.463	-0.114	0.049
-382.960	-200.000	-0.012	0.230
-381.946	-26.763	0.241	-0.142
-380.931	46.984	-0.229	-0.214
-379.917	108.883	0.132	-0.159
-378.902	74.832	0.157	0.167
-377.888	-108.065	-0.202	-0.044
-376.873	-200.000	0.009	0.051
-375.858	321.053	-0.058	-0.112
-374.844	660.299	0.097	-0.251
-373.829	-200.000	0.044	-0.297
-372.815	-62.163	-0.189	-0.079
-371.800	-58.670	-0.197	-0.086
-370.785	-26.469	0.331	0.195
-369.771	-154.705	-0.107	0.007
-368.756	-73.311	-0.228	-0.084
-367.742	26.349	0.148	-0.124
-366.727	-91.816	0.072	0.021
-365.712	-200.000	0.025	-0.274
-364.698	800.000	0.074	0.213
-363.683	101.254	-0.171	0.200
-362.669	53.573	0.055	0.053
-361.654	-200.000	-0.010	-0.074
-360.639	-89.653	0.111	-0.033
-359.625	-101.142	-0.362	0.089
-358.610	-200.000	0.003	0.142
-357.596	127.684	-0.095	-0.121
-356.581	-86.703	-0.221	0.068
-355.566	-94.085	0.210	-0.058
-354.552	23.701	-0.114	-0.094
-353.537	-85.844	0.042	0.013
-352.523	-87.510	0.187	0.057
-351.508	-41.963	0.134	0.069
-350.493	247.743	-0.065	0.110
-349.479	178.292	0.074	-0.108
-348.464	133.681	0.130	0.169
-347.450	-200.000	0.020	-0.155
-346.435	216.106	-0.090	0.144
-345.420	-4.637	0.173	0.120
-344.406	53.988	0.076	-0.073
-343.391	9.646	0.027	0.021
-342.377	-66.878	-0.214	0.085
-341.362	-39.704	-0.136	0.072
-340.348	544.471	-0.075	-0.179
-339.333	-200.000	-0.005	0.276
-338.318	-139.452	0.073	-0.008
-337.304	-200.000	0.016	0.248
-336.289	-200.000	-0.021	-0.236
-335.275	370.864	0.164	-0.335
-334.260	-200.000	-0.056	-0.328
-333.245	800.000	-0.092	0.388
-332.231	-20.240	0.292	-0.181
-331.216	-200.000	0.011	0.112
-330.202	-54.128	-0.087	-0.040
-329.187	641.840	-0.073	0.186
-328.172	163.402	-0.096	-0.135
-327.158	31.498	0.173	-0.149
-326.143	-200.000	0.056	0.266
-325.129	185.823	-0.241	0.359
-324.114	-62.042	-0.211	0.088
-323.099	8.246	0.073	0.055
-322.085	-85.022	-0.107	-0.034
-321.070	47.153	0.099	-0.092
-320.056	-200.000	0.021	0.208
-319.041	-115.995	-0.158	-0.029
-318.026	-196.205	0.156	-0.001
-317.012	-18.243	0.299	0.187
-315.997	-200.000	-0.071	-0.315
-314.983	471.788	-0.069	0.156
-313.968	26.481	-0.317	0.266
-312.953	118.669	-0.113	0.140
-311.939	-179.156	-0.243	0.005
-310.924	118.724	0.218	0.270
-309.910	-200.000	-0.009	0.279
-308.895	800.000	0.095	0.331
-307.880	-6.978	-0.270	0.184
-306.866	800.000	-0.058	-0.196
-305.851	-97.244	0.338	-0.088
-304.837	164.486	0.246	0.348
-303.822	185.527	0.117	0.174
-302.807	-63.308	0.260	0.108
-301.793	800.000	0.061	0.183
-300.778	28.214	-0.169	0.143
-299.764	-87.702	0.044	0.013
-298.749	18.210	-0.164	-0.131
-297.735	-34.269	0.220	-0.121
-296.720	-28.758	0.160	-0.092
-295.705	681.428	0.130	0.341
-294.691	-107.871	0.097	0.021
-293.676	-41.990	-0.136	0.070
-292.662	-136.797	-0.090	-0.010
-291.647	-33.809	-0.034	0.019
-290.632	260.011	-0.083	0.144
-289.618	800.000	-0.078	0.223
-288.603	-63.665	-0.359	0.147
-287.589	-200.000	-0.050	-0.263
-286.574	-21.467	-0.264	-0.162
-285.559	239.883	-0.149	0.249
-284.545	-145.989	0.108	-0.010
-283.530	-91.459	-0.022	-0.006
-282.516	99.145	0.086	0.100
-281.501	800.000	-0.058	-0.169
-280.486	800.000	-0.041	0.139
-279.472	-200.000	0.026	0.137
-278.457	-200.000	0.179	0.000
-277.443	-68.601	-0.134	-0.052
-276.428	27.203	0.236	0.199
-275.413	-84.854	-0.236	0.074
-274.399	10.761	0.191	-0.146
-273.384	109.867	0.174	-0.210
-272.370	69.812	0.100	-0.103
-271.355	-200.000	0.025	0.353
-270.340	-52.689	-0.286	0.132
-269.326	594.668	-0.002	0.005
-268.311	-115.985	0.267	-0.050
-267.297	65.221	0.215	-0.218
-266.282	-91.325	0.015	0.004
-265.267	-200.000	-0.003	-0.166
-264.253	32.345	-0.307	-0.266
-263.238	38.378	0.154	0.138
-262.224	-200.000	0.011	0.107
-261.209	106.461	0.273	0.324
-260.195	321.453	0.092	0.174
-259.180	-106.264	-0.154	0.035
-258.165	172.775	-0.175	-0.252
-257.151	-93.831	-0.104	0.029
-256.136	146.704	-0.187	0.251
-255.122	-115.993	-0.346	0.065
-254.107	-200.000	0.011	0.071
-253.092	-14.533	-0.220	-0.142
-252.078	322.511	0.070	0.133
-251.063	-46.649	-0.095	0.047
-250.049	21.149	-0.149	0.121
-249.034	570.942	0.181	0.440
-248.019	13.777	-0.048	-0.037
-247.005	-195.193	-0.242	-0.002
-245.990	-200.000	0.094	-0.437
-244.976	247.035	-0.054	-0.091
-243.961	-61.945	0.103	0.043
-242.946	141.260	0.013	0.018
-241.932	-72.211	0.080	0.030
-240.917	800.000	0.030	-0.084
-239.903	21.352	0.309	0.251
-238.888	28.702	0.189	0.160
-237.873	94.100	0.228	0.258
-236.859	-200.000	0.032	0.214
-235.844	47.768	0.016	0.015
-234.830	800.000	0.049	-0.159
-233.815	-200.000	-0.022	0.157
-232.800	114.338	-0.218	0.266
-231.786	-11.041	-0.119	0.078
-230.771	-85.720	0.239	-0.074
-229.757	-50.141	-0.076	-0.036
-228.742	-61.539	0.234	0.098
-227.727	-33.198	-0.235	0.130
-226.713	-138.862	0.116	-0.013
-225.698	-53.168	0.257	-0.118
-224.684	-15.400	0.200	0.128
-223.669	192.453	-0.137	-0.207
-222.655	-62.986	0.086	-0.035
-221.640	-56.194	0.160	-0.071
-220.625	-117.176	0.374	0.068
-219.611	800.000	0.125	0.394
-218.596	11.730	-0.239	0.183
-217.582	-200.000	0.039	0.411
-216.567	800.000	0.054	0.167
-215.552	-132.114	0.221	0.029
-214.538	-162.979	0.088	0.004
-213.523	-200.000	-0.022	-0.125
-212.509	-26.787	-0.160	-0.093
-211.494	-88.458	-0.184	0.055
-210.479	-163.208	0.239	-0.011
-209.465	-72.553	0.116	-0.043
-208.450	206.074	0.062	-0.096
-207.436	-200.000	0.047	-0.213
-206.421	56.269	-0.157	0.153
-205.406	286.813	0.080	0.144
-204.392	-71.612	0.335	-0.125
-203.377	67.913	0.217	-0.222
-202.363	-48.102	-0.240	-0.116
-201.348	397.880	0.087	-0.182
-200.333	330.370	-0.107	-0.205
-199.319	-138.695	0.306	-0.033
-198.304	529.585	-0.134	-0.317
-197.290	174.211	0.115	0.166
-196.275	-200.000	-0.073	0.420
-195.260	59.713	0.044	0.043
-194.246	88.067	-0.135	0.149
-193.231	143.421	0.076	0.101
-192.217	167.995	-0.127	-0.180
-191.202	67.614	0.207	-0.211
-190.187	76.076	-0.224	-0.236
-189.173	-200.000	-0.016	-0.125
-188.158	162.875	0.187	0.263
-187.144	-132.903	-0.118	0.015
-186.129	-155.809	0.046	0.003
-185.114	-200.000	0.017	0.265
-184.100	-6.251	-0.129	-0.088
-183.085	-32.159	-0.136	0.076
-182.071	-38.700	-0.066	0.035
-181.056	-80.554	0.390	-0.130
-180.042	121.076	0.092	0.114
-179.027	-200.000	0.015	0.249
-178.012	22.990	0.189	-0.154
-176.998	-106.718	-0.245	0.054
-175.983	-200.000	-0.027	0.310
-174.969	380.929	0.092	-0.188
-173.954	-100.745	-0.448	0.110
-172.939	-200.000	-0.056	0.485
-171.925	291.278	0.062	0.113
-170.910	-10.533	0.160	0.106
-169.896	91.038	-0.142	0.159
-168.881	85.287	-0.264	0.289
-167.866	116.377	0.066	-0.081
-166.852	-29.479	0.348	0.198
-165.837	577.146	-0.035	0.086
-164.823	-200.000	-0.043	-0.193
-163.808	76.952	0.146	-0.155
-162.793	146.041	-0.029	-0.039
-161.779	-78.622	-0.355	-0.121
-160.764	566.849	0.080	-0.193
-159.750	-63.614	0.202	0.083
-158.735	-38.805	0.331	-0.174
-157.720	-73.580	0.185	0.067
-156.706	-6.740	-0.211	-0.143
-155.691	-10.870	0.053	0.035
-154.677	-200.000	-0.008	-0.037
-153.662	571.850	-0.092	-0.223
-152.647	64.286	-0.180	-0.180
-151.633	-87.079	-0.325	-0.099
-150.618	-14.578	-0.157	0.101
-149.604	-200.000	-0.047	0.292
-148.589	-200.000	0.028	0.153
-147.574	-47.383	-0.094	-0.045
-146.560	42.217	0.175	0.159
-145.545	-173.314	0.222	-0.007
-144.531	-200.000	0.052	0.307
-143.516	280.980	0.200	0.356
-142.502	-114.825	0.167	-0.032
-141.487	72.043	0.038	-0.040
-140.472	-200.000	0.011	-0.474
-139.458	-200.000	0.010	0.265
-138.443	800.000	0.043	-0.186
-137.429	-139.539	0.202	-0.022
-136.414	23.259	0.278	-0.228
-135.399	800.000	-0.098	-0.298
-134.385	45.068	0.085	-0.078
-133.370	232.108	0.008	0.013
-132.356	-200.000	0.039	0.259
-131.341	139.699	-0.047	-0.062
-130.326	-12.056	-0.098	0.064
-129.312	-29.607	0.100	0.057
-128.297	8.573	-0.246	0.185
-127.283	800.000	0.058	-0.211
-126.268	692.509	-0.065	-0.169
-125.253	-200.000	-0.045	0.276
-124.239	75.481	-0.182	0.192
-123.224	120.037	0.308	-0.381
-122.210	-69.882	0.093	-0.035
-121.195	-82.709	0.341	0.110
-120.180	284.651	0.068	0.122
-119.166	-99.183	-0.105	0.026
-118.151	69.385	0.309	-0.317
-117.137	173.564	0.146	0.209
-116.122	214.169	0.140	0.221
-115.107	158.054	0.041	0.057
-114.093	800.000	0.088	0.305
-113.078	-25.442	0.272	-0.160
-112.064	-43.449	0.101	-0.051
-111.049	-177.301	-0.213	-0.005
-110.034	800.000	-0.089	0.272
-109.020	-88.571	-0.075	-0.022
-108.005	167.852	-0.077	0.109
-106.991	-18.283	0.026	-0.016
-105.976	725.384	-0.044	0.116
-104.962	-200.000	-0.013	0.101
-103.947	-73.600	-0.494	-0.179
-102.932	526.803	-0.097	0.227
-101.918	51.023	0.265	-0.250
-100.903	-61.907	0.312	0.130
-99.889	107.055	0.211	0.250
-98.874	-111.880	0.199	-0.040
-97.859	101.960	-0.133	0.154
-96.845	67.011	0.075	0.076
-95.830	-83.145	-0.304	0.097
-94.816	64.141	0.114	0.114
-93.801	398.197	-0.138	-0.288
-92.786	-66.105	0.235	0.093
-91.772	-100.564	-0.222	-0.055
-90.757	99.174	-0.037	-0.042
-89.743	-36.873	-0.162	-0.087
-88.728	-200.000	-0.051	0.224
-87.713	-109.612	0.072	-0.015
-86.699	286.270	-0.084	-0.150
-85.684	10.707	0.349	0.265
-84.670	-111.254	-0.082	-0.017
-83.655	-164.773	-0.251	-0.011
-82.640	325.773	-0.057	-0.109
-81.626	233.814	-0.079	0.129
-80.611	800.000	0.063	0.213
-79.597	30.435	0.275	0.234
-78.582	800.000	0.069	0.222
-77.567	-43.059	-0.242	0.122
-76.553	157.885	-0.174	-0.240
-75.538	181.232	0.085	0.125
-74.524	-59.781	-0.189	-0.080
-73.509	-174.041	-0.082	0.002
-72.494	800.000	0.086	0.259
-71.480	800.000	0.126	0.383
-70.465	25.491	-0.086	-0.071
-69.451	699.875	0.081	0.213
-68.436	-45.171	-0.226	0.112
-67.422	-44.813	0.262	0.130
-66.407	-61.074	0.352	-0.148
-65.392	214.630	0.196	-0.308
-64.378	-200.000	-0.019	-0.217
-63.363	-136.726	0.352	0.040
-62.349	-127.982	-0.162	-0.023
-61.334	135.802	-0.626	-0.810
-60.319	-200.000	-0.067	0.585
-59.305	-200.000	-0.022	-0.675
-58.290	271.351	0.559	0.978
-57.276	539.230	0.682	1.611
-56.261	-200.000	77.149	519.092
-55.246	544.879	1317.830	3128.067
-54.232	148.155	2548.176	3416.292
-53.217	113.304	2332.341	2811.710
-52.203	51.141	1953.009	1840.647
-51.188	44.960	1745.735	1597.042
-50.173	42.125	1701.103	1534.469
-49.159	56.995	1734.635	1679.602
-48.144	62.819	1752.744	1741.870
-47.130	45.022	1717.278	1571.230
-46.115	41.870	1703.521	1534.455
-45.100	41.764	1698.368	1528.939
-44.086	41.645	1696.079	1525.912
-43.071	41.676	1693.234	1523.521
-42.057	41.553	1690.889	1520.414
-41.042	41.617	1688.622	1518.803
-40.027	41.579	1687.151	1517.133
-39.013	41.664	1684.768	1515.573
-37.998	41.601	1683.243	1513.667
-36.984	41.676	1682.223	1513.256
-35.969	41.741	1680.364	1512.020
-34.954	41.664	1678.862	1510.022
-33.940	41.840	1676.757	1509.401
-32.925	41.718	1674.880	1506.730
-31.911	41.682	1673.425	1505.088
-30.896	41.777	1671.501	1504.015
-29.881	41.755	1669.398	1501.900
-28.867	41.789	1667.706	1500.569
-27.852	41.695	1666.741	1498.934
-26.838	41.662	1665.830	1497.808
-25.823	41.758	1663.494	1496.372
-24.809	41.797	1661.965	1495.225
-23.794	41.865	1660.244	1494.125
-22.779	41.780	1659.290	1492.575
-21.765	41.784	1657.266	1490.724
-20.750	41.816	1655.894	1489.668
-19.736	41.728	1654.897	1488.058
-18.721	41.648	1653.391	1486.045
-17.706	41.802	1651.712	1485.626
-16.692	41.783	1649.937	1483.831
-15.677	41.738	1648.499	1482.143
-14.663	41.842	1647.206	1481.691
-13.648	41.793	1645.960	1480.149
-12.633	41.786	1644.090	1478.355
-11.619	41.731	1642.912	1476.835
-10.604	41.816	1640.746	1475.457
-9.590	41.814	1639.382	1474.153
-8.575	41.777	1638.818	1473.317
-7.560	41.822	1637.262	1472.191
-6.546	41.859	1635.571	1470.885
-5.531	41.760	1635.137	1469.705
-4.517	41.730	1633.820	1468.249
-3.502	41.730	1632.478	1466.979
-2.487	41.809	1630.794	1465.992
-1.473	41.248	1619.082	1451.320
-0.458	37.759	1596.833	1406.189
0.556	32.538	1593.651	1362.084
1.571	29.367	1615.950	1357.718
2.586	28.402	1630.401	1362.567
3.600	25.015	1577.029	1293.440
4.615	13.949	1459.851	1122.842
5.629	3.505	1386.258	998.800
6.644	1.430	1375.961	977.948
7.659	1.294	1374.482	975.935
8.673	1.309	1373.108	974.973
9.688	1.167	1372.426	973.485
10.702	0.991	1368.769	969.683
11.717	4.665	1376.531	998.717
12.731	15.219	1397.519	1082.348
13.746	23.530	1410.990	1146.644
14.761	25.161	1412.656	1158.440
15.775	25.420	1412.286	1159.710
16.790	25.473	1411.832	1159.577
17.804	25.396	1411.639	1158.818
18.819	25.499	1411.589	1159.339
19.834	25.662	1410.655	1159.518
20.848	25.693	1409.517	1158.679
21.863	25.766	1408.545	1158.245
22.877	25.683	1408.134	1157.273
23.892	25.796	1406.878	1156.866
24.907	25.710	1405.644	1155.195
25.921	25.679	1405.256	1154.573
26.936	25.782	1404.016	1154.112
27.950	25.696	1403.096	1152.705
28.965	25.712	1401.754	1151.604
29.980	25.656	1400.546	1150.150
30.994	25.711	1398.856	1149.016
32.009	25.758	1397.925	1148.444
33.023	25.722	1396.795	1147.187
34.038	25.771	1395.580	1146.397
35.053	25.699	1394.733	1145.146
36.067	25.728	1393.495	1144.208
37.082	25.705	1392.620	1143.243
38.096	25.743	1391.755	1142.676
39.111	25.649	1391.006	1141.364
40.126	25.583	1390.527	1140.452
41.140	25.713	1389.471	1140.308
42.155	25.712	1389.318	1140.076
43.169	25.720	1389.232	1139.953
44.184	25.789	1389.024	1140.118
45.199	25.682	1388.491	1138.906
46.213	25.786	1387.683	1138.796
47.228	25.679	1387.221	1137.643
48.242	25.819	1385.628	1137.118
49.257	25.716	1384.643	1135.560
50.271	25.777	1382.959	1134.459
51.286	25.687	1381.727	1132.782
52.301	25.719	1380.707	1132.049
53.315	25.646	1380.186	1131.062
54.330	25.756	1378.796	1130.515
55.344	25.735	1377.654	1129.346
56.359	25.736	1376.573	1128.368
57.374	25.600	1375.827	1126.805
58.388	25.688	1375.154	1126.700
59.403	25.589	1375.212	1126.033
60.417	25.695	1374.151	1125.727
61.432	25.760	1373.325	1125.353
62.447	25.631	1372.303	1123.611
63.461	25.636	1371.040	1122.512
64.476	25.777	1369.427	1121.972
65.490	25.741	1369.105	1121.381
66.505	25.731	1367.571	1119.962
67.520	25.735	1366.237	1118.800
68.534	25.749	1364.722	1117.544
69.549	25.584	1364.620	1116.338
70.563	25.737	1363.336	1116.136
71.578	25.687	1362.263	1114.849
72.593	25.721	1361.324	1114.191
73.607	25.689	1360.947	1113.588
74.622	25.745	1359.887	1112.967
75.636	25.720	1359.256	1112.200
76.651	25.704	1358.505	1111.388
77.666	25.620	1358.620	1110.866
78.680	25.776	1357.937	1111.170
79.695	25.743	1357.011	1110.110
80.709	25.787	1355.365	1108.938
81.724	25.732	1355.046	1108.241
82.739	25.717	1354.149	1107.319
83.753	25.671	1353.401	1106.327
84.768	25.701	1352.070	1105.321
85.782	25.720	1351.027	1104.488
86.797	25.722	1349.914	1103.494
87.812	25.792	1348.467	1102.642
88.826	25.783	1347.445	1101.650
89.841	25.800	1346.406	1100.808
90.855	25.730	1345.349	1099.423
91.870	25.774	1344.884	1099.211
92.884	25.797	1343.765	1098.338
93.899	25.752	1343.219	1097.524
94.914	25.700	1342.613	1096.616
95.928	25.809	1341.657	1096.401
96.943	25.910	1340.987	1096.367
97.957	25.773	1340.240	1094.826
98.972	25.772	1339.346	1093.998
99.987	25.786	1338.389	1093.203
101.001	25.789	1336.942	1091.943
102.016	25.771	1336.166	1091.105
103.030	25.724	1335.858	1090.470
104.045	25.666	1335.051	1089.362
105.060	25.776	1334.038	1089.108
106.074	25.756	1332.687	1087.787
107.089	25.874	1331.636	1087.545
108.103	25.751	1330.637	1085.892
109.118	25.663	1330.207	1084.913
110.133	25.894	1327.855	1084.291
111.147	25.924	1326.880	1083.575
112.162	25.834	1325.977	1082.200
113.176	25.796	1325.002	1081.084
114.191	25.819	1324.230	1080.495
115.206	25.853	1323.291	1079.836
116.220	25.847	1322.060	1078.703
117.235	25.823	1320.788	1077.425
118.249	25.896	1320.410	1077.456
119.264	25.877	1319.484	1076.491
120.279	25.781	1318.816	1075.280
121.293	25.975	1317.553	1075.312
122.308	25.936	1316.942	1074.487
123.322	25.742	1316.603	1072.954
124.337	25.930	1315.419	1073.017
125.352	25.912	1314.249	1071.860
126.366	25.882	1313.426	1070.918
127.381	25.825	1312.772	1069.951
128.395	25.864	1311.342	1068.920
129.410	25.869	1311.098	1068.660
130.424	25.950	1310.469	1068.531
131.439	25.960	1309.193	1067.451
132.454	25.851	1308.969	1066.531
133.468	25.860	1307.990	1065.694
134.483	25.837	1307.608	1065.151
135.497	25.892	1306.568	1064.537
136.512	25.934	1305.438	1063.765
137.527	25.872	1304.564	1062.595
138.541	25.936	1302.768	1061.414
139.556	25.807	1302.327	1060.202
140.570	25.880	1301.016	1059.471
141.585	25.851	1299.898	1058.298
142.600	25.861	1299.139	1057.643
143.614	25.906	1297.804	1056.728
144.629	25.845	1297.112	1055.714
145.643	25.789	1295.810	1054.233
146.658	25.788	1294.921	1053.409
147.673	25.847	1293.877	1052.812
148.687	25.788	1292.880	1051.562
149.702	25.809	1291.736	1050.664
150.716	25.728	1290.483	1049.079
151.731	25.906	1289.458	1049.187
152.746	25.939	1287.804	1047.943
153.760	25.808	1287.452	1046.801
154.775	25.874	1286.328	1046.180
155.789	25.841	1285.744	1045.419
156.804	25.775	1284.680	1044.079
157.819	25.789	1283.488	1043.098
158.833	25.804	1283.179	1042.841
159.848	25.974	1282.502	1043.181
160.862	25.936	1281.361	1041.944
161.877	25.874	1280.732	1040.982
162.892	25.850	1280.069	1040.211
163.906	25.986	1278.844	1039.906
164.921	25.888	1278.610	1039.061
165.935	25.829	1277.788	1037.961
166.950	25.897	1277.224	1037.801
167.964	25.896	1276.790	1037.353
168.979	25.867	1275.911	1036.378
169.994	25.872	1275.772	1036.201
171.008	25.993	1274.384	1035.679
172.023	26.013	1273.635	1035.093
173.037	25.998	1273.045	1034.439
174.052	26.009	1272.325	1033.825
175.067	25.951	1271.531	1032.753
176.081	25.986	1270.391	1031.936
177.096	25.951	1269.434	1030.867
178.110	26.003	1268.715	1030.490
179.125	26.013	1267.706	1029.638
180.140	26.035	1266.960	1029.066
181.154	26.049	1265.847	1028.150
182.169	25.924	1264.875	1026.557
183.183	25.944	1263.722	1025.645
184.198	25.951	1262.805	1024.849
185.213	26.013	1261.666	1024.185
186.227	26.104	1260.898	1023.990
187.242	25.998	1260.386	1022.881
188.256	26.045	1259.171	1022.070
189.271	26.148	1257.705	1021.375
190.286	26.076	1257.441	1020.663
191.300	26.127	1256.915	1020.431
192.315	26.012	1256.475	1019.333
193.329	26.008	1256.021	1018.855
194.344	26.034	1255.843	1018.767
195.359	26.018	1255.121	1017.998
196.373	26.128	1254.667	1018.164
197.388	25.910	1254.731	1016.893
198.402	25.926	1254.068	1016.360
199.417	26.024	1253.434	1016.308
200.432	26.003	1252.951	1015.708
201.446	26.019	1252.399	1015.258
202.461	26.025	1251.713	1014.645
203.475	26.082	1250.262	1013.703
204.490	26.105	1249.242	1012.916
205.504	26.169	1248.233	1012.363
206.519	26.175	1247.552	1011.757
207.534	26.205	1246.493	1010.977
208.548	26.048	1245.508	1009.210
209.563	26.061	1245.431	1009.131
210.577	26.069	1244.582	1008.396
211.592	26.139	1243.331	1007.688
212.607	26.142	1242.807	1007.187
213.621	26.209	1241.890	1006.732
214.636	26.171	1240.989	1005.700
215.650	26.210	1240.457	1005.397
216.665	26.156	1239.210	1003.996
217.680	26.276	1238.135	1003.704
218.694	26.180	1237.784	1002.799
219.709	26.148	1236.873	1001.793
220.723	26.207	1236.392	1001.641
221.738	26.103	1235.876	1000.558
222.753	26.235	1234.471	1000.062
223.767	26.246	1233.768	999.466
224.782	26.233	1233.724	999.269
225.796	26.338	1233.090	999.248
226.811	26.270	1232.726	998.487
227.826	26.278	1232.123	997.954
228.840	26.268	1231.277	997.130
229.855	26.287	1230.345	996.389
230.869	26.391	1229.665	996.323
231.884	26.372	1229.064	995.644
232.899	26.222	1228.128	993.970
233.913	26.297	1227.832	994.059
234.928	26.302	1227.499	993.729
235.942	26.300	1226.811	993.069
236.957	26.344	1226.011	992.579
237.972	26.374	1225.432	992.184
238.986	26.347	1224.415	991.127
240.001	26.394	1223.796	990.796
241.015	26.593	1223.010	991.160
242.030	26.496	1222.220	989.899
243.045	26.633	1221.343	989.850
244.059	26.338	1220.930	987.819
245.074	26.404	1220.229	987.523
246.088	26.518	1219.702	987.631
247.103	26.484	1218.564	986.439
248.117	26.466	1217.499	985.393
249.132	26.502	1216.773	984.911
250.147	26.546	1216.171	984.577
251.161	26.455	1215.473	983.430
252.176	26.465	1215.164	983.148
253.190	26.510	1214.065	982.418
254.205	26.503	1213.619	981.928
255.220	26.515	1213.200	981.569
256.234	26.572	1212.384	981.130
257.249	26.568	1211.920	980.645
258.263	26.514	1211.305	979.768
259.278	26.581	1210.828	979.659
260.293	26.602	1210.270	979.237
261.307	26.595	1209.603	978.569
262.322	26.514	1209.238	977.752
263.336	26.542	1208.638	977.333
264.351	26.562	1208.283	977.064
265.366	26.652	1206.979	976.412
266.380	26.630	1206.451	975.779
267.395	26.542	1205.856	974.736
268.409	26.580	1205.046	974.198
269.424	26.561	1204.793	973.806
270.439	26.575	1203.898	973.071
271.453	26.620	1203.570	972.966
272.468	26.641	1202.675	972.265
273.482	26.585	1202.210	971.502
274.497	26.613	1201.341	970.866
275.512	26.731	1200.609	970.821
276.526	26.765	1200.177	970.567
277.541	26.663	1199.668	969.525
278.555	26.758	1198.694	969.158
279.570	26.679	1198.277	968.315
280.585	26.589	1197.524	967.140
281.599	26.722	1196.407	966.861
282.614	26.730	1195.552	966.125
283.628	26.787	1194.545	965.534
284.643	26.695	1193.957	964.479
285.657	26.636	1193.399	963.633
286.672	26.710	1192.176	962.949
287.687	26.824	1191.396	962.843
288.701	26.815	1190.743	962.182
289.716	26.855	1190.394	962.027
290.730	26.788	1189.470	960.839
291.745	26.860	1189.108	960.845
292.760	26.865	1188.311	960.139
293.774	26.759	1187.936	959.191
294.789	26.888	1187.438	959.385
295.803	26.926	1186.453	958.706
296.818	26.981	1185.620	958.238
297.833	26.902	1184.845	957.110
298.847	26.802	1184.408	956.147
299.862	26.911	1183.726	956.085
300.876	26.915	1182.790	955.266
301.891	26.934	1182.508	955.056
302.906	26.961	1182.050	954.741
303.920	27.029	1180.976	954.148
304.935	27.015	1180.442	953.555
305.949	26.999	1179.570	952.684
306.964	26.922	1179.610	952.226
307.979	27.029	1178.600	951.890
308.993	27.034	1177.945	951.301
310.008	27.012	1177.613	950.837
311.022	27.025	1176.434	949.868
312.037	27.002	1175.411	948.840
313.052	27.076	1174.644	948.518
314.066	27.070	1173.616	947.577
315.081	26.998	1173.314	946.870
316.095	26.956	1172.922	946.251
317.110	27.114	1171.768	946.059
318.125	27.038	1171.447	945.324
319.139	26.980	1170.965	944.546
320.154	27.074	1170.093	944.252
321.168	27.092	1169.818	944.040
322.183	26.992	1169.653	943.301
323.197	27.077	1168.524	942.746
324.212	27.107	1167.819	942.250
325.227	27.092	1167.381	941.737
326.241	27.120	1166.649	941.211
327.256	27.153	1166.395	941.094
328.270	27.178	1165.366	940.307
329.285	27.178	1164.090	939.196
330.300	27.135	1163.691	938.570
331.314	27.071	1162.852	937.477
332.329	27.298	1161.493	937.467
333.343	27.286	1160.837	936.793
334.358	27.306	1160.146	936.259
335.373	27.206	1159.783	935.368
336.387	27.340	1158.738	935.129
337.402	27.379	1158.284	934.882
338.416	27.372	1157.915	934.465
339.431	27.315	1157.146	933.468
340.446	27.308	1156.693	932.984
341.460	27.378	1155.974	932.681
342.475	27.356	1155.241	931.893
343.489	27.406	1153.978	931.047
344.504	27.497	1152.797	930.477
345.519	27.347	1152.153	929.111
346.533	27.463	1151.505	929.100
347.548	27.549	1150.673	928.784
348.562	27.447	1150.224	927.819
349.577	27.450	1149.446	927.122
350.592	27.348	1148.904	926.086
351.606	27.369	1148.429	925.725
352.621	27.443	1147.582	925.339
353.635	27.476	1147.041	924.989
354.650	27.369	1146.390	923.838
355.665	27.550	1145.453	923.919
356.679	27.474	1145.342	923.364
357.694	27.467	1144.756	922.776
358.708	27.505	1144.102	922.359
359.723	27.535	1142.924	921.478
360.738	27.468	1142.660	920.843
361.752	27.510	1141.879	920.347
362.767	27.502	1141.429	919.862
363.781	27.497	1141.033	919.434
364.796	27.570	1140.467	919.267
365.810	27.588	1139.772	918.717
366.825	27.656	1138.964	918.326
367.840	27.666	1138.406	917.843
368.854	27.694	1138.063	917.628
369.869	27.695	1137.474	917.078
370.883	27.667	1136.682	916.218
371.898	27.773	1135.639	915.827
372.913	27.572	1135.549	914.661
373.927	27.695	1135.123	914.859
374.942	27.715	1134.115	914.066
375.956	27.791	1133.801	914.108
376.971	27.720	1133.241	913.224
377.986	27.690	1132.870	912.694
379.000	27.829	1132.125	912.705
380.015	27.798	1131.456	911.929
381.029	27.879	1130.935	911.838
382.044	27.847	1130.056	910.888
383.059	27.948	1129.037	910.488
384.073	27.921	1128.608	909.926
385.088	27.811	1127.886	908.715
386.102	27.873	1126.886	908.137
387.117	27.807	1126.197	907.175
388.132	27.874	1125.049	906.502
389.146	27.980	1124.462	906.476
390.161	27.937	1124.121	905.907
391.175	27.988	1123.382	905.483
392.190	27.859	1122.896	904.372
393.205	27.941	1122.045	904.015
394.219	27.944	1121.034	903.135
395.234	28.069	1120.534	903.268
396.248	28.011	1119.513	902.080
397.263	27.962	1118.680	901.085
398.278	27.994	1118.089	900.691
399.292	28.077	1117.622	900.642
400.307	28.030	1117.136	899.940
401.321	28.022	1116.527	899.332
402.336	27.904	1116.133	898.352
403.350	28.040	1115.135	898.140
404.365	28.053	1114.735	897.801
405.380	28.100	1113.665	897.088
406.394	28.214	1112.911	896.961
407.409	28.081	1112.291	895.731
408.423	28.169	1111.680	895.592
409.438	28.166	1110.954	894.911
410.453	28.176	1110.272	894.334
411.467	28.215	1109.367	893.716
412.482	28.207	1108.863	893.190
413.496	28.136	1108.324	892.331
414.511	28.180	1107.665	891.935
415.526	28.299	1106.475	891.480
416.540	28.271	1106.640	891.395
417.555	28.242	1106.313	890.912
418.569	28.192	1105.804	890.179
419.584	28.277	1104.952	889.827
420.599	28.383	1104.643	890.017
421.613	87.205	1298.250	1368.229
422.628	81.711	1326.457	1368.346
