DTS Sentinel unit serial number:	SN413079Multiplexer serial number:	ORYXHardware model number:	OX4-SRSoftware version number:	ORYX F/W v4.00 Oryx Data Collector v3.7.2.0data status	okinstallation	princeton_trtdifferential loss correction	single-endedforward channel	channel 2reverse channel	N/Adate	2019/09/11time	19:25:11forward acquisition time	60.00reverse acquisition time	0.00gamma	496.2192k internal	0.2303k external	0.2303temperature offset calibration	1.0043default loss term (dB/km)	0.3790temperature slope calibration	1.0000multiplexer offset coefficient	1.0000multiplexer slope coefficient	1.0000fibre end	0.00T internal ref (°C)	40.75T ext. ref 1 (°C)	1.31T ext. ref 2 (°C)	33.04length (m)	temperature (°C)	Stokes	anti-Stokes-747.200	-121.782	-0.019	-0.003
-746.185	114.931	-0.164	0.204
-745.171	-35.609	-0.140	0.077
-744.156	15.028	-0.158	0.126
-743.142	-36.618	-0.148	0.081
-742.127	-200.000	-0.004	0.078
-741.112	-200.000	-0.017	0.081
-740.098	-200.000	0.055	0.249
-739.083	-141.318	-0.172	-0.018
-738.069	96.614	0.198	0.231
-737.054	-200.000	0.016	0.174
-736.039	1.120	0.368	0.269
-735.025	-32.655	0.242	0.137
-734.010	33.832	0.057	-0.050
-732.996	-79.062	-0.204	0.070
-731.981	-65.631	-0.073	-0.030
-730.966	101.790	-0.350	0.416
-729.952	41.744	0.221	0.204
-728.937	-200.000	0.021	0.214
-727.923	514.363	-0.075	-0.177
-726.908	800.000	-0.055	-0.184
-725.894	291.220	-0.080	-0.148
-724.879	120.123	-0.214	-0.270
-723.864	-163.904	0.203	-0.010
-722.850	-117.943	0.418	0.076
-721.835	-200.000	0.021	-0.151
-720.821	305.636	-0.075	0.142
-719.806	-108.248	-0.185	-0.041
-718.791	-1.408	-0.218	0.157
-717.777	313.399	-0.100	0.191
-716.762	461.114	-0.030	0.068
-715.748	188.682	-0.066	-0.100
-714.733	-167.177	-0.316	0.013
-713.718	135.526	0.189	-0.251
-712.704	800.000	0.025	0.075
-711.689	393.148	0.162	-0.344
-710.675	-112.071	-0.101	0.021
-709.660	-200.000	0.014	-0.117
-708.645	-200.000	0.011	0.251
-707.631	-200.000	-0.038	-0.356
-706.616	-9.532	0.155	0.105
-705.602	-79.587	0.368	-0.126
-704.587	800.000	-0.081	-0.347
-703.572	36.296	-0.209	-0.187
-702.558	-58.272	-0.115	-0.051
-701.543	206.261	-0.179	-0.283
-700.529	-171.266	0.256	-0.009
-699.514	-66.075	0.309	-0.125
-698.499	320.753	0.104	-0.200
-697.485	-200.000	0.004	-0.210
-696.470	-200.000	-0.012	-0.320
-695.456	-86.579	-0.407	-0.127
-694.441	-15.666	-0.093	-0.061
-693.426	213.710	-0.058	-0.093
-692.412	374.763	-0.055	-0.114
-691.397	777.404	0.120	0.334
-690.383	13.698	-0.411	-0.325
-689.368	749.304	0.015	0.041
-688.354	-200.000	-0.002	-0.035
-687.339	800.000	-0.176	0.587
-686.324	490.839	0.053	-0.123
-685.310	-93.786	-0.126	-0.035
-684.295	94.019	0.061	0.071
-683.281	51.357	-0.177	-0.171
-682.266	229.971	-0.305	-0.507
-681.251	145.705	0.169	0.230
-680.237	-177.071	0.164	-0.004
-679.222	800.000	-0.163	-0.580
-678.208	217.266	-0.129	-0.209
-677.193	-83.030	-0.185	0.061
-676.178	800.000	0.043	-0.151
-675.164	800.000	0.097	-0.384
-674.149	381.063	0.055	-0.115
-673.135	-62.201	0.032	0.014
-672.120	-66.048	0.137	-0.055
-671.105	-200.000	-0.053	-0.252
-670.091	21.454	-0.417	-0.344
-669.076	-200.000	0.042	0.195
-668.062	121.640	-0.316	-0.400
-667.047	-38.434	0.144	-0.077
-666.032	-171.663	0.438	0.015
-665.018	294.396	-0.118	0.218
-664.003	128.630	-0.040	-0.052
-662.989	-69.413	0.202	-0.079
-661.974	-200.000	0.008	0.150
-660.959	259.563	-0.125	-0.219
-659.945	27.410	0.179	0.153
-658.930	538.071	0.068	-0.164
-657.916	85.095	-0.266	0.296
-656.901	-62.802	0.169	-0.071
-655.886	24.583	0.147	0.124
-654.872	-48.778	0.015	-0.007
-653.857	-55.383	-0.218	0.099
-652.843	-199.628	-0.088	0.000
-651.828	-200.000	0.075	-0.519
-650.814	42.541	0.172	-0.159
-649.799	-112.098	-0.214	-0.044
-648.784	-159.630	-0.551	-0.031
-647.770	91.824	-0.123	0.140
-646.755	-0.951	-0.034	-0.024
-645.741	-36.860	0.102	-0.056
-644.726	-28.268	-0.152	0.089
-643.711	3.343	-0.208	0.153
-642.697	274.118	-0.110	-0.198
-641.682	-100.002	0.114	-0.029
-640.668	-90.601	0.345	0.101
-639.653	-161.103	0.056	-0.003
-638.638	108.602	-0.061	-0.074
-637.624	-200.000	-0.011	-0.220
-636.609	-54.419	-0.259	0.119
-635.595	-102.869	-0.443	-0.107
-634.580	60.683	-0.065	-0.066
-633.565	-157.820	-0.382	-0.023
-632.551	-44.211	-0.291	-0.148
-631.536	-35.226	-0.240	0.132
-630.522	-21.705	-0.251	0.155
-629.507	-182.401	0.197	0.004
-628.492	-127.224	-0.153	-0.023
-627.478	-55.970	-0.491	-0.222
-626.463	91.870	-0.133	-0.152
-625.449	-10.123	-0.156	-0.105
-624.434	418.069	0.037	-0.081
-623.419	800.000	0.088	-0.262
-622.405	156.841	-0.016	-0.023
-621.390	-74.241	0.279	-0.102
-620.376	-66.139	0.260	-0.105
-619.361	-7.717	-0.165	0.113
-618.346	383.208	0.142	0.297
-617.332	-91.484	-0.233	-0.067
-616.317	69.009	0.084	-0.087
-615.303	-200.000	0.055	-0.303
-614.288	-200.000	-0.002	-0.123
-613.273	-121.450	-0.193	0.033
-612.259	-171.797	-0.241	-0.008
-611.244	162.133	-0.090	0.128
-610.230	-44.014	0.180	-0.091
-609.215	-130.213	-0.405	0.056
-608.201	-200.000	-0.005	0.213
-607.186	-200.000	0.014	0.204
-606.171	-200.000	-0.001	-0.217
-605.157	-45.734	-0.217	0.109
-604.142	-177.962	-0.374	-0.009
-603.128	8.533	-0.117	-0.089
-602.113	489.450	0.190	-0.439
-601.098	-200.000	-0.005	0.107
-600.084	800.000	0.042	-0.175
-599.069	114.198	-0.178	0.220
-598.055	14.325	0.095	0.075
-597.040	800.000	0.041	0.148
-596.025	115.315	0.025	0.031
-595.011	-76.748	0.065	0.023
-593.996	211.828	0.158	0.252
-592.982	-95.078	-0.343	-0.094
-591.967	800.000	-0.090	-0.270
-590.952	13.809	-0.048	-0.038
-589.938	-82.591	-0.366	-0.120
-588.923	-72.462	-0.447	0.167
-587.909	800.000	0.030	0.097
-586.894	-200.000	0.031	0.217
-585.879	280.339	0.079	0.144
-584.865	-200.000	-0.016	-0.237
-583.850	-200.000	0.021	0.125
-582.836	-200.000	0.007	0.047
-581.821	488.475	-0.106	0.245
-580.806	800.000	0.036	0.153
-579.792	-200.000	-0.012	-0.129
-578.777	-40.429	0.041	-0.022
-577.763	202.480	0.240	-0.374
-576.748	270.970	0.146	-0.260
-575.733	271.981	-0.208	0.371
-574.719	-117.034	-0.337	-0.062
-573.704	-98.880	-0.218	-0.056
-572.690	63.122	0.155	-0.157
-571.675	-125.181	0.097	-0.015
-570.661	-126.630	-0.156	-0.023
-569.646	87.866	0.218	0.245
-568.631	-90.731	-0.338	-0.099
-567.617	-43.055	-0.266	0.136
-566.602	66.523	0.235	-0.242
-565.588	70.239	-0.117	-0.122
-564.573	-12.068	-0.100	-0.066
-563.558	-43.367	0.366	-0.187
-562.544	800.000	-0.117	-0.401
-561.529	-124.181	0.464	0.074
-560.515	-10.558	-0.180	0.120
-559.500	-85.582	0.154	-0.048
-558.485	107.646	0.203	-0.245
-557.471	800.000	-0.037	0.113
-556.456	800.000	-0.087	0.276
-555.442	800.000	-0.069	0.200
-554.427	-34.524	0.093	-0.051
-553.412	-200.000	0.019	0.101
-552.398	-200.000	0.021	0.158
-551.383	16.225	0.084	-0.067
-550.369	164.342	0.099	0.141
-549.354	164.934	-0.089	0.127
-548.339	191.363	-0.067	0.102
-547.325	-90.235	0.343	-0.101
-546.310	-200.000	-0.097	0.000
-545.296	-19.359	0.193	0.121
-544.281	-50.081	-0.018	-0.009
-543.266	-182.038	0.164	0.003
-542.252	199.755	0.200	-0.310
-541.237	-130.962	-0.210	0.028
-540.223	-40.575	-0.146	-0.076
-539.208	-193.403	0.103	0.001
-538.193	21.519	0.311	-0.256
-537.179	-87.029	-0.294	-0.091
-536.164	73.029	-0.100	0.105
-535.150	-35.370	-0.180	0.099
-534.135	-140.018	0.425	0.045
-533.121	25.720	-0.075	-0.063
-532.106	-43.664	0.167	0.085
-531.091	447.756	0.064	0.142
-530.077	20.024	0.163	0.133
-529.062	348.847	0.084	0.167
-528.048	-13.950	-0.201	-0.131
-527.033	-47.130	0.188	-0.093
-526.018	800.000	0.009	-0.032
-525.004	-16.943	0.209	-0.133
-523.989	-102.394	0.211	-0.051
-522.975	800.000	-0.106	-0.360
-521.960	-98.938	0.491	-0.126
-520.945	800.000	-0.019	-0.082
-519.931	90.438	0.121	-0.137
-518.916	-165.235	-0.123	0.006
-517.902	151.684	-0.264	0.363
-516.887	22.914	0.183	-0.152
-515.872	800.000	0.079	-0.284
-514.858	-200.000	-0.029	0.140
-513.843	-8.475	0.085	0.058
-512.829	447.651	0.069	0.153
-511.814	-90.976	-0.441	0.128
-510.799	-137.678	-0.350	-0.040
-509.785	457.820	-0.047	-0.105
-508.770	-143.718	0.138	0.013
-507.756	-32.324	0.283	-0.160
-506.741	177.318	0.109	-0.161
-505.726	-135.911	0.075	0.009
-504.712	34.032	0.218	-0.192
-503.697	-42.039	-0.196	-0.101
-502.683	27.898	0.145	-0.123
-501.668	-70.914	0.399	0.152
-500.653	-58.599	0.227	0.100
-499.639	800.000	0.092	-0.301
-498.624	508.868	-0.180	-0.421
-497.610	-14.015	0.228	-0.148
-496.595	121.431	-0.167	0.210
-495.581	-73.925	-0.170	-0.062
-494.566	-112.453	-0.322	0.065
-493.551	-162.414	0.278	0.014
-492.537	-200.000	-0.006	0.198
-491.522	563.267	0.071	0.174
-490.508	-35.294	0.351	0.193
-489.493	-154.680	-0.053	-0.004
-488.478	800.000	-0.077	0.282
-487.464	-57.458	-0.415	-0.184
-486.449	-72.277	-0.096	0.036
-485.435	-138.613	0.240	0.027
-484.420	406.713	-0.130	-0.277
-483.405	-39.991	-0.241	0.127
-482.391	452.616	-0.077	-0.172
-481.376	-56.502	0.315	-0.141
-480.362	324.134	0.061	-0.118
-479.347	436.426	-0.074	0.162
-478.332	-200.000	-0.024	0.211
-477.318	800.000	0.021	0.084
-476.303	-164.586	0.165	-0.008
-475.289	210.837	0.053	0.085
-474.274	34.902	-0.173	0.153
-473.259	-145.579	0.271	-0.024
-472.245	-114.864	-0.166	-0.032
-471.230	-33.260	-0.254	-0.142
-470.216	103.809	0.180	-0.213
-469.201	108.802	0.054	-0.065
-468.186	244.715	-0.228	0.386
-467.172	-54.141	-0.227	-0.104
-466.157	10.331	0.243	-0.187
-465.143	-162.996	-0.294	0.014
-464.128	457.812	-0.036	-0.082
-463.113	590.694	0.106	-0.263
-462.099	-139.806	-0.196	0.021
-461.084	283.725	-0.030	0.054
-460.070	45.471	0.086	-0.080
-459.055	-200.000	0.042	0.239
-458.040	263.313	-0.043	0.075
-457.026	93.774	-0.224	-0.256
-456.011	85.960	-0.139	0.154
-454.997	-96.337	0.238	0.063
-453.982	-13.128	0.023	0.015
-452.968	-125.767	0.317	0.048
-451.953	-38.105	0.036	0.019
-450.938	294.348	0.252	0.463
-449.924	158.661	-0.175	-0.245
-448.909	-85.158	0.181	0.057
-447.895	275.518	0.026	-0.047
-446.880	-200.000	0.032	-0.563
-445.865	165.543	0.090	-0.128
-444.851	-38.396	0.154	-0.082
-443.836	-65.658	0.446	0.180
-442.822	-107.741	-0.373	0.082
-441.807	97.829	-0.175	0.203
-440.792	-163.744	-0.333	-0.016
-439.778	108.393	-0.267	0.321
-438.763	262.235	-0.144	0.252
-437.749	-108.275	-0.248	0.054
-436.734	316.159	0.142	-0.269
-435.719	-50.029	-0.145	-0.069
-434.705	-200.000	0.001	-0.070
-433.690	-200.000	-0.000	0.248
-432.676	-52.438	0.075	0.035
-431.661	-26.862	-0.047	-0.028
-430.646	10.820	0.223	0.171
-429.632	-198.424	-0.311	0.002
-428.617	-200.000	-0.013	-0.297
-427.603	800.000	0.073	-0.254
-426.588	488.006	0.053	-0.121
-425.573	49.440	-0.174	0.165
-424.559	76.905	0.118	-0.126
-423.544	-47.451	-0.312	-0.153
-422.530	-200.000	0.032	-0.356
-421.515	-200.000	0.072	0.449
-420.500	-200.000	0.015	0.372
-419.486	710.014	0.072	-0.192
-418.471	155.415	-0.139	0.193
-417.457	-42.881	-0.271	0.139
-416.442	-113.748	0.120	-0.023
-415.428	-191.884	0.225	-0.002
-414.413	-92.733	0.231	0.065
-413.398	-48.562	0.134	-0.065
-412.384	800.000	0.060	0.202
-411.369	243.962	-0.173	-0.293
-410.355	96.813	-0.163	0.188
-409.340	-106.778	0.427	-0.095
-408.325	-200.000	-0.007	-0.165
-407.311	556.544	-0.073	-0.176
-406.296	-131.761	-0.309	-0.041
-405.282	16.456	0.031	-0.024
-404.267	-200.000	0.036	0.194
-403.252	-101.644	0.500	0.122
-402.238	448.704	0.053	0.118
-401.223	282.182	0.048	-0.086
-400.209	-136.038	-0.376	-0.044
-399.194	69.207	-0.267	0.276
-398.179	-120.671	0.324	0.055
-397.165	409.732	-0.036	0.076
-396.150	800.000	-0.055	0.240
-395.136	-5.879	0.149	-0.103
-394.121	-50.974	-0.135	0.064
-393.106	-118.849	0.221	0.039
-392.092	-34.413	0.267	0.147
-391.077	256.394	0.073	-0.125
-390.063	-55.992	-0.309	0.138
-389.048	80.461	0.135	0.146
-388.033	-200.000	0.001	0.347
-387.019	7.156	0.081	0.061
-386.004	-116.242	0.485	-0.090
-384.990	160.423	0.075	-0.105
-383.975	106.014	0.192	-0.229
-382.960	176.047	-0.119	-0.173
-381.946	-146.431	0.157	0.014
-380.931	398.804	0.091	0.192
-379.917	-59.865	0.247	-0.106
-378.902	-200.000	0.044	-0.250
-377.888	-89.538	-0.378	-0.111
-376.873	213.585	0.128	0.203
-375.858	45.718	0.008	0.007
-374.844	-135.462	0.339	-0.041
-373.829	-5.974	0.077	0.053
-372.815	677.296	-0.095	0.247
-371.800	800.000	0.029	-0.105
-370.785	-200.000	-0.063	0.372
-369.771	-37.705	-0.225	-0.120
-368.756	141.810	0.169	-0.225
-367.742	800.000	0.092	-0.385
-366.727	25.721	0.167	-0.140
-365.712	-120.636	0.029	0.005
-364.698	333.765	0.091	-0.177
-363.683	226.804	-0.039	0.063
-362.669	800.000	-0.109	0.326
-361.654	-32.068	0.242	-0.136
-360.639	16.991	0.159	-0.126
-359.625	-154.432	0.370	0.025
-358.610	36.924	0.178	0.158
-357.596	-105.404	-0.208	-0.047
-356.581	-200.000	0.008	0.229
-355.566	124.739	-0.061	-0.077
-354.552	-200.000	-0.016	-0.442
-353.537	633.213	-0.188	0.478
-352.523	598.923	-0.058	-0.144
-351.508	800.000	0.079	-0.278
-350.493	40.072	-0.114	0.102
-349.479	800.000	-0.094	-0.411
-348.464	280.967	0.180	-0.323
-347.450	-200.000	0.026	0.266
-346.435	-130.603	-0.094	0.013
-345.420	-39.244	0.303	0.159
-344.406	-200.000	-0.010	-0.337
-343.391	38.017	-0.258	-0.230
-342.377	800.000	0.073	-0.305
-341.362	800.000	0.097	-0.294
-340.348	-53.605	0.328	0.151
-339.333	237.289	0.199	0.330
-338.318	534.573	0.120	-0.285
-337.304	-200.000	0.054	0.348
-336.289	-41.476	-0.147	0.076
-335.275	800.000	-0.092	-0.289
-334.260	-86.842	0.269	-0.082
-333.245	-64.285	-0.111	-0.045
-332.231	-200.000	0.034	-0.156
-331.216	2.373	-0.146	0.106
-330.202	-134.006	-0.113	-0.014
-329.187	13.594	-0.027	-0.021
-328.172	800.000	0.033	0.096
-327.158	-74.830	-0.352	-0.127
-326.143	71.475	0.127	0.132
-325.129	-102.448	-0.306	-0.073
-324.114	-15.906	-0.174	0.111
-323.099	356.700	0.067	-0.134
-322.085	297.733	0.106	-0.196
-321.070	-200.000	0.032	-0.294
-320.056	-200.000	-0.007	0.297
-319.041	800.000	0.036	-0.139
-318.026	-14.520	-0.043	-0.028
-317.012	45.031	-0.093	0.086
-315.997	800.000	0.053	-0.212
-314.983	35.890	-0.180	0.159
-313.968	-121.630	-0.407	0.067
-312.953	45.723	-0.158	-0.147
-311.939	-200.000	0.002	0.136
-310.924	-45.574	-0.261	0.129
-309.910	-50.947	-0.044	0.020
-308.895	-78.679	0.274	-0.094
-307.880	800.000	-0.113	0.347
-306.866	164.322	-0.172	-0.243
-305.851	-120.267	0.141	-0.024
-304.837	-48.159	-0.105	0.051
-303.822	-200.000	0.061	0.333
-302.807	688.785	0.107	0.281
-301.793	-5.646	-0.123	0.085
-300.778	800.000	0.088	0.309
-299.764	-200.000	0.001	-0.049
-298.749	-33.730	0.137	-0.076
-297.735	-200.000	-0.017	-0.081
-296.720	520.757	-0.090	-0.211
-295.705	164.308	0.224	0.317
-294.691	241.533	0.233	0.390
-293.676	-87.139	-0.313	-0.095
-292.662	-19.104	-0.248	0.155
-291.647	-15.979	-0.198	-0.126
-290.632	-140.063	0.288	0.030
-289.618	608.403	0.061	0.152
-288.603	173.245	-0.310	0.447
-287.589	800.000	-0.040	-0.172
-286.574	180.136	0.161	0.237
-285.559	0.078	0.083	0.059
-284.545	-200.000	0.033	0.255
-283.530	147.443	-0.156	-0.211
-282.516	-112.780	0.199	0.039
-281.501	-104.552	-0.150	-0.035
-280.486	191.795	0.074	0.112
-279.472	-166.265	0.274	0.012
-278.457	-95.744	0.596	-0.159
-277.443	-200.000	-0.008	0.309
-276.428	-63.316	-0.411	0.169
-275.413	-200.000	0.001	-0.044
-274.399	-15.947	0.146	0.093
-273.384	-17.669	-0.355	-0.223
-272.370	-81.217	-0.146	-0.048
-271.355	800.000	-0.085	-0.324
-270.340	117.631	-0.189	0.232
-269.326	-109.920	0.130	-0.027
-268.311	-19.997	0.247	-0.153
-267.297	-46.858	-0.166	-0.081
-266.282	245.411	-0.086	-0.144
-265.267	-200.000	0.024	0.107
-264.253	-39.506	0.284	0.149
-263.238	-152.031	0.304	0.022
-262.224	300.155	-0.234	-0.432
-261.209	14.806	0.208	0.162
-260.195	-81.400	0.208	0.069
-259.180	-83.025	-0.237	-0.076
-258.165	800.000	0.053	0.173
-257.151	800.000	0.083	0.244
-256.136	154.077	-0.016	-0.022
-255.122	-82.925	0.383	0.124
-254.107	121.070	-0.028	0.035
-253.092	-100.971	-0.397	0.097
-252.078	316.606	-0.025	0.047
-251.063	-90.110	-0.165	0.048
-250.049	297.776	0.134	0.246
-249.034	208.370	0.231	-0.360
-248.019	-54.811	-0.193	-0.087
-247.005	108.891	-0.170	0.204
-245.990	-52.360	0.076	-0.035
-244.976	-200.000	-0.035	-0.160
-243.961	-200.000	0.065	0.542
-242.946	29.853	0.161	-0.137
-241.932	800.000	0.079	0.244
-240.917	40.853	0.133	0.120
-239.903	13.329	-0.191	0.148
-238.888	-20.726	-0.131	-0.080
-237.873	-42.436	0.051	-0.026
-236.859	-200.000	0.001	-0.114
-235.844	119.756	0.090	-0.112
-234.830	800.000	0.071	-0.244
-233.815	-137.940	0.230	-0.026
-232.800	-200.000	-0.020	0.090
-231.786	7.837	0.178	0.133
-230.771	-5.374	-0.251	0.172
-229.757	268.987	0.127	0.223
-228.742	126.830	-0.216	0.273
-227.727	-58.817	-0.241	-0.104
-226.713	13.741	0.410	-0.318
-225.698	73.639	0.102	-0.106
-224.684	-68.861	0.313	0.121
-223.669	-144.893	0.169	-0.015
-222.655	800.000	-0.126	-0.398
-221.640	-61.088	-0.226	0.095
-220.625	-200.000	-0.001	0.070
-219.611	44.213	0.096	-0.088
-218.596	299.030	-0.087	-0.159
-217.582	-93.096	-0.160	-0.044
-216.567	-161.997	-0.274	-0.014
-215.552	-13.973	0.358	0.231
-214.538	-200.000	0.047	0.229
-213.523	147.861	0.035	-0.047
-212.509	610.615	-0.081	-0.201
-211.494	369.450	0.252	0.509
-210.479	-200.000	0.041	0.380
-209.465	181.527	-0.176	-0.259
-208.450	12.172	0.247	0.190
-207.436	-37.349	-0.351	-0.187
-206.421	800.000	0.032	-0.116
-205.406	800.000	-0.098	0.330
-204.392	53.186	-0.320	0.306
-203.377	-96.124	-0.100	0.027
-202.363	447.716	-0.118	0.260
-201.348	554.858	0.051	-0.123
-200.333	800.000	0.053	-0.184
-199.319	800.000	-0.044	-0.147
-198.304	744.088	0.062	-0.167
-197.290	-200.000	-0.017	-0.162
-196.275	800.000	0.035	0.140
-195.260	122.412	0.271	-0.337
-194.246	800.000	-0.060	-0.218
-193.231	227.846	0.043	0.070
-192.217	-200.000	0.037	0.162
-191.202	-3.985	0.242	0.167
-190.187	145.909	0.126	0.168
-189.173	800.000	0.109	-0.328
-188.158	-4.136	0.253	-0.175
-187.144	82.760	-0.140	-0.152
-186.129	46.275	-0.254	-0.235
-185.114	-164.427	0.195	0.009
-184.100	-114.607	0.157	-0.030
-183.085	-200.000	0.058	-0.269
-182.071	202.482	0.107	-0.165
-181.056	-200.000	-0.013	0.178
-180.042	-115.552	-0.148	0.028
-179.027	176.854	0.191	0.277
-178.012	800.000	0.087	0.277
-176.998	800.000	0.106	0.321
-175.983	-35.523	0.389	0.210
-174.969	621.180	-0.145	-0.364
-173.954	-200.000	0.033	-0.243
-172.939	-120.915	-0.106	0.018
-171.925	800.000	-0.052	0.224
-170.910	-64.979	-0.324	0.130
-169.896	-200.000	0.027	-0.169
-168.881	-200.000	-0.022	-0.104
-167.866	483.684	-0.075	0.170
-166.852	-61.277	0.371	-0.156
-165.837	457.370	0.018	0.040
-164.823	-200.000	-0.034	-0.226
-163.808	59.009	-0.165	-0.161
-162.793	-72.725	-0.118	-0.043
-161.779	125.749	-0.067	-0.084
-160.764	-134.568	0.262	-0.032
-159.750	185.381	0.067	-0.099
-158.735	607.370	0.010	-0.026
-157.720	-16.750	-0.306	0.193
-156.706	-96.620	0.110	-0.029
-155.691	253.839	-0.064	0.108
-154.677	800.000	-0.144	0.401
-153.662	-200.000	0.005	0.239
-152.647	-77.776	0.231	0.079
-151.633	800.000	-0.060	-0.210
-150.618	800.000	0.109	-0.351
-149.604	25.675	0.241	-0.200
-148.589	308.818	0.062	-0.116
-147.574	-60.095	-0.196	0.083
-146.560	-41.693	-0.212	0.108
-145.545	-200.000	-0.003	-0.126
-144.531	-126.833	-0.174	0.025
-143.516	-137.641	-0.232	0.026
-142.502	92.781	0.068	-0.076
-141.487	-200.000	-0.015	-0.148
-140.472	180.539	0.258	-0.376
-139.458	-144.465	-0.077	-0.007
-138.443	-33.686	0.166	0.091
-137.429	178.645	-0.049	0.071
-136.414	-200.000	-0.004	0.212
-135.399	800.000	-0.047	0.132
-134.385	196.213	0.144	0.218
-133.370	57.142	-0.276	0.268
-132.356	373.375	-0.157	0.318
-131.341	239.114	0.143	0.236
-130.326	616.967	-0.155	-0.386
-129.312	-106.464	-0.075	-0.017
-128.297	800.000	-0.050	0.151
-127.283	800.000	0.131	-0.394
-126.268	-168.275	-0.379	-0.015
-125.253	-200.000	0.016	-0.153
-124.239	122.572	-0.121	0.151
-123.224	-200.000	-0.027	-0.186
-122.210	280.809	-0.008	0.015
-121.195	-58.631	0.232	-0.100
-120.180	-200.000	-0.026	0.137
-119.166	-86.912	-0.325	0.099
-118.151	225.958	0.071	0.114
-117.137	-200.000	-0.001	0.196
-116.122	-200.000	-0.046	-0.209
-115.107	650.169	0.062	0.157
-114.093	-39.141	0.040	0.021
-113.078	-200.000	-0.041	0.273
-112.064	-99.574	0.125	0.031
-111.049	701.377	-0.042	0.110
-110.034	-84.247	0.055	-0.017
-109.020	-200.000	-0.041	0.261
-108.005	331.371	-0.153	0.293
-106.991	51.775	0.184	-0.173
-105.976	57.282	-0.163	-0.158
-104.962	-51.461	0.026	-0.012
-103.947	371.468	0.145	-0.291
-102.932	66.019	-0.160	0.162
-101.918	-200.000	0.013	-0.121
-100.903	-101.324	0.250	0.061
-99.889	800.000	-0.071	0.288
-98.874	258.143	0.110	-0.188
-97.859	800.000	0.078	-0.301
-96.845	-200.000	-0.002	0.022
-95.830	-200.000	0.047	-0.334
-94.816	448.396	-0.103	-0.226
-93.801	-131.464	0.056	0.007
-92.786	-85.727	-0.153	-0.047
-91.772	332.494	-0.118	-0.226
-90.757	800.000	0.070	-0.215
-89.743	-57.108	0.248	-0.108
-88.728	40.928	-0.212	0.190
-87.713	-156.648	0.219	0.013
-86.699	224.737	0.087	-0.140
-85.684	32.839	0.141	-0.121
-84.670	152.306	-0.140	-0.189
-83.655	-131.481	-0.250	0.033
-82.640	21.343	0.209	0.168
-81.626	-41.139	0.236	-0.121
-80.611	-112.301	-0.647	-0.129
-79.597	529.386	0.108	-0.253
-78.582	158.723	0.182	0.252
-77.567	61.400	-0.159	-0.157
-76.553	-200.000	-0.025	0.220
-75.538	588.885	-0.084	0.205
-74.524	-25.488	-0.135	0.079
-73.509	-200.000	0.387	-0.001
-72.494	-23.638	0.210	0.125
-71.480	89.614	-0.155	-0.171
-70.465	-200.000	0.071	0.311
-69.451	800.000	0.034	-0.117
-68.436	58.046	0.133	0.129
-67.422	-12.560	0.192	0.124
-66.407	148.894	0.150	0.201
-65.392	163.495	-0.071	-0.099
-64.378	-39.248	0.415	-0.216
-63.363	-90.471	0.243	0.070
-62.349	-78.801	0.159	0.054
-61.334	50.059	-0.713	-0.668
-60.319	-176.681	0.204	-0.005
-59.305	-200.000	0.053	-0.714
-58.290	128.304	0.504	0.637
-57.276	265.504	0.764	1.322
-56.261	-200.000	77.590	506.555
-55.246	529.300	1316.095	3081.227
-54.232	150.977	2545.046	3432.097
-53.217	110.520	2327.420	2774.221
-52.203	49.735	1949.211	1821.238
-51.188	43.989	1738.425	1579.619
-50.173	41.217	1692.852	1517.073
-49.159	55.505	1728.962	1659.425
-48.144	60.978	1747.437	1719.091
-47.130	43.898	1711.301	1554.034
-46.115	40.785	1696.809	1517.078
-45.100	40.595	1692.716	1511.916
-44.086	40.592	1689.933	1509.346
-43.071	40.537	1687.392	1506.599
-42.057	40.613	1684.851	1504.844
-41.042	40.614	1682.297	1502.514
-40.027	40.654	1680.986	1501.582
-39.013	40.543	1679.341	1499.216
-37.998	40.605	1677.722	1498.178
-36.984	40.697	1676.187	1497.445
-35.969	40.754	1674.673	1496.459
-34.954	40.830	1672.694	1495.203
-33.940	40.745	1671.211	1493.184
-32.925	40.783	1669.710	1492.066
-31.911	40.734	1667.829	1489.957
-30.896	40.682	1666.443	1488.271
-29.881	40.736	1664.587	1486.961
-28.867	40.772	1662.952	1485.709
-27.852	40.764	1661.527	1484.318
-26.838	40.815	1659.887	1483.177
-25.823	40.768	1658.828	1481.819
-24.809	40.805	1657.433	1480.790
-23.794	40.800	1655.782	1479.221
-22.779	40.808	1654.120	1477.736
-21.765	40.827	1652.304	1476.198
-20.750	40.730	1651.061	1474.306
-19.736	40.717	1649.967	1473.170
-18.721	40.818	1648.217	1472.302
-17.706	40.769	1646.787	1470.604
-16.692	40.750	1645.120	1468.914
-15.677	40.818	1643.286	1467.719
-14.663	40.790	1642.385	1466.652
-13.648	40.751	1640.980	1465.048
-12.633	40.709	1639.760	1463.593
-11.619	40.731	1637.954	1462.086
-10.604	40.726	1636.034	1460.280
-9.590	40.883	1635.131	1460.565
-8.575	40.794	1633.634	1458.516
-7.560	40.813	1632.033	1457.169
-6.546	40.809	1631.339	1456.461
-5.531	40.692	1630.348	1454.666
-4.517	40.784	1629.160	1454.221
-3.502	40.881	1627.784	1453.641
-2.487	40.749	1626.419	1451.404
-1.473	40.243	1614.247	1436.810
-0.458	36.659	1592.377	1391.568
0.556	31.573	1589.012	1348.223
1.571	28.554	1611.943	1345.450
2.586	27.575	1626.045	1349.857
3.600	24.159	1572.627	1280.882
4.615	13.409	1456.847	1114.461
5.629	3.407	1384.164	994.496
6.644	1.450	1374.024	974.581
7.659	1.348	1372.220	972.563
8.673	1.224	1371.732	971.332
9.688	1.208	1369.615	969.648
10.702	0.986	1366.860	966.192
11.717	4.601	1374.237	994.478
12.731	15.117	1394.548	1077.043
13.746	23.350	1408.878	1141.286
14.761	24.969	1410.817	1153.187
15.775	25.325	1410.203	1154.875
16.790	25.398	1409.893	1154.988
17.804	25.413	1409.558	1154.706
18.819	25.629	1409.170	1155.676
19.834	25.748	1408.123	1155.476
20.848	25.722	1407.317	1154.544
21.863	25.791	1406.186	1153.960
22.877	25.771	1405.894	1153.488
23.892	25.769	1404.802	1152.480
24.907	25.667	1404.189	1151.220
25.921	25.802	1402.765	1150.815
26.936	25.723	1401.966	1149.550
27.950	25.725	1401.104	1148.755
28.965	25.823	1399.278	1147.780
29.980	25.739	1398.545	1146.543
30.994	25.836	1396.951	1145.750
32.009	25.800	1396.176	1144.785
33.023	25.767	1394.928	1143.452
34.038	25.759	1393.775	1142.358
35.053	25.636	1392.726	1140.614
36.067	25.689	1391.427	1139.786
37.082	25.731	1391.128	1139.704
38.096	25.679	1389.992	1138.349
39.111	25.744	1389.148	1137.965
40.126	25.728	1388.718	1137.413
41.140	25.671	1387.963	1136.329
42.155	25.669	1387.539	1135.870
43.169	25.754	1387.478	1136.258
44.184	25.752	1387.144	1135.873
45.199	25.622	1386.819	1134.686
46.213	25.770	1386.297	1135.087
47.228	25.782	1385.372	1134.310
48.242	25.749	1384.221	1133.056
49.257	25.715	1382.710	1131.504
50.271	25.747	1381.016	1130.224
51.286	25.700	1380.303	1129.240
52.301	25.745	1378.946	1128.312
53.315	25.808	1377.923	1127.771
54.330	25.721	1377.226	1126.560
55.344	25.635	1376.471	1125.299
56.359	25.728	1374.743	1124.369
57.374	25.627	1374.470	1123.417
58.388	25.713	1373.638	1123.175
59.403	25.771	1373.011	1122.925
60.417	25.718	1372.059	1121.715
61.432	25.732	1371.389	1121.154
62.447	25.706	1370.852	1120.457
63.461	25.659	1369.882	1119.270
64.476	25.673	1368.686	1118.285
65.490	25.744	1367.728	1117.844
66.505	25.739	1365.654	1116.017
67.520	25.750	1364.389	1114.951
68.534	25.676	1363.946	1114.037
69.549	25.812	1362.590	1113.671
70.563	25.643	1362.087	1112.117
71.578	25.791	1360.687	1111.787
72.593	25.745	1360.312	1111.097
73.607	25.680	1359.363	1109.824
74.622	25.753	1358.409	1109.398
75.636	25.761	1357.765	1108.822
76.651	25.775	1356.737	1107.971
77.666	25.698	1356.506	1107.207
78.680	25.757	1355.915	1106.994
79.695	25.698	1355.134	1105.895
80.709	25.722	1354.145	1105.135
81.724	25.733	1353.385	1104.486
82.739	25.742	1352.141	1103.427
83.753	25.711	1351.688	1102.773
84.768	25.743	1350.400	1101.821
85.782	25.734	1349.069	1100.582
86.797	25.744	1348.232	1099.863
87.812	25.806	1347.081	1099.204
88.826	25.835	1345.985	1098.391
89.841	25.740	1344.966	1096.883
90.855	25.574	1344.315	1095.239
91.870	25.745	1343.123	1095.214
92.884	25.757	1342.514	1094.693
93.899	25.817	1341.684	1094.285
94.914	25.734	1340.800	1092.961
95.928	25.749	1339.831	1092.169
96.943	25.764	1339.211	1091.657
97.957	25.805	1338.572	1091.284
98.972	25.860	1337.200	1090.406
99.987	25.738	1336.642	1089.115
101.001	25.742	1335.840	1088.386
102.016	25.725	1334.950	1087.463
103.030	25.768	1334.278	1087.083
104.045	25.750	1333.357	1086.128
105.060	25.772	1332.206	1085.223
106.074	25.693	1331.195	1083.828
107.089	25.832	1329.974	1083.576
108.103	25.847	1329.034	1082.806
109.118	25.888	1327.988	1082.101
110.133	25.855	1326.598	1080.675
111.147	25.776	1325.555	1079.255
112.162	25.922	1324.138	1078.884
113.176	25.849	1323.092	1077.501
114.191	25.842	1322.458	1076.844
115.206	25.863	1321.326	1075.953
116.220	25.788	1320.829	1075.008
117.235	25.918	1318.944	1074.149
118.249	25.943	1318.309	1073.690
119.264	25.815	1317.614	1072.266
120.279	25.878	1317.126	1072.146
121.293	25.903	1315.758	1071.086
122.308	25.813	1315.421	1070.181
123.322	25.834	1314.624	1069.567
124.337	25.929	1313.526	1069.141
125.352	25.958	1312.303	1068.220
126.366	25.955	1311.529	1067.481
127.381	25.959	1310.466	1066.543
128.395	25.853	1310.153	1065.569
129.410	25.912	1308.773	1064.703
130.424	25.833	1308.175	1063.652
131.439	25.853	1307.557	1063.177
132.454	25.938	1306.786	1062.954
133.468	25.902	1306.021	1062.026
134.483	25.890	1305.457	1061.404
135.497	25.978	1304.072	1060.701
136.512	25.918	1303.256	1059.588
137.527	25.912	1302.517	1058.861
138.541	25.902	1301.169	1057.614
139.556	25.885	1300.130	1056.577
140.570	25.859	1299.155	1055.535
141.585	25.927	1298.018	1054.920
142.600	25.954	1296.856	1054.038
143.614	25.975	1296.066	1053.425
144.629	25.877	1295.198	1052.056
145.643	25.894	1293.900	1051.006
146.658	25.853	1292.671	1049.677
147.673	25.811	1292.166	1048.929
148.687	25.680	1291.593	1047.605
149.702	25.764	1290.044	1046.747
150.716	25.838	1288.764	1046.048
151.731	25.802	1287.750	1044.921
152.746	25.924	1286.619	1044.619
153.760	25.921	1285.557	1043.647
154.775	25.856	1284.506	1042.327
155.789	25.948	1283.619	1042.043
156.804	25.880	1282.619	1040.748
157.819	25.905	1281.962	1040.265
158.833	25.938	1281.243	1039.780
159.848	25.926	1280.489	1039.005
160.862	25.874	1279.967	1038.195
161.877	25.944	1278.936	1037.667
162.892	25.947	1277.908	1036.760
163.906	25.971	1277.619	1036.571
164.921	25.997	1276.607	1035.810
165.935	25.865	1276.211	1034.635
166.950	26.006	1275.406	1034.702
167.964	25.910	1274.894	1033.644
168.979	25.998	1274.224	1033.511
169.994	25.939	1273.342	1032.371
171.008	25.984	1272.506	1031.858
172.023	25.975	1272.211	1031.475
173.037	25.978	1271.028	1030.444
174.052	25.987	1270.364	1029.864
175.067	25.904	1269.724	1028.783
176.081	25.969	1268.823	1028.329
177.096	26.048	1267.812	1027.871
178.110	26.026	1267.440	1027.351
179.125	25.906	1266.254	1025.619
180.140	26.102	1264.843	1025.499
181.154	26.121	1263.696	1024.582
182.169	26.032	1262.723	1023.199
183.183	25.948	1262.286	1022.277
184.198	26.065	1260.750	1021.609
185.213	26.044	1260.036	1020.821
186.227	25.972	1259.344	1019.762
187.242	25.995	1258.358	1019.005
188.256	26.153	1257.304	1018.953
189.271	26.132	1256.552	1018.131
190.286	26.077	1255.955	1017.252
191.300	26.085	1255.286	1016.664
192.315	25.964	1254.801	1015.500
193.329	26.016	1254.277	1015.277
194.344	26.085	1254.269	1015.571
195.359	26.132	1253.393	1015.031
196.373	26.156	1252.569	1014.411
197.388	26.108	1251.958	1013.556
198.402	26.062	1252.206	1013.412
199.417	26.075	1251.692	1012.976
200.432	26.014	1251.250	1012.189
201.446	25.973	1250.761	1011.475
202.461	26.116	1249.585	1011.231
203.475	26.123	1248.764	1010.519
204.490	26.114	1248.042	1009.792
205.504	26.073	1246.906	1008.555
206.519	26.118	1246.008	1007.994
207.534	26.156	1245.005	1007.307
208.548	26.044	1244.508	1006.191
209.563	26.031	1243.611	1005.299
210.577	26.027	1243.029	1004.720
211.592	26.172	1241.513	1004.213
212.607	26.058	1241.275	1003.297
213.621	26.249	1240.271	1003.459
214.636	26.276	1239.499	1002.894
215.650	26.243	1238.673	1001.955
216.665	26.245	1237.386	1000.837
217.680	26.220	1236.751	1000.093
218.694	26.139	1236.111	999.042
219.709	26.175	1235.344	998.530
220.723	26.092	1234.700	997.466
221.738	26.126	1233.709	996.764
222.753	26.148	1233.013	996.235
223.767	26.159	1232.590	995.864
224.782	26.264	1231.944	995.831
225.796	26.288	1231.401	995.437
226.811	26.227	1230.920	994.623
227.826	26.289	1230.701	994.700
228.840	26.309	1229.913	994.086
229.855	26.207	1229.131	992.806
230.869	26.308	1228.139	992.474
231.884	26.312	1227.416	991.821
232.899	26.382	1226.802	991.621
233.913	26.256	1226.633	990.708
234.928	26.365	1225.898	990.623
235.942	26.358	1225.279	989.994
236.957	26.372	1224.524	989.375
237.972	26.374	1223.793	988.710
238.986	26.275	1223.266	987.656
240.001	26.389	1222.740	987.765
241.015	26.577	1221.375	987.601
242.030	26.492	1220.964	986.714
243.045	26.461	1220.260	985.890
244.059	26.528	1219.292	985.386
245.074	26.458	1218.514	984.289
246.088	26.577	1217.351	983.911
247.103	26.450	1217.067	982.905
248.117	26.446	1216.261	982.142
249.132	26.508	1215.538	981.809
250.147	26.586	1214.756	981.515
251.161	26.500	1214.269	980.566
252.176	26.456	1213.410	979.547
253.190	26.591	1212.421	979.395
254.205	26.580	1212.121	979.008
255.220	26.467	1211.888	978.122
256.234	26.589	1210.925	977.915
257.249	26.585	1210.414	977.394
258.263	26.584	1209.482	976.552
259.278	26.691	1209.229	976.837
260.293	26.536	1208.747	975.526
261.307	26.609	1208.456	975.596
262.322	26.595	1207.374	974.562
263.336	26.562	1206.660	973.723
264.351	26.638	1206.468	973.888
265.366	26.511	1206.390	973.059
266.380	26.617	1204.892	972.330
267.395	26.588	1204.204	971.536
268.409	26.552	1203.785	970.918
269.424	26.605	1202.976	970.463
270.439	26.631	1202.561	970.182
271.453	26.580	1202.272	969.589
272.468	26.520	1201.300	968.398
273.482	26.614	1200.381	968.076
274.497	26.587	1200.334	967.807
275.512	26.659	1199.552	967.474
276.526	26.569	1198.954	966.428
277.541	26.694	1197.902	966.161
278.555	26.670	1197.581	965.688
279.570	26.620	1197.182	965.016
280.585	26.692	1195.578	964.022
281.599	26.785	1194.446	963.517
282.614	26.770	1193.921	962.926
283.628	26.681	1193.188	961.777
284.643	26.683	1192.432	961.094
285.657	26.775	1191.630	960.853
286.672	26.637	1190.948	959.483
287.687	26.852	1189.841	959.649
288.701	26.852	1188.942	958.836
289.716	26.863	1188.534	958.480
290.730	26.909	1187.670	957.941
291.745	26.956	1186.920	957.499
292.760	26.897	1186.576	956.828
293.774	26.937	1185.889	956.399
294.789	26.872	1185.591	955.733
295.803	26.832	1185.104	955.044
296.818	26.841	1184.181	954.261
297.833	26.914	1183.619	954.108
298.847	26.985	1182.743	953.694
299.862	26.953	1181.928	952.781
300.876	26.968	1181.290	952.263
301.891	26.865	1180.719	951.179
302.906	27.071	1180.020	951.610
303.920	27.041	1179.487	950.937
304.935	26.949	1179.433	950.331
305.949	26.947	1178.269	949.298
306.964	26.970	1177.752	948.918
307.979	26.919	1177.153	948.085
308.993	26.963	1176.413	947.634
310.008	26.986	1175.615	947.026
311.022	27.000	1174.760	946.327
312.037	27.045	1174.207	946.031
313.052	26.951	1173.450	944.850
314.066	26.997	1172.612	944.329
315.081	27.160	1171.489	944.189
316.095	27.100	1171.055	943.442
317.110	27.086	1170.058	942.485
318.125	27.208	1169.543	942.619
319.139	27.063	1169.392	941.661
320.154	27.059	1168.641	940.952
321.168	27.099	1167.943	940.514
322.183	27.231	1167.047	940.393
323.197	26.967	1167.348	939.186
324.212	27.088	1166.312	938.898
325.227	27.168	1165.617	938.666
326.241	27.185	1165.474	938.556
327.256	27.177	1164.851	937.932
328.270	27.134	1163.722	936.717
329.285	27.154	1163.105	936.240
330.300	27.166	1161.957	935.292
331.314	27.179	1160.966	934.482
332.329	27.239	1160.378	934.234
333.343	27.317	1159.426	933.786
334.358	27.135	1159.361	932.713
335.373	27.250	1158.895	932.847
336.387	27.305	1157.515	931.938
337.402	27.386	1156.847	931.732
338.416	27.272	1156.417	930.719
339.431	27.400	1155.724	930.734
340.446	27.392	1155.186	930.176
341.460	27.327	1154.547	929.250
342.475	27.483	1153.386	929.026
343.489	27.581	1152.151	928.446
344.504	27.431	1151.858	927.368
345.519	27.436	1151.091	926.692
346.533	27.436	1150.273	925.954
347.548	27.410	1149.955	925.485
348.562	27.493	1148.688	924.802
349.577	27.358	1148.409	923.812
350.592	27.384	1147.165	922.859
351.606	27.389	1146.840	922.539
352.621	27.374	1146.323	921.970
353.635	27.407	1145.840	921.666
354.650	27.450	1144.855	921.008
355.665	27.450	1144.303	920.484
356.679	27.486	1143.789	920.170
357.694	27.430	1143.368	919.466
358.708	27.572	1142.218	919.179
359.723	27.526	1141.477	918.268
360.738	27.457	1140.958	917.421
361.752	27.467	1140.830	917.287
362.767	27.493	1140.162	916.799
363.781	27.660	1139.527	917.049
364.796	27.601	1138.783	916.073
365.810	27.612	1138.483	915.806
366.825	27.648	1137.593	915.190
367.840	27.734	1136.870	914.956
368.854	27.737	1136.605	914.679
369.869	27.655	1135.736	913.489
370.883	27.727	1135.109	913.261
371.898	27.632	1134.282	912.043
372.913	27.802	1133.958	912.551
373.927	27.797	1133.410	912.003
374.942	27.714	1133.100	911.259
375.956	27.772	1132.681	911.132
376.971	27.780	1131.866	910.436
377.986	27.743	1131.106	909.558
379.000	27.808	1130.808	909.562
380.015	27.807	1130.121	908.921
381.029	27.837	1129.250	908.295
382.044	27.781	1129.041	907.765
383.059	27.872	1128.151	907.422
384.073	27.850	1127.269	906.522
385.088	27.754	1126.302	905.189
386.102	27.853	1125.772	905.172
387.117	27.853	1124.629	904.172
388.132	27.795	1124.061	903.352
389.146	27.754	1123.929	902.961
390.161	27.958	1123.069	903.201
391.175	27.940	1121.963	902.139
392.190	27.947	1121.373	901.620
393.205	27.894	1120.639	900.692
394.219	28.078	1119.380	900.504
395.234	28.004	1119.327	900.020
396.248	28.039	1118.329	899.306
397.263	28.015	1117.313	898.293
398.278	28.025	1117.000	898.010
399.292	28.159	1116.452	898.147
400.307	28.184	1115.543	897.463
401.321	28.019	1115.401	896.458
402.336	27.970	1114.514	895.425
403.350	27.966	1114.049	894.956
404.365	28.116	1113.157	894.892
405.380	28.067	1112.486	894.033
406.394	28.064	1112.072	893.607
407.409	28.293	1110.678	893.527
408.423	28.308	1109.800	892.813
409.438	28.323	1109.423	892.503
410.453	28.284	1108.833	891.760
411.467	28.214	1108.302	890.912
412.482	28.249	1107.607	890.446
413.496	28.207	1106.946	889.630
414.511	28.140	1106.691	889.022
415.526	28.232	1105.818	888.689
416.540	28.213	1105.314	888.111
417.555	28.343	1104.442	887.963
418.569	28.289	1104.301	887.512
419.584	28.273	1104.189	887.267
420.599	28.478	1103.349	887.505
421.613	89.912	1302.650	1384.025
422.628	84.196	1331.691	1384.157
