DTS Sentinel unit serial number:	SN413079Multiplexer serial number:	ORYXHardware model number:	OX4-SRSoftware version number:	ORYX F/W v4.00 Oryx Data Collector v3.7.2.0data status	okinstallation	princeton_trtdifferential loss correction	single-endedforward channel	channel 2reverse channel	N/Adate	2019/09/15time	20:31:34forward acquisition time	60.00reverse acquisition time	0.00gamma	496.2192k internal	0.2329k external	0.2329temperature offset calibration	0.9935default loss term (dB/km)	0.3790temperature slope calibration	1.0000multiplexer offset coefficient	1.0000multiplexer slope coefficient	1.0000fibre end	0.00T internal ref (°C)	33.37T ext. ref 1 (°C)	7.83T ext. ref 2 (°C)	25.13length (m)	temperature (°C)	Stokes	anti-Stokes-747.200	14.637	-0.299	0.235
-746.185	-130.983	-0.341	0.046
-745.171	-131.375	0.155	0.021
-744.156	500.365	-0.059	0.137
-743.142	800.000	-0.078	0.223
-742.127	130.560	0.235	0.304
-741.112	800.000	0.067	0.238
-740.098	-200.000	0.029	0.208
-739.083	800.000	-0.067	0.266
-738.069	325.471	0.113	0.217
-737.054	180.475	-0.200	-0.295
-736.039	-0.623	0.213	0.152
-735.025	-52.473	0.176	0.082
-734.010	247.839	-0.199	-0.339
-732.996	256.431	0.121	0.209
-731.981	60.488	-0.163	-0.162
-730.966	44.670	-0.168	-0.156
-729.952	-8.554	0.109	0.073
-728.937	37.887	0.143	0.128
-727.923	-132.366	0.264	-0.034
-726.908	64.127	-0.250	0.253
-725.894	800.000	0.081	0.279
-724.879	378.698	-0.122	-0.251
-723.864	800.000	0.048	0.153
-722.850	-113.530	0.238	0.047
-721.835	208.869	-0.053	0.083
-720.821	-81.935	0.141	-0.046
-719.806	-104.256	-0.192	-0.045
-718.791	-98.005	-0.190	-0.049
-717.777	393.133	0.112	-0.234
-716.762	-185.571	-0.213	0.003
-715.748	139.660	0.131	0.174
-714.733	-111.986	-0.276	0.056
-713.718	-10.908	-0.189	-0.126
-712.704	-83.610	-0.133	0.043
-711.689	-53.593	-0.187	-0.086
-710.675	-200.000	0.002	0.114
-709.660	-169.654	-0.213	-0.008
-708.645	-56.148	-0.148	-0.066
-707.631	257.647	0.188	-0.326
-706.616	-34.159	0.142	-0.079
-705.602	275.308	0.138	-0.246
-704.587	-156.204	-0.213	0.013
-703.572	523.432	-0.012	0.028
-702.558	-30.478	0.112	-0.064
-701.543	-130.611	-0.277	0.038
-700.529	25.633	0.113	-0.095
-699.514	-200.000	-0.085	-0.418
-698.499	109.130	0.127	0.153
-697.485	231.528	-0.183	-0.301
-696.470	134.168	-0.176	-0.229
-695.456	-98.167	0.129	0.033
-694.441	-28.473	0.226	0.131
-693.426	-52.297	0.218	0.101
-692.412	443.476	0.077	0.169
-691.397	-200.000	0.019	0.091
-690.383	-98.610	-0.187	-0.048
-689.368	800.000	0.064	0.195
-688.354	344.578	0.201	0.395
-687.339	-200.000	0.000	0.218
-686.324	800.000	0.043	-0.173
-685.310	85.131	0.139	0.153
-684.295	575.882	0.048	-0.118
-683.281	-43.380	-0.215	-0.109
-682.266	800.000	-0.037	0.142
-681.251	800.000	-0.021	0.074
-680.237	-200.000	-0.030	-0.186
-679.222	-178.716	0.210	0.005
-678.208	-200.000	0.045	0.286
-677.193	-38.678	-0.197	0.104
-676.178	650.591	-0.038	-0.099
-675.164	328.602	-0.032	0.062
-674.149	-23.316	0.241	0.145
-673.135	-74.936	-0.197	-0.071
-672.120	-169.092	-0.198	0.007
-671.105	-200.000	0.039	0.173
-670.091	800.000	0.149	0.439
-669.076	130.712	-0.158	-0.203
-668.062	-2.906	0.169	-0.118
-667.047	17.238	0.206	0.164
-666.032	-27.184	-0.154	-0.090
-665.018	266.477	-0.204	0.359
-664.003	-155.346	0.091	0.006
-662.989	800.000	-0.072	0.313
-661.974	61.740	-0.168	-0.168
-660.959	-188.852	-0.466	-0.006
-659.945	-102.227	-0.204	-0.049
-658.930	-48.988	-0.137	0.066
-657.916	-200.000	-0.032	0.346
-656.901	14.842	0.052	0.041
-655.886	800.000	-0.067	-0.194
-654.872	97.711	-0.161	0.185
-653.857	800.000	-0.071	-0.243
-652.843	481.463	0.188	0.429
-651.828	-19.762	-0.071	0.044
-650.814	800.000	-0.089	-0.249
-649.799	-76.431	-0.261	0.092
-648.784	800.000	0.045	0.169
-647.770	108.413	0.143	-0.171
-646.755	-200.000	0.038	0.349
-645.741	-162.133	-0.162	-0.008
-644.726	-200.000	0.017	-0.555
-643.711	234.561	0.123	0.203
-642.697	-179.698	-0.284	0.006
-641.682	232.997	-0.258	-0.426
-640.668	-145.121	-0.156	0.014
-639.653	175.885	-0.221	-0.322
-638.638	204.342	-0.189	-0.294
-637.624	-200.000	-0.004	0.072
-636.609	-58.111	0.139	-0.061
-635.595	435.288	-0.024	0.051
-634.580	-200.000	0.022	0.112
-633.565	-200.000	-0.011	-0.127
-632.551	-69.010	-0.208	-0.081
-631.536	-104.560	-0.064	0.015
-630.522	-160.159	0.432	0.024
-629.507	262.270	0.055	-0.096
-628.492	72.603	-0.293	0.307
-627.478	-132.257	-0.238	-0.031
-626.463	-200.000	0.014	0.308
-625.449	-107.263	0.101	-0.022
-624.434	178.648	0.095	-0.139
-623.419	-22.712	0.151	-0.091
-622.405	-200.000	-0.020	-0.192
-621.390	-38.305	0.119	0.063
-620.376	-66.518	0.217	-0.086
-619.361	54.333	-0.129	-0.125
-618.346	472.467	0.075	-0.168
-617.332	142.961	-0.120	-0.160
-616.317	-200.000	-0.005	-0.231
-615.303	-29.647	0.149	-0.085
-614.288	275.523	0.145	0.257
-613.273	185.405	-0.054	0.081
-612.259	-39.407	0.291	-0.153
-611.244	-145.351	0.118	0.011
-610.230	-104.788	0.112	-0.026
-609.215	-104.486	-0.343	-0.079
-608.201	24.929	0.044	-0.037
-607.186	-145.994	0.227	0.020
-606.171	52.495	-0.141	-0.135
-605.157	-200.000	0.044	0.218
-604.142	187.589	0.258	0.386
-603.128	-200.000	-0.021	-0.179
-602.113	276.420	-0.028	0.049
-601.098	-42.219	-0.492	0.252
-600.084	-45.984	0.256	-0.127
-599.069	291.863	-0.127	-0.231
-598.055	800.000	-0.058	-0.202
-597.040	-200.000	0.026	0.283
-596.025	-135.076	0.181	-0.022
-595.011	-200.000	0.044	0.341
-593.996	-173.777	0.456	-0.014
-592.982	712.664	-0.143	0.379
-591.967	800.000	-0.043	0.155
-590.952	800.000	-0.130	0.361
-589.938	-28.611	0.281	-0.162
-588.923	15.801	0.129	-0.101
-587.909	417.189	-0.100	-0.213
-586.894	800.000	-0.020	0.068
-585.879	-94.170	0.427	-0.117
-584.865	-153.524	-0.240	0.017
-583.850	-200.000	-0.031	0.195
-582.836	-200.000	-0.049	-0.243
-581.821	-59.663	0.363	0.156
-580.806	-40.003	-0.271	0.142
-579.792	65.261	-0.081	-0.082
-578.777	0.959	0.100	0.072
-577.763	-28.764	0.228	0.131
-576.748	43.858	-0.102	0.094
-575.733	-174.858	-0.129	-0.004
-574.719	-200.000	-0.031	-0.139
-573.704	-161.208	0.178	0.009
-572.690	174.144	-0.116	-0.168
-571.675	25.150	-0.229	0.190
-570.661	284.542	0.088	0.158
-569.646	800.000	0.067	0.216
-568.631	-134.119	0.058	-0.007
-567.617	-55.042	-0.071	-0.032
-566.602	374.198	-0.115	-0.234
-565.588	-133.022	-0.179	-0.023
-564.573	-24.448	-0.274	-0.163
-563.558	-191.466	0.300	-0.003
-562.544	-200.000	0.048	-0.354
-561.529	108.785	0.013	-0.016
-560.515	-90.516	-0.121	-0.035
-559.500	-58.337	0.144	-0.062
-558.485	-17.467	0.062	-0.039
-557.471	52.900	-0.089	0.086
-556.456	800.000	-0.089	-0.284
-555.442	281.881	0.061	-0.109
-554.427	-139.753	0.295	-0.031
-553.412	-48.627	-0.101	0.049
-552.398	227.679	-0.081	-0.132
-551.383	63.301	-0.101	-0.101
-550.369	21.981	0.047	-0.038
-549.354	-97.162	-0.182	-0.048
-548.339	219.792	-0.073	0.117
-547.325	-67.784	-0.200	-0.078
-546.310	-200.000	-0.037	0.333
-545.296	-42.010	-0.107	-0.055
-544.281	800.000	0.010	0.032
-543.266	185.048	-0.161	-0.238
-542.252	173.730	0.078	-0.113
-541.237	-10.046	0.136	0.090
-540.223	-83.700	0.370	0.118
-539.208	-110.512	0.318	-0.066
-538.193	75.358	-0.333	0.351
-537.179	450.974	0.078	0.172
-536.164	-200.000	-0.003	-0.102
-535.150	533.396	-0.061	0.145
-534.135	186.330	-0.174	0.258
-533.121	175.093	-0.092	-0.133
-532.106	-71.849	0.344	-0.128
-531.091	-82.210	-0.138	0.045
-530.077	-52.185	-0.100	-0.046
-529.062	-17.025	-0.133	0.084
-528.048	570.656	-0.016	0.039
-527.033	183.878	0.073	-0.108
-526.018	266.856	0.027	0.047
-525.004	180.216	-0.103	0.151
-523.989	377.932	0.032	0.066
-522.975	-0.541	0.135	0.096
-521.960	-200.000	-0.015	-0.156
-520.945	11.566	0.065	0.050
-519.931	-200.000	-0.058	-0.294
-518.916	96.376	-0.187	-0.214
-517.902	16.731	0.086	0.068
-516.887	-200.000	0.270	-0.001
-515.872	491.164	-0.023	-0.053
-514.858	-21.042	0.130	0.079
-513.843	-43.003	0.240	0.121
-512.829	-200.000	-0.020	0.141
-511.814	-85.488	0.182	-0.057
-510.799	800.000	0.074	-0.252
-509.785	-36.135	-0.296	0.160
-508.770	-200.000	-0.014	-0.174
-507.756	-124.661	-0.084	-0.013
-506.741	800.000	-0.108	0.368
-505.726	-107.476	-0.472	-0.103
-504.712	-149.577	-0.304	0.024
-503.697	56.702	0.064	0.062
-502.683	34.520	0.138	0.120
-501.668	520.137	-0.226	0.529
-500.653	138.116	0.181	0.237
-499.639	-200.000	-0.023	-0.283
-498.624	-56.689	-0.285	0.126
-497.610	-47.804	-0.256	0.124
-496.595	31.649	-0.104	-0.089
-495.581	142.647	-0.139	0.185
-494.566	-200.000	0.089	-0.403
-493.551	-200.000	0.029	-0.182
-492.537	160.135	0.157	-0.219
-491.522	800.000	-0.025	0.097
-490.508	-94.943	-0.296	-0.080
-489.493	-14.553	0.315	0.202
-488.478	-24.017	0.377	0.225
-487.464	-57.545	0.187	-0.082
-486.449	165.512	-0.139	-0.195
-485.435	-2.103	0.149	0.104
-484.420	800.000	0.044	-0.167
-483.405	133.559	-0.183	-0.236
-482.391	132.712	0.226	-0.291
-481.376	-86.693	0.112	-0.034
-480.362	-33.141	0.198	0.109
-479.347	-63.359	0.008	0.003
-478.332	-200.000	0.044	-0.386
-477.318	-54.184	0.171	0.077
-476.303	-36.537	-0.075	-0.040
-475.289	-18.429	-0.038	-0.024
-474.274	-2.872	0.168	0.117
-473.259	156.264	-0.033	0.045
-472.245	800.000	0.037	0.131
-471.230	-121.764	-0.136	0.022
-470.216	-147.009	-0.072	0.006
-469.201	54.712	-0.253	-0.243
-468.186	311.764	-0.044	0.083
-467.172	63.477	0.178	0.177
-466.157	269.291	-0.032	-0.055
-465.143	-200.000	0.036	0.222
-464.128	-132.314	-0.253	-0.033
-463.113	-160.380	-0.163	0.009
-462.099	41.928	-0.131	0.119
-461.084	144.468	-0.062	-0.082
-460.070	-110.894	-0.030	-0.006
-459.055	-100.501	-0.123	0.030
-458.040	-200.000	-0.039	0.222
-457.026	297.076	-0.079	0.145
-456.011	-200.000	-0.044	-0.226
-454.997	2.662	0.128	-0.092
-453.982	-12.537	0.151	0.098
-452.968	-200.000	-0.002	0.036
-451.953	-200.000	0.300	0.001
-450.938	-125.635	-0.183	0.028
-449.924	-14.719	-0.138	-0.088
-448.909	309.349	0.136	-0.253
-447.895	59.133	0.173	-0.170
-446.880	86.700	0.344	-0.378
-445.865	-91.468	0.130	0.037
-444.851	-66.483	-0.035	0.014
-443.836	114.411	-0.242	-0.294
-442.822	388.045	0.016	-0.032
-441.807	-122.115	-0.147	-0.024
-440.792	296.649	0.195	0.356
-439.778	431.041	-0.248	0.534
-438.763	-83.259	0.352	0.113
-437.749	800.000	-0.045	0.165
-436.734	244.113	-0.022	0.037
-435.719	-150.145	0.143	-0.011
-434.705	43.139	-0.216	0.196
-433.690	12.097	0.037	-0.028
-432.676	166.764	0.308	0.434
-431.661	54.413	-0.119	0.114
-430.646	37.953	-0.182	-0.161
-429.632	244.538	0.135	-0.226
-428.617	190.067	-0.050	-0.075
-427.603	128.597	0.058	0.073
-426.588	-200.000	0.057	-0.274
-425.573	175.448	-0.192	-0.278
-424.559	768.143	0.154	0.417
-423.544	-74.475	-0.126	-0.045
-422.530	529.403	-0.124	-0.291
-421.515	24.191	-0.058	0.047
-420.500	-200.000	-0.011	0.139
-419.486	279.082	-0.131	0.232
-418.471	323.154	0.145	0.275
-417.457	-29.290	-0.085	-0.049
-416.442	182.472	0.088	0.129
-415.428	-79.113	-0.299	-0.101
-414.413	-35.033	-0.138	-0.075
-413.398	-18.469	0.074	-0.046
-412.384	-114.494	-0.325	0.062
-411.369	-154.317	0.076	-0.005
-410.355	-137.022	-0.029	0.003
-409.340	800.000	-0.044	-0.181
-408.325	-200.000	-0.088	-0.391
-407.311	-194.229	0.410	-0.003
-406.296	-7.218	0.198	0.133
-405.282	-200.000	-0.052	0.253
-404.267	-180.753	0.096	-0.002
-403.252	78.490	0.114	0.121
-402.238	28.033	0.173	0.145
-401.223	28.928	0.284	0.240
-400.209	334.267	0.019	0.037
-399.194	150.945	0.105	0.141
-398.179	-61.047	0.042	0.018
-397.165	-173.438	-0.358	-0.011
-396.150	67.896	0.090	-0.091
-395.136	-128.627	-0.087	0.012
-394.121	172.749	-0.020	-0.028
-393.106	-24.783	0.174	0.103
-392.092	-14.741	-0.086	-0.055
-391.077	367.959	0.153	-0.307
-390.063	800.000	0.082	-0.265
-389.048	618.839	-0.054	0.135
-388.033	22.919	-0.170	-0.139
-387.019	-200.000	0.023	0.273
-386.004	84.706	-0.118	-0.128
-384.990	-200.000	-0.009	0.056
-383.975	-102.374	0.170	0.040
-382.960	-50.806	0.303	0.142
-381.946	-171.669	0.268	-0.009
-380.931	-189.355	-0.069	-0.001
-379.917	465.750	-0.092	0.204
-378.902	2.856	0.241	0.173
-377.888	91.353	-0.117	0.130
-376.873	-131.558	0.142	-0.019
-375.858	800.000	0.022	-0.064
-374.844	-200.000	0.079	-0.483
-373.829	4.580	0.132	0.097
-372.815	-90.731	-0.084	-0.024
-371.800	-86.093	0.141	0.043
-370.785	-200.000	0.014	-0.249
-369.771	176.191	-0.208	-0.300
-368.756	-105.185	0.242	-0.055
-367.742	-101.917	0.051	-0.012
-366.727	51.139	0.031	0.030
-365.712	-200.000	0.013	-0.135
-364.698	-115.177	-0.335	0.063
-363.683	-60.192	0.259	0.110
-362.669	-200.000	-0.018	0.099
-361.654	-64.167	-0.196	-0.079
-360.639	-200.000	0.012	0.082
-359.625	28.734	0.204	0.171
-358.610	98.501	-0.142	0.162
-357.596	-200.000	0.013	0.225
-356.581	47.085	-0.212	0.196
-355.566	-200.000	0.040	0.177
-354.552	275.522	0.110	-0.194
-353.537	108.532	-0.143	0.170
-352.523	123.041	0.146	-0.181
-351.508	49.303	-0.168	-0.157
-350.493	12.352	-0.252	0.193
-349.479	72.349	-0.104	0.107
-348.464	-99.515	0.037	0.009
-347.450	139.544	-0.157	-0.204
-346.435	800.000	0.069	0.259
-345.420	-38.561	0.280	0.147
-344.406	446.841	0.028	0.062
-343.391	-174.666	0.152	0.004
-342.377	109.160	0.055	0.065
-341.362	-200.000	0.013	-0.143
-340.348	13.799	0.348	-0.268
-339.333	333.754	-0.148	-0.283
-338.318	800.000	0.058	-0.201
-337.304	39.424	-0.321	-0.285
-336.289	-200.000	0.022	-0.160
-335.275	-200.000	-0.010	0.146
-334.260	70.278	0.153	0.156
-333.245	293.897	-0.092	0.167
-332.231	25.444	-0.271	0.223
-331.216	280.153	0.049	0.087
-330.202	22.640	0.194	-0.157
-329.187	99.529	-0.170	-0.195
-328.172	-11.912	0.082	0.053
-327.158	93.436	0.077	-0.086
-326.143	266.889	-0.145	-0.251
-325.129	-120.393	-0.165	0.028
-324.114	58.584	0.284	0.276
-323.099	-200.000	0.007	-0.213
-322.085	88.082	0.153	-0.169
-321.070	241.372	-0.349	-0.578
-320.056	168.405	0.043	-0.061
-319.041	-27.524	-0.088	-0.051
-318.026	800.000	0.033	-0.109
-317.012	-188.051	0.220	0.003
-315.997	207.801	0.126	0.195
-314.983	78.521	0.085	0.090
-313.968	-24.419	-0.395	-0.233
-312.953	157.167	0.146	-0.199
-311.939	191.403	-0.075	-0.111
-310.924	36.688	0.120	0.105
-309.910	177.009	-0.240	0.346
-308.895	410.581	0.087	-0.182
-307.880	-200.000	-0.012	0.072
-306.866	742.401	0.050	0.133
-305.851	-155.525	-0.175	-0.011
-304.837	42.075	-0.203	-0.182
-303.822	-26.464	-0.188	0.109
-302.807	-8.858	0.293	0.195
-301.793	-200.000	0.003	0.133
-300.778	323.444	0.071	0.134
-299.764	-200.000	0.057	-0.323
-298.749	-200.000	0.023	-0.257
-297.735	91.524	0.065	-0.073
-296.720	69.175	-0.062	0.063
-295.705	-200.000	0.048	-0.250
-294.691	-7.760	0.268	-0.179
-293.676	-41.858	-0.230	-0.117
-292.662	-129.414	0.153	0.021
-291.647	266.391	0.070	0.120
-290.632	24.992	-0.122	-0.100
-289.618	-97.869	0.157	-0.040
-288.603	-80.128	-0.159	0.053
-287.589	-89.474	0.209	-0.061
-286.574	-43.536	0.134	-0.067
-285.559	-37.595	-0.145	0.076
-284.545	-40.968	-0.223	0.114
-283.530	-200.000	-0.005	-0.034
-282.516	-54.430	-0.123	0.055
-281.501	-140.413	0.190	-0.020
-280.486	-16.605	0.177	-0.111
-279.472	-200.000	-0.009	0.280
-278.457	83.384	0.057	0.061
-277.443	50.201	-0.077	0.072
-276.428	-27.440	-0.270	0.155
-275.413	-131.756	-0.108	0.014
-274.399	-200.000	0.041	0.440
-273.384	800.000	-0.089	-0.306
-272.370	-200.000	-0.001	-0.062
-271.355	-74.078	-0.207	-0.074
-270.340	-90.311	-0.334	-0.096
-269.326	71.300	-0.090	0.093
-268.311	34.235	-0.044	-0.038
-267.297	732.218	-0.141	0.374
-266.282	-200.000	-0.013	-0.103
-265.267	211.897	-0.069	0.108
-264.253	-95.677	-0.187	-0.050
-263.238	-63.648	-0.215	0.087
-262.224	46.328	0.057	-0.052
-261.209	399.210	-0.114	0.235
-260.195	304.964	0.246	0.451
-259.180	-135.214	-0.298	-0.035
-258.165	127.981	0.204	0.257
-257.151	-83.271	-0.204	0.065
-256.136	102.806	-0.071	-0.082
-255.122	-9.421	0.204	0.134
-254.107	-73.366	0.096	-0.035
-253.092	244.646	-0.097	-0.161
-252.078	800.000	-0.119	-0.406
-251.063	200.689	-0.062	-0.095
-250.049	55.642	-0.112	0.108
-249.034	-56.598	-0.277	-0.121
-248.019	21.691	-0.199	0.160
-247.005	-200.000	0.056	0.450
-245.990	249.236	-0.147	-0.247
-244.976	396.648	-0.018	0.037
-243.961	64.719	0.139	0.139
-242.946	-106.802	0.025	0.005
-241.932	105.020	-0.054	0.063
-240.917	-198.803	0.228	-0.001
-239.903	35.737	-0.217	-0.188
-238.888	-78.750	0.071	-0.024
-237.873	4.494	0.314	0.227
-236.859	-200.000	0.007	0.082
-235.844	232.551	-0.219	-0.355
-234.830	-126.225	-0.264	-0.039
-233.815	-48.832	-0.139	0.066
-232.800	-136.557	-0.367	-0.042
-231.786	-200.000	-0.068	-0.398
-230.771	-67.516	0.096	-0.037
-229.757	41.721	-0.060	-0.053
-228.742	43.748	-0.302	0.273
-227.727	-200.000	0.039	-0.297
-226.713	-152.680	-0.214	0.015
-225.698	-200.000	0.078	0.350
-224.684	-200.000	0.015	0.122
-223.669	-100.423	0.161	-0.039
-222.655	297.022	-0.088	-0.160
-221.640	18.299	0.117	-0.092
-220.625	81.280	0.190	0.202
-219.611	-98.634	0.371	0.093
-218.596	-131.324	-0.266	0.035
-217.582	800.000	-0.088	0.375
-216.567	19.099	-0.324	0.256
-215.552	598.268	0.046	-0.113
-214.538	9.742	-0.122	0.091
-213.523	32.519	0.231	0.197
-212.509	52.723	-0.020	-0.018
-211.494	-129.881	-0.365	0.049
-210.479	-200.000	0.024	-0.224
-209.465	-13.037	0.274	0.176
-208.450	61.830	0.148	-0.146
-207.436	-15.810	0.173	-0.109
-206.421	-187.519	-0.277	0.004
-205.406	-200.000	-0.044	-0.298
-204.392	-200.000	-0.023	-0.116
-203.377	94.178	0.031	-0.034
-202.363	136.181	0.092	-0.118
-201.348	58.650	0.235	-0.227
-200.333	-48.774	0.175	-0.083
-199.319	-97.184	0.168	-0.043
-198.304	-200.000	0.010	-0.154
-197.290	-12.995	0.231	-0.148
-196.275	156.515	-0.129	0.175
-195.260	800.000	0.095	0.278
-194.246	691.216	-0.104	-0.270
-193.231	180.130	-0.195	0.281
-192.217	-200.000	-0.073	-0.387
-191.202	800.000	-0.045	-0.140
-190.187	-200.000	0.024	0.144
-189.173	60.376	-0.177	-0.173
-188.158	11.948	-0.181	0.137
-187.144	-56.242	0.232	0.102
-186.129	-200.000	-0.050	0.290
-185.114	-55.123	-0.242	-0.107
-184.100	39.202	-0.190	0.167
-183.085	514.981	-0.093	0.213
-182.071	-200.000	-0.002	-0.037
-181.056	-123.586	0.358	-0.056
-180.042	-200.000	-0.026	0.435
-179.027	800.000	0.147	0.442
-178.012	163.861	-0.141	-0.196
-176.998	56.895	0.230	0.221
-175.983	-29.969	-0.017	0.010
-174.969	-136.708	0.173	0.020
-173.954	-85.706	0.568	0.174
-172.939	198.706	-0.059	0.089
-171.925	-42.703	0.507	-0.254
-170.910	-140.103	0.335	-0.035
-169.896	-113.972	-0.238	-0.045
-168.881	657.466	0.056	0.142
-167.866	-200.000	0.000	-0.173
-166.852	93.343	0.161	0.179
-165.837	245.656	-0.097	-0.161
-164.823	39.631	0.178	-0.157
-163.808	17.927	-0.030	-0.023
-162.793	-142.401	0.099	0.010
-161.779	800.000	0.026	0.091
-160.764	53.724	0.188	0.178
-159.750	-56.203	0.248	-0.108
-158.735	-200.000	-0.001	-0.474
-157.720	-200.000	0.003	-0.130
-156.706	-148.530	-0.322	0.026
-155.691	-164.375	-0.282	0.013
-154.677	-200.000	0.013	-0.282
-153.662	-43.155	0.362	-0.180
-152.647	194.809	0.181	0.270
-151.633	288.173	-0.039	-0.069
-150.618	48.477	-0.260	-0.240
-149.604	193.220	0.074	-0.111
-148.589	55.554	-0.084	0.080
-147.574	320.078	0.030	0.055
-146.560	-34.634	0.197	-0.106
-145.545	-125.254	0.293	0.044
-144.531	246.515	0.015	0.024
-143.516	-180.125	0.225	0.005
-142.502	800.000	0.112	0.335
-141.487	-138.441	-0.250	-0.027
-140.472	-152.177	-0.248	-0.018
-139.458	-179.180	0.410	0.009
-138.443	-149.512	-0.183	0.014
-137.429	-75.506	0.326	0.114
-136.414	288.795	-0.169	-0.301
-135.399	218.364	-0.099	0.155
-134.385	-25.474	-0.132	-0.077
-133.370	4.681	0.170	-0.123
-132.356	-86.291	0.192	0.058
-131.341	-45.855	0.348	-0.169
-130.326	-71.576	-0.426	-0.156
-129.312	-200.000	-0.009	-0.108
-128.297	-200.000	-0.021	-0.337
-127.283	-4.235	0.186	-0.127
-126.268	-80.276	-0.338	-0.111
-125.253	156.405	-0.129	-0.176
-124.239	-78.863	-0.236	-0.079
-123.224	-6.012	0.097	0.065
-122.210	92.089	0.171	0.190
-121.195	195.672	0.169	0.253
-120.180	-4.869	-0.238	0.161
-119.166	676.083	-0.104	0.265
-118.151	143.704	-0.046	-0.060
-117.137	739.872	-0.068	0.179
-116.122	15.528	-0.305	-0.236
-115.107	-200.000	-0.043	-0.291
-114.093	-80.118	-0.200	-0.066
-113.078	87.314	-0.095	-0.103
-112.064	119.184	-0.227	0.276
-111.049	-108.299	-0.102	0.022
-110.034	40.218	-0.209	-0.185
-109.020	-93.382	0.303	0.082
-108.005	-54.369	0.069	0.031
-106.991	800.000	0.065	0.243
-105.976	-7.851	-0.026	-0.017
-104.962	-200.000	0.005	0.034
-103.947	-159.842	-0.159	0.009
-102.932	13.648	0.144	-0.110
-101.918	38.164	0.287	-0.250
-100.903	-200.000	-0.026	0.324
-99.889	106.604	-0.077	-0.090
-98.874	345.525	0.209	-0.404
-97.859	311.183	-0.132	-0.243
-96.845	-114.627	-0.283	-0.053
-95.830	-200.000	-0.022	-0.106
-94.816	-200.000	0.017	0.134
-93.801	44.659	-0.204	0.184
-92.786	-153.745	-0.144	0.010
-91.772	392.377	-0.064	0.131
-90.757	-158.475	-0.233	-0.013
-89.743	-83.584	0.064	-0.020
-88.728	-93.197	-0.132	0.036
-87.713	246.299	0.112	0.185
-86.699	-90.940	0.170	0.048
-85.684	0.253	0.156	0.109
-84.670	394.613	0.109	-0.223
-83.655	247.009	-0.163	-0.270
-82.640	-8.829	-0.192	0.126
-81.626	-169.316	0.275	0.010
-80.611	-200.000	0.030	-0.218
-79.597	-15.597	0.020	0.012
-78.582	800.000	0.047	0.157
-77.567	-200.000	-0.024	0.113
-76.553	-57.517	-0.413	0.178
-75.538	-14.132	-0.071	0.045
-74.524	132.482	0.070	0.089
-73.509	-74.229	-0.306	-0.109
-72.494	168.007	0.016	0.022
-71.480	-200.000	-0.023	0.412
-70.465	5.327	0.224	-0.162
-69.451	60.134	0.135	0.130
-68.436	4.298	-0.231	-0.166
-67.422	-105.750	-0.308	0.068
-66.407	488.001	-0.038	-0.084
-65.392	-200.000	-0.037	-0.179
-64.378	-56.525	0.159	0.069
-63.363	-33.944	-0.418	0.226
-62.349	-200.000	0.017	0.074
-61.334	137.932	-0.747	-0.960
-60.319	29.690	0.652	0.544
-59.305	-200.000	-0.145	-0.964
-58.290	668.493	0.456	1.156
-57.276	199.125	0.763	1.146
-56.261	-200.000	91.615	563.329
-55.246	582.856	1346.556	3239.462
-54.232	166.881	2519.372	3503.722
-53.217	107.788	2255.780	2633.567
-52.203	42.662	1888.396	1685.243
-51.188	36.650	1679.940	1454.127
-50.173	33.872	1636.186	1395.821
-49.159	51.821	1681.251	1568.132
-48.144	53.279	1698.572	1595.066
-47.130	36.298	1660.080	1434.099
-46.115	33.510	1645.928	1401.238
-45.100	33.309	1640.549	1395.116
-44.086	33.375	1638.014	1393.394
-43.071	33.319	1635.610	1390.878
-42.057	33.292	1633.113	1388.505
-41.042	33.309	1631.268	1387.008
-40.027	33.323	1629.191	1385.292
-39.013	33.256	1627.249	1383.092
-37.998	33.177	1626.393	1381.732
-36.984	33.364	1624.531	1381.457
-35.969	33.367	1622.932	1380.065
-34.954	33.361	1621.644	1378.871
-33.940	33.311	1619.947	1377.014
-32.925	33.299	1618.279	1375.450
-31.911	33.311	1616.265	1373.773
-30.896	33.424	1614.852	1373.336
-29.881	33.303	1613.032	1370.859
-28.867	33.474	1611.458	1370.704
-27.852	33.465	1610.213	1369.523
-26.838	33.350	1608.885	1367.508
-25.823	33.339	1607.651	1366.330
-24.809	33.429	1605.597	1365.179
-23.794	33.429	1603.973	1363.745
-22.779	33.395	1603.286	1362.857
-21.765	33.490	1601.002	1361.546
-20.750	33.315	1600.126	1359.488
-19.736	33.381	1598.550	1358.573
-18.721	33.424	1596.672	1357.228
-17.706	33.412	1595.635	1356.207
-16.692	33.349	1593.653	1354.017
-15.677	33.440	1592.205	1353.388
-14.663	33.428	1591.043	1352.261
-13.648	33.465	1589.693	1351.320
-12.633	33.399	1588.526	1349.806
-11.619	33.376	1586.502	1347.865
-10.604	33.345	1585.378	1346.639
-9.590	33.424	1583.848	1345.848
-8.575	33.419	1582.631	1344.722
-7.560	33.438	1581.585	1343.914
-6.546	33.481	1580.481	1343.229
-5.531	33.369	1579.707	1341.724
-4.517	33.433	1577.814	1340.519
-3.502	33.454	1576.976	1339.900
-2.487	33.515	1575.314	1338.867
-1.473	32.869	1563.030	1323.843
-0.458	29.118	1541.869	1279.857
0.556	22.123	1539.563	1239.030
1.571	19.125	1561.787	1235.327
2.586	18.200	1574.499	1238.578
3.600	16.721	1524.439	1188.719
4.615	12.674	1425.684	1084.992
5.629	8.802	1367.266	1015.930
6.644	7.912	1359.880	1004.736
7.659	7.852	1358.574	1003.303
8.673	7.847	1357.328	1002.263
9.688	7.710	1355.773	1000.163
10.702	7.557	1352.704	996.852
11.717	9.418	1355.318	1010.384
12.731	13.820	1362.884	1043.673
13.746	16.782	1367.566	1065.833
14.761	16.977	1366.765	1066.338
15.775	15.944	1364.123	1057.696
16.790	14.954	1361.706	1049.520
17.804	14.095	1359.381	1042.258
18.819	13.733	1357.461	1038.423
19.834	13.386	1356.300	1035.277
20.848	13.199	1355.022	1033.040
21.863	13.000	1353.500	1030.545
22.877	12.862	1352.582	1028.890
23.892	12.704	1351.940	1027.328
24.907	12.798	1350.772	1026.936
25.921	12.739	1350.274	1026.100
26.936	12.801	1349.351	1025.693
27.950	12.839	1348.669	1025.318
28.965	12.899	1347.370	1024.616
29.980	12.881	1346.084	1023.435
30.994	13.116	1344.758	1023.795
32.009	13.079	1343.316	1022.373
33.023	13.137	1341.999	1021.638
34.038	12.945	1341.041	1019.633
35.053	12.971	1339.659	1018.656
36.067	12.956	1338.513	1017.600
37.082	12.948	1337.569	1016.744
38.096	13.003	1336.801	1016.410
39.111	13.027	1336.275	1016.062
40.126	12.965	1335.302	1014.854
41.140	12.756	1334.646	1012.981
42.155	12.678	1333.990	1011.915
43.169	12.733	1333.704	1011.948
44.184	12.675	1333.405	1011.274
45.199	12.725	1332.873	1011.087
46.213	12.789	1332.574	1011.163
47.228	12.851	1331.381	1010.549
48.242	12.931	1330.307	1010.135
49.257	12.880	1329.178	1008.872
50.271	12.860	1327.647	1007.503
51.286	12.877	1326.580	1006.710
52.301	12.816	1325.320	1005.291
53.315	12.801	1323.800	1003.957
54.330	12.811	1323.050	1003.358
55.344	12.790	1321.550	1002.008
56.359	12.715	1320.888	1000.960
57.374	12.684	1319.786	999.846
58.388	12.699	1319.140	999.361
59.403	12.606	1319.118	998.692
60.417	12.677	1318.030	998.209
61.432	12.663	1317.107	997.338
62.447	12.565	1316.136	995.921
63.461	12.511	1315.076	994.704
64.476	12.630	1313.565	994.192
65.490	12.519	1312.671	992.755
66.505	12.633	1311.238	992.270
67.520	12.621	1309.846	991.061
68.534	12.587	1309.006	990.128
69.549	12.631	1307.997	989.546
70.563	12.659	1306.914	988.809
71.578	12.619	1305.629	987.508
72.593	12.537	1304.520	986.087
73.607	12.577	1304.024	985.867
74.622	12.584	1303.318	985.287
75.636	12.633	1302.445	984.834
76.651	12.531	1302.248	983.989
77.666	12.567	1301.812	983.783
78.680	12.567	1301.298	983.311
79.695	12.571	1300.348	982.530
80.709	12.569	1299.703	981.943
81.724	12.614	1298.618	981.302
82.739	12.667	1298.195	981.216
83.753	12.715	1297.379	980.797
84.768	12.879	1296.233	980.819
85.782	12.938	1294.953	980.115
86.797	12.993	1293.602	979.329
87.812	12.798	1292.799	977.477
88.826	12.754	1291.794	976.372
89.841	12.872	1290.326	975.877
90.855	12.879	1289.395	975.126
91.870	12.721	1288.997	973.807
92.884	12.936	1287.891	974.151
93.899	13.002	1287.235	973.960
94.914	13.054	1286.062	973.292
95.928	12.942	1285.525	972.142
96.943	12.946	1284.608	971.384
97.957	13.017	1283.646	970.992
98.972	12.922	1282.916	969.793
99.987	12.970	1281.906	969.223
101.001	12.898	1281.244	968.218
102.016	12.910	1279.840	967.139
103.030	12.961	1279.488	967.084
104.045	12.860	1278.342	965.543
105.060	12.751	1277.422	964.127
106.074	12.889	1275.719	963.559
107.089	12.777	1274.466	961.875
108.103	12.634	1273.011	959.860
109.118	12.684	1271.879	959.210
110.133	12.661	1270.883	958.243
111.147	12.713	1269.059	957.084
112.162	12.768	1267.674	956.273
113.176	12.906	1266.739	956.284
114.191	12.837	1265.833	955.117
115.206	12.739	1265.257	954.031
116.220	12.703	1263.695	952.558
117.235	12.703	1262.754	951.763
118.249	12.759	1261.333	950.936
119.264	12.763	1260.602	950.322
120.279	12.789	1259.562	949.605
121.293	12.795	1258.152	948.491
122.308	12.723	1257.263	947.324
123.322	12.735	1256.309	946.586
124.337	12.760	1255.078	945.719
125.352	12.740	1254.157	944.829
126.366	12.642	1253.211	943.471
127.381	12.721	1251.875	942.834
128.395	12.724	1250.915	942.047
129.410	12.662	1249.864	940.813
130.424	12.708	1249.557	940.764
131.439	12.663	1249.020	940.020
132.454	12.774	1247.353	939.312
133.468	12.782	1247.138	939.115
134.483	12.785	1246.253	938.381
135.497	12.813	1245.061	937.561
136.512	12.828	1243.582	936.448
137.527	12.867	1242.254	935.589
138.541	12.884	1240.743	934.465
139.556	12.922	1239.785	933.873
140.570	12.868	1238.662	932.643
141.585	13.024	1236.906	932.116
142.600	12.833	1237.016	931.038
143.614	12.944	1236.170	930.947
144.629	13.094	1234.547	930.489
145.643	13.029	1233.395	929.173
146.658	12.897	1232.532	927.693
147.673	12.930	1230.820	926.509
148.687	12.965	1229.541	925.663
149.702	12.833	1228.431	924.007
150.716	12.867	1227.014	923.047
151.731	12.856	1226.315	922.380
152.746	12.954	1224.621	921.571
153.760	12.871	1224.173	920.690
154.775	13.043	1222.632	920.409
155.789	13.018	1221.619	919.423
156.804	13.009	1220.684	918.586
157.819	13.086	1219.500	918.046
158.833	13.213	1218.190	917.681
159.848	13.150	1217.619	916.821
160.862	13.182	1216.892	916.372
161.877	13.046	1215.386	914.400
162.892	13.039	1214.344	913.498
163.906	13.016	1213.338	912.536
164.921	12.941	1212.493	911.404
165.935	13.101	1211.502	911.461
166.950	13.049	1211.214	910.878
167.964	13.079	1210.370	910.329
168.979	13.110	1209.638	909.864
169.994	13.168	1208.557	909.292
171.008	13.155	1208.208	908.877
172.023	13.129	1207.688	908.261
173.037	13.218	1206.451	907.740
174.052	13.123	1205.774	906.631
175.067	13.009	1204.849	905.227
176.081	13.131	1203.597	904.878
177.096	13.033	1202.800	903.660
178.110	13.244	1201.542	903.791
179.125	13.219	1200.497	902.788
180.140	13.147	1199.586	901.628
181.154	13.159	1198.073	900.475
182.169	13.200	1197.178	899.949
183.183	13.235	1195.939	899.126
184.198	13.243	1195.084	898.449
185.213	13.380	1193.701	898.073
186.227	13.372	1192.539	897.073
187.242	13.331	1191.680	896.131
188.256	13.401	1190.737	895.717
189.271	13.433	1189.612	894.967
190.286	13.263	1188.863	893.408
191.300	13.189	1188.156	892.397
192.315	13.207	1186.777	891.376
193.329	13.028	1186.856	890.392
194.344	13.118	1186.001	890.158
195.359	13.317	1185.217	890.561
196.373	13.304	1184.729	890.046
197.388	13.367	1184.835	890.385
198.402	13.380	1184.450	890.087
199.417	13.550	1183.604	890.286
200.432	13.787	1182.193	890.418
201.446	13.662	1181.530	889.168
202.461	13.609	1180.745	888.219
203.475	13.587	1179.981	887.444
204.490	13.477	1178.761	885.861
205.504	13.463	1176.870	884.285
206.519	13.586	1175.726	884.007
207.534	13.560	1174.779	883.075
208.548	13.614	1173.924	882.643
209.563	13.638	1172.866	881.898
210.577	13.527	1172.187	880.720
211.592	13.612	1171.658	880.693
212.607	13.696	1170.743	880.378
213.621	13.763	1169.699	879.868
214.636	13.633	1168.946	878.538
215.650	13.672	1167.968	877.931
216.665	13.693	1166.839	877.113
217.680	13.853	1166.118	877.340
218.694	13.769	1165.500	876.356
219.709	13.748	1164.623	875.503
220.723	13.752	1164.272	875.186
221.738	13.911	1162.721	874.777
222.753	13.722	1162.385	873.452
223.767	13.837	1161.828	873.566
224.782	13.811	1161.238	872.908
225.796	13.919	1160.644	872.950
226.811	13.989	1159.441	872.335
227.826	13.928	1159.145	871.717
228.840	13.864	1158.383	870.728
229.855	13.857	1157.597	870.024
230.869	13.900	1156.432	869.298
231.884	13.805	1156.018	868.410
232.899	13.759	1155.139	867.434
233.913	13.803	1153.991	866.727
234.928	13.786	1153.559	866.238
235.942	13.733	1153.352	865.729
236.957	13.810	1152.177	865.171
237.972	13.801	1151.287	864.378
238.986	13.779	1150.484	863.586
240.001	13.845	1150.298	863.711
241.015	13.925	1148.985	863.063
242.030	13.944	1148.808	862.956
243.045	13.928	1147.947	862.149
244.059	13.930	1147.085	861.434
245.074	13.991	1146.182	860.997
246.088	14.090	1145.614	861.009
247.103	14.124	1144.721	860.434
248.117	14.156	1143.687	859.749
249.132	14.254	1143.204	859.813
250.147	14.207	1142.712	859.124
251.161	14.290	1142.125	859.035
252.176	14.284	1141.466	858.434
253.190	14.311	1141.089	858.214
254.205	14.484	1140.091	858.278
255.220	14.399	1139.483	857.304
256.234	14.472	1138.443	856.821
257.249	14.425	1138.090	856.239
258.263	14.396	1137.768	855.773
259.278	14.474	1136.855	855.409
260.293	14.306	1136.831	854.454
261.307	14.453	1135.971	854.487
262.322	14.486	1135.508	854.231
263.336	14.598	1134.532	853.997
264.351	14.630	1134.245	853.869
265.366	14.612	1133.282	852.976
266.380	14.655	1132.528	852.551
267.395	14.640	1131.493	851.619
268.409	14.503	1131.009	850.482
269.424	14.618	1130.272	850.439
270.439	14.616	1129.829	850.022
271.453	14.616	1128.956	849.286
272.468	14.503	1127.918	847.857
273.482	14.601	1127.218	847.757
274.497	14.450	1127.089	846.817
275.512	14.536	1126.579	846.796
276.526	14.562	1125.750	846.230
277.541	14.539	1124.882	845.383
278.555	14.629	1123.925	845.046
279.570	14.801	1123.167	845.269
280.585	14.691	1122.430	844.086
281.599	14.886	1121.409	844.228
282.614	14.771	1119.917	842.452
283.628	14.791	1119.268	841.991
284.643	14.874	1118.208	841.532
285.657	14.808	1118.040	841.001
286.672	14.753	1116.859	839.764
287.687	14.781	1115.742	838.989
288.701	14.754	1115.246	838.405
289.716	14.857	1114.263	838.108
290.730	14.826	1113.712	837.463
291.745	14.835	1112.837	836.777
292.760	14.872	1112.234	836.436
293.774	14.897	1111.670	836.062
294.789	14.974	1111.161	835.991
295.803	14.946	1110.771	835.481
296.818	14.948	1109.665	834.589
297.833	14.933	1108.670	833.689
298.847	14.851	1108.022	832.720
299.862	14.931	1107.552	832.689
300.876	14.972	1106.879	832.319
301.891	15.000	1105.677	831.479
302.906	15.017	1105.845	831.617
303.920	15.103	1105.066	831.383
304.935	15.054	1104.423	830.581
305.949	15.173	1103.507	830.410
306.964	15.273	1102.909	830.382
307.979	15.238	1102.020	829.467
308.993	15.017	1101.570	827.960
310.008	15.099	1100.630	827.588
311.022	15.204	1099.944	827.517
312.037	15.196	1098.894	826.612
313.052	15.143	1098.058	825.651
314.066	15.087	1097.424	824.823
315.081	15.150	1095.946	823.948
316.095	15.146	1095.097	823.222
317.110	15.058	1095.101	822.717
318.125	15.050	1094.408	822.085
319.139	15.107	1093.600	821.685
320.154	15.106	1093.243	821.336
321.168	15.147	1092.385	820.822
322.183	15.154	1091.436	820.070
323.197	15.148	1091.221	819.807
324.212	15.269	1090.517	819.799
325.227	15.167	1090.125	818.930
326.241	15.213	1089.502	818.616
327.256	15.269	1088.321	817.930
328.270	15.306	1087.284	817.256
329.285	15.208	1086.740	816.298
330.300	15.230	1085.991	815.769
331.314	15.265	1084.943	815.085
332.329	15.227	1083.963	814.091
333.343	15.414	1083.092	814.269
334.358	15.284	1082.452	813.085
335.373	15.369	1081.821	812.952
336.387	15.564	1080.640	812.939
337.402	15.514	1080.416	812.454
338.416	15.431	1079.831	811.540
339.431	15.381	1079.089	810.670
340.446	15.472	1078.555	810.637
341.460	15.566	1077.812	810.461
342.475	15.623	1077.232	810.226
343.489	15.604	1075.993	809.135
344.504	15.660	1075.237	808.762
345.519	15.735	1074.176	808.255
346.533	15.702	1073.487	807.506
347.548	15.831	1072.605	807.387
348.562	15.706	1072.088	806.327
349.577	15.709	1071.444	805.789
350.592	15.567	1070.346	804.209
351.606	15.648	1069.801	804.118
352.621	15.572	1069.121	803.172
353.635	15.635	1068.415	802.871
354.650	15.531	1067.958	801.959
355.665	15.580	1067.394	801.702
356.679	15.791	1066.494	801.956
357.694	15.659	1066.310	801.122
358.708	15.729	1065.818	801.012
359.723	15.761	1064.577	800.160
360.738	15.777	1063.907	799.665
361.752	15.711	1063.772	799.178
362.767	15.863	1063.185	799.386
363.781	15.872	1062.504	798.846
364.796	15.816	1062.244	798.316
365.810	15.944	1061.650	798.406
366.825	15.895	1061.194	797.762
367.840	15.976	1060.466	797.527
368.854	16.109	1059.689	797.498
369.869	16.090	1058.969	796.797
370.883	15.982	1057.909	795.419
371.898	15.935	1057.171	794.573
372.913	16.062	1056.642	794.704
373.927	15.992	1056.357	794.087
374.942	16.067	1055.898	794.024
375.956	16.127	1055.180	793.700
376.971	16.080	1054.451	792.859
377.986	16.125	1053.811	792.518
379.000	16.200	1053.625	792.660
380.015	16.235	1052.749	792.097
381.029	16.330	1052.240	792.087
382.044	16.294	1051.798	791.516
383.059	16.333	1050.703	790.806
384.073	16.199	1050.503	789.958
385.088	16.343	1049.292	789.653
386.102	16.325	1048.438	788.855
387.117	16.188	1047.428	787.386
388.132	16.167	1046.497	786.517
389.146	16.183	1045.853	786.037
390.161	16.249	1045.115	785.723
391.175	16.353	1044.038	785.327
392.190	16.319	1043.561	784.739
393.205	16.315	1043.034	784.257
394.219	16.298	1042.126	783.425
395.234	16.356	1041.286	782.993
396.248	16.297	1040.134	781.783
397.263	16.262	1039.254	780.894
398.278	16.280	1038.450	780.304
399.292	16.270	1037.966	779.825
400.307	16.231	1037.481	779.208
401.321	16.316	1036.440	778.751
402.336	16.271	1035.858	778.035
403.350	16.273	1035.274	777.541
404.365	16.260	1034.825	777.072
405.380	16.470	1033.664	777.098
406.394	16.405	1033.263	776.431
407.409	16.506	1032.373	776.153
408.423	16.565	1031.507	775.705
409.438	16.617	1030.968	775.472
410.453	16.600	1030.559	775.017
411.467	16.759	1029.895	775.177
412.482	16.698	1029.054	774.194
413.496	16.616	1028.470	773.312
414.511	16.664	1027.937	773.063
415.526	16.699	1027.855	773.092
416.540	16.855	1027.259	773.289
417.555	16.961	1026.464	773.104
418.569	16.747	1026.201	771.862
419.584	16.818	1025.433	771.539
420.599	16.774	1025.253	771.134
421.613	100.950	1316.932	1455.721
422.628	92.250	1359.412	1455.833
