DTS Sentinel unit serial number:	SN413079Multiplexer serial number:	ORYXHardware model number:	OX4-SRSoftware version number:	ORYX F/W v4.00 Oryx Data Collector v3.7.2.0data status	okinstallation	princeton_trtdifferential loss correction	single-endedforward channel	channel 2reverse channel	N/Adate	2019/09/18time	23:23:35forward acquisition time	60.00reverse acquisition time	0.00gamma	496.2192k internal	0.2350k external	0.2350temperature offset calibration	1.0015default loss term (dB/km)	0.3790temperature slope calibration	1.0000multiplexer offset coefficient	1.0000multiplexer slope coefficient	1.0000fibre end	0.00T internal ref (°C)	23.78T ext. ref 1 (°C)	0.77T ext. ref 2 (°C)	16.90length (m)	temperature (°C)	Stokes	anti-Stokes-747.200	-13.252	-0.081	-0.053
-746.185	-200.000	0.003	0.220
-745.171	-200.000	-0.034	-0.239
-744.156	382.470	-0.147	0.301
-743.142	-193.950	-0.288	-0.002
-742.127	14.160	-0.208	0.161
-741.112	-112.326	-0.351	0.070
-740.098	5.326	-0.068	0.050
-739.083	800.000	0.125	-0.388
-738.069	-163.701	-0.178	-0.008
-737.054	-89.819	0.136	-0.040
-736.039	-143.953	-0.613	-0.058
-735.025	-87.439	0.349	-0.106
-734.010	526.312	-0.134	0.315
-732.996	-200.000	0.016	-0.154
-731.981	-67.118	-0.297	0.117
-730.966	296.971	-0.088	-0.161
-729.952	-200.000	-0.013	0.220
-728.937	-200.000	-0.007	0.189
-727.923	511.671	-0.135	0.313
-726.908	-39.060	-0.282	0.148
-725.894	-41.310	0.325	0.167
-724.879	-89.166	0.202	0.059
-723.864	86.905	-0.170	-0.187
-722.850	800.000	0.037	0.144
-721.835	205.751	-0.120	-0.186
-720.821	730.072	0.044	-0.118
-719.806	487.316	-0.085	-0.193
-718.791	-80.721	0.031	-0.010
-717.777	279.139	0.147	-0.262
-716.762	148.282	-0.184	-0.247
-715.748	211.348	-0.176	-0.277
-714.733	269.204	-0.082	0.144
-713.718	203.392	0.130	-0.201
-712.704	81.149	0.349	-0.376
-711.689	-124.914	-0.197	-0.030
-710.675	85.479	-0.062	-0.068
-709.660	-200.000	0.047	-0.356
-708.645	-110.057	-0.192	-0.040
-707.631	284.589	0.149	-0.268
-706.616	-111.062	0.076	0.016
-705.602	-80.970	-0.217	-0.072
-704.587	-27.054	0.199	0.116
-703.572	-200.000	-0.107	0.630
-702.558	-200.000	-0.017	-0.151
-701.543	750.474	0.009	-0.023
-700.529	-99.339	0.214	0.054
-699.514	475.208	-0.067	0.150
-698.499	-97.813	-0.375	-0.097
-697.485	147.584	0.089	-0.120
-696.470	-146.094	0.240	-0.021
-695.456	393.266	-0.081	-0.167
-694.441	-134.618	-0.172	-0.021
-693.426	800.000	0.067	0.184
-692.412	-200.000	-0.004	0.061
-691.397	-73.823	-0.401	0.145
-690.383	800.000	-0.020	-0.085
-689.368	51.904	0.091	-0.086
-688.354	-200.000	0.058	-0.361
-687.339	-96.151	-0.072	0.019
-686.324	7.932	-0.066	0.049
-685.310	634.333	-0.068	-0.172
-684.295	800.000	-0.009	-0.037
-683.281	-149.612	0.178	-0.014
-682.266	-63.422	-0.212	-0.087
-681.251	800.000	-0.023	0.091
-680.237	-14.392	0.013	0.008
-679.222	-69.168	-0.125	-0.048
-678.208	-57.125	0.092	0.040
-677.193	800.000	0.075	0.294
-676.178	800.000	-0.126	-0.449
-675.164	118.547	0.118	0.145
-674.149	399.941	-0.086	-0.180
-673.135	-69.501	-0.252	0.096
-672.120	259.451	-0.068	-0.117
-671.105	75.196	-0.261	-0.274
-670.091	800.000	0.061	-0.254
-669.076	-88.615	-0.138	-0.041
-668.062	-80.439	0.169	0.056
-667.047	-104.016	0.304	-0.070
-666.032	-200.000	-0.022	-0.244
-665.018	122.367	0.098	0.122
-664.003	-36.071	0.177	-0.095
-662.989	-12.939	-0.155	0.101
-661.974	61.908	-0.299	-0.297
-660.959	-200.000	-0.024	0.234
-659.945	299.563	0.141	-0.259
-658.930	225.786	-0.104	0.167
-657.916	800.000	0.012	0.034
-656.901	-200.000	0.015	-0.381
-655.886	-110.518	-0.060	-0.012
-654.872	-200.000	0.005	-0.112
-653.857	-153.369	-0.300	0.021
-652.843	-35.958	0.269	0.145
-651.828	352.966	-0.081	0.161
-650.814	-22.008	0.032	-0.020
-649.799	6.356	-0.183	0.135
-648.784	-200.000	-0.013	0.120
-647.770	800.000	0.073	0.294
-646.755	-51.766	-0.322	-0.149
-645.741	132.593	-0.234	0.301
-644.726	311.265	0.086	0.160
-643.711	211.653	-0.003	-0.004
-642.697	98.204	0.172	-0.197
-641.682	98.759	-0.029	0.033
-640.668	-124.430	0.089	-0.014
-639.653	-168.539	-0.332	0.013
-638.638	-141.798	0.327	0.033
-637.624	76.757	0.047	0.049
-636.609	-200.000	0.038	-0.187
-635.595	0.524	0.051	-0.036
-634.580	477.602	0.014	0.031
-633.565	-200.000	-0.026	0.245
-632.551	-168.400	0.395	0.015
-631.536	-200.000	-0.034	0.227
-630.522	-97.151	0.214	-0.056
-629.507	-200.000	-0.008	-0.230
-628.492	190.510	-0.077	-0.115
-627.478	148.736	-0.123	-0.165
-626.463	-17.090	0.272	0.171
-625.449	183.634	0.061	0.089
-624.434	-132.013	0.312	-0.040
-623.419	39.082	0.195	-0.173
-622.405	-200.000	-0.012	-0.353
-621.390	57.601	-0.385	-0.373
-620.376	-1.842	-0.360	0.251
-619.361	-200.000	-0.039	0.172
-618.346	-126.656	-0.215	0.032
-617.332	320.278	0.222	-0.418
-616.317	800.000	0.062	-0.254
-615.303	-167.263	0.240	0.010
-614.288	131.154	0.142	0.181
-613.273	-200.000	0.015	0.372
-612.259	-11.001	-0.124	0.081
-611.244	-159.134	0.331	-0.019
-610.230	152.697	-0.119	0.162
-609.215	-128.360	0.285	0.040
-608.201	142.611	-0.156	0.205
-607.186	797.883	0.113	-0.309
-606.171	-18.225	-0.207	0.129
-605.157	298.061	0.143	0.262
-604.142	-96.220	0.185	0.049
-603.128	800.000	-0.017	0.050
-602.113	-19.110	0.098	-0.061
-601.098	-100.593	0.364	-0.089
-600.084	36.475	-0.178	-0.156
-599.069	-87.527	0.264	-0.079
-598.055	661.996	0.011	0.027
-597.040	-107.818	-0.182	-0.039
-596.025	226.821	-0.095	-0.153
-595.011	-139.649	0.284	-0.030
-593.996	-1.619	0.043	0.030
-592.982	-30.782	-0.377	0.212
-591.967	-200.000	0.032	0.289
-590.952	-200.000	-0.031	-0.150
-589.938	90.346	0.127	-0.141
-588.923	-132.027	-0.164	-0.021
-587.909	269.879	-0.110	0.192
-586.894	-16.367	0.374	0.235
-585.879	175.085	-0.110	0.158
-584.865	-50.566	0.134	-0.063
-583.850	108.184	0.232	0.274
-582.836	-103.180	-0.100	-0.023
-581.821	-200.000	-0.033	0.192
-580.806	-61.701	-0.100	-0.041
-579.792	301.018	-0.064	-0.118
-578.777	-127.155	0.065	0.009
-577.763	-200.000	0.032	-0.286
-576.748	-59.476	0.048	-0.021
-575.733	-4.855	-0.170	0.116
-574.719	-2.407	-0.383	-0.266
-573.704	8.271	-0.236	0.176
-572.690	-200.000	0.005	0.151
-571.675	-75.160	-0.126	-0.045
-570.661	118.351	0.118	0.145
-569.646	-148.820	0.259	-0.021
-568.631	800.000	0.036	-0.129
-567.617	81.709	-0.124	-0.133
-566.602	-115.476	0.444	0.083
-565.588	-159.538	-0.313	-0.017
-564.573	705.049	0.067	-0.175
-563.558	-29.941	-0.288	0.162
-562.544	9.297	0.182	-0.136
-561.529	-200.000	-0.016	-0.114
-560.515	-100.504	0.431	-0.106
-559.500	-152.739	-0.242	-0.017
-558.485	800.000	-0.054	0.227
-557.471	231.462	0.125	0.204
-556.456	-188.024	-0.188	-0.002
-555.442	-109.076	0.222	0.047
-554.427	-41.255	0.154	-0.079
-553.412	55.824	-0.094	-0.090
-552.398	-50.403	-0.198	0.093
-551.383	-200.000	0.038	0.281
-550.369	-144.606	-0.117	-0.011
-549.354	38.123	0.194	-0.171
-548.339	213.310	0.070	-0.109
-547.325	88.784	0.186	0.205
-546.310	265.895	-0.162	-0.279
-545.296	116.964	0.035	-0.042
-544.281	275.972	0.052	-0.091
-543.266	-48.787	-0.263	0.125
-542.252	-137.609	-0.305	-0.034
-541.237	784.801	-0.073	-0.199
-540.223	-21.806	0.072	0.044
-539.208	-142.174	-0.203	-0.020
-538.193	-2.926	-0.221	0.153
-537.179	36.239	0.284	-0.247
-536.164	293.418	-0.116	-0.210
-535.150	-143.738	0.159	-0.015
-534.135	135.636	-0.093	0.120
-533.121	-200.000	0.061	-0.534
-532.106	45.427	0.326	0.298
-531.091	56.036	0.097	-0.093
-530.077	-200.000	0.012	-0.150
-529.062	351.249	-0.157	-0.307
-528.048	433.223	-0.022	-0.048
-527.033	65.075	-0.240	-0.240
-526.018	-23.304	0.072	0.043
-525.004	800.000	-0.022	-0.093
-523.989	135.821	0.185	0.239
-522.975	-8.277	0.235	-0.157
-521.960	-200.000	-0.021	-0.190
-520.945	214.028	0.107	-0.168
-519.931	800.000	-0.030	-0.117
-518.916	-200.000	0.044	-0.236
-517.902	-123.806	-0.323	0.051
-516.887	339.243	0.212	0.409
-515.872	516.762	0.015	-0.034
-514.858	27.930	-0.018	-0.015
-513.843	-200.000	-0.017	-0.165
-512.829	448.438	0.084	-0.183
-511.814	480.888	0.057	0.129
-510.799	-200.000	-0.008	0.329
-509.785	3.782	-0.065	-0.047
-508.770	-128.544	0.354	-0.050
-507.756	800.000	-0.122	-0.370
-506.741	-134.289	-0.116	-0.014
-505.726	800.000	-0.097	-0.349
-504.712	177.034	-0.118	0.170
-503.697	-82.810	0.098	-0.031
-502.683	79.389	0.061	0.065
-501.668	147.486	-0.184	-0.245
-500.653	168.946	-0.055	-0.078
-499.639	-118.735	0.414	0.072
-498.624	-200.000	0.028	0.160
-497.610	-87.237	-0.293	0.088
-496.595	78.367	-0.178	-0.188
-495.581	131.795	0.139	-0.177
-494.566	16.263	0.177	0.138
-493.551	-92.591	-0.200	-0.055
-492.537	-89.010	-0.189	-0.055
-491.522	-89.984	0.279	0.080
-490.508	-56.128	0.191	0.084
-489.493	75.557	0.128	-0.133
-488.478	-146.332	-0.141	-0.012
-487.464	-60.944	-0.419	-0.175
-486.449	-200.000	-0.012	-0.312
-485.435	53.295	0.133	-0.126
-484.420	47.501	0.088	-0.081
-483.405	110.313	0.106	0.126
-482.391	676.069	-0.116	0.298
-481.376	43.900	0.294	-0.267
-480.362	800.000	0.021	0.077
-479.347	800.000	0.103	-0.327
-478.332	50.536	-0.098	0.092
-477.318	-16.017	-0.224	0.141
-476.303	355.426	0.073	0.143
-475.289	-138.451	-0.243	0.026
-474.274	800.000	-0.083	-0.290
-473.259	84.529	0.309	0.333
-472.245	392.857	-0.082	-0.168
-471.230	-200.000	0.035	0.204
-470.216	-200.000	-0.047	0.210
-469.201	592.593	-0.049	-0.121
-468.186	-39.555	-0.243	-0.126
-467.172	5.281	-0.040	0.029
-466.157	184.557	-0.222	-0.325
-465.143	-200.000	-0.019	-0.388
-464.128	-200.000	-0.058	0.281
-463.113	-16.331	-0.280	-0.175
-462.099	138.622	-0.178	-0.230
-461.084	21.589	-0.087	0.070
-460.070	-87.982	0.291	-0.086
-459.055	241.294	0.133	-0.220
-458.040	256.093	-0.064	-0.108
-457.026	-31.284	-0.138	-0.077
-456.011	462.806	-0.099	-0.218
-454.997	-200.000	0.003	-0.066
-453.982	7.649	-0.044	0.032
-452.968	15.336	-0.340	-0.263
-451.953	-139.480	0.206	0.022
-450.938	22.846	0.153	-0.124
-449.924	-162.716	-0.097	0.005
-448.909	800.000	-0.048	0.133
-447.895	800.000	-0.070	0.206
-446.880	-69.036	0.165	-0.063
-445.865	-200.000	-0.010	0.073
-444.851	-71.417	-0.225	-0.083
-443.836	16.734	0.081	-0.063
-442.822	30.548	0.100	0.085
-441.807	-61.295	0.129	0.054
-440.792	105.486	0.129	-0.151
-439.778	82.456	-0.080	-0.085
-438.763	424.249	-0.051	0.109
-437.749	-93.588	0.186	-0.051
-436.734	-124.073	0.085	-0.013
-435.719	-200.000	-0.016	0.320
-434.705	20.666	0.024	0.019
-433.690	-146.089	-0.078	0.007
-432.676	-83.036	-0.265	-0.084
-431.661	-39.946	-0.287	0.148
-430.646	29.475	0.437	0.367
-429.632	-71.357	0.179	0.066
-428.617	800.000	0.195	0.624
-427.603	800.000	-0.052	-0.185
-426.588	29.059	0.138	0.116
-425.573	-112.038	-0.229	0.045
-424.559	-108.786	0.318	-0.067
-423.544	-31.962	0.111	-0.061
-422.530	-113.222	-0.351	-0.068
-421.515	-109.094	-0.279	-0.058
-420.500	-200.000	0.008	0.151
-419.486	81.274	-0.033	0.036
-418.471	-107.102	-0.442	0.096
-417.457	63.065	0.196	0.193
-416.442	-35.881	0.353	0.188
-415.428	254.491	0.185	0.311
-414.413	111.309	-0.107	-0.127
-413.398	740.411	0.094	-0.250
-412.384	570.812	-0.072	-0.174
-411.369	596.117	-0.089	0.216
-410.355	-14.734	-0.149	-0.094
-409.340	800.000	0.010	0.036
-408.325	-200.000	-0.008	0.067
-407.311	15.574	0.226	-0.175
-406.296	304.626	0.054	-0.098
-405.282	149.537	-0.229	0.306
-404.267	800.000	0.101	-0.336
-403.252	-200.000	0.028	0.137
-402.238	-200.000	-0.035	0.159
-401.223	50.213	-0.076	-0.071
-400.209	-200.000	0.006	0.218
-399.194	290.703	0.258	0.462
-398.179	133.292	0.108	-0.137
-397.165	244.636	-0.152	-0.251
-396.150	-44.191	-0.037	-0.018
-395.136	129.216	-0.149	0.188
-394.121	-200.000	0.039	-0.266
-393.106	26.268	0.102	0.084
-392.092	-164.915	-0.276	0.012
-391.077	337.963	0.242	-0.464
-390.063	-37.636	-0.107	0.056
-389.048	-68.239	-0.218	-0.083
-388.033	232.866	0.113	0.183
-387.019	489.053	0.098	-0.220
-386.004	-23.632	0.126	-0.074
-384.990	-15.389	0.191	0.120
-383.975	-200.000	0.005	-0.357
-382.960	-130.518	-0.392	0.052
-381.946	228.995	-0.188	0.301
-380.931	326.891	0.094	0.176
-379.917	-127.488	0.266	0.038
-378.902	-60.897	-0.273	0.114
-377.888	204.819	-0.087	-0.132
-376.873	674.144	0.074	-0.189
-375.858	-65.556	0.176	0.069
-374.844	403.883	-0.054	-0.111
-373.829	-200.000	-0.054	-0.247
-372.815	-200.000	-0.005	0.234
-371.800	-144.280	-0.189	0.017
-370.785	144.029	0.041	-0.054
-369.771	-200.000	-0.007	0.085
-368.756	381.132	0.020	-0.040
-367.742	338.602	0.144	0.276
-366.727	800.000	-0.018	0.071
-365.712	-35.986	-0.165	-0.088
-364.698	-85.347	0.073	-0.022
-363.683	-151.370	-0.299	0.022
-362.669	-200.000	-0.022	-0.250
-361.654	110.947	-0.074	-0.088
-360.639	-200.000	0.044	-0.235
-359.625	-200.000	-0.019	0.136
-358.610	-87.148	-0.223	0.067
-357.596	-47.202	0.012	-0.006
-356.581	800.000	-0.085	-0.250
-355.566	-20.329	-0.260	0.157
-354.552	-63.287	0.298	-0.121
-353.537	207.800	-0.149	0.229
-352.523	102.408	-0.047	0.054
-351.508	556.536	0.109	0.257
-350.493	-43.916	0.229	0.113
-349.479	231.803	-0.067	0.108
-348.464	49.014	0.235	0.217
-347.450	-135.559	0.025	0.003
-346.435	800.000	0.017	-0.068
-345.420	-200.000	0.007	-0.037
-344.406	7.518	0.200	0.147
-343.391	-200.000	-0.033	0.352
-342.377	186.274	0.022	-0.032
-341.362	-29.537	-0.095	-0.053
-340.348	-200.000	0.034	0.150
-339.333	257.087	0.137	-0.232
-338.318	-200.000	0.035	-0.200
-337.304	-200.000	0.009	-0.070
-336.289	-88.154	0.247	-0.073
-335.275	-200.000	-0.001	0.041
-334.260	800.000	-0.118	0.328
-333.245	-82.368	-0.148	-0.047
-332.231	-53.653	0.286	-0.128
-331.216	-58.671	-0.264	0.112
-330.202	114.169	0.106	0.126
-329.187	-164.820	0.249	-0.011
-328.172	-172.949	-0.262	0.008
-327.158	37.667	-0.235	-0.205
-326.143	19.111	0.093	-0.073
-325.129	-84.065	0.259	-0.081
-324.114	-200.000	-0.015	0.128
-323.099	-115.346	-0.077	0.014
-322.085	17.574	-0.151	0.118
-321.070	-162.947	0.317	0.015
-320.056	800.000	0.116	-0.318
-319.041	98.154	0.114	-0.129
-318.026	175.579	0.058	-0.083
-317.012	-48.758	0.098	0.046
-315.997	-49.067	0.163	0.076
-314.983	12.017	-0.035	-0.027
-313.968	-200.000	-0.043	-0.234
-312.953	7.708	-0.130	0.095
-311.939	800.000	0.074	0.220
-310.924	-96.455	-0.071	0.019
-309.910	-200.000	0.001	-0.059
-308.895	-200.000	0.037	0.208
-307.880	-9.830	-0.136	0.089
-306.866	372.567	-0.085	-0.170
-305.851	-165.241	0.289	-0.012
-304.837	800.000	0.072	0.257
-303.822	97.124	0.139	-0.156
-302.807	172.234	-0.129	0.183
-301.793	-62.500	0.272	0.111
-300.778	561.660	-0.122	0.288
-299.764	-200.000	-0.021	-0.182
-298.749	205.845	0.034	0.052
-297.735	665.209	0.077	0.196
-296.720	-180.870	0.395	0.008
-295.705	-95.524	0.200	0.053
-294.691	-68.907	-0.201	-0.076
-293.676	-200.000	0.037	-0.251
-292.662	18.804	-0.253	0.199
-291.647	706.118	-0.041	0.105
-290.632	-200.000	-0.039	0.180
-289.618	12.584	-0.070	0.053
-288.603	-121.896	0.134	0.022
-287.589	40.157	-0.182	-0.160
-286.574	-149.645	-0.195	0.015
-285.559	-72.904	0.323	0.117
-284.545	-139.438	-0.263	-0.028
-283.530	-93.452	-0.155	-0.042
-282.516	-139.006	-0.092	0.010
-281.501	-200.000	0.020	-0.096
-280.486	128.632	-0.107	0.134
-279.472	-110.998	-0.131	-0.026
-278.457	-176.897	-0.193	-0.005
-277.443	-200.000	0.045	-0.315
-276.428	-0.467	0.251	-0.175
-275.413	-128.513	0.241	-0.034
-274.399	73.461	-0.163	0.167
-273.384	-31.516	0.240	0.132
-272.370	-69.358	-0.105	0.040
-271.355	-200.000	0.045	-0.320
-270.340	-200.000	0.025	-0.198
-269.326	145.526	-0.203	-0.267
-268.311	-92.202	0.159	0.044
-267.297	-200.000	-0.004	0.277
-266.282	-19.615	0.298	0.181
-265.267	1.821	-0.046	0.033
-264.253	-42.433	0.063	-0.031
-263.238	-110.490	0.134	-0.027
-262.224	107.132	-0.205	-0.239
-261.209	-200.000	0.010	-0.116
-260.195	800.000	0.067	-0.261
-259.180	-5.408	0.148	0.100
-258.165	-106.441	0.221	0.048
-257.151	800.000	-0.052	-0.201
-256.136	28.910	0.162	-0.134
-255.122	-89.034	0.066	0.019
-254.107	-200.000	0.023	0.139
-253.092	664.121	0.031	0.079
-252.078	-200.000	-0.044	0.397
-251.063	-85.261	-0.127	0.039
-250.049	-200.000	-0.008	0.270
-249.034	-80.405	0.032	-0.010
-248.019	-45.373	-0.220	0.107
-247.005	185.449	0.106	-0.154
-245.990	305.791	-0.019	0.034
-244.976	-25.398	-0.252	0.146
-243.961	-36.400	-0.242	0.128
-242.946	-200.000	-0.013	-0.152
-241.932	-41.097	0.329	0.166
-240.917	366.832	-0.114	-0.224
-239.903	-114.411	-0.409	0.077
-238.888	-104.346	0.113	0.026
-237.873	35.974	-0.211	0.182
-236.859	-16.655	-0.107	0.066
-235.844	800.000	0.059	-0.227
-234.830	-1.536	0.055	-0.038
-233.815	-200.000	-0.094	-0.446
-232.800	-161.882	0.185	0.009
-231.786	122.021	0.116	0.142
-230.771	388.158	-0.082	0.166
-229.757	-55.017	0.267	-0.118
-228.742	-36.595	0.283	0.149
-227.727	-105.775	-0.390	0.086
-226.713	800.000	-0.047	0.127
-225.698	-116.975	0.335	0.060
-224.684	-101.777	0.352	0.083
-223.669	-182.252	-0.367	-0.007
-222.655	-45.631	-0.077	-0.037
-221.640	719.996	0.085	-0.222
-220.625	-45.193	-0.210	-0.102
-219.611	-200.000	-0.021	0.092
-218.596	-200.000	0.035	0.237
-217.582	68.461	-0.209	0.209
-216.567	70.775	-0.092	0.093
-215.552	-186.579	0.365	-0.005
-214.538	-200.000	-0.000	0.014
-213.523	562.100	-0.092	-0.218
-212.509	86.505	0.249	0.268
-211.494	209.057	-0.228	0.349
-210.479	-4.827	0.115	-0.077
-209.465	269.972	0.049	-0.085
-208.450	-116.623	-0.304	0.055
-207.436	-200.000	0.036	-0.253
-206.421	526.332	0.050	-0.115
-205.406	-47.132	0.274	-0.131
-204.392	-62.939	-0.133	0.054
-203.377	-200.000	0.056	-0.280
-202.363	299.639	-0.160	0.289
-201.348	-38.967	0.082	0.042
-200.333	29.530	0.191	0.159
-199.319	255.441	-0.048	-0.081
-198.304	39.375	-0.417	0.365
-197.290	-200.000	0.013	0.253
-196.275	-168.718	-0.109	-0.004
-195.260	-134.024	0.325	-0.039
-194.246	-103.437	0.330	-0.076
-193.231	-25.683	-0.318	0.183
-192.217	61.525	-0.044	0.043
-191.202	116.672	-0.086	-0.103
-190.187	347.409	-0.152	-0.293
-189.173	-108.690	0.340	-0.071
-188.158	24.359	0.119	0.096
-187.144	7.123	-0.041	-0.030
-186.129	-122.173	-0.381	0.061
-185.114	-105.622	0.606	0.134
-184.100	-200.000	0.011	0.194
-183.085	800.000	-0.062	0.186
-182.071	220.042	-0.089	-0.139
-181.056	12.697	-0.227	-0.171
-180.042	464.799	-0.072	-0.156
-179.027	-61.633	-0.352	0.144
-178.012	3.786	0.252	-0.180
-176.998	800.000	-0.086	0.299
-175.983	13.285	-0.037	0.028
-174.969	103.728	-0.025	-0.029
-173.954	45.613	-0.261	-0.236
-172.939	-44.371	0.182	-0.089
-171.925	471.785	0.021	-0.047
-170.910	-200.000	0.400	-0.001
-169.896	-145.182	-0.331	0.029
-168.881	40.882	-0.033	0.029
-167.866	111.168	-0.147	-0.173
-166.852	800.000	0.079	0.269
-165.837	41.911	0.056	-0.050
-164.823	-200.000	0.067	-0.423
-163.808	-86.304	-0.097	0.029
-162.793	800.000	0.075	-0.245
-161.779	282.771	0.132	-0.231
-160.764	800.000	-0.041	0.152
-159.750	-95.918	-0.329	-0.085
-158.735	57.285	-0.109	-0.104
-157.720	66.577	-0.439	0.436
-156.706	161.213	-0.138	-0.188
-155.691	146.161	0.081	0.106
-154.677	60.010	-0.034	-0.032
-153.662	-35.532	-0.265	0.140
-152.647	63.482	0.096	0.094
-151.633	-200.000	0.035	0.230
-150.618	63.381	-0.171	-0.167
-149.604	800.000	0.060	0.226
-148.589	800.000	0.091	0.349
-147.574	8.596	0.251	-0.184
-146.560	-142.092	-0.134	0.013
-145.545	-200.000	-0.004	-0.020
-144.531	-200.000	0.049	0.573
-143.516	8.371	0.187	0.137
-142.502	259.994	-0.111	-0.187
-141.487	-200.000	0.057	0.378
-140.472	-200.000	-0.044	0.244
-139.458	427.950	-0.081	0.171
-138.443	677.449	0.084	-0.214
-137.429	-200.000	0.094	0.523
-136.414	104.482	-0.150	0.172
-135.399	89.725	-0.030	-0.033
-134.385	-37.933	0.188	-0.098
-133.370	12.277	-0.194	0.145
-132.356	74.935	0.199	-0.204
-131.341	-113.554	0.158	0.030
-130.326	800.000	-0.060	0.216
-129.312	-68.850	0.254	-0.096
-128.297	435.400	-0.073	0.155
-127.283	35.632	-0.136	-0.116
-126.268	-14.535	0.262	-0.164
-125.253	-200.000	-0.010	-0.103
-124.239	800.000	0.052	0.151
-123.224	800.000	0.047	0.161
-122.210	248.098	-0.188	0.309
-121.195	171.481	0.187	-0.262
-120.180	127.667	-0.076	0.095
-119.166	-178.728	-0.228	-0.005
-118.151	-153.486	-0.286	-0.019
-117.137	800.000	-0.087	0.256
-116.122	20.921	-0.088	0.070
-115.107	800.000	0.029	0.095
-114.093	-26.643	0.121	0.069
-113.078	-13.431	-0.252	0.159
-112.064	-106.681	-0.143	0.031
-111.049	800.000	-0.049	-0.134
-110.034	-7.823	-0.184	-0.121
-109.020	-47.111	0.188	0.089
-108.005	54.050	0.207	0.194
-106.991	800.000	-0.023	0.089
-105.976	-28.165	0.207	-0.117
-104.962	800.000	0.036	-0.146
-103.947	-112.117	-0.064	0.013
-102.932	-200.000	-0.012	-0.126
-101.918	179.521	0.263	0.375
-100.903	-86.762	0.227	0.067
-99.889	33.326	0.075	-0.063
-98.874	41.400	-0.118	-0.104
-97.859	342.728	-0.091	0.173
-96.845	-140.035	0.142	-0.015
-95.830	-115.700	0.314	-0.057
-94.816	466.169	-0.076	-0.166
-93.801	-154.232	0.197	-0.013
-92.786	-200.000	0.016	0.130
-91.772	337.394	0.197	0.374
-90.757	43.681	0.368	0.328
-89.743	156.012	-0.121	0.163
-88.728	-200.000	0.062	-0.320
-87.713	146.066	-0.264	-0.345
-86.699	-200.000	-0.054	0.325
-85.684	109.388	-0.007	-0.008
-84.670	13.654	-0.130	-0.098
-83.655	-200.000	0.017	0.191
-82.640	183.545	0.287	-0.413
-81.626	-82.256	-0.139	0.044
-80.611	-134.474	-0.215	-0.026
-79.597	-13.033	-0.344	-0.217
-78.582	463.034	-0.156	0.338
-77.567	1.812	0.132	0.093
-76.553	-9.468	-0.274	0.178
-75.538	-200.000	-0.013	0.102
-74.524	-17.416	-0.115	-0.070
-73.509	741.308	-0.111	0.291
-72.494	157.076	-0.132	0.177
-71.480	-53.590	0.341	-0.152
-70.465	64.294	-0.233	-0.228
-69.451	-200.000	0.014	-0.184
-68.436	-59.340	-0.168	-0.070
-67.422	147.506	-0.056	-0.073
-66.407	-200.000	0.237	0.001
-65.392	-200.000	0.009	0.165
-64.378	-200.000	0.084	0.491
-63.363	-200.000	-0.070	0.558
-62.349	200.688	0.133	0.198
-61.334	172.619	-1.035	-1.448
-60.319	56.751	0.546	0.517
-59.305	675.332	-0.514	-1.297
-58.290	326.967	0.723	1.346
-57.276	702.658	0.495	1.266
-56.261	-200.000	124.187	666.677
-55.246	440.027	1555.460	3302.513
-54.232	145.543	2718.449	3537.995
-53.217	92.735	2288.723	2510.293
-52.203	33.032	1900.882	1600.363
-51.188	26.803	1698.007	1382.198
-50.173	24.599	1659.499	1334.354
-49.159	46.625	1727.477	1557.912
-48.144	44.176	1739.272	1549.816
-47.130	26.430	1690.592	1373.113
-46.115	23.877	1675.516	1341.576
-45.100	23.684	1670.556	1336.098
-44.086	23.610	1668.516	1333.855
-43.071	23.711	1665.437	1332.102
-42.057	23.576	1663.812	1329.737
-41.042	23.660	1661.399	1328.381
-40.027	23.678	1659.875	1327.248
-39.013	23.688	1657.547	1325.406
-37.998	23.675	1656.123	1324.117
-36.984	23.715	1654.874	1323.369
-35.969	23.821	1653.314	1322.856
-34.954	23.769	1652.549	1321.805
-33.940	23.760	1650.397	1319.963
-32.925	23.752	1648.874	1318.636
-31.911	23.760	1647.161	1317.274
-30.896	23.683	1645.625	1315.421
-29.881	23.711	1644.023	1314.292
-28.867	23.771	1642.624	1313.570
-27.852	23.707	1641.361	1312.034
-26.838	23.714	1639.638	1310.656
-25.823	23.757	1638.478	1309.993
-24.809	23.770	1637.393	1309.170
-23.794	23.839	1635.602	1308.193
-22.779	23.860	1633.616	1306.710
-21.765	23.837	1632.205	1305.358
-20.750	23.750	1630.580	1303.368
-19.736	23.815	1629.862	1303.215
-18.721	23.843	1628.521	1302.300
-17.706	23.794	1626.847	1300.547
-16.692	23.810	1625.220	1299.311
-15.677	23.821	1623.655	1298.095
-14.663	23.862	1622.514	1297.425
-13.648	23.841	1621.540	1296.445
-12.633	23.809	1619.599	1294.606
-11.619	23.897	1617.612	1293.606
-10.604	23.971	1616.130	1292.910
-9.590	23.784	1615.427	1290.937
-8.575	23.806	1614.272	1290.122
-7.560	23.827	1613.061	1289.258
-6.546	23.835	1611.756	1288.223
-5.531	23.739	1611.403	1287.192
-4.517	23.901	1608.965	1286.362
-3.502	23.828	1608.326	1285.276
-2.487	23.932	1606.405	1284.440
-1.473	23.384	1594.595	1271.017
-0.458	20.261	1574.404	1232.723
0.556	15.476	1576.905	1200.526
1.571	13.061	1600.415	1200.768
2.586	12.658	1613.058	1207.192
3.600	11.763	1558.584	1159.979
4.615	6.798	1452.504	1048.054
5.629	1.792	1394.276	974.001
6.644	0.886	1387.367	963.326
7.659	0.806	1386.307	961.997
8.673	0.706	1385.824	960.943
9.688	0.691	1383.632	959.243
10.702	0.518	1380.116	955.620
11.717	3.015	1382.890	973.287
12.731	9.583	1392.747	1021.912
13.746	15.306	1402.098	1065.132
14.761	17.292	1403.654	1078.840
15.775	16.655	1402.063	1073.483
16.790	15.678	1399.296	1065.077
17.804	14.890	1397.148	1058.362
18.819	14.597	1395.452	1055.132
19.834	14.336	1394.192	1052.436
20.848	14.149	1392.931	1050.213
21.863	13.869	1391.534	1047.303
22.877	13.697	1390.564	1045.392
23.892	13.675	1389.001	1043.990
24.907	13.619	1389.060	1043.589
25.921	13.622	1387.666	1042.464
26.936	13.785	1386.426	1042.469
27.950	13.838	1385.680	1042.149
28.965	13.698	1385.320	1040.902
29.980	13.868	1384.035	1040.915
30.994	13.893	1383.103	1040.276
32.009	13.868	1381.638	1038.927
33.023	13.964	1380.880	1038.867
34.038	13.840	1379.880	1037.246
35.053	13.795	1378.577	1035.891
36.067	13.856	1377.563	1035.420
37.082	13.773	1376.688	1034.155
38.096	13.863	1375.561	1033.775
39.111	13.792	1374.896	1032.741
40.126	13.660	1374.389	1031.448
41.140	13.613	1373.458	1030.366
42.155	13.657	1372.717	1029.991
43.169	13.701	1372.579	1030.075
44.184	13.621	1372.646	1029.537
45.199	13.636	1371.842	1028.932
46.213	13.574	1372.080	1028.636
47.228	13.711	1370.277	1028.042
48.242	13.743	1369.259	1027.384
49.257	13.701	1367.807	1025.949
50.271	13.763	1366.311	1025.114
51.286	13.839	1364.331	1024.010
52.301	13.796	1363.604	1023.108
53.315	13.729	1362.616	1021.866
54.330	13.669	1361.637	1020.671
55.344	13.692	1360.217	1019.655
56.359	13.721	1359.290	1019.049
57.374	13.655	1358.670	1018.090
58.388	13.505	1357.858	1016.466
59.403	13.601	1356.620	1016.044
60.417	13.623	1356.048	1015.656
61.432	13.638	1355.292	1015.097
62.447	13.516	1354.368	1013.567
63.461	13.574	1353.230	1012.977
64.476	13.607	1351.785	1012.010
65.490	13.532	1350.663	1010.623
66.505	13.628	1349.505	1010.252
67.520	13.623	1347.658	1008.746
68.534	13.545	1346.726	1007.485
69.549	13.523	1346.115	1006.808
70.563	13.632	1344.204	1005.948
71.578	13.517	1343.987	1004.999
72.593	13.473	1342.761	1003.728
73.607	13.485	1342.290	1003.359
74.622	13.624	1340.992	1003.142
75.636	13.490	1340.510	1001.883
76.651	13.544	1339.426	1001.311
77.666	13.532	1339.232	1001.004
78.680	13.527	1338.563	1000.387
79.695	13.516	1337.336	999.314
80.709	13.696	1336.500	999.685
81.724	13.605	1335.816	998.539
82.739	13.731	1334.656	998.341
83.753	13.709	1333.575	997.313
84.768	13.732	1332.637	996.663
85.782	13.888	1330.895	996.208
86.797	13.751	1329.817	994.491
87.812	13.648	1329.175	993.306
88.826	13.611	1328.370	992.391
89.841	13.778	1326.854	992.174
90.855	13.764	1325.766	991.183
91.870	13.770	1324.802	990.412
92.884	13.701	1324.078	989.371
93.899	13.779	1323.335	989.197
94.914	13.796	1322.284	988.422
95.928	13.837	1321.901	988.294
96.943	13.890	1320.710	987.629
97.957	13.804	1320.041	986.530
98.972	13.749	1318.810	985.195
99.987	13.806	1317.346	984.355
101.001	13.730	1316.626	983.277
102.016	13.799	1315.302	982.613
103.030	13.807	1314.492	981.970
104.045	13.721	1313.996	981.001
105.060	13.727	1312.692	979.974
106.074	13.624	1311.596	978.462
107.089	13.722	1310.111	977.850
108.103	13.713	1308.380	976.417
109.118	13.628	1307.257	974.994
110.133	13.652	1305.928	974.052
111.147	13.676	1304.751	973.231
112.162	13.682	1303.057	971.918
113.176	13.646	1302.571	971.259
114.191	13.750	1301.025	970.625
115.206	13.747	1300.281	969.967
116.220	13.755	1298.430	968.549
117.235	13.747	1297.250	967.536
118.249	13.788	1296.360	967.025
119.264	13.685	1295.396	965.622
120.279	13.687	1294.347	964.766
121.293	13.733	1293.165	964.069
122.308	13.632	1292.597	962.972
123.322	13.795	1291.215	962.803
124.337	13.751	1289.710	961.340
125.352	13.729	1289.050	960.637
126.366	13.725	1287.604	959.449
127.381	13.742	1286.676	958.774
128.395	13.732	1285.576	957.807
129.410	13.665	1284.708	956.694
130.424	13.795	1283.619	956.547
131.439	13.602	1282.992	954.882
132.454	13.645	1282.020	954.319
133.468	13.802	1280.831	954.257
134.483	13.699	1280.614	953.418
135.497	13.817	1278.678	952.567
136.512	13.663	1277.793	950.944
137.527	13.647	1276.360	949.698
138.541	13.699	1274.809	948.760
139.556	13.748	1273.699	948.131
140.570	13.895	1272.950	948.324
141.585	13.958	1271.071	947.201
142.600	13.825	1270.196	945.711
143.614	13.888	1269.154	945.210
144.629	13.938	1268.118	944.638
145.643	13.938	1267.200	943.867
146.658	13.908	1265.989	942.713
147.673	13.852	1264.561	941.250
148.687	13.826	1263.626	940.323
149.702	13.818	1262.110	939.065
150.716	13.874	1260.694	938.248
151.731	13.762	1259.639	936.747
152.746	13.902	1258.287	936.445
153.760	13.902	1256.941	935.362
154.775	14.042	1255.592	935.064
155.789	13.939	1255.224	934.130
156.804	13.830	1254.642	932.999
157.819	13.892	1253.626	932.511
158.833	14.060	1252.281	932.366
159.848	14.005	1251.572	931.447
160.862	13.936	1250.396	930.109
161.877	14.024	1249.042	929.509
162.892	13.992	1248.207	928.626
163.906	13.966	1247.183	927.639
164.921	14.021	1246.336	927.232
165.935	13.950	1245.843	926.385
166.950	14.042	1244.482	925.806
167.964	14.137	1243.769	925.721
168.979	14.061	1243.203	924.795
169.994	14.139	1242.291	924.470
171.008	14.082	1241.371	923.384
172.023	13.966	1241.019	922.401
173.037	14.165	1239.710	922.445
174.052	14.149	1238.520	921.391
175.067	14.184	1237.499	920.745
176.081	14.002	1236.819	919.150
177.096	13.965	1236.147	918.365
178.110	14.031	1234.994	917.795
179.125	14.089	1233.788	917.137
180.140	14.113	1232.272	916.060
181.154	14.143	1231.049	915.236
182.169	14.164	1230.175	914.618
183.183	14.182	1228.717	913.555
184.198	14.226	1227.697	912.956
185.213	14.304	1226.392	912.329
186.227	14.231	1225.438	911.143
187.242	14.306	1224.556	910.816
188.256	14.337	1223.323	909.984
189.271	14.479	1221.675	909.456
190.286	14.258	1221.172	907.797
191.300	14.146	1220.579	906.662
192.315	14.167	1219.853	906.157
193.329	14.278	1218.689	905.815
194.344	14.190	1218.388	905.032
195.359	14.283	1217.825	905.044
196.373	14.379	1217.320	905.106
197.388	14.338	1217.054	904.609
198.402	14.399	1216.330	904.321
199.417	14.449	1215.973	904.246
200.432	14.479	1214.802	903.458
201.446	14.524	1213.850	902.915
202.461	14.561	1213.336	902.653
203.475	14.658	1211.825	901.970
204.490	14.610	1210.676	900.780
205.504	14.625	1209.366	899.804
206.519	14.522	1208.547	898.559
207.534	14.608	1206.882	897.704
208.548	14.605	1206.127	897.049
209.563	14.590	1205.299	896.271
210.577	14.551	1204.782	895.599
211.592	14.632	1203.726	895.168
212.607	14.720	1202.370	894.555
213.621	14.625	1201.767	893.520
214.636	14.712	1200.969	893.310
215.650	14.745	1200.083	892.746
216.665	14.698	1199.137	891.717
217.680	14.840	1197.544	891.209
218.694	14.771	1197.456	890.696
219.709	14.729	1197.307	890.283
220.723	14.783	1195.822	889.385
221.738	14.716	1194.853	888.233
222.753	14.811	1194.473	888.377
223.767	14.692	1193.790	887.156
224.782	14.817	1193.047	887.188
225.796	14.845	1192.572	886.905
226.811	14.846	1191.616	886.123
227.826	14.887	1190.605	885.510
228.840	14.887	1190.163	885.102
229.855	14.868	1189.397	884.352
230.869	14.897	1188.770	883.964
231.884	14.958	1187.779	883.470
232.899	14.868	1186.982	882.325
233.913	14.943	1186.288	882.124
234.928	14.880	1185.641	881.233
235.942	14.880	1185.019	880.692
236.957	14.931	1183.907	880.056
237.972	14.963	1183.356	879.740
238.986	14.939	1182.672	879.026
240.001	14.845	1181.981	877.939
241.015	14.879	1181.052	877.354
242.030	15.007	1180.041	877.192
243.045	14.995	1179.095	876.349
244.059	15.048	1178.060	875.783
245.074	15.014	1177.842	875.365
246.088	14.998	1176.924	874.519
247.103	15.016	1176.379	874.133
248.117	15.058	1175.379	873.531
249.132	15.245	1174.330	873.647
250.147	15.152	1174.235	873.017
251.161	15.183	1173.269	872.379
252.176	15.278	1172.074	871.911
253.190	15.166	1171.813	871.057
254.205	15.292	1171.516	871.413
255.220	15.420	1170.608	871.328
256.234	15.374	1170.250	870.743
257.249	15.308	1169.466	869.740
258.263	15.384	1168.488	869.328
259.278	15.449	1167.894	869.149
260.293	15.552	1167.597	869.384
261.307	15.436	1167.391	868.554
262.322	15.361	1166.048	867.090
263.336	15.492	1165.268	867.109
264.351	15.542	1164.654	866.831
265.366	15.447	1164.757	866.345
266.380	15.565	1163.648	866.051
267.395	15.507	1163.160	865.311
268.409	15.600	1161.989	864.843
269.424	15.605	1161.139	864.160
270.439	15.509	1160.775	863.318
271.453	15.497	1159.942	862.560
272.468	15.535	1159.039	862.005
273.482	15.539	1158.456	861.520
274.497	15.643	1157.519	861.277
275.512	15.672	1157.040	860.993
276.526	15.578	1156.639	860.140
277.541	15.624	1155.245	859.259
278.555	15.699	1154.745	859.198
279.570	15.729	1154.311	858.948
280.585	15.769	1153.304	858.330
281.599	15.787	1152.070	857.428
282.614	15.765	1151.463	856.785
283.628	15.779	1150.176	855.826
284.643	15.731	1149.170	854.758
285.657	15.807	1148.296	854.415
286.672	15.742	1147.835	853.668
287.687	15.776	1146.413	852.709
288.701	15.835	1145.826	852.494
289.716	15.892	1144.812	851.951
290.730	15.801	1144.442	851.141
291.745	15.864	1143.840	850.937
292.760	15.837	1143.522	850.490
293.774	16.062	1142.400	850.715
294.789	15.897	1142.066	849.559
295.803	15.874	1141.510	848.954
296.818	15.930	1140.430	848.355
297.833	15.935	1139.477	847.597
298.847	16.028	1138.575	847.321
299.862	16.004	1138.033	846.721
300.876	16.118	1137.279	846.657
301.891	16.066	1136.587	845.805
302.906	16.064	1136.103	845.363
303.920	16.050	1135.409	844.701
304.935	16.135	1134.812	844.606
305.949	16.137	1134.048	843.972
306.964	16.165	1133.261	843.454
307.979	16.200	1132.548	843.022
308.993	16.281	1131.586	842.635
310.008	16.341	1130.557	842.096
311.022	16.238	1130.207	841.247
312.037	16.251	1129.200	840.488
313.052	16.190	1128.372	839.495
314.066	16.129	1127.486	838.458
315.081	16.096	1126.860	837.754
316.095	16.145	1126.126	837.373
317.110	16.284	1125.300	837.378
318.125	16.174	1124.582	836.221
319.139	16.148	1123.981	835.572
320.154	16.192	1123.653	835.474
321.168	16.218	1122.925	834.988
322.183	16.293	1122.020	834.609
323.197	16.177	1121.679	833.709
324.212	16.303	1120.920	833.697
325.227	16.250	1120.706	833.203
326.241	16.434	1119.195	832.910
327.256	16.275	1118.928	831.855
328.270	16.351	1117.913	831.401
329.285	16.358	1116.557	830.354
330.300	16.359	1115.838	829.750
331.314	16.378	1114.877	829.054
332.329	16.325	1113.938	828.022
333.343	16.429	1113.129	827.860
334.358	16.415	1112.481	827.235
335.373	16.423	1111.790	826.685
336.387	16.493	1111.131	826.465
337.402	16.448	1110.313	825.563
338.416	16.541	1109.418	825.278
339.431	16.543	1108.661	824.651
340.446	16.597	1108.031	824.372
341.460	16.645	1107.472	824.119
342.475	16.634	1106.629	823.367
343.489	16.668	1105.641	822.721
344.504	16.628	1105.216	822.142
345.519	16.709	1103.923	821.496
346.533	16.614	1103.510	820.659
347.548	16.686	1102.348	820.068
348.562	16.835	1101.616	820.174
349.577	16.794	1100.733	819.245
350.592	16.789	1100.240	818.782
351.606	16.679	1099.624	817.719
352.621	16.689	1099.069	817.282
353.635	16.829	1098.074	817.145
354.650	16.728	1097.620	816.249
355.665	16.685	1096.731	815.309
356.679	16.757	1096.405	815.341
357.694	16.779	1095.677	814.831
358.708	16.870	1094.715	814.485
359.723	16.910	1094.335	814.317
360.738	16.892	1093.624	813.632
361.752	16.857	1093.032	812.954
362.767	16.841	1092.813	812.639
363.781	16.864	1092.233	812.247
364.796	16.984	1091.386	812.118
365.810	16.922	1090.915	811.403
366.825	17.020	1089.952	811.083
367.840	17.096	1089.429	810.982
368.854	17.178	1088.787	810.826
369.869	17.050	1088.003	809.557
370.883	17.048	1087.198	808.880
371.898	17.018	1086.813	808.379
372.913	17.101	1085.966	808.070
373.927	17.170	1085.113	807.692
374.942	17.084	1084.938	807.083
375.956	17.110	1084.356	806.703
376.971	17.232	1083.436	806.524
377.986	17.119	1083.437	805.919
379.000	17.225	1082.575	805.706
380.015	17.308	1081.985	805.591
381.029	17.322	1081.309	805.085
382.044	17.336	1080.320	804.341
383.059	17.409	1079.685	804.145
384.073	17.463	1078.683	803.583
385.088	17.271	1078.352	802.357
386.102	17.406	1077.375	802.193
387.117	17.394	1076.270	801.246
388.132	17.331	1075.203	800.081
389.146	17.296	1074.748	799.509
390.161	17.365	1073.873	799.112
391.175	17.371	1073.249	798.604
392.190	17.386	1072.472	798.029
393.205	17.551	1071.498	798.003
394.219	17.371	1070.953	796.683
395.234	17.468	1070.224	796.526
396.248	17.464	1069.199	795.672
397.263	17.470	1067.975	794.720
398.278	17.515	1067.214	794.293
399.292	17.425	1066.999	793.644
400.307	17.453	1066.057	793.003
401.321	17.480	1065.668	792.771
402.336	17.472	1064.494	791.787
403.350	17.449	1064.018	791.256
404.365	17.424	1063.739	790.863
405.380	17.633	1062.582	790.906
406.394	17.502	1061.880	789.703
407.409	17.578	1061.329	789.576
408.423	17.623	1060.619	789.185
409.438	17.595	1059.847	788.414
410.453	17.576	1059.284	787.837
411.467	17.740	1058.214	787.729
412.482	17.769	1058.015	787.643
413.496	17.740	1057.151	786.799
414.511	17.772	1056.253	786.210
415.526	17.896	1055.609	786.229
416.540	17.866	1055.524	785.960
417.555	17.869	1055.048	785.550
418.569	17.839	1054.853	785.194
419.584	17.837	1053.960	784.455
420.599	17.912	1053.453	784.351
421.613	109.688	1330.393	1490.500
422.628	101.116	1370.683	1490.591
