DTS Sentinel unit serial number:	SN413079Multiplexer serial number:	ORYXHardware model number:	OX4-SRSoftware version number:	ORYX F/W v4.00 Oryx Data Collector v3.7.2.0data status	okinstallation	princeton_trtdifferential loss correction	single-endedforward channel	channel 2reverse channel	N/Adate	2019/09/14time	10:47:34forward acquisition time	60.00reverse acquisition time	0.00gamma	496.2192k internal	0.2315k external	0.2315temperature offset calibration	1.0143default loss term (dB/km)	0.3790temperature slope calibration	1.0000multiplexer offset coefficient	1.0000multiplexer slope coefficient	1.0000fibre end	0.00T internal ref (°C)	35.50T ext. ref 1 (°C)	4.30T ext. ref 2 (°C)	32.69length (m)	temperature (°C)	Stokes	anti-Stokes-747.200	-200.000	-0.050	-0.317
-746.185	632.871	-0.065	0.167
-745.171	-200.000	0.003	-0.207
-744.156	226.010	-0.122	0.201
-743.142	-200.000	-0.059	-0.293
-742.127	800.000	0.086	0.268
-741.112	-128.513	0.426	-0.061
-740.098	-200.000	0.022	0.269
-739.083	-0.606	-0.129	0.093
-738.069	-200.000	-0.029	0.278
-737.054	130.894	0.279	0.362
-736.039	-100.474	-0.110	-0.028
-735.025	-81.429	0.229	-0.076
-734.010	287.962	0.113	-0.207
-732.996	65.156	-0.262	-0.269
-731.981	-7.625	-0.075	0.052
-730.966	800.000	-0.166	-0.488
-729.952	23.758	-0.289	0.241
-728.937	71.172	0.291	-0.305
-727.923	186.047	0.066	0.099
-726.908	2.376	0.329	-0.241
-725.894	-5.562	0.098	-0.068
-724.879	87.385	0.213	0.238
-723.864	568.111	-0.090	-0.222
-722.850	800.000	0.061	-0.222
-721.835	-104.687	0.211	-0.049
-720.821	189.896	-0.261	-0.396
-719.806	151.528	0.090	-0.123
-718.791	426.475	-0.182	-0.398
-717.777	223.545	0.048	-0.078
-716.762	174.618	0.087	0.128
-715.748	-200.000	0.055	-0.275
-714.733	-7.494	-0.289	-0.198
-713.718	3.607	0.079	-0.058
-712.704	800.000	0.021	0.077
-711.689	-200.000	0.002	-0.040
-710.675	269.333	0.167	0.297
-709.660	515.641	-0.052	-0.123
-708.645	-81.134	0.048	-0.016
-707.631	35.232	-0.106	0.094
-706.616	11.779	-0.120	0.093
-705.602	-118.989	0.216	0.038
-704.587	-83.032	0.235	-0.076
-703.572	-156.911	0.059	-0.004
-702.558	795.690	0.046	-0.128
-701.543	-87.392	-0.123	-0.038
-700.529	82.692	-0.216	0.237
-699.514	556.069	-0.068	-0.165
-698.499	-96.596	0.400	0.107
-697.485	36.292	0.325	0.290
-696.470	-17.598	-0.275	-0.175
-695.456	800.000	-0.072	-0.275
-694.441	115.514	0.209	-0.258
-693.426	417.109	0.118	0.255
-692.412	800.000	-0.042	-0.130
-691.397	-200.000	-0.069	0.473
-690.383	-104.663	-0.265	-0.062
-689.368	-145.719	-0.239	0.022
-688.354	-173.663	0.343	-0.010
-687.339	68.857	0.119	-0.124
-686.324	-4.731	0.048	-0.033
-685.310	193.650	-0.141	-0.216
-684.295	800.000	-0.008	-0.034
-683.281	-149.994	-0.163	-0.013
-682.266	-89.636	-0.186	0.055
-681.251	291.597	0.106	0.194
-680.237	-200.000	0.045	-0.274
-679.222	-135.404	0.286	-0.034
-678.208	28.462	-0.060	-0.051
-677.193	-58.273	-0.059	-0.026
-676.178	266.196	-0.040	0.070
-675.164	800.000	0.098	0.383
-674.149	-200.000	-0.009	0.051
-673.135	565.713	-0.139	0.342
-672.120	231.176	-0.078	-0.129
-671.105	82.898	-0.202	-0.222
-670.091	140.157	0.072	-0.097
-669.076	227.919	-0.267	-0.440
-668.062	406.545	0.084	-0.178
-667.047	-61.636	0.263	-0.111
-666.032	424.919	-0.067	-0.145
-665.018	-152.078	0.316	-0.023
-664.003	60.793	-0.192	-0.192
-662.989	-200.000	-0.014	0.213
-661.974	-44.334	-0.123	-0.062
-660.959	113.252	-0.061	0.075
-659.945	-200.000	-0.006	-0.046
-658.930	-200.000	0.043	-0.365
-657.916	-122.767	0.315	-0.051
-656.901	-109.052	-0.229	-0.049
-655.886	363.017	-0.070	-0.143
-654.872	46.649	-0.044	-0.041
-653.857	23.825	-0.290	-0.241
-652.843	-95.420	0.221	-0.060
-651.828	800.000	-0.083	0.310
-650.814	45.355	0.122	0.114
-649.799	91.325	0.096	-0.109
-648.784	-29.678	0.182	-0.105
-647.770	172.208	-0.024	0.035
-646.755	76.979	0.314	-0.337
-645.741	576.367	0.177	-0.437
-644.726	401.551	-0.084	0.178
-643.711	87.071	-0.183	0.204
-642.697	-126.879	-0.204	0.030
-641.682	-200.000	0.009	0.292
-640.668	-145.100	-0.495	-0.045
-639.653	226.712	-0.113	-0.185
-638.638	-200.000	0.021	0.238
-637.624	-90.875	-0.323	0.094
-636.609	316.505	0.020	-0.039
-635.595	-200.000	-0.047	-0.238
-634.580	348.390	-0.101	-0.200
-633.565	138.046	0.097	-0.128
-632.551	800.000	0.072	0.280
-631.536	-165.941	-0.430	0.019
-630.522	-9.306	-0.145	0.097
-629.507	-124.212	0.392	-0.062
-628.492	33.855	0.150	-0.131
-627.478	12.532	0.111	0.086
-626.463	-126.664	0.234	0.035
-625.449	-81.465	-0.344	0.114
-624.434	350.801	-0.057	-0.114
-623.419	-126.611	0.050	0.007
-622.405	-86.901	-0.117	-0.036
-621.390	-200.000	0.023	-0.123
-620.376	361.692	0.172	-0.349
-619.361	-200.000	-0.002	0.030
-618.346	800.000	-0.095	0.299
-617.332	800.000	0.070	-0.219
-616.317	185.577	-0.135	0.202
-615.303	226.974	0.104	0.171
-614.288	219.616	0.170	-0.274
-613.273	56.841	0.211	-0.207
-612.259	-200.000	0.005	-0.044
-611.244	46.721	-0.200	-0.187
-610.230	-200.000	-0.032	-0.284
-609.215	-136.972	0.099	-0.011
-608.201	100.854	-0.218	0.256
-607.186	-200.000	0.017	0.134
-606.171	-115.603	0.221	-0.042
-605.157	291.203	-0.068	0.124
-604.142	-46.394	-0.271	-0.134
-603.128	456.730	0.163	-0.365
-602.113	-200.000	-0.018	-0.145
-601.098	-200.000	-0.022	0.113
-600.084	-143.662	-0.145	0.014
-599.069	-200.000	-0.051	0.318
-598.055	-200.000	-0.023	0.104
-597.040	-121.464	-0.286	-0.048
-596.025	-109.967	-0.197	-0.041
-595.011	69.892	-0.175	-0.182
-593.996	-15.183	0.069	0.045
-592.982	147.632	0.062	0.084
-591.967	-200.000	-0.040	-0.188
-590.952	-200.000	0.014	0.067
-589.938	800.000	0.048	-0.176
-588.923	800.000	-0.041	0.160
-587.909	-137.237	-0.163	-0.019
-586.894	135.236	-0.161	0.211
-585.879	-159.356	-0.367	0.021
-584.865	2.015	0.212	0.154
-583.850	164.012	0.152	0.216
-582.836	-200.000	-0.022	0.228
-581.821	-44.581	-0.270	-0.136
-580.806	303.288	0.085	-0.158
-579.792	49.639	0.130	-0.123
-578.777	-76.999	0.046	0.016
-577.763	59.266	-0.186	-0.184
-576.748	-17.939	0.227	-0.144
-575.733	-143.170	0.166	0.016
-574.719	-200.000	-0.027	-0.149
-573.704	391.424	0.046	-0.096
-572.690	-63.513	-0.024	-0.010
-571.675	-200.000	-0.000	-0.117
-570.661	-147.815	0.301	-0.025
-569.646	8.884	-0.213	0.162
-568.631	-200.000	0.027	0.215
-567.617	686.870	-0.083	-0.219
-566.602	38.143	0.144	-0.129
-565.588	187.563	-0.044	0.066
-564.573	414.427	-0.096	0.207
-563.558	-196.091	-0.329	-0.002
-562.544	-200.000	0.060	-0.304
-561.529	800.000	0.040	0.124
-560.515	-48.021	-0.172	0.084
-559.500	-200.000	-0.180	-0.001
-558.485	-82.174	-0.231	-0.076
-557.471	800.000	0.049	-0.167
-556.456	418.730	0.024	0.051
-555.442	-39.076	-0.191	-0.101
-554.427	-126.336	-0.277	-0.042
-553.412	-131.962	0.100	0.013
-552.398	-97.581	-0.090	0.024
-551.383	-28.063	-0.383	-0.223
-550.369	-200.000	-0.080	0.372
-549.354	800.000	0.033	-0.115
-548.339	270.170	-0.228	0.402
-547.325	-61.986	-0.389	-0.163
-546.310	-200.000	-0.082	-0.406
-545.296	-38.770	-0.321	0.170
-544.281	-18.614	0.124	0.078
-543.266	-108.879	0.112	0.024
-542.252	-200.000	-0.023	-0.163
-541.237	-200.000	0.032	0.216
-540.223	13.083	-0.118	0.092
-539.208	-103.874	-0.137	0.032
-538.193	-62.893	0.102	-0.042
-537.179	-98.865	-0.143	-0.037
-536.164	110.713	-0.195	-0.236
-535.150	634.718	0.094	0.239
-534.135	-200.000	0.024	0.132
-533.121	800.000	0.075	0.251
-532.106	109.542	0.114	-0.138
-531.091	-9.434	-0.079	0.053
-530.077	328.428	0.027	-0.052
-529.062	2.217	0.124	0.090
-528.048	-80.241	0.209	-0.070
-527.033	-123.936	0.191	0.030
-526.018	-195.193	-0.179	0.001
-525.004	-200.000	0.059	0.328
-523.989	-200.000	-0.046	-0.245
-522.975	11.384	0.176	0.135
-521.960	-83.362	0.079	-0.025
-520.945	-200.000	-0.007	-0.104
-519.931	-33.094	0.198	-0.110
-518.916	185.419	-0.171	-0.256
-517.902	-62.756	0.272	-0.113
-516.887	-133.140	0.250	-0.032
-515.872	-28.459	0.214	0.124
-514.858	1.626	0.109	0.079
-513.843	800.000	0.065	0.226
-512.829	384.268	0.041	0.084
-511.814	252.800	-0.030	-0.052
-510.799	-200.000	-0.010	-0.056
-509.785	-133.832	-0.100	0.012
-508.770	-31.116	-0.017	0.010
-507.756	30.675	0.314	0.270
-506.741	17.333	0.084	0.067
-505.726	-114.286	0.280	0.054
-504.712	-125.764	-0.712	0.108
-503.697	-57.106	-0.158	0.070
-502.683	-97.554	-0.276	0.072
-501.668	93.541	0.311	-0.354
-500.653	-30.573	0.381	-0.217
-499.639	-97.832	-0.039	0.010
-498.624	-73.375	0.261	-0.096
-497.610	800.000	-0.037	-0.131
-496.595	-200.000	-0.007	0.099
-495.581	-122.763	-0.273	0.044
-494.566	800.000	-0.076	0.294
-493.551	-69.102	0.105	-0.041
-492.537	149.269	-0.192	-0.261
-491.522	-125.370	0.242	0.037
-490.508	-200.000	0.016	0.116
-489.493	-113.606	-0.337	0.066
-488.478	800.000	-0.044	0.153
-487.464	118.206	0.107	-0.133
-486.449	119.961	0.128	-0.159
-485.435	705.161	-0.022	0.059
-484.420	-154.447	-0.268	-0.018
-483.405	135.600	0.081	-0.106
-482.391	317.797	0.249	-0.472
-481.376	-27.773	0.366	-0.213
-480.362	183.001	-0.166	0.246
-479.347	-200.000	-0.026	-0.290
-478.332	-62.043	0.323	0.135
-477.318	403.996	-0.132	-0.279
-476.303	-175.789	0.184	0.005
-475.289	-110.536	-0.334	-0.069
-474.274	-38.670	0.137	-0.073
-473.259	-56.207	-0.046	0.020
-472.245	-57.926	-0.202	0.088
-471.230	-76.581	0.014	0.005
-470.216	-200.000	0.005	0.091
-469.201	51.792	0.166	-0.158
-468.186	800.000	0.056	-0.201
-467.172	-130.084	-0.074	-0.010
-466.157	-30.319	0.051	0.029
-465.143	800.000	0.063	-0.216
-464.128	-17.291	-0.125	-0.079
-463.113	-200.000	0.049	-0.328
-462.099	-61.090	-0.285	-0.121
-461.084	-27.458	-0.233	0.136
-460.070	-153.576	-0.258	-0.018
-459.055	56.965	-0.126	-0.123
-458.040	-95.641	0.136	0.036
-457.026	-200.000	-0.017	-0.125
-456.011	-200.000	0.005	-0.519
-454.997	-6.640	0.143	-0.098
-453.982	-121.826	-0.241	0.040
-452.968	-167.586	0.105	0.004
-451.953	-14.126	-0.199	-0.128
-450.938	-200.000	0.032	-0.214
-449.924	-37.095	0.190	-0.102
-448.909	-200.000	-0.008	-0.269
-447.895	-200.000	0.031	0.186
-446.880	108.956	0.018	0.021
-445.865	31.647	0.296	-0.255
-444.851	-200.000	0.024	-0.117
-443.836	117.761	-0.101	-0.124
-442.822	22.691	-0.152	-0.124
-441.807	-200.000	-0.002	-0.232
-440.792	49.148	0.084	-0.079
-439.778	-114.934	0.144	-0.028
-438.763	55.492	0.172	-0.167
-437.749	90.057	0.253	0.284
-436.734	-72.967	0.158	0.058
-435.719	-139.047	0.193	0.021
-434.705	-178.036	-0.288	0.007
-433.690	201.646	0.175	-0.271
-432.676	46.657	-0.218	0.203
-431.661	23.512	-0.248	-0.205
-430.646	-200.000	-0.006	-0.151
-429.632	-200.000	0.018	0.090
-428.617	161.823	0.275	-0.385
-427.603	-70.597	-0.101	-0.038
-426.588	-94.720	-0.180	0.049
-425.573	800.000	0.052	-0.145
-424.559	-200.000	0.060	0.000
-423.544	423.537	0.033	0.071
-422.530	-94.783	-0.124	0.034
-421.515	478.280	0.085	-0.192
-420.500	-200.000	0.007	0.520
-419.486	42.768	0.230	0.210
-418.471	-121.101	-0.177	-0.030
-417.457	525.059	-0.073	-0.173
-416.442	-80.797	-0.333	-0.111
-415.428	36.188	-0.062	-0.055
-414.413	178.968	-0.052	-0.076
-413.398	800.000	-0.100	-0.300
-412.384	800.000	0.070	-0.221
-411.369	105.259	-0.304	-0.359
-410.355	-111.978	-0.196	0.040
-409.340	-137.818	-0.219	0.025
-408.325	800.000	0.053	0.205
-407.311	152.263	0.140	-0.191
-406.296	-200.000	-0.044	-0.211
-405.282	355.561	0.079	0.157
-404.267	-127.248	-0.153	-0.022
-403.252	146.820	-0.159	0.214
-402.238	-113.479	0.287	-0.056
-401.223	-9.411	-0.261	0.174
-400.209	-200.000	0.057	-0.320
-399.194	209.989	0.025	-0.039
-398.179	346.183	-0.027	0.053
-397.165	88.861	0.155	0.173
-396.150	99.276	-0.151	-0.174
-395.136	-84.676	-0.238	0.075
-394.121	28.075	-0.229	0.193
-393.106	-126.548	-0.238	0.035
-392.092	248.087	-0.065	0.109
-391.077	44.997	0.171	0.157
-390.063	800.000	-0.019	-0.060
-389.048	-126.919	0.069	0.010
-388.033	35.860	-0.115	0.101
-387.019	-200.000	-0.015	0.239
-386.004	-200.000	0.051	0.302
-384.990	-85.226	0.176	-0.055
-383.975	-53.671	0.137	-0.063
-382.960	-130.823	-0.193	0.026
-381.946	101.458	-0.208	-0.242
-380.931	-200.000	0.019	-0.376
-379.917	-96.585	0.216	0.057
-378.902	-200.000	-0.021	0.315
-377.888	-48.109	-0.125	0.060
-376.873	-33.824	-0.195	-0.108
-375.858	90.605	0.056	0.063
-374.844	142.054	-0.046	-0.061
-373.829	-100.410	-0.181	-0.045
-372.815	-158.741	0.164	0.009
-371.800	0.478	0.062	0.044
-370.785	-200.000	0.041	-0.258
-369.771	-22.018	0.115	0.070
-368.756	-200.000	0.055	-0.307
-367.742	-200.000	-0.016	-0.305
-366.727	-34.655	-0.308	0.169
-365.712	-97.920	0.131	0.034
-364.698	-14.414	0.211	-0.135
-363.683	-49.163	0.326	-0.156
-362.669	-71.689	-0.167	-0.062
-361.654	7.977	-0.139	-0.104
-360.639	-200.000	0.047	0.439
-359.625	257.061	-0.164	0.282
-358.610	-144.716	-0.236	0.022
-357.596	-200.000	-0.001	-0.197
-356.581	-20.205	0.292	0.180
-355.566	-73.692	-0.345	-0.125
-354.552	-10.243	-0.284	-0.188
-353.537	-81.197	0.051	-0.017
-352.523	-200.000	-0.010	0.176
-351.508	-36.374	-0.390	0.210
-350.493	315.085	-0.117	0.220
-349.479	800.000	0.036	0.116
-348.464	-83.642	-0.290	0.092
-347.450	111.070	-0.048	0.058
-346.435	55.522	-0.130	0.126
-345.420	17.764	0.214	0.170
-344.406	-25.799	0.174	0.103
-343.391	447.911	-0.061	-0.133
-342.377	65.190	-0.200	-0.202
-341.362	-102.341	-0.052	0.012
-340.348	-56.902	0.329	-0.145
-339.333	480.732	0.061	0.138
-338.318	147.043	-0.214	0.287
-337.304	5.497	-0.225	0.166
-336.289	-51.559	-0.250	-0.116
-335.275	800.000	0.084	0.284
-334.260	800.000	-0.053	0.182
-333.245	649.684	-0.024	0.062
-332.231	34.435	0.144	0.125
-331.216	28.845	0.054	0.045
-330.202	800.000	-0.050	0.144
-329.187	28.106	-0.146	-0.123
-328.172	800.000	0.132	-0.373
-327.158	-143.075	-0.113	0.011
-326.143	-126.664	-0.344	0.051
-325.129	536.815	0.111	0.262
-324.114	-162.202	-0.228	-0.011
-323.099	800.000	0.024	-0.090
-322.085	800.000	0.077	-0.234
-321.070	244.630	0.216	0.362
-320.056	121.394	0.162	0.202
-319.041	-70.772	-0.101	0.038
-318.026	465.577	0.032	0.071
-317.012	-137.410	0.248	-0.028
-315.997	-164.373	0.070	0.003
-314.983	-200.000	-0.046	-0.204
-313.968	505.974	0.041	-0.094
-312.953	-200.000	-0.004	0.133
-311.939	800.000	0.163	0.484
-310.924	-149.894	-0.555	-0.043
-309.910	-7.241	-0.182	-0.123
-308.895	232.153	0.157	0.257
-307.880	-98.869	0.136	0.034
-306.866	-172.219	0.134	-0.004
-305.851	-61.654	0.110	0.046
-304.837	-200.000	0.040	0.241
-303.822	-175.925	0.153	0.004
-302.807	87.230	0.276	0.304
-301.793	-132.306	0.271	-0.035
-300.778	-71.440	0.334	-0.125
-299.764	-8.744	0.221	-0.147
-298.749	-61.351	-0.324	-0.136
-297.735	-72.607	0.272	-0.100
-296.720	-26.323	0.169	-0.099
-295.705	-56.473	0.271	-0.120
-294.691	365.944	0.127	-0.255
-293.676	345.870	0.093	-0.183
-292.662	-48.357	0.272	0.131
-291.647	241.429	0.082	0.137
-290.632	76.356	0.151	0.160
-289.618	-62.995	0.369	-0.152
-288.603	-93.379	0.237	0.065
-287.589	51.748	0.242	0.229
-286.574	56.735	-0.209	0.203
-285.559	-56.591	-0.134	0.059
-284.545	296.788	-0.078	-0.142
-283.530	800.000	0.129	-0.381
-282.516	800.000	-0.139	-0.429
-281.501	800.000	0.071	-0.273
-280.486	40.744	0.078	0.070
-279.472	180.943	0.076	-0.112
-278.457	-120.714	-0.069	0.012
-277.443	-117.185	-0.176	0.032
-276.428	800.000	0.086	0.272
-275.413	-168.309	0.211	-0.008
-274.399	-90.202	0.508	0.147
-273.384	-200.000	0.008	0.345
-272.370	187.109	-0.094	-0.139
-271.355	-137.730	-0.091	0.010
-270.340	35.735	0.036	0.031
-269.326	-123.094	-0.023	-0.004
-268.311	84.132	0.121	0.131
-267.297	800.000	-0.075	0.316
-266.282	592.140	-0.024	0.058
-265.267	-83.316	-0.151	0.048
-264.253	-82.615	0.357	-0.115
-263.238	-133.547	-0.202	-0.025
-262.224	415.727	-0.116	0.245
-261.209	-161.978	0.320	0.016
-260.195	11.463	-0.249	-0.190
-259.180	374.481	0.200	0.406
-258.165	800.000	0.060	0.249
-257.151	-42.777	0.366	0.185
-256.136	-200.000	-0.035	0.334
-255.122	107.240	0.141	0.166
-254.107	-74.084	0.140	-0.051
-253.092	8.572	0.274	-0.205
-252.078	-125.672	-0.278	-0.042
-251.063	-200.000	0.021	-0.146
-250.049	-106.534	-0.072	-0.016
-249.034	-20.497	-0.208	0.127
-248.019	-169.575	0.135	-0.005
-247.005	30.415	0.084	0.071
-245.990	264.832	-0.201	-0.348
-244.976	-122.628	0.260	-0.042
-243.961	-53.422	-0.069	-0.032
-242.946	-178.313	-0.206	0.005
-241.932	-167.067	-0.239	0.010
-240.917	49.640	0.058	-0.055
-239.903	70.091	-0.159	0.163
-238.888	-144.889	0.127	-0.012
-237.873	23.496	0.195	0.159
-236.859	800.000	0.127	-0.375
-235.844	800.000	0.082	-0.294
-234.830	-75.394	0.087	0.031
-233.815	-187.206	-0.207	-0.003
-232.800	-200.000	0.056	0.459
-231.786	37.752	0.194	-0.172
-230.771	-63.562	-0.188	-0.077
-229.757	-35.225	0.128	-0.069
-228.742	99.862	0.187	0.215
-227.727	-105.471	-0.305	-0.069
-226.713	223.020	-0.062	-0.099
-225.698	-135.388	-0.218	0.026
-224.684	98.042	-0.142	-0.162
-223.669	394.142	-0.140	-0.289
-222.655	-200.000	-0.016	0.154
-221.640	800.000	-0.045	0.135
-220.625	-111.193	-0.287	-0.058
-219.611	800.000	-0.052	0.151
-218.596	-100.114	-0.249	-0.061
-217.582	-78.664	0.238	0.081
-216.567	-46.071	0.075	0.037
-215.552	63.236	0.152	0.152
-214.538	800.000	0.101	0.278
-213.523	220.876	-0.013	-0.020
-212.509	-63.515	0.178	-0.073
-211.494	575.091	0.091	-0.221
-210.479	800.000	0.062	0.227
-209.465	-58.616	0.131	-0.056
-208.450	59.753	-0.194	0.190
-207.436	800.000	0.105	0.321
-206.421	-138.158	0.139	0.015
-205.406	359.434	-0.023	-0.046
-204.392	-87.388	0.248	-0.075
-203.377	800.000	0.111	0.451
-202.363	540.057	-0.142	-0.335
-201.348	246.449	0.062	0.104
-200.333	72.837	-0.178	0.185
-199.319	-135.118	-0.183	0.022
-198.304	4.620	0.372	-0.271
-197.290	156.397	0.068	0.093
-196.275	-123.845	-0.082	-0.013
-195.260	-32.956	0.113	0.062
-194.246	-50.861	0.433	0.202
-193.231	136.587	0.065	-0.084
-192.217	-14.458	-0.095	-0.061
-191.202	800.000	0.127	0.386
-190.187	800.000	0.117	-0.330
-189.173	-74.132	0.296	0.106
-188.158	36.107	0.089	0.078
-187.144	-81.109	-0.111	-0.036
-186.129	-105.734	0.277	0.062
-185.114	-52.268	0.090	0.041
-184.100	203.887	0.235	0.361
-183.085	283.982	-0.182	0.325
-182.071	-40.586	0.085	-0.044
-181.056	-11.102	0.182	0.119
-180.042	-200.000	0.035	-0.259
-179.027	-64.750	0.154	0.062
-178.012	-37.916	-0.307	-0.162
-176.998	-12.126	-0.280	-0.182
-175.983	800.000	0.031	0.116
-174.969	70.115	-0.308	-0.316
-173.954	32.198	0.123	-0.105
-172.939	800.000	-0.055	-0.184
-171.925	78.965	0.106	0.113
-170.910	-200.000	-0.006	0.034
-169.896	-200.000	0.003	-0.057
-168.881	57.416	-0.154	0.149
-167.866	155.691	0.158	-0.215
-166.852	95.735	0.139	0.157
-165.837	71.006	-0.147	-0.151
-164.823	126.512	-0.107	-0.134
-163.808	800.000	0.072	0.259
-162.793	273.548	0.178	0.312
-161.779	646.796	0.115	0.290
-160.764	-91.856	-0.143	-0.040
-159.750	-200.000	0.058	0.329
-158.735	800.000	-0.038	-0.158
-157.720	-120.408	-0.259	0.044
-156.706	420.776	0.150	0.319
-155.691	-57.921	0.043	0.019
-154.677	-200.000	0.063	-0.313
-153.662	-200.000	-0.071	0.317
-152.647	800.000	0.131	0.462
-151.633	800.000	-0.087	0.253
-150.618	154.688	-0.082	0.112
-149.604	-54.085	-0.185	-0.083
-148.589	-88.558	-0.254	0.075
-147.574	-75.758	0.076	0.027
-146.560	-37.716	0.194	0.102
-145.545	428.135	0.138	0.294
-144.531	17.955	-0.072	-0.057
-143.516	-198.554	0.169	0.001
-142.502	249.450	0.184	0.308
-141.487	205.609	0.084	0.129
-140.472	34.124	-0.120	-0.103
-139.458	-23.716	-0.398	0.236
-138.443	-200.000	0.004	-0.200
-137.429	-96.169	-0.249	0.065
-136.414	-80.183	-0.181	0.060
-135.399	800.000	-0.035	0.134
-134.385	-4.467	-0.290	0.198
-133.370	120.988	-0.140	0.172
-132.356	-148.613	0.421	0.034
-131.341	267.450	0.113	-0.196
-130.326	-200.000	-0.025	0.121
-129.312	81.615	-0.312	0.334
-128.297	-138.502	-0.128	0.014
-127.283	162.601	0.303	0.420
-126.268	227.038	0.027	-0.043
-125.253	-0.068	0.170	0.120
-124.239	-120.336	-0.166	-0.028
-123.224	-27.357	0.257	-0.148
-122.210	89.020	0.133	-0.146
-121.195	-200.000	-0.023	-0.104
-120.180	-96.651	0.314	-0.082
-119.166	-175.032	0.142	0.004
-118.151	118.745	0.121	0.148
-117.137	800.000	0.055	0.157
-116.122	666.566	0.107	-0.274
-115.107	243.020	0.108	0.178
-114.093	800.000	-0.141	0.413
-113.078	-156.529	0.173	-0.011
-112.064	-1.577	0.236	-0.164
-111.049	-139.604	-0.066	-0.007
-110.034	-76.944	-0.221	0.076
-109.020	253.904	0.013	0.023
-108.005	-79.423	0.394	0.132
-106.991	800.000	-0.029	-0.089
-105.976	22.096	0.338	0.272
-104.962	75.713	0.157	-0.164
-103.947	-44.495	0.088	-0.043
-102.932	13.041	0.063	-0.048
-101.918	-82.194	0.263	0.085
-100.903	156.013	-0.115	-0.157
-99.889	-200.000	0.117	-0.684
-98.874	-200.000	0.005	-0.056
-97.859	-200.000	-0.009	-0.048
-96.845	130.380	0.224	-0.283
-95.830	-88.200	0.166	0.049
-94.816	-200.000	-0.014	-0.110
-93.801	-125.847	0.262	0.039
-92.786	-114.580	0.192	-0.036
-91.772	-79.062	0.210	-0.071
-90.757	135.191	0.030	0.039
-89.743	21.834	-0.315	0.254
-88.728	341.566	0.140	0.269
-87.713	800.000	-0.096	0.393
-86.699	800.000	-0.122	0.372
-85.684	-57.353	-0.161	-0.070
-84.670	-114.870	0.339	-0.064
-83.655	92.296	0.181	0.201
-82.640	-44.661	0.278	-0.137
-81.626	-18.731	0.309	0.190
-80.611	79.629	0.019	-0.021
-79.597	10.457	-0.204	-0.153
-78.582	-13.188	0.363	0.233
-77.567	-200.000	-0.047	-0.337
-76.553	-126.352	0.274	0.040
-75.538	98.880	0.181	-0.206
-74.524	28.036	0.118	0.099
-73.509	-200.000	-0.007	-0.079
-72.494	-80.654	0.128	0.042
-71.480	-200.000	-0.059	0.586
-70.465	-22.527	0.139	-0.083
-69.451	-200.000	0.033	0.206
-68.436	-200.000	-0.037	0.266
-67.422	-109.124	-0.309	-0.065
-66.407	800.000	-0.008	-0.032
-65.392	85.181	0.057	-0.061
-64.378	177.411	-0.171	-0.246
-63.363	-200.000	0.042	0.252
-62.349	-4.490	-0.239	-0.163
-61.334	119.802	-0.641	-0.784
-60.319	386.071	0.299	0.609
-59.305	800.000	-0.395	-1.096
-58.290	232.367	0.474	0.767
-57.276	800.000	0.535	1.741
-56.261	-200.000	90.658	522.408
-55.246	572.961	1389.884	3341.963
-54.232	183.282	2629.920	3832.633
-53.217	112.899	2354.742	2814.488
-52.203	44.770	1960.267	1778.799
-51.188	38.783	1742.931	1534.843
-50.173	35.960	1697.287	1473.038
-49.159	51.464	1743.219	1633.392
-48.144	54.722	1761.096	1675.337
-47.130	38.468	1719.457	1511.499
-46.115	35.617	1703.836	1475.850
-45.100	35.400	1699.213	1470.128
-44.086	35.425	1696.988	1468.333
-43.071	35.315	1694.465	1465.250
-42.057	35.354	1691.634	1463.041
-41.042	35.365	1689.611	1461.315
-40.027	35.373	1688.240	1460.134
-39.013	35.394	1685.629	1457.975
-37.998	35.348	1684.611	1456.694
-36.984	35.284	1683.639	1455.303
-35.969	35.485	1681.568	1454.982
-34.954	35.500	1680.020	1453.701
-33.940	35.521	1677.895	1451.963
-32.925	35.540	1676.108	1450.499
-31.911	35.482	1674.218	1448.370
-30.896	35.430	1672.851	1446.740
-29.881	35.442	1671.273	1445.405
-28.867	35.481	1669.889	1444.442
-27.852	35.450	1668.106	1442.615
-26.838	35.495	1666.489	1441.492
-25.823	35.457	1665.321	1440.139
-24.809	35.529	1663.753	1439.268
-23.794	35.537	1662.602	1438.276
-22.779	35.601	1660.817	1437.157
-21.765	35.583	1658.956	1435.355
-20.750	35.574	1657.358	1433.849
-19.736	35.580	1656.124	1432.765
-18.721	35.654	1654.080	1431.491
-17.706	35.515	1652.766	1429.262
-16.692	35.466	1651.496	1427.741
-15.677	35.557	1649.719	1426.827
-14.663	35.561	1648.542	1425.783
-13.648	35.559	1646.999	1424.378
-12.633	35.595	1645.177	1423.012
-11.619	35.504	1643.842	1421.129
-10.604	35.553	1642.287	1420.084
-9.590	35.461	1641.139	1418.354
-8.575	35.511	1639.987	1417.674
-7.560	35.505	1638.423	1416.223
-6.546	35.560	1637.044	1415.383
-5.531	35.548	1636.246	1414.544
-4.517	35.493	1635.501	1413.444
-3.502	35.534	1634.141	1412.511
-2.487	35.601	1632.571	1411.592
-1.473	35.593	1621.658	1402.042
-0.458	33.271	1601.967	1368.199
0.556	31.089	1601.904	1335.244
1.571	28.491	1626.491	1336.711
2.586	27.479	1639.212	1339.609
3.600	23.709	1582.677	1266.464
4.615	13.805	1466.323	1107.478
5.629	5.712	1398.546	1004.498
6.644	4.447	1389.785	990.058
7.659	4.229	1388.128	987.400
8.673	4.255	1387.172	986.798
9.688	4.279	1385.765	985.861
10.702	4.265	1383.149	983.822
11.717	7.732	1390.003	1010.685
12.731	16.663	1406.502	1079.801
13.746	21.670	1413.804	1117.336
14.761	21.012	1411.253	1111.028
15.775	20.010	1408.689	1102.540
16.790	18.912	1406.324	1093.609
17.804	18.134	1403.685	1086.519
18.819	17.799	1402.541	1083.412
19.834	17.561	1401.094	1080.686
20.848	17.290	1400.165	1078.154
21.863	17.048	1398.849	1075.513
22.877	16.949	1397.758	1073.950
23.892	16.967	1396.263	1072.822
24.907	16.946	1395.954	1072.357
25.921	16.931	1394.856	1071.322
26.936	16.929	1393.950	1070.522
27.950	16.994	1392.901	1070.029
28.965	17.007	1391.811	1069.180
29.980	17.127	1390.916	1069.155
30.994	17.235	1389.698	1068.802
32.009	17.263	1388.859	1068.241
33.023	17.246	1387.475	1066.975
34.038	17.218	1385.968	1065.543
35.053	17.036	1385.240	1063.748
36.067	17.038	1383.977	1062.697
37.082	17.117	1382.640	1062.074
38.096	17.149	1381.821	1061.547
39.111	17.216	1381.015	1061.251
40.126	17.088	1379.990	1059.572
41.140	16.889	1378.815	1057.337
42.155	16.755	1378.209	1055.940
43.169	16.779	1378.272	1056.046
44.184	16.797	1378.297	1056.086
45.199	16.735	1377.607	1055.076
46.213	16.925	1376.918	1055.637
47.228	17.072	1376.003	1055.760
48.242	17.033	1374.513	1054.281
49.257	17.038	1372.965	1053.029
50.271	17.087	1371.523	1052.134
51.286	17.027	1370.740	1051.072
52.301	17.027	1369.025	1049.664
53.315	16.846	1368.307	1047.900
54.330	16.789	1366.844	1046.335
55.344	16.817	1365.945	1045.724
56.359	16.921	1364.378	1045.074
57.374	16.776	1364.078	1043.861
58.388	16.765	1362.982	1042.862
59.403	16.807	1362.016	1042.285
60.417	16.744	1361.562	1041.463
61.432	16.695	1360.912	1040.567
62.447	16.626	1360.298	1039.585
63.461	16.606	1358.405	1037.925
64.476	16.620	1357.463	1037.199
65.490	16.621	1356.098	1036.068
66.505	16.675	1354.593	1035.156
67.520	16.722	1353.394	1034.439
68.534	16.741	1351.823	1033.263
69.549	16.628	1351.698	1032.384
70.563	16.553	1350.581	1030.985
71.578	16.565	1349.574	1030.198
72.593	16.580	1347.736	1028.795
73.607	16.402	1347.700	1027.590
74.622	16.427	1347.021	1027.136
75.636	16.518	1345.895	1026.740
76.651	16.518	1345.330	1026.216
77.666	16.544	1344.831	1025.904
78.680	16.695	1344.048	1026.131
79.695	16.599	1343.695	1025.190
80.709	16.643	1342.748	1024.638
81.724	16.758	1342.084	1024.739
82.739	16.898	1340.845	1024.547
83.753	16.938	1340.510	1024.440
84.768	17.125	1339.194	1024.473
85.782	17.138	1338.126	1023.647
86.797	17.166	1336.117	1022.190
87.812	16.930	1335.871	1020.488
88.826	17.042	1334.414	1019.960
89.841	16.996	1333.673	1019.028
90.855	16.966	1333.060	1018.284
91.870	17.172	1331.766	1018.443
92.884	17.125	1330.712	1017.266
93.899	17.164	1330.329	1017.118
94.914	17.133	1329.550	1016.247
95.928	17.211	1328.068	1015.488
96.943	17.204	1327.682	1015.065
97.957	17.120	1326.350	1013.450
98.972	17.085	1325.658	1012.627
99.987	17.058	1324.492	1011.484
101.001	17.115	1323.539	1011.009
102.016	17.169	1322.638	1010.548
103.030	17.107	1321.746	1009.407
104.045	17.116	1320.986	1008.796
105.060	17.137	1319.426	1007.636
106.074	16.854	1318.201	1004.938
107.089	16.681	1316.967	1002.883
108.103	16.587	1315.786	1001.335
109.118	16.551	1314.696	1000.207
110.133	16.671	1312.909	999.468
111.147	16.637	1311.716	998.266
112.162	16.841	1309.695	997.844
113.176	16.703	1309.467	996.772
114.191	16.766	1308.616	996.407
115.206	16.830	1307.121	995.552
116.220	16.749	1306.117	994.223
117.235	16.873	1304.773	993.841
118.249	16.789	1303.494	992.289
119.264	16.838	1302.298	991.579
120.279	16.675	1301.786	990.143
121.293	16.672	1300.383	988.973
122.308	16.699	1299.374	988.277
123.322	16.625	1298.183	986.853
124.337	16.583	1297.308	985.853
125.352	16.572	1296.120	984.797
126.366	16.641	1294.885	984.177
127.381	16.603	1294.106	983.276
128.395	16.630	1292.885	982.419
129.410	16.659	1291.789	981.667
130.424	16.761	1291.099	981.646
131.439	16.880	1290.009	981.419
132.454	16.831	1289.470	980.640
133.468	16.861	1288.467	979.965
134.483	16.836	1287.912	979.311
135.497	16.836	1286.626	978.247
136.512	16.870	1285.426	977.444
137.527	16.925	1284.127	976.685
138.541	16.916	1282.534	975.336
139.556	16.980	1281.375	974.736
140.570	16.974	1280.748	974.135
141.585	17.108	1279.233	973.666
142.600	17.075	1278.257	972.647
143.614	17.060	1277.317	971.763
144.629	17.320	1276.187	972.303
145.643	17.187	1275.005	970.557
146.658	17.108	1273.897	969.179
147.673	16.833	1272.623	966.551
148.687	16.918	1271.254	965.915
149.702	16.917	1269.532	964.514
150.716	16.860	1268.332	963.190
151.731	16.930	1266.815	962.350
152.746	16.866	1266.086	961.351
153.760	17.023	1264.554	960.993
154.775	17.081	1263.805	960.665
155.789	17.053	1262.713	959.591
156.804	17.069	1261.712	958.839
157.819	17.081	1260.865	958.176
158.833	17.314	1259.464	958.338
159.848	17.228	1258.877	957.325
160.862	17.244	1257.984	956.652
161.877	16.994	1256.809	954.266
162.892	17.046	1255.221	953.269
163.906	16.821	1254.754	951.568
164.921	16.924	1253.549	951.144
165.935	17.012	1252.483	950.747
166.950	17.060	1251.576	950.240
167.964	17.063	1251.159	949.859
168.979	17.091	1250.452	949.393
169.994	17.055	1249.694	948.534
171.008	17.176	1249.183	948.735
172.023	17.154	1248.248	947.817
173.037	17.199	1247.895	947.721
174.052	17.243	1246.695	946.970
175.067	17.132	1245.352	945.246
176.081	17.099	1244.241	944.138
177.096	17.053	1243.268	943.060
178.110	17.073	1242.278	942.339
179.125	17.141	1241.047	941.697
180.140	17.143	1239.740	940.630
181.154	17.128	1239.096	939.975
182.169	17.230	1237.572	939.300
183.183	17.342	1236.487	939.011
184.198	17.375	1235.400	938.289
185.213	17.282	1234.584	937.071
186.227	17.348	1233.257	936.348
187.242	17.468	1232.015	935.982
188.256	17.488	1231.042	935.267
189.271	17.501	1230.132	934.564
190.286	17.240	1229.231	932.367
191.300	17.039	1228.084	930.309
192.315	17.017	1227.117	929.379
193.329	16.990	1226.876	928.966
194.344	17.100	1225.917	928.757
195.359	17.133	1225.333	928.411
196.373	17.317	1224.800	928.931
197.388	17.437	1224.487	929.266
198.402	17.461	1224.645	929.438
199.417	17.607	1223.520	929.297
200.432	17.704	1222.739	929.149
201.446	17.676	1222.413	928.670
202.461	17.803	1221.093	928.276
203.475	17.795	1219.705	927.094
204.490	17.718	1218.255	925.493
205.504	17.480	1217.208	923.321
206.519	17.589	1215.932	922.863
207.534	17.471	1215.106	921.518
208.548	17.521	1213.959	920.833
209.563	17.462	1213.260	919.906
210.577	17.664	1212.250	920.150
211.592	17.522	1212.079	919.171
212.607	17.673	1211.040	919.115
213.621	17.755	1210.431	919.013
214.636	17.744	1208.967	917.764
215.650	17.702	1208.205	916.879
216.665	17.627	1207.426	915.804
217.680	17.884	1206.549	916.438
218.694	17.932	1205.181	915.573
219.709	17.802	1204.720	914.446
220.723	17.769	1203.972	913.617
221.738	17.859	1203.122	913.375
222.753	17.803	1202.295	912.368
223.767	17.824	1201.707	911.952
224.782	17.988	1201.045	912.242
225.796	17.975	1200.444	911.640
226.811	17.961	1199.575	910.822
227.826	17.884	1198.890	909.812
228.840	17.781	1198.417	908.825
229.855	17.827	1197.311	908.149
230.869	17.942	1195.890	907.601
231.884	17.829	1195.665	906.750
232.899	17.835	1194.607	905.903
233.913	17.842	1193.712	905.179
234.928	17.735	1192.943	903.947
235.942	17.695	1192.711	903.482
236.957	17.790	1191.638	903.090
237.972	17.803	1190.995	902.589
238.986	17.856	1189.901	901.962
240.001	17.727	1189.721	901.067
241.015	17.838	1188.651	900.761
242.030	17.914	1187.709	900.367
243.045	17.913	1187.309	899.978
244.059	17.933	1186.591	899.460
245.074	17.977	1185.709	898.946
246.088	18.027	1184.742	898.394
247.103	18.058	1184.028	897.936
248.117	18.177	1183.530	898.107
249.132	18.267	1182.546	897.750
250.147	18.505	1181.827	898.372
251.161	18.428	1181.277	897.474
252.176	18.482	1180.656	897.202
253.190	18.514	1180.243	896.979
254.205	18.593	1179.430	896.695
255.220	18.571	1179.091	896.241
256.234	18.538	1178.749	895.730
257.249	18.616	1177.303	894.959
258.263	18.586	1176.960	894.460
259.278	18.636	1176.139	894.022
260.293	18.749	1175.396	893.962
261.307	18.655	1175.426	893.419
262.322	18.716	1174.448	892.911
263.336	18.689	1173.822	892.216
264.351	18.832	1172.797	892.101
265.366	18.840	1172.323	891.703
266.380	18.845	1171.509	891.033
267.395	18.764	1170.742	889.951
268.409	18.590	1170.170	888.535
269.424	18.654	1169.464	888.255
270.439	18.674	1168.715	887.709
271.453	18.713	1168.090	887.357
272.468	18.524	1167.266	885.674
273.482	18.524	1166.276	884.844
274.497	18.708	1165.794	885.352
275.512	18.705	1165.053	884.696
276.526	18.583	1164.368	883.469
277.541	18.593	1163.836	883.040
278.555	18.664	1162.859	882.586
279.570	18.816	1161.787	882.474
280.585	18.892	1161.290	882.405
281.599	18.715	1160.837	881.077
282.614	18.822	1159.429	880.477
283.628	18.691	1158.492	879.016
284.643	18.722	1157.253	878.156
285.657	18.756	1156.638	877.787
286.672	18.760	1155.778	877.078
287.687	18.869	1154.737	876.770
288.701	18.855	1153.804	875.910
289.716	18.853	1153.468	875.566
290.730	18.768	1152.876	874.605
291.745	18.887	1152.088	874.536
292.760	18.888	1151.348	873.905
293.774	18.940	1151.021	873.842
294.789	18.925	1150.655	873.413
295.803	19.053	1149.833	873.361
296.818	18.896	1148.939	871.808
297.833	18.891	1147.726	870.783
298.847	18.897	1147.013	870.194
299.862	18.898	1146.428	869.683
300.876	19.029	1145.463	869.534
301.891	19.040	1144.837	869.038
302.906	19.138	1144.563	869.247
303.920	19.180	1143.852	868.842
304.935	19.272	1143.341	868.842
305.949	19.356	1142.506	868.554
306.964	19.269	1141.722	867.440
307.979	19.272	1140.688	866.595
308.993	19.218	1140.302	865.952
310.008	19.296	1139.539	865.687
311.022	19.297	1138.722	864.997
312.037	19.306	1138.052	864.456
313.052	19.163	1137.083	862.927
314.066	19.146	1135.853	861.831
315.081	19.086	1134.960	860.777
316.095	18.983	1134.410	859.771
317.110	19.081	1133.575	859.552
318.125	19.060	1132.650	858.668
319.139	19.104	1131.764	858.142
320.154	19.188	1131.448	858.245
321.168	19.119	1130.671	857.233
322.183	19.083	1130.092	856.540
323.197	19.190	1129.355	856.437
324.212	19.032	1129.392	855.605
325.227	19.201	1128.554	855.734
326.241	19.205	1127.852	855.145
327.256	19.234	1127.131	854.669
328.270	19.117	1125.910	853.084
329.285	19.227	1124.902	852.792
330.300	19.179	1124.135	851.897
331.314	19.238	1122.986	851.244
332.329	19.157	1122.084	850.085
333.343	19.186	1121.625	849.806
334.358	19.298	1120.635	849.530
335.373	19.299	1119.952	848.943
336.387	19.363	1119.264	848.660
337.402	19.496	1118.024	848.298
338.416	19.449	1117.549	847.632
339.431	19.491	1117.302	847.577
340.446	19.533	1116.380	847.009
341.460	19.674	1115.643	847.067
342.475	19.712	1115.145	846.796
343.489	19.726	1114.047	845.957
344.504	19.700	1113.141	845.070
345.519	19.875	1112.668	845.490
346.533	19.950	1111.287	844.734
347.548	19.880	1110.964	844.069
348.562	19.738	1110.213	842.731
349.577	19.718	1108.963	841.611
350.592	19.713	1108.333	841.033
351.606	19.569	1107.488	839.621
352.621	19.474	1107.000	838.712
353.635	19.636	1105.575	838.345
354.650	19.697	1105.055	838.175
355.665	19.652	1104.784	837.676
356.679	19.732	1103.822	837.260
357.694	19.792	1103.222	837.019
358.708	19.769	1102.880	836.576
359.723	19.740	1102.246	835.879
360.738	19.710	1101.749	835.284
361.752	19.865	1100.556	835.053
362.767	19.809	1100.415	834.602
363.781	19.898	1099.937	834.597
364.796	19.868	1099.550	834.086
365.810	20.026	1098.656	834.093
366.825	20.090	1098.019	833.843
367.840	20.196	1097.336	833.763
368.854	20.260	1097.041	833.769
369.869	20.181	1096.391	832.825
370.883	20.255	1095.231	832.223
371.898	20.022	1094.524	830.494
372.913	20.067	1094.236	830.421
373.927	20.180	1093.310	830.182
374.942	20.224	1092.960	830.055
375.956	20.211	1092.277	829.400
376.971	20.096	1092.033	828.594
377.986	20.221	1091.295	828.558
379.000	20.367	1090.583	828.637
380.015	20.428	1090.128	828.509
381.029	20.449	1089.483	828.048
382.044	20.317	1088.922	826.919
383.059	20.381	1087.742	826.256
384.073	20.426	1087.543	826.245
385.088	20.337	1086.639	825.063
386.102	20.317	1085.620	824.118
387.117	20.418	1083.711	823.075
388.132	20.264	1083.531	822.135
389.146	20.096	1082.881	820.777
390.161	20.180	1081.801	820.282
391.175	20.271	1081.230	820.204
392.190	20.352	1080.421	819.901
393.205	20.396	1079.635	819.440
394.219	20.381	1079.180	818.955
395.234	20.388	1078.013	818.029
396.248	20.361	1076.738	816.861
397.263	20.335	1075.628	815.824
398.278	20.336	1075.357	815.550
399.292	20.288	1074.193	814.373
400.307	20.254	1073.569	813.668
401.321	20.151	1072.991	812.673
402.336	20.265	1072.455	812.729
403.350	20.282	1071.406	811.944
404.365	20.161	1071.251	811.186
405.380	20.305	1070.123	810.932
406.394	20.326	1069.609	810.570
407.409	20.402	1068.749	810.204
408.423	20.560	1068.397	810.602
409.438	20.546	1067.490	809.775
410.453	20.631	1066.680	809.485
411.467	20.661	1066.046	809.069
412.482	20.758	1065.601	809.112
413.496	20.704	1064.970	808.311
414.511	20.716	1064.568	807.990
415.526	20.853	1063.977	808.105
416.540	21.034	1063.453	808.477
417.555	20.910	1063.104	807.567
418.569	20.765	1062.158	806.103
419.584	20.808	1061.538	805.762
420.599	20.901	1060.924	805.654
421.613	150.940	1401.219	1785.071
422.628	138.749	1450.837	1785.212
