DTS Sentinel unit serial number:	SN413079Multiplexer serial number:	ORYXHardware model number:	OX4-SRSoftware version number:	ORYX F/W v4.00 Oryx Data Collector v3.7.2.0data status	okinstallation	princeton_trtdifferential loss correction	single-endedforward channel	channel 2reverse channel	N/Adate	2019/09/11time	02:01:10forward acquisition time	60.00reverse acquisition time	0.00gamma	496.2192k internal	0.2332k external	0.2332temperature offset calibration	0.9940default loss term (dB/km)	0.3790temperature slope calibration	1.0000multiplexer offset coefficient	1.0000multiplexer slope coefficient	1.0000fibre end	0.00T internal ref (°C)	29.19T ext. ref 1 (°C)	-0.31T ext. ref 2 (°C)	23.22length (m)	temperature (°C)	Stokes	anti-Stokes-747.200	179.664	0.132	-0.195
-746.185	800.000	0.128	0.389
-745.171	-200.000	-0.003	0.041
-744.156	259.707	-0.035	0.061
-743.142	128.957	-0.186	-0.239
-742.127	20.292	-0.249	0.202
-741.112	-101.394	0.144	0.035
-740.098	800.000	0.120	0.420
-739.083	265.046	0.028	-0.050
-738.069	140.114	-0.190	0.252
-737.054	-35.394	-0.185	0.101
-736.039	-103.959	-0.415	-0.097
-735.025	97.315	-0.061	0.071
-734.010	-56.676	-0.161	0.072
-732.996	146.060	0.110	0.148
-731.981	305.218	0.048	0.089
-730.966	-120.673	-0.239	0.041
-729.952	-200.000	0.043	-0.301
-728.937	-51.367	0.185	-0.087
-727.923	-141.058	0.072	0.007
-726.908	-33.200	-0.539	0.300
-725.894	386.066	0.064	-0.132
-724.879	-200.000	0.039	-0.212
-723.864	233.700	-0.260	-0.431
-722.850	65.771	0.080	-0.082
-721.835	-56.739	0.112	-0.050
-720.821	-98.506	-0.083	-0.021
-719.806	800.000	0.004	-0.019
-718.791	44.499	0.114	-0.105
-717.777	800.000	-0.070	0.195
-716.762	-187.349	0.148	-0.002
-715.748	108.057	-0.186	-0.223
-714.733	-200.000	-0.025	-0.251
-713.718	-29.032	0.314	-0.181
-712.704	150.535	-0.159	-0.217
-711.689	-106.090	0.142	0.032
-710.675	-200.000	-0.004	-0.110
-709.660	-51.533	-0.165	-0.077
-708.645	-53.646	0.101	0.046
-707.631	97.285	0.290	0.334
-706.616	-74.736	-0.103	0.037
-705.602	-200.000	-0.032	0.193
-704.587	48.078	-0.122	0.115
-703.572	169.279	-0.105	0.151
-702.558	-200.000	0.011	-0.056
-701.543	402.529	0.145	-0.307
-700.529	800.000	0.069	0.281
-699.514	-118.809	-0.209	0.037
-698.499	-51.031	-0.133	-0.063
-697.485	-39.410	-0.355	-0.187
-696.470	-46.813	-0.226	0.111
-695.456	76.212	0.244	-0.259
-694.441	69.463	0.198	-0.205
-693.426	-21.133	-0.197	0.121
-692.412	-200.000	-0.035	-0.194
-691.397	-190.220	-0.517	0.006
-690.383	-200.000	0.029	-0.163
-689.368	-18.365	-0.259	0.162
-688.354	-200.000	-0.012	0.274
-687.339	-69.473	0.191	0.073
-686.324	-97.748	-0.218	-0.057
-685.310	57.611	-0.259	-0.254
-684.295	-81.108	-0.079	0.026
-683.281	-200.000	0.029	-0.277
-682.266	-50.033	0.154	0.073
-681.251	16.545	-0.097	-0.077
-680.237	-200.000	0.026	-0.283
-679.222	-13.930	-0.339	0.220
-678.208	800.000	-0.102	-0.343
-677.193	148.332	-0.154	-0.209
-676.178	-83.406	0.161	0.052
-675.164	-111.086	-0.141	-0.029
-674.149	-129.098	-0.154	-0.022
-673.135	-64.945	0.136	0.055
-672.120	800.000	0.121	-0.381
-671.105	800.000	-0.068	-0.264
-670.091	800.000	-0.066	0.260
-669.076	-10.864	0.178	0.118
-668.062	-108.260	-0.275	0.060
-667.047	216.042	-0.121	-0.192
-666.032	-200.000	0.010	-0.232
-665.018	-200.000	0.011	-0.383
-664.003	-194.997	-0.165	-0.001
-662.989	-200.000	-0.005	-0.036
-661.974	800.000	-0.040	-0.139
-660.959	-82.407	0.110	0.036
-659.945	101.117	-0.102	0.119
-658.930	-94.974	-0.306	-0.083
-657.916	-200.000	-0.026	-0.284
-656.901	572.542	-0.026	0.063
-655.886	38.814	0.048	-0.043
-654.872	-200.000	0.031	-0.202
-653.857	-200.000	0.010	0.267
-652.843	-61.073	0.116	-0.049
-651.828	-200.000	0.021	-0.230
-650.814	414.649	0.082	-0.174
-649.799	-84.223	0.242	-0.077
-648.784	51.132	-0.097	-0.092
-647.770	28.668	-0.443	-0.376
-646.755	-200.000	-0.009	-0.203
-645.741	65.325	0.110	-0.112
-644.726	194.969	-0.225	-0.342
-643.711	-200.000	0.006	0.077
-642.697	48.033	0.096	-0.090
-641.682	-74.057	0.151	-0.055
-640.668	318.329	-0.307	-0.582
-639.653	64.393	-0.128	-0.129
-638.638	-200.000	0.001	-0.021
-637.624	275.827	0.035	-0.062
-636.609	800.000	-0.020	-0.064
-635.595	772.101	-0.086	0.235
-634.580	-133.949	-0.291	0.036
-633.565	10.037	0.468	0.356
-632.551	200.432	-0.021	0.032
-631.536	67.333	-0.325	0.332
-630.522	297.029	-0.060	-0.110
-629.507	-120.783	0.255	0.043
-628.492	83.011	-0.159	-0.173
-627.478	74.685	-0.146	-0.154
-626.463	-153.215	-0.075	-0.005
-625.449	800.000	0.078	-0.264
-624.434	102.022	0.031	-0.037
-623.419	-200.000	-0.006	-0.078
-622.405	200.239	0.074	-0.114
-621.390	800.000	-0.035	0.113
-620.376	-81.630	0.310	-0.102
-619.361	27.271	-0.244	-0.205
-618.346	800.000	0.051	0.145
-617.332	-134.902	0.187	0.023
-616.317	32.518	0.139	-0.120
-615.303	219.235	0.021	0.034
-614.288	-59.439	-0.177	0.076
-613.273	602.502	-0.157	-0.392
-612.259	172.904	-0.259	-0.373
-611.244	-128.087	-0.367	0.053
-610.230	-51.631	0.237	0.111
-609.215	-83.020	-0.224	0.072
-608.201	-103.904	0.231	0.054
-607.186	97.545	-0.130	0.149
-606.171	-149.190	0.017	-0.001
-605.157	179.454	0.215	-0.314
-604.142	86.710	-0.405	0.447
-603.128	-66.193	-0.135	-0.054
-602.113	199.754	0.094	0.145
-601.098	800.000	-0.058	0.238
-600.084	-34.038	-0.253	-0.139
-599.069	615.334	-0.043	-0.108
-598.055	389.405	0.103	-0.213
-597.040	800.000	0.084	-0.253
-596.025	-80.357	-0.221	-0.074
-595.011	800.000	0.016	-0.061
-593.996	48.529	0.082	0.077
-592.982	-200.000	0.035	0.299
-591.967	-88.136	0.250	0.075
-590.952	194.843	-0.166	-0.252
-589.938	-154.129	0.121	-0.008
-588.923	-51.746	0.079	0.037
-587.909	800.000	-0.050	-0.173
-586.894	-125.700	-0.372	-0.056
-585.879	-75.797	0.284	0.101
-584.865	-60.690	0.199	-0.084
-583.850	-200.000	0.009	-0.216
-582.836	-155.253	-0.126	0.008
-581.821	464.122	-0.202	0.450
-580.806	262.076	0.084	0.146
-579.792	727.093	-0.166	-0.442
-578.777	-70.924	0.162	0.061
-577.763	-200.000	0.074	0.557
-576.748	672.854	0.060	0.154
-575.733	50.816	-0.185	0.176
-574.719	-200.000	0.033	0.263
-573.704	34.296	-0.261	0.228
-572.690	334.928	-0.036	-0.070
-571.675	-128.697	0.336	-0.047
-570.661	221.347	-0.137	-0.219
-569.646	8.745	-0.360	-0.271
-568.631	-107.184	-0.266	-0.059
-567.617	-70.868	0.123	0.046
-566.602	258.763	0.104	-0.179
-565.588	-200.000	0.021	0.154
-564.573	-156.950	-0.200	-0.012
-563.558	-67.615	0.232	0.091
-562.544	440.344	0.136	0.298
-561.529	-80.840	-0.231	-0.077
-560.515	288.203	0.177	0.319
-559.500	-200.000	0.044	-0.329
-558.485	160.179	-0.215	-0.300
-557.471	-63.165	0.241	-0.099
-556.456	-200.000	0.002	0.318
-555.442	-156.104	-0.295	0.019
-554.427	-192.890	0.221	0.002
-553.412	800.000	0.037	0.112
-552.398	800.000	0.086	-0.349
-551.383	800.000	0.041	-0.162
-550.369	-94.451	0.130	0.036
-549.354	-61.382	0.326	-0.137
-548.339	-55.013	-0.008	0.004
-547.325	-87.532	-0.178	-0.054
-546.310	-107.412	0.042	0.009
-545.296	288.831	-0.147	0.265
-544.281	17.881	0.260	-0.207
-543.266	218.252	0.151	0.240
-542.252	9.340	-0.086	-0.065
-541.237	-200.000	0.039	-0.317
-540.223	107.648	0.134	-0.159
-539.208	103.851	0.302	0.354
-538.193	800.000	-0.064	-0.246
-537.179	-61.182	-0.108	-0.046
-536.164	-200.000	-0.038	-0.172
-535.150	145.050	0.207	0.276
-534.135	-166.025	-0.284	-0.012
-533.121	-127.456	-0.164	-0.024
-532.106	800.000	-0.073	-0.261
-531.091	-112.234	0.197	-0.039
-530.077	132.819	0.116	0.149
-529.062	-200.000	-0.011	-0.100
-528.048	-15.739	-0.131	-0.083
-527.033	-200.000	-0.112	-0.000
-526.018	697.646	-0.044	0.115
-525.004	54.372	-0.300	0.288
-523.989	-155.359	-0.287	0.019
-522.975	603.912	-0.018	-0.045
-521.960	-43.336	-0.295	0.149
-520.945	-73.830	-0.106	0.039
-519.931	-182.179	0.195	-0.004
-518.916	-133.790	-0.181	0.022
-517.902	-57.258	0.120	-0.053
-516.887	-200.000	-0.006	-0.085
-515.872	-56.120	0.221	0.098
-514.858	618.806	-0.068	0.171
-513.843	3.930	0.236	0.172
-512.829	-200.000	0.045	0.332
-511.814	91.766	0.433	0.485
-510.799	-20.588	-0.168	0.103
-509.785	800.000	-0.112	-0.319
-508.770	362.309	0.062	-0.125
-507.756	-36.308	-0.179	0.096
-506.741	-99.516	-0.129	0.032
-505.726	377.227	-0.161	-0.328
-504.712	800.000	-0.014	-0.056
-503.697	-200.000	-0.022	-0.143
-502.683	-169.695	-0.454	-0.016
-501.668	-66.939	-0.103	-0.041
-500.653	-151.554	0.055	-0.004
-499.639	-76.379	-0.179	0.063
-498.624	-173.027	0.201	0.006
-497.610	-112.223	0.337	-0.067
-496.595	-138.276	-0.062	-0.007
-495.581	333.021	0.189	-0.364
-494.566	-88.768	0.198	0.059
-493.551	-150.773	-0.054	0.004
-492.537	-200.000	0.030	0.132
-491.522	-68.728	0.082	0.032
-490.508	-120.141	0.108	0.018
-489.493	30.141	0.017	-0.014
-488.478	31.139	-0.235	-0.201
-487.464	-183.161	-0.231	0.004
-486.449	12.591	0.220	0.169
-485.435	22.147	0.365	0.297
-484.420	-39.384	-0.290	-0.151
-483.405	49.162	0.307	-0.287
-482.391	-100.564	0.218	0.054
-481.376	28.355	-0.250	0.210
-480.362	-66.539	-0.140	-0.056
-479.347	61.480	0.120	-0.118
-478.332	43.383	-0.180	0.164
-477.318	415.162	-0.134	-0.284
-476.303	-62.239	0.295	0.123
-475.289	-2.818	-0.118	-0.082
-474.274	241.068	0.191	-0.317
-473.259	-88.708	0.519	-0.154
-472.245	1.136	-0.133	0.095
-471.230	800.000	-0.087	0.239
-470.216	-117.485	0.224	0.040
-469.201	17.532	-0.080	0.063
-468.186	-31.257	-0.170	0.095
-467.172	-198.000	0.061	0.000
-466.157	-74.483	0.172	-0.062
-465.143	-27.312	0.160	-0.092
-464.128	-200.000	0.101	-0.500
-463.113	300.446	0.141	-0.259
-462.099	-112.288	-0.208	0.041
-461.084	20.209	0.301	0.241
-460.070	-14.611	0.142	-0.091
-459.055	167.351	0.117	-0.165
-458.040	-200.000	-0.026	-0.126
-457.026	129.669	-0.098	-0.125
-456.011	684.077	0.080	0.208
-454.997	-200.000	-0.007	0.359
-453.982	-200.000	0.021	-0.112
-452.968	66.020	-0.180	-0.182
-451.953	-141.897	-0.100	-0.010
-450.938	306.382	0.158	-0.292
-449.924	18.198	0.179	0.142
-448.909	800.000	-0.055	0.156
-447.895	-200.000	0.164	0.000
-446.880	-200.000	-0.064	0.000
-445.865	800.000	-0.088	-0.266
-444.851	-35.055	-0.294	-0.159
-443.836	-94.184	0.203	-0.055
-442.822	-116.294	0.143	0.026
-441.807	800.000	-0.092	0.381
-440.792	175.587	-0.245	0.353
-439.778	276.173	0.096	-0.170
-438.763	-25.436	-0.466	-0.274
-437.749	181.822	0.039	0.058
-436.734	89.620	0.093	-0.103
-435.719	-72.431	0.300	-0.110
-434.705	-91.139	0.165	-0.047
-433.690	-200.000	-0.043	-0.258
-432.676	173.214	-0.202	-0.290
-431.661	-144.241	-0.277	-0.026
-430.646	656.641	-0.105	0.269
-429.632	-200.000	-0.041	0.256
-428.617	-16.386	0.282	0.178
-427.603	89.947	0.108	0.120
-426.588	-131.383	0.257	0.034
-425.573	-48.244	0.068	-0.033
-424.559	-200.000	0.002	-0.118
-423.544	-109.864	-0.050	-0.010
-422.530	-200.000	-0.037	0.182
-421.515	-127.357	-0.261	0.038
-420.500	-9.868	0.255	-0.169
-419.486	800.000	-0.114	-0.333
-418.471	-96.880	0.173	-0.045
-417.457	-141.473	0.033	0.003
-416.442	-78.350	-0.106	0.036
-415.428	-200.000	-0.023	0.358
-414.413	-35.798	-0.063	0.034
-413.398	195.251	0.145	0.219
-412.384	-200.000	0.054	0.350
-411.369	-120.195	-0.447	-0.076
-410.355	-95.326	-0.304	0.081
-409.340	641.711	0.054	0.137
-408.325	-200.000	-0.044	-0.198
-407.311	800.000	0.028	-0.103
-406.296	-53.856	0.223	-0.101
-405.282	109.629	0.128	-0.152
-404.267	-76.397	0.288	0.101
-403.252	408.727	-0.032	0.067
-402.238	327.646	0.083	0.158
-401.223	800.000	-0.083	0.270
-400.209	-108.409	0.014	-0.003
-399.194	58.201	-0.136	-0.133
-398.179	-70.053	0.252	0.095
-397.165	229.250	0.124	0.200
-396.150	-200.000	-0.009	-0.082
-395.136	74.667	-0.139	0.145
-394.121	-92.415	0.520	0.145
-393.106	37.734	-0.091	0.080
-392.092	-10.146	-0.401	-0.264
-391.077	800.000	0.014	0.058
-390.063	800.000	0.057	0.210
-389.048	-33.335	0.143	0.079
-388.033	800.000	-0.052	0.176
-387.019	-113.208	0.273	-0.053
-386.004	-200.000	0.005	0.432
-384.990	51.409	0.162	-0.153
-383.975	-11.943	-0.282	-0.183
-382.960	688.462	-0.118	0.305
-381.946	-31.081	0.169	0.094
-380.931	521.001	0.102	0.238
-379.917	-139.343	0.113	0.012
-378.902	281.425	0.115	0.204
-377.888	400.821	0.182	0.379
-376.873	492.611	-0.106	-0.241
-375.858	378.021	-0.114	-0.231
-374.844	-2.685	-0.103	-0.071
-373.829	-109.716	0.161	0.034
-372.815	-46.443	0.320	-0.156
-371.800	135.630	-0.063	0.082
-370.785	-200.000	0.088	0.443
-369.771	-122.103	-0.286	0.046
-368.756	-138.526	-0.093	-0.010
-367.742	244.183	0.102	-0.170
-366.727	-200.000	0.070	-0.391
-365.712	-59.586	-0.259	0.110
-364.698	51.401	-0.104	-0.098
-363.683	-120.878	-0.392	0.065
-362.669	-200.000	-0.007	-0.489
-361.654	800.000	0.139	-0.445
-360.639	235.767	-0.100	0.163
-359.625	100.900	-0.125	0.143
-358.610	659.125	-0.099	-0.252
-357.596	-200.000	-0.040	-0.315
-356.581	152.820	0.403	0.546
-355.566	-200.000	0.032	-0.192
-354.552	-109.151	-0.042	-0.009
-353.537	658.664	0.083	0.212
-352.523	-22.288	0.277	-0.166
-351.508	445.978	0.135	-0.295
-350.493	-175.646	-0.146	-0.004
-349.479	414.515	0.070	0.147
-348.464	44.674	0.082	-0.075
-347.450	180.384	-0.183	-0.266
-346.435	-200.000	-0.002	-0.082
-345.420	-137.408	0.211	0.024
-344.406	-166.192	-0.242	-0.010
-343.391	-20.791	0.026	-0.016
-342.377	94.499	0.231	0.260
-341.362	-28.747	0.144	-0.082
-340.348	-121.919	0.176	-0.029
-339.333	-191.420	0.186	-0.002
-338.318	334.087	-0.138	0.265
-337.304	-53.344	-0.094	0.043
-336.289	-128.486	0.207	-0.029
-335.275	-38.414	-0.240	0.126
-334.260	-125.397	0.194	-0.029
-333.245	-200.000	0.051	-0.309
-332.231	343.430	-0.087	-0.169
-331.216	-49.080	-0.342	0.162
-330.202	-38.626	0.442	0.231
-329.187	-46.224	-0.299	-0.146
-328.172	800.000	0.025	-0.070
-327.158	-65.301	-0.192	-0.076
-326.143	-32.547	0.221	-0.122
-325.129	113.985	-0.192	0.231
-324.114	27.379	0.209	0.174
-323.099	-127.917	0.322	0.046
-322.085	-200.000	0.022	0.602
-321.070	-200.000	0.013	0.085
-320.056	279.417	-0.089	0.157
-319.041	-51.347	-0.376	0.174
-318.026	-128.524	0.235	0.033
-317.012	-81.069	-0.085	0.028
-315.997	-4.270	-0.102	-0.070
-314.983	-62.081	-0.383	-0.158
-313.968	60.683	0.030	0.029
-312.953	-167.542	-0.209	-0.008
-311.939	800.000	-0.033	0.122
-310.924	177.548	0.070	0.101
-309.910	-158.301	0.142	-0.008
-308.895	-9.293	0.044	-0.029
-307.880	-146.141	-0.277	0.024
-306.866	598.675	-0.111	-0.271
-305.851	739.019	0.034	-0.089
-304.837	-111.423	0.035	0.007
-303.822	45.814	-0.121	-0.111
-302.807	-200.000	0.004	0.167
-301.793	728.447	0.132	0.348
-300.778	-8.726	0.244	0.162
-299.764	-34.010	-0.272	0.148
-298.749	-106.686	-0.151	-0.033
-297.735	426.784	-0.050	-0.107
-296.720	16.810	0.114	-0.090
-295.705	233.930	-0.091	-0.148
-294.691	-200.000	0.087	-0.381
-293.676	-200.000	-0.018	0.123
-292.662	-0.912	-0.108	0.075
-291.647	103.242	-0.125	-0.145
-290.632	-200.000	0.025	0.192
-289.618	269.781	0.205	0.356
-288.603	-89.559	0.285	0.083
-287.589	117.318	-0.170	0.206
-286.574	31.914	-0.077	-0.065
-285.559	800.000	0.087	-0.299
-284.545	11.983	0.228	0.173
-283.530	-200.000	0.012	0.142
-282.516	-200.000	-0.042	-0.218
-281.501	120.255	-0.026	-0.032
-280.486	11.924	-0.270	-0.205
-279.472	-200.000	-0.248	-0.001
-278.457	-79.887	-0.114	-0.038
-277.443	-11.525	-0.173	0.112
-276.428	-61.195	0.184	-0.077
-275.413	247.304	-0.069	0.115
-274.399	-78.108	0.153	-0.052
-273.384	120.635	0.053	0.065
-272.370	253.256	0.135	-0.227
-271.355	-81.818	-0.248	0.080
-270.340	485.861	-0.148	0.334
-269.326	-200.000	0.011	0.106
-268.311	4.728	0.265	-0.192
-267.297	258.797	-0.049	-0.083
-266.282	31.343	0.075	0.064
-265.267	26.713	-0.088	0.073
-264.253	191.966	0.138	0.206
-263.238	-200.000	0.000	-0.519
-262.224	-0.405	0.071	0.049
-261.209	-200.000	-0.004	0.140
-260.195	-54.926	0.078	0.035
-259.180	-97.914	0.314	-0.080
-258.165	-168.678	-0.117	0.004
-257.151	144.574	0.041	0.054
-256.136	-200.000	-0.005	0.238
-255.122	46.705	0.239	-0.219
-254.107	-82.198	-0.075	-0.024
-253.092	763.979	-0.138	-0.369
-252.078	49.523	-0.098	0.091
-251.063	-149.995	-0.097	-0.007
-250.049	23.428	-0.188	0.153
-249.034	-76.110	-0.228	-0.079
-248.019	64.038	-0.178	0.177
-247.005	-150.865	-0.035	0.003
-245.990	41.328	0.076	-0.067
-244.976	42.437	-0.106	0.095
-243.961	84.520	-0.084	0.090
-242.946	-45.720	0.271	-0.132
-241.932	-115.992	0.153	0.028
-240.917	-9.616	0.240	-0.158
-239.903	-24.906	0.155	-0.091
-238.888	22.774	0.074	0.060
-237.873	619.232	0.110	0.273
-236.859	-200.000	0.004	-0.169
-235.844	154.115	-0.019	-0.026
-234.830	-200.000	0.007	0.216
-233.815	-39.618	0.270	-0.139
-232.800	-121.716	-0.183	-0.030
-231.786	-200.000	-0.111	0.544
-230.771	-200.000	0.000	-0.060
-229.757	-139.922	-0.140	0.015
-228.742	-50.732	0.223	0.104
-227.727	-132.544	0.240	0.030
-226.713	-200.000	-0.007	0.030
-225.698	-110.158	-0.274	0.056
-224.684	253.764	0.121	-0.203
-223.669	-27.145	0.134	-0.077
-222.655	-40.539	0.107	0.055
-221.640	-30.761	-0.251	-0.140
-220.625	-200.000	-0.028	0.127
-219.611	43.369	0.021	-0.019
-218.596	7.166	-0.132	-0.097
-217.582	-144.187	-0.052	-0.005
-216.567	180.507	-0.198	0.287
-215.552	-200.000	0.023	0.276
-214.538	111.632	0.220	-0.262
-213.523	-3.068	0.226	0.155
-212.509	-51.470	-0.290	0.133
-211.494	-41.994	-0.189	-0.095
-210.479	-126.226	0.192	-0.028
-209.465	-200.000	0.058	0.411
-208.450	2.304	-0.229	0.163
-207.436	-15.747	0.085	0.053
-206.421	0.660	-0.073	-0.051
-205.406	25.881	-0.270	-0.222
-204.392	605.536	-0.059	0.144
-203.377	800.000	0.045	-0.135
-202.363	158.246	0.168	-0.230
-201.348	-35.172	-0.274	-0.147
-200.333	-59.329	-0.150	-0.063
-199.319	435.712	0.099	0.213
-198.304	66.433	-0.168	-0.168
-197.290	-200.000	0.022	0.133
-196.275	800.000	0.097	0.298
-195.260	-57.142	0.334	0.145
-194.246	-200.000	-0.023	-0.144
-193.231	-200.000	0.003	0.067
-192.217	-27.128	-0.369	-0.212
-191.202	-200.000	-0.033	-0.256
-190.187	561.711	0.031	-0.074
-189.173	122.066	0.052	0.064
-188.158	2.443	0.263	0.187
-187.144	-200.000	-0.005	0.313
-186.129	-79.029	0.090	-0.030
-185.114	-200.000	0.009	0.104
-184.100	-200.000	-0.004	-0.160
-183.085	800.000	0.085	-0.251
-182.071	287.873	-0.260	-0.463
-181.056	224.182	-0.122	-0.193
-180.042	-175.507	-0.242	0.006
-179.027	800.000	-0.060	-0.205
-178.012	-157.649	0.108	0.006
-176.998	800.000	-0.055	-0.214
-175.983	768.878	0.112	-0.301
-174.969	607.485	0.021	0.053
-173.954	71.141	0.038	0.038
-172.939	-130.313	0.058	-0.008
-171.925	76.242	0.188	-0.196
-170.910	684.227	-0.144	0.370
-169.896	24.301	0.065	0.053
-168.881	-132.313	0.087	-0.011
-167.866	800.000	-0.103	0.320
-166.852	203.337	-0.025	0.038
-165.837	229.445	-0.103	-0.165
-164.823	-151.965	-0.220	0.016
-163.808	-114.192	0.113	0.021
-162.793	121.302	0.094	0.116
-161.779	53.108	0.197	0.186
-160.764	44.539	-0.100	0.091
-159.750	-42.911	0.186	-0.093
-158.735	-200.000	-0.030	-0.152
-157.720	-60.784	0.174	0.072
-156.706	287.262	0.175	0.310
-155.691	-200.000	-0.010	0.367
-154.677	-155.865	0.252	-0.016
-153.662	-200.000	-0.031	-0.154
-152.647	50.221	-0.039	-0.037
-151.633	-69.145	-0.275	-0.104
-150.618	800.000	-0.029	0.120
-149.604	-36.630	0.131	-0.069
-148.589	13.278	0.127	-0.097
-147.574	104.869	-0.173	0.200
-146.560	-124.648	-0.246	-0.037
-145.545	-133.993	-0.148	0.018
-144.531	-178.937	0.077	-0.002
-143.516	800.000	0.128	-0.363
-142.502	-18.827	0.297	0.182
-141.487	-200.000	0.005	-0.032
-140.472	29.254	0.011	0.009
-139.458	-24.866	0.241	0.140
-138.443	-200.000	-0.016	-0.121
-137.429	-192.293	0.074	0.001
-136.414	-18.854	-0.255	0.156
-135.399	-200.000	0.032	0.315
-134.385	752.859	0.151	-0.401
-133.370	800.000	0.114	-0.389
-132.356	189.684	-0.187	0.275
-131.341	27.154	0.227	0.187
-130.326	-103.843	-0.347	0.080
-129.312	154.308	0.053	0.072
-128.297	-200.000	-0.075	0.360
-127.283	-109.542	-0.241	-0.050
-126.268	56.741	0.108	-0.103
-125.253	-25.234	0.077	-0.045
-124.239	-105.170	0.322	-0.072
-123.224	104.181	0.268	0.310
-122.210	-132.188	0.057	-0.007
-121.195	-88.328	-0.256	-0.075
-120.180	-13.538	-0.115	0.073
-119.166	-49.113	0.210	0.099
-118.151	151.768	0.038	0.051
-117.137	-200.000	0.030	0.224
-116.122	91.966	0.153	-0.169
-115.107	-92.680	0.127	-0.035
-114.093	-67.416	-0.112	0.043
-113.078	800.000	0.029	0.117
-112.064	-200.000	-0.007	-0.085
-111.049	-200.000	-0.013	0.162
-110.034	771.381	0.110	-0.294
-109.020	800.000	-0.099	-0.382
-108.005	-200.000	0.037	0.247
-106.991	285.099	0.054	0.095
-105.976	-18.134	-0.161	-0.099
-104.962	800.000	-0.063	0.200
-103.947	91.649	-0.121	0.133
-102.932	-200.000	0.023	-0.144
-101.918	-104.933	0.142	0.032
-100.903	-91.278	-0.377	-0.106
-99.889	-79.109	-0.079	0.026
-98.874	-200.000	0.026	-0.251
-97.859	-50.015	0.318	-0.148
-96.845	-185.187	-0.376	0.006
-95.830	-64.945	-0.257	0.102
-94.816	311.283	0.141	0.259
-93.801	279.100	-0.021	0.036
-92.786	-129.747	0.211	0.028
-91.772	16.785	0.197	0.153
-90.757	367.124	-0.059	0.117
-89.743	11.979	0.109	0.082
-88.728	-200.000	0.007	0.159
-87.713	-161.337	0.244	-0.012
-86.699	800.000	-0.052	0.192
-85.684	161.195	0.122	-0.167
-84.670	-69.162	0.277	-0.104
-83.655	208.917	0.169	0.259
-82.640	800.000	0.080	0.293
-81.626	-88.725	0.229	0.067
-80.611	396.226	0.118	-0.242
-79.597	62.422	0.070	0.069
-78.582	8.567	0.168	0.124
-77.567	-200.000	-0.020	-0.197
-76.553	-19.449	0.320	0.195
-75.538	-125.467	-0.593	-0.088
-74.524	-200.000	0.036	0.288
-73.509	145.143	-0.026	-0.034
-72.494	-96.404	-0.232	0.060
-71.480	-44.160	-0.122	0.060
-70.465	800.000	0.067	0.273
-69.451	67.282	0.221	-0.221
-68.436	-135.205	0.373	0.044
-67.422	800.000	-0.064	-0.212
-66.407	-126.364	-0.338	0.049
-65.392	800.000	-0.058	0.206
-64.378	-17.548	-0.328	-0.202
-63.363	152.009	0.130	-0.174
-62.349	-200.000	-0.050	0.437
-61.334	-6.237	-1.194	-0.798
-60.319	313.384	0.341	0.629
-59.305	308.999	-0.447	-0.818
-58.290	167.467	0.633	0.880
-57.276	362.149	0.781	1.534
-56.261	-200.000	106.558	625.559
-55.246	522.673	1513.396	3480.924
-54.232	174.790	2713.584	3845.570
-53.217	105.003	2298.019	2654.409
-52.203	38.505	1902.366	1660.708
-51.188	32.381	1688.683	1427.812
-50.173	29.793	1645.126	1371.763
-49.159	48.828	1698.946	1560.622
-48.144	49.070	1714.480	1576.647
-47.130	32.007	1671.795	1410.494
-46.115	29.272	1657.075	1377.611
-45.100	29.145	1651.899	1372.306
-44.086	29.147	1649.006	1369.864
-43.071	29.044	1646.855	1367.258
-42.057	29.044	1644.233	1365.025
-41.042	29.124	1642.384	1364.027
-40.027	29.042	1640.928	1362.161
-39.013	29.082	1638.593	1360.464
-37.998	29.039	1636.805	1358.607
-36.984	28.984	1636.055	1357.525
-35.969	29.167	1634.249	1357.323
-34.954	29.271	1632.359	1356.461
-33.940	29.277	1630.378	1354.809
-32.925	29.176	1628.888	1352.772
-31.911	29.256	1626.830	1351.599
-30.896	29.192	1625.267	1349.780
-29.881	29.195	1623.980	1348.674
-28.867	29.181	1622.750	1347.496
-27.852	29.101	1621.009	1345.417
-26.838	29.137	1619.609	1344.463
-25.823	29.125	1618.276	1343.214
-24.809	29.236	1617.122	1343.013
-23.794	29.201	1615.584	1341.429
-22.779	29.293	1613.793	1340.554
-21.765	29.211	1612.604	1338.917
-20.750	29.183	1610.295	1336.745
-19.736	29.173	1609.369	1335.855
-18.721	29.175	1607.955	1334.639
-17.706	29.162	1606.159	1333.000
-16.692	29.158	1604.605	1331.628
-15.677	29.226	1602.928	1330.677
-14.663	29.225	1602.207	1330.019
-13.648	29.313	1600.406	1329.104
-12.633	29.253	1599.314	1327.714
-11.619	29.230	1597.594	1326.065
-10.604	29.197	1596.180	1324.607
-9.590	29.181	1594.874	1323.349
-8.575	29.286	1593.693	1323.070
-7.560	29.273	1592.456	1321.899
-6.546	29.270	1591.496	1321.030
-5.531	29.179	1590.519	1319.514
-4.517	29.220	1588.946	1318.449
-3.502	29.237	1587.930	1317.676
-2.487	29.280	1586.717	1316.923
-1.473	28.969	1574.760	1304.741
-0.458	26.285	1555.272	1269.718
0.556	20.515	1556.734	1239.442
1.571	18.466	1581.593	1244.263
2.586	18.196	1595.404	1253.045
3.600	16.566	1542.920	1200.155
4.615	8.834	1433.392	1063.713
5.629	1.095	1370.133	967.428
6.644	-0.267	1361.811	952.820
7.659	-0.321	1360.173	951.249
8.673	-0.349	1359.276	950.358
9.688	-0.323	1357.033	948.873
10.702	-0.561	1354.201	945.306
11.717	2.582	1360.212	969.322
12.731	11.700	1378.061	1040.182
13.746	19.383	1390.711	1098.779
14.761	21.294	1393.743	1113.266
15.775	21.583	1393.505	1114.815
16.790	21.722	1392.633	1114.908
17.804	21.794	1391.603	1114.439
18.819	21.987	1391.908	1115.813
19.834	22.025	1391.649	1115.750
20.848	22.027	1390.712	1114.908
21.863	22.082	1389.566	1114.241
22.877	22.092	1388.857	1113.637
23.892	22.079	1388.294	1113.008
24.907	22.099	1387.469	1112.372
25.921	22.124	1386.200	1111.414
26.936	22.096	1385.028	1110.200
27.950	22.132	1384.163	1109.636
28.965	22.112	1383.223	1108.656
29.980	22.071	1381.778	1107.145
30.994	21.956	1380.817	1105.554
32.009	22.070	1379.460	1105.084
33.023	22.142	1378.188	1104.417
34.038	22.188	1376.858	1103.543
35.053	22.083	1376.299	1102.339
36.067	22.047	1375.100	1101.055
37.082	22.177	1373.879	1100.795
38.096	22.152	1373.066	1099.888
39.111	22.062	1372.639	1098.888
40.126	22.074	1372.195	1098.511
41.140	22.046	1371.733	1097.870
42.155	22.031	1371.231	1097.279
43.169	21.970	1371.310	1096.860
44.184	21.962	1370.972	1096.445
45.199	22.088	1370.658	1096.882
46.213	22.133	1369.719	1096.315
47.228	21.968	1369.079	1094.678
48.242	22.051	1367.783	1094.063
49.257	22.106	1365.910	1092.806
50.271	22.121	1364.759	1091.885
51.286	22.072	1363.346	1090.350
52.301	22.106	1362.196	1089.549
53.315	22.126	1360.809	1088.464
54.330	22.100	1360.170	1087.695
55.344	21.986	1359.597	1086.436
56.359	22.116	1358.208	1086.032
57.374	22.060	1357.274	1084.847
58.388	22.032	1356.984	1084.347
59.403	22.007	1356.598	1083.788
60.417	22.133	1355.525	1083.607
61.432	22.116	1355.181	1083.133
62.447	22.022	1354.506	1081.921
63.461	22.038	1353.117	1080.814
64.476	22.107	1352.145	1080.362
65.490	22.099	1350.673	1079.043
66.505	22.131	1349.003	1077.812
67.520	22.001	1348.364	1076.405
68.534	22.068	1347.330	1075.896
69.549	22.162	1345.760	1075.124
70.563	22.134	1345.250	1074.449
71.578	22.099	1344.209	1073.310
72.593	22.037	1343.420	1072.209
73.607	22.164	1342.466	1072.125
74.622	22.099	1341.718	1071.034
75.636	22.229	1340.778	1070.985
76.651	22.129	1340.434	1070.006
77.666	22.122	1339.690	1069.271
78.680	22.049	1339.673	1068.722
79.695	22.071	1338.654	1067.948
80.709	22.177	1337.568	1067.632
81.724	22.123	1336.829	1066.620
82.739	22.044	1335.972	1065.363
83.753	22.082	1334.849	1064.599
84.768	22.078	1333.655	1063.528
85.782	22.122	1332.055	1062.426
86.797	22.061	1331.708	1061.687
87.812	22.134	1330.080	1060.734
88.826	22.130	1329.049	1059.799
89.841	22.149	1328.538	1059.411
90.855	22.130	1327.561	1058.421
91.870	22.117	1326.692	1057.558
92.884	22.128	1325.903	1056.901
93.899	22.128	1325.136	1056.196
94.914	22.146	1324.395	1055.619
95.928	22.142	1323.338	1054.659
96.943	22.181	1322.860	1054.421
97.957	22.106	1321.650	1052.912
98.972	22.085	1320.877	1052.078
99.987	22.175	1319.533	1051.456
101.001	22.199	1318.555	1050.726
102.016	22.019	1317.800	1048.956
103.030	22.123	1316.998	1048.843
104.045	22.116	1316.257	1048.116
105.060	22.160	1315.617	1047.780
106.074	22.209	1314.220	1046.866
107.089	22.149	1313.094	1045.521
108.103	22.227	1312.157	1045.146
109.118	22.230	1311.085	1044.218
110.133	22.186	1309.823	1042.859
111.147	22.211	1308.503	1041.860
112.162	22.328	1307.106	1041.347
113.176	22.253	1306.417	1040.264
114.191	22.255	1305.283	1039.281
115.206	22.154	1304.414	1037.904
116.220	22.225	1303.404	1037.426
117.235	22.263	1302.439	1036.787
118.249	22.259	1301.484	1035.913
119.264	22.252	1300.249	1034.800
120.279	22.258	1299.829	1034.409
121.293	22.274	1298.879	1033.654
122.308	22.377	1297.839	1033.339
123.322	22.304	1296.909	1032.079
124.337	22.266	1296.089	1031.112
125.352	22.255	1295.303	1030.331
126.366	22.272	1294.623	1029.798
127.381	22.323	1293.395	1029.028
128.395	22.268	1292.708	1028.073
129.410	22.427	1291.229	1027.731
130.424	22.270	1290.829	1026.404
131.439	22.286	1289.831	1025.615
132.454	22.226	1288.777	1024.336
133.468	22.304	1288.568	1024.532
134.483	22.171	1288.200	1023.375
135.497	22.266	1287.075	1022.945
136.512	22.228	1285.927	1021.723
137.527	22.254	1284.511	1020.657
138.541	22.298	1283.056	1019.664
139.556	22.317	1281.681	1018.591
140.570	22.306	1280.910	1017.826
141.585	22.319	1279.904	1017.013
142.600	22.257	1279.051	1015.884
143.614	22.225	1278.319	1015.030
144.629	22.227	1277.494	1014.294
145.643	22.277	1276.116	1013.399
146.658	22.014	1275.516	1011.319
147.673	22.239	1274.079	1011.387
148.687	22.137	1273.740	1010.442
149.702	22.271	1271.868	1009.633
150.716	22.207	1271.149	1008.607
151.731	22.248	1269.958	1007.806
152.746	22.310	1268.961	1007.285
153.760	22.252	1268.198	1006.259
154.775	22.239	1267.098	1005.221
155.789	22.232	1265.898	1004.138
156.804	22.231	1265.463	1003.700
157.819	22.298	1264.267	1003.043
158.833	22.185	1263.615	1001.797
159.848	22.307	1263.044	1001.945
160.862	22.444	1262.152	1001.930
161.877	22.360	1261.223	1000.630
162.892	22.335	1260.747	1000.022
163.906	22.371	1260.060	999.591
164.921	22.298	1258.755	998.055
165.935	22.265	1258.467	997.548
166.950	22.330	1257.645	997.175
167.964	22.398	1257.297	997.200
168.979	22.467	1256.247	996.667
169.994	22.476	1256.080	996.499
171.008	22.434	1255.215	995.487
172.023	22.429	1254.387	994.712
173.037	22.374	1254.061	994.058
174.052	22.437	1253.021	993.498
175.067	22.323	1252.117	992.054
176.081	22.408	1250.931	991.503
177.096	22.432	1250.262	991.018
178.110	22.475	1249.346	990.451
179.125	22.413	1248.271	989.158
180.140	22.534	1247.492	989.136
181.154	22.435	1246.292	987.541
182.169	22.478	1244.907	986.594
183.183	22.518	1243.833	985.880
184.198	22.557	1243.157	985.477
185.213	22.447	1242.186	984.005
186.227	22.545	1241.299	983.764
187.242	22.559	1240.286	982.949
188.256	22.539	1239.420	982.068
189.271	22.519	1238.510	981.149
190.286	22.494	1237.921	980.455
191.300	22.453	1237.697	979.965
192.315	22.431	1237.009	979.208
193.329	22.574	1236.667	979.644
194.344	22.567	1235.725	978.773
195.359	22.562	1235.682	978.623
196.373	22.548	1234.835	977.790
197.388	22.360	1234.895	976.706
198.402	22.306	1234.747	976.204
199.417	22.361	1234.278	976.052
200.432	22.383	1233.725	975.652
201.446	22.482	1232.850	975.423
202.461	22.529	1231.590	974.598
203.475	22.577	1230.538	973.944
204.490	22.489	1229.768	972.763
205.504	22.412	1229.045	971.679
206.519	22.560	1227.941	971.536
207.534	22.601	1226.934	970.882
208.548	22.565	1226.077	969.920
209.563	22.577	1225.647	969.559
210.577	22.634	1224.488	968.870
211.592	22.526	1223.984	967.793
212.607	22.633	1223.133	967.620
213.621	22.632	1222.520	967.041
214.636	22.567	1221.920	966.127
215.650	22.608	1221.308	965.785
216.665	22.670	1219.602	964.689
217.680	22.726	1218.519	964.053
218.694	22.577	1218.217	962.914
219.709	22.702	1217.422	962.879
220.723	22.686	1216.736	962.168
221.738	22.580	1215.886	960.829
222.753	22.675	1215.226	960.745
223.767	22.622	1214.833	960.056
224.782	22.749	1214.034	960.032
225.796	22.783	1213.411	959.638
226.811	22.780	1212.866	959.107
227.826	22.768	1212.742	958.857
228.840	22.876	1211.382	958.284
229.855	22.749	1211.186	957.355
230.869	22.723	1210.331	956.457
231.884	22.669	1209.983	955.801
232.899	22.662	1209.145	955.021
233.913	22.673	1208.449	954.444
234.928	22.756	1207.911	954.385
235.942	22.824	1207.067	954.001
236.957	22.810	1206.730	953.573
237.972	22.793	1205.907	952.745
238.986	22.723	1205.146	951.682
240.001	22.751	1205.297	951.870
241.015	22.852	1203.920	951.240
242.030	22.871	1203.099	950.611
243.045	22.920	1202.437	950.271
244.059	22.840	1201.836	949.277
245.074	22.915	1200.754	948.745
246.088	22.976	1199.835	948.260
247.103	22.912	1199.188	947.322
248.117	22.885	1198.552	946.591
249.132	22.880	1197.590	945.723
250.147	22.995	1196.790	945.623
251.161	22.999	1195.635	944.644
252.176	22.901	1195.627	944.032
253.190	22.990	1195.124	944.026
254.205	22.976	1194.275	943.195
255.220	22.924	1193.882	942.525
256.234	22.980	1192.977	942.027
257.249	23.003	1192.347	941.570
258.263	23.014	1192.108	941.355
259.278	23.190	1191.111	941.420
260.293	23.052	1190.933	940.463
261.307	23.124	1190.260	940.232
262.322	23.078	1189.658	939.429
263.336	23.000	1188.980	938.398
264.351	23.064	1188.412	938.202
265.366	22.964	1188.270	937.475
266.380	22.954	1187.566	936.786
267.395	22.973	1186.769	936.177
268.409	22.933	1185.803	935.120
269.424	22.959	1185.576	934.997
270.439	23.012	1184.871	934.634
271.453	23.140	1184.261	934.747
272.468	23.147	1182.914	933.638
273.482	22.956	1182.536	932.254
274.497	23.049	1182.391	932.548
275.512	23.011	1181.627	931.658
276.526	23.055	1181.301	931.555
277.541	23.010	1180.482	930.586
278.555	23.141	1179.751	930.618
279.570	23.100	1178.932	929.671
280.585	23.168	1177.879	929.116
281.599	23.155	1177.018	928.287
282.614	23.087	1176.304	927.289
283.628	23.352	1175.163	927.693
284.643	23.261	1174.710	926.778
285.657	23.142	1173.812	925.365
286.672	23.205	1172.976	924.952
287.687	23.088	1172.706	924.044
288.701	23.269	1171.754	924.158
289.716	23.294	1170.986	923.601
290.730	23.259	1170.223	922.739
291.745	23.357	1169.527	922.613
292.760	23.315	1169.231	922.084
293.774	23.249	1168.448	921.038
294.789	23.234	1168.225	920.704
295.803	23.314	1167.262	920.279
296.818	23.288	1166.416	919.394
297.833	23.264	1165.729	918.651
298.847	23.329	1165.500	918.724
299.862	23.337	1164.468	917.869
300.876	23.253	1164.195	917.137
301.891	23.368	1163.449	917.068
302.906	23.425	1162.500	916.532
303.920	23.449	1161.846	916.057
304.935	23.402	1161.417	915.399
305.949	23.486	1160.672	915.163
306.964	23.541	1159.895	914.752
307.979	23.377	1159.888	913.819
308.993	23.470	1158.781	913.348
310.008	23.516	1158.011	912.896
311.022	23.476	1157.352	912.089
312.037	23.479	1156.446	911.311
313.052	23.435	1155.738	910.444
314.066	23.391	1154.942	909.509
315.081	23.432	1153.927	908.844
316.095	23.385	1153.527	908.208
317.110	23.538	1152.863	908.386
318.125	23.591	1151.919	907.832
319.139	23.618	1151.791	907.788
320.154	23.508	1151.280	906.744
321.168	23.565	1150.738	906.528
322.183	23.508	1149.857	905.466
323.197	23.604	1149.293	905.427
324.212	23.671	1148.192	904.823
325.227	23.580	1148.547	904.557
326.241	23.583	1147.639	903.778
327.256	23.594	1146.841	903.128
328.270	23.586	1145.960	902.313
329.285	23.626	1145.232	901.865
330.300	23.546	1144.410	900.729
331.314	23.614	1143.424	900.217
332.329	23.791	1142.440	900.261
333.343	23.722	1142.562	899.927
334.358	23.681	1141.664	898.935
335.373	23.819	1140.924	898.967
336.387	23.792	1139.973	898.001
337.402	23.747	1139.299	897.168
338.416	23.698	1138.769	896.423
339.431	23.762	1137.884	895.967
340.446	23.892	1137.000	895.849
341.460	23.815	1136.938	895.332
342.475	23.767	1136.042	894.305
343.489	23.743	1135.187	893.431
344.504	23.921	1133.819	893.172
345.519	23.930	1133.047	892.527
346.533	23.886	1132.731	891.980
347.548	23.746	1132.353	890.902
348.562	23.905	1131.312	890.802
349.577	23.798	1130.995	889.938
350.592	23.752	1130.050	888.883
351.606	23.792	1129.218	888.349
352.621	23.860	1128.618	888.139
353.635	23.894	1128.367	888.033
354.650	23.925	1127.512	887.438
355.665	23.938	1126.506	886.629
356.679	23.875	1126.428	886.179
357.694	24.037	1125.774	886.391
358.708	23.875	1125.287	885.123
359.723	23.829	1124.861	884.483
360.738	23.987	1123.440	884.070
361.752	23.846	1123.369	883.237
362.767	24.154	1122.056	883.655
363.781	23.898	1122.309	882.506
364.796	24.024	1121.361	882.305
365.810	24.029	1121.000	881.970
366.825	24.041	1120.254	881.362
367.840	24.100	1119.818	881.236
368.854	24.198	1119.099	881.076
369.869	24.064	1118.350	879.744
370.883	24.155	1117.656	879.570
371.898	24.082	1116.901	878.538
372.913	24.122	1116.480	878.325
373.927	24.029	1116.023	877.430
374.942	24.128	1115.436	877.378
375.956	24.163	1114.974	877.108
376.971	24.201	1114.160	876.578
377.986	24.224	1113.610	876.181
379.000	24.281	1113.395	876.216
380.015	24.127	1112.838	874.942
381.029	24.295	1111.458	874.605
382.044	24.292	1111.332	874.412
383.059	24.306	1110.708	873.914
384.073	24.328	1109.657	873.117
385.088	24.471	1108.868	873.120
386.102	24.304	1107.897	871.459
387.117	24.194	1107.570	870.588
388.132	24.225	1106.371	869.723
389.146	24.305	1105.846	869.624
390.161	24.473	1104.850	869.578
391.175	24.271	1104.451	868.204
392.190	24.447	1103.747	868.433
393.205	24.326	1103.318	867.426
394.219	24.304	1102.950	866.955
395.234	24.383	1101.715	866.290
396.248	24.345	1101.182	865.609
397.263	24.365	1100.247	864.899
398.278	24.413	1099.791	864.695
399.292	24.482	1098.876	864.231
400.307	24.462	1098.093	863.444
401.321	24.512	1097.722	863.316
402.336	24.417	1097.166	862.346
403.350	24.418	1096.609	861.835
404.365	24.416	1096.140	861.379
405.380	24.528	1095.280	861.170
406.394	24.508	1094.251	860.190
407.409	24.468	1093.269	859.148
408.423	24.524	1092.907	859.058
409.438	24.623	1092.001	858.744
410.453	24.665	1091.621	858.568
411.467	24.585	1090.881	857.527
412.482	24.524	1090.424	856.798
413.496	24.522	1089.528	856.012
414.511	24.704	1088.873	856.291
415.526	24.606	1088.704	855.614
416.540	24.736	1087.776	855.430
417.555	24.587	1087.575	854.483
418.569	24.622	1087.292	854.355
419.584	24.742	1086.628	854.330
420.599	24.681	1086.439	853.816
421.613	148.875	1402.048	1798.949
422.628	137.653	1448.002	1799.028
