DTS Sentinel unit serial number:	SN413079Multiplexer serial number:	ORYXHardware model number:	OX4-SRSoftware version number:	ORYX F/W v4.00 Oryx Data Collector v3.7.2.0data status	okinstallation	princeton_trtdifferential loss correction	single-endedforward channel	channel 2reverse channel	N/Adate	2019/09/15time	19:03:35forward acquisition time	60.00reverse acquisition time	0.00gamma	496.2192k internal	0.2298k external	0.2298temperature offset calibration	0.9927default loss term (dB/km)	0.3790temperature slope calibration	1.0000multiplexer offset coefficient	1.0000multiplexer slope coefficient	1.0000fibre end	0.00T internal ref (°C)	41.78T ext. ref 1 (°C)	7.05T ext. ref 2 (°C)	31.22length (m)	temperature (°C)	Stokes	anti-Stokes-747.200	472.246	-0.100	0.230
-746.185	403.633	-0.233	0.501
-745.171	141.453	-0.129	0.175
-744.156	15.669	-0.147	0.118
-743.142	800.000	-0.098	-0.351
-742.127	-73.146	-0.224	-0.084
-741.112	-141.045	0.073	0.008
-740.098	-200.000	-0.004	-0.029
-739.083	800.000	-0.058	-0.177
-738.069	36.006	-0.251	-0.225
-737.054	496.045	-0.053	0.124
-736.039	297.596	0.040	0.074
-735.025	655.986	-0.090	-0.236
-734.010	41.774	-0.148	-0.137
-732.996	116.170	-0.203	-0.254
-731.981	180.860	0.082	0.123
-730.966	32.948	0.100	0.088
-729.952	17.755	-0.101	-0.082
-728.937	166.913	-0.045	0.065
-727.923	-114.895	0.220	0.043
-726.908	20.347	-0.106	-0.088
-725.894	-147.137	-0.271	-0.024
-724.879	124.134	-0.200	-0.256
-723.864	-62.415	0.336	0.143
-722.850	-20.301	-0.106	-0.067
-721.835	-65.177	0.281	-0.116
-720.821	-46.811	-0.289	-0.144
-719.806	800.000	-0.085	0.300
-718.791	800.000	-0.086	0.253
-717.777	91.308	0.115	-0.132
-716.762	-200.000	-0.029	-0.220
-715.748	-22.710	-0.043	0.027
-714.733	580.183	0.064	-0.159
-713.718	-115.828	0.599	0.114
-712.704	-22.045	0.032	-0.020
-711.689	-38.318	0.134	0.073
-710.675	-107.981	-0.211	0.047
-709.660	-56.091	0.144	0.065
-708.645	249.128	0.121	0.208
-707.631	157.731	0.143	0.202
-706.616	800.000	-0.087	0.273
-705.602	244.928	0.160	-0.274
-704.587	-189.989	-0.279	-0.003
-703.572	-150.488	-0.107	0.008
-702.558	800.000	0.065	-0.259
-701.543	104.923	0.103	0.124
-700.529	-32.306	0.183	0.104
-699.514	800.000	-0.057	-0.253
-698.499	-132.457	-0.157	0.021
-697.485	-163.972	0.081	-0.004
-696.470	-152.516	-0.186	0.014
-695.456	-177.895	-0.154	0.004
-694.441	-10.859	0.218	0.147
-693.426	27.941	0.136	-0.117
-692.412	-200.000	0.006	-0.050
-691.397	384.647	-0.072	0.151
-690.383	-200.000	-0.008	-0.281
-689.368	114.852	-0.010	0.013
-688.354	203.185	0.056	0.088
-687.339	81.268	-0.085	-0.093
-686.324	269.374	0.099	0.176
-685.310	301.433	0.054	-0.101
-684.295	107.429	-0.271	-0.329
-683.281	800.000	-0.057	-0.161
-682.266	-81.856	-0.194	0.065
-681.251	5.144	-0.089	0.067
-680.237	-122.679	0.560	0.092
-679.222	292.697	0.207	0.384
-678.208	-200.000	0.006	-0.104
-677.193	800.000	-0.076	0.239
-676.178	-200.000	-0.010	-0.126
-675.164	26.229	-0.249	-0.212
-674.149	7.389	0.102	-0.077
-673.135	-200.000	-0.046	-0.516
-672.120	-200.000	0.018	0.250
-671.105	103.952	-0.055	-0.065
-670.091	312.530	0.048	0.092
-669.076	-200.000	-0.003	0.491
-668.062	27.008	-0.233	0.199
-667.047	0.305	0.266	0.193
-666.032	-42.428	-0.202	0.105
-665.018	481.841	-0.126	0.292
-664.003	776.507	0.081	0.225
-662.989	-149.739	0.321	-0.026
-661.974	37.143	0.020	0.018
-660.959	-109.843	0.451	-0.096
-659.945	727.663	0.065	-0.176
-658.930	570.330	-0.136	0.337
-657.916	-157.671	0.070	0.004
-656.901	62.090	-0.125	-0.127
-655.886	-178.277	-0.265	-0.006
-654.872	-57.822	0.114	0.051
-653.857	409.187	-0.052	-0.112
-652.843	-61.189	-0.223	-0.096
-651.828	93.965	-0.240	-0.276
-650.814	-6.949	0.249	-0.172
-649.799	209.146	-0.045	-0.072
-648.784	-200.000	-0.074	0.331
-647.770	800.000	0.091	0.288
-646.755	146.321	0.209	-0.286
-645.741	1.161	0.142	0.104
-644.726	-200.000	0.004	-0.045
-643.711	459.569	-0.079	-0.179
-642.697	-145.475	-0.142	0.013
-641.682	38.354	-0.126	-0.114
-640.668	14.649	0.168	0.133
-639.653	-134.772	-0.203	-0.025
-638.638	-86.576	-0.256	0.080
-637.624	-172.586	0.327	0.010
-636.609	133.413	0.085	0.111
-635.595	102.650	0.190	0.226
-634.580	57.232	-0.159	-0.157
-633.565	53.972	-0.063	-0.062
-632.551	122.298	-0.130	0.166
-631.536	-179.291	-0.129	0.003
-630.522	-130.573	0.162	0.022
-629.507	-63.850	0.092	-0.038
-628.492	8.036	0.096	0.073
-627.478	50.089	0.011	-0.011
-626.463	-27.148	0.073	0.043
-625.449	42.786	-0.153	0.142
-624.434	-200.000	0.040	0.177
-623.419	-77.541	0.452	-0.159
-622.405	550.715	0.185	-0.451
-621.390	-93.179	0.024	-0.007
-620.376	-32.558	-0.271	-0.153
-619.361	-39.513	0.260	-0.138
-618.346	800.000	-0.045	0.128
-617.332	187.414	-0.098	-0.148
-616.317	-200.000	0.050	-0.269
-615.303	-79.059	0.305	-0.105
-614.288	-52.577	0.036	0.017
-613.273	199.570	-0.098	0.153
-612.259	-112.176	-0.388	0.079
-611.244	-36.048	-0.221	-0.121
-610.230	-108.459	0.253	-0.055
-609.215	-102.891	-0.069	-0.017
-608.201	11.816	0.092	-0.072
-607.186	800.000	0.084	-0.281
-606.171	266.427	-0.116	-0.205
-605.157	-56.046	0.124	-0.056
-604.142	277.333	0.115	-0.207
-603.128	26.329	-0.272	0.231
-602.113	800.000	-0.039	-0.136
-601.098	-85.217	-0.159	-0.051
-600.084	800.000	-0.073	-0.270
-599.069	25.643	0.190	-0.160
-598.055	-47.027	-0.149	0.074
-597.040	-44.497	-0.201	0.102
-596.025	-94.397	0.369	0.102
-595.011	115.787	0.122	-0.151
-593.996	-200.000	-0.015	-0.093
-592.982	-19.702	0.069	0.044
-591.967	-47.364	-0.274	0.135
-590.952	-38.291	0.179	-0.096
-589.938	800.000	-0.006	0.024
-588.923	193.024	-0.038	-0.058
-587.909	-118.393	0.069	0.012
-586.894	62.545	0.216	-0.219
-585.879	-7.877	0.240	0.164
-584.865	182.789	-0.047	-0.070
-583.850	-94.040	-0.277	-0.077
-582.836	91.932	-0.167	-0.191
-581.821	135.566	-0.172	-0.228
-580.806	-200.000	0.051	-0.260
-579.792	-127.643	-0.141	0.021
-578.777	-104.221	-0.278	0.065
-577.763	-56.674	-0.192	-0.086
-576.748	66.076	-0.026	0.027
-575.733	-200.000	-0.051	-0.270
-574.719	800.000	0.129	0.470
-573.704	259.063	0.074	-0.129
-572.690	800.000	-0.044	-0.182
-571.675	15.290	0.008	0.006
-570.661	273.525	-0.086	0.154
-569.646	-132.078	-0.511	-0.067
-568.631	660.727	-0.112	-0.293
-567.617	-131.465	-0.150	0.020
-566.602	43.317	0.114	-0.106
-565.588	362.712	-0.080	0.164
-564.573	111.944	0.191	0.233
-563.558	613.357	0.025	-0.064
-562.544	-200.000	-0.011	-0.169
-561.529	-200.000	-0.013	0.120
-560.515	-200.000	0.001	-0.167
-559.500	36.065	-0.190	-0.169
-558.485	-25.004	0.242	-0.146
-557.471	-98.937	-0.079	0.020
-556.456	-200.000	-0.048	-0.237
-555.442	-94.662	0.288	0.079
-554.427	328.510	0.101	0.197
-553.412	-56.791	-0.130	0.058
-552.398	-200.000	-0.070	0.349
-551.383	115.474	0.306	0.379
-550.369	58.049	0.116	0.115
-549.354	-123.412	-0.427	0.069
-548.339	40.576	-0.200	-0.183
-547.325	-18.568	0.254	0.160
-546.310	14.202	0.064	-0.050
-545.296	-1.578	-0.166	0.119
-544.281	94.161	-0.122	-0.140
-543.266	-120.408	-0.220	0.038
-542.252	-33.740	-0.230	0.128
-541.237	-92.287	-0.161	-0.046
-540.223	-105.491	0.168	0.039
-539.208	-86.149	0.210	-0.066
-538.193	-200.000	0.030	-0.268
-537.179	13.163	0.159	-0.125
-536.164	-29.372	0.317	0.183
-535.150	445.016	0.063	-0.141
-534.135	124.254	-0.129	0.164
-533.121	-34.464	-0.239	-0.132
-532.106	224.028	0.045	-0.073
-531.091	588.405	-0.029	0.073
-530.077	128.325	0.050	-0.064
-529.062	800.000	0.031	-0.095
-528.048	56.648	-0.166	0.164
-527.033	-83.399	-0.219	-0.071
-526.018	-200.000	-0.032	0.227
-525.004	-68.410	-0.137	0.054
-523.989	-200.000	-0.054	0.314
-522.975	59.725	-0.292	-0.292
-521.960	193.816	0.142	-0.217
-520.945	19.162	-0.151	-0.122
-519.931	38.271	0.276	-0.249
-518.916	59.685	-0.198	0.197
-517.902	199.853	0.147	0.228
-516.887	-142.256	-0.491	-0.049
-515.872	283.108	0.037	0.067
-514.858	800.000	-0.018	-0.076
-513.843	-123.394	0.131	-0.021
-512.829	97.091	0.177	0.205
-511.814	-114.806	-0.191	-0.037
-510.799	22.380	0.297	0.245
-509.785	800.000	-0.052	0.169
-508.770	89.360	0.109	-0.123
-507.756	-200.000	0.007	0.048
-506.741	548.443	-0.086	-0.209
-505.726	-200.000	-0.027	-0.222
-504.712	792.673	-0.133	-0.369
-503.697	107.198	-0.232	0.279
-502.683	-132.119	-0.156	0.021
-501.668	800.000	-0.013	-0.043
-500.653	-127.843	-0.241	-0.035
-499.639	-116.652	0.089	0.017
-498.624	-200.000	-0.044	-0.296
-497.610	4.024	-0.209	0.155
-496.595	800.000	-0.042	0.151
-495.581	800.000	0.027	0.105
-494.566	425.925	0.092	0.201
-493.551	-127.256	-0.255	-0.038
-492.537	3.726	0.079	0.059
-491.522	63.296	-0.182	-0.184
-490.508	-200.000	0.052	-0.291
-489.493	50.292	0.168	-0.161
-488.478	800.000	-0.084	0.248
-487.464	-200.000	-0.007	0.329
-486.449	95.365	0.336	0.387
-485.435	1.934	-0.170	0.124
-484.420	70.354	-0.160	0.167
-483.405	-200.000	0.023	0.167
-482.391	129.248	0.151	0.195
-481.376	393.959	-0.076	-0.159
-480.362	-85.735	0.156	0.049
-479.347	494.073	0.101	0.235
-478.332	338.606	0.087	0.171
-477.318	11.957	-0.278	0.216
-476.303	-112.509	0.128	0.026
-475.289	198.562	-0.285	-0.440
-474.274	295.130	0.135	-0.249
-473.259	-110.203	0.151	0.032
-472.245	-200.000	-0.074	-0.395
-471.230	-13.556	0.166	-0.109
-470.216	-75.742	0.354	0.127
-469.201	-200.000	-0.014	0.445
-468.186	-73.480	0.182	-0.067
-467.172	-18.266	0.282	0.178
-466.157	-200.000	0.018	0.140
-465.143	-92.442	0.116	-0.033
-464.128	-5.686	-0.178	0.123
-463.113	-41.378	-0.338	0.176
-462.099	-200.000	0.004	0.028
-461.084	800.000	0.021	-0.065
-460.070	733.619	0.086	0.231
-459.055	800.000	-0.087	-0.254
-458.040	6.401	0.081	-0.061
-457.026	-124.537	-0.109	-0.017
-456.011	-200.000	0.034	-0.276
-454.997	611.710	0.108	-0.273
-453.982	177.380	0.095	0.140
-452.968	588.543	-0.073	0.181
-451.953	53.380	-0.075	0.072
-450.938	121.384	0.036	0.045
-449.924	595.348	0.151	-0.378
-448.909	800.000	0.031	-0.094
-447.895	-21.439	-0.092	0.056
-446.880	-46.956	-0.264	0.130
-445.865	305.588	0.202	0.379
-444.851	554.276	-0.046	-0.112
-443.836	-84.609	0.171	-0.054
-442.822	-26.781	-0.260	0.154
-441.807	293.620	0.199	0.367
-440.792	547.135	-0.056	-0.134
-439.778	333.754	-0.259	-0.506
-438.763	-200.000	0.060	-0.299
-437.749	305.859	-0.155	0.291
-436.734	49.097	-0.113	0.107
-435.719	-63.581	-0.134	0.055
-434.705	-119.485	-0.137	-0.024
-433.690	-200.000	0.029	-0.148
-432.676	121.818	0.280	-0.352
-431.661	225.561	0.075	-0.123
-430.646	-152.974	-0.220	0.016
-429.632	284.298	0.100	-0.181
-428.617	-63.496	-0.198	-0.082
-427.603	37.374	-0.132	-0.118
-426.588	-170.567	0.375	0.013
-425.573	374.888	0.127	-0.261
-424.559	314.825	0.141	-0.268
-423.544	122.142	0.030	0.038
-422.530	111.649	0.109	-0.133
-421.515	465.525	0.106	-0.240
-420.500	800.000	-0.057	-0.240
-419.486	-49.754	0.229	-0.110
-418.471	388.994	0.149	0.311
-417.457	-106.460	0.116	0.026
-416.442	47.276	0.090	0.084
-415.428	800.000	-0.030	-0.090
-414.413	-142.594	0.175	-0.017
-413.398	-200.000	-0.016	0.286
-412.384	-52.809	-0.157	-0.073
-411.369	-200.000	-0.032	0.525
-410.355	96.513	-0.090	-0.104
-409.340	485.048	-0.077	-0.177
-408.325	-83.466	-0.069	0.022
-407.311	-165.831	-0.298	-0.013
-406.296	-200.000	0.030	0.389
-405.282	800.000	-0.032	-0.096
-404.267	-200.000	0.038	-0.206
-403.252	276.387	0.043	0.077
-402.238	-104.195	-0.182	0.043
-401.223	237.109	-0.232	-0.386
-400.209	-43.588	-0.255	-0.129
-399.194	260.308	-0.057	0.099
-398.179	323.845	0.212	0.407
-397.165	800.000	0.101	0.331
-396.150	72.751	0.058	-0.061
-395.136	-124.882	0.089	-0.014
-394.121	-50.079	-0.275	0.131
-393.106	800.000	0.078	0.318
-392.092	343.087	0.120	0.236
-391.077	-200.000	-0.021	0.139
-390.063	93.679	0.182	-0.207
-389.048	195.701	0.169	0.258
-388.033	489.704	0.135	-0.310
-387.019	-200.000	0.009	0.149
-386.004	800.000	0.019	0.073
-384.990	-126.951	0.202	0.030
-383.975	-26.973	0.174	-0.102
-382.960	11.923	0.424	0.328
-381.946	800.000	0.066	0.233
-380.931	119.637	-0.140	-0.174
-379.917	-200.000	0.002	-0.193
-378.902	11.584	0.061	0.047
-377.888	-200.000	-0.021	-0.140
-376.873	-169.584	0.249	0.009
-375.858	-53.541	-0.171	0.079
-374.844	800.000	-0.057	0.184
-373.829	17.058	0.247	-0.197
-372.815	800.000	0.016	0.055
-371.800	750.730	0.060	-0.163
-370.785	124.040	-0.185	0.234
-369.771	-29.813	0.029	0.016
-368.756	-87.715	-0.393	0.119
-367.742	-136.643	0.220	0.026
-366.727	-17.060	0.183	0.116
-365.712	-200.000	-0.045	0.317
-364.698	47.487	-0.216	-0.202
-363.683	-200.000	0.075	-0.393
-362.669	-83.154	0.061	-0.020
-361.654	-11.237	-0.315	-0.208
-360.639	11.446	0.092	0.071
-359.625	-200.000	0.064	-0.520
-358.610	-78.311	0.109	-0.038
-357.596	-200.000	-0.038	-0.362
-356.581	307.667	0.217	0.408
-355.566	-51.669	0.334	-0.157
-354.552	243.449	0.208	-0.350
-353.537	-76.361	-0.075	-0.027
-352.523	-50.832	-0.171	-0.081
-351.508	-122.752	0.159	-0.026
-350.493	24.110	-0.117	0.097
-349.479	-132.799	0.598	-0.077
-348.464	65.134	0.141	0.143
-347.450	67.060	-0.371	-0.380
-346.435	-200.000	0.035	0.157
-345.420	-81.561	-0.244	0.081
-344.406	-78.910	-0.347	0.119
-343.391	-49.862	0.099	-0.047
-342.377	-78.462	-0.300	-0.103
-341.362	-105.409	0.105	0.024
-340.348	239.111	0.073	-0.122
-339.333	367.782	0.036	0.073
-338.318	800.000	-0.132	0.547
-337.304	-200.000	-0.068	0.365
-336.289	385.418	0.153	-0.317
-335.275	-64.667	-0.570	0.232
-334.260	-82.598	0.153	-0.050
-333.245	-200.000	0.014	0.217
-332.231	-174.992	0.181	0.005
-331.216	-9.398	-0.087	-0.058
-330.202	-200.000	0.012	0.112
-329.187	800.000	-0.059	0.165
-328.172	-33.780	-0.132	0.073
-327.158	-178.474	-0.252	-0.006
-326.143	800.000	0.029	-0.093
-325.129	-145.482	0.202	-0.018
-324.114	22.333	0.061	0.050
-323.099	100.976	-0.192	0.225
-322.085	-106.375	0.191	-0.043
-321.070	-187.506	0.393	0.005
-320.056	-162.446	-0.162	0.008
-319.041	-24.596	0.199	-0.119
-318.026	324.044	0.113	0.216
-317.012	-124.064	0.131	0.021
-315.997	-32.349	0.227	0.127
-314.983	267.867	0.189	0.333
-313.968	63.491	0.092	-0.093
-312.953	-186.073	-0.267	-0.004
-311.939	-172.562	-0.175	0.006
-310.924	-200.000	0.000	-0.045
-309.910	-83.013	-0.054	0.018
-308.895	-99.385	-0.241	-0.061
-307.880	800.000	0.023	-0.078
-306.866	-157.755	-0.181	0.011
-305.851	197.354	0.034	0.052
-304.837	578.996	-0.120	0.295
-303.822	-200.000	-0.024	-0.120
-302.807	-174.522	-0.080	-0.002
-301.793	-200.000	-0.028	0.190
-300.778	-200.000	-0.016	-0.072
-299.764	27.262	-0.073	-0.062
-298.749	800.000	-0.084	-0.256
-297.735	-200.000	0.000	0.068
-296.720	104.959	0.179	-0.211
-295.705	-200.000	0.006	-0.082
-294.691	-95.551	-0.070	-0.019
-293.676	-200.000	0.014	-0.538
-292.662	468.666	-0.035	0.078
-291.647	-200.000	0.025	-0.233
-290.632	-200.000	-0.026	0.198
-289.618	57.731	-0.195	0.191
-288.603	131.023	-0.055	-0.071
-287.589	236.347	-0.128	0.213
-286.574	762.737	0.039	0.105
-285.559	-19.074	-0.107	-0.067
-284.545	-200.000	0.031	0.266
-283.530	21.410	-0.085	0.070
-282.516	447.447	0.036	-0.080
-281.501	-56.460	-0.236	0.105
-280.486	-106.794	0.101	-0.022
-279.472	800.000	0.073	-0.248
-278.457	108.519	-0.328	0.392
-277.443	283.686	0.157	0.283
-276.428	-135.704	-0.052	0.006
-275.413	328.116	0.111	-0.214
-274.399	229.618	-0.009	0.014
-273.384	45.367	-0.049	-0.045
-272.370	-87.097	0.171	0.052
-271.355	45.904	0.236	0.219
-270.340	494.196	0.085	-0.195
-269.326	3.957	-0.177	0.130
-268.311	494.821	-0.051	0.118
-267.297	6.563	0.148	-0.110
-266.282	-200.000	0.032	-0.172
-265.267	91.181	0.222	-0.249
-264.253	-200.000	-0.007	0.105
-263.238	-200.000	0.035	-0.437
-262.224	93.449	-0.220	-0.250
-261.209	-200.000	0.021	0.127
-260.195	800.000	0.162	-0.490
-259.180	800.000	-0.103	0.392
-258.165	-3.189	0.112	-0.078
-257.151	-160.994	-0.163	-0.009
-256.136	800.000	-0.103	0.419
-255.122	-18.800	0.149	-0.093
-254.107	209.122	0.067	0.105
-253.092	800.000	0.017	0.055
-252.078	-78.215	-0.227	-0.078
-251.063	80.332	0.302	0.325
-250.049	-200.000	0.153	0.000
-249.034	-58.583	0.445	-0.193
-248.019	559.294	-0.052	-0.126
-247.005	158.754	-0.121	-0.169
-245.990	63.861	-0.226	-0.228
-244.976	390.821	-0.181	0.376
-243.961	-109.736	0.342	-0.072
-242.946	120.525	-0.196	0.244
-241.932	-46.163	-0.237	-0.117
-240.917	800.000	0.043	-0.183
-239.903	-86.580	-0.312	0.096
-238.888	-60.011	-0.083	-0.035
-237.873	-77.171	0.243	0.085
-236.859	-99.789	0.191	0.048
-235.844	69.614	0.047	0.049
-234.830	-0.371	-0.168	0.120
-233.815	800.000	0.116	0.365
-232.800	-90.757	0.453	-0.131
-231.786	800.000	0.046	0.160
-230.771	91.865	0.161	-0.181
-229.757	82.774	-0.148	0.161
-228.742	312.095	0.153	0.288
-227.727	-16.076	-0.322	-0.204
-226.713	328.303	0.030	-0.057
-225.698	-77.153	0.235	0.082
-224.684	-200.000	-0.011	0.293
-223.669	-79.197	-0.093	-0.032
-222.655	98.414	-0.165	0.190
-221.640	-200.000	-0.054	0.256
-220.625	800.000	0.117	-0.421
-219.611	-89.570	-0.375	0.110
-218.596	-126.181	-0.158	0.024
-217.582	-200.000	0.018	0.400
-216.567	-200.000	-0.028	0.334
-215.552	231.797	0.110	-0.180
-214.538	150.888	-0.142	0.193
-213.523	5.135	0.276	0.203
-212.509	-6.163	-0.181	-0.123
-211.494	800.000	0.058	-0.244
-210.479	-200.000	-0.012	0.309
-209.465	-35.258	-0.182	-0.099
-208.450	-190.983	0.537	-0.006
-207.436	156.217	-0.202	0.278
-206.421	180.459	0.090	-0.132
-205.406	20.041	0.168	-0.135
-204.392	-200.000	-0.116	-0.559
-203.377	70.082	0.164	-0.170
-202.363	-78.731	0.302	0.103
-201.348	525.002	-0.149	0.351
-200.333	43.695	0.109	-0.099
-199.319	-98.319	0.587	-0.150
-198.304	-172.414	0.261	-0.008
-197.290	-108.981	0.191	-0.041
-196.275	-97.875	0.109	-0.028
-195.260	96.798	0.111	-0.127
-194.246	-53.421	-0.320	0.147
-193.231	15.259	-0.297	-0.233
-192.217	-43.047	0.184	-0.093
-191.202	800.000	-0.047	0.168
-190.187	138.941	-0.255	-0.334
-189.173	800.000	-0.138	0.381
-188.158	160.582	-0.156	0.217
-187.144	648.176	-0.117	0.298
-186.129	47.712	-0.242	-0.226
-185.114	161.874	0.021	0.030
-184.100	-67.448	-0.101	0.040
-183.085	207.101	-0.107	-0.167
-182.071	52.220	0.329	0.313
-181.056	-45.904	-0.117	0.057
-180.042	-187.791	0.025	0.000
-179.027	-55.466	0.035	0.016
-178.012	-27.986	0.169	-0.098
-176.998	800.000	-0.073	0.215
-175.983	33.246	-0.174	-0.151
-174.969	-200.000	-0.006	-0.131
-173.954	-200.000	-0.012	-0.233
-172.939	-200.000	-0.017	-0.159
-171.925	52.430	0.171	-0.163
-170.910	-200.000	0.019	0.131
-169.896	375.256	-0.189	-0.384
-168.881	-200.000	-0.006	0.207
-167.866	-63.053	-0.152	0.063
-166.852	-200.000	-0.024	-0.263
-165.837	28.800	0.026	0.022
-164.823	432.024	-0.059	-0.128
-163.808	267.068	-0.196	0.341
-162.793	-48.982	0.126	0.060
-161.779	-200.000	-0.008	-0.240
-160.764	261.885	0.058	0.100
-159.750	302.389	0.103	-0.190
-158.735	-118.407	0.162	0.029
-157.720	49.998	-0.348	-0.328
-156.706	-72.641	0.076	-0.028
-155.691	-101.336	0.276	0.067
-154.677	-137.316	0.132	-0.015
-153.662	-200.000	0.002	0.010
-152.647	311.199	0.150	0.280
-151.633	624.051	-0.107	-0.270
-150.618	123.235	0.109	-0.136
-149.604	-111.588	0.161	0.033
-148.589	125.311	0.183	0.230
-147.574	67.382	0.071	-0.072
-146.560	-200.000	0.025	-0.140
-145.545	800.000	-0.060	-0.246
-144.531	102.484	0.101	-0.118
-143.516	101.056	0.191	-0.221
-142.502	-30.423	0.368	0.208
-141.487	10.492	0.125	0.095
-140.472	134.824	-0.208	0.269
-139.458	800.000	0.022	-0.095
-138.443	19.173	0.241	-0.193
-137.429	257.548	0.202	0.346
-136.414	-200.000	-0.003	-0.034
-135.399	-15.846	-0.112	-0.071
-134.385	-98.917	0.327	0.083
-133.370	-12.026	-0.081	0.053
-132.356	-68.167	-0.285	0.110
-131.341	20.418	0.084	-0.067
-130.326	-28.289	0.234	-0.135
-129.312	800.000	-0.032	0.094
-128.297	800.000	-0.124	0.359
-127.283	-105.636	-0.099	0.022
-126.268	238.480	0.106	0.175
-125.253	-97.541	-0.130	-0.034
-124.239	-200.000	-0.010	-0.093
-123.224	88.364	0.223	0.247
-122.210	16.470	-0.238	-0.187
-121.195	661.150	0.166	0.425
-120.180	-13.561	0.238	-0.154
-119.166	-24.725	0.285	-0.169
-118.151	56.551	0.210	-0.204
-117.137	-102.523	-0.240	0.057
-116.122	-108.717	-0.173	-0.037
-115.107	18.353	-0.431	-0.343
-114.093	15.891	0.179	0.140
-113.078	800.000	0.099	0.324
-112.064	50.644	-0.092	0.087
-111.049	-83.187	0.251	-0.080
-110.034	-200.000	0.021	0.137
-109.020	-100.963	0.370	0.090
-108.005	-97.405	0.063	-0.016
-106.991	22.323	0.123	0.100
-105.976	-83.275	0.269	0.086
-104.962	119.714	-0.128	-0.158
-103.947	800.000	0.045	-0.139
-102.932	-48.151	-0.361	0.174
-101.918	-7.159	-0.167	0.113
-100.903	-162.126	0.084	0.004
-99.889	-57.217	0.026	-0.011
-98.874	-173.988	0.123	0.004
-97.859	1.027	-0.162	-0.116
-96.845	-70.608	0.114	-0.043
-95.830	246.492	-0.073	0.122
-94.816	-60.703	-0.301	0.127
-93.801	4.974	-0.288	-0.211
-92.786	304.295	-0.176	0.324
-91.772	-41.503	-0.073	0.037
-90.757	149.701	0.155	-0.209
-89.743	800.000	0.065	0.217
-88.728	-69.360	0.078	0.030
-87.713	137.889	-0.177	-0.230
-86.699	-67.798	0.279	0.108
-85.684	170.495	0.152	0.216
-84.670	-42.512	0.173	0.088
-83.655	800.000	-0.128	0.384
-82.640	296.097	0.211	0.384
-81.626	668.197	0.085	-0.218
-80.611	-200.000	-0.014	-0.408
-79.597	-200.000	-0.015	0.246
-78.582	68.470	0.090	0.092
-77.567	-80.449	-0.028	0.009
-76.553	800.000	-0.072	-0.261
-75.538	-200.000	0.019	-0.094
-74.524	-40.610	0.303	-0.156
-73.509	800.000	-0.056	-0.195
-72.494	229.209	-0.130	-0.212
-71.480	28.630	0.070	-0.059
-70.465	-62.699	-0.390	-0.161
-69.451	-107.795	0.198	-0.043
-68.436	32.086	0.180	0.154
-67.422	-200.000	0.112	-0.492
-66.407	-200.000	-0.017	0.103
-65.392	122.960	0.081	0.100
-64.378	502.381	0.046	0.105
-63.363	800.000	0.070	0.266
-62.349	184.492	-0.031	0.045
-61.334	88.921	-0.683	-0.756
-60.319	343.781	0.179	0.348
-59.305	-200.000	0.001	-0.961
-58.290	81.135	0.641	0.688
-57.276	125.182	0.843	1.056
-56.261	-200.000	77.291	535.958
-55.246	570.706	1286.189	3109.896
-54.232	153.664	2508.728	3414.624
-53.217	112.592	2330.581	2802.686
-52.203	51.145	1957.483	1844.733
-51.188	45.151	1749.628	1601.958
-50.173	42.282	1704.848	1538.917
-49.159	57.137	1740.065	1685.802
-48.144	62.334	1758.631	1743.837
-47.130	45.035	1722.659	1576.114
-46.115	41.905	1708.527	1539.094
-45.100	41.657	1704.246	1533.269
-44.086	41.698	1701.050	1530.649
-43.071	41.780	1698.034	1528.500
-42.057	41.675	1695.606	1525.455
-41.042	41.664	1693.743	1523.632
-40.027	41.606	1692.273	1521.810
-39.013	41.606	1690.716	1520.347
-37.998	41.604	1688.429	1518.217
-36.984	41.617	1687.378	1517.310
-35.969	41.800	1685.356	1516.817
-34.954	41.723	1684.356	1515.279
-33.940	41.811	1681.707	1513.499
-32.925	41.783	1680.027	1511.719
-31.911	41.733	1678.442	1509.855
-30.896	41.740	1676.620	1508.202
-29.881	41.732	1675.217	1506.826
-28.867	41.829	1673.418	1505.878
-27.852	41.800	1671.838	1504.178
-26.838	41.807	1670.430	1502.903
-25.823	41.755	1669.168	1501.317
-24.809	41.772	1667.912	1500.254
-23.794	41.849	1666.039	1499.084
-22.779	41.765	1664.905	1497.379
-21.765	41.784	1663.026	1495.773
-20.750	41.783	1661.356	1494.205
-19.736	41.887	1659.708	1493.436
-18.721	41.827	1657.888	1491.291
-17.706	41.775	1656.752	1489.826
-16.692	41.834	1655.178	1488.788
-15.677	41.822	1654.014	1487.594
-14.663	41.888	1652.402	1486.578
-13.648	41.806	1651.293	1484.911
-12.633	41.851	1649.702	1483.751
-11.619	41.804	1647.898	1481.727
-10.604	41.802	1646.748	1480.618
-9.590	41.864	1644.956	1479.402
-8.575	41.836	1644.029	1478.302
-7.560	41.828	1642.467	1476.782
-6.546	41.861	1641.143	1475.779
-5.531	41.849	1640.396	1474.958
-4.517	41.854	1638.716	1473.431
-3.502	41.837	1637.635	1472.271
-2.487	41.875	1636.363	1471.350
-1.473	41.092	1623.353	1453.876
-0.458	36.528	1598.857	1398.945
0.556	27.806	1592.321	1341.856
1.571	24.004	1613.087	1330.862
2.586	22.611	1624.643	1329.779
3.600	20.043	1574.637	1269.936
4.615	14.036	1468.645	1143.156
5.629	8.435	1403.394	1055.368
6.644	7.180	1394.373	1040.252
7.659	7.071	1392.449	1038.006
8.673	6.992	1391.721	1036.857
9.688	6.957	1389.224	1034.675
10.702	6.740	1386.677	1031.269
11.717	9.132	1391.467	1050.400
12.731	14.389	1401.797	1092.665
13.746	17.506	1404.995	1115.515
14.761	17.040	1403.290	1111.012
15.775	15.968	1400.683	1101.840
16.790	14.867	1397.558	1092.100
17.804	13.965	1395.592	1084.580
18.819	13.647	1393.632	1080.885
19.834	13.196	1392.764	1077.179
20.848	13.030	1391.381	1074.932
21.863	12.769	1389.849	1071.959
22.877	12.651	1388.971	1070.420
23.892	12.636	1387.874	1069.378
24.907	12.642	1387.097	1068.726
25.921	12.588	1386.203	1067.590
26.936	12.676	1385.173	1067.273
27.950	12.617	1384.707	1066.438
28.965	12.717	1383.313	1065.918
29.980	12.799	1381.902	1065.268
30.994	12.882	1380.415	1064.563
32.009	12.860	1379.708	1063.781
33.023	12.890	1378.409	1062.880
34.038	12.864	1376.704	1061.305
35.053	12.825	1375.725	1060.202
36.067	12.722	1374.328	1058.371
37.082	12.818	1373.044	1057.903
38.096	12.813	1371.841	1056.849
39.111	12.780	1371.252	1056.093
40.126	12.709	1370.640	1055.071
41.140	12.675	1369.786	1054.106
42.155	12.610	1369.298	1053.219
43.169	12.529	1369.238	1052.563
44.184	12.525	1368.869	1052.161
45.199	12.525	1368.787	1052.005
46.213	12.599	1368.030	1051.802
47.228	12.704	1366.574	1051.258
48.242	12.728	1365.465	1050.469
49.257	12.761	1363.647	1049.185
50.271	12.703	1363.025	1048.242
51.286	12.668	1361.528	1046.779
52.301	12.711	1359.642	1045.508
53.315	12.623	1358.867	1044.264
54.330	12.607	1357.840	1043.277
55.344	12.686	1356.724	1042.826
56.359	12.659	1355.096	1041.314
57.374	12.648	1354.171	1040.444
58.388	12.524	1354.005	1039.437
59.403	12.598	1353.004	1039.047
60.417	12.555	1352.421	1038.233
61.432	12.499	1351.850	1037.353
62.447	12.423	1350.662	1035.870
63.461	12.410	1349.460	1034.775
64.476	12.440	1348.430	1034.080
65.490	12.442	1347.213	1033.071
66.505	12.510	1345.742	1032.275
67.520	12.476	1344.602	1031.094
68.534	12.516	1343.726	1030.586
69.549	12.488	1342.507	1029.383
70.563	12.383	1341.648	1027.976
71.578	12.386	1340.105	1026.723
72.593	12.320	1339.086	1025.441
73.607	12.261	1338.912	1024.848
74.622	12.350	1338.125	1024.705
75.636	12.325	1336.815	1023.460
76.651	12.274	1336.418	1022.746
77.666	12.392	1335.851	1022.957
78.680	12.433	1335.145	1022.583
79.695	12.392	1334.429	1021.690
80.709	12.395	1333.796	1021.129
81.724	12.494	1332.867	1020.944
82.739	12.553	1331.690	1020.315
83.753	12.617	1331.262	1020.297
84.768	12.731	1330.135	1020.050
85.782	12.722	1328.741	1018.833
86.797	12.723	1327.798	1018.027
87.812	12.623	1326.243	1016.129
88.826	12.647	1325.393	1015.533
89.841	12.678	1324.251	1014.761
90.855	12.705	1323.231	1014.058
91.870	12.800	1322.416	1013.924
92.884	12.808	1321.935	1013.517
93.899	12.749	1321.274	1012.559
94.914	12.830	1319.947	1011.944
95.928	12.825	1319.240	1011.285
96.943	12.915	1317.709	1010.571
97.957	12.812	1317.341	1009.573
98.972	12.745	1316.492	1008.422
99.987	12.766	1314.782	1007.151
101.001	12.778	1313.906	1006.466
102.016	12.732	1313.143	1005.509
103.030	12.771	1312.573	1005.219
104.045	12.833	1310.930	1004.250
105.060	12.788	1309.657	1002.915
106.074	12.601	1308.634	1000.904
107.089	12.527	1306.790	998.955
108.103	12.501	1305.577	997.780
109.118	12.517	1304.442	996.926
110.133	12.502	1303.043	995.679
111.147	12.565	1301.474	994.772
112.162	12.596	1300.157	993.862
113.176	12.593	1299.455	993.220
114.191	12.600	1298.814	992.683
115.206	12.697	1297.003	991.794
116.220	12.607	1295.925	990.341
117.235	12.610	1294.510	989.193
118.249	12.634	1293.697	988.627
119.264	12.636	1292.315	987.497
120.279	12.507	1291.441	985.965
121.293	12.523	1290.296	985.099
122.308	12.537	1289.613	984.575
123.322	12.517	1288.461	983.493
124.337	12.412	1287.799	982.273
125.352	12.662	1285.705	982.077
126.366	12.607	1284.656	980.860
127.381	12.503	1284.009	979.664
128.395	12.543	1283.181	979.183
129.410	12.539	1281.908	978.103
130.424	12.565	1281.456	977.825
131.439	12.535	1280.475	976.811
132.454	12.614	1279.396	976.372
133.468	12.545	1278.916	975.505
134.483	12.731	1278.067	975.878
135.497	12.635	1276.922	974.345
136.512	12.607	1275.921	973.330
137.527	12.706	1274.325	972.611
138.541	12.714	1272.231	970.975
139.556	12.694	1271.287	970.053
140.570	12.705	1270.602	969.509
141.585	12.864	1268.647	968.865
142.600	12.896	1267.599	968.164
143.614	12.886	1267.071	967.616
144.629	12.957	1265.827	966.997
145.643	12.953	1264.464	965.849
146.658	12.751	1263.434	963.797
147.673	12.762	1261.976	962.660
148.687	12.715	1260.904	961.483
149.702	12.702	1259.516	960.267
150.716	12.654	1258.330	958.996
151.731	12.777	1256.905	958.542
152.746	12.690	1255.809	957.114
153.760	12.820	1254.199	956.561
154.775	12.731	1253.420	955.365
155.789	12.814	1252.398	954.980
156.804	12.767	1251.170	953.691
157.819	12.882	1250.037	953.405
158.833	13.016	1248.902	953.230
159.848	12.995	1248.301	952.564
160.862	12.911	1247.710	951.545
161.877	12.865	1246.267	950.095
162.892	12.796	1245.121	948.742
163.906	12.740	1244.371	947.764
164.921	12.788	1243.223	947.078
165.935	12.772	1242.342	946.233
166.950	12.780	1241.640	945.662
167.964	12.911	1241.033	945.863
168.979	12.859	1240.128	944.797
169.994	12.885	1239.309	944.234
171.008	12.925	1238.821	944.007
172.023	12.965	1238.022	943.544
173.037	12.944	1237.698	943.094
174.052	13.000	1236.253	942.230
175.067	12.991	1234.735	940.936
176.081	12.869	1233.773	939.426
177.096	12.877	1232.971	938.781
178.110	12.819	1232.384	937.917
179.125	12.930	1230.592	937.102
180.140	12.977	1229.602	936.533
181.154	12.967	1228.631	935.652
182.169	13.057	1226.918	934.776
183.183	12.990	1226.029	933.636
184.198	13.180	1224.548	933.499
185.213	13.143	1223.643	932.521
186.227	13.140	1222.329	931.418
187.242	13.109	1221.502	930.530
188.256	13.152	1220.384	929.836
189.271	13.176	1219.744	929.405
190.286	13.198	1218.118	928.208
191.300	13.044	1217.309	926.645
192.315	12.951	1216.798	925.650
193.329	12.932	1216.223	925.026
194.344	12.926	1215.538	924.391
195.359	13.074	1214.679	924.481
196.373	13.162	1214.354	924.648
197.388	13.197	1213.928	924.433
198.402	13.234	1213.847	924.499
199.417	13.380	1212.797	924.431
200.432	13.430	1211.946	923.981
201.446	13.418	1211.383	923.404
202.461	13.489	1209.993	922.656
203.475	13.505	1209.147	922.022
204.490	13.542	1207.401	920.812
205.504	13.445	1206.362	919.400
206.519	13.357	1205.667	918.303
207.534	13.287	1204.607	917.027
208.548	13.299	1203.452	916.130
209.563	13.268	1202.652	915.269
210.577	13.313	1201.836	914.815
211.592	13.359	1201.051	914.394
212.607	13.489	1200.002	914.229
213.621	13.553	1198.969	913.714
214.636	13.535	1198.463	913.147
215.650	13.507	1197.644	912.288
216.665	13.446	1196.523	911.020
217.680	13.616	1195.377	911.001
218.694	13.743	1194.153	910.686
219.709	13.591	1193.973	909.632
220.723	13.650	1192.965	909.106
221.738	13.643	1192.376	908.538
222.753	13.701	1191.454	908.078
223.767	13.702	1190.867	907.552
224.782	13.673	1190.637	907.137
225.796	13.730	1189.595	906.578
226.811	13.718	1189.063	906.026
227.826	13.585	1188.582	904.851
228.840	13.763	1187.232	904.714
229.855	13.755	1186.201	903.805
230.869	13.797	1185.600	903.495
231.884	13.770	1184.648	902.546
232.899	13.569	1184.214	901.039
233.913	13.670	1183.286	900.802
234.928	13.592	1182.603	899.779
235.942	13.539	1182.228	899.126
236.957	13.607	1181.174	898.615
237.972	13.666	1180.446	898.299
238.986	13.639	1179.602	897.433
240.001	13.675	1179.206	897.246
241.015	13.657	1178.134	896.258
242.030	13.764	1177.446	896.232
243.045	13.842	1176.324	895.717
244.059	13.791	1175.844	895.001
245.074	13.819	1175.094	894.501
246.088	13.839	1174.089	893.764
247.103	13.834	1173.650	893.322
248.117	13.920	1172.583	892.895
249.132	14.026	1172.180	893.077
250.147	14.048	1171.657	892.720
251.161	14.116	1171.139	892.608
252.176	14.111	1170.146	891.747
253.190	14.162	1169.596	891.522
254.205	14.228	1168.579	891.022
255.220	14.110	1168.526	890.270
256.234	14.255	1167.529	890.206
257.249	14.294	1166.668	889.680
258.263	14.240	1166.038	888.833
259.278	14.258	1165.449	888.402
260.293	14.261	1164.904	887.923
261.307	14.351	1164.645	888.128
262.322	14.362	1163.935	887.567
263.336	14.355	1163.136	886.840
264.351	14.455	1162.380	886.721
265.366	14.431	1161.442	885.797
266.380	14.287	1161.243	884.800
267.395	14.410	1159.893	884.348
268.409	14.339	1159.197	883.362
269.424	14.364	1158.863	883.162
270.439	14.468	1158.166	883.104
271.453	14.364	1157.018	881.601
272.468	14.392	1156.177	881.027
273.482	14.299	1155.933	880.274
274.497	14.348	1155.420	880.065
275.512	14.310	1154.665	879.211
276.526	14.385	1153.490	878.635
277.541	14.356	1153.061	878.075
278.555	14.327	1152.297	877.263
279.570	14.557	1151.379	877.696
280.585	14.517	1150.781	876.955
281.599	14.528	1149.697	876.110
282.614	14.533	1148.531	875.168
283.628	14.501	1147.628	874.233
284.643	14.506	1146.296	873.169
285.657	14.545	1145.598	872.762
286.672	14.517	1144.830	871.955
287.687	14.459	1144.007	870.951
288.701	14.664	1143.432	871.503
289.716	14.622	1142.536	870.524
290.730	14.656	1141.698	869.988
291.745	14.727	1140.888	869.660
292.760	14.659	1140.590	869.002
293.774	14.761	1139.628	868.726
294.789	14.786	1139.015	868.309
295.803	14.789	1138.172	867.607
296.818	14.725	1137.896	866.989
297.833	14.731	1137.084	866.320
298.847	14.635	1136.119	865.014
299.862	14.836	1134.932	865.074
300.876	14.833	1134.447	864.612
301.891	14.884	1133.690	864.221
302.906	14.839	1133.414	863.700
303.920	14.889	1132.531	863.211
304.935	14.902	1132.168	862.923
305.949	14.999	1131.390	862.755
306.964	14.959	1130.661	861.919
307.979	14.994	1129.569	861.189
308.993	14.947	1129.313	860.678
310.008	15.008	1128.537	860.320
311.022	14.989	1127.799	859.586
312.037	14.975	1126.805	858.681
313.052	14.999	1125.598	857.806
314.066	14.955	1124.793	856.892
315.081	14.909	1123.986	855.967
316.095	14.887	1122.902	854.952
317.110	14.897	1122.709	854.782
318.125	14.867	1121.967	853.989
319.139	14.897	1121.081	853.390
320.154	14.955	1120.696	853.316
321.168	14.874	1119.702	852.073
322.183	14.944	1119.286	852.038
323.197	15.026	1118.832	852.036
324.212	15.051	1118.035	851.480
325.227	15.106	1117.262	851.093
326.241	15.061	1116.595	850.280
327.256	15.022	1115.816	849.416
328.270	15.138	1114.666	849.054
329.285	15.126	1113.716	848.194
330.300	15.070	1112.854	847.181
331.314	15.059	1112.210	846.556
332.329	15.091	1111.168	845.853
333.343	15.196	1110.094	845.487
334.358	15.223	1109.376	845.003
335.373	15.136	1109.044	844.240
336.387	15.123	1107.957	843.272
337.402	15.129	1107.541	842.908
338.416	15.219	1106.863	842.769
339.431	15.287	1106.009	842.387
340.446	15.303	1105.435	841.957
341.460	15.362	1105.214	842.012
342.475	15.447	1103.608	841.139
343.489	15.477	1102.961	840.722
344.504	15.508	1101.840	839.949
345.519	15.583	1100.956	839.572
346.533	15.654	1100.316	839.367
347.548	15.577	1099.837	838.540
348.562	15.696	1098.992	838.417
349.577	15.525	1098.194	836.880
350.592	15.501	1097.625	836.252
351.606	15.381	1096.908	835.038
352.621	15.365	1095.964	834.163
353.635	15.284	1095.542	833.364
354.650	15.379	1095.166	833.478
355.665	15.366	1094.130	832.553
356.679	15.487	1093.189	832.361
357.694	15.432	1092.984	831.860
358.708	15.548	1092.094	831.686
359.723	15.530	1091.368	830.967
360.738	15.604	1090.696	830.751
361.752	15.687	1090.207	830.715
362.767	15.600	1090.000	830.050
363.781	15.608	1089.164	829.383
364.796	15.610	1088.609	828.894
365.810	15.742	1087.896	828.928
366.825	15.889	1087.014	828.908
367.840	15.871	1086.865	828.633
368.854	15.812	1086.454	827.955
369.869	15.927	1085.650	827.834
370.883	15.810	1084.831	826.563
371.898	15.739	1084.229	825.681
372.913	15.914	1083.409	825.842
373.927	15.907	1082.737	825.222
374.942	15.795	1082.159	824.161
375.956	15.840	1081.768	824.011
376.971	15.960	1080.762	823.757
377.986	15.900	1080.532	823.218
379.000	15.981	1079.684	822.892
380.015	16.072	1079.100	822.818
381.029	16.132	1078.888	822.880
382.044	16.165	1077.920	822.230
383.059	16.199	1076.906	821.548
384.073	16.099	1076.438	820.629
385.088	16.103	1075.435	819.813
386.102	16.055	1074.675	818.928
387.117	16.190	1073.358	818.509
388.132	16.014	1072.849	817.191
389.146	16.023	1071.946	816.477
390.161	16.155	1071.235	816.502
391.175	16.070	1070.557	815.504
392.190	16.153	1069.741	815.209
393.205	16.144	1069.311	814.767
394.219	16.196	1068.293	814.169
395.234	16.123	1067.433	813.089
396.248	16.117	1066.315	812.137
397.263	16.081	1065.434	811.221
398.278	15.980	1065.109	810.414
399.292	16.086	1064.335	810.266
400.307	16.071	1063.398	809.409
401.321	16.060	1062.818	808.841
402.336	16.126	1062.234	808.642
403.350	16.059	1061.419	807.628
404.365	16.218	1060.856	807.893
405.380	16.238	1060.128	807.363
406.394	16.237	1059.399	806.729
407.409	16.342	1058.451	806.435
408.423	16.357	1058.240	806.279
409.438	16.370	1057.365	805.603
410.453	16.497	1056.368	805.377
411.467	16.504	1055.822	804.919
412.482	16.493	1055.607	804.631
413.496	16.514	1054.827	804.066
414.511	16.629	1053.632	803.633
415.526	16.607	1053.220	803.143
416.540	16.668	1052.880	803.102
417.555	16.548	1052.260	801.987
418.569	16.700	1051.906	802.367
419.584	16.630	1051.221	801.441
420.599	16.715	1050.797	801.450
421.613	84.498	1295.384	1366.543
422.628	77.677	1331.031	1366.656
