DTS Sentinel unit serial number:	SN413079Multiplexer serial number:	ORYXHardware model number:	OX4-SRSoftware version number:	ORYX F/W v4.00 Oryx Data Collector v3.7.2.0data status	okinstallation	princeton_trtdifferential loss correction	single-endedforward channel	channel 2reverse channel	N/Adate	2019/09/11time	19:53:11forward acquisition time	60.00reverse acquisition time	0.00gamma	496.2192k internal	0.2311k external	0.2311temperature offset calibration	1.0053default loss term (dB/km)	0.3790temperature slope calibration	1.0000multiplexer offset coefficient	1.0000multiplexer slope coefficient	1.0000fibre end	0.00T internal ref (°C)	39.14T ext. ref 1 (°C)	1.35T ext. ref 2 (°C)	32.06length (m)	temperature (°C)	Stokes	anti-Stokes-747.200	328.444	-0.094	0.183
-746.185	-200.000	-0.000	0.180
-745.171	-102.175	-0.063	-0.015
-744.156	-200.000	-0.027	0.307
-743.142	-55.977	-0.162	-0.074
-742.127	-13.514	-0.162	0.106
-741.112	30.007	-0.143	-0.123
-740.098	9.874	0.104	0.080
-739.083	800.000	0.018	0.072
-738.069	-200.000	-0.013	0.215
-737.054	11.882	-0.166	0.130
-736.039	-66.579	-0.177	-0.071
-735.025	24.706	-0.174	0.146
-734.010	800.000	-0.033	0.133
-732.996	226.658	-0.203	0.335
-731.981	800.000	-0.049	-0.209
-730.966	582.519	-0.116	-0.290
-729.952	-69.416	0.443	0.172
-728.937	136.587	-0.178	0.235
-727.923	800.000	-0.038	-0.127
-726.908	83.664	0.201	-0.223
-725.894	-96.538	-0.142	-0.038
-724.879	-96.896	-0.389	-0.104
-723.864	-87.459	0.340	-0.104
-722.850	-143.693	0.324	0.031
-721.835	52.378	-0.034	-0.033
-720.821	76.341	-0.215	-0.231
-719.806	-54.422	-0.197	0.091
-718.791	77.805	0.149	0.161
-717.777	46.918	-0.272	0.257
-716.762	10.159	0.091	-0.070
-715.748	800.000	0.132	-0.430
-714.733	-200.000	0.014	-0.353
-713.718	-5.408	0.097	-0.068
-712.704	10.874	-0.084	0.065
-711.689	-200.000	0.121	0.001
-710.675	-200.000	0.034	0.185
-709.660	-121.081	0.333	-0.057
-708.645	-200.000	0.041	-0.276
-707.631	-139.322	-0.181	-0.020
-706.616	155.674	0.006	0.008
-705.602	800.000	-0.063	-0.220
-704.587	-122.103	-0.206	-0.034
-703.572	40.938	0.093	-0.085
-702.558	-104.055	-0.149	-0.035
-701.543	7.238	-0.153	-0.116
-700.529	176.648	0.118	-0.173
-699.514	-200.000	-0.035	0.518
-698.499	-61.016	0.044	-0.019
-697.485	139.847	0.104	-0.139
-696.470	-58.089	0.056	0.025
-695.456	-197.449	0.167	-0.001
-694.441	-10.167	-0.195	-0.131
-693.426	-200.000	0.011	-0.069
-692.412	207.911	0.130	-0.206
-691.397	4.165	0.196	0.145
-690.383	268.761	0.090	0.159
-689.368	-200.000	-0.050	-0.254
-688.354	-200.000	0.011	-0.106
-687.339	-70.442	-0.242	-0.093
-686.324	152.135	-0.199	-0.276
-685.310	19.199	-0.101	0.082
-684.295	-94.960	-0.275	-0.075
-683.281	800.000	-0.063	-0.252
-682.266	-83.503	0.258	0.084
-681.251	222.819	0.061	-0.099
-680.237	-200.000	-0.055	-0.250
-679.222	2.672	0.061	0.044
-678.208	-83.083	-0.317	-0.103
-677.193	38.872	-0.048	0.043
-676.178	-12.705	-0.312	0.206
-675.164	349.928	-0.133	0.266
-674.149	234.761	0.128	0.213
-673.135	-95.438	0.159	-0.043
-672.120	-62.690	-0.024	0.010
-671.105	70.830	-0.124	-0.130
-670.091	711.390	-0.042	-0.113
-669.076	720.955	0.038	-0.102
-668.062	800.000	0.121	-0.486
-667.047	-122.078	-0.359	-0.060
-666.032	-152.166	0.171	-0.013
-665.018	-45.102	-0.167	-0.084
-664.003	38.315	-0.128	0.115
-662.989	108.571	0.170	0.206
-661.974	800.000	-0.087	-0.307
-660.959	-96.180	0.259	0.070
-659.945	89.948	0.084	-0.095
-658.930	123.140	-0.150	-0.191
-657.916	800.000	0.152	-0.465
-656.901	-200.000	-0.038	-0.219
-655.886	67.112	-0.186	0.192
-654.872	33.156	-0.268	0.235
-653.857	-42.243	-0.156	-0.081
-652.843	170.097	0.341	-0.493
-651.828	-108.686	-0.218	0.047
-650.814	-200.000	-0.008	-0.093
-649.799	-90.159	0.351	0.103
-648.784	-18.296	-0.160	0.101
-647.770	-200.000	0.010	0.226
-646.755	-52.769	-0.090	0.042
-645.741	-64.313	0.247	0.102
-644.726	-24.089	0.144	0.087
-643.711	259.866	0.067	0.118
-642.697	-60.379	-0.304	0.131
-641.682	-83.615	-0.061	-0.020
-640.668	-131.573	0.293	0.039
-639.653	599.387	-0.059	-0.148
-638.638	-193.971	0.404	0.003
-637.624	537.412	-0.066	0.158
-636.609	-98.944	-0.211	0.054
-635.595	-113.473	-0.133	0.026
-634.580	-60.330	-0.246	-0.106
-633.565	-76.361	-0.437	0.155
-632.551	-69.175	0.156	-0.061
-631.536	-2.351	0.267	0.189
-630.522	-24.803	0.119	-0.072
-629.507	11.901	-0.132	-0.103
-628.492	800.000	0.007	-0.025
-627.478	15.729	-0.347	-0.276
-626.463	542.889	-0.013	0.030
-625.449	86.460	0.245	-0.273
-624.434	39.673	0.340	-0.308
-623.419	-30.409	-0.021	-0.012
-622.405	-200.000	0.000	-0.233
-621.390	-106.480	-0.131	-0.030
-620.376	-67.408	0.264	0.105
-619.361	560.673	0.131	0.320
-618.346	800.000	-0.054	0.174
-617.332	-44.102	-0.354	-0.180
-616.317	800.000	-0.139	-0.485
-615.303	65.815	0.357	-0.365
-614.288	-67.700	-0.129	0.051
-613.273	-16.205	-0.435	0.279
-612.259	36.123	-0.192	0.171
-611.244	-10.884	0.094	-0.063
-610.230	-61.341	0.176	-0.075
-609.215	3.964	0.365	-0.269
-608.201	-117.472	0.087	-0.016
-607.186	310.959	0.045	-0.085
-606.171	800.000	0.034	-0.114
-605.157	-200.000	-0.025	-0.212
-604.142	-177.159	0.207	-0.005
-603.128	92.008	0.124	0.141
-602.113	800.000	-0.056	-0.213
-601.098	76.244	-0.199	-0.213
-600.084	-200.000	-0.113	0.829
-599.069	800.000	-0.118	0.445
-598.055	-62.611	-0.159	-0.066
-597.040	-19.785	0.228	-0.142
-596.025	-38.552	-0.175	0.094
-595.011	136.499	0.062	-0.081
-593.996	-99.649	-0.078	-0.020
-592.982	70.965	0.336	-0.352
-591.967	197.998	0.161	0.248
-590.952	108.623	0.136	-0.164
-589.938	-116.700	-0.446	-0.083
-588.923	-82.884	0.062	0.020
-587.909	-7.628	0.142	0.097
-586.894	35.542	-0.070	-0.062
-585.879	68.230	-0.082	-0.085
-584.865	-47.755	-0.515	0.252
-583.850	394.707	-0.206	-0.433
-582.836	800.000	-0.009	-0.031
-581.821	-51.507	0.155	-0.073
-580.806	171.802	-0.043	-0.062
-579.792	635.077	0.109	0.279
-578.777	37.184	0.156	-0.140
-577.763	-200.000	0.008	0.212
-576.748	716.228	-0.092	0.246
-575.733	-200.000	0.041	0.226
-574.719	-100.163	0.235	-0.059
-573.704	-97.052	-0.188	0.050
-572.690	-4.240	-0.202	-0.141
-571.675	-173.019	0.080	0.003
-570.661	-191.365	0.250	0.003
-569.646	-78.405	-0.283	-0.098
-568.631	-170.378	0.530	0.019
-567.617	99.096	-0.172	0.200
-566.602	523.934	0.057	0.135
-565.588	-200.000	-0.012	0.075
-564.573	-25.076	0.223	0.133
-563.558	-200.000	0.011	0.104
-562.544	-200.000	-0.029	0.146
-561.529	-81.795	-0.119	-0.039
-560.515	-36.015	0.187	0.102
-559.500	132.691	-0.114	-0.149
-558.485	-137.775	-0.250	-0.028
-557.471	-19.984	-0.334	0.208
-556.456	127.708	-0.256	0.328
-555.442	-121.538	-0.207	0.035
-554.427	-32.954	0.217	-0.122
-553.412	-1.613	0.079	-0.056
-552.398	55.995	0.243	-0.237
-551.383	86.592	-0.092	-0.103
-550.369	400.761	0.066	-0.139
-549.354	-80.592	0.382	0.128
-548.339	420.368	0.028	0.061
-547.325	-57.724	-0.090	0.040
-546.310	800.000	0.093	0.319
-545.296	181.766	0.131	-0.195
-544.281	270.717	-0.201	0.357
-543.266	-200.000	-0.002	-0.159
-542.252	-200.000	-0.018	0.345
-541.237	253.013	-0.166	0.285
-540.223	-200.000	0.005	-0.344
-539.208	404.583	0.062	0.131
-538.193	647.682	0.036	-0.092
-537.179	14.075	0.066	0.052
-536.164	329.140	0.093	0.180
-535.150	426.793	0.068	-0.149
-534.135	31.255	-0.195	0.169
-533.121	479.596	0.117	0.266
-532.106	-184.521	-0.175	0.003
-531.091	-200.000	-0.046	-0.228
-530.077	800.000	-0.118	0.335
-529.062	465.401	0.087	-0.197
-528.048	-200.000	0.017	0.126
-527.033	-108.496	0.050	0.011
-526.018	116.144	0.134	-0.165
-525.004	-57.266	0.345	0.153
-523.989	-46.270	0.083	-0.041
-522.975	-26.444	-0.070	-0.041
-521.960	436.525	0.055	0.120
-520.945	117.652	0.125	-0.155
-519.931	427.625	-0.157	0.341
-518.916	800.000	-0.052	0.186
-517.902	59.883	-0.232	0.231
-516.887	-87.942	-0.186	0.056
-515.872	-99.990	-0.374	0.094
-514.858	-3.107	0.250	-0.175
-513.843	800.000	-0.050	-0.211
-512.829	-3.309	0.216	0.151
-511.814	-22.081	0.327	0.200
-510.799	-200.000	0.046	-0.223
-509.785	-121.605	-0.134	-0.022
-508.770	-200.000	0.007	-0.311
-507.756	6.636	0.329	0.246
-506.741	-169.766	-0.224	0.008
-505.726	-128.188	0.059	0.008
-504.712	-11.027	-0.180	0.120
-503.697	129.455	0.068	0.088
-502.683	-11.543	0.288	-0.191
-501.668	-133.934	0.160	-0.020
-500.653	-120.336	-0.125	0.021
-499.639	-0.825	0.208	-0.148
-498.624	-149.129	-0.219	-0.018
-497.610	132.702	-0.025	0.032
-496.595	27.620	0.123	-0.104
-495.581	-158.441	0.381	-0.022
-494.566	43.713	-0.053	0.049
-493.551	-90.414	-0.291	0.085
-492.537	-136.374	0.173	0.020
-491.522	-142.898	-0.455	0.044
-490.508	4.919	-0.230	-0.170
-489.493	60.475	-0.259	-0.258
-488.478	-126.263	0.108	0.016
-487.464	559.788	-0.132	0.320
-486.449	51.300	-0.270	-0.258
-485.435	198.076	-0.069	0.105
-484.420	800.000	-0.092	-0.353
-483.405	-26.458	-0.161	-0.095
-482.391	-21.471	-0.090	-0.055
-481.376	-47.291	0.123	0.060
-480.362	123.173	0.275	-0.346
-479.347	394.188	-0.069	0.145
-478.332	-12.075	-0.189	-0.124
-477.318	-104.171	0.158	0.037
-476.303	45.163	-0.371	0.344
-475.289	-112.603	0.147	-0.029
-474.274	800.000	0.041	0.131
-473.259	-0.491	-0.319	-0.227
-472.245	-47.902	-0.056	-0.027
-471.230	-200.000	0.088	-0.405
-470.216	305.076	0.201	0.376
-469.201	314.630	-0.175	0.332
-468.186	-5.174	-0.067	0.046
-467.172	-112.728	0.228	0.045
-466.157	-19.012	0.046	-0.029
-465.143	-200.000	0.001	-0.072
-464.128	61.011	-0.066	-0.066
-463.113	-18.601	-0.292	0.183
-462.099	346.369	-0.103	0.203
-461.084	146.790	0.148	0.200
-460.070	-109.280	-0.178	-0.038
-459.055	98.562	-0.214	-0.248
-458.040	37.272	-0.065	-0.058
-457.026	95.613	0.046	-0.052
-456.011	74.476	0.411	-0.434
-454.997	-25.927	0.071	-0.042
-453.982	800.000	0.027	0.077
-452.968	-18.751	-0.181	0.113
-451.953	247.881	-0.056	-0.096
-450.938	611.042	0.032	-0.081
-449.924	-167.529	-0.186	-0.007
-448.909	-200.000	-0.019	0.158
-447.895	44.634	0.242	-0.224
-446.880	-8.082	-0.208	0.141
-445.865	-47.566	0.198	0.096
-444.851	-38.282	0.188	0.100
-443.836	117.675	-0.189	-0.233
-442.822	-142.314	0.175	0.017
-441.807	49.482	-0.276	-0.261
-440.792	-98.339	0.395	-0.102
-439.778	-12.011	-0.195	0.128
-438.763	144.912	0.103	-0.138
-437.749	-40.586	0.244	0.127
-436.734	406.480	-0.145	0.307
-435.719	-8.007	-0.114	0.077
-434.705	-200.000	-0.008	0.072
-433.690	-23.854	0.133	-0.080
-432.676	-59.297	-0.159	0.069
-431.661	800.000	0.020	-0.058
-430.646	119.923	0.015	0.019
-429.632	113.002	0.136	0.165
-428.617	64.606	-0.190	0.192
-427.603	51.241	0.106	0.101
-426.588	73.925	0.214	-0.225
-425.573	-200.000	0.039	-0.196
-424.559	460.652	-0.130	0.291
-423.544	-38.017	-0.172	0.092
-422.530	-78.880	0.488	-0.167
-421.515	236.991	0.032	-0.054
-420.500	-200.000	-0.035	0.246
-419.486	-173.338	0.292	0.009
-418.471	492.905	-0.083	-0.191
-417.457	2.947	-0.037	0.027
-416.442	-200.000	-0.030	0.313
-415.428	-88.011	-0.240	0.072
-414.413	224.186	0.177	-0.286
-413.398	-17.724	-0.043	0.027
-412.384	-2.278	0.392	-0.276
-411.369	-35.427	0.143	-0.078
-410.355	800.000	-0.074	0.222
-409.340	328.887	0.109	-0.211
-408.325	800.000	0.106	-0.365
-407.311	-200.000	-0.067	-0.335
-406.296	4.383	-0.346	-0.255
-405.282	51.071	0.007	-0.007
-404.267	-200.000	-0.018	-0.135
-403.252	109.750	-0.260	0.312
-402.238	-113.152	-0.174	0.034
-401.223	86.072	-0.047	-0.052
-400.209	-67.329	-0.193	-0.076
-399.194	-172.489	-0.247	0.008
-398.179	307.609	0.043	0.080
-397.165	160.147	-0.093	-0.129
-396.150	387.076	-0.136	-0.282
-395.136	-200.000	-0.018	0.192
-394.121	29.586	-0.329	0.281
-393.106	381.281	-0.087	0.179
-392.092	-200.000	0.041	-0.251
-391.077	-82.947	0.210	0.068
-390.063	-200.000	-0.006	-0.140
-389.048	-68.847	0.334	0.129
-388.033	69.419	0.163	-0.168
-387.019	-85.175	-0.045	-0.014
-386.004	293.636	-0.043	0.078
-384.990	-200.000	0.041	-0.276
-383.975	-200.000	0.008	0.314
-382.960	-73.112	-0.239	0.088
-381.946	94.672	-0.093	-0.106
-380.931	-121.885	-0.332	-0.055
-379.917	23.187	-0.254	0.209
-378.902	83.384	-0.101	-0.110
-377.888	-27.078	0.154	-0.090
-376.873	248.225	-0.046	-0.078
-375.858	37.931	0.171	0.152
-374.844	-51.023	0.400	0.188
-373.829	-172.501	-0.282	0.009
-372.815	800.000	-0.080	-0.338
-371.800	90.405	-0.083	0.093
-370.785	-95.530	0.091	-0.024
-369.771	800.000	-0.039	-0.109
-368.756	10.469	-0.042	-0.032
-367.742	-59.387	0.220	0.095
-366.727	-38.414	-0.266	0.141
-365.712	-200.000	0.051	0.441
-364.698	-72.442	0.110	0.041
-363.683	-19.526	0.156	0.097
-362.669	87.760	-0.045	-0.049
-361.654	-9.627	0.248	0.166
-360.639	800.000	0.060	-0.216
-359.625	800.000	-0.123	-0.345
-358.610	195.727	0.098	0.149
-357.596	25.114	0.038	-0.031
-356.581	-101.434	-0.168	0.041
-355.566	287.477	0.177	-0.319
-354.552	-69.168	-0.189	-0.073
-353.537	-200.000	0.029	-0.153
-352.523	-200.000	-0.065	-0.000
-351.508	-10.618	-0.358	-0.237
-350.493	-200.000	0.035	0.184
-349.479	800.000	-0.051	0.155
-348.464	-106.593	0.415	0.092
-347.450	504.127	0.005	0.012
-346.435	79.339	-0.090	-0.096
-345.420	113.539	-0.031	-0.038
-344.406	168.843	-0.271	-0.387
-343.391	175.334	-0.131	0.190
-342.377	-137.461	-0.218	0.025
-341.362	32.405	0.097	0.084
-340.348	256.751	-0.055	0.095
-339.333	621.872	0.102	-0.256
-338.318	-128.666	0.097	-0.014
-337.304	775.782	-0.051	0.139
-336.289	373.826	-0.115	-0.235
-335.275	303.083	0.090	0.167
-334.260	-69.173	0.134	0.051
-333.245	-31.623	0.073	0.041
-332.231	37.072	0.183	0.162
-331.216	244.526	0.084	0.140
-330.202	800.000	0.061	-0.189
-329.187	-200.000	-0.006	-0.046
-328.172	-144.435	0.256	0.024
-327.158	101.699	0.227	-0.265
-326.143	-66.933	0.084	0.033
-325.129	74.470	-0.200	0.210
-324.114	-101.496	0.212	-0.052
-323.099	240.268	-0.253	0.422
-322.085	800.000	-0.033	0.120
-321.070	10.047	-0.128	0.097
-320.056	-31.756	0.132	0.074
-319.041	-35.347	0.149	0.081
-318.026	43.972	0.041	-0.037
-317.012	-168.279	0.195	-0.008
-315.997	-79.915	0.291	-0.098
-314.983	190.840	-0.099	-0.149
-313.968	340.669	0.113	-0.220
-312.953	87.893	-0.246	-0.272
-311.939	800.000	-0.168	-0.477
-310.924	-200.000	0.015	-0.075
-309.910	12.946	-0.231	0.178
-308.895	70.937	0.203	-0.210
-307.880	314.685	-0.099	-0.186
-306.866	143.579	0.246	-0.327
-305.851	800.000	0.083	0.274
-304.837	-200.000	0.041	0.307
-303.822	175.028	-0.149	-0.216
-302.807	-200.000	-0.007	-0.128
-301.793	342.184	-0.109	0.213
-300.778	-200.000	0.068	0.315
-299.764	800.000	-0.049	-0.142
-298.749	-109.547	-0.143	-0.030
-297.735	58.457	0.075	0.073
-296.720	80.862	0.074	0.080
-295.705	-200.000	-0.046	0.483
-294.691	539.283	-0.118	-0.279
-293.676	-200.000	0.002	0.012
-292.662	-50.589	0.091	0.043
-291.647	-115.407	-0.469	-0.088
-290.632	205.229	0.105	0.162
-289.618	136.115	-0.115	0.150
-288.603	-200.000	-0.014	0.099
-287.589	231.063	0.185	0.302
-286.574	-14.991	0.086	-0.055
-285.559	-200.000	0.020	0.511
-284.545	60.583	-0.099	-0.098
-283.530	-154.612	0.157	-0.010
-282.516	-8.075	-0.261	-0.176
-281.501	-58.270	0.249	-0.108
-280.486	-47.692	-0.210	0.102
-279.472	782.780	-0.067	0.182
-278.457	5.674	0.429	-0.316
-277.443	-92.157	-0.259	-0.073
-276.428	-43.756	0.251	0.126
-275.413	-200.000	0.001	-0.175
-274.399	8.562	0.171	-0.128
-273.384	-16.648	-0.172	0.108
-272.370	390.047	-0.007	-0.014
-271.355	194.118	-0.293	0.443
-270.340	-136.853	-0.024	-0.003
-269.326	63.109	-0.154	0.154
-268.311	-16.971	-0.157	0.099
-267.297	-92.427	0.296	-0.083
-266.282	158.431	-0.186	-0.258
-265.267	565.710	0.035	-0.084
-264.253	-200.000	-0.039	0.344
-263.238	176.817	-0.098	0.142
-262.224	-97.718	-0.177	-0.046
-261.209	245.890	0.109	0.183
-260.195	152.639	0.349	-0.474
-259.180	-126.225	0.209	0.031
-258.165	800.000	0.058	0.207
-257.151	-43.088	0.320	0.161
-256.136	227.378	-0.085	0.137
-255.122	440.527	-0.062	-0.135
-254.107	-137.328	-0.317	0.036
-253.092	66.510	-0.051	0.051
-252.078	374.112	-0.132	0.268
-251.063	-200.000	0.016	-0.093
-250.049	67.283	0.194	-0.197
-249.034	82.231	0.105	-0.113
-248.019	-35.326	0.227	0.123
-247.005	-156.864	-0.180	-0.011
-245.990	-200.000	-0.020	-0.133
-244.976	442.029	0.061	0.133
-243.961	601.168	-0.127	-0.315
-242.946	-200.000	0.021	-0.295
-241.932	-12.444	-0.188	-0.122
-240.917	-16.669	0.211	-0.133
-239.903	-138.704	-0.043	0.005
-238.888	317.106	0.227	-0.427
-237.873	800.000	-0.007	0.027
-236.859	354.776	-0.086	0.171
-235.844	-145.159	0.060	-0.005
-234.830	-26.745	-0.126	-0.073
-233.815	98.854	-0.118	0.135
-232.800	800.000	0.035	-0.124
-231.786	172.723	-0.111	-0.159
-230.771	392.914	-0.044	-0.092
-229.757	800.000	0.090	-0.316
-228.742	-200.000	-0.006	-0.039
-227.727	-95.344	-0.218	-0.058
-226.713	-109.733	0.224	0.047
-225.698	196.169	0.165	-0.251
-224.684	-200.000	-0.004	0.335
-223.669	-200.000	-0.056	0.250
-222.655	-119.522	0.348	-0.060
-221.640	519.892	0.064	-0.150
-220.625	566.141	0.078	-0.187
-219.611	-33.095	-0.060	-0.033
-218.596	-132.619	-0.175	-0.022
-217.582	117.921	-0.055	0.067
-216.567	541.090	0.049	0.116
-215.552	285.495	0.077	0.137
-214.538	65.276	-0.197	-0.198
-213.523	-200.000	0.007	0.111
-212.509	17.410	-0.151	-0.119
-211.494	800.000	-0.058	0.245
-210.479	-200.000	0.018	0.111
-209.465	-185.694	-0.067	-0.001
-208.450	-55.785	0.111	0.050
-207.436	-179.786	0.158	-0.003
-206.421	-200.000	-0.031	0.149
-205.406	37.879	-0.200	-0.177
-204.392	-200.000	0.116	0.551
-203.377	-102.152	0.100	-0.024
-202.363	-80.122	0.248	-0.083
-201.348	-80.537	-0.396	-0.131
-200.333	-127.571	0.194	-0.028
-199.319	613.073	-0.061	0.152
-198.304	-43.949	0.179	0.090
-197.290	-37.783	0.220	-0.116
-196.275	-88.809	-0.124	-0.037
-195.260	311.433	-0.044	-0.083
-194.246	-65.934	0.218	-0.086
-193.231	800.000	-0.049	0.211
-192.217	-200.000	0.004	-0.217
-191.202	39.814	-0.176	-0.157
-190.187	-200.000	0.007	0.115
-189.173	-155.055	0.057	0.004
-188.158	26.506	0.124	-0.103
-187.144	-42.682	-0.320	-0.162
-186.129	-117.698	0.313	0.056
-185.114	-58.190	0.164	-0.071
-184.100	800.000	-0.079	-0.219
-183.085	-182.685	0.142	0.003
-182.071	-114.973	-0.225	0.043
-181.056	240.147	-0.048	-0.079
-180.042	-200.000	0.038	0.419
-179.027	203.186	0.113	0.174
-178.012	208.302	0.143	-0.222
-176.998	26.985	0.216	-0.180
-175.983	-173.547	0.264	-0.008
-174.969	-200.000	-0.002	0.103
-173.954	-200.000	-0.044	-0.228
-172.939	-200.000	0.050	-0.269
-171.925	148.567	0.175	0.234
-170.910	-136.113	-0.228	0.027
-169.896	44.200	-0.128	0.116
-168.881	747.815	0.019	-0.052
-167.866	-131.556	-0.120	-0.016
-166.852	800.000	-0.051	-0.220
-165.837	-61.204	-0.313	0.131
-164.823	-31.930	0.157	-0.087
-163.808	-38.363	-0.202	0.106
-162.793	800.000	-0.029	0.122
-161.779	800.000	0.060	-0.193
-160.764	-200.000	0.047	-0.210
-159.750	129.956	0.136	0.173
-158.735	-200.000	0.003	-0.176
-157.720	-145.340	-0.109	0.010
-156.706	-95.662	-0.144	-0.038
-155.691	96.254	-0.086	0.098
-154.677	595.283	0.122	-0.300
-153.662	800.000	0.041	0.131
-152.647	800.000	0.070	0.232
-151.633	-7.317	0.049	-0.033
-150.618	-75.068	0.223	0.079
-149.604	-51.453	-0.190	-0.088
-148.589	104.717	-0.150	0.176
-147.574	95.596	-0.172	0.194
-146.560	311.914	-0.032	-0.060
-145.545	-110.271	0.183	-0.038
-144.531	-200.000	-0.015	0.194
-143.516	18.127	0.370	-0.293
-142.502	469.853	0.175	0.389
-141.487	192.715	-0.222	0.332
-140.472	-44.588	0.129	0.064
-139.458	-200.000	-0.043	-0.194
-138.443	-190.640	-0.402	-0.004
-137.429	19.333	-0.172	0.137
-136.414	43.613	-0.066	-0.059
-135.399	-200.000	0.081	0.365
-134.385	-81.052	0.023	0.008
-133.370	-200.000	0.000	0.098
-132.356	17.966	-0.157	0.124
-131.341	-79.449	0.435	0.146
-130.326	-44.759	-0.129	0.064
-129.312	-98.400	0.270	0.069
-128.297	800.000	0.094	0.401
-127.283	-200.000	0.078	0.356
-126.268	-48.576	0.315	-0.150
-125.253	-200.000	0.028	-0.197
-124.239	-200.000	-0.012	-0.092
-123.224	-125.206	-0.202	-0.031
-122.210	2.101	-0.179	0.128
-121.195	437.449	-0.073	-0.158
-120.180	-47.120	-0.211	0.102
-119.166	-117.809	0.051	-0.009
-118.151	-30.750	0.062	0.035
-117.137	-200.000	-0.021	0.274
-116.122	21.607	0.174	-0.140
-115.107	116.620	-0.154	0.187
-114.093	-200.000	0.024	0.185
-113.078	93.380	0.072	-0.081
-112.064	800.000	-0.108	0.417
-111.049	10.886	0.284	0.215
-110.034	-94.047	-0.074	-0.020
-109.020	-106.441	-0.192	-0.042
-108.005	47.592	0.307	0.284
-106.991	-24.474	0.274	-0.161
-105.976	-200.000	0.012	-0.099
-104.962	469.940	0.068	-0.151
-103.947	479.047	-0.021	-0.048
-102.932	239.940	0.116	0.192
-101.918	-200.000	-0.009	0.076
-100.903	-58.116	0.217	-0.094
-99.889	-58.899	-0.158	-0.068
-98.874	101.603	-0.055	-0.064
-97.859	-95.894	-0.115	-0.030
-96.845	-3.133	0.076	-0.052
-95.830	-119.192	0.329	0.057
-94.816	605.036	0.019	-0.047
-93.801	-107.970	-0.114	-0.025
-92.786	-200.000	-0.035	0.176
-91.772	350.837	-0.109	-0.214
-90.757	77.011	-0.320	-0.336
-89.743	47.821	0.122	-0.113
-88.728	-121.487	-0.220	0.036
-87.713	20.021	-0.339	-0.271
-86.699	59.126	0.371	-0.361
-85.684	180.095	-0.148	-0.214
-84.670	7.528	-0.368	0.273
-83.655	-135.184	0.455	-0.054
-82.640	-200.000	-0.010	0.346
-81.626	-200.000	0.004	-0.115
-80.611	-200.000	0.003	0.127
-79.597	221.119	0.153	-0.243
-78.582	-29.670	-0.171	0.097
-77.567	-88.356	-0.277	-0.082
-76.553	292.394	0.032	0.057
-75.538	800.000	-0.055	-0.226
-74.524	498.080	0.106	0.242
-73.509	800.000	-0.043	0.133
-72.494	30.362	0.317	0.268
-71.480	-146.154	-0.061	-0.005
-70.465	2.755	0.084	0.060
-69.451	-21.127	0.162	0.098
-68.436	24.339	0.254	-0.208
-67.422	800.000	-0.110	-0.320
-66.407	196.799	-0.057	-0.086
-65.392	-101.007	0.181	0.044
-64.378	-57.369	-0.313	0.136
-63.363	-102.493	-0.068	-0.016
-62.349	-39.288	0.115	0.059
-61.334	61.993	-0.937	-0.924
-60.319	-200.000	-0.067	0.354
-59.305	800.000	-0.180	-0.501
-58.290	800.000	0.352	1.018
-57.276	800.000	0.525	1.833
-56.261	-200.000	83.643	504.537
-55.246	516.299	1345.699	3108.203
-54.232	151.748	2565.505	3455.466
-53.217	108.558	2318.053	2735.587
-52.203	48.021	1937.903	1789.887
-51.188	42.326	1727.209	1551.345
-50.173	39.534	1681.678	1489.327
-49.159	54.230	1722.881	1638.410
-48.144	58.420	1742.357	1688.905
-47.130	42.103	1702.168	1526.908
-46.115	39.115	1687.042	1490.662
-45.100	39.029	1682.877	1486.269
-44.086	39.002	1680.090	1483.545
-43.071	39.022	1677.360	1481.224
-42.057	39.026	1674.844	1478.976
-41.042	39.031	1672.634	1477.006
-40.027	38.940	1671.168	1474.968
-39.013	38.958	1668.952	1473.085
-37.998	38.953	1667.596	1471.793
-36.984	39.069	1665.805	1471.027
-35.969	39.196	1664.788	1471.014
-34.954	39.261	1662.734	1469.630
-33.940	39.138	1660.889	1467.022
-32.925	39.131	1659.000	1465.242
-31.911	39.246	1656.913	1464.201
-30.896	39.166	1655.737	1462.505
-29.881	39.151	1654.395	1461.152
-28.867	39.226	1652.002	1459.538
-27.852	39.129	1651.018	1457.886
-26.838	39.180	1649.659	1457.007
-25.823	39.144	1648.335	1455.519
-24.809	39.173	1647.062	1454.545
-23.794	39.193	1645.400	1453.172
-22.779	39.113	1644.269	1451.527
-21.765	39.106	1642.711	1450.039
-20.750	39.104	1640.961	1448.421
-19.736	39.129	1639.561	1447.311
-18.721	39.203	1637.727	1446.179
-17.706	39.270	1636.090	1445.170
-16.692	39.171	1634.696	1443.155
-15.677	39.191	1633.339	1442.045
-14.663	39.257	1632.062	1441.345
-13.648	39.181	1630.792	1439.610
-12.633	39.073	1629.443	1437.569
-11.619	39.106	1627.971	1436.459
-10.604	39.145	1626.407	1435.305
-9.590	39.140	1624.804	1433.797
-8.575	39.177	1623.638	1432.984
-7.560	39.058	1622.415	1430.979
-6.546	39.137	1621.166	1430.397
-5.531	39.166	1619.897	1429.427
-4.517	39.058	1618.792	1427.611
-3.502	39.064	1617.623	1426.570
-2.487	39.154	1615.708	1425.477
-1.473	38.793	1603.353	1411.917
-0.458	35.351	1582.590	1369.069
0.556	30.776	1580.405	1329.469
1.571	27.859	1603.418	1327.541
2.586	27.116	1617.276	1333.444
3.600	23.935	1564.274	1267.008
4.615	13.381	1449.137	1103.618
5.629	3.491	1377.629	986.084
6.644	1.544	1367.978	966.723
7.659	1.343	1366.867	964.576
8.673	1.279	1365.481	963.106
9.688	1.234	1363.916	961.632
10.702	1.069	1360.599	958.168
11.717	4.712	1368.826	987.014
12.731	15.343	1388.336	1069.081
13.746	23.521	1402.666	1132.468
14.761	25.228	1404.707	1144.915
15.775	25.515	1404.215	1146.241
16.790	25.532	1404.037	1146.104
17.804	25.561	1403.404	1145.670
18.819	25.851	1402.583	1146.744
19.834	25.830	1402.234	1146.228
20.848	25.901	1401.436	1145.924
21.863	25.839	1400.817	1144.921
22.877	25.986	1399.334	1144.542
23.892	25.937	1398.841	1143.727
24.907	25.867	1397.977	1142.472
25.921	25.921	1397.014	1141.929
26.936	26.002	1395.788	1141.339
27.950	25.823	1395.002	1139.464
28.965	25.821	1393.713	1138.299
29.980	25.969	1392.312	1137.984
30.994	25.908	1390.970	1136.401
32.009	25.923	1389.830	1135.464
33.023	25.893	1389.187	1134.653
34.038	25.847	1387.445	1132.841
35.053	25.810	1386.914	1132.073
36.067	25.909	1385.674	1131.582
37.082	25.864	1384.959	1130.615
38.096	25.946	1383.380	1129.739
39.111	25.799	1383.338	1128.684
40.126	25.976	1381.978	1128.582
41.140	25.888	1381.791	1127.780
42.155	25.789	1381.492	1126.815
43.169	25.765	1381.908	1126.907
44.184	25.799	1381.202	1126.441
45.199	25.839	1381.060	1126.480
46.213	25.913	1379.976	1125.956
47.228	25.930	1379.042	1125.201
48.242	25.930	1378.113	1124.341
49.257	25.832	1376.608	1122.407
50.271	25.853	1374.901	1121.046
51.286	25.819	1373.903	1119.918
52.301	25.881	1372.680	1119.207
53.315	25.827	1371.835	1118.083
54.330	25.801	1371.120	1117.242
55.344	25.869	1369.706	1116.413
56.359	25.865	1368.717	1115.482
57.374	25.898	1367.793	1114.838
58.388	25.788	1367.479	1113.801
59.403	25.883	1366.911	1113.830
60.417	25.866	1366.358	1113.176
61.432	25.818	1365.672	1112.217
62.447	25.922	1364.676	1111.949
63.461	25.904	1363.263	1110.593
64.476	25.828	1362.622	1109.505
65.490	25.892	1361.401	1108.803
66.505	25.905	1359.887	1107.553
67.520	25.834	1358.756	1106.099
68.534	25.829	1357.772	1105.167
69.549	25.899	1356.562	1104.514
70.563	25.811	1356.174	1103.559
71.578	25.814	1354.555	1102.164
72.593	25.743	1354.311	1101.438
73.607	25.811	1353.477	1101.076
74.622	25.899	1352.563	1100.773
75.636	25.858	1351.475	1099.538
76.651	25.847	1351.106	1099.073
77.666	25.856	1350.612	1098.631
78.680	25.867	1349.854	1097.979
79.695	25.744	1349.422	1096.783
80.709	25.778	1348.323	1095.998
81.724	25.924	1347.191	1095.872
82.739	25.901	1346.200	1094.826
83.753	25.806	1345.135	1093.290
84.768	25.862	1344.630	1093.120
85.782	25.892	1343.113	1091.973
86.797	25.903	1342.056	1091.086
87.812	25.902	1340.913	1090.055
88.826	25.848	1339.974	1088.864
89.841	25.851	1338.940	1087.949
90.855	25.845	1338.085	1087.118
91.870	25.965	1336.896	1086.781
92.884	25.984	1336.307	1086.319
93.899	25.952	1335.420	1085.313
94.914	25.856	1334.780	1084.120
95.928	25.901	1334.097	1083.736
96.943	25.896	1333.075	1082.783
97.957	25.889	1332.184	1081.918
98.972	25.998	1331.085	1081.588
99.987	25.908	1330.860	1080.770
101.001	25.881	1329.899	1079.732
102.016	25.971	1328.472	1079.012
103.030	25.829	1327.948	1077.641
104.045	25.858	1327.373	1077.253
105.060	25.947	1325.917	1076.509
106.074	25.983	1325.117	1075.982
107.089	25.965	1323.817	1074.722
108.103	25.961	1322.647	1073.654
109.118	25.946	1321.524	1072.556
110.133	26.006	1320.487	1071.976
111.147	25.968	1319.534	1070.881
112.162	25.937	1318.743	1069.961
113.176	25.967	1317.441	1068.991
114.191	25.916	1316.892	1068.144
115.206	25.970	1316.111	1067.739
116.220	26.024	1314.456	1066.621
117.235	25.984	1313.480	1065.497
118.249	25.921	1312.658	1064.368
119.264	25.915	1312.082	1063.770
120.279	25.937	1311.171	1063.067
121.293	26.146	1309.910	1063.180
122.308	26.038	1309.365	1062.007
123.322	25.967	1309.017	1061.212
124.337	25.988	1308.293	1060.658
125.352	26.112	1306.451	1059.799
126.366	26.164	1306.103	1059.729
127.381	26.021	1305.620	1058.403
128.395	26.103	1304.321	1057.736
129.410	26.152	1303.420	1057.200
130.424	26.028	1303.258	1056.246
131.439	26.074	1302.129	1055.505
132.454	26.032	1301.620	1054.757
133.468	26.003	1300.764	1053.802
134.483	26.080	1299.890	1053.451
135.497	26.020	1298.957	1052.251
136.512	26.146	1297.713	1051.883
137.527	26.069	1296.973	1050.739
138.541	26.099	1295.214	1049.399
139.556	26.142	1294.483	1048.963
140.570	26.016	1293.942	1047.697
141.585	26.018	1292.774	1046.671
142.600	26.044	1291.897	1046.023
143.614	26.043	1290.951	1045.156
144.629	26.086	1289.721	1044.319
145.643	25.989	1288.479	1042.659
146.658	26.061	1287.369	1042.084
147.673	26.080	1286.195	1041.151
148.687	25.879	1285.885	1039.650
149.702	25.951	1284.502	1038.854
150.716	26.055	1283.420	1038.487
151.731	25.883	1282.442	1036.614
152.746	25.905	1281.391	1035.797
153.760	26.042	1280.325	1035.632
154.775	26.046	1279.089	1034.564
155.789	25.961	1278.271	1033.320
156.804	26.025	1277.661	1033.101
157.819	26.124	1276.623	1032.738
158.833	25.976	1276.360	1031.588
159.848	25.986	1275.511	1030.868
160.862	26.069	1274.516	1030.448
161.877	25.994	1274.197	1029.669
162.892	26.177	1272.594	1029.325
163.906	25.996	1272.309	1027.972
164.921	26.085	1271.528	1027.758
165.935	26.130	1270.546	1027.129
166.950	26.085	1270.005	1026.346
167.964	26.157	1269.496	1026.252
168.979	26.067	1269.150	1025.370
169.994	26.051	1268.366	1024.558
171.008	26.040	1268.033	1024.135
172.023	26.055	1267.215	1023.468
173.037	26.147	1266.081	1022.983
174.052	26.076	1265.394	1021.937
175.067	26.137	1264.180	1021.210
176.081	26.113	1263.645	1020.548
177.096	26.230	1262.621	1020.292
178.110	26.232	1261.620	1019.406
179.125	26.205	1260.817	1018.514
180.140	26.323	1259.643	1018.144
181.154	26.186	1259.075	1016.819
182.169	26.223	1257.952	1016.031
183.183	26.164	1256.911	1014.773
184.198	26.140	1256.145	1013.926
185.213	26.213	1254.771	1013.139
186.227	26.275	1253.494	1012.364
187.242	26.207	1253.288	1011.725
188.256	26.140	1252.378	1010.528
189.271	26.304	1251.172	1010.385
190.286	26.360	1250.443	1010.015
191.300	26.258	1250.364	1009.295
192.315	26.167	1249.939	1008.351
193.329	26.195	1249.476	1008.045
194.344	26.267	1248.718	1007.746
195.359	26.253	1248.335	1007.274
196.373	26.274	1247.409	1006.553
197.388	26.277	1247.152	1006.271
198.402	26.158	1247.226	1005.583
199.417	26.234	1246.386	1005.239
200.432	26.330	1246.125	1005.474
201.446	26.147	1245.758	1004.072
202.461	26.296	1244.626	1003.897
203.475	26.217	1243.821	1002.719
204.490	26.303	1242.712	1002.212
205.504	26.233	1241.974	1001.144
206.519	26.240	1240.868	1000.199
207.534	26.306	1240.064	999.829
208.548	26.258	1239.141	998.732
209.563	26.358	1238.212	998.449
210.577	26.199	1238.026	997.328
211.592	26.259	1236.960	996.716
212.607	26.282	1236.276	996.202
213.621	26.266	1235.384	995.306
214.636	26.266	1234.471	994.480
215.650	26.429	1233.459	994.474
216.665	26.404	1232.048	993.116
217.680	26.330	1231.018	991.786
218.694	26.361	1230.945	991.813
219.709	26.505	1229.806	991.598
220.723	26.471	1229.352	990.957
221.738	26.387	1228.903	990.047
222.753	26.296	1228.002	988.736
223.767	26.360	1227.817	988.846
224.782	26.412	1227.094	988.465
225.796	26.398	1226.576	987.882
226.811	26.426	1225.982	987.468
227.826	26.510	1225.233	987.234
228.840	26.465	1224.836	986.586
229.855	26.484	1224.018	985.943
230.869	26.487	1223.202	985.213
231.884	26.414	1222.284	983.986
232.899	26.443	1221.622	983.529
233.913	26.478	1221.287	983.360
234.928	26.609	1220.403	983.275
235.942	26.577	1219.920	982.624
236.957	26.496	1219.481	981.746
237.972	26.501	1219.001	981.297
238.986	26.446	1218.318	980.364
240.001	26.553	1217.596	980.272
241.015	26.557	1216.703	979.490
242.030	26.504	1216.195	978.709
243.045	26.634	1215.294	978.598
244.059	26.668	1214.418	977.991
245.074	26.620	1213.506	976.909
246.088	26.762	1212.491	976.771
247.103	26.699	1212.171	976.087
248.117	26.666	1211.556	975.327
249.132	26.613	1210.693	974.264
250.147	26.588	1210.577	973.949
251.161	26.676	1209.168	973.202
252.176	26.788	1208.380	973.083
253.190	26.759	1207.563	972.183
254.205	26.729	1207.300	971.724
255.220	26.674	1207.111	971.189
256.234	26.805	1206.244	971.109
257.249	26.761	1205.224	969.965
258.263	26.724	1205.032	969.529
259.278	26.672	1204.559	968.782
260.293	26.741	1203.734	968.405
261.307	26.768	1203.124	967.970
262.322	26.840	1202.808	968.018
263.336	26.704	1201.982	966.539
264.351	26.790	1201.355	966.407
265.366	26.712	1201.333	965.890
266.380	26.747	1200.295	965.158
267.395	26.729	1199.636	964.445
268.409	26.762	1199.090	964.096
269.424	26.651	1198.362	962.834
270.439	26.684	1198.514	963.048
271.453	26.792	1197.217	962.494
272.468	26.714	1196.435	961.364
273.482	26.743	1195.407	960.609
274.497	26.808	1195.043	960.575
275.512	26.956	1194.395	960.752
276.526	26.919	1193.526	959.772
277.541	26.835	1193.162	958.954
278.555	26.725	1192.957	958.123
279.570	26.938	1191.627	958.093
280.585	26.926	1190.699	957.200
281.599	26.859	1190.207	956.363
282.614	26.826	1189.276	955.356
283.628	26.971	1188.058	955.058
284.643	26.923	1187.545	954.308
285.657	26.840	1186.858	953.235
286.672	26.914	1185.569	952.504
287.687	26.974	1185.159	952.408
288.701	27.057	1183.992	951.821
289.716	27.008	1183.279	950.904
290.730	27.073	1183.092	951.009
291.745	26.989	1182.339	949.884
292.760	27.053	1181.914	949.792
293.774	27.078	1181.351	949.384
294.789	26.925	1181.200	948.381
295.803	27.079	1179.983	948.124
296.818	26.990	1179.436	947.137
297.833	27.015	1179.175	946.972
298.847	26.993	1178.443	946.185
299.862	27.038	1177.420	945.514
300.876	27.137	1176.166	944.939
301.891	26.999	1175.842	943.878
302.906	27.201	1175.386	944.480
303.920	27.138	1174.830	943.618
304.935	27.131	1174.390	943.146
305.949	27.052	1173.517	941.954
306.964	27.158	1172.954	941.969
307.979	27.241	1172.125	941.650
308.993	27.203	1171.679	941.009
310.008	27.219	1170.990	940.459
311.022	27.274	1169.930	939.807
312.037	27.247	1169.761	939.448
313.052	27.180	1168.626	938.107
314.066	27.281	1167.611	937.731
315.081	27.209	1166.892	936.698
316.095	27.320	1166.156	936.596
317.110	27.162	1166.015	935.586
318.125	27.244	1165.230	935.296
319.139	27.173	1164.646	934.379
320.154	27.359	1163.685	934.482
321.168	27.342	1163.160	933.891
322.183	27.305	1162.888	933.396
323.197	27.201	1162.072	932.130
324.212	27.256	1161.414	931.797
325.227	27.349	1160.879	931.762
326.241	27.358	1160.426	931.362
327.256	27.402	1159.680	930.906
328.270	27.388	1159.159	930.334
329.285	27.373	1158.092	929.320
330.300	27.501	1156.953	928.977
331.314	27.342	1156.649	927.840
332.329	27.280	1156.161	927.048
333.343	27.319	1155.202	926.400
334.358	27.468	1154.000	926.108
335.373	27.517	1153.613	925.967
336.387	27.490	1152.936	925.203
337.402	27.508	1152.123	924.561
338.416	27.534	1151.451	924.073
339.431	27.537	1150.827	923.502
340.446	27.551	1150.438	923.182
341.460	27.609	1149.709	922.808
342.475	27.467	1149.145	921.553
343.489	27.509	1148.362	921.060
344.504	27.548	1147.211	920.248
345.519	27.575	1146.313	919.586
346.533	27.574	1145.478	918.832
347.548	27.626	1144.770	918.441
348.562	27.553	1144.053	917.418
349.577	27.639	1143.523	917.342
350.592	27.641	1142.572	916.508
351.606	27.551	1142.131	915.625
352.621	27.536	1141.276	914.781
353.635	27.682	1140.866	915.102
354.650	27.713	1139.984	914.469
355.665	27.664	1139.874	914.058
356.679	27.757	1138.716	913.515
357.694	27.614	1138.479	912.525
358.708	27.814	1137.516	912.675
359.723	27.606	1137.079	911.201
360.738	27.602	1136.472	910.615
361.752	27.658	1136.109	910.523
362.767	27.755	1135.261	910.245
363.781	27.791	1134.967	910.112
364.796	27.779	1134.207	909.361
365.810	27.709	1133.784	908.592
366.825	27.760	1133.013	908.149
367.840	27.908	1132.215	908.162
368.854	27.955	1131.959	908.112
369.869	27.965	1130.830	907.173
370.883	27.952	1129.866	906.259
371.898	27.899	1129.688	905.772
372.913	27.905	1129.367	905.462
373.927	27.936	1128.693	904.998
374.942	27.931	1128.122	904.432
375.956	27.894	1127.726	903.853
376.971	27.853	1127.263	903.201
377.986	27.990	1126.383	903.091
379.000	27.896	1126.285	902.469
380.015	27.890	1125.605	901.816
381.029	28.002	1124.713	901.572
382.044	27.994	1123.909	900.809
383.059	28.050	1123.206	900.443
384.073	28.105	1122.626	900.169
385.088	28.024	1121.681	898.930
386.102	28.020	1121.239	898.480
387.117	27.952	1120.276	897.296
388.132	27.943	1119.600	896.627
389.146	28.094	1118.765	896.622
390.161	28.017	1118.583	896.019
391.175	28.037	1118.095	895.646
392.190	28.249	1116.587	895.396
393.205	28.125	1115.756	894.046
394.219	28.080	1115.263	893.351
395.234	28.170	1114.441	893.051
396.248	28.234	1113.199	892.288
397.263	28.225	1112.814	891.860
398.278	28.215	1112.366	891.371
399.292	28.277	1111.782	891.125
400.307	28.279	1111.254	890.633
401.321	28.195	1110.486	889.534
402.336	28.243	1109.529	888.922
403.350	28.268	1108.934	888.484
404.365	28.233	1108.618	887.984
405.380	28.280	1107.966	887.611
406.394	28.308	1107.171	887.028
407.409	28.339	1106.336	886.436
408.423	28.367	1105.501	885.820
409.438	28.431	1105.213	885.821
410.453	28.388	1104.755	885.167
411.467	28.368	1103.638	884.101
412.482	28.278	1102.719	882.851
413.496	28.370	1102.222	882.818
414.511	28.449	1101.513	882.550
415.526	28.483	1101.204	882.389
416.540	28.349	1100.967	881.477
417.555	28.452	1099.876	881.023
418.569	28.512	1099.690	881.082
419.584	28.496	1099.642	880.889
420.599	28.485	1098.957	880.210
421.613	94.555	1307.632	1407.430
422.628	88.442	1338.050	1407.565
