DTS Sentinel unit serial number:	SN413079Multiplexer serial number:	ORYXHardware model number:	OX4-SRSoftware version number:	ORYX F/W v4.00 Oryx Data Collector v3.7.2.0data status	okinstallation	princeton_trtdifferential loss correction	single-endedforward channel	channel 2reverse channel	N/Adate	2019/09/11time	15:01:11forward acquisition time	60.00reverse acquisition time	0.00gamma	496.2192k internal	0.2288k external	0.2288temperature offset calibration	1.0012default loss term (dB/km)	0.3790temperature slope calibration	1.0000multiplexer offset coefficient	1.0000multiplexer slope coefficient	1.0000fibre end	0.00T internal ref (°C)	42.81T ext. ref 1 (°C)	0.95T ext. ref 2 (°C)	38.11length (m)	temperature (°C)	Stokes	anti-Stokes-747.200	-99.801	-0.168	0.043
-746.185	-24.842	0.159	0.097
-745.171	-200.000	0.004	0.265
-744.156	8.601	-0.225	0.174
-743.142	-200.000	-0.028	-0.290
-742.127	-200.000	0.020	0.136
-741.112	-2.496	0.140	-0.101
-740.098	-78.492	0.276	-0.097
-739.083	-108.484	-0.208	0.046
-738.069	800.000	-0.059	0.231
-737.054	106.018	-0.227	-0.276
-736.039	44.290	-0.192	-0.181
-735.025	-24.347	0.224	0.137
-734.010	242.620	-0.068	-0.117
-732.996	-99.734	-0.358	-0.092
-731.981	84.515	-0.121	-0.136
-730.966	756.885	0.102	-0.283
-729.952	48.261	0.085	0.081
-728.937	225.904	0.090	-0.150
-727.923	206.298	0.217	-0.346
-726.908	800.000	0.023	-0.092
-725.894	227.282	-0.107	-0.179
-724.879	-45.561	-0.305	0.155
-723.864	-154.855	0.219	0.015
-722.850	-47.719	0.271	-0.134
-721.835	226.563	0.150	-0.249
-720.821	-200.000	-0.001	-0.082
-719.806	-116.574	-0.102	-0.019
-718.791	386.292	0.109	-0.230
-717.777	-20.926	0.050	0.032
-716.762	211.070	-0.064	-0.103
-715.748	800.000	-0.062	-0.257
-714.733	-191.931	0.171	-0.002
-713.718	-131.990	0.151	-0.020
-712.704	-14.073	0.178	-0.118
-711.689	-15.636	0.223	-0.146
-710.675	13.068	0.116	0.092
-709.660	273.235	-0.155	-0.280
-708.645	56.024	0.165	-0.163
-707.631	-18.993	0.252	-0.160
-706.616	83.636	-0.021	-0.024
-705.602	-136.011	-0.312	0.037
-704.587	-200.000	0.014	-0.363
-703.572	-98.553	-0.316	0.083
-702.558	-99.965	0.504	0.129
-701.543	11.426	-0.073	-0.057
-700.529	486.765	-0.044	0.104
-699.514	-121.754	-0.136	0.023
-698.499	106.795	0.177	-0.215
-697.485	-98.785	-0.142	-0.037
-696.470	800.000	0.057	-0.227
-695.456	309.387	0.102	0.196
-694.441	-17.844	0.466	-0.299
-693.426	84.432	0.128	-0.144
-692.412	-159.502	0.085	-0.005
-691.397	-23.988	-0.328	-0.201
-690.383	-200.000	0.041	-0.316
-689.368	13.449	-0.193	-0.153
-688.354	-2.762	-0.408	-0.292
-687.339	627.291	-0.051	0.131
-686.324	-44.252	-0.025	0.013
-685.310	89.283	-0.140	0.160
-684.295	61.859	-0.153	-0.156
-683.281	471.000	0.097	-0.224
-682.266	215.580	0.123	0.200
-681.251	-200.000	0.016	0.085
-680.237	199.220	0.080	-0.125
-679.222	96.587	0.122	0.143
-678.208	37.594	-0.056	-0.051
-677.193	327.397	-0.054	0.106
-676.178	-93.242	-0.198	0.056
-675.164	619.637	-0.161	-0.414
-674.149	50.598	-0.083	0.080
-673.135	800.000	-0.089	-0.325
-672.120	-103.589	-0.137	0.033
-671.105	285.716	-0.037	-0.068
-670.091	-82.388	-0.212	-0.071
-669.076	399.026	-0.091	-0.195
-668.062	-200.000	-0.030	-0.258
-667.047	-162.757	-0.083	-0.004
-666.032	-200.000	-0.029	0.334
-665.018	-105.680	-0.115	-0.027
-664.003	-58.139	-0.480	-0.214
-662.989	-200.000	0.087	-0.418
-661.974	74.598	-0.327	-0.352
-660.959	-200.000	-0.005	-0.229
-659.945	-131.404	-0.222	0.030
-658.930	448.891	0.127	-0.286
-657.916	-96.902	0.164	-0.044
-656.901	592.864	-0.042	-0.107
-655.886	123.975	-0.226	-0.290
-654.872	298.031	-0.116	-0.217
-653.857	557.476	-0.043	0.106
-652.843	-200.000	0.023	0.205
-651.828	-200.000	0.034	-0.290
-650.814	-16.918	-0.209	-0.135
-649.799	154.331	0.075	0.105
-648.784	-82.865	-0.388	-0.128
-647.770	-200.000	-0.022	-0.153
-646.755	575.627	-0.095	-0.237
-645.741	-91.816	-0.490	-0.142
-644.726	46.692	0.094	-0.089
-643.711	-87.066	0.354	-0.110
-642.697	-38.595	0.136	0.073
-641.682	59.614	-0.178	0.179
-640.668	516.108	0.103	-0.247
-639.653	432.900	0.099	0.218
-638.638	-69.287	0.094	-0.037
-637.624	-200.000	0.031	-0.159
-636.609	800.000	-0.122	0.374
-635.595	-13.089	-0.203	0.135
-634.580	-120.603	-0.446	-0.077
-633.565	436.763	-0.107	0.239
-632.551	800.000	-0.049	0.168
-631.536	-175.508	0.061	-0.002
-630.522	795.610	0.070	-0.196
-629.507	800.000	-0.062	-0.199
-628.492	-200.000	-0.002	-0.084
-627.478	-200.000	-0.011	0.142
-626.463	-200.000	0.037	-0.220
-625.449	138.161	0.115	0.154
-624.434	-92.404	-0.146	-0.042
-623.419	-200.000	0.059	0.392
-622.405	468.512	-0.079	0.181
-621.390	-32.095	0.074	-0.042
-620.376	168.114	0.147	-0.214
-619.361	393.976	-0.049	0.104
-618.346	-200.000	-0.053	-0.319
-617.332	-200.000	-0.024	-0.191
-616.317	-200.000	0.111	-0.542
-615.303	24.166	-0.198	0.166
-614.288	322.247	0.135	-0.261
-613.273	-61.874	-0.184	-0.079
-612.259	584.782	-0.173	-0.434
-611.244	-170.919	0.512	-0.018
-610.230	-200.000	-0.017	-0.109
-609.215	9.031	-0.096	0.074
-608.201	130.038	0.077	0.101
-607.186	-200.000	-0.018	-0.099
-606.171	-124.368	0.187	0.030
-605.157	-22.805	0.246	-0.151
-604.142	-200.000	-0.012	0.287
-603.128	-200.000	-0.043	0.255
-602.113	20.947	-0.272	-0.225
-601.098	-35.992	0.282	-0.155
-600.084	-163.936	-0.231	0.011
-599.069	58.355	0.193	-0.193
-598.055	224.002	-0.041	0.067
-597.040	-200.000	-0.035	-0.297
-596.025	-200.000	0.034	-0.164
-595.011	-73.976	-0.231	-0.085
-593.996	-152.493	0.162	-0.012
-592.982	706.570	-0.035	0.094
-591.967	-24.540	-0.209	-0.127
-590.952	-85.537	-0.025	-0.008
-589.938	71.378	-0.034	-0.036
-588.923	109.759	-0.103	-0.125
-587.909	-1.892	0.179	0.128
-586.894	-22.203	0.295	-0.182
-585.879	20.568	0.200	0.165
-584.865	-73.102	0.105	0.039
-583.850	33.913	-0.106	-0.094
-582.836	-84.126	0.199	-0.064
-581.821	686.934	0.026	-0.068
-580.806	-156.047	-0.242	-0.016
-579.792	-18.482	-0.222	-0.141
-578.777	-69.811	-0.115	-0.045
-577.763	231.996	0.018	0.031
-576.748	-200.000	0.014	0.161
-575.733	-200.000	-0.038	0.426
-574.719	-171.208	0.252	-0.009
-573.704	195.281	0.045	0.069
-572.690	-162.097	-0.094	-0.005
-571.675	-70.166	0.240	-0.093
-570.661	54.943	0.035	-0.035
-569.646	129.610	-0.197	0.257
-568.631	46.623	-0.172	0.162
-567.617	-33.907	0.353	-0.198
-566.602	-15.008	0.142	0.093
-565.588	-50.304	0.168	0.081
-564.573	-115.476	-0.274	-0.053
-563.558	83.545	-0.270	0.300
-562.544	-200.000	0.005	-0.319
-561.529	-172.519	-0.050	-0.002
-560.515	-63.953	-0.231	0.096
-559.500	-91.358	0.212	0.062
-558.485	204.212	-0.152	-0.240
-557.471	-78.907	-0.271	-0.094
-556.456	-200.000	0.067	0.502
-555.442	-63.578	0.238	0.099
-554.427	-67.468	0.218	0.087
-553.412	85.021	0.098	0.109
-552.398	14.660	0.145	0.116
-551.383	-119.090	-0.424	-0.076
-550.369	129.130	0.092	0.119
-549.354	-108.812	0.118	0.026
-548.339	-200.000	-0.015	-0.143
-547.325	-200.000	-0.055	0.278
-546.310	800.000	-0.058	-0.204
-545.296	100.965	-0.248	-0.294
-544.281	285.735	-0.145	0.266
-543.266	800.000	-0.011	0.036
-542.252	-97.321	0.383	0.102
-541.237	-94.067	-0.133	-0.037
-540.223	367.015	0.113	-0.232
-539.208	-200.000	0.037	-0.189
-538.193	-157.800	0.264	-0.016
-537.179	-178.954	0.064	-0.001
-536.164	-61.860	-0.045	0.019
-535.150	266.914	0.184	0.327
-534.135	53.129	0.209	0.204
-533.121	-161.964	-0.387	0.020
-532.106	-89.394	-0.362	0.108
-531.091	-127.909	0.372	-0.054
-530.077	-200.000	-0.071	-0.328
-529.062	424.171	0.038	-0.083
-528.048	109.569	0.276	-0.336
-527.033	-150.991	-0.365	-0.028
-526.018	-88.118	0.129	-0.039
-525.004	220.557	0.091	0.148
-523.989	38.884	-0.242	-0.220
-522.975	347.381	-0.065	0.131
-521.960	-108.640	0.155	0.034
-520.945	11.605	0.150	0.117
-519.931	-200.000	-0.021	0.239
-518.916	20.461	-0.138	0.113
-517.902	82.564	-0.165	0.183
-516.887	111.600	-0.282	0.346
-515.872	-3.600	0.233	0.165
-514.858	-26.312	0.128	0.076
-513.843	58.730	-0.102	0.102
-512.829	-200.000	-0.022	-0.213
-511.814	-165.062	-0.143	-0.006
-510.799	-88.546	0.298	0.090
-509.785	742.516	-0.102	0.278
-508.770	-200.000	-0.005	0.203
-507.756	-128.232	0.158	0.023
-506.741	294.066	0.074	-0.138
-505.726	81.713	0.310	-0.340
-504.712	-48.499	-0.211	-0.103
-503.697	278.610	0.127	0.230
-502.683	-148.685	0.242	-0.020
-501.668	-200.000	-0.007	-0.132
-500.653	59.912	0.252	-0.252
-499.639	568.380	0.058	0.142
-498.624	-85.864	-0.286	-0.090
-497.610	601.577	0.019	-0.048
-496.595	125.085	-0.183	0.235
-495.581	100.643	-0.146	-0.172
-494.566	-187.797	-0.291	0.004
-493.551	-200.000	0.027	-0.123
-492.537	-70.749	-0.267	-0.102
-491.522	165.787	0.078	-0.113
-490.508	-200.000	0.003	0.118
-489.493	-108.478	0.311	-0.068
-488.478	-200.000	0.014	0.091
-487.464	-44.969	-0.258	-0.131
-486.449	579.965	0.040	0.099
-485.435	800.000	-0.077	0.247
-484.420	-200.000	-0.230	-0.000
-483.405	-189.195	-0.252	-0.003
-482.391	-200.000	-0.039	0.300
-481.376	201.903	-0.212	0.331
-480.362	178.728	-0.192	-0.285
-479.347	-148.805	0.062	-0.005
-478.332	168.759	-0.213	0.309
-477.318	21.390	-0.128	0.105
-476.303	-200.000	-0.009	0.127
-475.289	800.000	0.052	-0.225
-474.274	45.008	0.087	0.081
-473.259	-200.000	0.013	0.234
-472.245	515.208	-0.110	0.260
-471.230	-23.013	0.177	0.108
-470.216	-200.000	-0.003	-0.050
-469.201	-80.063	-0.221	0.075
-468.186	-200.000	0.014	-0.087
-467.172	86.072	0.069	-0.077
-466.157	-143.445	0.277	0.027
-465.143	-152.954	-0.295	0.021
-464.128	800.000	-0.027	-0.110
-463.113	-65.264	-0.106	-0.043
-462.099	-159.389	0.225	0.013
-461.084	525.832	-0.056	0.134
-460.070	-105.142	-0.398	-0.092
-459.055	-138.592	0.150	-0.017
-458.040	800.000	-0.050	0.166
-457.026	540.001	-0.051	0.122
-456.011	-200.000	-0.005	0.102
-454.997	41.223	-0.247	0.226
-453.982	800.000	-0.028	0.113
-452.968	800.000	-0.068	-0.199
-451.953	121.366	0.338	-0.427
-450.938	249.436	-0.086	-0.147
-449.924	161.622	-0.202	0.286
-448.909	111.720	-0.234	-0.286
-447.895	-151.260	-0.152	-0.012
-446.880	108.411	0.054	-0.066
-445.865	-132.315	-0.111	-0.015
-444.851	-9.535	0.061	-0.041
-443.836	-53.172	-0.082	0.038
-442.822	559.439	-0.080	-0.195
-441.807	-83.819	0.166	-0.053
-440.792	-35.805	-0.178	-0.098
-439.778	156.878	0.071	0.099
-438.763	-200.000	-0.018	-0.173
-437.749	573.181	-0.071	0.175
-436.734	-127.656	0.237	-0.035
-435.719	-171.421	-0.132	0.004
-434.705	-153.200	0.306	0.022
-433.690	-61.219	0.134	-0.057
-432.676	-91.508	-0.217	0.063
-431.661	-133.027	-0.220	-0.028
-430.646	81.951	0.160	0.176
-429.632	162.753	-0.071	0.102
-428.617	-200.000	-0.013	0.090
-427.603	-200.000	0.006	0.065
-426.588	-200.000	-0.066	-0.295
-425.573	-58.407	-0.276	-0.121
-424.559	-200.000	0.002	-0.294
-423.544	-151.442	0.234	0.018
-422.530	150.035	0.042	0.057
-421.515	-200.000	-0.019	-0.099
-420.500	-200.000	0.010	0.143
-419.486	283.602	-0.244	0.444
-418.471	212.863	0.044	-0.071
-417.457	46.494	0.035	0.033
-416.442	-200.000	0.006	0.064
-415.428	-21.980	-0.166	0.102
-414.413	-19.636	0.053	0.033
-413.398	-118.796	0.144	0.026
-412.384	-101.377	0.318	-0.078
-411.369	-162.798	0.264	0.013
-410.355	800.000	-0.074	-0.229
-409.340	800.000	0.152	0.525
-408.325	544.655	-0.034	-0.083
-407.311	-16.772	-0.260	0.167
-406.296	-200.000	0.012	-0.221
-405.282	418.528	-0.039	-0.084
-404.267	66.725	-0.159	-0.163
-403.252	-121.597	0.264	-0.044
-402.238	261.433	0.064	-0.113
-401.223	34.210	0.210	-0.185
-400.209	715.333	-0.037	-0.098
-399.194	-60.092	0.280	0.121
-398.179	15.678	0.191	0.152
-397.165	-147.057	-0.216	0.019
-396.150	-200.000	-0.020	0.173
-395.136	-137.146	0.275	0.032
-394.121	-200.000	-0.016	0.369
-393.106	-200.000	0.022	0.209
-392.092	800.000	-0.061	0.220
-391.077	225.272	-0.081	0.132
-390.063	-200.000	0.018	-0.083
-389.048	-17.960	-0.072	0.046
-388.033	106.845	0.202	-0.243
-387.019	-0.669	0.201	-0.144
-386.004	213.889	-0.178	-0.285
-384.990	23.613	-0.054	0.045
-383.975	40.667	0.094	-0.085
-382.960	-150.832	0.072	0.005
-381.946	-79.097	-0.439	0.151
-380.931	-122.050	0.118	0.020
-379.917	-177.484	0.141	-0.003
-378.902	-9.132	0.120	0.081
-377.888	-51.083	0.270	-0.128
-376.873	25.727	0.038	-0.032
-375.858	307.101	0.118	-0.223
-374.844	-9.868	-0.284	0.191
-373.829	2.179	0.308	0.225
-372.815	-56.629	0.084	-0.038
-371.800	-200.000	0.035	-0.232
-370.785	-200.000	-0.033	-0.167
-369.771	-200.000	-0.025	-0.349
-368.756	585.736	0.118	0.292
-367.742	-7.850	-0.116	-0.079
-366.727	482.527	-0.097	-0.222
-365.712	-200.000	-0.025	0.148
-364.698	283.826	-0.066	0.120
-363.683	-130.670	-0.065	0.009
-362.669	800.000	-0.082	-0.310
-361.654	-101.145	-0.091	-0.022
-360.639	189.760	0.075	-0.113
-359.625	800.000	0.033	0.112
-358.610	-200.000	-0.003	0.228
-357.596	800.000	-0.050	-0.188
-356.581	-99.925	-0.076	0.019
-355.566	-72.429	-0.385	0.144
-354.552	166.873	0.248	-0.355
-353.537	-32.415	0.044	0.025
-352.523	800.000	0.068	0.236
-351.508	-42.814	0.273	0.140
-350.493	-200.000	0.037	-0.225
-349.479	-200.000	0.004	0.097
-348.464	-200.000	-0.037	0.240
-347.450	-182.702	0.271	-0.005
-346.435	-200.000	0.019	-0.145
-345.420	-16.947	0.093	-0.059
-344.406	-200.000	-0.007	-0.197
-343.391	-87.729	-0.113	-0.034
-342.377	-143.353	-0.098	0.009
-341.362	-139.035	0.151	-0.017
-340.348	-103.023	0.133	0.032
-339.333	-41.883	0.062	0.032
-338.318	-5.509	0.147	0.102
-337.304	605.817	-0.050	0.127
-336.289	-141.298	0.124	-0.013
-335.275	-30.881	-0.108	0.062
-334.260	329.268	-0.117	0.226
-333.245	-79.646	0.178	0.061
-332.231	12.843	-0.207	-0.161
-331.216	800.000	0.021	0.091
-330.202	-200.000	0.007	0.244
-329.187	283.373	0.229	0.416
-328.172	13.304	0.099	-0.077
-327.158	-128.147	-0.172	-0.025
-326.143	202.998	-0.196	-0.306
-325.129	163.284	0.153	-0.217
-324.114	800.000	-0.087	0.331
-323.099	-44.051	0.062	0.032
-322.085	97.474	0.223	-0.258
-321.070	-200.000	-0.017	0.212
-320.056	130.933	-0.019	0.024
-319.041	-49.437	0.083	0.040
-318.026	199.461	0.135	-0.208
-317.012	-138.391	0.223	0.025
-315.997	-25.854	0.221	0.131
-314.983	-135.688	-0.429	0.051
-313.968	-34.684	-0.106	0.058
-312.953	-200.000	-0.024	-0.135
-311.939	-83.699	0.309	-0.100
-310.924	800.000	0.043	0.123
-309.910	-158.338	-0.308	-0.018
-308.895	313.221	0.133	0.253
-307.880	98.251	0.121	-0.140
-306.866	5.660	-0.178	0.133
-305.851	-23.319	-0.341	0.206
-304.837	-200.000	0.001	-0.169
-303.822	13.581	0.303	0.237
-302.807	-126.429	0.157	0.023
-301.793	-60.992	-0.291	0.124
-300.778	52.338	-0.077	-0.074
-299.764	-200.000	0.012	-0.110
-298.749	58.456	-0.041	0.041
-297.735	-26.630	-0.276	-0.163
-296.720	34.943	0.198	0.175
-295.705	90.956	0.175	-0.198
-294.691	-102.211	0.188	-0.046
-293.676	35.151	0.113	0.100
-292.662	-14.283	0.151	-0.098
-291.647	114.414	0.095	0.117
-290.632	145.758	-0.161	0.217
-289.618	-101.346	0.185	0.045
-288.603	397.555	-0.078	0.165
-287.589	216.946	-0.149	0.239
-286.574	800.000	0.089	0.317
-285.559	-89.365	0.139	0.041
-284.545	-55.875	0.073	0.033
-283.530	670.380	0.078	-0.203
-282.516	-200.000	-0.052	0.418
-281.501	-57.439	0.070	0.031
-280.486	-57.973	-0.408	-0.179
-279.472	-18.505	0.149	-0.094
-278.457	592.427	-0.149	-0.372
-277.443	-200.000	0.037	-0.219
-276.428	800.000	0.075	-0.315
-275.413	79.919	0.283	0.306
-274.399	-96.418	-0.216	-0.057
-273.384	-41.840	-0.129	-0.067
-272.370	-75.205	-0.242	-0.087
-271.355	-108.364	0.154	0.033
-270.340	-137.062	0.066	-0.008
-269.326	-200.000	-0.003	-0.050
-268.311	-2.161	0.087	0.062
-267.297	-78.256	0.205	-0.071
-266.282	-57.401	0.059	-0.026
-265.267	800.000	-0.023	0.068
-264.253	278.680	-0.109	-0.196
-263.238	3.697	0.172	0.126
-262.224	-105.735	0.276	0.063
-261.209	635.718	0.039	0.100
-260.195	169.650	-0.084	-0.121
-259.180	-91.243	0.308	-0.089
-258.165	-40.957	-0.272	-0.142
-257.151	55.861	-0.271	-0.265
-256.136	-82.457	-0.247	-0.081
-255.122	21.063	0.060	-0.049
-254.107	-44.304	-0.132	-0.066
-253.092	-137.295	0.057	-0.007
-252.078	-200.000	0.023	0.174
-251.063	800.000	-0.059	-0.257
-250.049	172.946	0.188	0.272
-249.034	400.946	-0.033	0.071
-248.019	-36.434	-0.168	0.091
-247.005	181.076	0.230	0.340
-245.990	-146.737	0.146	0.013
-244.976	-200.000	-0.002	-0.117
-243.961	-45.932	0.356	-0.176
-242.946	399.420	-0.057	-0.119
-241.932	146.416	0.102	0.138
-240.917	-112.695	0.540	-0.108
-239.903	-114.507	-0.378	-0.073
-238.888	-59.136	-0.230	0.100
-237.873	105.977	0.159	0.189
-236.859	-200.000	0.054	0.261
-235.844	10.952	0.146	0.112
-234.830	111.179	-0.211	0.255
-233.815	-84.694	0.141	-0.045
-232.800	176.519	-0.282	-0.412
-231.786	43.886	0.203	-0.187
-230.771	34.617	0.120	-0.105
-229.757	-200.000	0.013	-0.379
-228.742	-29.521	0.124	-0.071
-227.727	-28.607	-0.290	0.168
-226.713	152.696	-0.133	0.182
-225.698	-67.311	-0.213	0.084
-224.684	-84.756	0.156	0.049
-223.669	-49.577	-0.013	-0.006
-222.655	-119.158	-0.255	-0.045
-221.640	556.414	-0.137	-0.332
-220.625	73.282	-0.126	0.133
-219.611	0.228	0.170	0.122
-218.596	769.031	0.063	-0.172
-217.582	31.358	0.192	0.166
-216.567	-150.339	0.193	0.015
-215.552	70.719	0.135	0.140
-214.538	242.626	-0.053	-0.089
-213.523	263.763	-0.154	-0.268
-212.509	-149.941	-0.231	0.018
-211.494	335.337	0.048	0.094
-210.479	-200.000	-0.018	-0.237
-209.465	-53.050	0.099	0.046
-208.450	-200.000	0.009	0.250
-207.436	-200.000	0.029	-0.224
-206.421	-200.000	-0.041	-0.529
-205.406	185.532	0.010	0.014
-204.392	-167.046	0.191	-0.008
-203.377	-38.547	0.076	-0.041
-202.363	-23.422	-0.191	-0.115
-201.348	60.243	-0.214	-0.213
-200.333	-200.000	0.001	-0.160
-199.319	-48.983	-0.396	0.190
-198.304	-130.819	-0.067	0.009
-197.290	800.000	-0.094	-0.266
-196.275	104.892	0.069	-0.082
-195.260	75.488	-0.234	0.248
-194.246	-91.551	0.137	0.039
-193.231	76.077	-0.236	0.251
-192.217	34.502	0.147	0.129
-191.202	-70.748	-0.239	0.090
-190.187	17.062	0.284	-0.226
-189.173	43.482	-0.169	-0.155
-188.158	-200.000	0.004	0.215
-187.144	95.485	0.208	-0.238
-186.129	-200.000	-0.016	-0.355
-185.114	621.129	0.083	-0.210
-184.100	-20.333	-0.285	-0.176
-183.085	6.728	0.065	0.048
-182.071	-200.000	-0.021	-0.165
-181.056	800.000	0.049	-0.155
-180.042	24.851	0.115	0.096
-179.027	-51.796	0.026	0.012
-178.012	-109.310	0.174	-0.037
-176.998	-200.000	-0.026	-0.140
-175.983	-13.397	0.135	-0.088
-174.969	-200.000	-0.080	0.381
-173.954	199.859	0.124	0.191
-172.939	-122.455	0.131	0.021
-171.925	-200.000	-0.033	-0.353
-170.910	-119.697	0.117	0.020
-169.896	176.789	0.260	-0.380
-168.881	15.691	-0.327	-0.258
-167.866	186.177	-0.073	0.109
-166.852	90.906	-0.117	-0.131
-165.837	446.074	-0.092	-0.204
-164.823	-187.194	0.082	0.001
-163.808	-34.166	-0.302	0.166
-162.793	800.000	-0.030	-0.091
-161.779	800.000	0.096	0.362
-160.764	800.000	-0.055	-0.158
-159.750	114.066	0.081	0.099
-158.735	-200.000	-0.011	0.455
-157.720	-70.902	0.107	0.040
-156.706	309.211	-0.120	0.224
-155.691	800.000	0.036	0.112
-154.677	47.634	0.409	0.382
-153.662	-46.179	-0.180	0.089
-152.647	-74.651	0.046	0.017
-151.633	-145.386	-0.300	-0.027
-150.618	-141.596	-0.127	0.013
-149.604	481.776	-0.102	-0.231
-148.589	68.372	-0.194	-0.199
-147.574	597.756	0.125	-0.309
-146.560	6.440	-0.263	-0.196
-145.545	335.357	0.036	-0.069
-144.531	-18.772	-0.281	0.175
-143.516	607.511	-0.160	0.400
-142.502	190.995	-0.024	0.037
-141.487	-43.475	-0.134	0.068
-140.472	44.809	-0.116	-0.106
-139.458	132.240	-0.146	0.188
-138.443	116.601	0.117	-0.143
-137.429	-116.148	0.316	-0.059
-136.414	14.716	0.199	0.156
-135.399	58.075	0.312	0.306
-134.385	-200.000	-0.015	-0.204
-133.370	111.374	-0.206	-0.249
-132.356	-190.376	-0.278	-0.003
-131.341	-9.956	0.182	-0.121
-130.326	-200.000	0.053	-0.403
-129.312	-49.148	0.287	-0.137
-128.297	-104.207	-0.353	0.082
-127.283	800.000	-0.033	0.097
-126.268	43.642	0.107	-0.098
-125.253	-66.781	-0.376	0.149
-124.239	-176.394	0.202	-0.005
-123.224	-54.943	0.135	-0.061
-122.210	-116.671	-0.202	0.037
-121.195	-200.000	-0.024	-0.139
-120.180	-126.896	0.149	-0.022
-119.166	-21.799	-0.142	0.086
-118.151	152.780	-0.089	0.122
-117.137	-200.000	0.009	-0.059
-116.122	31.005	0.252	0.216
-115.107	28.930	0.102	-0.087
-114.093	-200.000	0.020	-0.339
-113.078	800.000	-0.077	-0.216
-112.064	-43.235	0.146	0.074
-111.049	23.291	0.212	-0.174
-110.034	-65.391	-0.149	0.060
-109.020	204.969	-0.032	0.049
-108.005	103.875	0.078	0.091
-106.991	-120.207	-0.088	-0.015
-105.976	105.004	-0.053	-0.063
-104.962	-38.065	-0.368	-0.195
-103.947	103.468	-0.101	0.118
-102.932	28.377	-0.370	-0.313
-101.918	-123.981	-0.166	0.026
-100.903	40.609	-0.073	-0.066
-99.889	772.779	-0.170	0.464
-98.874	77.851	0.240	0.256
-97.859	266.980	0.183	0.319
-96.845	764.423	0.117	0.319
-95.830	-159.715	-0.302	-0.017
-94.816	-143.318	-0.250	0.024
-93.801	-200.000	-0.014	-0.336
-92.786	800.000	-0.091	0.269
-91.772	-84.820	-0.129	-0.041
-90.757	67.915	0.288	-0.294
-89.743	499.447	0.104	0.239
-88.728	800.000	-0.024	-0.079
-87.713	800.000	-0.071	0.233
-86.699	-74.684	-0.210	0.075
-85.684	33.361	-0.115	-0.100
-84.670	-15.093	0.043	-0.028
-83.655	-148.152	-0.080	0.007
-82.640	722.166	-0.091	0.241
-81.626	800.000	0.086	0.269
-80.611	588.169	0.052	-0.128
-79.597	-200.000	0.009	0.083
-78.582	800.000	-0.144	-0.449
-77.567	-50.366	0.263	0.124
-76.553	-50.810	-0.100	-0.047
-75.538	677.661	-0.018	-0.047
-74.524	16.561	-0.100	-0.079
-73.509	-46.185	-0.112	0.055
-72.494	62.593	0.216	0.216
-71.480	800.000	0.033	-0.116
-70.465	98.963	0.270	0.311
-69.451	-200.000	0.040	0.291
-68.436	38.626	-0.260	-0.232
-67.422	800.000	0.056	0.161
-66.407	-69.688	-0.190	-0.072
-65.392	800.000	-0.028	0.115
-64.378	-200.000	0.020	-0.100
-63.363	-162.067	-0.379	0.019
-62.349	162.058	-0.232	-0.324
-61.334	56.568	-0.843	-0.819
-60.319	-34.827	0.187	0.102
-59.305	374.256	-0.233	-0.473
-58.290	169.205	0.445	0.634
-57.276	358.160	0.762	1.519
-56.261	-200.000	74.388	531.740
-55.246	571.342	1300.036	3159.598
-54.232	145.042	2529.984	3377.849
-53.217	114.575	2348.030	2855.720
-52.203	52.585	1963.030	1871.303
-51.188	46.399	1749.534	1619.250
-50.173	43.306	1701.417	1550.939
-49.159	57.642	1733.494	1691.230
-48.144	63.804	1752.547	1757.298
-47.130	46.075	1716.914	1586.309
-46.115	42.838	1702.943	1548.482
-45.100	42.746	1698.432	1543.613
-44.086	42.698	1695.514	1540.533
-43.071	42.581	1693.353	1537.615
-42.057	42.584	1690.790	1535.247
-41.042	42.671	1688.702	1533.954
-40.027	42.659	1686.784	1532.060
-39.013	42.687	1684.276	1529.937
-37.998	42.594	1683.140	1528.134
-36.984	42.665	1681.948	1527.533
-35.969	42.851	1679.509	1526.667
-34.954	42.926	1678.497	1526.256
-33.940	42.940	1676.628	1524.603
-32.925	42.856	1674.778	1522.221
-31.911	42.818	1673.224	1520.465
-30.896	42.814	1671.204	1518.532
-29.881	42.720	1669.722	1516.421
-28.867	42.821	1667.361	1514.979
-27.852	42.784	1666.872	1514.194
-26.838	42.785	1664.938	1512.386
-25.823	42.802	1663.520	1511.166
-24.809	42.892	1661.978	1510.380
-23.794	42.844	1660.621	1508.723
-22.779	42.843	1659.173	1507.342
-21.765	42.764	1657.975	1505.599
-20.750	42.688	1655.805	1503.001
-19.736	42.804	1654.139	1502.302
-18.721	42.861	1653.072	1501.694
-17.706	42.878	1650.972	1499.853
-16.692	42.922	1649.245	1498.550
-15.677	42.766	1648.684	1496.822
-14.663	42.921	1646.689	1496.105
-13.648	42.822	1645.600	1494.323
-12.633	42.803	1644.061	1492.724
-11.619	42.827	1641.935	1490.913
-10.604	42.950	1639.927	1489.937
-9.590	42.901	1639.268	1488.921
-8.575	42.867	1637.979	1487.436
-7.560	42.879	1636.802	1486.397
-6.546	42.774	1636.005	1484.843
-5.531	42.807	1634.708	1483.850
-4.517	42.851	1633.112	1482.662
-3.502	42.791	1632.576	1481.677
-2.487	42.932	1630.811	1481.052
-1.473	42.908	1619.626	1470.663
-0.458	40.658	1599.554	1436.124
0.556	35.880	1597.449	1400.030
1.571	32.976	1621.193	1399.239
2.586	32.019	1635.988	1404.725
3.600	28.163	1582.687	1330.856
4.615	15.541	1460.573	1142.746
5.629	3.522	1383.088	1004.174
6.644	1.143	1372.407	980.953
7.659	0.927	1371.218	978.622
8.673	0.930	1369.571	977.376
9.688	0.810	1368.429	975.704
10.702	0.614	1365.669	972.384
11.717	4.667	1374.687	1004.945
12.731	16.301	1396.958	1097.139
13.746	24.074	1409.863	1157.947
14.761	24.648	1409.199	1161.031
15.775	24.641	1408.289	1160.129
16.790	24.627	1408.181	1159.846
17.804	24.601	1407.641	1159.130
18.819	24.866	1407.079	1160.288
19.834	24.902	1406.313	1159.784
20.848	24.988	1405.448	1159.524
21.863	24.990	1404.293	1158.485
22.877	24.967	1403.694	1157.740
23.892	24.925	1403.179	1156.941
24.907	25.041	1401.710	1156.371
25.921	24.981	1400.713	1155.060
26.936	24.943	1399.948	1154.083
27.950	24.969	1399.233	1153.562
28.965	25.059	1397.532	1152.633
29.980	25.020	1395.990	1151.010
30.994	25.006	1395.171	1150.141
32.009	24.952	1393.646	1148.435
33.023	24.929	1392.794	1147.487
34.038	24.969	1391.788	1146.813
35.053	25.078	1390.360	1146.230
36.067	24.928	1389.898	1144.790
37.082	24.857	1389.389	1143.818
38.096	24.964	1387.772	1143.066
39.111	24.968	1387.154	1142.479
40.126	24.923	1386.659	1141.686
41.140	24.915	1385.989	1140.981
42.155	24.972	1385.295	1140.672
43.169	24.912	1386.146	1140.890
44.184	24.940	1385.340	1140.305
45.199	24.863	1384.926	1139.372
46.213	24.997	1383.863	1139.252
47.228	24.946	1383.386	1138.431
48.242	24.969	1382.067	1137.389
49.257	24.947	1380.763	1136.075
50.271	24.931	1379.041	1134.462
51.286	24.870	1377.762	1132.923
52.301	24.925	1376.384	1132.034
53.315	24.838	1375.636	1130.772
54.330	24.890	1375.070	1130.534
55.344	24.980	1373.100	1129.379
56.359	24.946	1372.246	1128.361
57.374	24.942	1371.873	1127.934
58.388	24.979	1370.973	1127.329
59.403	24.925	1370.968	1126.879
60.417	24.969	1370.027	1126.286
61.432	24.864	1369.364	1124.984
62.447	24.948	1368.610	1124.790
63.461	24.935	1367.593	1123.774
64.476	24.927	1366.239	1122.512
65.490	25.038	1364.825	1121.942
66.505	24.995	1363.610	1120.579
67.520	24.946	1362.755	1119.467
68.534	24.966	1361.497	1118.462
69.549	24.940	1360.240	1117.170
70.563	24.979	1359.631	1116.811
71.578	24.930	1358.805	1115.728
72.593	25.024	1357.319	1114.995
73.607	24.945	1357.080	1114.212
74.622	25.028	1356.007	1113.743
75.636	24.982	1355.658	1113.071
76.651	24.966	1354.803	1112.172
77.666	24.976	1354.116	1111.576
78.680	24.978	1353.948	1111.352
79.695	24.848	1353.365	1109.965
80.709	25.010	1351.690	1109.498
81.724	25.004	1351.071	1108.858
82.739	24.953	1350.223	1107.747
83.753	24.953	1349.140	1106.761
84.768	24.911	1348.496	1105.876
85.782	25.004	1347.183	1105.276
86.797	25.067	1345.418	1104.116
87.812	24.978	1344.750	1102.924
88.826	24.970	1343.894	1102.074
89.841	25.001	1342.389	1100.931
90.855	25.008	1341.729	1100.334
91.870	24.911	1340.791	1098.873
92.884	24.990	1340.026	1098.634
93.899	24.971	1339.865	1098.290
94.914	24.949	1339.020	1097.366
95.928	25.052	1337.846	1096.934
96.943	24.961	1337.246	1095.790
97.957	24.964	1336.141	1094.805
98.972	25.108	1335.059	1094.700
99.987	25.059	1334.794	1094.089
101.001	24.981	1333.492	1092.450
102.016	24.902	1333.076	1091.528
103.030	24.990	1331.674	1090.818
104.045	24.990	1330.956	1090.136
105.060	24.938	1330.232	1089.129
106.074	25.025	1328.879	1088.452
107.089	24.990	1327.937	1087.372
108.103	25.103	1326.420	1086.723
109.118	25.101	1325.605	1085.945
110.133	25.031	1324.988	1084.922
111.147	25.017	1323.497	1083.517
112.162	25.075	1322.186	1082.702
113.176	25.096	1321.318	1082.017
114.191	25.021	1320.490	1080.790
115.206	25.076	1319.479	1080.199
116.220	25.038	1318.367	1078.964
117.235	25.022	1317.440	1078.016
118.249	25.074	1316.447	1077.422
119.264	24.981	1316.075	1076.465
120.279	24.986	1315.384	1075.834
121.293	25.127	1314.031	1075.477
122.308	25.161	1313.089	1074.811
123.322	25.123	1312.255	1073.810
124.337	25.126	1310.641	1072.408
125.352	25.204	1310.138	1072.369
126.366	25.130	1309.790	1071.549
127.381	25.195	1308.524	1070.807
128.395	25.156	1307.554	1069.682
129.410	25.168	1306.637	1068.913
130.424	25.101	1306.336	1068.169
131.439	25.121	1305.179	1067.251
132.454	25.150	1304.272	1066.589
133.468	25.054	1304.026	1065.717
134.483	25.107	1303.266	1065.322
135.497	25.139	1302.521	1064.805
136.512	25.160	1301.540	1064.035
137.527	25.139	1300.213	1062.732
138.541	25.219	1298.534	1061.736
139.556	25.167	1297.298	1060.325
140.570	25.155	1296.783	1059.740
141.585	25.201	1295.496	1058.869
142.600	25.159	1294.480	1057.692
143.614	25.175	1293.520	1056.910
144.629	25.147	1292.696	1055.977
145.643	25.019	1292.040	1054.599
146.658	25.013	1290.769	1053.430
147.673	25.039	1289.665	1052.591
148.687	25.079	1288.672	1051.922
149.702	24.991	1287.591	1050.428
150.716	25.051	1286.228	1049.577
151.731	25.066	1285.198	1048.733
152.746	25.111	1284.439	1048.281
153.760	25.093	1283.246	1047.112
154.775	25.028	1282.392	1045.940
155.789	24.990	1281.167	1044.627
156.804	25.076	1280.192	1044.242
157.819	25.081	1279.559	1043.663
158.833	25.221	1278.351	1043.395
159.848	25.164	1277.489	1042.273
160.862	25.178	1277.202	1042.027
161.877	25.142	1276.395	1041.067
162.892	25.147	1275.608	1040.360
163.906	25.140	1274.913	1039.662
164.921	25.292	1273.585	1039.367
165.935	25.248	1273.033	1038.568
166.950	25.197	1272.580	1037.815
167.964	25.310	1271.891	1037.814
168.979	25.173	1271.483	1036.599
169.994	25.339	1270.730	1036.850
171.008	25.149	1270.353	1035.353
172.023	25.240	1269.203	1034.850
173.037	25.192	1268.865	1034.205
174.052	25.209	1268.471	1033.893
175.067	25.096	1267.661	1032.486
176.081	25.189	1266.341	1031.855
177.096	25.244	1265.590	1031.467
178.110	25.144	1264.825	1030.179
179.125	25.256	1263.732	1029.840
180.140	25.330	1262.506	1029.174
181.154	25.267	1261.358	1027.789
182.169	25.262	1259.869	1026.457
183.183	25.280	1259.331	1026.032
184.198	25.291	1258.154	1025.043
185.213	25.264	1257.639	1024.377
186.227	25.285	1256.717	1023.657
187.242	25.245	1255.575	1022.408
188.256	25.305	1254.749	1021.988
189.271	25.304	1254.040	1021.314
190.286	25.306	1253.499	1020.796
191.300	25.285	1252.595	1019.849
192.315	25.302	1252.044	1019.405
193.329	25.235	1252.016	1018.911
194.344	25.311	1251.185	1018.577
195.359	25.276	1251.069	1018.194
196.373	25.251	1250.427	1017.440
197.388	25.359	1249.688	1017.357
198.402	25.163	1249.918	1016.343
199.417	25.292	1249.362	1016.534
200.432	25.307	1248.724	1016.008
201.446	25.279	1247.875	1015.071
202.461	25.391	1246.889	1014.814
203.475	25.334	1246.174	1013.819
204.490	25.304	1245.108	1012.694
205.504	25.367	1244.034	1012.086
206.519	25.343	1243.438	1011.374
207.534	25.399	1242.281	1010.660
208.548	25.340	1241.465	1009.573
209.563	25.351	1241.128	1009.274
210.577	25.320	1240.042	1008.125
211.592	25.293	1239.275	1007.264
212.607	25.407	1238.199	1006.939
213.621	25.471	1237.529	1006.659
214.636	25.387	1236.719	1005.443
215.650	25.500	1236.043	1005.435
216.665	25.492	1235.108	1004.543
217.680	25.457	1234.073	1003.416
218.694	25.368	1233.112	1002.051
219.709	25.439	1232.613	1001.953
220.723	25.497	1231.625	1001.382
221.738	25.533	1230.877	1000.889
222.753	25.388	1230.090	999.351
223.767	25.440	1229.695	999.232
224.782	25.405	1229.877	999.098
225.796	25.457	1228.582	998.246
226.811	25.502	1228.008	997.942
227.826	25.487	1227.788	997.590
228.840	25.473	1226.996	996.781
229.855	25.391	1226.219	995.606
230.869	25.520	1225.222	995.422
231.884	25.515	1224.887	995.034
232.899	25.465	1223.871	993.844
233.913	25.393	1223.737	993.252
234.928	25.610	1222.888	993.674
235.942	25.609	1222.255	993.064
236.957	25.494	1221.991	992.128
237.972	25.522	1220.661	991.115
238.986	25.635	1220.007	991.118
240.001	25.666	1219.542	990.824
241.015	25.610	1218.968	989.959
242.030	25.613	1218.344	989.385
243.045	25.728	1217.085	988.905
244.059	25.572	1216.894	987.804
245.074	25.774	1215.753	987.899
246.088	25.660	1215.043	986.612
247.103	25.701	1214.211	986.073
248.117	25.731	1213.164	985.297
249.132	25.683	1212.888	984.724
250.147	25.708	1212.203	984.218
251.161	25.840	1211.397	984.199
252.176	25.754	1210.709	983.082
253.190	25.716	1210.462	982.590
254.205	25.700	1209.962	982.010
255.220	25.753	1208.944	981.384
256.234	25.843	1208.266	981.234
257.249	25.815	1207.621	980.475
258.263	25.767	1207.117	979.717
259.278	25.804	1206.250	979.125
260.293	25.743	1205.802	978.345
261.307	25.828	1205.354	978.356
262.322	25.762	1204.850	977.501
263.336	25.742	1204.359	976.911
264.351	25.835	1203.379	976.534
265.366	25.768	1202.537	975.397
266.380	25.756	1202.396	975.136
267.395	25.873	1201.534	974.983
268.409	25.757	1200.752	973.633
269.424	25.847	1200.562	973.877
270.439	25.787	1200.108	973.100
271.453	25.816	1199.204	972.439
272.468	25.866	1198.249	971.849
273.482	25.806	1197.978	971.217
274.497	25.851	1197.364	970.876
275.512	25.937	1196.577	970.616
276.526	25.950	1195.938	970.081
277.541	25.923	1195.273	969.311
278.555	25.874	1194.918	968.673
279.570	25.878	1194.552	968.314
280.585	26.007	1193.037	967.689
281.599	25.988	1192.162	966.797
282.614	25.985	1191.397	966.072
283.628	26.011	1190.524	965.422
284.643	26.028	1189.612	964.682
285.657	25.976	1189.033	963.855
286.672	26.016	1187.963	963.114
287.687	26.012	1187.058	962.272
288.701	26.002	1186.571	961.741
289.716	26.036	1185.554	961.012
290.730	26.013	1185.158	960.485
291.745	26.151	1184.315	960.451
292.760	26.123	1183.965	959.932
293.774	26.102	1183.419	959.294
294.789	26.095	1182.616	958.518
295.803	26.078	1182.077	957.907
296.818	26.168	1181.572	957.892
297.833	26.114	1181.135	957.166
298.847	26.157	1180.205	956.552
299.862	26.118	1179.414	955.624
300.876	26.089	1179.078	955.111
301.891	26.174	1178.240	954.797
302.906	26.175	1177.486	954.106
303.920	26.282	1177.064	954.245
304.935	26.206	1176.464	953.276
305.949	26.229	1175.890	952.846
306.964	26.300	1174.966	952.386
307.979	26.207	1174.659	951.565
308.993	26.237	1173.819	950.958
310.008	26.294	1173.083	950.579
311.022	26.234	1172.288	949.535
312.037	26.325	1171.209	949.055
313.052	26.250	1170.721	948.180
314.066	26.244	1170.103	947.563
315.081	26.320	1169.160	947.116
316.095	26.290	1168.585	946.407
317.110	26.281	1167.858	945.688
318.125	26.479	1167.085	946.013
319.139	26.324	1166.412	944.574
320.154	26.351	1166.055	944.342
321.168	26.304	1165.792	943.799
322.183	26.313	1165.152	943.250
323.197	26.499	1164.090	943.275
324.212	26.315	1164.085	942.229
325.227	26.414	1163.177	941.923
326.241	26.477	1162.732	941.810
327.256	26.407	1161.875	940.666
328.270	26.233	1161.068	939.027
329.285	26.318	1161.008	939.334
330.300	26.355	1159.462	938.193
331.314	26.449	1158.548	937.860
332.329	26.524	1157.722	937.496
333.343	26.477	1157.239	936.778
334.358	26.508	1156.161	935.983
335.373	26.541	1155.762	935.746
336.387	26.525	1155.220	935.143
337.402	26.520	1154.574	934.513
338.416	26.543	1153.668	933.812
339.431	26.566	1152.880	933.212
340.446	26.557	1152.947	933.136
341.460	26.526	1152.110	932.219
342.475	26.568	1151.077	931.519
343.489	26.524	1150.289	930.570
344.504	26.611	1149.154	930.013
345.519	26.669	1148.433	929.647
346.533	26.639	1147.587	928.729
347.548	26.694	1147.027	928.472
348.562	26.627	1146.170	927.355
349.577	26.613	1145.689	926.810
350.592	26.494	1144.738	925.354
351.606	26.612	1144.084	925.346
352.621	26.629	1143.459	924.845
353.635	26.686	1142.928	924.622
354.650	26.747	1142.413	924.439
355.665	26.819	1141.254	923.781
356.679	26.759	1140.873	923.087
357.694	26.867	1140.431	923.199
358.708	26.665	1139.764	921.549
359.723	26.709	1139.122	921.171
360.738	26.818	1138.274	920.959
361.752	26.789	1137.598	920.184
362.767	26.815	1137.208	919.920
363.781	26.883	1136.644	919.723
364.796	26.879	1136.015	919.112
365.810	26.872	1135.194	918.334
366.825	26.947	1134.695	918.225
367.840	26.924	1134.418	917.804
368.854	27.003	1133.726	917.563
369.869	26.773	1133.611	916.230
370.883	26.830	1132.549	915.575
371.898	26.922	1131.452	915.071
372.913	26.948	1131.032	914.782
373.927	27.018	1130.717	914.802
374.942	26.967	1130.435	914.234
375.956	27.035	1129.705	913.904
376.971	26.888	1129.247	912.714
377.986	27.036	1128.331	912.637
379.000	27.121	1127.928	912.656
380.015	27.080	1127.751	912.229
381.029	26.998	1126.811	910.973
382.044	27.024	1125.728	910.148
383.059	26.991	1125.497	909.716
384.073	27.134	1124.590	909.618
385.088	27.050	1123.703	908.398
386.102	27.089	1122.602	907.624
387.117	27.108	1121.858	907.037
388.132	27.034	1121.659	906.429
389.146	27.204	1120.374	906.153
390.161	27.046	1120.279	905.210
391.175	27.234	1119.315	905.287
392.190	27.127	1118.610	904.104
393.205	27.079	1118.186	903.444
394.219	27.234	1116.929	903.120
395.234	27.277	1116.297	902.742
396.248	27.299	1115.634	902.236
397.263	27.166	1114.763	900.789
398.278	27.270	1114.220	900.789
399.292	27.293	1113.499	900.236
400.307	27.210	1113.151	899.468
401.321	27.333	1112.169	899.201
402.336	27.190	1111.640	897.987
403.350	27.226	1110.998	897.569
404.365	27.272	1110.564	897.367
405.380	27.358	1109.649	896.970
406.394	27.403	1108.709	896.352
407.409	27.370	1108.342	895.816
408.423	27.357	1107.280	894.812
409.438	27.409	1106.554	894.401
410.453	27.365	1106.324	893.922
411.467	27.358	1105.528	893.161
412.482	27.400	1104.600	892.542
413.496	27.441	1103.975	892.158
414.511	27.359	1103.460	891.261
415.526	27.472	1103.242	891.557
416.540	27.549	1102.662	891.387
417.555	27.471	1102.518	890.814
418.569	27.450	1101.791	890.041
419.584	27.443	1101.414	889.625
420.599	27.540	1100.419	889.216
421.613	80.345	1286.187	1329.769
422.628	75.211	1313.300	1329.880
