DTS Sentinel unit serial number:	SN413079Multiplexer serial number:	ORYXHardware model number:	OX4-SRSoftware version number:	ORYX F/W v4.00 Oryx Data Collector v3.7.2.0data status	okinstallation	princeton_trtdifferential loss correction	single-endedforward channel	channel 2reverse channel	N/Adate	2019/09/12time	22:11:34forward acquisition time	60.00reverse acquisition time	0.00gamma	496.2192k internal	0.2330k external	0.2330temperature offset calibration	1.0176default loss term (dB/km)	0.3790temperature slope calibration	1.0000multiplexer offset coefficient	1.0000multiplexer slope coefficient	1.0000fibre end	0.00T internal ref (°C)	29.94T ext. ref 1 (°C)	3.75T ext. ref 2 (°C)	24.44length (m)	temperature (°C)	Stokes	anti-Stokes-747.200	-89.309	-0.202	0.060
-746.185	123.503	0.358	0.452
-745.171	186.916	0.220	-0.331
-744.156	-52.391	-0.237	-0.110
-743.142	-200.000	-0.053	0.270
-742.127	519.185	0.037	0.087
-741.112	-78.611	0.639	0.220
-740.098	-200.000	-0.035	0.277
-739.083	-55.476	0.173	-0.078
-738.069	800.000	-0.073	0.264
-737.054	258.633	0.046	-0.079
-736.039	-10.423	-0.378	-0.252
-735.025	-181.234	0.131	-0.003
-734.010	452.130	0.134	0.298
-732.996	-181.455	0.123	0.002
-731.981	79.660	-0.129	-0.140
-730.966	77.370	0.119	0.128
-729.952	800.000	0.074	0.303
-728.937	458.078	-0.106	-0.236
-727.923	-77.088	-0.349	-0.123
-726.908	-32.655	0.164	0.092
-725.894	-56.108	0.356	0.159
-724.879	-200.000	0.021	-0.130
-723.864	-200.000	-0.078	0.000
-722.850	-200.000	0.001	-0.194
-721.835	-200.000	-0.054	-0.245
-720.821	-162.957	-0.297	-0.014
-719.806	-49.877	-0.179	-0.086
-718.791	275.751	0.048	0.086
-717.777	-33.305	-0.163	-0.091
-716.762	39.823	-0.204	-0.184
-715.748	152.903	-0.085	-0.118
-714.733	161.822	-0.173	-0.244
-713.718	189.240	-0.076	0.115
-712.704	-200.000	-0.015	-0.436
-711.689	-100.797	-0.249	-0.062
-710.675	-200.000	0.014	-0.222
-709.660	20.358	0.358	-0.291
-708.645	44.368	0.093	0.086
-707.631	-200.000	0.076	-0.384
-706.616	-200.000	-0.006	0.200
-705.602	-56.558	0.009	0.004
-704.587	58.193	0.002	0.002
-703.572	62.983	-0.254	0.256
-702.558	-93.240	-0.180	0.050
-701.543	303.371	-0.146	-0.272
-700.529	-136.997	0.295	0.034
-699.514	640.708	0.110	0.282
-698.499	-77.383	-0.348	-0.122
-697.485	-168.885	0.242	0.009
-696.470	-200.000	-0.035	0.344
-695.456	181.516	0.028	0.041
-694.441	-104.842	-0.260	0.060
-693.426	384.466	-0.174	0.361
-692.412	-8.714	-0.066	-0.045
-691.397	47.176	0.104	-0.097
-690.383	-90.359	0.398	0.116
-689.368	-15.439	-0.114	0.073
-688.354	800.000	0.070	0.270
-687.339	-200.000	0.022	-0.104
-686.324	237.289	0.068	-0.114
-685.310	145.281	0.156	0.210
-684.295	-91.811	0.032	0.009
-683.281	-139.446	0.225	-0.024
-682.266	-200.000	0.010	-0.125
-681.251	188.529	-0.124	0.186
-680.237	22.504	0.234	-0.192
-679.222	113.336	-0.300	0.366
-678.208	-117.596	0.091	0.017
-677.193	-108.055	-0.185	-0.040
-676.178	0.706	-0.284	0.204
-675.164	800.000	0.123	-0.353
-674.149	-121.997	0.371	-0.061
-673.135	-48.818	-0.172	0.083
-672.120	-200.000	0.002	-0.196
-671.105	-200.000	0.006	0.174
-670.091	-17.708	0.049	0.031
-669.076	-77.158	-0.334	0.117
-668.062	-42.520	-0.236	-0.121
-667.047	-194.584	-0.662	-0.005
-666.032	473.536	-0.053	0.121
-665.018	48.933	0.083	-0.078
-664.003	800.000	0.040	-0.149
-662.989	-200.000	0.005	-0.218
-661.974	-67.508	-0.429	-0.169
-660.959	-136.976	0.068	-0.008
-659.945	6.104	0.164	-0.122
-658.930	-200.000	0.013	-0.174
-657.916	97.084	0.141	-0.163
-656.901	-132.225	-0.255	-0.033
-655.886	-149.068	-0.378	-0.030
-654.872	-200.000	-0.002	0.012
-653.857	379.073	-0.091	0.188
-652.843	167.655	-0.162	-0.231
-651.828	-48.681	-0.107	-0.052
-650.814	-90.379	-0.207	-0.060
-649.799	-59.670	0.277	-0.119
-648.784	-200.000	0.012	0.342
-647.770	-105.496	-0.134	0.030
-646.755	276.777	-0.113	-0.201
-645.741	-134.276	-0.243	0.030
-644.726	-97.905	0.204	0.053
-643.711	207.718	-0.092	-0.145
-642.697	-126.433	-0.412	-0.061
-641.682	-112.232	0.064	-0.013
-640.668	34.411	-0.143	-0.125
-639.653	282.833	-0.154	-0.276
-638.638	67.228	0.123	-0.126
-637.624	1.792	-0.181	-0.131
-636.609	-159.267	-0.228	0.013
-635.595	91.356	0.031	-0.035
-634.580	67.019	-0.105	-0.107
-633.565	91.769	0.073	-0.083
-632.551	-159.144	0.282	0.016
-631.536	-30.478	0.034	-0.020
-630.522	332.694	0.067	-0.130
-629.507	-22.327	-0.383	-0.233
-628.492	-131.623	-0.364	-0.048
-627.478	-153.045	-0.182	0.013
-626.463	-146.715	0.300	-0.026
-625.449	419.212	-0.017	-0.037
-624.434	-119.524	-0.140	-0.024
-623.419	-161.422	-0.101	0.005
-622.405	-200.000	-0.017	0.109
-621.390	767.083	0.055	-0.150
-620.376	7.603	-0.164	-0.123
-619.361	-183.958	0.103	-0.002
-618.346	260.701	0.083	-0.143
-617.332	82.565	-0.069	-0.076
-616.317	-200.000	-0.003	0.158
-615.303	125.532	-0.242	-0.306
-614.288	272.860	0.065	-0.115
-613.273	-200.000	0.041	-0.201
-612.259	58.374	-0.219	-0.216
-611.244	-200.000	-0.003	-0.122
-610.230	257.923	-0.098	0.169
-609.215	37.470	-0.251	0.223
-608.201	-200.000	-0.036	-0.212
-607.186	31.064	-0.151	-0.130
-606.171	244.522	-0.030	0.051
-605.157	-121.382	0.209	0.035
-604.142	107.780	0.168	-0.201
-603.128	98.620	0.045	-0.052
-602.113	800.000	-0.029	0.111
-601.098	154.170	0.011	0.015
-600.084	170.271	-0.172	-0.247
-599.069	89.312	-0.013	-0.015
-598.055	31.101	-0.210	0.180
-597.040	-54.757	-0.187	0.085
-596.025	800.000	-0.032	-0.134
-595.011	-107.351	-0.058	-0.013
-593.996	-177.428	0.226	0.006
-592.982	57.702	0.203	-0.199
-591.967	31.250	-0.048	-0.041
-590.952	-113.451	-0.194	-0.038
-589.938	119.967	0.215	-0.267
-588.923	-173.498	-0.085	0.003
-587.909	-114.879	-0.213	0.041
-586.894	-62.110	0.293	0.123
-585.879	9.632	-0.254	-0.193
-584.865	-45.887	0.248	-0.123
-583.850	-180.598	-0.278	-0.006
-582.836	360.193	-0.098	-0.197
-581.821	190.523	-0.192	-0.288
-580.806	-165.865	-0.057	-0.002
-579.792	-64.664	0.173	-0.070
-578.777	3.972	-0.369	-0.270
-577.763	800.000	-0.033	0.131
-576.748	15.061	0.037	0.029
-575.733	800.000	-0.038	-0.125
-574.719	-200.000	-0.033	0.317
-573.704	-200.000	-0.026	-0.243
-572.690	-200.000	0.039	-0.209
-571.675	-47.769	0.198	0.096
-570.661	-200.000	0.014	-0.158
-569.646	-144.471	0.230	-0.021
-568.631	161.598	-0.163	0.229
-567.617	-41.648	0.326	-0.167
-566.602	-200.000	0.042	0.473
-565.588	800.000	0.071	0.206
-564.573	-45.508	0.126	0.062
-563.558	79.874	-0.094	-0.101
-562.544	2.736	-0.233	-0.169
-561.529	-104.663	-0.316	-0.073
-560.515	230.430	0.148	-0.242
-559.500	-90.542	-0.342	-0.099
-558.485	662.490	-0.085	-0.218
-557.471	166.550	-0.111	0.157
-556.456	-200.000	-0.009	-0.061
-555.442	44.475	-0.268	-0.246
-554.427	46.898	-0.156	-0.145
-553.412	40.326	-0.154	-0.139
-552.398	-144.986	0.163	0.015
-551.383	29.041	0.236	-0.200
-550.369	-46.443	-0.093	0.045
-549.354	-200.000	0.237	0.000
-548.339	-93.139	0.425	0.118
-547.325	-200.000	-0.024	0.228
-546.310	-107.603	-0.342	0.075
-545.296	-149.578	-0.240	-0.019
-544.281	20.768	0.108	0.088
-543.266	-45.551	-0.215	-0.106
-542.252	-149.629	-0.311	0.025
-541.237	102.207	0.098	0.114
-540.223	-200.000	-0.004	0.092
-539.208	194.134	0.083	-0.125
-538.193	-200.000	-0.037	-0.213
-537.179	29.939	0.133	-0.113
-536.164	-73.361	-0.330	-0.121
-535.150	481.643	-0.208	0.472
-534.135	36.527	0.263	0.232
-533.121	-134.403	-0.152	-0.019
-532.106	-80.536	-0.313	0.104
-531.091	-200.000	0.017	-0.220
-530.077	-44.755	-0.240	0.120
-529.062	36.887	-0.129	0.114
-528.048	800.000	0.058	0.224
-527.033	800.000	-0.138	-0.417
-526.018	800.000	-0.038	0.118
-525.004	-200.000	0.022	0.228
-523.989	-108.381	0.121	0.026
-522.975	-39.144	-0.329	-0.173
-521.960	-200.000	-0.004	0.037
-520.945	43.771	0.214	0.195
-519.931	-189.235	-0.293	0.003
-518.916	-130.065	-0.212	0.029
-517.902	-200.000	-0.037	0.319
-516.887	207.109	0.141	-0.220
-515.872	175.790	-0.065	-0.095
-514.858	29.174	-0.139	-0.118
-513.843	144.790	-0.048	0.064
-512.829	800.000	-0.066	-0.226
-511.814	92.247	0.338	0.380
-510.799	19.837	0.070	-0.056
-509.785	-25.248	0.111	0.066
-508.770	-200.000	-0.055	-0.262
-507.756	-0.806	0.053	0.037
-506.741	-68.640	0.221	-0.085
-505.726	724.829	0.048	-0.127
-504.712	-200.000	-0.044	-0.211
-503.697	36.469	0.134	0.118
-502.683	511.493	0.089	0.208
-501.668	-31.551	-0.172	-0.096
-500.653	-200.000	-0.041	-0.182
-499.639	-123.125	0.252	0.040
-498.624	81.522	-0.070	-0.076
-497.610	-156.446	0.104	-0.006
-496.595	-42.180	0.109	-0.055
-495.581	36.740	-0.318	-0.280
-494.566	-117.011	0.354	0.064
-493.551	-134.334	0.423	-0.052
-492.537	173.578	0.186	0.268
-491.522	343.079	-0.045	0.088
-490.508	800.000	-0.052	0.186
-489.493	324.724	0.209	0.397
-488.478	-81.878	0.022	-0.007
-487.464	-51.698	-0.096	0.045
-486.449	-27.670	0.091	0.053
-485.435	58.422	-0.119	-0.117
-484.420	303.901	-0.102	-0.188
-483.405	-96.275	0.168	0.044
-482.391	316.837	0.042	0.079
-481.376	30.761	-0.065	0.055
-480.362	285.214	-0.036	0.065
-479.347	-72.379	0.169	0.062
-478.332	-61.694	-0.068	0.028
-477.318	48.850	-0.085	0.079
-476.303	26.113	-0.054	-0.045
-475.289	-169.719	0.184	-0.007
-474.274	-167.158	0.262	0.011
-473.259	-130.015	-0.351	0.048
-472.245	-200.000	-0.021	0.092
-471.230	596.678	0.067	0.165
-470.216	3.767	-0.252	0.184
-469.201	-200.000	0.015	-0.232
-468.186	-33.544	0.043	0.024
-467.172	800.000	-0.149	0.486
-466.157	220.670	-0.108	0.172
-465.143	-200.000	-0.021	-0.106
-464.128	55.621	0.102	-0.098
-463.113	243.330	-0.202	-0.338
-462.099	-200.000	0.008	0.286
-461.084	-124.456	-0.382	0.059
-460.070	-39.827	0.313	-0.163
-459.055	600.098	0.051	0.125
-458.040	558.531	-0.043	0.103
-457.026	3.745	0.102	0.074
-456.011	-200.000	0.011	-0.326
-454.997	-200.000	0.003	-0.284
-453.982	-132.305	-0.213	0.027
-452.968	650.660	0.103	0.264
-451.953	800.000	0.093	0.262
-450.938	-200.000	0.122	0.000
-449.924	332.977	-0.165	0.318
-448.909	71.460	0.008	0.008
-447.895	269.843	-0.067	0.117
-446.880	568.205	-0.058	-0.141
-445.865	31.098	-0.348	-0.297
-444.851	26.168	-0.197	-0.164
-443.836	-126.369	-0.150	0.022
-442.822	-7.356	-0.354	0.239
-441.807	-40.107	0.185	0.096
-440.792	-45.425	0.121	0.060
-439.778	-69.981	-0.182	-0.069
-438.763	134.734	-0.083	0.108
-437.749	-103.380	0.195	-0.046
-436.734	137.591	-0.119	-0.155
-435.719	-129.082	-0.132	0.018
-434.705	-94.999	-0.145	0.039
-433.690	-200.000	0.011	-0.089
-432.676	192.000	0.229	-0.344
-431.661	28.422	-0.100	0.084
-430.646	-200.000	-0.028	0.213
-429.632	-65.745	-0.341	0.136
-428.617	-120.564	0.281	-0.047
-427.603	528.831	-0.015	-0.036
-426.588	-91.553	0.215	-0.061
-425.573	-80.906	0.100	0.033
-424.559	-164.039	0.163	-0.008
-423.544	-70.741	0.329	-0.123
-422.530	257.314	0.141	0.242
-421.515	-136.924	-0.307	-0.035
-420.500	-71.956	-0.119	-0.044
-419.486	800.000	0.039	-0.108
-418.471	28.037	-0.222	-0.186
-417.457	800.000	-0.056	0.165
-416.442	16.532	0.208	0.163
-415.428	-67.887	0.137	0.053
-414.413	800.000	-0.044	0.135
-413.398	-108.102	-0.110	0.024
-412.384	-200.000	0.063	-0.303
-411.369	30.997	0.290	0.247
-410.355	190.712	0.232	-0.347
-409.340	-200.000	0.002	-0.302
-408.325	80.078	-0.167	-0.178
-407.311	800.000	0.080	0.309
-406.296	-131.748	-0.013	-0.002
-405.282	347.199	0.109	-0.213
-404.267	-113.079	0.106	0.021
-403.252	237.913	0.127	0.209
-402.238	18.505	0.172	0.136
-401.223	-187.425	0.161	0.002
-400.209	27.674	-0.243	0.203
-399.194	62.484	0.082	0.081
-398.179	-129.035	0.279	0.039
-397.165	18.650	-0.044	0.035
-396.150	800.000	-0.064	-0.199
-395.136	41.602	-0.190	-0.171
-394.121	639.300	-0.062	-0.158
-393.106	-5.243	0.400	-0.273
-392.092	127.534	-0.298	-0.375
-391.077	800.000	-0.094	-0.282
-390.063	800.000	-0.005	-0.013
-389.048	88.900	0.176	-0.195
-388.033	22.503	-0.130	-0.106
-387.019	-35.271	0.135	0.073
-386.004	88.841	-0.135	0.149
-384.990	-87.908	-0.144	0.043
-383.975	-10.486	0.222	0.146
-382.960	-200.000	-0.030	0.215
-381.946	-200.000	0.039	0.352
-380.931	-122.204	0.169	0.028
-379.917	-126.051	-0.034	-0.005
-378.902	-200.000	0.073	-0.335
-377.888	490.407	0.152	-0.345
-376.873	-86.200	-0.052	0.016
-375.858	50.462	0.169	0.159
-374.844	164.509	-0.201	-0.281
-373.829	200.536	0.032	0.049
-372.815	111.047	-0.129	-0.155
-371.800	231.548	-0.150	-0.244
-370.785	-82.503	0.359	-0.116
-369.771	800.000	0.087	-0.261
-368.756	202.042	-0.125	-0.192
-367.742	-23.662	0.263	0.156
-366.727	-200.000	0.010	0.056
-365.712	226.367	0.050	-0.080
-364.698	-78.084	-0.321	0.110
-363.683	800.000	0.041	0.113
-362.669	-161.451	-0.074	0.004
-361.654	82.773	0.197	0.212
-360.639	-200.000	-0.028	-0.140
-359.625	-200.000	0.011	0.111
-358.610	-108.698	-0.329	0.070
-357.596	-69.162	-0.286	-0.109
-356.581	-117.989	-0.237	0.042
-355.566	482.080	0.031	-0.071
-354.552	-138.922	-0.349	-0.038
-353.537	-85.627	-0.068	-0.021
-352.523	6.521	0.184	0.136
-351.508	133.133	0.204	-0.262
-350.493	-35.939	0.250	-0.134
-349.479	114.337	-0.130	0.156
-348.464	-97.098	0.503	0.130
-347.450	60.554	0.142	0.139
-346.435	-200.000	-0.168	0.001
-345.420	-200.000	0.205	-0.000
-344.406	-5.532	-0.102	0.070
-343.391	800.000	-0.060	0.246
-342.377	17.353	-0.038	-0.030
-341.362	-74.721	0.176	0.063
-340.348	800.000	-0.048	0.138
-339.333	216.676	-0.035	0.056
-338.318	45.860	-0.190	-0.174
-337.304	-51.691	0.399	0.185
-336.289	-27.268	0.246	0.142
-335.275	34.253	0.119	-0.103
-334.260	257.602	-0.043	0.073
-333.245	-200.000	0.033	0.165
-332.231	58.560	-0.210	-0.205
-331.216	51.826	-0.192	-0.181
-330.202	257.745	0.248	0.422
-329.187	237.409	0.098	0.161
-328.172	97.683	0.072	0.083
-327.158	262.741	-0.132	0.227
-326.143	315.035	0.049	-0.091
-325.129	-200.000	0.044	-0.263
-324.114	5.410	0.060	-0.044
-323.099	77.145	0.233	0.245
-322.085	-113.227	0.172	0.033
-321.070	-200.000	0.045	0.240
-320.056	-200.000	-0.080	0.413
-319.041	-200.000	-0.030	0.276
-318.026	-139.856	-0.105	0.011
-317.012	-120.536	-0.084	-0.014
-315.997	-200.000	0.005	-0.131
-314.983	-52.581	-0.127	0.058
-313.968	800.000	0.059	-0.217
-312.953	-200.000	0.010	0.100
-311.939	-200.000	0.041	-0.207
-310.924	-80.685	0.142	-0.047
-309.910	372.170	0.002	-0.004
-308.895	-115.879	-0.132	-0.024
-307.880	-46.549	0.208	0.101
-306.866	800.000	0.028	0.114
-305.851	-159.898	-0.466	0.025
-304.837	400.480	-0.048	0.099
-303.822	-128.271	0.472	-0.067
-302.807	-133.820	-0.196	0.024
-301.793	-18.238	0.029	-0.018
-300.778	17.345	-0.135	-0.106
-299.764	-85.134	-0.140	0.043
-298.749	153.071	0.085	-0.115
-297.735	800.000	0.017	-0.054
-296.720	-96.502	0.105	-0.028
-295.705	332.500	0.109	0.209
-294.691	-94.035	0.224	-0.061
-293.676	-184.277	0.414	-0.007
-292.662	-33.779	-0.429	0.234
-291.647	800.000	-0.079	-0.277
-290.632	127.254	0.204	-0.256
-289.618	-70.054	0.167	0.063
-288.603	-200.000	-0.025	-0.166
-287.589	-200.000	0.004	0.407
-286.574	-135.248	-0.210	0.025
-285.559	5.881	-0.402	0.294
-284.545	-107.662	0.239	-0.052
-283.530	15.841	0.377	-0.294
-282.516	58.642	0.125	0.121
-281.501	-200.000	0.023	0.310
-280.486	-200.000	0.010	-0.116
-279.472	11.689	-0.113	0.086
-278.457	225.623	-0.105	-0.169
-277.443	800.000	0.039	0.108
-276.428	-31.177	0.227	-0.127
-275.413	-200.000	0.041	-0.304
-274.399	800.000	0.063	-0.265
-273.384	-200.000	0.000	0.169
-272.370	800.000	-0.143	0.530
-271.355	-145.977	0.277	-0.024
-270.340	495.568	-0.093	-0.211
-269.326	800.000	-0.067	0.251
-268.311	-178.918	0.168	0.004
-267.297	-101.515	0.462	0.111
-266.282	-9.360	-0.407	0.269
-265.267	436.212	0.046	-0.099
-264.253	246.844	0.201	0.335
-263.238	321.042	-0.083	0.156
-262.224	800.000	0.065	-0.266
-261.209	-25.939	0.289	-0.168
-260.195	800.000	-0.055	0.203
-259.180	-146.441	0.233	-0.020
-258.165	-142.179	0.194	0.019
-257.151	98.805	-0.248	0.282
-256.136	0.413	0.309	0.218
-255.122	800.000	0.057	0.241
-254.107	-200.000	0.072	0.381
-253.092	-102.583	-0.164	-0.039
-252.078	-90.522	0.333	-0.095
-251.063	-40.853	0.135	-0.069
-250.049	39.370	-0.200	0.177
-249.034	139.797	-0.057	0.074
-248.019	222.099	0.192	-0.305
-247.005	-200.000	0.095	-0.495
-245.990	15.765	-0.124	-0.096
-244.976	-200.000	-0.006	-0.155
-243.961	44.118	-0.027	0.024
-242.946	-18.300	0.390	0.240
-241.932	-101.439	0.311	-0.075
-240.917	-33.611	0.173	-0.095
-239.903	-125.008	0.349	-0.053
-238.888	344.797	0.148	0.286
-237.873	-166.417	-0.246	-0.010
-236.859	-200.000	0.322	0.001
-235.844	798.073	-0.057	0.156
-234.830	-200.000	-0.013	-0.178
-233.815	-136.157	0.043	0.005
-232.800	-47.943	-0.302	-0.144
-231.786	-42.981	-0.318	0.159
-230.771	-200.000	0.029	-0.238
-229.757	388.580	-0.123	0.252
-228.742	168.331	-0.052	0.074
-227.727	-74.992	-0.341	0.120
-226.713	41.650	-0.391	0.349
-225.698	32.522	-0.369	0.314
-224.684	-200.000	-0.007	0.089
-223.669	284.163	0.046	-0.081
-222.655	-200.000	0.033	0.297
-221.640	-200.000	0.005	-0.251
-220.625	-81.231	-0.135	-0.044
-219.611	-61.265	0.305	-0.127
-218.596	94.717	-0.135	0.152
-217.582	-3.755	0.161	-0.110
-216.567	800.000	-0.073	0.231
-215.552	356.818	0.059	-0.116
-214.538	-200.000	-0.039	-0.170
-213.523	-158.144	-0.412	0.024
-212.509	-45.029	0.296	0.145
-211.494	50.665	0.205	-0.191
-210.479	800.000	-0.017	-0.058
-209.465	-43.223	0.213	-0.107
-208.450	218.062	0.123	0.194
-207.436	-149.461	-0.447	-0.035
-206.421	-64.538	-0.317	-0.127
-205.406	-24.866	0.041	0.024
-204.392	-117.384	-0.258	-0.046
-203.377	62.154	0.270	0.266
-202.363	-200.000	-0.016	0.068
-201.348	-37.848	0.189	-0.099
-200.333	-124.261	0.120	-0.018
-199.319	-34.334	-0.219	0.118
-198.304	111.038	0.083	0.099
-197.290	-200.000	0.008	-0.158
-196.275	11.381	0.150	-0.113
-195.260	-151.353	0.197	-0.014
-194.246	-24.661	-0.229	0.134
-193.231	2.180	0.064	0.046
-192.217	-116.137	0.094	0.017
-191.202	-56.789	0.147	0.064
-190.187	-171.082	0.131	0.004
-189.173	-200.000	-0.032	-0.223
-188.158	-54.895	0.186	0.083
-187.144	-43.164	-0.086	-0.043
-186.129	344.084	0.085	0.164
-185.114	-200.000	-0.004	-0.065
-184.100	-34.460	0.189	0.102
-183.085	84.856	-0.230	0.248
-182.071	-116.314	-0.259	-0.047
-181.056	-10.504	0.133	-0.087
-180.042	39.144	0.152	-0.134
-179.027	43.820	-0.079	0.071
-178.012	-29.648	0.297	0.167
-176.998	-130.761	0.102	0.014
-175.983	-178.122	0.035	-0.001
-174.969	-82.668	0.159	-0.051
-173.954	-156.838	0.207	-0.013
-172.939	-22.631	-0.309	0.184
-171.925	-200.000	-0.007	-0.213
-170.910	-111.310	-0.039	0.008
-169.896	-138.367	-0.279	0.030
-168.881	800.000	0.121	-0.361
-167.866	82.982	0.146	0.157
-166.852	142.156	0.159	0.208
-165.837	-200.000	0.033	0.249
-164.823	800.000	0.114	-0.324
-163.808	-126.465	-0.500	0.073
-162.793	9.178	-0.111	-0.083
-161.779	-73.219	-0.104	-0.038
-160.764	-33.059	0.103	-0.056
-159.750	800.000	0.057	0.225
-158.735	1.912	0.289	-0.205
-157.720	535.318	0.116	0.271
-156.706	800.000	-0.077	0.276
-155.691	-200.000	-0.022	0.128
-154.677	66.970	0.067	-0.067
-153.662	730.563	-0.025	-0.067
-152.647	19.210	-0.211	-0.167
-151.633	-56.003	0.112	0.049
-150.618	800.000	0.063	-0.189
-149.604	800.000	-0.130	-0.388
-148.589	-108.757	0.213	-0.045
-147.574	-144.972	-0.176	-0.016
-146.560	800.000	0.059	0.244
-145.545	31.710	-0.090	0.076
-144.531	27.552	0.111	-0.092
-143.516	-132.667	0.207	0.026
-142.502	-76.844	-0.188	0.065
-141.487	22.383	-0.063	-0.051
-140.472	-168.658	-0.176	0.007
-139.458	516.501	-0.083	-0.192
-138.443	-200.000	-0.015	-0.309
-137.429	11.348	-0.122	-0.092
-136.414	24.007	0.232	-0.188
-135.399	17.663	0.114	-0.089
-134.385	630.682	0.014	0.035
-133.370	-200.000	-0.006	0.087
-132.356	-61.336	0.194	0.080
-131.341	238.252	-0.157	0.257
-130.326	-200.000	0.038	-0.276
-129.312	34.730	0.168	0.144
-128.297	432.087	-0.022	-0.048
-127.283	-86.774	0.024	0.007
-126.268	-52.826	0.264	0.120
-125.253	40.743	-0.177	0.157
-124.239	800.000	0.058	-0.169
-123.224	-55.485	0.566	0.249
-122.210	27.068	-0.019	0.016
-121.195	292.475	0.121	-0.217
-120.180	-200.000	0.010	0.300
-119.166	367.217	-0.065	-0.129
-118.151	-123.963	0.275	0.043
-117.137	-200.000	0.038	-0.261
-116.122	90.385	-0.124	0.136
-115.107	29.540	0.072	0.060
-114.093	313.574	-0.022	0.040
-113.078	-109.664	-0.328	0.068
-112.064	-106.748	0.327	-0.071
-111.049	24.736	0.073	0.060
-110.034	-116.720	-0.311	0.056
-109.020	81.173	0.256	-0.271
-108.005	-200.000	-0.020	0.097
-106.991	-200.000	0.008	-0.038
-105.976	8.114	-0.130	0.096
-104.962	-103.022	-0.467	-0.109
-103.947	192.908	-0.054	-0.081
-102.932	800.000	-0.064	-0.260
-101.918	800.000	-0.030	-0.085
-100.903	-6.912	0.198	-0.132
-99.889	-200.000	-0.063	0.280
-98.874	-147.464	0.128	-0.011
-97.859	-34.106	-0.157	-0.085
-96.845	-200.000	0.033	-0.193
-95.830	93.162	-0.142	0.157
-94.816	93.647	-0.317	-0.352
-93.801	-118.507	0.168	0.029
-92.786	-15.057	-0.092	0.058
-91.772	102.098	0.056	0.064
-90.757	19.268	0.157	-0.124
-89.743	105.676	-0.128	-0.148
-88.728	-137.102	-0.140	0.016
-87.713	207.125	0.146	-0.223
-86.699	-159.800	0.229	0.012
-85.684	276.047	0.058	-0.102
-84.670	171.009	0.099	-0.140
-83.655	-200.000	-0.034	-0.283
-82.640	-200.000	0.001	0.447
-81.626	-94.595	0.079	-0.021
-80.611	-69.503	-0.272	0.102
-79.597	-44.024	0.098	-0.048
-78.582	-200.000	-0.046	0.290
-77.567	-98.464	0.031	0.008
-76.553	-50.594	0.116	0.053
-75.538	-34.173	0.366	0.197
-74.524	90.076	0.172	-0.189
-73.509	-200.000	-0.023	0.173
-72.494	-150.568	-0.292	-0.022
-71.480	-200.000	0.021	-0.153
-70.465	-94.870	0.371	0.099
-69.451	-200.000	0.037	-0.240
-68.436	4.756	0.158	0.114
-67.422	-31.211	-0.068	-0.037
-66.407	152.205	0.176	-0.236
-65.392	79.343	0.048	0.051
-64.378	800.000	0.043	0.170
-63.363	362.944	-0.012	0.023
-62.349	120.019	0.095	0.116
-61.334	20.095	-1.008	-0.797
-60.319	16.514	0.791	0.612
-59.305	-200.000	-0.152	-1.119
-58.290	79.565	0.876	0.921
-57.276	365.891	0.825	1.630
-56.261	-200.000	106.372	586.707
-55.246	523.205	1467.301	3379.368
-54.232	182.514	2658.794	3842.820
-53.217	105.863	2275.206	2638.284
-52.203	38.952	1890.908	1655.975
-51.188	33.209	1680.581	1428.500
-50.173	30.517	1637.331	1371.846
-49.159	48.727	1690.091	1553.140
-48.144	49.286	1705.682	1571.598
-47.130	32.724	1663.125	1409.811
-46.115	30.015	1648.855	1377.544
-45.100	29.840	1644.254	1372.353
-44.086	29.772	1641.797	1369.742
-43.071	29.777	1638.853	1367.270
-42.057	29.698	1636.475	1364.644
-41.042	29.745	1634.715	1363.470
-40.027	29.836	1632.333	1362.099
-39.013	29.834	1630.734	1360.701
-37.998	29.695	1629.368	1358.484
-36.984	29.838	1628.047	1358.380
-35.969	29.964	1626.296	1357.788
-34.954	29.958	1624.955	1356.573
-33.940	29.947	1622.748	1354.594
-32.925	29.902	1621.637	1353.279
-31.911	29.930	1619.710	1351.822
-30.896	29.916	1617.799	1350.076
-29.881	29.928	1616.150	1348.729
-28.867	29.990	1614.123	1347.442
-27.852	29.907	1613.217	1346.025
-26.838	29.969	1611.830	1345.267
-25.823	29.953	1610.227	1343.759
-24.809	29.986	1609.152	1343.049
-23.794	29.934	1607.866	1341.541
-22.779	29.859	1606.546	1339.845
-21.765	29.935	1604.794	1338.881
-20.750	29.955	1603.120	1337.577
-19.736	29.939	1601.937	1336.418
-18.721	29.964	1599.932	1334.877
-17.706	29.957	1598.735	1333.771
-16.692	29.986	1597.192	1332.642
-15.677	29.901	1596.064	1331.035
-14.663	30.033	1594.345	1330.500
-13.648	29.969	1593.497	1329.274
-12.633	30.101	1590.880	1327.989
-11.619	29.971	1590.210	1326.442
-10.604	29.898	1588.953	1324.820
-9.590	30.021	1587.440	1324.384
-8.575	30.014	1586.372	1323.393
-7.560	29.960	1585.284	1322.047
-6.546	30.047	1583.827	1321.402
-5.531	29.946	1583.106	1320.023
-4.517	29.916	1582.102	1318.921
-3.502	29.850	1580.744	1317.264
-2.487	30.099	1578.667	1317.253
-1.473	29.623	1566.999	1304.109
-0.458	26.720	1547.774	1267.778
0.556	24.771	1548.393	1234.784
1.571	22.348	1571.946	1236.452
2.586	21.674	1585.388	1242.141
3.600	19.493	1531.814	1185.096
4.615	11.875	1424.594	1053.219
5.629	5.053	1362.605	965.200
6.644	3.763	1354.781	951.635
7.659	3.644	1353.627	950.010
8.673	3.800	1352.522	950.110
9.688	3.792	1351.002	948.906
10.702	3.739	1347.703	946.180
11.717	6.788	1353.619	968.981
12.731	15.279	1368.396	1031.942
13.746	22.370	1380.397	1084.770
14.761	24.123	1382.730	1097.315
15.775	23.700	1381.251	1093.441
16.790	22.997	1379.350	1087.519
17.804	22.412	1377.744	1082.559
18.819	22.208	1376.733	1080.413
19.834	22.303	1375.399	1079.855
20.848	22.243	1374.859	1078.966
21.863	22.131	1374.037	1077.539
22.877	22.113	1373.124	1076.616
23.892	22.022	1372.171	1075.220
24.907	21.957	1371.076	1073.866
25.921	22.023	1369.674	1073.078
26.936	21.986	1369.220	1072.398
27.950	22.036	1368.485	1072.038
28.965	22.235	1366.912	1071.925
29.980	22.247	1366.354	1071.462
30.994	22.373	1365.350	1071.345
32.009	22.382	1364.910	1070.965
33.023	22.351	1363.356	1069.458
34.038	22.310	1361.998	1068.052
35.053	22.163	1360.565	1065.940
36.067	22.056	1360.088	1064.824
37.082	21.968	1359.281	1063.568
38.096	22.174	1357.953	1063.680
39.111	22.196	1357.311	1063.217
40.126	22.142	1356.481	1062.143
41.140	21.864	1355.594	1059.679
42.155	21.616	1354.612	1057.320
43.169	21.604	1354.427	1057.008
44.184	21.472	1354.770	1056.386
45.199	21.762	1354.032	1057.465
46.213	21.930	1353.862	1058.252
47.228	22.110	1352.940	1058.523
48.242	22.074	1351.978	1057.460
49.257	22.093	1350.818	1056.573
50.271	22.031	1349.159	1054.811
51.286	22.074	1348.112	1054.157
52.301	22.050	1346.548	1052.693
53.315	21.829	1345.437	1050.412
54.330	21.845	1344.634	1049.785
55.344	21.780	1342.885	1047.941
56.359	21.660	1342.058	1046.484
57.374	21.604	1341.329	1045.490
58.388	21.621	1340.798	1045.081
59.403	21.441	1339.715	1043.074
60.417	21.418	1339.266	1042.495
61.432	21.410	1337.984	1041.355
62.447	21.350	1337.776	1040.746
63.461	21.160	1336.570	1038.587
64.476	21.160	1335.714	1037.830
65.490	21.290	1333.902	1037.100
66.505	21.208	1332.427	1035.373
67.520	21.251	1331.295	1034.660
68.534	21.303	1329.880	1033.775
69.549	21.194	1329.321	1032.607
70.563	21.155	1327.752	1031.061
71.578	21.043	1327.129	1029.831
72.593	21.037	1325.483	1028.425
73.607	21.029	1325.202	1028.067
74.622	21.153	1324.516	1028.173
75.636	21.121	1324.234	1027.676
76.651	21.094	1324.079	1027.308
77.666	21.072	1323.805	1026.876
78.680	21.149	1323.026	1026.634
79.695	21.262	1321.946	1026.368
80.709	21.451	1322.108	1027.513
81.724	21.527	1321.236	1027.190
82.739	21.665	1320.239	1027.130
83.753	21.869	1320.158	1028.172
84.768	22.153	1318.911	1028.773
85.782	22.277	1318.292	1028.927
86.797	22.272	1317.339	1028.060
87.812	22.103	1315.652	1025.672
88.826	22.107	1314.625	1024.798
89.841	22.274	1313.639	1024.914
90.855	22.270	1312.902	1024.227
91.870	22.290	1312.142	1023.658
92.884	22.402	1311.364	1023.609
93.899	22.391	1310.959	1023.140
94.914	22.482	1309.518	1022.452
95.928	22.428	1308.790	1021.484
96.943	22.379	1307.958	1020.459
97.957	22.346	1307.312	1019.676
98.972	22.333	1306.015	1018.499
99.987	22.311	1304.938	1017.441
101.001	22.333	1304.108	1016.828
102.016	22.210	1303.186	1015.309
103.030	22.230	1302.455	1014.766
104.045	22.207	1301.206	1013.568
105.060	22.075	1300.104	1011.863
106.074	21.710	1298.609	1008.509
107.089	21.476	1296.556	1005.482
108.103	21.224	1295.557	1003.170
109.118	21.184	1294.171	1001.776
110.133	21.267	1292.808	1001.109
111.147	21.322	1291.750	1000.516
112.162	21.330	1290.383	999.417
113.176	21.527	1289.461	999.740
114.191	21.506	1288.798	999.017
115.206	21.526	1287.363	997.931
116.220	21.557	1285.978	996.944
117.235	21.440	1285.010	995.442
118.249	21.261	1284.789	994.159
119.264	21.253	1282.810	992.494
120.279	21.159	1281.936	991.200
121.293	21.198	1280.591	990.293
122.308	20.885	1280.009	987.979
123.322	20.835	1278.513	986.454
124.337	20.929	1277.231	985.909
125.352	20.787	1276.596	984.528
126.366	20.830	1275.817	984.085
127.381	20.834	1274.487	982.996
128.395	20.639	1273.626	981.146
129.410	20.671	1272.789	980.590
130.424	20.990	1271.753	981.504
131.439	21.205	1271.569	982.487
132.454	21.355	1270.491	982.409
133.468	21.340	1269.988	981.847
134.483	21.409	1269.463	981.743
135.497	21.429	1268.283	980.856
136.512	21.446	1267.393	980.178
137.527	21.409	1266.510	979.200
138.541	21.488	1264.980	978.372
139.556	21.442	1263.997	977.269
140.570	21.618	1263.373	977.682
141.585	21.791	1262.355	977.769
142.600	21.891	1261.817	977.824
143.614	22.135	1260.724	978.248
144.629	22.266	1259.879	978.238
145.643	22.112	1258.778	976.443
146.658	21.980	1257.609	974.717
147.673	21.721	1256.169	972.073
148.687	21.646	1254.603	970.365
149.702	21.546	1252.891	968.397
150.716	21.308	1251.848	966.193
151.731	21.367	1250.475	965.371
152.746	21.386	1249.224	964.427
153.760	21.523	1248.515	964.551
154.775	21.627	1247.941	964.594
155.789	21.695	1246.926	964.095
156.804	21.688	1246.428	963.586
157.819	21.771	1245.542	963.273
158.833	21.970	1244.382	963.381
159.848	22.034	1243.880	963.258
160.862	22.007	1242.626	962.058
161.877	21.635	1241.165	958.803
162.892	21.276	1240.049	955.892
163.906	21.142	1239.267	954.474
164.921	21.243	1237.999	953.962
165.935	21.370	1237.049	953.839
166.950	21.583	1236.641	954.603
167.964	21.642	1235.750	954.150
168.979	21.618	1234.979	953.340
169.994	21.454	1234.607	952.080
171.008	21.387	1234.131	951.263
172.023	21.554	1233.523	951.619
173.037	21.940	1232.983	953.215
174.052	21.818	1232.501	952.092
175.067	21.511	1230.743	948.989
176.081	21.257	1229.625	946.667
177.096	21.200	1228.565	945.454
178.110	21.375	1227.323	945.361
179.125	21.379	1226.429	944.610
180.140	21.654	1225.663	945.422
181.154	21.781	1225.103	945.596
182.169	21.854	1223.937	945.001
183.183	22.016	1222.498	944.679
184.198	21.967	1221.986	943.935
185.213	21.935	1220.873	942.819
186.227	22.082	1219.733	942.645
187.242	22.032	1218.916	941.663
188.256	22.164	1218.187	941.723
189.271	22.196	1217.451	941.245
190.286	22.032	1215.892	939.080
191.300	21.504	1214.881	935.390
192.315	21.423	1213.881	934.105
193.329	21.486	1213.394	933.988
194.344	21.549	1212.914	933.869
195.359	21.431	1212.033	932.479
196.373	21.451	1211.650	932.210
197.388	21.417	1212.030	932.236
198.402	21.968	1211.478	934.667
199.417	22.217	1211.355	935.814
200.432	22.381	1211.037	936.358
201.446	22.541	1210.691	936.858
202.461	22.572	1209.766	936.224
203.475	22.431	1208.600	934.489
204.490	22.009	1207.351	931.203
205.504	21.893	1205.657	929.202
206.519	21.790	1204.277	927.509
207.534	21.650	1202.998	925.701
208.548	21.704	1202.265	925.342
209.563	21.827	1201.303	925.167
210.577	21.641	1200.819	923.736
211.592	21.939	1199.876	924.497
212.607	22.241	1199.448	925.675
213.621	22.176	1198.844	924.786
214.636	21.986	1197.824	922.918
215.650	22.065	1197.240	922.804
216.665	22.180	1196.424	922.697
217.680	22.576	1195.578	924.035
218.694	22.555	1195.154	923.520
219.709	22.446	1194.052	922.013
220.723	22.423	1192.937	920.951
221.738	22.333	1192.471	920.038
222.753	22.206	1191.506	918.548
223.767	22.094	1191.313	917.736
224.782	22.429	1191.096	919.236
225.796	22.526	1190.484	919.185
226.811	22.513	1189.549	918.315
227.826	22.277	1188.430	916.140
228.840	22.154	1187.669	914.833
229.855	22.064	1186.963	913.741
230.869	22.139	1186.075	913.369
231.884	21.938	1185.356	911.686
232.899	21.769	1183.982	909.673
233.913	21.702	1183.199	908.642
234.928	21.727	1182.559	908.202
235.942	21.572	1182.018	906.902
236.957	21.630	1180.761	906.158
237.972	21.548	1180.378	905.359
238.986	21.611	1179.557	904.978
240.001	21.718	1178.673	904.769
241.015	21.697	1178.128	904.165
242.030	21.764	1177.683	904.086
243.045	21.961	1176.978	904.483
244.059	21.969	1176.510	904.086
245.074	22.010	1175.843	903.703
246.088	22.138	1175.400	903.940
247.103	22.333	1174.383	904.080
248.117	22.453	1174.025	904.342
249.132	22.685	1173.487	905.035
250.147	23.061	1173.021	906.527
251.161	23.272	1172.799	907.357
252.176	23.251	1172.146	906.664
253.190	23.243	1171.687	906.188
254.205	23.437	1171.166	906.697
255.220	23.466	1170.877	906.537
256.234	23.470	1170.099	905.878
257.249	23.361	1169.318	904.638
258.263	23.209	1168.640	903.253
259.278	23.351	1167.623	903.114
260.293	23.348	1167.159	902.659
261.307	23.251	1166.764	901.778
262.322	23.350	1166.173	901.746
263.336	23.557	1165.329	902.068
264.351	23.406	1164.963	900.937
265.366	23.384	1164.202	900.155
266.380	23.406	1163.687	899.793
267.395	23.377	1162.683	898.788
268.409	23.182	1161.588	896.872
269.424	22.953	1161.410	895.495
270.439	23.063	1160.784	895.493
271.453	22.964	1159.871	894.207
272.468	22.858	1158.531	892.557
273.482	22.804	1157.104	891.106
274.497	22.840	1157.035	891.156
275.512	22.775	1156.504	890.344
276.526	22.707	1155.836	889.408
277.541	22.694	1155.138	888.725
278.555	23.005	1154.405	889.649
279.570	23.170	1153.968	890.062
280.585	23.407	1153.661	890.939
281.599	23.252	1152.701	889.340
282.614	23.051	1151.428	887.273
283.628	22.826	1150.018	884.979
284.643	22.902	1148.971	884.474
285.657	22.820	1148.191	883.387
286.672	22.793	1147.862	882.920
287.687	22.958	1146.734	882.795
288.701	22.973	1145.999	882.228
289.716	22.985	1145.372	881.730
290.730	22.904	1144.418	880.510
291.745	22.871	1144.301	880.180
292.760	22.984	1143.370	879.947
293.774	23.171	1142.981	880.502
294.789	23.375	1142.755	881.266
295.803	23.264	1142.130	880.152
296.818	23.034	1141.200	878.217
297.833	22.924	1139.996	876.667
298.847	22.982	1139.375	876.399
299.862	22.904	1138.660	875.381
300.876	22.950	1137.979	875.009
301.891	23.048	1137.740	875.233
302.906	23.183	1137.359	875.532
303.920	23.629	1136.653	877.116
304.935	23.612	1136.430	876.782
305.949	23.713	1135.906	876.800
306.964	23.703	1134.947	875.928
307.979	23.585	1133.688	874.299
308.993	23.500	1133.221	873.443
310.008	23.407	1132.680	872.493
311.022	23.599	1131.665	872.578
312.037	23.598	1131.050	872.022
313.052	23.466	1129.377	870.007
314.066	23.103	1127.967	867.062
315.081	22.946	1127.237	865.656
316.095	22.818	1126.649	864.501
317.110	22.811	1126.037	863.923
318.125	22.797	1125.150	863.095
319.139	22.850	1124.450	862.742
320.154	22.839	1123.950	862.227
321.168	22.745	1123.633	861.448
322.183	22.772	1122.834	860.893
323.197	22.992	1122.133	861.354
324.212	23.084	1121.614	861.323
325.227	22.966	1121.644	860.695
326.241	23.049	1120.784	860.367
327.256	23.010	1119.774	859.322
328.270	22.855	1118.935	857.850
329.285	22.838	1117.785	856.812
330.300	23.031	1116.790	856.907
331.314	22.968	1115.761	855.737
332.329	23.039	1114.818	855.280
333.343	22.984	1114.364	854.591
334.358	23.166	1113.787	854.953
335.373	23.294	1113.949	855.620
336.387	23.397	1112.952	855.277
337.402	23.607	1111.849	855.366
338.416	23.533	1111.995	855.045
339.431	23.686	1111.147	855.057
340.446	23.783	1110.722	855.117
341.460	23.949	1110.641	855.779
342.475	24.117	1109.679	855.770
343.489	24.148	1108.906	855.245
344.504	24.204	1107.845	854.623
345.519	24.292	1106.921	854.255
346.533	24.202	1106.591	853.492
347.548	24.359	1105.548	853.365
348.562	24.278	1104.830	852.345
349.577	23.981	1103.180	849.583
350.592	23.516	1102.400	846.684
351.606	23.439	1101.270	845.378
352.621	23.211	1100.887	843.918
353.635	23.241	1100.135	843.411
354.650	23.296	1099.133	842.832
355.665	23.301	1098.960	842.646
356.679	23.520	1098.387	843.176
357.694	23.577	1098.283	843.292
358.708	23.620	1097.609	842.903
359.723	23.687	1096.810	842.534
360.738	23.678	1096.233	841.974
361.752	23.769	1095.172	841.514
362.767	23.727	1095.171	841.242
363.781	23.644	1094.791	840.481
364.796	24.005	1094.131	841.608
365.810	24.112	1093.934	841.890
366.825	24.265	1093.684	842.344
367.840	24.391	1093.134	842.439
368.854	24.673	1092.399	843.131
369.869	24.543	1091.488	841.740
370.883	24.439	1090.704	840.573
371.898	24.152	1089.701	838.374
372.913	24.101	1089.117	837.608
373.927	24.234	1088.754	837.882
374.942	24.386	1088.460	838.297
375.956	24.275	1087.898	837.267
376.971	24.296	1087.122	836.692
377.986	24.303	1086.798	836.402
379.000	24.514	1086.277	836.917
380.015	24.630	1085.728	836.964
381.029	24.611	1085.317	836.485
382.044	24.561	1084.730	835.722
383.059	24.482	1083.738	834.516
384.073	24.508	1083.021	834.014
385.088	24.522	1081.825	833.082
386.102	24.468	1081.166	832.252
387.117	24.167	1079.846	829.759
388.132	24.010	1078.663	828.044
389.146	23.904	1078.080	827.033
390.161	23.823	1077.013	825.764
391.175	23.893	1076.434	825.570
392.190	24.125	1076.225	826.413
393.205	24.363	1076.025	827.294
394.219	24.394	1075.083	826.638
395.234	24.207	1073.638	824.588
396.248	24.084	1072.615	823.159
397.263	23.982	1071.181	821.519
398.278	23.832	1071.039	820.641
399.292	23.901	1070.470	820.454
400.307	23.831	1069.795	819.540
401.321	23.748	1068.874	818.378
402.336	23.671	1067.909	817.216
403.350	23.597	1067.723	816.657
404.365	23.757	1066.924	816.710
405.380	24.011	1066.239	817.281
406.394	24.112	1065.691	817.252
407.409	24.273	1065.275	817.601
408.423	24.554	1064.752	818.415
409.438	24.752	1063.873	818.570
410.453	24.694	1063.811	818.185
411.467	24.683	1063.088	817.508
412.482	24.835	1062.357	817.568
413.496	24.853	1061.709	817.081
414.511	24.905	1061.518	817.096
415.526	25.070	1061.145	817.491
416.540	25.145	1060.736	817.443
417.555	25.122	1060.010	816.706
418.569	25.013	1059.292	815.586
419.584	24.757	1058.985	814.114
420.599	24.713	1058.198	813.236
421.613	156.188	1403.579	1796.408
422.628	143.549	1453.873	1796.518
