DTS Sentinel unit serial number:	SN413079Multiplexer serial number:	ORYXHardware model number:	OX4-SRSoftware version number:	ORYX F/W v4.00 Oryx Data Collector v3.7.2.0data status	okinstallation	princeton_trtdifferential loss correction	single-endedforward channel	channel 2reverse channel	N/Adate	2019/09/18time	00:55:34forward acquisition time	60.00reverse acquisition time	0.00gamma	496.2192k internal	0.2350k external	0.2350temperature offset calibration	0.9983default loss term (dB/km)	0.3790temperature slope calibration	1.0000multiplexer offset coefficient	1.0000multiplexer slope coefficient	1.0000fibre end	0.00T internal ref (°C)	23.31T ext. ref 1 (°C)	0.16T ext. ref 2 (°C)	17.03length (m)	temperature (°C)	Stokes	anti-Stokes-747.200	-28.870	0.089	0.051
-746.185	-137.050	0.229	0.026
-745.171	157.321	0.041	-0.056
-744.156	-80.190	-0.420	-0.140
-743.142	-64.228	-0.166	-0.068
-742.127	-126.636	-0.103	0.015
-741.112	-121.003	0.201	0.034
-740.098	-65.295	-0.605	0.243
-739.083	-153.165	0.147	0.010
-738.069	-200.000	-0.015	0.154
-737.054	126.088	0.084	0.106
-736.039	7.318	-0.057	0.042
-735.025	418.373	0.071	0.152
-734.010	541.778	-0.010	-0.023
-732.996	-100.548	-0.087	-0.021
-731.981	-200.000	-0.027	-0.288
-730.966	378.845	0.151	0.308
-729.952	164.298	-0.039	0.055
-728.937	-134.673	0.323	-0.039
-727.923	68.530	-0.038	-0.039
-726.908	199.894	0.142	0.218
-725.894	387.504	0.082	0.168
-724.879	-164.361	-0.132	-0.006
-723.864	54.259	-0.052	-0.050
-722.850	376.727	-0.090	-0.184
-721.835	-200.000	-0.033	0.147
-720.821	148.256	-0.355	-0.479
-719.806	-14.573	0.150	0.096
-718.791	-22.102	-0.188	-0.114
-717.777	70.584	0.389	-0.401
-716.762	-200.000	0.009	-0.191
-715.748	46.408	-0.122	-0.113
-714.733	61.034	0.296	0.293
-713.718	-87.628	-0.450	-0.136
-712.704	-200.000	-0.002	0.195
-711.689	566.183	0.012	0.030
-710.675	3.255	0.134	0.097
-709.660	193.722	-0.147	-0.221
-708.645	-51.010	0.181	-0.084
-707.631	-33.982	0.248	-0.136
-706.616	-6.770	-0.158	0.107
-705.602	123.234	0.112	0.140
-704.587	237.100	0.158	-0.262
-703.572	66.358	0.162	0.165
-702.558	800.000	0.027	-0.110
-701.543	-200.000	0.024	0.124
-700.529	187.503	0.062	0.093
-699.514	-151.775	0.285	-0.021
-698.499	345.077	-0.038	0.074
-697.485	-82.341	0.198	-0.064
-696.470	128.037	-0.021	0.027
-695.456	-129.555	0.663	0.091
-694.441	800.000	0.042	0.142
-693.426	-200.000	0.017	-0.088
-692.412	800.000	0.080	-0.332
-691.397	-200.000	0.002	-0.420
-690.383	800.000	0.088	0.306
-689.368	-60.761	-0.190	0.080
-688.354	-144.661	-0.068	0.006
-687.339	6.979	0.092	0.068
-686.324	-100.432	-0.256	0.063
-685.310	-200.000	-0.013	-0.067
-684.295	800.000	0.045	-0.178
-683.281	63.680	0.056	-0.056
-682.266	-165.700	0.061	-0.003
-681.251	-200.000	-0.063	-0.000
-680.237	-76.413	0.214	-0.075
-679.222	-68.429	0.119	-0.046
-678.208	-57.730	-0.178	0.078
-677.193	333.482	0.045	-0.086
-676.178	-200.000	0.009	0.356
-675.164	205.454	0.028	0.043
-674.149	800.000	0.076	-0.294
-673.135	37.149	-0.064	-0.056
-672.120	-200.000	0.031	-0.190
-671.105	800.000	-0.093	-0.371
-670.091	170.774	-0.195	-0.278
-669.076	30.315	-0.114	0.097
-668.062	-61.011	-0.353	0.148
-667.047	-125.070	0.211	0.032
-666.032	139.019	0.270	-0.353
-665.018	-200.000	-0.013	0.169
-664.003	65.163	-0.116	0.117
-662.989	-5.701	0.166	0.113
-661.974	-20.338	0.084	-0.051
-660.959	646.414	-0.066	-0.167
-659.945	-200.000	0.023	0.175
-658.930	108.542	-0.153	-0.182
-657.916	152.749	-0.164	-0.223
-656.901	-200.000	-0.000	-0.059
-655.886	-185.997	-0.118	-0.002
-654.872	-122.377	0.332	0.054
-653.857	14.578	-0.389	0.302
-652.843	114.249	0.212	-0.256
-651.828	201.252	0.080	-0.123
-650.814	168.507	-0.094	0.133
-649.799	-97.149	0.319	0.083
-648.784	713.413	0.040	-0.105
-647.770	800.000	-0.015	-0.052
-646.755	-200.000	-0.008	0.090
-645.741	259.017	0.259	0.444
-644.726	270.440	-0.114	-0.199
-643.711	-99.106	-0.156	0.039
-642.697	549.895	-0.097	-0.232
-641.682	-68.833	-0.257	0.099
-640.668	362.285	0.081	0.162
-639.653	426.648	0.085	0.182
-638.638	-95.049	0.166	0.045
-637.624	172.985	-0.145	0.208
-636.609	254.635	-0.208	0.355
-635.595	-6.354	-0.218	-0.148
-634.580	218.118	-0.115	-0.183
-633.565	-147.890	-0.301	0.025
-632.551	205.170	0.244	0.377
-631.536	78.057	0.163	-0.173
-630.522	43.198	-0.213	0.193
-629.507	70.227	0.122	0.125
-628.492	-107.292	0.122	0.027
-627.478	-200.000	-0.022	0.168
-626.463	-134.228	-0.213	-0.026
-625.449	-135.934	0.022	-0.003
-624.434	663.926	-0.012	-0.031
-623.419	-97.392	0.117	-0.030
-622.405	-41.058	0.176	0.090
-621.390	7.744	-0.309	0.230
-620.376	39.804	-0.130	0.116
-619.361	-72.190	0.189	0.070
-618.346	-88.767	-0.135	0.040
-617.332	80.250	-0.048	-0.051
-616.317	-50.358	0.338	0.158
-615.303	-61.429	-0.195	-0.081
-614.288	49.689	0.085	-0.080
-613.273	800.000	0.014	0.050
-612.259	-94.110	0.140	0.038
-611.244	-118.346	0.130	0.023
-610.230	-68.504	-0.160	-0.062
-609.215	-149.001	-0.237	-0.019
-608.201	800.000	-0.077	-0.281
-607.186	48.329	-0.145	-0.135
-606.171	43.519	-0.042	-0.038
-605.157	-12.673	-0.207	-0.134
-604.142	-200.000	0.027	-0.275
-603.128	388.078	0.101	-0.207
-602.113	675.323	-0.092	-0.238
-601.098	312.101	-0.056	-0.104
-600.084	-66.243	0.353	0.140
-599.069	-113.194	0.145	-0.028
-598.055	-122.194	-0.233	-0.038
-597.040	800.000	0.044	0.127
-596.025	72.347	0.087	-0.090
-595.011	7.444	0.315	0.234
-593.996	-74.861	0.200	-0.071
-592.982	-200.000	-0.016	0.311
-591.967	94.541	-0.195	-0.220
-590.952	459.339	0.199	0.440
-589.938	800.000	0.009	0.024
-588.923	52.056	0.184	-0.174
-587.909	-100.099	-0.213	-0.053
-586.894	48.147	-0.071	0.066
-585.879	291.392	0.120	0.216
-584.865	-69.097	0.159	-0.061
-583.850	-146.209	-0.159	0.014
-582.836	-96.727	-0.724	-0.189
-581.821	-200.000	0.043	-0.401
-580.806	-19.116	0.274	-0.169
-579.792	257.122	0.123	0.210
-578.777	-200.000	0.033	-0.233
-577.763	-4.954	-0.164	0.112
-576.748	800.000	0.085	0.242
-575.733	-200.000	0.011	0.180
-574.719	-200.000	0.000	-0.073
-573.704	-200.000	-0.026	-0.156
-572.690	-200.000	0.039	0.207
-571.675	-200.000	0.007	0.079
-570.661	800.000	-0.138	-0.512
-569.646	-29.628	0.122	0.069
-568.631	-79.179	-0.198	-0.067
-567.617	-60.857	0.321	0.135
-566.602	-154.570	-0.150	-0.010
-565.588	296.374	-0.090	-0.164
-564.573	-200.000	-0.012	-0.061
-563.558	-200.000	0.003	0.232
-562.544	134.297	0.031	0.039
-561.529	169.312	0.121	-0.171
-560.515	56.510	-0.099	-0.095
-559.500	800.000	-0.074	-0.223
-558.485	-10.199	-0.086	-0.056
-557.471	-200.000	0.028	0.186
-556.456	-149.887	0.117	0.009
-555.442	-200.000	-0.020	0.365
-554.427	-29.050	-0.374	-0.213
-553.412	14.372	0.278	0.215
-552.398	800.000	0.035	-0.095
-551.383	92.389	0.080	-0.089
-550.369	-189.805	-0.240	0.003
-549.354	-76.780	-0.203	0.071
-548.339	-200.000	-0.033	0.150
-547.325	-200.000	-0.051	-0.253
-546.310	-25.386	0.375	-0.220
-545.296	-104.958	-0.285	0.065
-544.281	-200.000	0.124	-0.549
-543.266	-200.000	-0.074	-0.379
-542.252	800.000	0.068	-0.258
-541.237	158.267	0.116	0.160
-540.223	32.327	0.077	-0.066
-539.208	-113.797	-0.448	-0.086
-538.193	-200.000	0.006	0.179
-537.179	-85.579	0.041	0.013
-536.164	800.000	-0.076	0.240
-535.150	-200.000	0.029	0.255
-534.135	111.836	0.090	0.108
-533.121	30.084	0.077	0.065
-532.106	764.549	-0.087	0.233
-531.091	-200.000	-0.013	-0.165
-530.077	-32.018	-0.085	0.047
-529.062	-55.496	-0.232	0.103
-528.048	499.497	-0.027	0.062
-527.033	-57.677	-0.089	-0.038
-526.018	183.380	-0.168	0.246
-525.004	-200.000	0.031	-0.347
-523.989	800.000	-0.077	-0.229
-522.975	-200.000	0.023	-0.388
-521.960	80.766	0.328	0.350
-520.945	-19.167	0.140	-0.086
-519.931	-200.000	0.003	-0.134
-518.916	749.119	-0.112	0.299
-517.902	-200.000	-0.068	-0.389
-516.887	312.643	-0.036	-0.067
-515.872	224.586	-0.055	-0.087
-514.858	-96.405	-0.386	-0.101
-513.843	-68.581	-0.030	0.011
-512.829	481.711	0.065	-0.145
-511.814	109.538	0.140	-0.166
-510.799	-112.833	0.127	0.025
-509.785	-40.694	-0.233	0.119
-508.770	800.000	0.057	0.193
-507.756	229.940	0.178	-0.288
-506.741	-125.611	-0.183	-0.028
-505.726	9.320	0.205	-0.154
-504.712	37.446	0.259	-0.227
-503.697	53.090	0.134	0.127
-502.683	800.000	-0.118	-0.397
-501.668	77.386	0.152	-0.160
-500.653	-117.152	0.052	-0.009
-499.639	-125.246	0.089	0.014
-498.624	-133.686	0.143	0.018
-497.610	800.000	0.084	0.252
-496.595	-200.000	-0.005	-0.335
-495.581	-129.572	-0.542	-0.074
-494.566	-103.324	0.140	-0.033
-493.551	-200.000	0.012	0.425
-492.537	-200.000	-0.006	0.087
-491.522	206.847	0.165	-0.254
-490.508	-31.175	0.164	-0.091
-489.493	-184.335	0.167	0.003
-488.478	800.000	0.046	0.153
-487.464	-57.483	0.059	-0.026
-486.449	-53.745	-0.344	0.155
-485.435	326.199	-0.089	-0.168
-484.420	-168.018	-0.263	-0.010
-483.405	-159.272	-0.058	-0.003
-482.391	-59.657	-0.295	0.125
-481.376	-48.002	0.325	-0.155
-480.362	454.796	0.039	-0.085
-479.347	126.157	-0.072	0.090
-478.332	-157.896	-0.245	-0.014
-477.318	54.230	0.265	-0.252
-476.303	-200.000	0.002	-0.034
-475.289	-34.864	-0.135	-0.073
-474.274	-116.817	-0.147	-0.027
-473.259	-71.552	-0.145	0.053
-472.245	-200.000	0.050	0.245
-471.230	-71.963	0.098	0.036
-470.216	-55.347	0.097	-0.043
-469.201	14.561	-0.181	0.140
-468.186	-74.335	0.062	-0.022
-467.172	54.415	-0.158	-0.150
-466.157	-143.394	0.344	0.033
-465.143	-200.000	-0.022	-0.426
-464.128	-1.723	0.311	-0.216
-463.113	-74.492	-0.256	0.091
-462.099	-60.634	0.275	-0.115
-461.084	-200.000	-0.013	0.179
-460.070	136.682	-0.167	-0.216
-459.055	-111.518	-0.101	0.020
-458.040	39.121	0.089	0.078
-457.026	-73.138	-0.184	0.066
-456.011	372.894	-0.010	-0.020
-454.997	-8.413	-0.187	-0.124
-453.982	0.155	0.066	-0.046
-452.968	-1.077	-0.018	0.013
-451.953	175.607	-0.086	0.123
-450.938	800.000	0.019	0.067
-449.924	75.733	-0.138	-0.144
-448.909	31.195	0.248	-0.210
-447.895	-85.031	-0.335	0.104
-446.880	123.514	-0.142	-0.175
-445.865	-72.527	0.143	-0.052
-444.851	469.556	-0.121	0.267
-443.836	50.920	-0.078	0.073
-442.822	540.431	0.145	0.339
-441.807	-109.064	0.175	0.037
-440.792	800.000	-0.081	-0.232
-439.778	217.148	-0.151	-0.238
-438.763	-200.000	-0.007	-0.076
-437.749	-96.704	0.155	0.040
-436.734	102.382	0.041	0.047
-435.719	213.630	-0.091	-0.143
-434.705	-43.120	-0.070	-0.035
-433.690	268.194	0.065	0.113
-432.676	468.201	-0.098	0.217
-431.661	267.851	0.034	0.060
-430.646	274.664	-0.025	-0.044
-429.632	295.384	0.182	-0.328
-428.617	151.741	0.135	0.182
-427.603	-200.000	0.036	0.188
-426.588	-200.000	0.015	0.085
-425.573	317.824	-0.103	-0.193
-424.559	0.034	-0.092	0.065
-423.544	-13.365	-0.395	0.253
-422.530	55.507	-0.254	-0.242
-421.515	-200.000	0.004	-0.127
-420.500	-200.000	0.014	-0.168
-419.486	11.334	0.086	0.065
-418.471	-1.098	0.105	-0.073
-417.457	-143.855	-0.232	-0.022
-416.442	-119.216	-0.209	-0.036
-415.428	-200.000	0.018	-0.150
-414.413	-60.544	0.057	-0.024
-413.398	366.915	-0.129	-0.257
-412.384	-9.297	0.315	0.207
-411.369	-107.886	0.065	0.014
-410.355	-57.794	0.147	0.064
-409.340	185.751	-0.089	0.130
-408.325	160.488	-0.188	-0.258
-407.311	-174.675	0.236	-0.007
-406.296	-116.941	-0.316	0.057
-405.282	-200.000	0.056	-0.243
-404.267	-36.066	-0.197	0.105
-403.252	181.207	0.044	0.063
-402.238	325.803	0.091	-0.171
-401.223	800.000	-0.040	-0.147
-400.209	26.685	0.130	-0.107
-399.194	50.268	0.151	-0.141
-398.179	659.137	-0.078	-0.198
-397.165	-178.376	-0.094	-0.002
-396.150	-200.000	-0.012	-0.206
-395.136	-135.835	0.236	0.028
-394.121	-200.000	-0.021	-0.108
-393.106	800.000	-0.085	0.244
-392.092	81.609	0.197	0.210
-391.077	592.315	-0.160	-0.389
-390.063	-175.357	-0.443	-0.012
-389.048	-120.453	0.398	-0.067
-388.033	2.435	0.218	0.155
-387.019	-23.078	-0.092	0.054
-386.004	-1.377	0.193	-0.134
-384.990	-28.879	0.294	-0.166
-383.975	800.000	-0.053	0.201
-382.960	237.769	-0.192	0.314
-381.946	133.891	0.111	-0.142
-380.931	-200.000	-0.036	-0.211
-379.917	40.001	0.146	-0.129
-378.902	-96.939	0.075	0.019
-377.888	-0.882	0.366	-0.255
-376.873	-156.908	-0.193	0.012
-375.858	54.851	-0.181	0.172
-374.844	-173.590	-0.188	0.006
-373.829	161.464	-0.061	-0.085
-372.815	-119.195	-0.028	-0.005
-371.800	-200.000	-0.039	0.184
-370.785	23.879	-0.067	0.054
-369.771	-36.883	0.192	-0.101
-368.756	-67.291	-0.083	-0.032
-367.742	204.738	0.270	-0.411
-366.727	-200.000	0.053	0.268
-365.712	-125.488	-0.026	0.004
-364.698	-200.000	-0.006	-0.131
-363.683	10.594	0.040	0.030
-362.669	71.882	0.393	0.402
-361.654	-154.584	0.141	0.009
-360.639	80.068	0.075	0.079
-359.625	709.353	0.045	0.118
-358.610	-200.000	-0.055	-0.339
-357.596	344.475	0.153	0.295
-356.581	11.056	-0.250	0.188
-355.566	120.327	-0.047	-0.057
-354.552	-200.000	0.055	0.268
-353.537	327.852	-0.160	0.302
-352.523	-116.024	0.239	-0.044
-351.508	78.390	0.085	0.090
-350.493	-71.251	-0.234	-0.086
-349.479	-179.203	0.411	-0.009
-348.464	-178.406	-0.224	-0.005
-347.450	64.004	-0.024	-0.024
-346.435	-178.179	0.182	0.004
-345.420	131.046	-0.132	0.166
-344.406	800.000	0.037	-0.106
-343.391	-113.139	0.139	0.027
-342.377	-24.189	0.167	0.098
-341.362	-68.030	-0.178	0.068
-340.348	-24.995	0.028	0.016
-339.333	7.569	0.173	-0.127
-338.318	-20.146	-0.138	0.083
-337.304	669.543	-0.059	0.150
-336.289	-136.683	0.088	0.010
-335.275	-36.722	-0.122	-0.064
-334.260	-200.000	0.037	0.373
-333.245	18.629	0.316	-0.249
-332.231	-82.366	0.092	-0.029
-331.216	-36.119	-0.424	-0.225
-330.202	253.638	0.095	0.160
-329.187	-184.351	0.030	0.000
-328.172	-24.510	-0.323	0.189
-327.158	-200.000	0.014	0.291
-326.143	-106.681	-0.204	0.045
-325.129	-77.011	0.122	0.042
-324.114	800.000	-0.060	0.169
-323.099	91.470	0.129	0.142
-322.085	800.000	0.042	0.178
-321.070	800.000	0.029	-0.117
-320.056	800.000	-0.075	-0.216
-319.041	189.575	-0.234	-0.344
-318.026	-76.059	-0.054	0.019
-317.012	-154.697	0.154	-0.010
-315.997	66.688	0.141	0.140
-314.983	526.201	-0.118	-0.273
-313.968	-200.000	-0.060	0.290
-312.953	800.000	0.079	0.264
-311.939	-94.328	0.323	-0.087
-310.924	214.794	-0.115	0.180
-309.910	-200.000	0.002	0.165
-308.895	73.746	-0.284	-0.292
-307.880	550.502	0.193	-0.454
-306.866	-57.066	0.239	-0.103
-305.851	8.228	0.080	0.059
-304.837	-21.539	-0.118	0.071
-303.822	78.856	0.071	0.075
-302.807	182.429	-0.095	0.138
-301.793	-0.591	-0.084	-0.059
-300.778	-75.527	0.174	0.061
-299.764	800.000	-0.038	-0.141
-298.749	-0.461	0.344	-0.239
-297.735	503.074	0.250	0.567
-296.720	-200.000	-0.158	-0.000
-295.705	-200.000	0.010	-0.135
-294.691	-81.132	-0.415	-0.134
-293.676	-200.000	-0.041	-0.288
-292.662	-87.855	0.255	-0.075
-291.647	30.437	0.090	-0.075
-290.632	-41.985	0.036	0.018
-289.618	800.000	-0.077	0.241
-288.603	249.330	-0.083	0.139
-287.589	186.728	-0.201	-0.294
-286.574	145.837	-0.171	0.225
-285.559	29.410	-0.095	-0.079
-284.545	520.309	-0.072	0.167
-283.530	724.604	0.087	-0.226
-282.516	60.976	0.224	-0.218
-281.501	-117.430	0.028	0.005
-280.486	800.000	-0.052	0.208
-279.472	-39.056	-0.265	0.136
-278.457	67.549	-0.088	0.088
-277.443	-200.000	-0.025	-0.178
-276.428	5.511	0.387	0.280
-275.413	380.854	0.192	-0.387
-274.399	182.425	-0.145	0.210
-273.384	-11.418	0.250	0.161
-272.370	265.106	0.120	-0.205
-271.355	-167.108	-0.080	-0.003
-270.340	-54.146	-0.078	0.035
-269.326	62.796	0.189	0.185
-268.311	102.494	0.072	0.082
-267.297	-108.376	0.200	-0.042
-266.282	-156.266	0.459	0.028
-265.267	800.000	-0.046	-0.135
-264.253	193.988	0.153	-0.227
-263.238	20.813	-0.232	0.184
-262.224	372.144	-0.021	-0.042
-261.209	631.237	0.042	0.105
-260.195	147.853	-0.183	-0.241
-259.180	282.961	-0.042	0.074
-258.165	321.609	0.077	-0.144
-257.151	37.096	-0.392	-0.340
-256.136	201.208	0.200	-0.302
-255.122	-168.553	0.252	-0.009
-254.107	28.801	-0.181	-0.150
-253.092	53.181	-0.218	0.205
-252.078	231.269	-0.127	0.205
-251.063	-67.022	0.112	-0.043
-250.049	-112.491	-0.231	-0.045
-249.034	800.000	0.020	-0.072
-248.019	-200.000	0.027	0.190
-247.005	-76.223	0.322	0.111
-245.990	-23.388	0.227	0.133
-244.976	-126.567	0.185	-0.027
-243.961	-200.000	-0.000	-0.035
-242.946	-200.000	0.016	-0.127
-241.932	-95.358	0.254	-0.067
-240.917	69.457	-0.187	0.189
-239.903	-93.340	-0.113	0.031
-238.888	-68.948	-0.057	0.021
-237.873	77.796	-0.268	0.279
-236.859	14.642	0.202	0.155
-235.844	-200.000	0.023	0.444
-234.830	143.257	0.124	0.162
-233.815	-200.000	0.007	-0.139
-232.800	-163.825	0.254	-0.012
-231.786	56.327	-0.208	-0.198
-230.771	-74.046	0.301	-0.107
-229.757	-178.619	0.136	-0.003
-228.742	-200.000	0.016	0.187
-227.727	-200.000	0.009	0.231
-226.713	-16.191	0.220	0.137
-225.698	102.735	-0.072	-0.082
-224.684	23.044	0.088	-0.071
-223.669	170.198	-0.158	0.221
-222.655	32.278	-0.171	0.144
-221.640	71.923	0.168	0.171
-220.625	-200.000	0.001	0.161
-219.611	-200.000	0.018	-0.279
-218.596	800.000	-0.059	0.186
-217.582	-93.415	0.049	0.013
-216.567	354.999	-0.042	0.082
-215.552	-200.000	-0.008	0.106
-214.538	-200.000	0.029	0.185
-213.523	112.714	0.098	-0.116
-212.509	-147.548	-0.512	-0.042
-211.494	430.324	0.057	0.120
-210.479	4.044	0.180	0.128
-209.465	-74.301	0.271	0.096
-208.450	16.193	-0.082	-0.063
-207.436	-200.000	-0.029	0.225
-206.421	800.000	0.059	-0.228
-205.406	800.000	-0.067	-0.243
-204.392	-200.000	0.028	0.146
-203.377	-94.777	-0.389	0.103
-202.363	-68.399	0.230	-0.087
-201.348	-70.035	0.362	-0.135
-200.333	-94.529	-0.140	0.037
-199.319	15.538	-0.070	0.054
-198.304	-200.000	0.053	-0.358
-197.290	24.326	-0.055	-0.045
-196.275	-54.748	-0.084	0.037
-195.260	-200.000	-0.031	0.277
-194.246	-101.935	-0.136	-0.032
-193.231	800.000	0.061	0.197
-192.217	-200.000	-0.054	-0.429
-191.202	-27.595	0.169	0.096
-190.187	-200.000	0.026	0.113
-189.173	-200.000	0.011	0.081
-188.158	-200.000	-0.018	0.245
-187.144	-19.216	-0.149	0.090
-186.129	-59.636	0.022	0.009
-185.114	-200.000	-0.011	-0.344
-184.100	731.435	0.044	0.116
-183.085	381.484	0.066	0.132
-182.071	328.649	-0.341	-0.640
-181.056	-165.602	0.092	0.004
-180.042	800.000	-0.077	0.254
-179.027	6.766	0.456	0.331
-178.012	800.000	-0.030	0.126
-176.998	30.955	-0.233	-0.195
-175.983	-200.000	0.006	0.276
-174.969	-200.000	-0.040	-0.239
-173.954	303.019	-0.090	-0.163
-172.939	-200.000	0.039	0.393
-171.925	-174.756	0.229	-0.006
-170.910	800.000	-0.120	-0.436
-169.896	205.592	-0.110	-0.166
-168.881	800.000	0.039	-0.126
-167.866	3.264	-0.267	0.190
-166.852	-125.378	-0.301	0.045
-165.837	241.305	0.013	-0.021
-164.823	-172.238	-0.120	0.004
-163.808	-200.000	0.040	0.313
-162.793	800.000	0.091	-0.288
-161.779	252.797	0.094	0.156
-160.764	99.464	0.161	0.182
-159.750	-88.538	-0.070	0.020
-158.735	-200.000	0.007	0.159
-157.720	-123.727	-0.118	-0.018
-156.706	-39.530	-0.287	0.147
-155.691	-9.571	0.344	0.224
-154.677	800.000	-0.066	0.181
-153.662	-4.113	-0.140	0.095
-152.647	292.302	-0.038	-0.067
-151.633	-200.000	0.024	-0.235
-150.618	-53.762	0.168	-0.075
-149.604	-102.640	-0.333	0.078
-148.589	-71.422	-0.349	0.128
-147.574	-55.204	0.307	-0.135
-146.560	-42.942	-0.303	-0.150
-145.545	800.000	0.124	0.357
-144.531	-119.206	0.494	-0.084
-143.516	60.146	0.369	0.355
-142.502	-26.135	0.160	0.092
-141.487	-70.776	0.208	0.077
-140.472	-34.295	-0.162	0.087
-139.458	-200.000	0.062	-0.484
-138.443	-200.000	-0.083	-0.375
-137.429	-200.000	-0.026	0.119
-136.414	260.549	0.190	-0.321
-135.399	-31.905	-0.229	-0.125
-134.385	-4.845	-0.071	0.047
-133.370	-200.000	0.004	0.221
-132.356	26.681	0.088	-0.072
-131.341	-90.692	0.093	0.026
-130.326	-30.091	0.178	0.099
-129.312	-200.000	0.004	0.170
-128.297	-200.000	0.034	0.247
-127.283	-200.000	-0.010	-0.274
-126.268	800.000	-0.108	0.319
-125.253	-30.544	0.217	-0.120
-124.239	-66.622	-0.103	-0.040
-123.224	514.139	0.038	-0.087
-122.210	-91.064	0.085	-0.024
-121.195	-115.654	0.176	-0.032
-120.180	-93.833	0.202	0.054
-119.166	-114.814	-0.155	-0.029
-118.151	-55.646	-0.236	0.103
-117.137	-166.533	0.491	-0.020
-116.122	-200.000	0.017	0.386
-115.107	51.651	-0.310	-0.287
-114.093	-200.000	-0.050	0.429
-113.078	184.726	-0.197	0.284
-112.064	298.007	0.167	-0.299
-111.049	800.000	0.028	-0.088
-110.034	-137.788	-0.171	-0.019
-109.020	-14.696	0.093	0.058
-108.005	167.418	-0.183	-0.253
-106.991	160.136	0.163	-0.221
-105.976	303.180	-0.175	-0.316
-104.962	-200.000	-0.038	0.267
-103.947	434.104	0.105	0.222
-102.932	154.583	0.131	0.176
-101.918	210.024	0.124	0.190
-100.903	-120.214	0.146	-0.024
-99.889	-200.000	0.069	-0.414
-98.874	-200.000	0.384	0.001
-97.859	234.466	0.135	0.217
-96.845	163.095	-0.074	-0.102
-95.830	-200.000	-0.022	-0.401
-94.816	-93.547	-0.310	0.083
-93.801	-63.243	0.344	0.138
-92.786	80.249	-0.157	-0.164
-91.772	-88.328	-0.325	0.095
-90.757	-99.419	-0.185	-0.045
-89.743	644.410	0.055	-0.136
-88.728	-200.000	0.000	0.261
-87.713	619.473	0.051	0.125
-86.699	-163.056	-0.109	0.005
-85.684	-200.000	0.011	0.153
-84.670	-53.338	-0.219	-0.098
-83.655	-99.746	-0.028	-0.007
-82.640	-182.434	-0.070	0.001
-81.626	104.810	0.093	0.106
-80.611	30.401	0.363	0.302
-79.597	-74.408	-0.216	0.076
-78.582	-159.281	-0.200	0.011
-77.567	16.552	-0.356	0.274
-76.553	-114.025	-0.163	0.031
-75.538	567.326	-0.045	0.107
-74.524	-200.000	0.002	0.037
-73.509	-112.759	0.087	0.017
-72.494	-105.373	-0.246	-0.055
-71.480	66.473	-0.231	-0.228
-70.465	-56.546	0.071	-0.031
-69.451	13.767	0.134	0.101
-68.436	-200.000	0.021	-0.244
-67.422	479.012	0.124	-0.274
-66.407	676.936	-0.192	0.486
-65.392	327.644	-0.135	0.252
-64.378	-200.000	-0.024	0.267
-63.363	800.000	0.048	-0.166
-62.349	-57.278	-0.147	0.063
-61.334	23.446	-1.202	-0.961
-60.319	-3.705	1.040	0.702
-59.305	222.606	-0.824	-1.290
-58.290	361.610	0.832	1.621
-57.276	725.225	0.656	1.698
-56.261	-200.000	125.114	672.463
-55.246	436.758	1565.664	3314.217
-54.232	144.046	2727.222	3535.065
-53.217	91.489	2288.365	2498.796
-52.203	32.440	1898.357	1593.548
-51.188	26.358	1695.511	1377.053
-50.173	24.255	1657.012	1330.057
-49.159	46.449	1726.450	1555.970
-48.144	43.743	1738.286	1545.942
-47.130	25.979	1689.386	1368.985
-46.115	23.421	1673.604	1336.876
-45.100	23.192	1668.615	1331.120
-44.086	23.201	1666.292	1329.275
-43.071	23.215	1664.113	1327.595
-42.057	23.166	1662.275	1325.704
-41.042	23.282	1659.591	1324.381
-40.027	23.205	1657.837	1322.352
-39.013	23.052	1656.162	1319.824
-37.998	23.203	1654.751	1319.774
-36.984	23.284	1653.339	1319.195
-35.969	23.228	1652.410	1317.985
-34.954	23.388	1650.103	1317.282
-33.940	23.293	1648.472	1315.225
-32.925	23.314	1647.144	1314.265
-31.911	23.253	1645.185	1312.196
-30.896	23.180	1643.819	1310.517
-29.881	23.280	1642.265	1309.966
-28.867	23.365	1640.412	1309.063
-27.852	23.320	1639.397	1307.871
-26.838	23.296	1637.978	1306.507
-25.823	23.324	1636.588	1305.553
-24.809	23.393	1635.128	1304.848
-23.794	23.263	1634.512	1303.348
-22.779	23.331	1632.812	1302.437
-21.765	23.346	1630.884	1300.960
-20.750	23.406	1628.491	1299.443
-19.736	23.421	1627.632	1298.813
-18.721	23.334	1626.744	1297.418
-17.706	23.285	1625.569	1296.068
-16.692	23.214	1623.839	1294.115
-15.677	23.337	1622.086	1293.570
-14.663	23.344	1621.134	1292.806
-13.648	23.345	1619.870	1291.756
-12.633	23.352	1618.318	1290.519
-11.619	23.332	1616.730	1289.053
-10.604	23.374	1615.222	1288.110
-9.590	23.411	1613.798	1287.190
-8.575	23.450	1612.243	1286.182
-7.560	23.478	1610.750	1285.138
-6.546	23.314	1610.447	1283.663
-5.531	23.341	1609.308	1282.894
-4.517	23.334	1607.728	1281.538
-3.502	23.306	1607.055	1280.745
-2.487	23.406	1605.067	1279.832
-1.473	22.986	1592.754	1266.951
-0.458	20.020	1573.178	1230.302
0.556	14.978	1574.631	1199.368
1.571	12.710	1598.041	1200.574
2.586	12.442	1609.766	1207.305
3.600	11.365	1555.771	1159.060
4.615	6.269	1450.015	1046.358
5.629	1.126	1392.148	971.609
6.644	0.208	1385.400	960.962
7.659	0.091	1384.337	959.388
8.673	0.196	1382.648	958.803
9.688	0.135	1380.908	957.127
10.702	-0.029	1377.278	953.482
11.717	2.585	1380.537	972.256
12.731	9.409	1390.332	1022.562
13.746	15.172	1399.674	1066.113
14.761	16.776	1401.632	1077.725
15.775	16.111	1399.772	1071.972
16.790	15.096	1397.195	1063.463
17.804	14.498	1394.637	1057.627
18.819	13.981	1393.291	1053.240
19.834	13.887	1392.075	1051.632
20.848	13.476	1391.023	1048.141
21.863	13.365	1389.427	1046.144
22.877	13.169	1388.220	1043.902
23.892	13.153	1387.270	1042.995
24.907	13.054	1386.656	1041.819
25.921	13.204	1385.431	1041.749
26.936	13.127	1385.074	1040.904
27.950	13.254	1383.989	1040.800
28.965	13.242	1383.057	1039.930
29.980	13.351	1381.795	1039.569
30.994	13.365	1380.745	1038.778
32.009	13.440	1379.630	1038.320
33.023	13.464	1378.705	1037.683
34.038	13.420	1377.639	1036.510
35.053	13.305	1376.682	1034.979
36.067	13.291	1375.482	1033.897
37.082	13.312	1374.310	1033.059
38.096	13.355	1372.799	1032.099
39.111	13.363	1372.830	1032.078
40.126	13.204	1372.133	1030.474
41.140	13.222	1370.821	1029.511
42.155	13.083	1370.816	1028.545
43.169	13.171	1370.228	1028.561
44.184	13.159	1369.636	1027.955
45.199	13.205	1369.395	1027.970
46.213	13.274	1368.466	1027.606
47.228	13.291	1368.099	1027.347
48.242	13.169	1366.755	1025.490
49.257	13.312	1364.796	1024.813
50.271	13.259	1363.398	1023.346
51.286	13.307	1362.433	1022.827
52.301	13.296	1360.762	1021.416
53.315	13.314	1359.886	1020.780
54.330	13.159	1359.248	1019.251
55.344	13.187	1357.782	1018.234
56.359	13.156	1356.666	1017.119
57.374	13.134	1355.773	1016.226
58.388	13.146	1355.138	1015.735
59.403	13.087	1354.403	1014.727
60.417	13.084	1353.800	1014.167
61.432	13.152	1352.070	1013.201
62.447	13.148	1351.411	1012.594
63.461	13.089	1350.156	1011.199
64.476	13.030	1349.567	1010.312
65.490	13.026	1348.400	1009.323
66.505	13.112	1346.256	1008.154
67.520	13.088	1345.176	1007.111
68.534	13.193	1344.254	1006.971
69.549	13.143	1343.022	1005.650
70.563	13.081	1342.098	1004.494
71.578	13.097	1340.785	1003.522
72.593	13.093	1339.869	1002.723
73.607	13.081	1339.081	1001.969
74.622	13.077	1338.070	1001.103
75.636	13.070	1337.469	1000.520
76.651	12.995	1337.012	999.636
77.666	13.042	1335.993	999.066
78.680	13.022	1335.917	998.805
79.695	13.056	1335.087	998.300
80.709	13.013	1334.268	997.340
81.724	13.139	1333.083	997.128
82.739	13.124	1331.785	995.976
83.753	13.255	1330.824	995.962
84.768	13.306	1329.760	995.382
85.782	13.384	1329.021	995.209
86.797	13.331	1327.392	993.583
87.812	13.193	1326.130	991.720
88.826	13.249	1325.029	991.149
89.841	13.089	1324.599	989.780
90.855	13.272	1323.310	989.827
91.870	13.256	1322.296	988.884
92.884	13.308	1321.766	988.710
93.899	13.334	1320.863	988.100
94.914	13.362	1319.903	987.466
95.928	13.346	1319.167	986.732
96.943	13.390	1317.990	986.023
97.957	13.367	1317.588	985.499
98.972	13.257	1316.071	983.622
99.987	13.331	1314.911	983.111
101.001	13.310	1314.050	982.252
102.016	13.355	1313.249	981.832
103.030	13.373	1312.557	981.338
104.045	13.237	1311.503	979.656
105.060	13.337	1310.085	979.104
106.074	13.175	1309.040	977.277
107.089	13.151	1307.566	975.950
108.103	13.072	1306.484	974.585
109.118	13.125	1305.137	973.811
110.133	13.102	1304.064	972.785
111.147	13.241	1302.067	972.030
112.162	13.198	1300.882	970.807
113.176	13.243	1300.112	970.409
114.191	13.224	1299.374	969.659
115.206	13.174	1298.078	968.317
116.220	13.210	1296.974	967.618
117.235	13.323	1295.837	967.344
118.249	13.295	1294.647	966.208
119.264	13.260	1293.104	964.763
120.279	13.071	1292.444	963.087
121.293	13.166	1291.238	962.655
122.308	13.155	1290.065	961.633
123.322	13.105	1289.475	960.814
124.337	13.179	1288.283	960.273
125.352	13.182	1286.512	958.881
126.366	13.150	1285.799	958.080
127.381	13.161	1284.444	957.051
128.395	13.208	1283.154	956.280
129.410	13.062	1282.596	954.935
130.424	13.134	1281.981	954.806
131.439	13.204	1280.797	954.247
132.454	13.212	1279.930	953.561
133.468	13.139	1278.834	952.237
134.483	13.167	1278.196	951.843
135.497	13.289	1276.839	951.449
136.512	13.180	1275.411	949.674
137.527	13.193	1274.112	948.698
138.541	13.249	1272.787	947.946
139.556	13.197	1271.363	946.504
140.570	13.310	1270.309	946.285
141.585	13.321	1268.930	945.234
142.600	13.372	1267.912	944.683
143.614	13.402	1267.395	944.388
144.629	13.449	1265.873	943.437
145.643	13.379	1265.079	942.364
146.658	13.362	1263.804	941.234
147.673	13.401	1262.398	940.327
148.687	13.393	1260.778	938.990
149.702	13.365	1260.002	938.173
150.716	13.263	1258.318	936.253
151.731	13.422	1257.406	936.393
152.746	13.316	1256.494	935.032
153.760	13.417	1255.095	934.476
154.775	13.342	1253.901	933.085
155.789	13.409	1253.033	932.733
156.804	13.527	1251.882	932.459
157.819	13.503	1250.567	931.263
158.833	13.521	1249.723	930.649
159.848	13.582	1248.679	930.133
160.862	13.504	1247.984	929.098
161.877	13.509	1246.345	927.824
162.892	13.522	1245.370	927.090
163.906	13.525	1244.679	926.509
164.921	13.478	1243.653	925.399
165.935	13.484	1242.899	924.787
166.950	13.612	1241.948	924.717
167.964	13.629	1241.006	924.025
168.979	13.540	1240.723	923.236
169.994	13.490	1239.944	922.297
171.008	13.668	1238.948	922.465
172.023	13.718	1237.715	921.745
173.037	13.754	1236.986	921.322
174.052	13.680	1236.180	920.229
175.067	13.651	1235.252	919.292
176.081	13.604	1234.406	918.321
177.096	13.571	1233.661	917.503
178.110	13.488	1232.741	916.282
179.125	13.635	1231.003	915.720
180.140	13.592	1230.120	914.745
181.154	13.617	1228.932	913.916
182.169	13.663	1227.859	913.294
183.183	13.814	1226.235	912.834
184.198	13.678	1225.498	911.457
185.213	13.913	1223.769	911.379
186.227	13.904	1222.555	910.343
187.242	13.896	1221.539	909.467
188.256	13.879	1220.687	908.659
189.271	13.873	1220.021	908.051
190.286	13.716	1219.258	906.542
191.300	13.690	1217.991	905.380
192.315	13.743	1217.743	905.405
193.329	13.680	1216.832	904.300
194.344	13.720	1216.210	903.978
195.359	13.717	1215.992	903.719
196.373	13.857	1214.942	903.619
197.388	13.958	1214.713	903.922
198.402	13.834	1214.327	902.877
199.417	14.001	1213.235	902.894
200.432	14.102	1212.284	902.657
201.446	14.053	1211.578	901.784
202.461	14.110	1210.657	901.325
203.475	13.981	1209.593	899.755
204.490	14.102	1208.052	899.187
205.504	14.147	1206.643	898.298
206.519	14.057	1205.856	897.148
207.534	14.035	1204.647	896.050
208.548	14.029	1203.955	895.428
209.563	14.045	1203.329	894.964
210.577	13.987	1202.193	893.732
211.592	14.113	1201.228	893.614
212.607	14.178	1200.392	893.261
213.621	14.168	1199.524	892.478
214.636	14.121	1198.835	891.637
215.650	14.240	1197.830	891.447
216.665	14.316	1196.642	890.890
217.680	14.190	1196.322	889.900
218.694	14.366	1195.212	889.936
219.709	14.299	1194.410	888.903
220.723	14.371	1193.286	888.373
221.738	14.383	1192.628	887.869
222.753	14.342	1191.751	886.917
223.767	14.455	1190.987	886.870
224.782	14.364	1191.046	886.355
225.796	14.374	1190.108	885.627
226.811	14.407	1189.365	885.176
227.826	14.442	1188.509	884.644
228.840	14.416	1187.954	884.015
229.855	14.408	1187.265	883.380
230.869	14.329	1186.504	882.317
231.884	14.410	1185.832	882.171
232.899	14.363	1184.868	881.125
233.913	14.352	1184.243	880.526
234.928	14.369	1183.577	880.040
235.942	14.411	1182.403	879.311
236.957	14.386	1182.142	878.909
237.972	14.443	1181.057	878.323
238.986	14.370	1180.721	877.610
240.001	14.458	1179.938	877.418
241.015	14.424	1178.926	876.410
242.030	14.496	1177.927	875.966
243.045	14.572	1176.991	875.590
244.059	14.459	1176.816	874.788
245.074	14.620	1175.659	874.697
246.088	14.534	1174.808	873.534
247.103	14.649	1174.344	873.715
248.117	14.810	1173.154	873.594
249.132	14.709	1172.615	872.590
250.147	14.722	1172.041	872.152
251.161	14.690	1171.297	871.354
252.176	14.715	1170.452	870.777
253.190	14.755	1170.090	870.641
254.205	14.806	1169.223	870.184
255.220	14.771	1168.965	869.732
256.234	14.949	1168.103	869.937
257.249	14.841	1167.541	868.882
258.263	15.000	1165.988	868.476
259.278	14.864	1166.014	867.710
260.293	15.046	1165.416	868.133
261.307	15.012	1165.077	867.628
262.322	14.979	1164.654	867.065
263.336	15.122	1163.762	867.067
264.351	15.110	1163.090	866.425
265.366	15.061	1162.403	865.587
266.380	14.970	1161.782	864.577
267.395	15.056	1160.571	864.044
268.409	14.989	1160.027	863.212
269.424	14.998	1159.384	862.708
270.439	14.992	1158.884	862.228
271.453	15.068	1157.776	861.716
272.468	15.184	1156.714	861.446
273.482	15.118	1156.110	860.583
274.497	15.108	1155.643	860.107
275.512	15.154	1155.041	859.820
276.526	15.057	1154.408	858.774
277.541	15.099	1154.006	858.613
278.555	15.157	1153.140	858.191
279.570	15.091	1152.050	856.964
280.585	15.276	1151.155	857.172
281.599	15.286	1150.147	856.394
282.614	15.294	1148.954	855.472
283.628	15.280	1148.312	854.846
284.643	15.328	1147.136	854.138
285.657	15.295	1146.459	853.392
286.672	15.251	1145.461	852.351
287.687	15.272	1144.562	851.712
288.701	15.386	1143.567	851.473
289.716	15.289	1143.067	850.536
290.730	15.432	1142.310	850.620
291.745	15.470	1141.716	850.299
292.760	15.427	1140.833	849.347
293.774	15.316	1140.613	848.544
294.789	15.518	1139.335	848.541
295.803	15.523	1139.509	848.622
296.818	15.415	1138.544	847.281
297.833	15.419	1137.768	846.652
298.847	15.425	1136.974	846.013
299.862	15.340	1136.144	844.896
300.876	15.454	1135.540	844.945
301.891	15.638	1135.015	845.403
302.906	15.630	1134.227	844.703
303.920	15.674	1133.461	844.277
304.935	15.550	1132.931	843.185
305.949	15.628	1132.212	842.965
306.964	15.725	1131.480	842.831
307.979	15.845	1130.540	842.658
308.993	15.825	1129.722	841.873
310.008	15.702	1129.409	840.951
311.022	15.829	1128.337	840.715
312.037	15.705	1128.030	839.793
313.052	15.667	1127.029	838.783
314.066	15.539	1126.201	837.455
315.081	15.620	1125.169	837.016
316.095	15.757	1124.488	837.117
317.110	15.794	1123.356	836.385
318.125	15.658	1123.101	835.443
319.139	15.615	1122.600	834.783
320.154	15.750	1121.751	834.749
321.168	15.803	1120.935	834.332
322.183	15.729	1120.490	833.560
323.197	15.729	1119.715	832.907
324.212	15.822	1118.785	832.602
325.227	15.843	1118.315	832.282
326.241	15.854	1117.919	831.968
327.256	15.855	1116.900	831.143
328.270	15.793	1116.290	830.308
329.285	15.747	1115.318	829.288
330.300	15.836	1113.774	828.502
331.314	15.845	1113.315	828.132
332.329	15.919	1111.877	827.356
333.343	16.034	1111.340	827.442
334.358	15.931	1110.257	826.062
335.373	15.965	1109.923	825.903
336.387	16.066	1108.770	825.467
337.402	15.991	1108.676	824.959
338.416	16.017	1107.755	824.330
339.431	16.103	1107.062	824.162
340.446	16.196	1106.401	824.048
341.460	16.134	1105.881	823.284
342.475	16.128	1104.941	822.486
343.489	16.125	1104.139	821.800
344.504	16.280	1102.988	821.625
345.519	16.195	1102.370	820.680
346.533	16.172	1101.700	819.993
347.548	16.285	1100.817	819.815
348.562	16.272	1100.099	819.146
349.577	16.258	1099.294	818.405
350.592	16.285	1098.241	817.678
351.606	16.158	1097.688	816.581
352.621	16.185	1097.342	816.379
353.635	16.121	1096.334	815.248
354.650	16.158	1095.754	814.923
355.665	16.167	1095.012	814.345
356.679	16.252	1094.173	814.056
357.694	16.330	1093.799	814.081
358.708	16.408	1092.965	813.767
359.723	16.346	1092.712	813.210
360.738	16.514	1091.474	813.022
361.752	16.425	1091.484	812.530
362.767	16.327	1090.761	811.447
363.781	16.433	1090.033	811.345
364.796	16.506	1089.469	811.203
365.810	16.514	1088.866	810.721
366.825	16.501	1088.424	810.255
367.840	16.556	1087.972	810.111
368.854	16.632	1087.720	810.217
369.869	16.662	1086.510	809.386
370.883	16.631	1085.280	808.250
371.898	16.746	1084.509	808.153
372.913	16.550	1083.788	806.610
373.927	16.694	1083.527	807.031
374.942	16.711	1083.440	806.978
375.956	16.706	1082.502	806.185
376.971	16.658	1081.847	805.394
377.986	16.667	1081.543	805.139
379.000	16.727	1080.902	804.879
380.015	16.858	1080.283	804.965
381.029	16.740	1079.684	803.891
382.044	16.787	1078.838	803.412
383.059	16.762	1078.362	802.866
384.073	16.896	1077.504	802.793
385.088	16.838	1076.227	801.495
386.102	16.873	1075.594	801.119
387.117	16.851	1074.597	800.201
388.132	16.858	1073.725	799.514
389.146	16.804	1073.234	798.823
390.161	16.767	1072.508	798.039
391.175	16.821	1071.711	797.627
392.190	16.851	1071.141	797.276
393.205	16.897	1070.541	796.975
394.219	17.027	1069.518	796.752
395.234	17.090	1068.440	796.176
396.248	16.941	1067.423	794.648
397.263	17.056	1066.267	794.253
398.278	16.901	1065.734	793.061
399.292	16.838	1065.458	792.491
400.307	16.833	1064.953	792.026
401.321	16.920	1063.826	791.520
402.336	17.010	1063.158	791.372
403.350	16.953	1062.172	790.303
404.365	16.991	1061.719	790.074
405.380	17.043	1061.142	789.818
406.394	17.055	1060.524	789.343
407.409	17.075	1059.298	788.454
408.423	17.276	1058.521	788.739
409.438	17.071	1058.032	787.355
410.453	17.171	1057.413	787.289
411.467	17.315	1056.870	787.482
412.482	17.196	1056.321	786.450
413.496	17.399	1055.618	786.797
414.511	17.244	1055.235	785.725
415.526	17.351	1054.357	785.497
416.540	17.340	1054.346	785.366
417.555	17.371	1053.779	785.017
418.569	17.372	1053.109	784.452
419.584	17.402	1052.463	784.043
420.599	17.369	1052.174	783.607
421.613	108.014	1330.832	1487.655
422.628	99.471	1371.357	1487.741
