DTS Sentinel unit serial number:	SN413079Multiplexer serial number:	ORYXHardware model number:	OX4-SRSoftware version number:	ORYX F/W v4.00 Oryx Data Collector v3.7.2.0data status	okinstallation	princeton_trtdifferential loss correction	single-endedforward channel	channel 2reverse channel	N/Adate	2019/09/13time	18:07:34forward acquisition time	60.00reverse acquisition time	0.00gamma	496.2192k internal	0.2317k external	0.2317temperature offset calibration	1.0202default loss term (dB/km)	0.3790temperature slope calibration	1.0000multiplexer offset coefficient	1.0000multiplexer slope coefficient	1.0000fibre end	0.00T internal ref (°C)	34.62T ext. ref 1 (°C)	4.59T ext. ref 2 (°C)	27.46length (m)	temperature (°C)	Stokes	anti-Stokes-747.200	-200.000	-0.014	-0.102
-746.185	385.495	0.031	0.066
-745.171	136.850	-0.083	-0.110
-744.156	684.491	0.059	-0.156
-743.142	22.708	0.177	-0.147
-742.127	-145.347	-0.085	-0.008
-741.112	-99.493	0.406	-0.103
-740.098	361.004	-0.113	0.228
-739.083	185.521	0.023	-0.035
-738.069	14.732	0.032	-0.026
-737.054	-200.000	-0.009	0.323
-736.039	-88.290	-0.272	-0.082
-735.025	9.320	0.292	-0.224
-734.010	-200.000	0.007	-0.233
-732.996	-200.000	0.011	-0.323
-731.981	256.484	0.146	-0.254
-730.966	-88.214	-0.047	0.014
-729.952	-118.620	-0.215	0.039
-728.937	-73.481	-0.124	-0.046
-727.923	178.023	-0.033	-0.049
-726.908	-168.471	0.049	-0.002
-725.894	-60.005	0.194	0.084
-724.879	-200.000	0.056	-0.311
-723.864	381.991	0.144	-0.299
-722.850	-200.000	-0.015	0.189
-721.835	800.000	-0.014	0.052
-720.821	187.848	-0.178	0.269
-719.806	-14.508	-0.213	-0.138
-718.791	-38.567	-0.208	-0.111
-717.777	134.723	-0.098	-0.129
-716.762	-1.242	0.079	-0.056
-715.748	124.918	0.123	0.157
-714.733	-145.374	0.194	0.018
-713.718	282.044	-0.130	-0.236
-712.704	-164.169	0.228	-0.011
-711.689	77.209	-0.255	-0.275
-710.675	800.000	-0.093	-0.372
-709.660	156.247	0.206	0.287
-708.645	-103.035	-0.081	-0.019
-707.631	84.940	-0.120	0.133
-706.616	-200.000	-0.008	0.135
-705.602	800.000	-0.087	-0.359
-704.587	301.936	-0.212	-0.397
-703.572	571.424	-0.131	-0.322
-702.558	569.479	0.111	-0.274
-701.543	800.000	0.137	-0.390
-700.529	385.129	0.045	0.093
-699.514	52.750	0.124	0.119
-698.499	-49.184	-0.154	-0.074
-697.485	-86.337	-0.260	0.081
-696.470	-3.783	-0.179	-0.126
-695.456	-200.000	-0.019	0.254
-694.441	-130.541	0.020	-0.003
-693.426	328.188	-0.130	0.252
-692.412	-0.156	0.150	-0.108
-691.397	188.843	-0.185	0.280
-690.383	800.000	0.076	0.237
-689.368	235.271	-0.169	-0.283
-688.354	-77.754	-0.510	-0.178
-687.339	800.000	0.120	-0.352
-686.324	800.000	-0.066	0.203
-685.310	-200.000	-0.002	0.145
-684.295	465.309	-0.186	-0.420
-683.281	800.000	0.084	0.305
-682.266	229.556	-0.052	0.085
-681.251	800.000	0.105	-0.332
-680.237	659.620	0.034	-0.089
-679.222	331.604	-0.113	0.219
-678.208	39.187	0.175	-0.158
-677.193	-200.000	-0.077	-0.405
-676.178	-77.077	0.189	0.067
-675.164	-39.786	-0.199	-0.105
-674.149	19.641	0.200	0.162
-673.135	322.429	0.075	-0.143
-672.120	-200.000	0.067	-0.356
-671.105	-30.084	-0.346	-0.199
-670.091	-28.408	0.087	-0.051
-669.076	222.974	0.147	-0.240
-668.062	681.320	-0.119	-0.314
-667.047	-13.787	0.204	0.133
-666.032	48.447	0.368	0.347
-665.018	594.372	-0.078	0.195
-664.003	212.325	0.071	0.114
-662.989	-95.598	-0.115	-0.031
-661.974	481.414	-0.083	-0.190
-660.959	-200.000	-0.089	0.401
-659.945	-139.239	0.412	-0.045
-658.930	-147.472	0.271	0.023
-657.916	-83.733	-0.152	0.049
-656.901	-200.000	-0.071	-0.342
-655.886	239.684	0.106	-0.179
-654.872	661.738	-0.121	-0.315
-653.857	63.089	-0.010	0.010
-652.843	194.101	-0.022	0.033
-651.828	188.803	0.133	0.201
-650.814	4.113	0.025	0.018
-649.799	-115.247	0.138	-0.026
-648.784	70.930	-0.116	-0.121
-647.770	376.534	-0.034	-0.070
-646.755	-200.000	0.014	-0.067
-645.741	-105.003	0.242	-0.056
-644.726	-111.318	-0.156	-0.032
-643.711	-9.876	0.137	-0.092
-642.697	-29.038	0.371	0.215
-641.682	351.027	0.056	0.112
-640.668	-8.925	0.325	-0.220
-639.653	329.833	0.106	0.206
-638.638	58.456	-0.124	-0.122
-637.624	21.750	0.233	0.192
-636.609	-55.096	-0.245	0.111
-635.595	125.968	0.187	-0.239
-634.580	-188.585	0.300	-0.004
-633.565	-81.864	-0.034	-0.011
-632.551	-92.603	0.523	0.148
-631.536	800.000	-0.107	-0.299
-630.522	103.497	0.300	-0.355
-629.507	-200.000	0.013	0.207
-628.492	-7.058	0.279	0.191
-627.478	800.000	-0.076	-0.319
-626.463	53.210	-0.222	-0.215
-625.449	259.228	0.127	0.221
-624.434	308.432	0.092	-0.173
-623.419	304.243	-0.116	-0.218
-622.405	-200.000	0.017	-0.080
-621.390	7.441	0.120	0.091
-620.376	-200.000	-0.025	0.123
-619.361	259.473	-0.160	-0.278
-618.346	207.636	-0.051	0.080
-617.332	800.000	0.062	-0.234
-616.317	800.000	0.028	-0.118
-615.303	-20.601	0.400	0.248
-614.288	219.292	0.111	0.179
-613.273	-23.259	-0.229	-0.139
-612.259	800.000	0.041	0.125
-611.244	-147.002	-0.256	0.022
-610.230	51.719	-0.233	-0.223
-609.215	372.922	0.173	0.354
-608.201	159.356	-0.227	-0.318
-607.186	-36.000	0.045	0.025
-606.171	77.979	0.224	0.241
-605.157	-200.000	0.020	-0.135
-604.142	98.633	0.083	0.097
-603.128	-200.000	-0.017	-0.146
-602.113	124.862	0.106	-0.135
-601.098	264.137	0.161	-0.282
-600.084	254.596	-0.159	-0.275
-599.069	-96.343	-0.382	0.102
-598.055	12.610	0.224	0.174
-597.040	-87.415	0.113	0.034
-596.025	-200.000	-0.033	-0.294
-595.011	-140.220	-0.191	-0.020
-593.996	-52.609	-0.164	0.076
-592.982	800.000	0.056	-0.192
-591.967	193.033	-0.071	0.108
-590.952	-53.207	-0.236	-0.109
-589.938	-113.927	0.114	-0.022
-588.923	-200.000	0.017	0.155
-587.909	65.273	-0.257	0.261
-586.894	-200.000	-0.027	-0.151
-585.879	-101.130	-0.255	-0.063
-584.865	800.000	0.118	-0.400
-583.850	234.032	-0.169	-0.280
-582.836	-200.000	0.017	-0.221
-581.821	80.116	-0.250	-0.270
-580.806	49.105	0.196	0.185
-579.792	800.000	-0.023	0.080
-578.777	-200.000	0.023	0.146
-577.763	-38.834	-0.285	-0.151
-576.748	800.000	0.058	-0.193
-575.733	21.741	-0.196	-0.160
-574.719	800.000	-0.059	-0.230
-573.704	217.271	0.048	-0.077
-572.690	-71.510	-0.511	-0.192
-571.675	-68.884	0.193	-0.075
-570.661	15.509	-0.270	-0.213
-569.646	-25.914	0.248	-0.147
-568.631	-41.121	-0.178	0.092
-567.617	-55.266	-0.061	0.028
-566.602	13.176	0.401	-0.312
-565.588	-200.000	-0.047	0.223
-564.573	-10.018	0.242	-0.162
-563.558	-116.763	-0.020	0.004
-562.544	-200.000	0.026	0.339
-561.529	-200.000	-0.010	-0.056
-560.515	-102.061	0.055	-0.013
-559.500	800.000	-0.038	-0.134
-558.485	-127.001	0.100	-0.015
-557.471	185.372	0.092	0.137
-556.456	800.000	-0.023	0.070
-555.442	800.000	0.054	0.182
-554.427	83.617	-0.112	-0.122
-553.412	105.287	-0.061	-0.072
-552.398	95.316	0.135	0.155
-551.383	-131.612	0.328	-0.043
-550.369	262.693	0.123	0.215
-549.354	111.558	0.143	0.173
-548.339	142.848	-0.244	0.326
-547.325	40.064	-0.158	0.143
-546.310	800.000	0.026	0.112
-545.296	800.000	-0.067	-0.195
-544.281	-200.000	0.020	-0.195
-543.266	-200.000	0.001	-0.228
-542.252	678.376	0.079	-0.206
-541.237	-200.000	0.010	-0.177
-540.223	-200.000	0.008	-0.144
-539.208	-68.140	0.159	0.062
-538.193	800.000	0.099	-0.294
-537.179	-10.679	-0.257	-0.171
-536.164	800.000	0.106	-0.357
-535.150	-6.875	-0.141	-0.097
-534.135	48.488	-0.162	-0.153
-533.121	800.000	0.036	-0.140
-532.106	-200.000	-0.011	-0.073
-531.091	227.118	-0.113	-0.184
-530.077	800.000	-0.030	-0.114
-529.062	-200.000	-0.037	-0.268
-528.048	-136.830	0.165	0.019
-527.033	-200.000	-0.011	-0.346
-526.018	321.061	0.164	-0.313
-525.004	192.056	-0.172	0.261
-523.989	-200.000	0.003	-0.055
-522.975	90.080	-0.253	-0.284
-521.960	-174.749	0.140	-0.004
-520.945	-116.659	0.157	-0.029
-519.931	-135.172	0.162	-0.020
-518.916	-200.000	-0.008	0.192
-517.902	319.055	0.063	0.121
-516.887	-200.000	-0.026	-0.371
-515.872	-39.029	0.185	0.098
-514.858	-118.852	-0.326	0.057
-513.843	-168.411	-0.521	0.020
-512.829	-200.000	-0.023	0.259
-511.814	-152.861	0.199	0.014
-510.799	340.780	0.121	0.236
-509.785	-77.307	0.114	-0.040
-508.770	-102.967	-0.172	0.041
-507.756	800.000	-0.077	0.322
-506.741	95.804	-0.082	0.094
-505.726	-200.000	0.037	0.174
-504.712	-154.686	-0.079	0.005
-503.697	800.000	0.090	-0.281
-502.683	-20.799	0.052	-0.032
-501.668	15.741	-0.115	-0.091
-500.653	-200.000	-0.034	0.157
-499.639	-179.146	0.326	0.007
-498.624	336.942	-0.096	0.187
-497.610	-29.713	0.118	0.068
-496.595	800.000	0.040	0.153
-495.581	-200.000	0.016	0.247
-494.566	-200.000	0.008	0.058
-493.551	-65.247	-0.495	-0.200
-492.537	-94.834	-0.362	0.098
-491.522	-177.524	0.156	-0.004
-490.508	-18.377	0.218	0.137
-489.493	13.316	-0.313	0.243
-488.478	800.000	0.073	-0.298
-487.464	-126.143	0.092	-0.014
-486.449	56.289	0.152	-0.148
-485.435	800.000	-0.036	0.148
-484.420	503.644	0.134	-0.310
-483.405	153.399	0.144	-0.198
-482.391	-9.732	0.176	0.118
-481.376	107.309	0.335	0.399
-480.362	-53.153	-0.160	-0.073
-479.347	-58.030	-0.218	-0.095
-478.332	80.159	0.116	0.125
-477.318	-200.000	0.026	0.183
-476.303	142.305	-0.156	0.207
-475.289	-200.000	0.002	-0.066
-474.274	-200.000	-0.010	-0.159
-473.259	20.390	0.108	0.088
-472.245	1.060	-0.260	0.187
-471.230	291.453	-0.104	0.190
-470.216	800.000	-0.083	0.306
-469.201	647.156	0.051	0.130
-468.186	419.636	0.188	0.403
-467.172	167.598	-0.122	-0.173
-466.157	116.032	0.313	-0.384
-465.143	-200.000	0.006	0.144
-464.128	-46.832	0.303	-0.149
-463.113	-3.538	-0.136	-0.095
-462.099	-200.000	0.007	-0.178
-461.084	-200.000	0.000	0.318
-460.070	62.007	0.229	-0.228
-459.055	31.263	-0.116	0.100
-458.040	-112.557	-0.147	-0.029
-457.026	100.764	0.056	-0.065
-456.011	37.202	-0.083	-0.074
-454.997	249.447	-0.134	-0.228
-453.982	-200.000	0.014	0.135
-452.968	-200.000	-0.007	0.207
-451.953	-18.379	-0.245	0.153
-450.938	26.772	0.387	-0.324
-449.924	92.789	-0.006	-0.007
-448.909	-40.747	-0.092	-0.048
-447.895	-70.433	0.295	0.112
-446.880	33.442	-0.210	0.183
-445.865	585.647	-0.017	0.041
-444.851	-118.945	-0.328	-0.058
-443.836	395.899	-0.101	0.212
-442.822	-107.777	0.109	0.024
-441.807	800.000	-0.031	-0.124
-440.792	161.797	0.164	-0.230
-439.778	45.738	0.107	0.099
-438.763	-106.624	0.230	-0.051
-437.749	342.407	-0.080	-0.157
-436.734	-56.510	-0.220	0.098
-435.719	-79.776	-0.244	0.082
-434.705	38.514	0.158	0.141
-433.690	-146.426	0.268	0.023
-432.676	-200.000	0.054	0.430
-431.661	295.988	-0.053	0.097
-430.646	-155.718	-0.227	0.015
-429.632	200.016	0.208	-0.319
-428.617	-200.000	0.031	-0.160
-427.603	-43.620	0.178	-0.090
-426.588	-111.885	-0.227	-0.046
-425.573	39.833	0.209	0.188
-424.559	-200.000	-0.003	0.043
-423.544	137.992	-0.153	-0.200
-422.530	31.694	0.063	-0.055
-421.515	-200.000	-0.038	-0.414
-420.500	-144.360	0.105	-0.010
-419.486	105.089	-0.181	0.214
-418.471	-125.271	-0.249	0.038
-417.457	-130.867	0.379	0.051
-416.442	-156.059	0.092	0.006
-415.428	-19.436	0.126	0.078
-414.413	251.425	-0.083	-0.142
-413.398	800.000	0.020	0.064
-412.384	123.985	-0.091	0.114
-411.369	9.778	0.221	-0.168
-410.355	348.095	0.103	0.203
-409.340	800.000	0.131	-0.364
-408.325	-21.743	0.235	-0.143
-407.311	-200.000	0.003	-0.229
-406.296	-143.720	-0.347	0.033
-405.282	-63.087	-0.123	0.051
-404.267	563.969	0.055	-0.132
-403.252	-124.680	0.234	0.036
-402.238	-200.000	-0.040	0.483
-401.223	121.842	0.049	0.061
-400.209	663.597	-0.193	-0.496
-399.194	-7.669	0.034	-0.023
-398.179	-35.401	0.140	0.076
-397.165	-44.383	0.192	0.096
-396.150	-22.589	-0.173	0.105
-395.136	9.132	-0.233	0.176
-394.121	-149.896	0.384	0.030
-393.106	-175.103	-0.079	0.002
-392.092	64.317	-0.109	-0.109
-391.077	800.000	-0.081	0.265
-390.063	-107.675	0.230	-0.050
-389.048	-89.565	0.116	-0.034
-388.033	-28.737	-0.382	0.220
-387.019	-8.530	0.356	-0.239
-386.004	177.041	0.137	-0.199
-384.990	-40.627	-0.189	0.098
-383.975	800.000	-0.045	-0.176
-382.960	-139.736	0.086	0.009
-381.946	-200.000	-0.023	-0.316
-380.931	-43.267	0.324	-0.163
-379.917	-23.864	0.027	0.016
-378.902	-10.499	-0.030	-0.020
-377.888	185.201	-0.076	0.113
-376.873	-108.639	-0.141	0.030
-375.858	17.021	-0.127	0.101
-374.844	-200.000	0.066	0.598
-373.829	206.060	-0.218	-0.339
-372.815	-140.092	-0.252	-0.026
-371.800	45.429	0.053	0.049
-370.785	364.316	0.095	0.191
-369.771	171.448	0.176	-0.252
-368.756	70.680	0.129	-0.133
-367.742	26.136	0.114	0.095
-366.727	24.897	-0.076	0.063
-365.712	319.346	-0.062	-0.118
-364.698	-67.705	-0.205	0.080
-363.683	-50.515	-0.179	0.084
-362.669	288.871	0.038	-0.068
-361.654	30.980	0.140	0.120
-360.639	29.784	-0.095	-0.081
-359.625	-200.000	0.034	-0.162
-358.610	-200.000	0.039	0.184
-357.596	130.425	-0.298	0.380
-356.581	196.270	-0.094	0.142
-355.566	-6.487	-0.137	-0.093
-354.552	-65.820	0.079	-0.031
-353.537	791.671	-0.036	0.100
-352.523	220.829	0.195	-0.311
-351.508	-6.110	0.430	0.293
-350.493	-24.795	-0.215	-0.128
-349.479	-70.798	-0.265	-0.100
-348.464	257.940	0.241	0.414
-347.450	-200.000	-0.003	0.338
-346.435	578.736	0.070	0.172
-345.420	-18.322	0.033	-0.020
-344.406	97.472	0.202	0.232
-343.391	-131.990	-0.347	-0.045
-342.377	-77.072	-0.307	0.107
-341.362	-34.406	0.128	-0.070
-340.348	538.355	0.094	0.222
-339.333	43.235	-0.269	0.245
-338.318	-4.161	-0.122	0.084
-337.304	-118.484	-0.077	0.014
-336.289	-200.000	0.007	0.254
-335.275	-141.133	-0.348	-0.035
-334.260	-0.435	-0.153	0.108
-333.245	800.000	0.084	-0.297
-332.231	190.785	-0.145	-0.217
-331.216	189.532	-0.227	-0.339
-330.202	93.922	-0.037	0.042
-329.187	40.399	-0.203	0.182
-328.172	14.580	-0.059	-0.046
-327.158	-147.959	-0.163	0.014
-326.143	-200.000	0.051	0.261
-325.129	-200.000	0.005	-0.039
-324.114	-53.894	-0.199	-0.090
-323.099	311.140	-0.216	0.403
-322.085	115.185	-0.059	-0.072
-321.070	-44.051	0.276	-0.138
-320.056	-158.354	0.284	0.016
-319.041	-47.225	-0.206	-0.100
-318.026	-115.399	-0.123	-0.023
-317.012	320.678	0.094	0.178
-315.997	-118.979	-0.108	-0.019
-314.983	-200.000	-0.021	0.295
-313.968	-166.597	-0.269	-0.011
-312.953	-101.414	0.142	-0.035
-311.939	-200.000	-0.062	0.281
-310.924	566.282	-0.109	-0.263
-309.910	-59.744	0.208	-0.089
-308.895	228.448	0.189	0.306
-307.880	218.196	0.066	0.104
-306.866	-200.000	-0.039	-0.275
-305.851	653.084	-0.057	-0.145
-304.837	25.057	0.122	-0.101
-303.822	11.417	0.077	0.059
-302.807	-200.000	-0.007	0.197
-301.793	800.000	-0.012	-0.042
-300.778	800.000	-0.065	0.222
-299.764	4.933	0.136	-0.100
-298.749	323.941	-0.246	0.466
-297.735	770.984	0.066	-0.180
-296.720	-200.000	-0.043	-0.241
-295.705	345.176	-0.050	0.097
-294.691	-192.793	0.380	0.003
-293.676	-200.000	0.029	-0.198
-292.662	366.638	-0.140	-0.282
-291.647	103.287	-0.131	-0.153
-290.632	211.358	0.030	-0.047
-289.618	35.260	0.281	-0.245
-288.603	-200.000	-0.006	0.149
-287.589	797.324	-0.082	0.224
-286.574	-200.000	-0.031	0.138
-285.559	-91.708	-0.295	0.083
-284.545	25.210	0.167	0.138
-283.530	-200.000	-0.003	-0.049
-282.516	-9.156	-0.107	0.071
-281.501	-142.249	-0.244	0.024
-280.486	800.000	-0.100	0.291
-279.472	156.915	0.143	0.196
-278.457	124.979	0.051	-0.063
-277.443	-75.986	0.448	-0.157
-276.428	-200.000	0.011	-0.104
-275.413	-123.895	0.190	-0.030
-274.399	-200.000	0.055	0.602
-273.384	-200.000	0.053	0.392
-272.370	-123.685	0.148	-0.023
-271.355	24.248	-0.127	0.104
-270.340	-185.062	0.107	0.002
-269.326	-200.000	-0.003	0.224
-268.311	-200.000	0.063	0.444
-267.297	800.000	-0.046	-0.179
-266.282	510.626	0.132	-0.305
-265.267	623.191	-0.073	0.183
-264.253	-112.199	-0.141	0.028
-263.238	-179.879	-0.047	0.001
-262.224	230.411	-0.080	-0.131
-261.209	76.448	-0.152	-0.160
-260.195	800.000	0.034	-0.105
-259.180	800.000	0.048	-0.182
-258.165	44.223	0.208	0.190
-257.151	133.358	0.156	-0.201
-256.136	800.000	0.072	0.228
-255.122	59.511	0.177	-0.174
-254.107	263.833	0.177	0.305
-253.092	-74.292	-0.018	0.006
-252.078	-200.000	-0.011	-0.049
-251.063	-120.386	0.059	-0.010
-250.049	283.680	0.147	0.262
-249.034	24.782	-0.042	0.035
-248.019	-74.333	0.162	-0.058
-247.005	-200.000	-0.063	-0.323
-245.990	-200.000	-0.033	-0.409
-244.976	-116.357	-0.121	0.022
-243.961	18.278	0.019	0.015
-242.946	-144.943	-0.067	0.006
-241.932	407.656	-0.037	-0.078
-240.917	-41.740	-0.080	0.041
-239.903	203.811	0.070	0.108
-238.888	-7.170	0.423	0.285
-237.873	-12.493	-0.125	-0.081
-236.859	1.654	0.076	-0.054
-235.844	195.832	0.092	-0.139
-234.830	-102.483	0.344	0.082
-233.815	69.308	0.205	-0.209
-232.800	119.503	-0.147	0.180
-231.786	569.850	0.159	0.384
-230.771	-50.691	-0.362	0.169
-229.757	556.267	-0.125	-0.298
-228.742	118.554	-0.094	-0.115
-227.727	-69.194	-0.249	-0.095
-226.713	261.262	0.100	-0.172
-225.698	-65.400	0.402	-0.160
-224.684	-106.359	-0.292	0.065
-223.669	-200.000	0.002	0.375
-222.655	54.030	0.149	0.142
-221.640	800.000	-0.049	-0.185
-220.625	-56.528	-0.201	0.088
-219.611	288.147	-0.099	0.178
-218.596	306.420	-0.017	-0.032
-217.582	127.351	-0.042	-0.053
-216.567	800.000	0.038	-0.162
-215.552	207.122	-0.038	-0.059
-214.538	14.544	0.168	0.130
-213.523	48.585	0.128	-0.119
-212.509	438.959	0.102	0.220
-211.494	248.902	-0.092	0.154
-210.479	800.000	-0.076	0.302
-209.465	-34.568	0.095	0.052
-208.450	669.907	0.064	0.164
-207.436	800.000	0.092	-0.262
-206.421	-74.283	-0.279	0.100
-205.406	210.715	-0.123	-0.191
-204.392	269.833	0.084	-0.147
-203.377	800.000	0.032	0.113
-202.363	-200.000	-0.003	0.234
-201.348	29.170	-0.213	0.180
-200.333	800.000	-0.153	-0.458
-199.319	146.648	-0.196	-0.261
-198.304	-141.842	-0.347	-0.034
-197.290	-42.333	-0.074	0.037
-196.275	-97.160	0.215	0.056
-195.260	800.000	0.115	0.348
-194.246	-96.596	0.165	-0.043
-193.231	54.900	0.218	-0.209
-192.217	-71.562	-0.317	-0.117
-191.202	800.000	0.061	0.222
-190.187	763.104	-0.044	-0.118
-189.173	-200.000	-0.010	0.197
-188.158	800.000	-0.117	-0.324
-187.144	-50.396	-0.192	0.090
-186.129	315.683	-0.076	-0.141
-185.114	-45.001	-0.412	-0.203
-184.100	531.782	0.082	0.193
-183.085	294.615	-0.111	-0.201
-182.071	-200.000	-0.004	0.221
-181.056	-106.867	0.294	-0.064
-180.042	82.342	-0.112	-0.120
-179.027	-200.000	0.036	-0.202
-178.012	56.440	-0.081	0.078
-176.998	69.771	-0.285	-0.291
-175.983	-33.880	0.375	-0.204
-174.969	-26.886	0.130	-0.075
-173.954	-34.802	-0.098	-0.053
-172.939	-200.000	0.054	-0.252
-171.925	-13.244	0.246	-0.158
-170.910	-64.516	-0.409	-0.165
-169.896	-77.341	-0.500	0.172
-168.881	-44.008	0.089	0.044
-167.866	141.373	0.100	0.131
-166.852	-98.833	0.055	-0.014
-165.837	-200.000	0.025	0.256
-164.823	800.000	-0.056	0.163
-163.808	253.456	0.239	0.404
-162.793	800.000	0.074	0.238
-161.779	164.489	-0.158	0.221
-160.764	-50.936	0.253	0.118
-159.750	-26.100	0.210	0.122
-158.735	-41.615	0.363	0.185
-157.720	594.536	0.040	-0.098
-156.706	-119.513	-0.289	-0.049
-155.691	75.865	-0.110	-0.115
-154.677	800.000	-0.030	-0.097
-153.662	-100.732	-0.362	-0.088
-152.647	-200.000	0.102	0.616
-151.633	-96.542	-0.191	-0.050
-150.618	-74.250	0.295	0.105
-149.604	-94.741	0.184	-0.049
-148.589	800.000	-0.027	0.116
-147.574	-77.065	0.206	-0.071
-146.560	-178.437	-0.576	0.013
-145.545	-200.000	-0.035	0.156
-144.531	14.163	-0.304	-0.234
-143.516	243.989	-0.056	-0.093
-142.502	-200.000	0.029	0.204
-141.487	-154.215	0.138	-0.009
-140.472	-200.000	0.048	0.306
-139.458	226.233	0.143	0.229
-138.443	-145.477	0.032	0.003
-137.429	-200.000	0.009	-0.066
-136.414	-7.119	0.121	-0.081
-135.399	-200.000	-0.050	0.293
-134.385	800.000	-0.027	-0.077
-133.370	3.884	0.163	0.117
-132.356	73.936	-0.291	0.302
-131.341	198.848	-0.104	-0.157
-130.326	-175.463	0.224	-0.006
-129.312	-53.221	-0.126	0.057
-128.297	-46.822	-0.275	-0.133
-127.283	313.099	-0.050	0.094
-126.268	-57.352	0.318	-0.138
-125.253	483.224	0.060	0.135
-124.239	245.329	0.075	0.124
-123.224	50.606	0.114	-0.106
-122.210	-131.860	-0.193	-0.025
-121.195	227.796	0.141	0.227
-120.180	58.385	0.100	-0.097
-119.166	800.000	-0.047	0.167
-118.151	35.385	0.080	0.070
-117.137	-57.027	0.088	-0.038
-116.122	37.822	-0.120	0.106
-115.107	184.233	-0.089	-0.130
-114.093	-200.000	0.013	-0.283
-113.078	-159.530	-0.113	0.006
-112.064	114.095	0.119	-0.142
-111.049	-55.787	0.122	-0.054
-110.034	45.012	0.052	-0.047
-109.020	-200.000	0.085	-0.372
-108.005	107.803	0.176	-0.207
-106.991	-200.000	-0.005	-0.097
-105.976	158.020	0.124	-0.170
-104.962	-65.814	-0.268	0.106
-103.947	-125.760	-0.131	-0.020
-102.932	-200.000	-0.010	-0.079
-101.918	56.588	0.118	0.113
-100.903	-200.000	0.069	0.355
-99.889	40.756	-0.117	0.104
-98.874	-200.000	-0.019	0.160
-97.859	77.992	0.049	-0.051
-96.845	415.750	0.103	0.217
-95.830	148.175	-0.188	0.250
-94.816	360.402	0.152	0.300
-93.801	800.000	0.075	0.317
-92.786	-43.001	0.246	0.123
-91.772	208.676	0.149	-0.231
-90.757	335.903	0.127	0.244
-89.743	-25.507	-0.175	-0.102
-88.728	53.950	-0.181	-0.172
-87.713	95.475	-0.162	-0.183
-86.699	193.458	-0.059	-0.088
-85.684	-121.814	-0.262	0.043
-84.670	-4.832	-0.236	0.161
-83.655	132.261	-0.221	-0.281
-82.640	-94.934	0.109	-0.029
-81.626	-2.897	-0.104	0.072
-80.611	-200.000	-0.034	-0.175
-79.597	427.763	-0.059	-0.126
-78.582	-70.828	-0.333	-0.124
-77.567	48.828	-0.101	-0.094
-76.553	101.792	0.085	0.098
-75.538	5.793	-0.412	0.300
-74.524	-17.613	0.313	-0.194
-73.509	-200.000	0.173	0.000
-72.494	110.503	0.181	0.215
-71.480	7.145	-0.172	0.127
-70.465	800.000	-0.094	0.260
-69.451	-18.412	-0.082	0.051
-68.436	387.889	0.070	0.143
-67.422	-55.899	-0.157	0.069
-66.407	229.377	0.161	0.260
-65.392	354.518	-0.091	0.179
-64.378	87.777	-0.279	-0.305
-63.363	-87.019	0.123	-0.037
-62.349	19.215	-0.129	0.102
-61.334	156.418	-0.733	-0.998
-60.319	65.779	0.363	0.363
-59.305	-200.000	-0.208	-1.103
-58.290	201.546	0.394	0.599
-57.276	473.656	0.808	1.796
-56.261	-200.000	97.875	583.831
-55.246	631.763	1404.643	3505.722
-54.232	187.086	2612.454	3838.340
-53.217	115.051	2297.629	2763.560
-52.203	44.074	1914.186	1729.601
-51.188	37.826	1704.000	1491.992
-50.173	35.102	1659.077	1432.262
-49.159	52.764	1706.930	1607.831
-48.144	55.825	1723.985	1647.000
-47.130	37.548	1681.832	1470.248
-46.115	34.721	1666.765	1435.802
-45.100	34.563	1661.851	1430.332
-44.086	34.475	1659.794	1427.841
-43.071	34.495	1656.997	1425.529
-42.057	34.409	1654.708	1422.861
-41.042	34.418	1652.779	1421.214
-40.027	34.548	1650.585	1420.239
-39.013	34.508	1648.201	1417.837
-37.998	34.455	1647.236	1416.554
-36.984	34.535	1645.590	1415.676
-35.969	34.621	1643.726	1414.654
-34.954	34.606	1642.131	1413.113
-33.940	34.611	1640.111	1411.355
-32.925	34.637	1638.307	1409.943
-31.911	34.620	1636.701	1408.377
-30.896	34.503	1635.276	1406.235
-29.881	34.570	1633.158	1404.851
-28.867	34.605	1631.897	1403.969
-27.852	34.679	1630.008	1402.832
-26.838	34.678	1628.622	1401.576
-25.823	34.567	1627.881	1400.064
-24.809	34.654	1625.819	1398.875
-23.794	34.633	1624.604	1397.617
-22.779	34.674	1623.158	1396.622
-21.765	34.640	1621.477	1394.869
-20.750	34.658	1619.613	1393.341
-19.736	34.599	1618.504	1391.905
-18.721	34.761	1616.955	1391.693
-17.706	34.646	1615.717	1389.737
-16.692	34.589	1614.018	1387.806
-15.677	34.650	1612.527	1386.914
-14.663	34.660	1610.538	1385.222
-13.648	34.741	1609.489	1384.849
-12.633	34.654	1608.106	1382.973
-11.619	34.632	1606.547	1381.423
-10.604	34.706	1605.106	1380.662
-9.590	34.725	1603.601	1379.451
-8.575	34.681	1601.859	1377.576
-7.560	34.677	1601.170	1376.905
-6.546	34.688	1600.497	1376.348
-5.531	34.646	1599.233	1374.901
-4.517	34.680	1598.061	1374.082
-3.502	34.656	1596.864	1372.830
-2.487	34.737	1595.028	1371.776
-1.473	34.203	1582.474	1357.125
-0.458	30.530	1560.917	1312.696
0.556	27.971	1558.530	1268.911
1.571	24.783	1580.878	1264.494
2.586	23.592	1592.379	1265.099
3.600	20.303	1538.181	1199.243
4.615	12.314	1429.778	1063.105
5.629	5.696	1366.366	974.809
6.644	4.617	1358.159	962.193
7.659	4.448	1357.135	960.337
8.673	4.631	1355.755	960.406
9.688	4.645	1354.621	959.606
10.702	4.580	1352.320	957.490
11.717	7.349	1356.899	977.742
12.731	15.108	1371.238	1036.170
13.746	21.295	1380.949	1081.851
14.761	22.222	1381.032	1087.555
15.775	21.421	1379.154	1081.030
16.790	20.441	1376.430	1072.748
17.804	19.694	1374.031	1066.177
18.819	19.224	1373.089	1062.456
19.834	19.103	1371.999	1060.774
20.848	18.890	1370.520	1058.227
21.863	18.691	1369.426	1056.062
22.877	18.538	1368.535	1054.343
23.892	18.486	1367.878	1053.419
24.907	18.427	1367.323	1052.539
25.921	18.539	1365.751	1051.921
26.936	18.549	1364.821	1051.174
27.950	18.659	1363.988	1051.111
28.965	18.618	1363.245	1050.196
29.980	18.845	1361.940	1050.487
30.994	18.808	1360.890	1049.355
32.009	18.889	1360.144	1049.186
33.023	19.015	1358.552	1048.634
34.038	18.861	1357.015	1046.417
35.053	18.641	1356.337	1044.458
36.067	18.625	1355.106	1043.320
37.082	18.743	1353.883	1043.004
38.096	18.791	1353.190	1042.673
39.111	18.828	1352.181	1042.026
40.126	18.634	1351.188	1039.990
41.140	18.499	1350.382	1038.464
42.155	18.371	1349.323	1036.778
43.169	18.226	1349.917	1036.266
44.184	18.357	1349.548	1036.684
45.199	18.255	1348.762	1035.374
46.213	18.483	1348.318	1036.317
47.228	18.719	1347.616	1037.115
48.242	18.696	1346.529	1036.046
49.257	18.713	1345.183	1035.020
50.271	18.609	1343.789	1033.232
51.286	18.702	1341.961	1032.295
52.301	18.618	1340.860	1030.849
53.315	18.508	1339.693	1029.203
54.330	18.447	1338.574	1027.883
55.344	18.450	1337.190	1026.749
56.359	18.461	1336.420	1026.131
57.374	18.345	1335.801	1024.871
58.388	18.318	1334.628	1023.719
59.403	18.192	1334.474	1022.756
60.417	18.339	1333.590	1022.867
61.432	18.148	1332.878	1021.090
62.447	18.137	1331.530	1019.901
63.461	18.031	1330.468	1018.366
64.476	18.069	1329.439	1017.715
65.490	18.153	1328.057	1017.067
66.505	18.053	1326.719	1015.359
67.520	18.093	1325.017	1014.208
68.534	18.189	1324.437	1014.242
69.549	18.096	1323.750	1013.073
70.563	18.137	1322.464	1012.243
71.578	18.029	1321.088	1010.461
72.593	17.937	1320.340	1009.253
73.607	17.914	1319.453	1008.351
74.622	17.989	1318.942	1008.313
75.636	18.057	1318.261	1008.108
76.651	18.118	1316.849	1007.298
77.666	17.984	1317.108	1006.619
78.680	18.117	1316.482	1006.831
79.695	18.211	1315.628	1006.642
80.709	18.267	1315.067	1006.453
81.724	18.360	1314.232	1006.274
82.739	18.435	1313.952	1006.408
83.753	18.602	1312.770	1006.393
84.768	18.695	1311.608	1005.960
85.782	18.808	1310.784	1005.900
86.797	18.779	1309.507	1004.665
87.812	18.692	1308.202	1003.065
88.826	18.637	1307.441	1002.072
89.841	18.701	1306.191	1001.398
90.855	18.662	1305.858	1000.828
91.870	18.759	1305.118	1000.734
92.884	18.808	1304.365	1000.353
93.899	18.914	1302.759	999.650
94.914	18.913	1301.911	998.907
95.928	18.917	1301.263	998.346
96.943	18.869	1300.211	997.168
97.957	18.739	1299.048	995.435
98.972	18.789	1298.067	994.887
99.987	18.729	1297.583	994.081
101.001	18.828	1295.982	993.335
102.016	18.872	1294.791	992.590
103.030	18.851	1294.573	992.212
104.045	18.718	1293.454	990.502
105.060	18.564	1292.412	988.729
106.074	18.421	1290.974	986.720
107.089	18.203	1289.431	984.198
108.103	18.155	1288.066	982.791
109.118	18.057	1286.821	981.195
110.133	18.194	1285.387	980.797
111.147	18.172	1284.332	979.778
112.162	18.203	1283.074	978.910
113.176	18.358	1281.595	978.581
114.191	18.363	1280.822	977.932
115.206	18.285	1279.984	976.765
116.220	18.313	1278.510	975.708
117.235	18.315	1277.315	974.723
118.249	18.279	1276.520	973.824
119.264	18.187	1275.232	972.234
120.279	18.110	1273.977	970.753
121.293	18.073	1273.468	970.071
122.308	18.106	1272.183	969.196
123.322	18.041	1270.660	967.577
124.337	17.952	1270.492	966.862
125.352	17.909	1269.484	965.766
126.366	17.991	1267.657	964.752
127.381	18.029	1266.678	964.139
128.395	18.048	1265.605	963.344
129.410	18.068	1264.971	962.886
130.424	18.068	1264.294	962.285
131.439	18.198	1263.680	962.467
132.454	18.327	1262.395	962.128
133.468	18.348	1261.776	961.689
134.483	18.342	1261.262	961.180
135.497	18.275	1260.127	959.853
136.512	18.243	1259.065	958.781
137.527	18.366	1257.412	958.126
138.541	18.415	1256.381	957.528
139.556	18.508	1254.807	956.764
140.570	18.479	1254.145	956.010
141.585	18.564	1252.876	955.432
142.600	18.604	1252.239	955.086
143.614	18.705	1250.934	954.567
144.629	18.760	1249.702	953.845
145.643	18.781	1248.797	953.189
146.658	18.596	1247.697	951.239
147.673	18.534	1246.252	949.711
148.687	18.381	1244.776	947.656
149.702	18.271	1243.405	945.917
150.716	18.216	1241.989	944.454
151.731	18.308	1240.928	944.071
152.746	18.356	1239.793	943.389
153.760	18.374	1238.555	942.462
154.775	18.484	1237.883	942.471
155.789	18.576	1236.546	941.875
156.804	18.607	1235.730	941.339
157.819	18.604	1234.975	940.668
158.833	18.651	1234.118	940.190
159.848	18.852	1232.909	940.284
160.862	18.712	1232.122	938.833
161.877	18.552	1230.560	936.688
162.892	18.371	1229.500	934.808
163.906	18.353	1228.169	933.617
164.921	18.466	1227.429	933.591
165.935	18.507	1227.119	933.495
166.950	18.649	1226.174	933.463
167.964	18.559	1225.551	932.419
168.979	18.479	1224.870	931.384
169.994	18.483	1224.117	930.748
171.008	18.512	1223.293	930.198
172.023	18.678	1222.661	930.538
173.037	18.780	1221.910	930.434
174.052	18.708	1220.883	929.182
175.067	18.508	1219.738	927.144
176.081	18.435	1218.712	925.886
177.096	18.449	1217.469	924.935
178.110	18.394	1217.143	924.312
179.125	18.504	1215.656	923.692
180.140	18.550	1214.650	923.093
181.154	18.705	1213.224	922.762
182.169	18.804	1212.065	922.329
183.183	18.868	1211.078	921.841
184.198	18.835	1210.303	920.994
185.213	18.841	1209.572	920.388
186.227	18.741	1208.378	918.863
187.242	18.900	1207.520	918.978
188.256	19.046	1206.189	918.666
189.271	18.997	1205.685	917.936
190.286	18.825	1204.141	915.763
191.300	18.442	1203.173	912.904
192.315	18.281	1202.541	911.487
193.329	18.387	1201.829	911.431
194.344	18.460	1201.139	911.219
195.359	18.540	1201.014	911.465
196.373	18.668	1200.431	911.625
197.388	18.825	1200.207	912.204
198.402	18.953	1200.127	912.746
199.417	19.065	1199.493	912.775
200.432	19.093	1198.746	912.275
201.446	19.325	1197.427	912.418
202.461	19.322	1197.320	912.239
203.475	19.394	1195.725	911.323
204.490	19.195	1194.262	909.077
205.504	19.005	1193.301	907.264
206.519	18.989	1191.770	905.938
207.534	18.924	1190.602	904.629
208.548	19.012	1189.856	904.442
209.563	19.003	1189.405	903.974
210.577	19.043	1188.245	903.221
211.592	19.143	1187.227	902.892
212.607	19.218	1187.035	903.060
213.621	19.228	1185.786	902.080
214.636	19.121	1185.452	901.185
215.650	19.251	1184.150	900.796
216.665	19.365	1183.159	900.557
217.680	19.446	1182.975	900.764
218.694	19.325	1182.083	899.371
219.709	19.318	1181.145	898.541
220.723	19.418	1179.967	898.086
221.738	19.407	1179.230	897.388
222.753	19.312	1178.579	896.322
223.767	19.427	1177.626	896.116
224.782	19.505	1177.460	896.312
225.796	19.558	1177.032	896.185
226.811	19.529	1176.132	895.267
227.826	19.410	1175.209	893.873
228.840	19.246	1174.634	892.504
229.855	19.298	1174.001	892.215
230.869	19.393	1173.023	891.884
231.884	19.239	1172.410	890.540
232.899	19.145	1171.551	889.323
233.913	19.151	1170.601	888.555
234.928	19.154	1169.577	887.715
235.942	19.065	1169.133	886.841
236.957	19.163	1167.955	886.376
237.972	19.049	1167.634	885.466
238.986	19.138	1167.152	885.478
240.001	19.165	1166.137	884.768
241.015	19.192	1165.205	884.124
242.030	19.329	1164.512	884.219
243.045	19.327	1164.097	883.820
244.059	19.363	1162.973	883.071
245.074	19.544	1161.876	883.088
246.088	19.438	1161.662	882.302
247.103	19.599	1161.105	882.624
248.117	19.658	1160.592	882.456
249.132	19.766	1160.068	882.534
250.147	19.966	1159.307	882.894
251.161	20.036	1158.880	882.850
252.176	20.088	1158.305	882.599
253.190	20.205	1157.153	882.238
254.205	20.136	1157.316	881.933
255.220	20.132	1156.567	881.264
256.234	20.208	1155.622	880.848
257.249	20.201	1154.761	880.079
258.263	20.171	1154.338	879.530
259.278	20.238	1153.183	878.909
260.293	20.041	1153.564	878.124
261.307	20.294	1152.892	878.816
262.322	20.291	1152.110	878.127
263.336	20.278	1151.116	877.224
264.351	20.360	1150.635	877.194
265.366	20.528	1150.241	877.666
266.380	20.435	1149.261	876.373
267.395	20.186	1148.785	874.675
268.409	20.193	1147.935	873.985
269.424	20.062	1147.352	872.806
270.439	20.024	1146.943	872.224
271.453	20.177	1145.602	871.898
272.468	19.973	1144.892	870.257
273.482	20.062	1143.708	869.723
274.497	20.099	1142.897	869.215
275.512	20.138	1142.538	869.061
276.526	20.047	1142.102	868.196
277.541	20.196	1141.030	868.053
278.555	20.067	1140.859	867.199
279.570	20.273	1139.747	867.310
280.585	20.512	1139.057	867.898
281.599	20.492	1138.306	867.151
282.614	20.256	1136.815	864.761
283.628	20.092	1136.113	863.333
284.643	20.264	1134.935	863.219
285.657	20.251	1134.468	862.720
286.672	20.329	1133.372	862.199
287.687	20.227	1132.663	861.081
288.701	20.251	1131.920	860.557
289.716	20.371	1130.775	860.203
290.730	20.367	1130.443	859.856
291.745	20.375	1129.549	859.140
292.760	20.318	1129.484	858.734
293.774	20.401	1129.094	858.769
294.789	20.634	1128.192	859.161
295.803	20.481	1127.273	857.631
296.818	20.344	1126.810	856.526
297.833	20.269	1126.143	855.570
298.847	20.316	1125.134	854.960
299.862	20.381	1124.501	854.724
300.876	20.337	1123.960	854.022
301.891	20.421	1123.140	853.737
302.906	20.664	1122.274	854.195
303.920	20.576	1121.944	853.435
304.935	20.738	1121.299	853.662
305.949	20.844	1121.194	854.026
306.964	20.835	1120.034	853.026
307.979	20.741	1118.893	851.621
308.993	20.738	1118.341	851.110
310.008	20.661	1118.355	850.671
311.022	20.880	1116.916	850.569
312.037	20.771	1116.136	849.368
313.052	20.691	1114.792	847.879
314.066	20.506	1114.211	846.463
315.081	20.436	1112.908	845.059
316.095	20.490	1112.130	844.655
317.110	20.385	1111.400	843.513
318.125	20.439	1110.750	843.210
319.139	20.402	1110.134	842.487
320.154	20.507	1109.272	842.267
321.168	20.412	1108.690	841.289
322.183	20.494	1108.419	841.408
323.197	20.536	1107.673	840.969
324.212	20.496	1107.541	840.601
325.227	20.701	1106.516	840.742
326.241	20.598	1105.792	839.617
327.256	20.590	1105.033	838.928
328.270	20.660	1104.164	838.534
329.285	20.608	1103.172	837.455
330.300	20.530	1102.293	836.339
331.314	20.455	1101.172	835.053
332.329	20.524	1100.736	834.982
333.343	20.526	1099.495	833.977
334.358	20.760	1098.917	834.586
335.373	20.822	1098.557	834.537
336.387	20.805	1097.539	833.606
337.402	20.839	1097.028	833.308
338.416	20.851	1096.708	833.049
339.431	20.909	1095.710	832.491
340.446	21.072	1095.104	832.737
341.460	21.283	1094.552	833.250
342.475	21.240	1093.789	832.389
343.489	21.380	1093.057	832.424
344.504	21.359	1091.815	831.305
345.519	21.416	1090.867	830.784
346.533	21.454	1090.353	830.495
347.548	21.486	1089.791	830.150
348.562	21.361	1089.043	828.912
349.577	21.201	1087.761	827.102
350.592	20.995	1087.163	825.600
351.606	20.965	1086.228	824.678
352.621	21.010	1085.255	824.076
353.635	20.950	1084.740	823.330
354.650	20.906	1084.077	822.548
355.665	20.957	1083.583	822.339
356.679	21.115	1082.686	822.332
357.694	21.130	1082.441	822.142
358.708	21.054	1081.890	821.294
359.723	21.200	1081.199	821.382
360.738	21.259	1080.521	821.071
361.752	21.324	1079.866	820.806
362.767	21.385	1079.158	820.484
363.781	21.248	1079.019	819.661
364.796	21.236	1078.825	819.385
365.810	21.454	1077.889	819.622
366.825	21.497	1077.477	819.440
367.840	21.698	1077.041	819.976
368.854	21.846	1076.662	820.305
369.869	21.551	1075.906	818.279
370.883	21.640	1074.534	817.578
371.898	21.507	1073.825	816.346
372.913	21.607	1073.202	816.269
373.927	21.610	1072.757	815.873
374.942	21.667	1072.528	815.892
375.956	21.711	1071.364	815.136
376.971	21.625	1071.185	814.529
377.986	21.589	1070.923	814.089
379.000	21.776	1070.164	814.311
380.015	21.862	1069.782	814.345
381.029	21.899	1069.166	813.976
382.044	21.930	1068.241	813.343
383.059	21.927	1067.219	812.480
384.073	21.770	1066.846	811.400
385.088	21.899	1065.509	810.907
386.102	21.917	1064.829	810.397
387.117	21.807	1063.738	808.993
388.132	21.642	1062.792	807.438
389.146	21.588	1061.899	806.442
390.161	21.711	1061.112	806.337
391.175	21.631	1060.742	805.618
392.190	21.631	1060.059	805.026
393.205	21.889	1059.289	805.554
394.219	21.751	1058.720	804.419
395.234	21.793	1057.370	803.515
396.248	21.702	1056.525	802.385
397.263	21.616	1055.628	801.239
398.278	21.658	1054.570	800.558
399.292	21.559	1053.953	799.566
400.307	21.588	1053.181	799.040
401.321	21.598	1052.801	798.726
402.336	21.473	1052.330	797.731
403.350	21.520	1051.300	797.091
404.365	21.713	1050.334	797.169
405.380	21.710	1050.027	796.850
406.394	21.784	1049.106	796.418
407.409	21.953	1048.608	796.736
408.423	22.061	1047.653	796.429
409.438	21.959	1047.768	795.985
410.453	22.181	1046.700	796.105
411.467	22.170	1046.177	795.590
412.482	22.151	1045.594	794.990
413.496	22.300	1044.543	794.793
414.511	22.374	1043.975	794.626
415.526	22.417	1044.099	794.845
416.540	22.465	1043.993	794.907
417.555	22.508	1042.844	794.159
418.569	22.326	1042.189	792.767
419.584	22.236	1042.292	792.369
420.599	22.363	1041.184	792.028
421.613	154.867	1400.037	1790.923
422.628	141.793	1452.330	1791.017
