DTS Sentinel unit serial number:	SN413079Multiplexer serial number:	ORYXHardware model number:	OX4-SRSoftware version number:	ORYX F/W v4.00 Oryx Data Collector v3.7.2.0data status	okinstallation	princeton_trtdifferential loss correction	single-endedforward channel	channel 2reverse channel	N/Adate	2019/09/11time	20:05:10forward acquisition time	60.00reverse acquisition time	0.00gamma	496.2192k internal	0.2314k external	0.2314temperature offset calibration	1.0048default loss term (dB/km)	0.3790temperature slope calibration	1.0000multiplexer offset coefficient	1.0000multiplexer slope coefficient	1.0000fibre end	0.00T internal ref (°C)	38.59T ext. ref 1 (°C)	1.42T ext. ref 2 (°C)	32.03length (m)	temperature (°C)	Stokes	anti-Stokes-747.200	9.189	0.102	0.078
-746.185	86.335	0.185	0.206
-745.171	50.792	0.164	0.157
-744.156	-200.000	0.030	0.258
-743.142	-36.401	-0.101	0.055
-742.127	800.000	-0.102	0.414
-741.112	-134.669	-0.150	0.019
-740.098	-200.000	0.025	0.543
-739.083	-200.000	0.047	0.354
-738.069	185.753	-0.060	-0.091
-737.054	800.000	0.017	0.077
-736.039	22.019	-0.367	0.303
-735.025	119.839	-0.177	0.222
-734.010	27.806	-0.160	0.136
-732.996	-130.500	0.160	-0.022
-731.981	800.000	0.123	-0.397
-730.966	40.837	0.073	-0.067
-729.952	9.343	0.226	-0.173
-728.937	59.033	0.131	0.130
-727.923	166.135	-0.175	-0.251
-726.908	-65.637	0.175	-0.071
-725.894	800.000	-0.099	-0.295
-724.879	-45.219	0.298	0.150
-723.864	-131.781	0.103	-0.014
-722.850	800.000	-0.024	-0.080
-721.835	23.144	-0.250	-0.208
-720.821	-107.043	-0.209	0.047
-719.806	-107.760	-0.293	0.065
-718.791	-200.000	0.013	-0.511
-717.777	-200.000	0.020	-0.357
-716.762	-30.981	-0.139	-0.079
-715.748	44.939	0.176	0.164
-714.733	274.027	0.200	0.358
-713.718	555.568	0.187	-0.456
-712.704	-143.282	0.344	-0.033
-711.689	21.814	0.210	0.173
-710.675	81.872	0.233	-0.255
-709.660	-86.537	0.070	-0.022
-708.645	-71.290	-0.254	0.096
-707.631	-16.325	0.090	-0.058
-706.616	785.847	0.073	-0.203
-705.602	-99.643	-0.350	-0.089
-704.587	-149.749	-0.274	0.022
-703.572	-200.000	0.016	-0.377
-702.558	-200.000	-0.002	-0.036
-701.543	24.641	0.178	0.149
-700.529	21.076	0.114	-0.093
-699.514	75.002	0.072	-0.077
-698.499	800.000	0.060	0.247
-697.485	-58.622	0.082	0.036
-696.470	-58.574	0.169	0.074
-695.456	-129.540	0.227	-0.032
-694.441	-111.645	0.090	-0.019
-693.426	-200.000	0.029	0.207
-692.412	2.557	0.178	-0.131
-691.397	-179.146	-0.223	0.005
-690.383	800.000	-0.061	-0.271
-689.368	-121.108	-0.370	-0.063
-688.354	-47.989	0.134	-0.066
-687.339	-4.965	0.310	-0.216
-686.324	-118.117	-0.035	-0.006
-685.310	-52.147	-0.088	0.041
-684.295	-200.000	-0.002	-0.042
-683.281	-63.718	0.348	0.144
-682.266	58.594	0.131	-0.130
-681.251	-200.000	0.012	-0.263
-680.237	-38.380	-0.146	-0.078
-679.222	-200.000	-0.004	-0.222
-678.208	800.000	-0.025	-0.111
-677.193	800.000	-0.049	-0.200
-676.178	-121.272	-0.166	0.028
-675.164	409.002	-0.167	-0.357
-674.149	152.695	-0.096	-0.132
-673.135	579.923	0.111	-0.276
-672.120	-26.038	-0.163	0.097
-671.105	-200.000	0.022	-0.233
-670.091	628.014	-0.140	0.357
-669.076	-84.114	-0.272	-0.087
-668.062	-200.000	-0.010	-0.267
-667.047	124.836	0.004	-0.006
-666.032	327.719	0.072	0.141
-665.018	34.746	0.126	0.112
-664.003	-27.761	-0.092	-0.054
-662.989	-200.000	-0.021	0.264
-661.974	-132.554	0.315	-0.041
-660.959	166.632	0.078	0.112
-659.945	-118.588	0.308	-0.055
-658.930	800.000	-0.060	-0.176
-657.916	-139.065	0.168	-0.018
-656.901	-89.477	-0.261	-0.078
-655.886	-200.000	-0.075	-0.366
-654.872	137.884	0.190	0.252
-653.857	22.885	0.055	0.046
-652.843	-72.876	0.109	-0.040
-651.828	-76.121	-0.189	-0.067
-650.814	-148.956	0.062	-0.005
-649.799	-110.298	-0.485	0.102
-648.784	-24.073	0.169	-0.102
-647.770	104.795	-0.213	-0.253
-646.755	-200.000	-0.049	0.260
-645.741	-60.218	-0.099	0.043
-644.726	-98.810	0.149	-0.038
-643.711	202.310	-0.096	0.150
-642.697	464.237	0.177	0.400
-641.682	-200.000	0.008	0.301
-640.668	604.504	0.068	-0.170
-639.653	-96.042	-0.534	-0.144
-638.638	-200.000	0.003	-0.299
-637.624	-200.000	-0.041	-0.222
-636.609	-200.000	-0.047	0.297
-635.595	416.660	0.028	-0.060
-634.580	-43.292	0.124	-0.063
-633.565	-133.301	0.182	0.023
-632.551	-200.000	0.351	0.001
-631.536	23.978	-0.260	-0.216
-630.522	-98.766	-0.527	-0.135
-629.507	-200.000	0.030	-0.429
-628.492	-200.000	0.042	-0.284
-627.478	800.000	-0.044	-0.168
-626.463	-155.366	0.231	0.015
-625.449	-21.134	-0.236	0.146
-624.434	-200.000	0.017	-0.284
-623.419	8.061	0.127	0.096
-622.405	-137.268	0.222	-0.025
-621.390	-112.889	0.344	-0.069
-620.376	-44.295	-0.138	-0.070
-619.361	800.000	0.087	0.309
-618.346	-69.288	-0.149	0.058
-617.332	-24.367	-0.140	0.084
-616.317	335.807	-0.071	-0.139
-615.303	-146.422	-0.144	-0.013
-614.288	62.666	-0.116	-0.117
-613.273	-103.115	-0.366	0.087
-612.259	328.913	-0.064	-0.124
-611.244	-200.000	0.042	0.196
-610.230	-200.000	0.067	0.313
-609.215	460.296	0.040	-0.091
-608.201	-118.532	-0.496	0.089
-607.186	-76.737	0.301	-0.106
-606.171	147.896	-0.143	-0.195
-605.157	-74.565	-0.107	0.039
-604.142	-77.645	-0.159	0.056
-603.128	82.492	0.127	0.139
-602.113	142.813	0.042	0.057
-601.098	-200.000	-0.035	0.213
-600.084	123.346	-0.075	0.095
-599.069	-70.393	0.322	-0.123
-598.055	-160.531	-0.170	-0.009
-597.040	-32.534	0.136	0.077
-596.025	-130.981	-0.127	0.017
-595.011	-200.000	-0.007	0.270
-593.996	-93.430	0.227	-0.063
-592.982	800.000	-0.054	0.156
-591.967	-200.000	0.028	0.156
-590.952	194.226	-0.176	-0.268
-589.938	72.359	0.251	0.264
-588.923	-164.071	-0.096	0.004
-587.909	-74.927	-0.150	0.054
-586.894	800.000	-0.089	-0.327
-585.879	344.610	0.063	0.125
-584.865	-200.000	-0.005	-0.193
-583.850	238.963	-0.133	-0.223
-582.836	767.099	-0.139	0.382
-581.821	214.293	0.094	0.150
-580.806	592.130	-0.081	-0.202
-579.792	-43.487	-0.267	-0.136
-578.777	82.343	-0.136	-0.149
-577.763	0.604	-0.118	-0.085
-576.748	-85.272	-0.070	0.022
-575.733	685.786	0.056	0.146
-574.719	285.040	0.236	-0.428
-573.704	72.419	0.146	-0.153
-572.690	28.603	0.192	0.164
-571.675	83.137	-0.128	0.140
-570.661	-39.401	0.270	0.142
-569.646	-96.897	-0.207	-0.055
-568.631	68.244	-0.273	0.282
-567.617	-38.023	-0.198	0.106
-566.602	15.920	0.159	0.126
-565.588	1.984	0.103	-0.075
-564.573	-97.160	-0.244	-0.064
-563.558	215.682	0.072	0.115
-562.544	-86.738	-0.196	-0.060
-561.529	-125.559	-0.289	0.044
-560.515	333.941	-0.127	-0.247
-559.500	49.416	-0.085	0.080
-558.485	0.663	-0.259	-0.187
-557.471	17.354	-0.201	-0.161
-556.456	-71.887	0.300	0.113
-555.442	-164.022	-0.482	0.023
-554.427	800.000	0.059	-0.183
-553.412	296.994	0.209	0.386
-552.398	-200.000	-0.038	-0.242
-551.383	-94.815	0.182	0.050
-550.369	-200.000	-0.027	-0.554
-549.354	-91.927	-0.223	0.064
-548.339	-153.989	0.180	0.012
-547.325	53.356	-0.256	-0.247
-546.310	-1.776	-0.125	0.089
-545.296	-148.921	-0.079	0.006
-544.281	560.801	-0.121	0.293
-543.266	-46.779	0.385	0.190
-542.252	-127.416	0.176	0.026
-541.237	40.721	0.290	-0.263
-540.223	-112.282	0.239	-0.048
-539.208	-130.492	-0.426	0.058
-538.193	-200.000	0.002	0.246
-537.179	91.437	-0.103	0.116
-536.164	-127.889	0.331	0.048
-535.150	21.751	-0.149	0.122
-534.135	36.429	0.166	-0.147
-533.121	166.890	-0.103	0.147
-532.106	61.177	0.132	-0.132
-531.091	800.000	-0.055	-0.177
-530.077	-148.218	-0.258	0.021
-529.062	800.000	0.107	-0.414
-528.048	-64.945	-0.013	-0.005
-527.033	-42.713	-0.427	0.218
-526.018	39.335	0.243	0.219
-525.004	52.463	-0.376	-0.361
-523.989	19.381	0.095	-0.077
-522.975	-121.509	0.200	-0.033
-521.960	800.000	-0.068	-0.259
-520.945	-59.812	0.353	-0.152
-519.931	-92.037	0.315	-0.090
-518.916	-59.843	-0.462	-0.199
-517.902	-32.852	0.085	-0.047
-516.887	49.876	-0.097	-0.092
-515.872	793.008	-0.063	0.173
-514.858	302.427	0.129	0.240
-513.843	-180.957	0.138	-0.003
-512.829	-82.378	-0.223	0.073
-511.814	443.378	0.154	-0.340
-510.799	-200.000	-0.004	-0.051
-509.785	-102.433	-0.429	0.103
-508.770	-91.471	-0.204	0.058
-507.756	-181.973	-0.211	0.004
-506.741	-144.542	-0.239	-0.022
-505.726	800.000	0.025	0.090
-504.712	297.732	0.095	-0.175
-503.697	800.000	0.065	0.210
-502.683	193.690	0.082	0.125
-501.668	-55.450	0.077	-0.035
-500.653	286.866	-0.055	0.099
-499.639	-36.339	-0.245	-0.132
-498.624	-28.227	0.090	-0.052
-497.610	-100.803	-0.398	-0.098
-496.595	-155.093	-0.248	0.016
-495.581	-200.000	-0.002	-0.157
-494.566	800.000	-0.073	0.261
-493.551	136.264	-0.068	0.089
-492.537	800.000	0.032	-0.112
-491.522	-41.068	0.250	-0.130
-490.508	154.009	0.224	-0.308
-489.493	-147.290	0.212	0.018
-488.478	-200.000	0.011	0.263
-487.464	279.124	0.148	-0.266
-486.449	135.840	0.012	-0.016
-485.435	256.513	-0.068	0.117
-484.420	-200.000	0.050	0.506
-483.405	-200.000	0.003	0.231
-482.391	223.286	-0.070	0.113
-481.376	-11.574	0.094	-0.062
-480.362	451.302	-0.032	0.071
-479.347	-200.000	0.037	0.176
-478.332	-26.471	-0.122	0.072
-477.318	800.000	-0.043	0.152
-476.303	-98.310	0.218	0.056
-475.289	-148.329	0.180	0.015
-474.274	-200.000	-0.151	-0.000
-473.259	335.686	0.018	0.035
-472.245	-54.863	-0.319	-0.144
-471.230	109.536	-0.077	-0.092
-470.216	24.135	-0.137	0.114
-469.201	800.000	0.190	0.552
-468.186	-17.671	0.317	-0.200
-467.172	106.477	-0.214	-0.254
-466.157	-155.328	-0.146	0.009
-465.143	62.552	-0.261	0.262
-464.128	800.000	-0.026	0.074
-463.113	697.049	-0.135	0.357
-462.099	-200.000	0.034	-0.374
-461.084	17.701	0.227	-0.181
-460.070	800.000	-0.098	0.295
-459.055	-107.172	0.319	0.070
-458.040	800.000	0.033	0.123
-457.026	667.657	0.085	-0.221
-456.011	-63.461	0.187	0.077
-454.997	736.883	0.006	-0.016
-453.982	36.958	-0.047	-0.042
-452.968	57.699	0.136	-0.133
-451.953	147.258	0.129	-0.174
-450.938	-112.434	-0.230	0.046
-449.924	-93.932	-0.237	-0.065
-448.909	-136.711	-0.186	-0.021
-447.895	406.926	0.041	-0.087
-446.880	-8.495	-0.448	-0.302
-445.865	800.000	-0.069	0.231
-444.851	726.403	-0.073	0.195
-443.836	318.737	-0.029	-0.054
-442.822	-98.283	-0.211	0.054
-441.807	-155.528	0.312	-0.020
-440.792	42.969	-0.039	0.036
-439.778	-141.098	-0.279	-0.029
-438.763	-30.913	-0.056	0.032
-437.749	-5.165	0.097	-0.067
-436.734	-95.115	0.090	-0.024
-435.719	-64.107	0.111	-0.046
-434.705	-40.087	0.203	0.106
-433.690	185.283	-0.233	-0.346
-432.676	324.712	0.182	0.348
-431.661	-32.228	-0.169	0.095
-430.646	101.215	0.118	-0.137
-429.632	-120.187	-0.210	-0.036
-428.617	-200.000	-0.018	0.427
-427.603	-200.000	0.034	0.221
-426.588	-10.284	-0.487	-0.323
-425.573	-34.101	-0.142	-0.078
-424.559	-200.000	-0.001	0.015
-423.544	800.000	-0.047	0.149
-422.530	170.059	-0.124	0.177
-421.515	800.000	0.156	0.465
-420.500	72.720	-0.033	0.035
-419.486	483.389	-0.033	0.074
-418.471	286.717	0.219	0.396
-417.457	73.013	0.094	-0.098
-416.442	800.000	0.022	0.062
-415.428	-0.438	-0.152	0.108
-414.413	275.370	-0.016	0.028
-413.398	-112.095	0.281	-0.057
-412.384	800.000	-0.045	0.141
-411.369	782.056	0.027	-0.074
-410.355	186.237	-0.203	0.303
-409.340	61.270	-0.137	0.137
-408.325	-131.181	-0.125	0.017
-407.311	58.915	-0.214	0.211
-406.296	-105.323	-0.268	0.061
-405.282	161.700	0.280	0.393
-404.267	-60.236	-0.030	0.013
-403.252	702.194	0.033	-0.087
-402.238	474.782	-0.055	-0.124
-401.223	-13.163	-0.063	0.041
-400.209	-200.000	0.044	-0.397
-399.194	-80.537	0.237	0.079
-398.179	443.852	-0.133	0.292
-397.165	61.325	-0.237	-0.236
-396.150	424.354	0.059	-0.126
-395.136	-56.369	0.254	0.113
-394.121	44.790	0.159	0.147
-393.106	-174.130	0.325	0.009
-392.092	-107.083	0.094	0.021
-391.077	-105.291	-0.276	-0.063
-390.063	-29.259	0.268	-0.154
-389.048	-52.332	0.231	-0.107
-388.033	739.167	-0.177	-0.474
-387.019	317.197	-0.095	-0.180
-386.004	204.904	-0.040	0.062
-384.990	138.953	-0.090	-0.118
-383.975	-29.095	0.109	0.063
-382.960	-58.965	-0.291	0.126
-381.946	159.626	-0.087	0.121
-380.931	98.788	-0.126	0.146
-379.917	-56.274	-0.192	0.085
-378.902	38.257	-0.147	-0.131
-377.888	-91.630	-0.124	-0.035
-376.873	-69.185	-0.189	0.073
-375.858	303.041	0.020	0.038
-374.844	-163.334	0.428	-0.020
-373.829	-107.080	0.359	0.079
-372.815	-119.864	0.277	0.048
-371.800	178.575	-0.033	-0.048
-370.785	72.714	-0.110	0.115
-369.771	-95.099	-0.287	-0.078
-368.756	38.910	-0.317	0.283
-367.742	-142.419	-0.130	0.013
-366.727	-68.167	-0.429	0.167
-365.712	800.000	-0.061	0.191
-364.698	263.066	-0.230	0.400
-363.683	94.402	-0.065	0.074
-362.669	800.000	-0.038	-0.117
-361.654	-96.075	0.247	0.066
-360.639	2.072	0.433	0.312
-359.625	-200.000	0.071	0.357
-358.610	-47.843	0.434	-0.210
-357.596	-200.000	-0.020	-0.214
-356.581	41.760	0.408	-0.370
-355.566	-102.349	0.246	-0.059
-354.552	635.621	0.030	0.076
-353.537	-141.600	-0.069	-0.007
-352.523	-118.212	0.463	-0.082
-351.508	15.114	0.302	-0.236
-350.493	-62.523	0.142	0.059
-349.479	12.017	-0.235	-0.180
-348.464	-93.583	0.306	-0.084
-347.450	-31.533	0.291	0.163
-346.435	800.000	-0.077	-0.329
-345.420	-200.000	-0.044	0.195
-344.406	44.949	0.240	-0.221
-343.391	-108.087	0.214	-0.046
-342.377	19.935	-0.182	-0.146
-341.362	-52.632	0.059	-0.027
-340.348	-111.504	-0.073	-0.015
-339.333	-128.365	-0.277	0.039
-338.318	395.961	0.045	-0.094
-337.304	185.658	0.060	-0.089
-336.289	10.755	-0.092	0.070
-335.275	-73.998	-0.194	0.070
-334.260	450.390	0.128	-0.281
-333.245	-200.000	-0.010	-0.064
-332.231	-34.133	0.129	0.071
-331.216	-200.000	0.008	-0.396
-330.202	15.864	-0.338	0.266
-329.187	-200.000	0.050	0.270
-328.172	-70.959	-0.029	-0.011
-327.158	106.040	0.163	0.193
-326.143	800.000	0.023	0.089
-325.129	29.255	-0.155	0.131
-324.114	-102.233	0.189	0.045
-323.099	800.000	-0.071	-0.196
-322.085	-110.809	-0.276	0.057
-321.070	76.760	0.227	0.240
-320.056	-149.939	0.293	-0.023
-319.041	800.000	-0.051	-0.184
-318.026	-7.971	0.193	-0.130
-317.012	-200.000	-0.005	0.081
-315.997	-17.400	0.235	-0.147
-314.983	97.288	0.111	-0.127
-313.968	-59.763	-0.109	-0.047
-312.953	-200.000	-0.007	-0.182
-311.939	87.278	0.189	-0.209
-310.924	756.100	-0.023	0.062
-309.910	800.000	-0.043	0.168
-308.895	-200.000	0.016	-0.084
-307.880	154.645	0.192	0.263
-306.866	-200.000	-0.019	0.237
-305.851	-200.000	-0.018	-0.217
-304.837	-115.761	0.164	-0.031
-303.822	-200.000	0.011	-0.163
-302.807	317.482	-0.145	-0.273
-301.793	-200.000	0.038	-0.228
-300.778	-85.667	-0.416	0.129
-299.764	288.733	-0.051	0.093
-298.749	-132.353	0.286	-0.037
-297.735	-141.279	-0.177	-0.018
-296.720	-200.000	0.005	-0.482
-295.705	44.229	0.043	-0.039
-294.691	-79.176	-0.428	-0.145
-293.676	800.000	0.115	0.331
-292.662	-79.844	0.103	0.034
-291.647	171.490	0.100	-0.143
-290.632	245.019	-0.004	-0.007
-289.618	600.990	-0.029	-0.072
-288.603	-110.834	0.381	-0.078
-287.589	800.000	0.063	0.201
-286.574	407.274	-0.116	0.244
-285.559	-105.914	-0.108	-0.024
-284.545	-85.714	-0.497	-0.154
-283.530	61.002	0.201	0.199
-282.516	800.000	0.095	-0.312
-281.501	44.195	0.140	0.128
-280.486	-98.525	0.254	0.065
-279.472	-126.377	-0.394	-0.058
-278.457	119.061	0.137	0.168
-277.443	800.000	0.050	0.212
-276.428	493.727	0.027	-0.061
-275.413	-200.000	-0.014	-0.063
-274.399	-99.019	-0.225	0.057
-273.384	-200.000	0.007	0.051
-272.370	-54.098	-0.224	0.101
-271.355	190.875	-0.112	0.167
-270.340	-200.000	0.008	-0.046
-269.326	626.178	-0.112	-0.282
-268.311	-124.410	-0.255	0.040
-267.297	-172.504	0.236	0.007
-266.282	-93.423	0.293	-0.081
-265.267	-72.445	0.645	-0.237
-264.253	-15.016	0.142	-0.091
-263.238	-27.537	0.085	-0.049
-262.224	-113.413	0.207	-0.040
-261.209	-200.000	-0.031	-0.237
-260.195	-27.125	0.054	-0.032
-259.180	800.000	-0.093	0.257
-258.165	-200.000	-0.009	-0.229
-257.151	-3.646	0.259	-0.179
-256.136	-200.000	0.007	0.268
-255.122	66.351	-0.302	-0.306
-254.107	27.185	-0.210	-0.175
-253.092	75.060	0.133	-0.139
-252.078	65.883	0.296	-0.298
-251.063	-122.441	-0.186	-0.030
-250.049	434.630	-0.176	0.380
-249.034	-105.359	0.172	0.039
-248.019	-142.206	-0.232	0.023
-247.005	187.243	-0.059	0.087
-245.990	170.454	0.134	-0.191
-244.976	-26.289	0.173	-0.101
-243.961	-8.872	0.239	-0.159
-242.946	57.168	0.102	0.099
-241.932	-102.458	0.200	-0.048
-240.917	-47.834	-0.154	-0.074
-239.903	-104.898	0.124	0.028
-238.888	108.617	0.156	-0.185
-237.873	-200.000	-0.026	-0.321
-236.859	-117.342	0.376	-0.068
-235.844	-200.000	-0.002	-0.055
-234.830	333.310	-0.199	0.383
-233.815	49.228	-0.165	0.154
-232.800	-134.823	0.262	0.032
-231.786	101.137	0.123	0.143
-230.771	-104.252	-0.569	-0.131
-229.757	183.823	0.141	-0.208
-228.742	6.905	0.163	-0.121
-227.727	137.021	0.153	0.198
-226.713	-134.364	-0.022	-0.003
-225.698	95.971	0.254	0.288
-224.684	-58.798	0.150	-0.065
-223.669	-200.000	0.026	-0.140
-222.655	-200.000	0.027	0.200
-221.640	-25.976	0.028	0.017
-220.625	-45.585	0.286	0.141
-219.611	230.837	-0.148	0.241
-218.596	-18.053	-0.145	0.090
-217.582	800.000	0.102	0.306
-216.567	800.000	0.044	-0.187
-215.552	-31.510	0.175	-0.098
-214.538	-90.638	0.110	0.031
-213.523	372.654	-0.078	-0.157
-212.509	-128.847	0.340	0.047
-211.494	92.449	0.088	-0.098
-210.479	54.703	0.137	-0.131
-209.465	91.946	0.095	0.106
-208.450	-98.220	-0.188	-0.048
-207.436	-145.592	0.040	0.004
-206.421	183.835	-0.222	0.327
-205.406	-200.000	0.041	0.286
-204.392	166.571	-0.230	-0.323
-203.377	558.381	-0.108	-0.258
-202.363	-200.000	-0.004	-0.247
-201.348	-200.000	0.041	-0.342
-200.333	495.272	-0.097	0.222
-199.319	-64.181	-0.155	0.063
-198.304	296.078	-0.082	0.149
-197.290	530.149	-0.161	0.377
-196.275	800.000	0.082	0.314
-195.260	662.498	-0.032	0.083
-194.246	-200.000	-0.019	0.130
-193.231	-62.309	0.354	0.146
-192.217	206.285	0.094	0.146
-191.202	800.000	0.007	0.024
-190.187	95.611	-0.183	0.207
-189.173	785.210	0.074	-0.202
-188.158	178.278	-0.154	0.223
-187.144	-83.789	-0.121	0.038
-186.129	-200.000	0.048	-0.295
-185.114	-32.096	0.138	-0.076
-184.100	31.103	0.122	-0.104
-183.085	233.621	0.225	0.368
-182.071	109.429	-0.073	-0.087
-181.056	-200.000	-0.049	0.215
-180.042	107.564	-0.246	0.290
-179.027	-133.552	0.182	-0.023
-178.012	61.100	-0.069	0.068
-176.998	301.946	-0.173	-0.318
-175.983	-92.738	-0.139	-0.039
-174.969	-40.464	-0.114	0.059
-173.954	34.620	0.302	-0.262
-172.939	-101.822	0.220	-0.053
-171.925	204.616	-0.162	-0.248
-170.910	7.171	0.045	-0.033
-169.896	-52.517	0.277	0.127
-168.881	11.919	-0.054	0.041
-167.866	-111.649	-0.170	-0.034
-166.852	76.989	0.204	-0.215
-165.837	135.655	0.080	-0.103
-164.823	311.007	0.036	-0.067
-163.808	61.954	-0.051	0.050
-162.793	574.903	-0.112	0.272
-161.779	-21.920	0.248	-0.149
-160.764	-2.835	-0.152	0.106
-159.750	45.437	0.141	-0.129
-158.735	2.879	0.098	0.071
-157.720	-200.000	0.015	-0.217
-156.706	800.000	0.048	-0.173
-155.691	62.083	0.161	-0.159
-154.677	-150.265	-0.106	-0.008
-153.662	-60.809	0.094	0.039
-152.647	800.000	0.039	-0.123
-151.633	-79.587	0.561	-0.188
-150.618	-200.000	-0.011	0.121
-149.604	79.477	-0.217	0.231
-148.589	-123.410	0.093	-0.015
-147.574	-74.077	0.102	-0.037
-146.560	91.889	-0.083	0.092
-145.545	132.053	0.148	-0.189
-144.531	-106.804	0.096	-0.021
-143.516	-72.343	0.361	0.132
-142.502	41.351	-0.105	0.094
-141.487	-2.853	-0.103	0.071
-140.472	-200.000	0.100	0.000
-139.458	-200.000	-0.026	0.176
-138.443	-200.000	-0.033	-0.396
-137.429	287.665	0.162	0.291
-136.414	-200.000	0.006	0.179
-135.399	-200.000	0.044	0.242
-134.385	460.040	0.099	0.218
-133.370	777.618	0.089	-0.240
-132.356	-200.000	-0.001	0.133
-131.341	10.631	-0.058	0.044
-130.326	67.228	0.155	-0.156
-129.312	-116.457	-0.088	0.016
-128.297	-200.000	0.035	-0.184
-127.283	-79.863	-0.315	0.105
-126.268	90.647	0.231	0.256
-125.253	-198.856	0.246	0.001
-124.239	-85.541	0.279	0.086
-123.224	16.027	0.210	0.164
-122.210	-144.359	-0.108	0.010
-121.195	-156.696	0.376	0.023
-120.180	-134.113	0.161	-0.020
-119.166	125.875	-0.204	0.255
-118.151	-129.141	-0.169	0.023
-117.137	-145.881	-0.206	-0.018
-116.122	-29.834	-0.076	0.043
-115.107	800.000	-0.063	-0.190
-114.093	-127.794	0.260	-0.037
-113.078	-200.000	0.006	0.298
-112.064	-139.003	-0.239	-0.026
-111.049	242.138	0.149	-0.246
-110.034	-58.668	-0.240	-0.103
-109.020	-144.230	0.207	-0.019
-108.005	7.311	0.090	-0.066
-106.991	619.624	-0.067	0.167
-105.976	-200.000	0.022	0.103
-104.962	-200.000	0.048	0.239
-103.947	560.343	-0.125	-0.299
-102.932	-50.705	0.152	0.071
-101.918	-48.468	0.505	0.241
-100.903	-200.000	-0.008	0.160
-99.889	383.326	-0.090	0.183
-98.874	-200.000	-0.031	-0.258
-97.859	800.000	0.084	-0.320
-96.845	460.774	0.036	-0.079
-95.830	-200.000	-0.046	-0.201
-94.816	54.493	0.165	0.157
-93.801	-63.421	-0.040	-0.016
-92.786	-59.286	-0.175	-0.074
-91.772	-200.000	0.025	0.288
-90.757	575.055	-0.079	0.190
-89.743	-98.706	-0.240	-0.060
-88.728	-200.000	0.046	-0.200
-87.713	-200.000	-0.009	-0.397
-86.699	260.539	-0.161	0.275
-85.684	-200.000	0.014	0.531
-84.670	36.116	-0.109	-0.095
-83.655	725.926	0.251	-0.661
-82.640	-141.368	0.095	-0.009
-81.626	66.061	0.171	-0.171
-80.611	-112.791	0.325	0.064
-79.597	800.000	0.081	-0.262
-78.582	-200.000	-0.017	-0.155
-77.567	142.548	-0.237	0.311
-76.553	620.546	0.128	-0.318
-75.538	-200.000	0.021	0.408
-74.524	-81.581	-0.138	-0.045
-73.509	133.887	-0.159	0.203
-72.494	800.000	-0.032	0.098
-71.480	137.288	0.176	0.227
-70.465	-147.643	0.241	0.020
-69.451	800.000	-0.065	-0.254
-68.436	251.197	0.157	0.264
-67.422	-200.000	-0.022	-0.273
-66.407	800.000	0.029	0.124
-65.392	-200.000	-0.002	-0.211
-64.378	-200.000	-0.027	0.172
-63.363	-132.720	0.678	-0.086
-62.349	800.000	-0.074	0.214
-61.334	23.638	-0.897	-0.729
-60.319	46.444	0.492	0.451
-59.305	-200.000	0.003	-1.061
-58.290	103.172	0.556	0.644
-57.276	205.780	0.923	1.417
-56.261	-200.000	85.113	494.452
-55.246	495.819	1356.253	3076.585
-54.232	151.087	2577.391	3460.669
-53.217	108.183	2316.755	2727.025
-52.203	47.407	1935.377	1779.958
-51.188	41.822	1724.570	1543.080
-50.173	38.998	1679.321	1481.271
-49.159	53.547	1721.710	1630.005
-48.144	57.682	1740.785	1679.581
-47.130	41.624	1700.552	1519.841
-46.115	38.594	1685.671	1483.570
-45.100	38.448	1680.937	1478.243
-44.086	38.551	1678.038	1476.412
-43.071	38.397	1675.439	1472.911
-42.057	38.376	1673.596	1471.071
-41.042	38.388	1671.378	1469.157
-40.027	38.401	1669.609	1467.638
-39.013	38.340	1667.487	1465.255
-37.998	38.473	1665.803	1464.714
-36.984	38.434	1664.427	1463.158
-35.969	38.594	1662.173	1462.315
-34.954	38.697	1660.928	1461.926
-33.940	38.640	1658.798	1459.568
-32.925	38.487	1657.531	1457.256
-31.911	38.592	1655.788	1456.448
-30.896	38.578	1653.974	1454.687
-29.881	38.571	1652.448	1453.237
-28.867	38.581	1650.551	1451.583
-27.852	38.600	1649.620	1450.849
-26.838	38.632	1647.467	1449.134
-25.823	38.629	1646.405	1448.122
-24.809	38.586	1645.149	1446.645
-23.794	38.637	1643.830	1445.800
-22.779	38.666	1642.467	1444.758
-21.765	38.629	1640.489	1442.689
-20.750	38.567	1639.181	1441.029
-19.736	38.545	1637.950	1439.728
-18.721	38.614	1635.856	1438.334
-17.706	38.503	1635.153	1436.845
-16.692	38.540	1633.136	1435.289
-15.677	38.646	1631.680	1434.722
-14.663	38.628	1630.382	1433.396
-13.648	38.724	1629.179	1432.987
-12.633	38.730	1627.245	1431.268
-11.619	38.626	1626.618	1429.899
-10.604	38.668	1624.603	1428.378
-9.590	38.734	1623.171	1427.542
-8.575	38.641	1622.146	1425.906
-7.560	38.637	1620.899	1424.731
-6.546	38.622	1619.935	1423.714
-5.531	38.657	1618.368	1422.533
-4.517	38.553	1617.449	1420.919
-3.502	38.588	1615.966	1419.809
-2.487	38.549	1614.931	1418.565
-1.473	38.181	1603.106	1405.474
-0.458	35.029	1581.497	1364.051
0.556	30.462	1579.228	1325.090
1.571	27.646	1603.147	1324.620
2.586	26.893	1617.556	1330.882
3.600	23.854	1564.153	1265.237
4.615	13.326	1448.890	1102.108
5.629	3.375	1377.545	984.432
6.644	1.514	1368.272	965.899
7.659	1.454	1366.507	964.189
8.673	1.366	1365.301	962.694
9.688	1.357	1363.274	961.121
10.702	1.005	1360.836	957.097
11.717	4.637	1367.903	985.015
12.731	14.914	1388.374	1065.450
13.746	23.332	1402.295	1129.981
14.761	25.256	1404.263	1143.742
15.775	25.485	1403.731	1144.665
16.790	25.512	1403.542	1144.578
17.804	25.578	1402.715	1144.223
18.819	25.743	1402.996	1145.405
19.834	25.888	1401.787	1145.237
20.848	25.878	1401.363	1144.723
21.863	25.901	1400.413	1143.992
22.877	25.949	1399.107	1143.129
23.892	25.792	1398.718	1141.718
24.907	25.799	1397.796	1140.904
25.921	25.746	1397.193	1139.975
26.936	25.904	1395.472	1139.470
27.950	25.950	1394.450	1138.826
28.965	25.862	1393.446	1137.352
29.980	25.815	1392.187	1135.926
30.994	25.838	1390.884	1134.909
32.009	25.856	1390.104	1134.282
33.023	25.902	1388.573	1133.221
34.038	25.789	1387.631	1131.646
35.053	25.783	1386.661	1130.713
36.067	25.768	1385.348	1129.447
37.082	25.881	1384.463	1129.334
38.096	25.857	1383.493	1128.297
39.111	25.910	1382.419	1127.653
40.126	25.875	1382.049	1127.028
41.140	25.918	1381.315	1126.599
42.155	25.794	1381.666	1126.010
43.169	25.832	1381.252	1125.810
44.184	25.842	1381.179	1125.714
45.199	25.812	1380.394	1124.787
46.213	25.775	1380.101	1124.219
47.228	25.818	1379.206	1123.662
48.242	25.899	1377.707	1122.845
49.257	25.751	1376.911	1121.175
50.271	25.677	1375.385	1119.372
51.286	25.838	1373.519	1118.753
52.301	25.789	1372.310	1117.367
53.315	25.796	1371.574	1116.711
54.330	25.821	1370.361	1115.781
55.344	25.872	1369.228	1115.074
56.359	25.838	1368.405	1114.093
57.374	25.791	1367.936	1113.325
58.388	25.735	1367.284	1112.347
59.403	25.816	1366.503	1112.114
60.417	25.770	1366.174	1111.465
61.432	25.851	1365.654	1111.444
62.447	25.801	1364.481	1110.085
63.461	25.893	1363.509	1109.758
64.476	25.826	1362.116	1108.118
65.490	25.812	1361.425	1107.373
66.505	25.822	1359.683	1105.919
67.520	25.766	1358.769	1104.729
68.534	25.870	1357.464	1104.209
69.549	25.855	1356.461	1103.208
70.563	25.970	1355.452	1102.993
71.578	25.902	1354.454	1101.662
72.593	25.838	1353.742	1100.600
73.607	25.767	1353.202	1099.628
74.622	25.914	1352.130	1099.557
75.636	25.910	1351.304	1098.765
76.651	25.866	1350.966	1098.122
77.666	25.805	1350.262	1097.083
78.680	25.934	1349.573	1097.209
79.695	25.824	1349.156	1096.103
80.709	25.904	1348.099	1095.634
81.724	25.851	1347.607	1094.815
82.739	25.828	1346.736	1093.872
83.753	25.826	1345.721	1092.937
84.768	25.748	1344.970	1091.758
85.782	25.905	1343.230	1091.201
86.797	25.874	1341.993	1089.913
87.812	25.933	1340.839	1089.234
88.826	25.869	1340.288	1088.306
89.841	25.898	1338.938	1087.288
90.855	25.846	1338.237	1086.308
91.870	25.819	1337.764	1085.664
92.884	25.868	1336.833	1085.107
93.899	25.967	1335.711	1084.700
94.914	25.939	1334.590	1083.520
95.928	26.007	1333.923	1083.292
96.943	25.839	1333.536	1081.877
97.957	25.949	1332.717	1081.777
98.972	25.949	1331.794	1080.929
99.987	25.873	1330.797	1079.572
101.001	25.836	1329.833	1078.470
102.016	25.814	1328.872	1077.466
103.030	25.907	1327.858	1077.100
104.045	25.908	1327.397	1076.639
105.060	25.869	1326.525	1075.606
106.074	25.882	1325.424	1074.692
107.089	26.048	1323.582	1074.093
108.103	25.870	1323.245	1072.662
109.118	25.919	1322.417	1072.192
110.133	25.994	1320.667	1071.125
111.147	25.967	1320.394	1070.648
112.162	25.868	1318.990	1068.824
113.176	26.023	1317.942	1068.803
114.191	25.950	1317.021	1067.526
115.206	26.003	1315.647	1066.629
116.220	25.985	1314.535	1065.529
117.235	26.022	1313.760	1065.028
118.249	25.949	1312.954	1063.847
119.264	25.976	1312.520	1063.560
120.279	25.984	1311.392	1062.598
121.293	26.022	1310.834	1062.279
122.308	25.934	1310.199	1061.151
123.322	26.014	1309.305	1060.801
124.337	25.999	1308.416	1059.903
125.352	25.939	1307.832	1058.984
126.366	26.082	1306.756	1058.857
127.381	26.091	1305.718	1057.971
128.395	26.046	1305.106	1057.123
129.410	26.080	1303.742	1056.120
130.424	26.088	1302.980	1055.458
131.439	26.174	1301.958	1055.039
132.454	26.031	1301.375	1053.637
133.468	26.094	1300.723	1053.385
134.483	26.053	1300.304	1052.711
135.497	25.919	1299.629	1051.291
136.512	26.038	1298.592	1051.055
137.527	25.925	1297.287	1049.249
138.541	26.077	1295.742	1048.787
139.556	26.011	1294.700	1047.468
140.570	25.972	1294.152	1046.704
141.585	26.074	1292.955	1046.239
142.600	26.093	1291.734	1045.266
143.614	26.063	1291.321	1044.665
144.629	26.020	1290.144	1043.373
145.643	25.880	1289.098	1041.626
146.658	25.847	1288.364	1040.751
147.673	25.968	1287.286	1040.484
148.687	25.950	1286.212	1039.422
149.702	25.890	1284.905	1037.924
150.716	25.956	1283.402	1037.001
151.731	25.893	1282.813	1036.069
152.746	25.967	1281.922	1035.686
153.760	25.953	1280.882	1034.670
154.775	25.959	1279.773	1033.717
155.789	26.072	1278.834	1033.514
156.804	26.021	1278.192	1032.612
157.819	25.958	1277.217	1031.374
158.833	26.034	1276.314	1030.990
159.848	26.097	1275.780	1030.823
160.862	25.928	1275.185	1029.289
161.877	26.102	1274.205	1029.397
162.892	26.052	1273.739	1028.649
163.906	26.132	1272.351	1027.888
164.921	26.225	1271.427	1027.582
165.935	26.266	1270.705	1027.142
166.950	26.217	1270.273	1026.421
167.964	26.273	1269.578	1026.088
168.979	26.179	1269.214	1025.170
169.994	26.176	1268.740	1024.681
171.008	26.210	1267.804	1024.025
172.023	26.120	1267.217	1022.952
173.037	26.112	1266.483	1022.224
174.052	26.138	1265.868	1021.781
175.067	26.143	1264.983	1021.005
176.081	26.155	1264.316	1020.445
177.096	26.062	1263.768	1019.385
178.110	26.120	1262.671	1018.742
179.125	26.262	1261.142	1018.214
180.140	26.137	1260.481	1016.890
181.154	26.107	1259.466	1015.811
182.169	26.139	1258.551	1015.163
183.183	26.198	1257.426	1014.496
184.198	26.262	1256.447	1013.974
185.213	26.158	1255.187	1012.288
186.227	26.209	1254.287	1011.757
187.242	26.233	1253.838	1011.438
188.256	26.265	1252.355	1010.333
189.271	26.285	1251.805	1009.912
190.286	26.205	1250.706	1008.487
191.300	26.146	1250.510	1007.909
192.315	26.231	1250.028	1007.910
193.329	26.247	1249.957	1007.850
194.344	26.330	1249.198	1007.613
195.359	26.294	1248.309	1006.609
196.373	26.270	1247.833	1005.998
197.388	26.148	1247.958	1005.330
198.402	26.097	1247.815	1004.844
199.417	26.110	1247.364	1004.464
200.432	26.232	1246.487	1004.348
201.446	26.240	1245.747	1003.704
202.461	26.256	1244.734	1002.891
203.475	26.179	1244.062	1001.833
204.490	26.230	1242.701	1000.929
205.504	26.291	1241.981	1000.598
206.519	26.176	1241.492	999.482
207.534	26.232	1240.243	998.697
208.548	26.323	1239.035	998.136
209.563	26.340	1238.378	997.613
210.577	26.242	1237.557	996.324
211.592	26.201	1237.356	995.846
212.607	26.202	1236.766	995.290
213.621	26.347	1235.657	995.111
214.636	26.351	1234.539	994.141
215.650	26.428	1233.448	993.600
216.665	26.232	1233.008	992.082
217.680	26.304	1231.797	991.411
218.694	26.360	1230.806	990.832
219.709	26.248	1230.641	990.001
220.723	26.394	1229.548	989.832
221.738	26.404	1228.481	988.941
222.753	26.273	1228.161	987.879
223.767	26.412	1227.879	988.326
224.782	26.394	1227.534	987.861
225.796	26.370	1226.818	987.067
226.811	26.342	1226.110	986.255
227.826	26.381	1225.734	986.079
228.840	26.415	1225.079	985.653
229.855	26.420	1224.156	984.848
230.869	26.467	1223.181	984.234
231.884	26.416	1222.714	983.491
232.899	26.384	1222.321	982.914
233.913	26.462	1221.257	982.399
234.928	26.523	1221.106	982.520
235.942	26.524	1220.380	981.854
236.957	26.565	1219.346	981.155
237.972	26.545	1218.968	980.657
238.986	26.532	1218.342	979.995
240.001	26.516	1217.765	979.360
241.015	26.615	1216.768	979.006
242.030	26.612	1215.962	978.257
243.045	26.568	1215.514	977.571
244.059	26.640	1214.275	976.877
245.074	26.621	1213.627	976.165
246.088	26.594	1213.257	975.634
247.103	26.673	1212.153	975.089
248.117	26.686	1211.004	974.146
249.132	26.581	1210.605	973.175
250.147	26.686	1210.184	973.315
251.161	26.653	1209.420	972.437
252.176	26.650	1208.718	971.769
253.190	26.708	1207.962	971.388
254.205	26.734	1207.243	970.862
255.220	26.764	1206.411	970.267
256.234	26.735	1206.061	969.745
257.249	26.656	1205.402	968.709
258.263	26.712	1204.871	968.495
259.278	26.781	1204.200	968.238
260.293	26.760	1204.018	967.892
261.307	26.713	1203.589	967.213
262.322	26.709	1203.054	966.675
263.336	26.739	1202.120	965.999
264.351	26.759	1201.676	965.662
265.366	26.801	1200.550	964.898
266.380	26.733	1200.246	964.208
267.395	26.716	1199.590	963.502
268.409	26.691	1198.976	962.790
269.424	26.669	1198.446	962.163
270.439	26.719	1197.850	961.866
271.453	26.848	1197.101	961.862
272.468	26.784	1196.040	960.586
273.482	26.656	1195.327	959.248
274.497	26.778	1195.191	959.702
275.512	26.813	1194.650	959.367
276.526	26.763	1194.021	958.511
277.541	26.771	1193.204	957.813
278.555	26.876	1192.470	957.696
279.570	26.979	1191.704	957.541
280.585	26.879	1190.551	956.002
281.599	26.817	1189.901	955.071
282.614	26.786	1189.406	954.425
283.628	26.910	1188.154	953.988
284.643	26.974	1187.458	953.680
285.657	26.919	1186.675	952.679
286.672	26.932	1185.853	952.002
287.687	26.923	1185.010	951.192
288.701	26.935	1184.213	950.532
289.716	26.993	1183.334	950.045
290.730	26.870	1183.757	949.660
291.745	26.909	1182.608	948.855
292.760	27.003	1182.208	948.941
293.774	27.000	1181.584	948.341
294.789	27.002	1180.974	947.780
295.803	27.018	1180.476	947.381
296.818	26.972	1179.941	946.625
297.833	26.982	1179.150	945.959
298.847	27.043	1178.118	945.363
299.862	26.982	1177.703	944.632
300.876	27.049	1177.134	944.438
301.891	27.062	1176.485	943.903
302.906	27.168	1175.389	943.490
303.920	27.070	1175.191	942.741
304.935	27.125	1174.296	942.225
305.949	27.057	1173.815	941.401
306.964	27.155	1173.324	941.433
307.979	27.241	1172.645	941.247
308.993	27.292	1171.865	940.802
310.008	27.156	1170.863	939.210
311.022	27.212	1169.969	938.704
312.037	27.236	1169.418	938.301
313.052	27.158	1168.786	937.308
314.066	27.242	1167.476	936.607
315.081	27.149	1166.847	935.543
316.095	27.188	1166.822	935.641
317.110	27.267	1166.041	935.338
318.125	27.220	1165.610	934.668
319.139	27.210	1164.998	934.042
320.154	27.232	1164.058	933.319
321.168	27.295	1163.396	933.030
322.183	27.185	1163.493	932.461
323.197	27.291	1162.284	931.953
324.212	27.273	1161.653	931.268
325.227	27.401	1161.254	931.524
326.241	27.272	1161.222	930.752
327.256	27.339	1159.973	930.012
328.270	27.336	1159.303	929.378
329.285	27.297	1158.519	928.469
330.300	27.357	1157.812	928.126
331.314	27.316	1156.919	927.116
332.329	27.342	1156.285	926.663
333.343	27.345	1155.557	926.009
334.358	27.444	1154.463	925.556
335.373	27.488	1153.808	925.171
336.387	27.421	1153.358	924.389
337.402	27.454	1152.824	924.048
338.416	27.502	1151.836	923.415
339.431	27.525	1151.186	922.930
340.446	27.486	1150.370	921.995
341.460	27.649	1149.780	922.269
342.475	27.501	1149.476	921.192
343.489	27.541	1148.229	920.312
344.504	27.488	1147.341	919.254
345.519	27.517	1146.768	918.863
346.533	27.609	1145.699	918.386
347.548	27.601	1145.084	917.773
348.562	27.550	1144.588	917.038
349.577	27.590	1143.876	916.587
350.592	27.389	1143.215	914.966
351.606	27.442	1142.618	914.671
352.621	27.601	1141.856	914.777
353.635	27.688	1141.020	914.466
354.650	27.667	1140.403	913.782
355.665	27.628	1139.587	912.855
356.679	27.677	1139.149	912.665
357.694	27.836	1138.504	912.865
358.708	27.751	1138.008	911.964
359.723	27.607	1137.557	910.801
360.738	27.652	1136.678	910.240
361.752	27.726	1136.231	910.172
362.767	27.765	1135.977	910.082
363.781	27.762	1134.897	909.120
364.796	27.798	1134.396	908.817
365.810	27.767	1133.667	907.999
366.825	27.772	1132.925	907.351
367.840	27.870	1132.717	907.589
368.854	27.869	1132.168	907.065
369.869	27.742	1131.798	906.056
370.883	27.652	1131.208	905.059
371.898	27.922	1130.138	905.460
372.913	27.821	1129.576	904.428
373.927	27.858	1129.151	904.191
374.942	28.007	1128.168	904.064
375.956	27.981	1127.639	903.429
376.971	27.895	1127.361	902.702
377.986	28.008	1126.595	902.566
379.000	28.000	1126.068	902.026
380.015	27.970	1125.777	901.565
381.029	28.048	1124.626	900.946
382.044	28.074	1123.986	900.486
383.059	27.984	1123.893	899.887
384.073	28.015	1122.987	899.236
385.088	28.034	1122.067	898.511
386.102	28.110	1121.393	898.264
387.117	27.931	1120.735	896.778
388.132	27.969	1119.876	896.200
389.146	28.006	1119.174	895.738
390.161	27.968	1118.711	895.105
391.175	28.122	1117.871	895.104
392.190	28.097	1116.766	894.019
393.205	28.026	1116.380	893.287
394.219	28.059	1115.483	892.647
395.234	28.137	1115.220	892.742
396.248	28.096	1113.927	891.425
397.263	28.163	1113.373	891.229
398.278	28.193	1112.603	890.680
399.292	28.270	1112.088	890.567
400.307	28.256	1111.689	890.098
401.321	28.166	1111.139	889.142
402.336	28.254	1110.112	888.667
403.350	28.126	1109.496	887.476
404.365	28.174	1108.966	887.205
405.380	28.293	1108.224	887.113
406.394	28.243	1107.419	886.147
407.409	28.362	1106.514	885.920
408.423	28.285	1106.009	885.065
409.438	28.308	1105.258	884.496
410.453	28.376	1104.681	884.281
411.467	28.344	1103.688	883.256
412.482	28.324	1103.027	882.553
413.496	28.322	1102.628	882.148
414.511	28.304	1102.053	881.521
415.526	28.363	1101.548	881.324
416.540	28.368	1101.204	880.994
417.555	28.390	1100.655	880.582
418.569	28.300	1100.328	879.810
419.584	28.414	1099.884	879.925
420.599	28.489	1099.267	879.715
421.613	95.369	1309.712	1412.652
422.628	89.199	1340.344	1412.800
