DTS Sentinel unit serial number:	SN413079Multiplexer serial number:	ORYXHardware model number:	OX4-SRSoftware version number:	ORYX F/W v4.00 Oryx Data Collector v3.7.2.0data status	okinstallation	princeton_trtdifferential loss correction	single-endedforward channel	channel 2reverse channel	N/Adate	2019/09/15time	16:31:35forward acquisition time	60.00reverse acquisition time	0.00gamma	496.2192k internal	0.2286k external	0.2286temperature offset calibration	0.9936default loss term (dB/km)	0.3790temperature slope calibration	1.0000multiplexer offset coefficient	1.0000multiplexer slope coefficient	1.0000fibre end	0.00T internal ref (°C)	43.94T ext. ref 1 (°C)	5.59T ext. ref 2 (°C)	40.55length (m)	temperature (°C)	Stokes	anti-Stokes-747.200	147.707	-0.086	0.119
-746.185	74.960	0.195	0.210
-745.171	-121.695	-0.261	0.044
-744.156	-55.162	-0.333	0.154
-743.142	-200.000	0.028	0.244
-742.127	727.203	0.233	0.638
-741.112	173.048	0.135	-0.200
-740.098	-95.792	0.280	-0.077
-739.083	-129.225	0.198	0.028
-738.069	-80.648	0.109	0.037
-737.054	-83.473	0.256	0.084
-736.039	-133.461	-0.307	0.040
-735.025	1.108	-0.042	0.031
-734.010	800.000	-0.078	-0.301
-732.996	351.828	0.080	-0.163
-731.981	355.859	-0.045	-0.092
-730.966	39.419	-0.120	0.110
-729.952	800.000	0.048	-0.178
-728.937	-127.578	-0.191	-0.028
-727.923	-40.008	-0.176	0.094
-726.908	-41.372	0.165	0.087
-725.894	290.760	-0.132	0.245
-724.879	288.144	0.105	-0.195
-723.864	325.755	0.079	-0.156
-722.850	800.000	-0.066	0.273
-721.835	11.399	-0.226	0.178
-720.821	-39.817	-0.161	-0.086
-719.806	261.449	0.100	0.177
-718.791	-200.000	0.061	-0.414
-717.777	-134.369	-0.196	0.025
-716.762	-135.729	-0.162	0.020
-715.748	5.150	0.288	0.218
-714.733	-200.000	0.043	-0.247
-713.718	-174.445	0.122	0.004
-712.704	136.481	0.202	0.271
-711.689	-71.135	0.157	0.060
-710.675	-200.000	0.012	-0.344
-709.660	-134.252	-0.337	0.042
-708.645	-82.454	-0.510	0.170
-707.631	-200.000	0.016	-0.133
-706.616	-200.000	0.015	0.286
-705.602	250.216	-0.035	0.060
-704.587	448.172	-0.177	-0.399
-703.572	8.591	-0.099	0.076
-702.558	-51.282	-0.237	0.113
-701.543	-139.288	-0.232	0.026
-700.529	-55.008	0.244	0.113
-699.514	-117.970	0.120	-0.022
-698.499	-157.389	-0.181	-0.011
-697.485	-131.212	0.054	0.007
-696.470	800.000	-0.089	-0.272
-695.456	-67.973	0.128	-0.051
-694.441	248.219	0.074	-0.128
-693.426	-126.862	-0.053	-0.008
-692.412	94.987	-0.056	0.065
-691.397	92.108	0.146	0.169
-690.383	-122.091	0.161	-0.027
-689.368	-75.490	-0.326	0.119
-688.354	-44.172	-0.193	0.099
-687.339	-200.000	0.035	-0.546
-686.324	-73.683	-0.653	-0.243
-685.310	-80.149	-0.006	-0.002
-684.295	-41.998	0.261	-0.137
-683.281	-39.428	-0.102	-0.055
-682.266	17.385	-0.134	0.109
-681.251	-200.000	-0.004	-0.027
-680.237	149.493	0.179	0.249
-679.222	53.952	-0.113	-0.111
-678.208	160.680	-0.086	0.122
-677.193	800.000	-0.029	-0.087
-676.178	-122.738	-0.128	0.021
-675.164	-100.926	0.210	0.053
-674.149	-75.224	0.321	-0.117
-673.135	-200.000	0.050	-0.375
-672.120	36.480	0.075	0.068
-671.105	-34.115	-0.122	-0.069
-670.091	-62.543	-0.256	-0.109
-669.076	-200.000	-0.016	-0.089
-668.062	800.000	0.064	0.206
-667.047	-200.000	-0.077	-0.361
-666.032	-28.284	-0.107	-0.063
-665.018	-200.000	-0.032	0.492
-664.003	-200.000	0.044	0.350
-662.989	-26.464	-0.100	-0.060
-661.974	19.533	-0.037	0.031
-660.959	-157.414	0.163	-0.010
-659.945	-130.120	-0.344	-0.048
-658.930	26.191	0.209	0.179
-657.916	-200.000	0.003	-0.151
-656.901	53.298	0.043	0.042
-655.886	-33.933	-0.148	-0.083
-654.872	-200.000	0.042	0.261
-653.857	315.001	-0.086	0.166
-652.843	-14.591	0.272	-0.179
-651.828	90.085	0.187	0.214
-650.814	-188.699	0.334	0.004
-649.799	-200.000	0.017	0.101
-648.784	-80.300	0.305	-0.104
-647.770	-200.000	0.001	-0.117
-646.755	-69.898	0.087	0.034
-645.741	-200.000	0.034	-0.184
-644.726	93.703	0.089	-0.103
-643.711	373.957	-0.088	-0.183
-642.697	56.392	-0.224	0.222
-641.682	800.000	0.077	0.246
-640.668	800.000	0.068	0.237
-639.653	6.738	0.203	0.154
-638.638	337.990	0.136	0.269
-637.624	-200.000	-0.019	-0.403
-636.609	-200.000	0.001	0.369
-635.595	-200.000	-0.001	0.072
-634.580	792.151	-0.021	-0.060
-633.565	-38.582	0.214	0.115
-632.551	730.156	-0.020	-0.054
-631.536	-107.485	-0.181	0.040
-630.522	95.844	-0.270	0.315
-629.507	110.992	-0.085	0.104
-628.492	-58.828	-0.369	0.163
-627.478	76.370	-0.305	-0.330
-626.463	-132.664	-0.044	-0.006
-625.449	47.000	0.157	0.149
-624.434	-165.958	-0.183	-0.008
-623.419	-41.179	-0.144	-0.076
-622.405	-105.657	-0.147	-0.034
-621.390	-49.841	-0.018	-0.009
-620.376	-200.000	-0.011	-0.250
-619.361	38.262	0.122	-0.110
-618.346	-91.718	-0.298	-0.086
-617.332	11.702	0.075	0.059
-616.317	410.998	-0.061	-0.133
-615.303	73.011	0.133	-0.142
-614.288	800.000	0.032	-0.100
-613.273	-1.009	-0.272	-0.197
-612.259	-30.698	0.240	-0.139
-611.244	-43.589	-0.115	-0.059
-610.230	-97.635	0.187	-0.049
-609.215	-113.333	0.079	-0.016
-608.201	800.000	0.031	-0.097
-607.186	-200.000	-0.015	0.175
-606.171	-100.593	-0.054	0.014
-605.157	31.478	-0.029	-0.025
-604.142	-53.581	0.562	-0.262
-603.128	-200.000	-0.016	0.131
-602.113	-6.402	0.269	-0.187
-601.098	153.491	-0.077	0.107
-600.084	233.253	-0.034	0.057
-599.069	-125.825	-0.372	0.057
-598.055	385.575	0.168	-0.353
-597.040	-200.000	-0.007	0.126
-596.025	-131.207	0.285	0.039
-595.011	-200.000	-0.003	0.015
-593.996	-110.110	0.313	-0.067
-592.982	-125.994	-0.203	0.031
-591.967	-12.053	0.186	0.124
-590.952	-200.000	-0.011	-0.243
-589.938	636.603	-0.028	0.074
-588.923	-200.000	-0.014	-0.096
-587.909	50.406	0.080	-0.077
-586.894	-27.199	-0.141	-0.084
-585.879	-200.000	-0.059	-0.396
-584.865	800.000	-0.070	0.281
-583.850	-200.000	0.095	0.573
-582.836	145.401	-0.081	-0.111
-581.821	-38.815	0.333	0.179
-580.806	138.627	-0.029	0.039
-579.792	-23.773	-0.158	0.096
-578.777	344.054	-0.098	-0.195
-577.763	-200.000	-0.087	0.477
-576.748	-165.328	0.168	0.008
-575.733	-12.762	-0.247	-0.164
-574.719	61.596	-0.144	-0.146
-573.704	14.749	-0.216	-0.172
-572.690	-47.459	0.223	0.111
-571.675	-141.585	0.130	-0.013
-570.661	-2.908	-0.196	-0.139
-569.646	-119.115	0.197	0.035
-568.631	642.000	0.069	-0.179
-567.617	-6.397	-0.223	0.155
-566.602	-80.431	-0.159	-0.054
-565.588	-15.547	0.298	0.194
-564.573	-120.339	-0.258	0.045
-563.558	800.000	-0.027	0.100
-562.544	31.391	-0.224	-0.196
-561.529	800.000	0.116	-0.491
-560.515	-200.000	0.002	0.124
-559.500	567.618	-0.130	-0.321
-558.485	35.434	-0.078	0.070
-557.471	3.174	-0.192	0.143
-556.456	-117.975	0.268	0.049
-555.442	-200.000	-0.006	-0.217
-554.427	22.224	0.257	0.214
-553.412	-136.805	-0.177	-0.021
-552.398	-81.369	0.132	0.044
-551.383	153.406	0.166	-0.232
-550.369	128.260	-0.279	-0.361
-549.354	-200.000	-0.049	-0.361
-548.339	-103.756	-0.249	-0.059
-547.325	-60.012	-0.543	0.236
-546.310	-68.417	0.240	-0.095
-545.296	-75.364	0.301	0.109
-544.281	800.000	-0.011	0.035
-543.266	217.435	-0.142	0.231
-542.252	302.031	0.060	0.113
-541.237	279.318	0.151	-0.275
-540.223	-155.670	0.376	0.025
-539.208	130.539	-0.250	0.326
-538.193	183.023	0.060	0.090
-537.179	-36.530	0.256	0.140
-536.164	-128.195	0.125	-0.018
-535.150	-107.304	0.169	0.038
-534.135	-126.550	-0.174	0.026
-533.121	800.000	-0.034	0.144
-532.106	234.297	-0.098	0.164
-531.091	64.109	0.265	-0.271
-530.077	-124.761	-0.237	-0.037
-529.062	-112.309	0.647	0.132
-528.048	-200.000	-0.011	-0.393
-527.033	-124.397	0.341	0.054
-526.018	-155.562	0.155	-0.010
-525.004	67.001	0.307	-0.319
-523.989	-61.550	0.152	0.065
-522.975	-200.000	-0.034	0.363
-521.960	-85.664	-0.096	0.030
-520.945	-72.640	-0.100	0.038
-519.931	70.542	-0.294	0.310
-518.916	-200.000	0.013	-0.234
-517.902	157.802	-0.140	-0.197
-516.887	-146.931	-0.139	-0.012
-515.872	159.305	-0.184	0.261
-514.858	-97.062	-0.170	0.045
-513.843	-200.000	-0.025	0.281
-512.829	169.518	-0.080	-0.117
-511.814	-136.997	-0.365	0.043
-510.799	-5.124	0.152	-0.106
-509.785	-200.000	-0.002	0.035
-508.770	263.349	-0.124	-0.219
-507.756	100.141	0.156	-0.184
-506.741	192.594	0.121	-0.186
-505.726	386.676	-0.143	-0.301
-504.712	-200.000	-0.018	-0.312
-503.697	65.600	0.110	-0.113
-502.683	-51.863	0.161	-0.076
-501.668	-200.000	-0.041	-0.189
-500.653	272.637	-0.077	-0.139
-499.639	295.528	-0.096	-0.178
-498.624	-200.000	0.033	-0.156
-497.610	-85.658	-0.153	0.048
-496.595	-40.059	0.093	0.049
-495.581	14.513	-0.376	-0.298
-494.566	800.000	0.029	0.118
-493.551	800.000	-0.026	-0.077
-492.537	-91.452	0.175	-0.051
-491.522	73.861	0.188	0.200
-490.508	-200.000	0.022	-0.178
-489.493	22.286	-0.140	-0.116
-488.478	60.301	-0.238	0.239
-487.464	-156.650	0.176	-0.011
-486.449	-133.608	-0.257	-0.033
-485.435	-200.000	-0.013	-0.343
-484.420	641.183	0.043	0.111
-483.405	291.281	0.115	-0.212
-482.391	-200.000	0.103	-0.000
-481.376	-45.797	0.340	-0.171
-480.362	-72.549	0.366	0.137
-479.347	99.655	0.233	0.274
-478.332	116.899	-0.156	-0.195
-477.318	800.000	0.042	-0.163
-476.303	168.039	0.101	-0.145
-475.289	45.192	0.149	-0.140
-474.274	65.243	0.048	-0.050
-473.259	-46.883	0.214	0.106
-472.245	-128.938	-0.263	0.037
-471.230	-11.625	0.106	-0.071
-470.216	153.997	0.272	-0.378
-469.201	-57.731	-0.079	0.035
-468.186	-147.872	0.216	0.018
-467.172	-200.000	0.013	0.120
-466.157	-29.389	-0.174	-0.101
-465.143	800.000	-0.141	-0.416
-464.128	23.640	-0.118	0.099
-463.113	613.832	0.035	-0.089
-462.099	-200.000	0.011	0.318
-461.084	800.000	-0.109	-0.311
-460.070	106.685	-0.157	-0.189
-459.055	-200.000	0.042	0.200
-458.040	-183.359	0.287	0.005
-457.026	-200.000	-0.027	0.413
-456.011	-200.000	-0.037	-0.213
-454.997	145.494	-0.090	-0.123
-453.982	98.737	0.155	0.181
-452.968	337.625	-0.077	0.153
-451.953	618.611	0.100	0.256
-450.938	-111.385	0.339	-0.070
-449.924	111.886	-0.167	-0.204
-448.909	-98.804	-0.133	0.034
-447.895	-200.000	-0.041	-0.240
-446.880	-200.000	-0.012	0.097
-445.865	454.715	-0.072	0.162
-444.851	-119.072	-0.301	0.053
-443.836	275.520	-0.110	0.199
-442.822	-83.532	-0.209	-0.068
-441.807	-94.823	-0.140	0.038
-440.792	-55.752	0.243	-0.110
-439.778	447.389	0.122	-0.271
-438.763	-34.432	0.098	0.054
-437.749	-73.401	-0.197	0.073
-436.734	-200.000	0.034	-0.254
-435.719	-93.496	-0.107	-0.030
-434.705	-200.000	0.032	-0.396
-433.690	-75.263	0.123	-0.045
-432.676	49.090	0.171	0.163
-431.661	-200.000	0.004	-0.396
-430.646	10.795	0.230	-0.178
-429.632	800.000	0.038	-0.133
-428.617	68.778	-0.029	-0.030
-427.603	180.303	0.048	-0.072
-426.588	-117.058	-0.332	0.061
-425.573	52.164	-0.408	-0.394
-424.559	134.297	0.256	-0.337
-423.544	275.065	-0.093	0.167
-422.530	-164.741	0.291	0.013
-421.515	-98.784	-0.291	-0.075
-420.500	-200.000	0.027	-0.150
-419.486	35.841	0.122	0.109
-418.471	-45.853	0.161	0.080
-417.457	-154.999	-0.104	-0.007
-416.442	284.599	-0.052	0.095
-415.428	-154.770	-0.264	0.018
-414.413	-200.000	-0.032	-0.177
-413.398	695.854	0.076	0.202
-412.384	-200.000	0.022	0.099
-411.369	40.543	0.269	0.246
-410.355	-154.845	-0.400	-0.027
-409.340	-200.000	-0.039	-0.297
-408.325	-52.505	-0.370	0.173
-407.311	-176.110	0.260	-0.007
-406.296	344.066	-0.078	-0.155
-405.282	-156.887	-0.211	0.013
-404.267	800.000	0.037	0.150
-403.252	-53.256	-0.275	0.128
-402.238	-200.000	0.004	0.139
-401.223	-31.947	-0.306	0.174
-400.209	371.872	0.083	-0.171
-399.194	-39.894	0.061	-0.032
-398.179	-21.616	0.269	0.166
-397.165	149.175	0.074	0.101
-396.150	-200.000	0.028	-0.250
-395.136	-200.000	0.127	-0.000
-394.121	191.595	0.146	-0.223
-393.106	800.000	0.085	0.238
-392.092	268.239	-0.080	0.142
-391.077	465.106	0.174	-0.394
-390.063	-200.000	-0.036	0.377
-389.048	800.000	-0.090	-0.331
-388.033	589.401	-0.050	0.125
-387.019	800.000	0.049	0.212
-386.004	-74.805	-0.156	0.057
-384.990	356.155	-0.115	-0.232
-383.975	797.154	-0.075	-0.209
-382.960	-19.091	0.167	0.105
-381.946	259.620	0.110	0.192
-380.931	-102.277	0.326	0.079
-379.917	-39.799	0.170	0.090
-378.902	115.801	-0.149	0.185
-377.888	73.310	-0.158	0.168
-376.873	-95.492	0.305	0.083
-375.858	788.102	-0.108	0.300
-374.844	-200.000	0.046	0.293
-373.829	-200.000	-0.016	0.135
-372.815	539.592	0.051	-0.122
-371.800	-115.048	0.320	0.062
-370.785	-123.364	0.081	0.013
-369.771	74.909	0.110	0.117
-368.756	-109.379	0.131	0.028
-367.742	3.618	0.154	0.113
-366.727	-10.799	0.108	0.072
-365.712	-11.550	0.010	0.006
-364.698	-200.000	-0.029	-0.330
-363.683	-143.726	0.033	0.003
-362.669	-200.000	0.026	0.134
-361.654	-21.688	0.235	-0.145
-360.639	-106.058	-0.196	0.045
-359.625	-94.080	0.172	-0.048
-358.610	-110.107	-0.222	0.047
-357.596	24.839	-0.133	0.112
-356.581	-90.417	-0.371	-0.109
-355.566	78.097	0.038	0.041
-354.552	-77.988	0.072	0.025
-353.537	-132.519	-0.126	-0.016
-352.523	-4.955	-0.264	0.184
-351.508	22.831	0.049	0.041
-350.493	-184.349	-0.150	-0.002
-349.479	44.107	-0.180	0.166
-348.464	-106.415	-0.306	-0.069
-347.450	-200.000	0.012	0.267
-346.435	800.000	0.086	0.295
-345.420	-200.000	-0.017	-0.120
-344.406	-200.000	0.034	0.152
-343.391	-200.000	0.018	0.235
-342.377	800.000	-0.097	0.273
-341.362	-10.153	-0.215	0.144
-340.348	1.981	-0.081	-0.059
-339.333	800.000	-0.103	0.371
-338.318	-0.387	-0.223	0.160
-337.304	-81.083	-0.211	0.071
-336.289	-92.668	0.218	0.062
-335.275	-200.000	0.008	0.111
-334.260	159.377	-0.142	0.199
-333.245	152.711	0.210	0.290
-332.231	28.376	-0.123	-0.105
-331.216	118.218	0.042	0.053
-330.202	55.162	0.128	0.125
-329.187	-77.051	0.105	0.037
-328.172	9.993	-0.287	-0.220
-327.158	800.000	0.093	-0.283
-326.143	-200.000	-0.009	-0.058
-325.129	-10.998	-0.235	-0.157
-324.114	-112.443	-0.075	0.015
-323.099	207.385	0.053	0.083
-322.085	-200.000	-0.006	0.314
-321.070	-103.781	0.089	-0.021
-320.056	-191.748	-0.160	-0.002
-319.041	-200.000	0.001	0.032
-318.026	24.411	-0.058	-0.049
-317.012	240.572	-0.073	-0.123
-315.997	-77.508	-0.173	-0.061
-314.983	32.026	0.115	0.100
-313.968	800.000	-0.142	0.481
-312.953	-44.636	-0.089	0.045
-311.939	800.000	-0.094	0.262
-310.924	-150.347	0.370	0.029
-309.910	-133.991	0.219	-0.027
-308.895	77.413	0.030	0.033
-307.880	336.857	-0.058	0.113
-306.866	691.860	0.039	-0.104
-305.851	-8.741	0.221	0.150
-304.837	-139.365	0.293	-0.032
-303.822	196.656	-0.069	0.107
-302.807	-200.000	-0.023	-0.129
-301.793	470.132	-0.080	0.182
-300.778	-27.694	-0.252	0.148
-299.764	253.756	-0.099	0.171
-298.749	-200.000	-0.056	0.414
-297.735	-104.852	-0.274	0.064
-296.720	633.401	0.116	0.296
-295.705	-137.484	-0.176	0.020
-294.691	-102.745	-0.192	-0.046
-293.676	73.771	0.095	0.100
-292.662	-83.207	0.205	-0.066
-291.647	-143.437	0.144	-0.014
-290.632	-147.017	-0.226	-0.020
-289.618	800.000	-0.098	-0.311
-288.603	-85.919	0.583	0.182
-287.589	-95.616	-0.153	-0.041
-286.574	-36.247	0.324	-0.176
-285.559	-5.037	-0.302	-0.210
-284.545	-200.000	0.019	-0.110
-283.530	455.246	-0.100	-0.223
-282.516	27.491	0.126	0.107
-281.501	-97.074	0.163	-0.043
-280.486	-16.045	-0.082	-0.052
-279.472	304.466	0.059	0.111
-278.457	212.664	-0.164	0.261
-277.443	-4.118	-0.234	-0.163
-276.428	368.113	0.107	-0.218
-275.413	29.558	0.157	-0.135
-274.399	-200.000	-0.023	-0.176
-273.384	800.000	0.042	0.142
-272.370	117.373	0.095	0.118
-271.355	33.829	0.272	0.238
-270.340	800.000	-0.048	0.206
-269.326	234.551	-0.073	-0.122
-268.311	274.953	0.081	-0.145
-267.297	800.000	-0.121	0.398
-266.282	18.026	-0.108	-0.087
-265.267	800.000	-0.018	-0.063
-264.253	719.720	-0.084	0.225
-263.238	108.193	-0.151	0.181
-262.224	-20.796	0.110	-0.068
-261.209	-75.194	0.116	0.042
-260.195	800.000	-0.034	0.121
-259.180	-200.000	0.050	-0.332
-258.165	228.730	-0.201	-0.330
-257.151	356.737	-0.086	-0.172
-256.136	51.307	-0.071	-0.067
-255.122	249.939	-0.180	-0.307
-254.107	-200.000	0.037	-0.284
-253.092	15.649	0.134	-0.106
-252.078	800.000	-0.092	0.286
-251.063	60.111	0.218	-0.217
-250.049	-200.000	-0.008	-0.091
-249.034	-28.732	0.193	0.112
-248.019	-200.000	0.038	-0.194
-247.005	800.000	-0.121	-0.339
-245.990	-49.594	-0.153	0.073
-244.976	165.052	-0.139	0.198
-243.961	0.108	0.050	0.036
-242.946	-9.023	0.479	0.323
-241.932	-200.000	0.020	0.119
-240.917	-33.297	-0.266	-0.148
-239.903	76.637	-0.259	0.277
-238.888	-36.183	0.227	-0.123
-237.873	-87.301	0.130	0.040
-236.859	435.999	0.117	0.256
-235.844	398.118	-0.072	0.152
-234.830	732.136	0.123	0.331
-233.815	49.002	-0.131	-0.124
-232.800	-200.000	0.031	0.251
-231.786	-136.646	-0.266	0.031
-230.771	-138.743	-0.254	0.028
-229.757	153.712	-0.058	0.080
-228.742	185.185	-0.252	-0.376
-227.727	-200.000	0.011	0.128
-226.713	-96.824	0.270	-0.071
-225.698	800.000	0.040	-0.173
-224.684	800.000	-0.012	-0.051
-223.669	114.268	-0.163	0.200
-222.655	380.107	0.038	-0.078
-221.640	51.439	-0.072	0.069
-220.625	-19.846	-0.215	0.134
-219.611	33.733	0.098	-0.086
-218.596	-29.098	-0.379	-0.219
-217.582	800.000	0.028	0.085
-216.567	172.546	-0.094	0.136
-215.552	45.013	-0.108	-0.100
-214.538	394.594	0.046	-0.097
-213.523	-24.912	0.131	-0.078
-212.509	-120.860	-0.191	0.032
-211.494	-136.231	0.307	0.036
-210.479	23.923	-0.298	-0.247
-209.465	131.155	-0.200	-0.258
-208.450	90.326	-0.089	0.100
-207.436	-95.057	-0.282	-0.077
-206.421	252.338	-0.017	-0.028
-205.406	-90.519	0.107	0.031
-204.392	664.305	-0.201	-0.520
-203.377	-38.402	0.088	0.047
-202.363	36.349	-0.093	-0.082
-201.348	113.390	0.086	-0.105
-200.333	-200.000	0.002	0.033
-199.319	671.788	0.088	0.228
-198.304	21.461	0.146	-0.119
-197.290	-61.112	0.322	0.137
-196.275	126.100	0.085	0.108
-195.260	95.230	-0.091	0.104
-194.246	428.086	-0.061	0.132
-193.231	-71.070	-0.119	-0.045
-192.217	800.000	0.060	0.180
-191.202	-125.286	0.431	0.066
-190.187	-113.949	-0.118	-0.023
-189.173	800.000	0.029	0.107
-188.158	-200.000	-0.043	-0.309
-187.144	-75.563	0.164	-0.059
-186.129	-52.098	0.268	0.125
-185.114	664.719	-0.051	-0.132
-184.100	800.000	-0.090	-0.279
-183.085	10.036	-0.353	-0.269
-182.071	15.289	0.098	0.077
-181.056	-200.000	0.018	0.260
-180.042	637.936	0.161	0.412
-179.027	45.927	-0.237	-0.220
-178.012	-200.000	0.072	0.337
-176.998	800.000	-0.077	-0.236
-175.983	-200.000	-0.001	-0.124
-174.969	126.537	0.107	0.136
-173.954	-126.796	0.043	0.006
-172.939	-34.586	0.329	0.181
-171.925	-200.000	0.014	-0.126
-170.910	-154.386	-0.144	-0.010
-169.896	60.359	0.122	0.121
-168.881	-200.000	0.078	-0.377
-167.866	-109.915	0.114	-0.024
-166.852	-19.131	-0.106	-0.066
-165.837	-124.493	0.328	0.051
-164.823	-200.000	0.008	-0.080
-163.808	7.727	-0.099	0.074
-162.793	-133.077	0.231	0.029
-161.779	-200.000	-0.005	-0.084
-160.764	-109.131	-0.251	0.054
-159.750	-145.091	0.353	-0.032
-158.735	97.650	0.250	0.288
-157.720	138.246	0.211	0.277
-156.706	-43.337	0.151	0.077
-155.691	-19.749	0.236	0.146
-154.677	37.688	0.260	-0.232
-153.662	147.116	-0.164	-0.221
-152.647	385.054	-0.077	0.159
-151.633	-59.146	-0.142	0.061
-150.618	800.000	0.153	-0.480
-149.604	-42.901	0.208	-0.106
-148.589	-200.000	-0.009	0.109
-147.574	-200.000	-0.002	-0.149
-146.560	800.000	-0.047	-0.142
-145.545	295.553	0.196	0.359
-144.531	-200.000	-0.033	0.393
-143.516	318.986	-0.062	0.117
-142.502	2.107	-0.112	0.081
-141.487	47.540	-0.192	0.180
-140.472	800.000	0.069	0.208
-139.458	27.625	0.246	-0.207
-138.443	81.145	-0.137	-0.148
-137.429	-17.135	-0.110	0.070
-136.414	800.000	-0.026	0.082
-135.399	84.494	0.110	-0.121
-134.385	-112.773	-0.184	-0.037
-133.370	456.679	0.028	0.062
-132.356	57.545	-0.212	-0.208
-131.341	800.000	0.026	0.105
-130.326	267.119	-0.068	-0.119
-129.312	800.000	-0.075	0.228
-128.297	-161.398	-0.188	-0.010
-127.283	88.283	0.159	-0.176
-126.268	-156.400	-0.193	-0.012
-125.253	800.000	-0.041	-0.165
-124.239	-43.506	0.171	-0.087
-123.224	-116.813	0.198	-0.036
-122.210	390.675	-0.053	0.110
-121.195	-164.228	-0.226	0.010
-120.180	-52.596	0.107	-0.049
-119.166	-40.353	0.246	-0.128
-118.151	160.318	0.201	0.281
-117.137	-22.726	-0.107	0.064
-116.122	-187.303	0.324	0.004
-115.107	349.559	-0.037	0.074
-114.093	48.808	0.089	-0.083
-113.078	-200.000	-0.027	-0.215
-112.064	58.740	-0.045	-0.044
-111.049	407.393	0.104	0.220
-110.034	-84.018	0.256	-0.081
-109.020	-43.985	0.248	0.125
-108.005	269.800	0.232	0.408
-106.991	800.000	0.036	-0.153
-105.976	-200.000	0.000	-0.120
-104.962	-200.000	0.013	-0.312
-103.947	14.589	0.242	0.189
-102.932	-13.983	0.081	0.052
-101.918	-65.624	0.041	0.016
-100.903	88.583	0.152	0.170
-99.889	-98.358	0.080	0.020
-98.874	-200.000	-0.015	-0.207
-97.859	800.000	-0.057	-0.205
-96.845	-48.612	0.302	0.145
-95.830	405.053	-0.049	0.103
-94.816	-200.000	-0.021	0.330
-93.801	-67.773	0.301	-0.118
-92.786	-132.556	0.290	0.037
-91.772	140.257	0.172	-0.227
-90.757	-142.214	0.152	-0.015
-89.743	-200.000	-0.006	-0.037
-88.728	-31.534	0.180	0.101
-87.713	-200.000	-0.074	-0.347
-86.699	-58.427	0.400	-0.174
-85.684	-90.489	0.116	-0.034
-84.670	800.000	-0.040	0.128
-83.655	457.844	0.096	0.213
-82.640	-26.621	0.189	0.111
-81.626	-115.385	-0.082	-0.015
-80.611	347.259	0.147	0.290
-79.597	-189.016	0.402	0.005
-78.582	-60.205	0.329	-0.140
-77.567	-200.000	0.000	0.181
-76.553	800.000	-0.094	0.292
-75.538	800.000	0.027	0.110
-74.524	800.000	0.095	0.335
-73.509	-42.925	-0.207	0.105
-72.494	55.226	0.068	-0.065
-71.480	215.936	0.039	-0.062
-70.465	-200.000	-0.011	0.188
-69.451	22.823	0.265	-0.217
-68.436	-107.929	-0.243	0.053
-67.422	-200.000	0.029	0.283
-66.407	-127.137	-0.393	0.057
-65.392	522.203	-0.084	0.198
-64.378	490.492	-0.020	0.045
-63.363	-62.226	-0.040	0.017
-62.349	551.092	0.057	0.137
-61.334	-3.435	-0.857	-0.596
-60.319	800.000	-0.030	0.086
-59.305	-200.000	0.122	-0.638
-58.290	75.322	0.516	0.544
-57.276	800.000	0.630	2.034
-56.261	-200.000	70.497	530.960
-55.246	581.291	1276.339	3125.434
-54.232	138.851	2539.362	3332.722
-53.217	113.284	2369.316	2871.269
-52.203	53.824	1985.851	1905.321
-51.188	47.407	1772.127	1649.318
-50.173	44.438	1724.112	1581.517
-49.159	58.247	1753.834	1716.935
-48.144	64.894	1772.947	1787.437
-47.130	47.220	1738.357	1616.171
-46.115	44.039	1724.155	1578.195
-45.100	43.773	1719.659	1571.950
-44.086	43.746	1717.170	1569.406
-43.071	43.710	1714.253	1566.396
-42.057	43.698	1712.020	1564.206
-41.042	43.842	1709.477	1562.927
-40.027	43.778	1708.051	1561.066
-39.013	43.799	1705.909	1559.212
-37.998	43.762	1704.222	1557.325
-36.984	43.866	1702.118	1556.140
-35.969	44.009	1700.795	1555.962
-34.954	43.939	1699.561	1554.238
-33.940	43.901	1697.551	1552.043
-32.925	43.959	1696.016	1551.022
-31.911	43.906	1694.576	1549.239
-30.896	43.930	1691.853	1546.877
-29.881	43.820	1690.579	1544.811
-28.867	43.922	1688.597	1543.712
-27.852	43.973	1687.243	1542.800
-26.838	43.886	1685.665	1540.636
-25.823	43.954	1684.207	1539.757
-24.809	43.989	1682.616	1538.511
-23.794	43.981	1681.504	1537.372
-22.779	43.993	1679.163	1535.257
-21.765	43.921	1677.970	1533.563
-20.750	43.970	1676.091	1532.154
-19.736	43.904	1674.992	1530.590
-18.721	44.021	1673.091	1529.678
-17.706	44.031	1671.599	1528.325
-16.692	43.973	1669.713	1526.105
-15.677	43.887	1668.713	1524.485
-14.663	43.914	1667.752	1523.746
-13.648	43.988	1665.845	1522.506
-12.633	43.986	1664.089	1520.822
-11.619	43.982	1662.727	1519.485
-10.604	43.997	1661.220	1518.163
-9.590	44.110	1659.230	1517.129
-8.575	43.839	1659.107	1514.927
-7.560	44.052	1656.912	1514.455
-6.546	43.959	1655.592	1512.494
-5.531	44.014	1654.701	1512.029
-4.517	43.957	1653.486	1510.438
-3.502	44.022	1652.440	1509.904
-2.487	44.044	1650.831	1508.537
-1.473	44.195	1639.832	1499.545
-0.458	41.985	1619.776	1464.989
0.556	35.010	1615.698	1421.300
1.571	31.162	1636.589	1410.538
2.586	29.611	1649.973	1410.116
3.600	25.988	1597.060	1337.948
4.615	16.315	1481.125	1173.808
5.629	7.596	1408.278	1058.120
6.644	5.731	1397.906	1037.889
7.659	5.574	1396.126	1035.443
8.673	5.527	1395.128	1034.298
9.688	5.518	1392.933	1032.520
10.702	5.278	1390.849	1029.302
11.717	8.982	1398.447	1059.333
12.731	16.835	1412.540	1122.107
13.746	19.751	1416.061	1144.128
14.761	17.560	1411.476	1125.855
15.775	16.210	1407.965	1114.049
16.790	15.211	1404.854	1104.905
17.804	14.279	1402.389	1096.733
18.819	13.883	1401.009	1092.951
19.834	13.457	1399.957	1089.228
20.848	13.306	1398.505	1087.015
21.863	13.057	1397.203	1084.270
22.877	12.894	1395.991	1082.163
23.892	12.840	1395.096	1081.020
24.907	12.897	1394.027	1080.466
25.921	12.902	1393.316	1079.853
26.936	12.965	1392.203	1079.308
27.950	12.978	1391.277	1078.578
28.965	12.983	1390.341	1077.789
29.980	13.077	1388.869	1077.171
30.994	13.182	1388.136	1077.190
32.009	13.166	1386.671	1075.855
33.023	13.111	1385.594	1074.566
34.038	13.114	1383.812	1073.106
35.053	13.053	1382.837	1071.859
36.067	13.019	1381.568	1070.558
37.082	13.055	1380.336	1069.744
38.096	13.097	1379.182	1069.030
39.111	13.160	1378.228	1068.601
40.126	13.015	1377.979	1067.377
41.140	12.858	1377.164	1065.633
42.155	12.898	1376.259	1065.099
43.169	12.790	1376.023	1064.126
44.184	12.855	1375.715	1064.210
45.199	12.803	1375.556	1063.659
46.213	12.923	1375.124	1064.007
47.228	13.019	1373.940	1063.613
48.242	12.990	1372.634	1062.323
49.257	13.012	1371.005	1061.107
50.271	12.943	1369.712	1059.567
51.286	13.031	1368.090	1058.787
52.301	12.993	1366.912	1057.538
53.315	12.870	1366.282	1056.166
54.330	12.995	1364.789	1055.719
55.344	12.863	1364.051	1054.211
56.359	12.792	1363.183	1052.993
57.374	12.900	1361.695	1052.442
58.388	12.846	1360.886	1051.381
59.403	12.716	1360.688	1050.304
60.417	12.799	1359.904	1050.137
61.432	12.754	1358.962	1049.025
62.447	12.718	1357.669	1047.710
63.461	12.716	1356.683	1046.844
64.476	12.733	1355.835	1046.202
65.490	12.705	1354.691	1045.051
66.505	12.703	1353.161	1043.765
67.520	12.709	1351.648	1042.540
68.534	12.752	1350.160	1041.572
69.549	12.717	1349.987	1041.128
70.563	12.784	1348.156	1040.044
71.578	12.633	1347.351	1038.382
72.593	12.658	1346.486	1037.783
73.607	12.660	1345.403	1036.868
74.622	12.638	1344.745	1036.126
75.636	12.609	1344.183	1035.421
76.651	12.603	1343.376	1034.673
77.666	12.695	1343.072	1034.924
78.680	12.714	1342.404	1034.437
79.695	12.732	1341.479	1033.747
80.709	12.782	1340.588	1033.282
81.724	12.772	1339.865	1032.569
82.739	12.835	1339.337	1032.467
83.753	12.913	1338.632	1032.317
84.768	13.012	1337.219	1031.760
85.782	13.006	1336.374	1030.977
86.797	12.998	1335.200	1029.930
87.812	12.936	1333.389	1028.052
88.826	12.939	1332.421	1027.235
89.841	12.946	1331.524	1026.497
90.855	13.040	1330.199	1025.969
91.870	12.925	1329.762	1024.824
92.884	13.011	1328.946	1024.642
93.899	13.094	1327.647	1024.062
94.914	13.110	1327.116	1023.663
95.928	13.131	1326.077	1022.902
96.943	13.182	1324.983	1022.281
97.957	13.202	1324.224	1021.731
98.972	13.065	1323.193	1019.999
99.987	13.071	1322.122	1019.118
101.001	13.071	1321.135	1018.270
102.016	13.037	1320.099	1017.170
103.030	12.985	1319.579	1016.358
104.045	13.134	1318.120	1016.061
105.060	13.035	1317.174	1014.633
106.074	12.900	1315.821	1012.672
107.089	12.826	1314.375	1011.015
108.103	12.785	1313.062	1009.663
109.118	12.801	1311.534	1008.501
110.133	12.778	1309.984	1007.079
111.147	12.781	1308.859	1006.140
112.162	12.768	1307.617	1005.021
113.176	12.872	1306.600	1004.783
114.191	12.855	1305.843	1004.008
115.206	12.931	1304.138	1003.067
116.220	12.834	1302.788	1001.352
117.235	12.870	1301.673	1000.628
118.249	12.918	1300.851	1000.200
119.264	12.878	1299.881	999.122
120.279	12.899	1298.541	998.128
121.293	12.902	1297.294	997.103
122.308	12.764	1296.637	995.675
123.322	12.768	1295.489	994.728
124.337	12.761	1294.289	993.675
125.352	12.744	1293.440	992.836
126.366	12.796	1292.174	992.088
127.381	12.722	1291.591	991.110
128.395	12.757	1290.213	990.172
129.410	12.753	1288.976	989.114
130.424	12.796	1288.867	989.197
131.439	12.859	1287.858	988.717
132.454	12.971	1286.933	988.589
133.468	12.954	1285.985	987.669
134.483	12.981	1285.288	987.207
135.497	12.912	1284.378	986.008
136.512	12.998	1282.983	985.368
137.527	12.931	1281.445	983.700
138.541	13.018	1280.322	983.267
139.556	13.010	1279.029	982.138
140.570	13.028	1277.978	981.354
141.585	13.179	1276.487	981.016
142.600	13.103	1275.441	979.677
143.614	13.200	1274.355	979.332
144.629	13.254	1273.379	978.811
145.643	13.179	1272.347	977.489
146.658	13.064	1271.096	975.765
147.673	13.154	1269.251	974.790
148.687	13.072	1268.526	973.662
149.702	12.989	1266.881	971.828
150.716	12.939	1265.798	970.614
151.731	12.995	1264.727	970.037
152.746	13.111	1262.889	969.223
153.760	13.026	1261.907	967.882
154.775	13.130	1260.567	967.383
155.789	13.156	1259.462	966.602
156.804	13.101	1258.663	965.578
157.819	13.155	1257.949	965.260
158.833	13.235	1257.041	964.949
159.848	13.287	1255.772	964.192
160.862	13.180	1254.959	962.859
161.877	13.136	1253.526	961.415
162.892	12.961	1252.841	959.787
163.906	13.061	1251.885	959.553
164.921	13.089	1250.490	958.561
165.935	13.126	1249.601	958.009
166.950	13.197	1249.080	957.938
167.964	13.160	1248.221	956.978
168.979	13.242	1247.299	956.660
169.994	13.167	1246.960	955.884
171.008	13.212	1246.226	955.495
172.023	13.332	1244.926	955.111
173.037	13.314	1244.415	954.527
174.052	13.232	1243.688	953.410
175.067	13.178	1242.449	952.066
176.081	13.224	1241.399	951.444
177.096	13.140	1240.388	950.100
178.110	13.146	1239.352	949.255
179.125	13.213	1237.732	948.318
180.140	13.284	1236.753	947.892
181.154	13.306	1235.729	947.150
182.169	13.283	1234.456	945.958
183.183	13.347	1233.278	945.338
184.198	13.448	1231.792	944.690
185.213	13.399	1231.048	943.757
186.227	13.441	1229.856	943.000
187.242	13.424	1228.890	942.075
188.256	13.406	1228.011	941.216
189.271	13.479	1227.038	940.803
190.286	13.425	1225.758	939.431
191.300	13.226	1225.102	937.718
192.315	13.188	1224.107	936.657
193.329	13.147	1223.853	936.145
194.344	13.256	1223.041	936.062
195.359	13.194	1222.755	935.407
196.373	13.387	1221.756	935.650
197.388	13.465	1221.392	935.734
198.402	13.574	1220.886	935.879
199.417	13.696	1220.299	936.032
200.432	13.691	1219.482	935.298
201.446	13.723	1218.681	934.780
202.461	13.799	1217.662	934.342
203.475	13.722	1216.836	933.194
204.490	13.697	1215.498	931.945
205.504	13.478	1214.756	930.063
206.519	13.585	1213.177	929.373
207.534	13.648	1211.867	928.639
208.548	13.669	1210.710	927.789
209.563	13.617	1210.231	927.048
210.577	13.625	1209.441	926.405
211.592	13.716	1208.607	926.193
212.607	13.810	1207.625	925.880
213.621	13.891	1206.812	925.627
214.636	13.782	1205.934	924.266
215.650	13.760	1204.920	923.285
216.665	13.912	1203.770	923.165
217.680	13.780	1203.248	921.949
218.694	13.934	1202.168	921.898
219.709	13.888	1201.545	921.081
220.723	13.873	1200.824	920.367
221.738	13.742	1200.300	919.155
222.753	13.917	1198.897	918.969
223.767	13.937	1198.511	918.702
224.782	14.026	1197.696	918.490
225.796	14.029	1197.221	918.060
226.811	14.081	1196.439	917.668
227.826	13.993	1195.750	916.572
228.840	14.028	1194.868	916.006
229.855	13.910	1194.310	914.848
230.869	14.016	1193.184	914.486
231.884	13.934	1192.325	913.296
232.899	13.881	1191.913	912.609
233.913	13.869	1190.822	911.630
234.928	13.826	1190.651	911.182
235.942	13.893	1189.488	910.577
236.957	13.926	1188.425	909.864
237.972	13.837	1187.948	908.929
238.986	13.835	1187.521	908.513
240.001	13.902	1186.685	908.157
241.015	13.927	1185.672	907.442
242.030	13.942	1184.820	906.787
243.045	13.956	1184.081	906.217
244.059	13.967	1183.387	905.665
245.074	14.102	1182.448	905.603
246.088	14.074	1181.558	904.694
247.103	14.181	1180.622	904.475
248.117	14.183	1179.998	903.929
249.132	14.275	1179.693	904.113
250.147	14.375	1178.552	903.704
251.161	14.470	1178.269	903.919
252.176	14.427	1177.535	903.046
253.190	14.492	1176.638	902.630
254.205	14.550	1176.252	902.568
255.220	14.535	1175.649	901.944
256.234	14.504	1174.999	901.196
257.249	14.478	1174.181	900.350
258.263	14.636	1173.396	900.522
259.278	14.519	1172.987	899.496
260.293	14.523	1172.531	899.090
261.307	14.659	1171.702	899.105
262.322	14.664	1170.904	898.439
263.336	14.608	1170.509	897.757
264.351	14.648	1169.943	897.457
265.366	14.717	1168.862	896.917
266.380	14.741	1168.374	896.595
267.395	14.800	1167.124	895.874
268.409	14.658	1166.423	894.493
269.424	14.567	1165.957	893.572
270.439	14.709	1165.564	893.953
271.453	14.709	1164.809	893.293
272.468	14.672	1163.794	892.237
273.482	14.617	1163.019	891.268
274.497	14.549	1162.707	890.589
275.512	14.666	1161.860	890.488
276.526	14.623	1160.977	889.501
277.541	14.720	1160.099	889.265
278.555	14.724	1159.605	888.828
279.570	14.691	1158.948	888.074
280.585	14.837	1158.007	888.047
281.599	14.865	1156.884	887.260
282.614	14.798	1155.847	886.030
283.628	14.800	1154.827	885.178
284.643	14.791	1153.964	884.389
285.657	14.898	1152.859	884.033
286.672	14.785	1152.217	882.865
287.687	14.856	1151.440	882.568
288.701	14.902	1150.439	881.962
289.716	14.879	1149.970	881.405
290.730	14.905	1148.825	880.587
291.745	14.892	1148.074	879.863
292.760	14.931	1147.988	879.925
293.774	14.951	1147.091	879.265
294.789	15.100	1146.555	879.560
295.803	15.066	1146.016	878.887
296.818	15.006	1144.907	877.646
297.833	15.025	1144.132	877.071
298.847	14.992	1143.311	876.194
299.862	15.047	1142.498	875.783
300.876	15.085	1141.904	875.448
301.891	15.188	1141.053	875.255
302.906	15.056	1140.594	874.136
303.920	15.169	1140.153	874.312
304.935	15.093	1139.434	873.286
305.949	15.258	1138.633	873.455
306.964	15.237	1137.818	872.643
307.979	15.207	1137.097	871.855
308.993	15.187	1136.811	871.455
310.008	15.419	1135.138	871.300
311.022	15.279	1134.636	870.110
312.037	15.347	1133.877	869.805
313.052	15.226	1133.200	868.583
314.066	15.348	1131.611	867.918
315.081	15.209	1131.156	866.775
316.095	15.238	1130.095	866.036
317.110	15.264	1129.539	865.667
318.125	15.214	1128.788	864.756
319.139	15.177	1128.114	863.973
320.154	15.245	1127.197	863.543
321.168	15.176	1126.505	862.582
322.183	15.298	1125.994	862.741
323.197	15.248	1125.673	862.164
324.212	15.293	1125.173	861.935
325.227	15.267	1124.717	861.375
326.241	15.359	1123.826	861.090
327.256	15.355	1123.024	860.377
328.270	15.341	1121.809	859.301
329.285	15.414	1120.755	858.789
330.300	15.333	1120.032	857.745
331.314	15.361	1119.201	857.177
332.329	15.314	1118.281	856.157
333.343	15.387	1117.113	855.558
334.358	15.436	1116.132	854.980
335.373	15.447	1115.719	854.645
336.387	15.421	1115.127	853.982
337.402	15.529	1114.465	853.949
338.416	15.556	1113.766	853.475
339.431	15.562	1112.841	852.723
340.446	15.635	1112.214	852.537
341.460	15.712	1111.701	852.459
342.475	15.701	1111.054	851.831
343.489	15.669	1109.986	850.774
344.504	15.703	1109.113	850.205
345.519	15.780	1108.236	849.844
346.533	15.838	1107.353	849.383
347.548	15.887	1106.842	849.166
348.562	15.853	1105.827	848.140
349.577	15.774	1105.164	847.156
350.592	15.648	1104.293	845.783
351.606	15.775	1103.709	845.895
352.621	15.731	1102.873	844.960
353.635	15.679	1102.245	844.146
354.650	15.755	1101.391	843.798
355.665	15.819	1100.807	843.597
356.679	15.739	1100.073	842.558
357.694	15.716	1099.729	842.105
358.708	15.874	1099.006	842.267
359.723	15.814	1098.400	841.428
360.738	15.859	1097.238	840.687
361.752	15.947	1096.906	840.800
362.767	15.948	1096.702	840.573
363.781	15.871	1096.202	839.733
364.796	15.936	1095.238	839.240
365.810	16.007	1095.138	839.444
366.825	16.120	1094.187	839.203
367.840	16.193	1093.657	839.089
368.854	16.253	1092.845	838.688
369.869	16.112	1092.379	837.556
370.883	16.156	1091.043	836.675
371.898	16.036	1090.616	835.679
372.913	16.062	1090.269	835.467
373.927	16.079	1089.658	835.012
374.942	16.044	1089.264	834.462
375.956	16.184	1088.493	834.490
376.971	16.138	1087.784	833.643
377.986	16.158	1087.061	833.114
379.000	16.241	1086.360	832.913
380.015	16.243	1086.196	832.725
381.029	16.408	1085.093	832.619
382.044	16.458	1084.512	832.345
383.059	16.311	1083.860	831.047
384.073	16.297	1083.387	830.543
385.088	16.395	1082.203	830.043
386.102	16.410	1081.219	829.285
387.117	16.397	1080.399	828.520
388.132	16.280	1079.472	827.166
389.146	16.267	1078.744	826.472
390.161	16.361	1077.813	826.141
391.175	16.307	1077.222	825.354
392.190	16.408	1076.121	824.929
393.205	16.499	1075.574	824.882
394.219	16.420	1074.877	823.891
395.234	16.398	1074.274	823.244
396.248	16.313	1073.217	821.949
397.263	16.497	1071.732	821.635
398.278	16.392	1071.360	820.767
399.292	16.345	1070.686	819.948
400.307	16.248	1069.634	818.599
401.321	16.408	1069.098	818.890
402.336	16.399	1068.227	818.109
403.350	16.398	1067.446	817.435
404.365	16.508	1066.901	817.479
405.380	16.506	1066.203	816.860
406.394	16.600	1065.068	816.370
407.409	16.638	1064.596	816.123
408.423	16.637	1064.112	815.672
409.438	16.730	1063.074	815.252
410.453	16.707	1062.745	814.817
411.467	16.741	1062.102	814.413
412.482	16.777	1061.074	813.730
413.496	16.772	1060.794	813.419
414.511	16.787	1060.225	812.980
415.526	16.790	1060.145	812.865
416.540	16.807	1059.581	812.438
417.555	16.948	1058.552	812.253
418.569	16.862	1058.362	811.625
419.584	16.870	1057.814	811.171
420.599	16.895	1057.281	810.810
421.613	72.363	1272.940	1284.635
422.628	66.634	1304.403	1284.779
