DTS Sentinel unit serial number:	SN413079Multiplexer serial number:	ORYXHardware model number:	OX4-SRSoftware version number:	ORYX F/W v4.00 Oryx Data Collector v3.7.2.0data status	okinstallation	princeton_trtdifferential loss correction	single-endedforward channel	channel 2reverse channel	N/Adate	2019/09/12time	02:13:11forward acquisition time	60.00reverse acquisition time	0.00gamma	496.2192k internal	0.2326k external	0.2326temperature offset calibration	1.0090default loss term (dB/km)	0.3790temperature slope calibration	1.0000multiplexer offset coefficient	1.0000multiplexer slope coefficient	1.0000fibre end	0.00T internal ref (°C)	32.69T ext. ref 1 (°C)	2.08T ext. ref 2 (°C)	27.42length (m)	temperature (°C)	Stokes	anti-Stokes-747.200	-200.000	-0.017	-0.192
-746.185	-56.305	-0.205	0.092
-745.171	-120.330	0.091	-0.016
-744.156	-153.394	-0.142	0.010
-743.142	115.950	0.179	0.221
-742.127	80.038	0.242	0.262
-741.112	800.000	-0.083	-0.255
-740.098	-104.753	-0.456	0.106
-739.083	-200.000	-0.081	-0.442
-738.069	34.901	0.104	0.092
-737.054	-44.182	0.209	0.106
-736.039	670.537	-0.154	-0.402
-735.025	-200.000	0.025	0.292
-734.010	85.131	-0.204	-0.226
-732.996	174.336	-0.230	-0.335
-731.981	109.226	0.062	-0.075
-730.966	-82.262	-0.364	-0.120
-729.952	501.290	-0.125	-0.291
-728.937	526.288	-0.034	-0.080
-727.923	346.838	-0.222	-0.440
-726.908	-200.000	-0.065	-0.304
-725.894	-48.974	-0.194	0.094
-724.879	-165.570	-0.043	-0.002
-723.864	55.341	-0.403	-0.392
-722.850	225.219	-0.095	0.155
-721.835	-200.000	0.017	0.449
-720.821	-154.185	-0.170	0.012
-719.806	139.895	0.155	-0.206
-718.791	-46.149	0.088	-0.044
-717.777	18.949	0.163	0.132
-716.762	-58.681	0.411	0.179
-715.748	-200.000	-0.026	-0.406
-714.733	800.000	-0.040	-0.115
-713.718	91.502	0.110	-0.125
-712.704	-93.258	0.112	-0.031
-711.689	800.000	0.038	-0.149
-710.675	-171.478	0.145	-0.005
-709.660	284.995	-0.101	0.183
-708.645	-65.051	0.087	0.035
-707.631	-76.717	-0.556	-0.196
-706.616	230.944	-0.051	-0.084
-705.602	-200.000	0.014	0.105
-704.587	20.547	-0.104	-0.085
-703.572	-68.392	-0.278	0.109
-702.558	-70.412	0.271	0.103
-701.543	-200.000	0.031	-0.201
-700.529	-63.060	-0.199	0.083
-699.514	361.576	-0.115	0.233
-698.499	90.975	0.136	-0.154
-697.485	240.522	0.050	-0.084
-696.470	-58.717	0.133	0.058
-695.456	297.125	0.057	-0.105
-694.441	-157.451	0.041	-0.002
-693.426	-200.000	0.008	-0.128
-692.412	-200.000	-0.000	-0.437
-691.397	165.760	0.098	-0.140
-690.383	-80.965	-0.311	0.104
-689.368	800.000	0.043	0.172
-688.354	49.739	-0.058	-0.055
-687.339	-70.106	-0.108	-0.041
-686.324	698.290	-0.101	-0.267
-685.310	-131.543	0.238	-0.032
-684.295	800.000	0.021	0.081
-683.281	281.734	0.067	0.121
-682.266	-200.000	0.002	0.106
-681.251	400.595	-0.143	-0.301
-680.237	12.767	-0.100	0.078
-679.222	-67.293	-0.225	0.089
-678.208	-131.227	-0.032	-0.004
-677.193	132.970	0.185	-0.240
-676.178	566.001	0.183	-0.445
-675.164	-98.067	-0.436	-0.113
-674.149	-100.069	-0.113	-0.028
-673.135	-17.522	-0.356	0.225
-672.120	-140.654	-0.459	0.048
-671.105	-13.438	-0.239	-0.156
-670.091	698.893	-0.032	0.085
-669.076	-3.470	0.210	0.147
-668.062	-200.000	-0.019	0.224
-667.047	-111.588	0.052	-0.011
-666.032	800.000	-0.060	0.195
-665.018	-93.729	-0.089	0.025
-664.003	391.541	0.096	0.201
-662.989	-30.925	-0.095	-0.054
-661.974	370.932	-0.038	-0.077
-660.959	-68.783	-0.234	-0.091
-659.945	-164.819	0.208	0.009
-658.930	489.351	0.098	0.226
-657.916	-6.729	0.089	-0.061
-656.901	285.036	0.098	-0.178
-655.886	-99.160	-0.394	-0.100
-654.872	377.078	0.091	0.187
-653.857	-200.000	-0.042	0.293
-652.843	-131.012	0.122	0.016
-651.828	-77.229	-0.184	-0.064
-650.814	-41.980	-0.399	-0.205
-649.799	-200.000	0.027	-0.134
-648.784	572.630	0.090	-0.221
-647.770	54.950	-0.081	-0.078
-646.755	282.590	0.130	-0.234
-645.741	-92.634	-0.254	0.072
-644.726	206.818	-0.213	0.334
-643.711	-154.341	-0.104	0.007
-642.697	163.588	-0.064	0.090
-641.682	132.411	0.239	-0.310
-640.668	-54.267	0.301	-0.137
-639.653	146.806	0.163	0.220
-638.638	209.237	0.081	-0.127
-637.624	-200.000	-0.027	0.211
-636.609	108.787	-0.210	-0.252
-635.595	139.297	-0.101	0.134
-634.580	464.493	0.088	-0.199
-633.565	-200.000	0.017	0.232
-632.551	-54.768	0.134	0.061
-631.536	-116.445	-0.207	0.038
-630.522	-94.629	-0.212	0.058
-629.507	-49.388	-0.336	0.161
-628.492	-136.798	0.185	0.021
-627.478	30.777	-0.162	0.139
-626.463	-200.000	0.018	-0.235
-625.449	-88.695	-0.310	0.092
-624.434	130.340	-0.128	-0.165
-623.419	267.621	0.054	-0.095
-622.405	-2.769	-0.355	-0.249
-621.390	30.383	-0.079	-0.068
-620.376	281.237	-0.206	-0.370
-619.361	168.166	-0.008	0.012
-618.346	-91.240	-0.128	0.037
-617.332	-9.325	0.119	-0.079
-616.317	233.055	0.173	0.285
-615.303	-80.875	-0.237	0.079
-614.288	174.036	0.105	0.152
-613.273	-153.809	0.238	0.016
-612.259	-96.538	-0.358	-0.095
-611.244	-200.000	0.002	-0.071
-610.230	-58.644	0.149	0.065
-609.215	-200.000	0.019	-0.158
-608.201	175.518	-0.110	-0.160
-607.186	-200.000	-0.043	-0.384
-606.171	-129.946	0.272	-0.037
-605.157	800.000	0.037	0.128
-604.142	64.026	0.071	0.072
-603.128	-45.166	0.224	0.112
-602.113	107.634	-0.128	-0.153
-601.098	-184.295	-0.429	-0.007
-600.084	-200.000	-0.012	-0.118
-599.069	800.000	0.015	0.049
-598.055	-200.000	-0.017	-0.141
-597.040	42.261	0.137	-0.125
-596.025	-200.000	0.025	0.284
-595.011	-170.897	0.153	0.005
-593.996	800.000	-0.064	-0.260
-592.982	39.221	0.197	0.177
-591.967	-102.728	0.156	0.037
-590.952	790.232	-0.062	-0.172
-589.938	145.780	-0.229	0.308
-588.923	-6.759	0.107	-0.073
-587.909	-76.109	0.041	-0.015
-586.894	-104.089	0.116	-0.027
-585.879	-44.302	0.299	0.150
-584.865	-43.772	0.082	-0.042
-583.850	-13.209	0.313	-0.204
-582.836	132.391	0.214	0.276
-581.821	543.063	0.142	0.341
-580.806	-17.126	-0.213	-0.135
-579.792	18.797	0.226	-0.182
-578.777	800.000	-0.061	0.199
-577.763	136.803	0.054	-0.071
-576.748	262.206	0.133	0.231
-575.733	198.857	-0.158	0.243
-574.719	191.919	0.131	0.198
-573.704	-87.521	-0.364	-0.110
-572.690	405.321	-0.030	0.063
-571.675	-57.767	0.047	0.020
-570.661	-126.125	0.350	0.053
-569.646	273.030	-0.104	-0.185
-568.631	389.741	-0.146	-0.303
-567.617	-200.000	-0.013	-0.124
-566.602	265.301	-0.140	-0.245
-565.588	-200.000	-0.031	0.340
-564.573	219.118	-0.025	0.041
-563.558	-89.201	0.314	-0.093
-562.544	-30.951	-0.150	-0.085
-561.529	321.795	0.162	-0.309
-560.515	409.627	-0.101	-0.215
-559.500	-79.484	0.071	-0.024
-558.485	15.448	-0.223	-0.176
-557.471	-121.903	-0.372	-0.061
-556.456	-62.655	0.294	0.122
-555.442	-200.000	0.074	-0.328
-554.427	389.467	0.063	-0.130
-553.412	-200.000	0.016	0.108
-552.398	-71.235	-0.232	-0.087
-551.383	800.000	0.048	0.183
-550.369	103.177	0.027	0.031
-549.354	-6.379	-0.128	0.087
-548.339	250.892	-0.148	0.251
-547.325	-200.000	-0.010	-0.125
-546.310	86.601	0.140	0.155
-545.296	-71.217	0.228	0.086
-544.281	183.227	-0.130	-0.192
-543.266	112.150	-0.039	-0.048
-542.252	-139.220	0.251	-0.027
-541.237	800.000	0.078	0.227
-540.223	51.438	-0.144	-0.137
-539.208	14.996	0.071	-0.056
-538.193	-6.329	-0.131	-0.090
-537.179	91.620	-0.343	0.386
-536.164	-180.978	0.179	0.004
-535.150	-52.787	-0.258	-0.119
-534.135	-200.000	0.029	-0.192
-533.121	-131.385	0.204	-0.027
-532.106	-152.022	0.101	-0.007
-531.091	-200.000	0.004	0.280
-530.077	-117.099	-0.272	-0.049
-529.062	-103.960	-0.200	-0.047
-528.048	-101.451	0.234	0.057
-527.033	521.454	0.052	-0.121
-526.018	-76.777	0.103	-0.036
-525.004	-200.000	-0.027	0.157
-523.989	-25.767	-0.228	-0.135
-522.975	146.549	0.055	0.074
-521.960	87.326	0.113	-0.125
-520.945	-167.524	0.516	0.021
-519.931	718.398	0.031	0.082
-518.916	-130.209	-0.365	0.050
-517.902	-35.227	-0.048	-0.026
-516.887	61.822	-0.112	0.112
-515.872	631.338	-0.095	0.241
-514.858	-60.905	-0.155	-0.065
-513.843	151.140	0.141	0.191
-512.829	-119.679	-0.188	0.032
-511.814	800.000	-0.047	-0.137
-510.799	-200.000	-0.006	0.095
-509.785	-148.289	0.377	0.031
-508.770	406.301	0.106	-0.225
-507.756	54.066	0.170	0.164
-506.741	-128.795	0.176	-0.025
-505.726	-42.311	-0.142	-0.073
-504.712	326.346	-0.129	0.247
-503.697	800.000	-0.105	0.319
-502.683	-119.440	0.037	0.006
-501.668	314.623	0.014	-0.027
-500.653	148.644	-0.045	0.061
-499.639	157.750	-0.071	0.098
-498.624	-90.600	-0.418	0.121
-497.610	328.642	-0.027	0.051
-496.595	100.594	0.138	0.160
-495.581	-87.346	-0.321	0.097
-494.566	-162.347	0.143	-0.007
-493.551	800.000	-0.029	0.124
-492.537	-161.717	0.186	0.009
-491.522	-0.088	-0.211	0.150
-490.508	407.409	-0.091	0.191
-489.493	-114.210	-0.298	-0.057
-488.478	-200.000	0.008	-0.085
-487.464	314.579	-0.070	-0.131
-486.449	-14.922	-0.208	0.133
-485.435	-70.352	0.249	-0.094
-484.420	696.465	0.125	0.327
-483.405	48.482	0.100	0.094
-482.391	36.540	0.244	-0.215
-481.376	-48.402	0.130	0.062
-480.362	-152.373	0.070	0.005
-479.347	70.175	-0.062	-0.064
-478.332	-83.910	0.265	-0.084
-477.318	42.449	0.106	0.096
-476.303	-96.499	0.182	-0.048
-475.289	5.581	-0.180	-0.132
-474.274	800.000	-0.061	-0.259
-473.259	-200.000	0.008	-0.159
-472.245	66.918	0.139	0.141
-471.230	335.994	0.197	0.381
-470.216	-200.000	-0.043	-0.201
-469.201	67.021	-0.249	-0.253
-468.186	800.000	-0.073	-0.219
-467.172	142.425	0.221	0.293
-466.157	800.000	-0.115	-0.347
-465.143	-200.000	-0.037	0.276
-464.128	-144.960	0.389	0.035
-463.113	90.815	-0.109	0.121
-462.099	-200.000	-0.011	0.113
-461.084	-37.649	-0.152	-0.081
-460.070	46.502	-0.175	-0.162
-459.055	-57.121	0.112	-0.049
-458.040	-140.422	-0.231	0.024
-457.026	446.902	-0.137	-0.301
-456.011	-46.662	0.160	-0.078
-454.997	-2.331	-0.179	0.125
-453.982	229.008	-0.147	0.239
-452.968	-178.410	0.341	0.008
-451.953	505.681	-0.103	0.237
-450.938	-30.060	0.259	0.147
-449.924	371.870	-0.065	0.131
-448.909	405.315	0.114	-0.239
-447.895	-200.000	0.008	0.059
-446.880	-133.118	-0.025	-0.003
-445.865	-200.000	0.060	0.266
-444.851	76.299	-0.158	0.167
-443.836	-154.355	-0.263	-0.018
-442.822	492.775	-0.082	-0.187
-441.807	-18.237	0.106	0.066
-440.792	25.202	-0.043	0.035
-439.778	800.000	0.045	-0.167
-438.763	782.331	-0.090	0.247
-437.749	243.278	-0.077	-0.128
-436.734	-38.068	0.314	-0.166
-435.719	800.000	-0.027	0.100
-434.705	-109.203	-0.139	-0.029
-433.690	219.421	0.225	-0.359
-432.676	-200.000	-0.012	-0.172
-431.661	-73.806	-0.082	-0.030
-430.646	-30.880	-0.372	0.209
-429.632	800.000	0.083	0.249
-428.617	800.000	-0.027	0.106
-427.603	54.466	0.294	0.282
-426.588	-66.185	-0.204	0.081
-425.573	-131.410	0.048	-0.006
-424.559	-110.637	-0.078	-0.016
-423.544	73.451	-0.208	-0.217
-422.530	205.929	-0.177	0.274
-421.515	-51.551	0.092	0.043
-420.500	-147.844	-0.269	-0.022
-419.486	66.521	0.075	-0.076
-418.471	2.750	-0.158	-0.114
-417.457	800.000	0.059	0.217
-416.442	-29.970	-0.069	0.039
-415.428	-21.680	0.054	0.033
-414.413	245.453	-0.250	0.419
-413.398	-200.000	0.013	0.125
-412.384	-98.355	0.080	0.020
-411.369	736.796	0.072	0.191
-410.355	-16.333	-0.151	0.096
-409.340	10.700	0.179	-0.136
-408.325	-200.000	-0.066	-0.350
-407.311	-136.050	-0.247	0.029
-406.296	800.000	0.031	-0.111
-405.282	-200.000	-0.017	0.270
-404.267	-134.645	0.209	-0.025
-403.252	161.417	-0.110	0.154
-402.238	-105.509	-0.122	-0.028
-401.223	326.326	0.049	0.094
-400.209	197.948	-0.232	-0.353
-399.194	104.575	-0.062	-0.073
-398.179	31.901	-0.264	0.226
-397.165	119.975	0.162	-0.200
-396.150	-37.424	0.310	-0.165
-395.136	129.960	0.132	-0.168
-394.121	-200.000	0.005	-0.155
-393.106	95.492	-0.058	0.066
-392.092	-145.203	0.203	-0.018
-391.077	-200.000	-0.018	0.082
-390.063	-139.076	0.478	-0.051
-389.048	-200.000	-0.058	-0.295
-388.033	800.000	0.054	-0.168
-387.019	-24.046	-0.057	-0.034
-386.004	-148.455	-0.115	0.009
-384.990	-30.625	-0.182	-0.102
-383.975	-20.305	-0.055	0.034
-382.960	132.170	-0.072	0.092
-381.946	-200.000	-0.028	0.340
-380.931	-200.000	-0.007	-0.305
-379.917	-75.378	-0.094	0.033
-378.902	256.283	0.045	-0.077
-377.888	312.035	0.183	-0.341
-376.873	-200.000	-0.039	0.182
-375.858	255.708	0.004	0.008
-374.844	-161.723	0.082	-0.004
-373.829	-20.395	-0.234	-0.143
-372.815	171.209	0.080	0.114
-371.800	724.848	-0.015	0.040
-370.785	149.748	-0.176	-0.238
-369.771	244.197	0.032	0.054
-368.756	-200.000	-0.037	0.165
-367.742	-100.610	-0.309	-0.076
-366.727	235.647	-0.165	0.270
-365.712	138.297	-0.101	0.131
-364.698	33.865	-0.142	-0.123
-363.683	34.016	0.254	-0.220
-362.669	-97.546	0.228	0.059
-361.654	26.110	-0.225	0.186
-360.639	-200.000	-0.058	0.274
-359.625	-0.623	-0.399	0.281
-358.610	567.572	0.106	-0.255
-357.596	82.082	0.254	0.273
-356.581	12.883	-0.383	0.294
-355.566	-104.714	0.385	0.088
-354.552	-200.000	0.009	0.097
-353.537	-111.580	-0.094	-0.019
-352.523	-78.069	0.356	0.122
-351.508	-200.000	-0.007	0.090
-350.493	-45.158	0.335	-0.165
-349.479	-34.208	0.177	-0.096
-348.464	-200.000	0.013	0.059
-347.450	-72.128	0.272	0.100
-346.435	86.943	-0.093	-0.102
-345.420	-79.137	-0.081	-0.027
-344.406	-200.000	0.001	-0.312
-343.391	92.674	-0.186	0.209
-342.377	-200.000	0.015	0.071
-341.362	179.871	0.172	-0.250
-340.348	800.000	-0.098	-0.269
-339.333	-78.761	0.129	-0.044
-338.318	43.603	-0.253	0.230
-337.304	-53.145	0.425	0.194
-336.289	-86.278	0.387	0.118
-335.275	318.761	-0.247	0.464
-334.260	-96.870	-0.243	-0.063
-333.245	70.524	-0.134	-0.138
-332.231	26.310	-0.303	-0.252
-331.216	31.608	-0.100	-0.086
-330.202	91.950	0.097	0.108
-329.187	-63.657	-0.300	-0.122
-328.172	-4.190	-0.226	0.155
-327.158	508.250	0.200	-0.462
-326.143	800.000	0.063	0.188
-325.129	32.759	0.147	-0.126
-324.114	-128.761	-0.325	-0.045
-323.099	-200.000	-0.007	-0.044
-322.085	164.440	0.274	0.383
-321.070	-137.317	0.156	-0.018
-320.056	-78.159	-0.321	0.110
-319.041	-91.083	-0.040	-0.012
-318.026	423.076	-0.078	0.165
-317.012	-179.650	-0.167	0.004
-315.997	800.000	-0.029	-0.112
-314.983	192.813	0.310	-0.464
-313.968	-9.292	-0.066	-0.044
-312.953	-200.000	-0.010	0.106
-311.939	-30.815	-0.135	-0.076
-310.924	-53.677	0.360	-0.163
-309.910	-200.000	0.017	-0.425
-308.895	-82.641	0.013	0.004
-307.880	11.996	-0.253	-0.193
-306.866	-25.716	-0.253	0.148
-305.851	-144.274	-0.144	-0.013
-304.837	-200.000	0.000	-0.200
-303.822	21.905	-0.146	0.118
-302.807	-85.236	0.436	0.135
-301.793	-124.735	-0.289	0.044
-300.778	-151.494	-0.056	-0.004
-299.764	219.992	0.167	0.265
-298.749	-200.000	0.055	0.467
-297.735	164.884	0.136	0.190
-296.720	-132.589	0.289	-0.037
-295.705	-147.512	-0.403	-0.034
-294.691	499.215	0.088	-0.200
-293.676	-34.062	-0.090	0.049
-292.662	359.796	0.080	-0.158
-291.647	-200.000	0.014	-0.268
-290.632	-138.193	-0.160	0.018
-289.618	61.213	-0.162	0.160
-288.603	82.793	0.267	0.287
-287.589	-166.869	0.113	-0.005
-286.574	-200.000	-0.009	0.119
-285.559	-72.070	0.048	-0.018
-284.545	-49.445	-0.140	-0.066
-283.530	-170.511	0.241	-0.008
-282.516	199.309	0.022	0.033
-281.501	353.835	0.185	0.365
-280.486	-200.000	-0.028	0.312
-279.472	-200.000	-0.012	0.089
-278.457	-200.000	-0.001	-0.157
-277.443	-200.000	0.003	-0.132
-276.428	-141.206	0.157	-0.016
-275.413	-200.000	0.020	0.231
-274.399	-0.732	0.129	-0.091
-273.384	431.607	-0.167	-0.357
-272.370	-200.000	0.043	0.232
-271.355	-62.209	0.267	0.110
-270.340	-200.000	0.011	0.266
-269.326	-32.070	-0.412	-0.228
-268.311	339.345	-0.153	-0.296
-267.297	-200.000	-0.008	0.110
-266.282	392.132	0.110	-0.227
-265.267	115.147	-0.072	0.087
-264.253	-8.305	-0.217	0.144
-263.238	185.096	-0.028	0.041
-262.224	151.756	0.053	-0.072
-261.209	107.783	-0.157	0.185
-260.195	-200.000	0.040	-0.277
-259.180	666.433	0.080	-0.204
-258.165	-142.768	-0.174	0.017
-257.151	-62.586	0.075	0.031
-256.136	-83.036	-0.037	-0.012
-255.122	47.756	-0.063	0.058
-254.107	63.822	-0.041	0.041
-253.092	-114.922	0.206	-0.039
-252.078	-15.011	0.178	0.113
-251.063	-86.784	0.092	-0.028
-250.049	800.000	0.066	0.209
-249.034	-139.797	-0.184	-0.019
-248.019	680.268	0.151	-0.389
-247.005	-200.000	-0.045	-0.383
-245.990	-156.837	-0.184	0.011
-244.976	-200.000	-0.389	0.001
-243.961	20.069	0.262	-0.209
-242.946	-200.000	0.021	-0.129
-241.932	155.802	0.023	-0.032
-240.917	800.000	0.101	-0.286
-239.903	212.145	0.057	-0.089
-238.888	233.880	0.115	0.188
-237.873	103.309	-0.182	0.211
-236.859	122.467	0.039	-0.048
-235.844	615.519	-0.131	0.325
-234.830	25.146	0.013	-0.011
-233.815	-97.863	-0.171	-0.044
-232.800	-125.076	-0.193	0.029
-231.786	-200.000	0.014	-0.156
-230.771	284.612	-0.127	-0.226
-229.757	21.413	-0.101	-0.081
-228.742	-49.183	0.261	0.123
-227.727	800.000	0.129	0.377
-226.713	78.974	0.202	0.214
-225.698	-154.811	0.044	0.003
-224.684	13.492	-0.261	0.200
-223.669	4.247	-0.175	-0.127
-222.655	-134.707	-0.227	-0.027
-221.640	-200.000	-0.023	-0.132
-220.625	-108.653	0.161	0.034
-219.611	-200.000	0.041	-0.223
-218.596	562.290	0.192	-0.458
-217.582	-115.500	-0.060	0.011
-216.567	228.621	0.145	0.234
-215.552	-170.626	0.270	0.009
-214.538	800.000	0.011	0.041
-213.523	-200.000	-0.007	-0.238
-212.509	-46.671	0.105	-0.051
-211.494	-200.000	0.031	0.496
-210.479	-158.083	0.286	0.017
-209.465	631.296	0.047	0.116
-208.450	123.553	-0.202	-0.250
-207.436	102.891	0.180	-0.208
-206.421	-82.787	-0.183	-0.058
-205.406	-200.000	0.067	-0.479
-204.392	-146.296	-0.226	-0.020
-203.377	-100.383	0.257	-0.063
-202.363	-32.795	-0.098	0.054
-201.348	-200.000	-0.038	0.220
-200.333	272.864	0.137	0.239
-199.319	-132.424	0.366	-0.047
-198.304	333.100	-0.094	0.180
-197.290	800.000	-0.049	0.155
-196.275	518.814	0.092	0.212
-195.260	627.982	-0.011	0.028
-194.246	-108.314	0.356	0.076
-193.231	700.522	0.055	0.144
-192.217	-94.538	0.138	0.037
-191.202	-200.000	0.042	-0.352
-190.187	800.000	-0.066	-0.186
-189.173	146.482	0.084	0.111
-188.158	-37.686	-0.118	0.062
-187.144	-3.208	0.281	-0.194
-186.129	277.820	-0.039	0.069
-185.114	800.000	-0.050	-0.145
-184.100	203.760	0.165	-0.252
-183.085	-8.895	-0.184	-0.122
-182.071	159.502	-0.061	-0.084
-181.056	118.014	-0.206	0.250
-180.042	643.881	0.051	0.129
-179.027	-14.853	0.058	0.037
-178.012	-200.000	-0.025	-0.215
-176.998	-140.294	-0.289	0.030
-175.983	-52.076	-0.187	-0.086
-174.969	155.496	-0.131	-0.178
-173.954	-127.920	0.156	-0.022
-172.939	502.428	-0.123	-0.281
-171.925	800.000	0.050	0.135
-170.910	-124.089	0.315	-0.049
-169.896	-200.000	0.062	-0.387
-168.881	446.913	-0.072	0.157
-167.866	800.000	0.068	0.256
-166.852	50.319	0.140	-0.130
-165.837	-34.190	0.081	-0.044
-164.823	402.496	-0.172	0.357
-163.808	-43.058	-0.185	0.092
-162.793	62.668	0.122	0.120
-161.779	-200.000	-0.028	-0.462
-160.764	-48.469	0.109	0.052
-159.750	-81.484	0.269	0.087
-158.735	121.619	0.097	0.119
-157.720	800.000	0.009	0.029
-156.706	-200.000	0.012	0.087
-155.691	-124.845	0.311	0.047
-154.677	287.164	-0.224	-0.400
-153.662	-95.346	0.403	-0.107
-152.647	-32.753	-0.137	-0.075
-151.633	-70.299	0.419	0.157
-150.618	-20.001	0.229	0.139
-149.604	656.684	-0.030	-0.075
-148.589	258.501	-0.189	-0.321
-147.574	800.000	-0.037	-0.122
-146.560	-74.264	-0.015	0.005
-145.545	-200.000	0.017	0.083
-144.531	-27.728	0.135	0.077
-143.516	30.557	0.171	0.144
-142.502	-200.000	0.019	-0.085
-141.487	-200.000	-0.017	0.157
-140.472	-57.581	-0.142	-0.061
-139.458	-40.051	-0.119	0.061
-138.443	650.499	0.136	0.343
-137.429	33.392	-0.119	0.102
-136.414	-0.379	-0.205	0.143
-135.399	-160.856	-0.274	0.014
-134.385	-85.152	0.223	0.069
-133.370	617.346	-0.042	-0.104
-132.356	418.431	0.083	0.175
-131.341	800.000	0.041	0.114
-130.326	268.590	-0.044	-0.077
-129.312	-63.786	-0.334	0.135
-128.297	178.051	0.151	-0.217
-127.283	19.712	-0.233	0.185
-126.268	162.990	-0.007	-0.009
-125.253	759.997	-0.030	0.080
-124.239	-163.219	-0.208	0.010
-123.224	-200.000	-0.007	0.215
-122.210	-49.394	0.111	0.052
-121.195	800.000	-0.021	-0.067
-120.180	-140.962	0.272	0.027
-119.166	800.000	0.048	-0.175
-118.151	140.744	-0.077	0.100
-117.137	800.000	0.029	-0.112
-116.122	57.176	-0.212	-0.203
-115.107	49.970	-0.234	-0.217
-114.093	-110.647	-0.220	0.045
-113.078	-29.581	0.202	-0.114
-112.064	-200.000	-0.062	-0.489
-111.049	-200.000	0.004	-0.133
-110.034	-78.590	-0.211	-0.071
-109.020	-89.617	0.432	0.125
-108.005	-122.943	-0.072	0.011
-106.991	29.730	0.204	-0.171
-105.976	132.622	-0.235	-0.299
-104.962	41.507	-0.123	-0.110
-103.947	105.292	0.111	-0.129
-102.932	-146.037	-0.242	-0.021
-101.918	-15.378	-0.072	-0.045
-100.903	-200.000	-0.014	0.261
-99.889	-200.000	-0.069	0.322
-98.874	-31.353	-0.289	0.160
-97.859	-20.209	0.179	0.108
-96.845	-200.000	0.039	-0.197
-95.830	98.401	-0.130	0.147
-94.816	89.628	0.263	-0.289
-93.801	-115.452	-0.045	0.008
-92.786	11.838	0.063	-0.047
-91.772	-126.655	0.208	0.030
-90.757	-111.340	-0.136	-0.027
-89.743	-75.410	-0.260	0.091
-88.728	800.000	-0.061	0.175
-87.713	70.105	0.052	0.053
-86.699	61.704	-0.147	0.144
-85.684	404.492	-0.094	-0.195
-84.670	-15.007	-0.111	0.070
-83.655	544.622	0.121	-0.285
-82.640	96.305	-0.067	0.075
-81.626	-43.717	-0.316	-0.157
-80.611	-91.557	-0.303	-0.085
-79.597	-200.000	-0.013	-0.194
-78.582	800.000	-0.110	-0.334
-77.567	-51.204	-0.324	0.149
-76.553	-70.898	0.405	0.150
-75.538	-200.000	-0.005	0.270
-74.524	-16.894	0.240	0.149
-73.509	31.013	0.171	0.144
-72.494	239.338	0.151	0.246
-71.480	707.645	0.128	-0.333
-70.465	-78.552	0.168	-0.056
-69.451	-200.000	-0.057	-0.246
-68.436	-63.066	-0.237	0.096
-67.422	-96.697	0.390	-0.101
-66.407	11.025	0.153	-0.115
-65.392	-5.501	0.224	-0.151
-64.378	211.744	-0.086	0.134
-63.363	-131.484	0.257	-0.033
-62.349	53.730	0.108	-0.102
-61.334	4.567	-1.315	-0.947
-60.319	17.586	0.447	0.349
-59.305	-200.000	0.096	-0.981
-58.290	218.730	0.625	0.981
-57.276	294.015	0.939	1.684
-56.261	-200.000	95.917	580.079
-55.246	566.616	1372.269	3269.174
-54.232	161.225	2554.826	3506.232
-53.217	106.607	2266.190	2638.788
-52.203	42.000	1891.493	1684.841
-51.188	35.982	1681.848	1452.818
-50.173	33.236	1637.743	1394.461
-49.159	50.370	1683.658	1561.877
-48.144	52.130	1700.343	1590.440
-47.130	35.573	1660.677	1431.255
-46.115	32.714	1646.850	1398.122
-45.100	32.656	1641.803	1393.349
-44.086	32.585	1638.589	1390.047
-43.071	32.628	1636.388	1388.439
-42.057	32.537	1634.076	1385.749
-41.042	32.627	1631.658	1384.308
-40.027	32.570	1630.244	1382.634
-39.013	32.576	1628.004	1380.722
-37.998	32.546	1626.678	1379.328
-36.984	32.568	1625.502	1378.436
-35.969	32.647	1624.428	1378.048
-34.954	32.786	1622.170	1377.089
-33.940	32.727	1620.274	1374.996
-32.925	32.685	1618.677	1373.283
-31.911	32.728	1617.106	1372.206
-30.896	32.735	1614.961	1370.383
-29.881	32.720	1613.302	1368.813
-28.867	32.654	1612.311	1367.438
-27.852	32.726	1610.545	1366.405
-26.838	32.579	1609.632	1364.515
-25.823	32.682	1607.526	1363.422
-24.809	32.662	1606.517	1362.365
-23.794	32.730	1604.435	1361.037
-22.779	32.715	1603.472	1360.055
-21.765	32.640	1601.661	1357.928
-20.750	32.662	1600.193	1356.786
-19.736	32.679	1598.605	1355.506
-18.721	32.715	1597.153	1354.481
-17.706	32.762	1595.591	1353.438
-16.692	32.721	1594.235	1351.942
-15.677	32.648	1593.222	1350.510
-14.663	32.811	1591.649	1350.283
-13.648	32.746	1590.494	1348.788
-12.633	32.697	1589.099	1347.200
-11.619	32.701	1587.365	1345.705
-10.604	32.638	1585.695	1343.785
-9.590	32.706	1584.620	1343.307
-8.575	32.705	1583.583	1342.370
-7.560	32.772	1581.550	1341.072
-6.546	32.705	1580.824	1339.923
-5.531	32.838	1579.047	1339.308
-4.517	32.781	1578.007	1337.972
-3.502	32.667	1577.257	1336.475
-2.487	32.734	1575.590	1335.479
-1.473	32.461	1564.188	1323.847
-0.458	29.727	1544.745	1288.318
0.556	26.659	1545.851	1258.395
1.571	24.425	1569.587	1261.827
2.586	23.972	1582.916	1269.201
3.600	21.395	1530.324	1209.129
4.615	12.241	1420.454	1063.182
5.629	3.827	1354.321	961.448
6.644	2.196	1345.708	945.162
7.659	2.106	1344.550	943.712
8.673	2.031	1343.353	942.325
9.688	1.968	1341.785	940.750
10.702	1.691	1338.480	936.648
11.717	5.219	1345.480	963.255
12.731	15.272	1364.716	1039.566
13.746	23.975	1378.938	1104.593
14.761	26.268	1381.550	1120.829
15.775	26.567	1382.303	1123.195
16.790	26.671	1380.982	1122.665
17.804	26.640	1380.821	1122.248
18.819	27.004	1380.338	1124.010
19.834	26.962	1380.014	1123.385
20.848	27.014	1379.336	1123.054
21.863	27.021	1378.311	1122.166
22.877	27.113	1376.865	1121.456
23.892	27.023	1376.477	1120.486
24.907	27.081	1375.986	1120.345
25.921	27.103	1375.170	1119.718
26.936	27.034	1373.979	1118.220
27.950	27.030	1372.963	1117.273
28.965	27.055	1371.670	1116.276
29.980	27.023	1370.397	1114.941
30.994	27.018	1369.163	1113.809
32.009	27.157	1367.810	1113.460
33.023	27.026	1367.201	1112.066
34.038	27.021	1365.967	1110.934
35.053	26.999	1364.724	1109.688
36.067	27.074	1363.669	1109.189
37.082	27.020	1362.918	1108.155
38.096	27.048	1361.930	1107.423
39.111	27.059	1361.497	1107.039
40.126	27.023	1360.637	1106.022
41.140	26.978	1360.348	1105.414
42.155	27.035	1359.522	1104.996
43.169	27.024	1359.828	1105.078
44.184	27.015	1359.625	1104.758
45.199	27.124	1358.856	1104.702
46.213	27.172	1358.038	1104.227
47.228	27.090	1357.479	1103.182
48.242	27.178	1355.982	1102.396
49.257	27.074	1355.166	1101.008
50.271	27.114	1353.105	1099.475
51.286	26.951	1352.543	1097.938
52.301	27.020	1350.948	1096.961
53.315	26.999	1350.063	1096.018
54.330	27.029	1349.320	1095.499
55.344	27.158	1347.735	1094.892
56.359	26.987	1346.855	1093.053
57.374	27.022	1346.360	1092.767
58.388	27.157	1345.561	1092.833
59.403	27.039	1345.172	1091.711
60.417	26.958	1344.803	1090.824
61.432	27.101	1343.729	1090.716
62.447	27.130	1342.897	1090.121
63.461	27.110	1341.820	1089.028
64.476	27.089	1340.891	1088.053
65.490	27.079	1339.839	1087.041
66.505	27.004	1338.410	1085.338
67.520	27.152	1337.029	1085.006
68.534	27.159	1335.724	1083.894
69.549	27.099	1334.852	1082.736
70.563	27.129	1334.150	1082.249
71.578	27.072	1332.915	1080.809
72.593	27.104	1332.428	1080.510
73.607	27.196	1331.298	1080.045
74.622	27.109	1330.846	1079.062
75.636	27.003	1330.811	1078.312
76.651	26.894	1329.916	1076.846
77.666	27.145	1329.137	1077.607
78.680	27.027	1328.947	1076.655
79.695	26.995	1328.031	1075.630
80.709	27.052	1327.286	1075.270
81.724	26.990	1326.844	1074.452
82.739	27.023	1325.444	1073.414
83.753	27.008	1324.497	1072.468
84.768	27.051	1323.689	1071.972
85.782	27.130	1322.567	1071.430
86.797	26.979	1321.672	1069.723
87.812	27.135	1319.777	1069.011
88.826	27.094	1318.732	1067.829
89.841	27.094	1317.690	1066.891
90.855	27.166	1317.071	1066.718
91.870	27.127	1316.330	1065.794
92.884	27.113	1315.782	1065.177
93.899	27.117	1314.659	1064.198
94.914	27.113	1314.232	1063.732
95.928	27.125	1313.202	1062.875
96.943	27.117	1312.349	1062.043
97.957	27.058	1312.200	1061.484
98.972	27.063	1311.320	1060.709
99.987	27.057	1310.323	1059.775
101.001	27.014	1309.292	1058.592
102.016	27.115	1308.431	1058.391
103.030	27.288	1306.824	1058.006
104.045	27.138	1306.529	1056.798
105.060	27.143	1305.294	1055.737
106.074	27.157	1304.454	1055.043
107.089	27.186	1303.494	1054.345
108.103	27.082	1302.758	1053.050
109.118	27.194	1302.018	1053.008
110.133	27.178	1300.428	1051.536
111.147	27.197	1299.326	1050.662
112.162	27.093	1298.530	1049.325
113.176	27.195	1297.174	1048.724
114.191	27.141	1296.439	1047.726
115.206	27.232	1294.906	1046.921
116.220	27.151	1294.484	1046.022
117.235	27.128	1293.273	1044.819
118.249	27.240	1292.489	1044.737
119.264	27.166	1291.857	1043.707
120.279	27.247	1290.907	1043.313
121.293	27.232	1290.659	1042.934
122.308	27.315	1289.162	1042.104
123.322	27.254	1288.798	1041.370
124.337	27.144	1287.901	1039.924
125.352	27.205	1287.248	1039.651
126.366	27.192	1286.190	1038.636
127.381	27.285	1285.448	1038.471
128.395	27.347	1284.283	1037.792
129.410	27.292	1283.514	1036.765
130.424	27.313	1282.899	1036.299
131.439	27.350	1282.062	1035.742
132.454	27.323	1281.035	1034.666
133.468	27.211	1280.779	1033.731
134.483	27.224	1280.337	1033.358
135.497	27.270	1279.202	1032.611
136.512	27.091	1278.798	1031.175
137.527	27.277	1276.919	1030.622
138.541	27.191	1275.943	1029.261
139.556	27.212	1274.902	1028.445
140.570	27.247	1273.904	1027.747
141.585	27.258	1272.655	1026.713
142.600	27.211	1272.189	1025.982
143.614	27.259	1270.829	1025.063
144.629	27.228	1269.709	1023.894
145.643	27.068	1269.265	1022.543
146.658	27.059	1268.131	1021.491
147.673	27.226	1267.041	1021.460
148.687	27.140	1266.267	1020.262
149.702	27.150	1264.709	1018.977
150.716	27.168	1264.066	1018.464
151.731	27.232	1262.642	1017.587
152.746	27.109	1262.004	1016.297
153.760	27.210	1261.127	1016.065
154.775	27.285	1260.199	1015.643
155.789	27.183	1259.293	1014.258
156.804	27.289	1258.077	1013.780
157.819	27.213	1257.415	1012.732
158.833	27.296	1256.444	1012.321
159.848	27.242	1256.225	1011.753
160.862	27.247	1255.334	1010.973
161.877	27.376	1254.257	1010.732
162.892	27.303	1253.689	1009.784
163.906	27.292	1253.114	1009.167
164.921	27.247	1252.487	1008.325
165.935	27.399	1251.190	1008.035
166.950	27.350	1250.538	1007.147
167.964	27.348	1249.941	1006.566
168.979	27.378	1249.311	1006.135
169.994	27.406	1248.766	1005.762
171.008	27.361	1248.276	1005.030
172.023	27.396	1247.071	1004.165
173.037	27.449	1246.420	1003.846
174.052	27.398	1245.853	1003.018
175.067	27.383	1245.143	1002.275
176.081	27.394	1244.422	1001.665
177.096	27.426	1243.661	1001.141
178.110	27.405	1242.902	1000.323
179.125	27.437	1241.435	999.233
180.140	27.408	1241.055	998.676
181.154	27.383	1240.236	997.792
182.169	27.406	1238.942	996.790
183.183	27.386	1237.659	995.559
184.198	27.381	1236.994	994.908
185.213	27.592	1235.507	994.780
186.227	27.570	1234.769	993.976
187.242	27.453	1234.212	992.800
188.256	27.501	1233.582	992.469
189.271	27.482	1232.613	991.500
190.286	27.557	1231.859	991.214
191.300	27.429	1231.364	990.031
192.315	27.440	1231.036	989.737
193.329	27.372	1230.587	988.922
194.344	27.592	1229.878	989.458
195.359	27.557	1229.277	988.699
196.373	27.521	1228.633	987.894
197.388	27.436	1228.326	987.103
198.402	27.529	1227.881	987.157
199.417	27.537	1227.362	986.699
200.432	27.443	1227.403	986.136
201.446	27.431	1226.849	985.538
202.461	27.424	1225.877	984.634
203.475	27.383	1225.237	983.810
204.490	27.289	1224.407	982.546
205.504	27.499	1223.268	982.679
206.519	27.467	1222.260	981.611
207.534	27.611	1221.118	981.381
208.548	27.513	1220.725	980.451
209.563	27.563	1219.314	979.499
210.577	27.449	1219.109	978.638
211.592	27.600	1218.092	978.546
212.607	27.652	1217.316	978.114
213.621	27.609	1216.574	977.198
214.636	27.612	1215.972	976.646
215.650	27.526	1215.168	975.452
216.665	27.577	1213.890	974.612
217.680	27.615	1212.939	973.968
218.694	27.582	1212.000	972.953
219.709	27.425	1211.944	971.982
220.723	27.629	1211.200	972.388
221.738	27.568	1210.368	971.308
222.753	27.490	1209.832	970.374
223.767	27.587	1209.166	970.273
224.782	27.712	1208.547	970.357
225.796	27.822	1208.008	970.423
226.811	27.686	1207.705	969.370
227.826	27.701	1206.850	968.678
228.840	27.765	1206.377	968.553
229.855	27.665	1205.522	967.249
230.869	27.633	1204.895	966.490
231.884	27.635	1204.265	965.910
232.899	27.618	1203.423	965.061
233.913	27.683	1202.968	964.951
234.928	27.813	1202.443	965.133
235.942	27.725	1202.082	964.291
236.957	27.786	1200.872	963.561
237.972	27.647	1200.346	962.318
238.986	27.620	1200.063	961.863
240.001	27.882	1199.148	962.425
241.015	27.829	1198.300	961.382
242.030	27.866	1197.369	960.743
243.045	27.878	1196.609	960.111
244.059	27.866	1196.091	959.550
245.074	27.839	1195.321	958.703
246.088	27.918	1194.308	958.222
247.103	27.907	1193.937	957.782
248.117	27.879	1193.078	956.860
249.132	27.895	1192.403	956.317
250.147	27.896	1191.657	955.641
251.161	27.852	1190.859	954.684
252.176	27.966	1190.292	954.744
253.190	27.995	1189.755	954.382
254.205	27.851	1188.854	952.822
255.220	27.879	1188.632	952.706
256.234	28.041	1188.282	953.186
257.249	27.906	1187.328	951.632
258.263	27.952	1186.627	951.227
259.278	27.976	1186.275	950.984
260.293	28.000	1185.433	950.350
261.307	27.972	1185.194	949.927
262.322	27.999	1184.862	949.717
263.336	27.983	1183.938	948.812
264.351	27.985	1183.688	948.536
265.366	28.037	1182.917	948.107
266.380	27.935	1182.686	947.307
267.395	27.991	1181.724	946.745
268.409	27.988	1180.625	945.763
269.424	27.869	1180.389	944.876
270.439	27.990	1179.770	944.921
271.453	28.015	1179.150	944.469
272.468	27.931	1178.229	943.217
273.482	27.987	1177.728	943.019
274.497	28.086	1177.392	943.178
275.512	28.145	1176.664	942.814
276.526	28.085	1175.836	941.760
277.541	28.148	1175.182	941.478
278.555	28.156	1174.398	940.808
279.570	28.192	1173.609	940.277
280.585	28.095	1173.108	939.294
281.599	28.111	1172.487	938.794
282.614	28.096	1171.399	937.766
283.628	28.105	1170.586	937.076
284.643	28.179	1170.238	937.092
285.657	28.120	1169.104	935.803
286.672	28.141	1168.156	935.065
287.687	28.106	1167.284	934.108
288.701	28.324	1166.458	934.474
289.716	28.246	1165.997	933.626
290.730	28.199	1165.413	932.836
291.745	28.250	1164.802	932.524
292.760	28.309	1164.201	932.260
293.774	28.247	1164.063	931.753
294.789	28.410	1163.148	931.764
295.803	28.315	1162.557	930.727
296.818	28.302	1161.749	929.930
297.833	28.257	1161.397	929.340
298.847	28.228	1160.979	928.777
299.862	28.283	1160.311	928.437
300.876	28.215	1159.094	927.038
301.891	28.279	1158.693	926.958
302.906	28.387	1157.914	926.801
303.920	28.481	1157.115	926.556
304.935	28.341	1156.951	925.631
305.949	28.323	1155.821	924.555
306.964	28.375	1155.832	924.745
307.979	28.365	1155.090	924.019
308.993	28.451	1154.528	923.919
310.008	28.421	1153.618	922.962
311.022	28.438	1152.563	922.121
312.037	28.430	1152.039	921.580
313.052	28.444	1151.093	920.810
314.066	28.479	1150.308	920.279
315.081	28.405	1149.765	919.390
316.095	28.528	1149.124	919.416
317.110	28.448	1148.589	918.504
318.125	28.366	1148.096	917.618
319.139	28.541	1147.075	917.598
320.154	28.595	1146.647	917.441
321.168	28.642	1146.087	917.146
322.183	28.573	1145.302	916.093
323.197	28.529	1144.977	915.531
324.212	28.531	1144.571	915.137
325.227	28.506	1144.329	914.737
326.241	28.593	1143.211	914.199
327.256	28.533	1142.896	913.567
328.270	28.539	1141.756	912.605
329.285	28.660	1140.985	912.507
330.300	28.683	1139.739	911.545
331.314	28.615	1139.621	911.032
332.329	28.709	1138.751	910.720
333.343	28.679	1137.971	909.870
334.358	28.798	1137.029	909.623
335.373	28.727	1136.316	908.625
336.387	28.758	1135.855	908.328
337.402	28.682	1135.613	907.679
338.416	28.756	1134.711	907.241
339.431	28.702	1134.207	906.491
340.446	28.814	1133.292	906.231
341.460	28.825	1132.788	905.802
342.475	28.711	1132.367	904.825
343.489	28.772	1131.222	904.128
344.504	28.925	1130.076	903.887
345.519	28.776	1129.528	902.636
346.533	28.974	1128.383	902.611
347.548	28.915	1127.981	901.920
348.562	28.859	1127.345	901.057
349.577	28.903	1126.670	900.656
350.592	28.811	1125.960	899.560
351.606	28.718	1125.408	898.580
352.621	28.832	1124.650	898.454
353.635	28.938	1124.149	898.495
354.650	29.010	1123.574	898.308
355.665	28.944	1122.769	897.262
356.679	29.041	1122.311	897.289
357.694	28.948	1121.917	896.441
358.708	29.031	1121.256	896.237
359.723	28.911	1120.685	895.118
360.738	28.935	1120.003	894.610
361.752	28.850	1119.275	893.536
362.767	28.975	1118.926	893.788
363.781	29.006	1118.176	893.260
364.796	29.027	1117.715	892.913
365.810	29.082	1117.010	892.536
366.825	29.037	1116.546	891.869
367.840	29.104	1115.808	891.526
368.854	29.205	1115.376	891.590
369.869	29.209	1114.513	890.839
370.883	29.158	1113.606	889.791
371.898	29.098	1112.690	888.691
372.913	29.123	1112.495	888.574
373.927	29.166	1111.970	888.286
374.942	29.221	1111.491	888.091
375.956	29.193	1111.257	887.689
376.971	29.221	1110.489	887.131
377.986	29.215	1109.914	886.566
379.000	29.236	1109.332	886.122
380.015	29.164	1108.755	885.236
381.029	29.139	1108.585	884.905
382.044	29.204	1107.578	884.334
383.059	29.301	1106.826	884.119
384.073	29.274	1106.758	883.860
385.088	29.253	1105.639	882.783
386.102	29.337	1104.908	882.527
387.117	29.308	1103.748	881.381
388.132	29.258	1103.140	880.580
389.146	29.245	1102.641	880.043
390.161	29.338	1101.916	879.829
391.175	29.363	1101.080	879.204
392.190	29.293	1100.421	878.267
393.205	29.472	1099.517	878.319
394.219	29.469	1098.656	877.537
395.234	29.448	1098.347	877.114
396.248	29.492	1097.259	876.375
397.263	29.478	1096.766	875.840
398.278	29.579	1096.020	875.645
399.292	29.585	1095.599	875.257
400.307	29.565	1095.279	874.830
401.321	29.562	1094.783	874.341
402.336	29.504	1093.444	872.921
403.350	29.501	1093.003	872.478
404.365	29.651	1092.497	872.709
405.380	29.638	1092.091	872.243
406.394	29.588	1091.190	871.209
407.409	29.565	1090.496	870.472
408.423	29.617	1089.469	869.818
409.438	29.593	1088.707	869.021
410.453	29.678	1087.781	868.604
411.467	29.663	1087.188	867.986
412.482	29.607	1086.789	867.326
413.496	29.646	1086.361	867.088
414.511	29.574	1085.669	866.124
415.526	29.688	1085.416	866.377
416.540	29.601	1084.743	865.357
417.555	29.661	1084.537	865.400
418.569	29.708	1083.568	864.766
419.584	29.727	1083.586	864.793
420.599	29.833	1082.948	864.705
421.613	104.534	1321.087	1458.258
422.628	97.275	1355.746	1458.352
