DTS Sentinel unit serial number:	SN413079Multiplexer serial number:	ORYXHardware model number:	OX4-SRSoftware version number:	ORYX F/W v4.00 Oryx Data Collector v3.7.2.0data status	okinstallation	princeton_trtdifferential loss correction	single-endedforward channel	channel 2reverse channel	N/Adate	2019/09/12time	02:29:10forward acquisition time	60.00reverse acquisition time	0.00gamma	496.2192k internal	0.2327k external	0.2327temperature offset calibration	1.0090default loss term (dB/km)	0.3790temperature slope calibration	1.0000multiplexer offset coefficient	1.0000multiplexer slope coefficient	1.0000fibre end	0.00T internal ref (°C)	32.50T ext. ref 1 (°C)	2.09T ext. ref 2 (°C)	27.09length (m)	temperature (°C)	Stokes	anti-Stokes-747.200	-78.425	0.249	0.086
-746.185	338.689	-0.066	0.129
-745.171	-46.732	0.303	0.150
-744.156	-93.734	-0.243	0.067
-743.142	800.000	0.047	-0.199
-742.127	-200.000	-0.010	-0.108
-741.112	800.000	-0.101	0.312
-740.098	-200.000	-0.039	0.239
-739.083	800.000	0.096	0.335
-738.069	341.695	-0.229	0.451
-737.054	-15.719	0.109	-0.070
-736.039	-146.674	-0.346	0.030
-735.025	-8.373	0.223	0.151
-734.010	111.180	-0.151	0.183
-732.996	215.429	0.161	-0.257
-731.981	270.494	0.053	0.094
-730.966	-134.479	-0.241	-0.030
-729.952	4.365	-0.111	-0.082
-728.937	491.474	-0.081	0.188
-727.923	-152.736	0.166	-0.012
-726.908	-200.000	-0.027	-0.282
-725.894	39.510	0.063	0.056
-724.879	-200.000	0.000	0.006
-723.864	-141.579	-0.281	-0.029
-722.850	-124.678	0.260	0.041
-721.835	-200.000	0.010	0.108
-720.821	-56.064	0.318	-0.143
-719.806	255.759	-0.270	-0.466
-718.791	95.202	0.144	-0.165
-717.777	-190.360	0.400	0.004
-716.762	650.676	-0.104	-0.268
-715.748	-200.000	-0.008	-0.191
-714.733	-104.508	-0.109	-0.025
-713.718	-24.097	0.229	0.138
-712.704	-140.988	-0.303	-0.031
-711.689	-180.055	-0.127	-0.003
-710.675	-200.000	0.027	-0.176
-709.660	-66.328	0.223	-0.089
-708.645	800.000	0.129	0.375
-707.631	152.332	-0.170	-0.233
-706.616	-55.622	-0.282	-0.127
-705.602	-82.819	0.189	0.061
-704.587	466.989	0.023	0.052
-703.572	-62.930	-0.230	0.096
-702.558	-200.000	-0.021	-0.419
-701.543	-181.985	0.254	0.005
-700.529	223.251	0.060	0.097
-699.514	800.000	-0.036	0.111
-698.499	180.539	-0.122	0.181
-697.485	202.878	0.121	-0.188
-696.470	-2.601	-0.046	-0.032
-695.456	66.867	0.184	-0.189
-694.441	-200.000	-0.017	0.136
-693.426	21.806	0.327	0.268
-692.412	-200.000	0.023	-0.155
-691.397	796.749	-0.131	-0.364
-690.383	173.505	0.165	0.240
-689.368	30.522	0.162	0.140
-688.354	-200.000	-0.012	-0.212
-687.339	-200.000	-0.024	-0.200
-686.324	-200.000	0.001	-0.029
-685.310	51.208	-0.147	-0.141
-684.295	497.872	-0.044	0.102
-683.281	-146.523	-0.438	0.038
-682.266	-95.471	-0.339	0.092
-681.251	177.079	-0.011	-0.017
-680.237	800.000	0.102	0.297
-679.222	231.164	-0.062	-0.102
-678.208	800.000	-0.076	-0.289
-677.193	-123.959	0.180	0.028
-676.178	102.686	-0.099	-0.117
-675.164	800.000	0.080	-0.243
-674.149	58.439	0.115	0.114
-673.135	64.428	0.155	-0.157
-672.120	163.920	0.088	-0.124
-671.105	107.214	0.111	-0.133
-670.091	-50.182	0.223	0.106
-669.076	-200.000	0.069	-0.348
-668.062	-8.102	-0.230	-0.156
-667.047	-60.628	0.141	0.060
-666.032	89.699	-0.103	-0.115
-665.018	155.490	-0.041	-0.057
-664.003	30.569	0.100	-0.086
-662.989	674.878	-0.011	-0.028
-661.974	19.559	0.257	-0.208
-660.959	13.052	-0.227	-0.177
-659.945	-127.517	-0.317	-0.046
-658.930	-104.120	-0.225	-0.053
-657.916	800.000	0.066	-0.271
-656.901	-200.000	-0.000	0.053
-655.886	-200.000	0.028	0.191
-654.872	-200.000	-0.037	0.166
-653.857	-200.000	0.002	0.020
-652.843	145.322	0.151	0.204
-651.828	62.773	-0.201	0.202
-650.814	19.249	0.023	0.018
-649.799	-90.764	-0.061	0.018
-648.784	-200.000	0.063	0.291
-647.770	299.120	0.097	0.179
-646.755	-19.226	-0.086	-0.054
-645.741	726.670	0.102	0.275
-644.726	-20.719	0.210	-0.129
-643.711	-108.794	-0.070	0.015
-642.697	800.000	-0.025	0.099
-641.682	-71.046	0.085	-0.032
-640.668	-139.122	-0.180	0.020
-639.653	-200.000	0.041	0.278
-638.638	-200.000	0.038	-0.400
-637.624	87.027	0.138	0.153
-636.609	-161.885	0.416	0.021
-635.595	32.789	0.111	0.097
-634.580	-200.000	0.022	0.148
-633.565	-104.143	0.140	0.033
-632.551	-200.000	-0.003	0.144
-631.536	-21.455	0.263	0.161
-630.522	185.879	-0.027	0.040
-629.507	26.977	0.167	-0.140
-628.492	-200.000	0.033	0.388
-627.478	68.237	0.060	-0.061
-626.463	800.000	0.087	0.271
-625.449	-59.056	0.422	0.183
-624.434	800.000	-0.122	0.405
-623.419	187.915	0.209	0.313
-622.405	-61.573	-0.307	-0.129
-621.390	222.899	-0.132	0.214
-620.376	800.000	-0.133	-0.378
-619.361	28.938	0.091	0.077
-618.346	35.774	0.032	-0.028
-617.332	-98.976	0.151	0.038
-616.317	12.341	-0.354	-0.273
-615.303	800.000	-0.025	-0.106
-614.288	-200.000	0.009	-0.225
-613.273	-41.493	-0.172	0.089
-612.259	-64.695	0.145	0.059
-611.244	800.000	0.041	-0.149
-610.230	-200.000	-0.011	-0.098
-609.215	-99.843	-0.155	0.039
-608.201	-200.000	0.040	0.309
-607.186	-176.872	0.127	0.003
-606.171	800.000	-0.027	-0.113
-605.157	800.000	-0.046	-0.181
-604.142	15.461	-0.089	-0.070
-603.128	442.018	-0.155	0.340
-602.113	-81.339	0.208	0.069
-601.098	194.664	0.253	0.386
-600.084	-180.365	0.225	0.005
-599.069	300.263	-0.114	-0.212
-598.055	75.023	0.053	0.056
-597.040	-38.268	0.234	0.124
-596.025	-81.626	-0.236	-0.078
-595.011	310.371	0.126	-0.237
-593.996	-108.172	-0.238	0.052
-592.982	800.000	0.118	-0.379
-591.967	-21.008	-0.096	0.059
-590.952	-68.550	-0.032	0.013
-589.938	377.232	-0.093	0.190
-588.923	28.568	-0.301	-0.255
-587.909	259.176	-0.070	0.121
-586.894	31.355	0.191	0.164
-585.879	-133.310	0.124	-0.016
-584.865	621.601	0.037	0.094
-583.850	412.144	0.066	-0.140
-582.836	427.184	-0.123	-0.267
-581.821	-45.677	-0.184	0.091
-580.806	426.430	0.061	-0.133
-579.792	24.041	-0.204	-0.168
-578.777	-141.882	-0.227	-0.023
-577.763	37.782	-0.187	0.166
-576.748	-200.000	0.017	-0.115
-575.733	-62.236	0.130	0.054
-574.719	800.000	-0.100	0.285
-573.704	158.138	-0.196	-0.272
-572.690	-74.127	0.035	-0.013
-571.675	92.674	-0.124	0.141
-570.661	-56.997	0.163	0.072
-569.646	-29.916	-0.040	0.023
-568.631	-69.549	0.062	-0.024
-567.617	-200.000	0.046	0.000
-566.602	87.787	0.018	-0.020
-565.588	-200.000	-0.029	-0.152
-564.573	-117.483	0.105	0.019
-563.558	-65.083	0.230	-0.093
-562.544	265.989	-0.121	0.212
-561.529	-119.362	-0.242	0.042
-560.515	522.910	0.073	0.172
-559.500	-200.000	-0.034	0.328
-558.485	-26.380	0.183	0.107
-557.471	605.069	0.025	-0.062
-556.456	-120.828	0.213	-0.036
-555.442	-85.490	0.154	-0.048
-554.427	-96.402	-0.218	-0.058
-553.412	-88.493	0.127	0.038
-552.398	-106.908	0.150	0.033
-551.383	800.000	-0.089	-0.389
-550.369	-56.160	-0.040	-0.018
-549.354	-200.000	-0.002	-0.067
-548.339	-68.021	0.339	-0.132
-547.325	78.037	0.085	-0.091
-546.310	94.222	-0.047	-0.054
-545.296	734.830	0.032	0.084
-544.281	800.000	0.059	0.167
-543.266	7.509	-0.019	-0.015
-542.252	-28.604	-0.195	0.112
-541.237	68.610	-0.181	-0.185
-540.223	312.784	0.064	-0.120
-539.208	335.966	0.081	0.158
-538.193	-7.808	-0.204	-0.138
-537.179	169.722	0.112	0.160
-536.164	-200.000	-0.011	-0.081
-535.150	-111.017	0.337	0.069
-534.135	-41.759	-0.299	0.153
-533.121	-6.140	-0.210	0.144
-532.106	-90.317	-0.222	0.064
-531.091	800.000	0.035	-0.106
-530.077	-96.794	0.216	0.057
-529.062	100.842	-0.213	0.248
-528.048	-0.213	-0.167	-0.119
-527.033	-200.000	-0.075	0.352
-526.018	387.053	0.099	-0.205
-525.004	-153.697	0.239	0.016
-523.989	-175.332	0.532	-0.015
-522.975	800.000	0.079	-0.335
-521.960	-200.000	0.042	-0.381
-520.945	-200.000	0.004	-0.320
-519.931	152.472	-0.108	0.148
-518.916	690.492	0.110	0.288
-517.902	259.828	-0.133	-0.230
-516.887	-112.391	-0.297	0.059
-515.872	-174.285	0.227	-0.007
-514.858	800.000	0.042	-0.174
-513.843	-200.000	-0.060	-0.298
-512.829	-74.104	0.175	-0.063
-511.814	-77.385	0.355	-0.123
-510.799	158.176	-0.145	0.201
-509.785	279.028	-0.041	-0.073
-508.770	101.719	-0.222	-0.258
-507.756	-20.254	0.139	-0.085
-506.741	-81.945	-0.293	-0.096
-505.726	-15.537	0.110	-0.070
-504.712	451.952	0.105	-0.232
-503.697	-103.480	0.229	-0.054
-502.683	-119.445	-0.289	0.050
-501.668	-110.958	-0.367	-0.075
-500.653	-129.831	-0.042	-0.006
-499.639	-55.598	-0.019	0.009
-498.624	13.402	-0.118	0.091
-497.610	1.923	-0.154	-0.111
-496.595	384.811	-0.159	-0.327
-495.581	-200.000	0.005	0.208
-494.566	228.673	-0.023	-0.037
-493.551	530.609	0.055	0.130
-492.537	4.331	0.331	-0.242
-491.522	717.554	-0.093	-0.247
-490.508	193.428	-0.126	-0.190
-489.493	95.144	-0.135	-0.153
-488.478	-143.350	-0.141	0.013
-487.464	-22.735	-0.129	-0.078
-486.449	800.000	-0.107	-0.331
-485.435	-83.913	-0.158	-0.050
-484.420	556.833	0.161	-0.387
-483.405	800.000	0.060	-0.216
-482.391	-98.851	-0.361	0.092
-481.376	-59.350	-0.127	-0.055
-480.362	-200.000	-0.048	-0.212
-479.347	-47.168	0.175	0.085
-478.332	-84.217	-0.076	0.024
-477.318	557.344	0.100	-0.239
-476.303	-35.671	-0.121	0.066
-475.289	-126.007	0.263	0.039
-474.274	-12.844	-0.210	-0.137
-473.259	-23.849	-0.067	-0.040
-472.245	41.441	0.072	0.065
-471.230	-200.000	0.074	0.364
-470.216	-65.045	-0.267	-0.107
-469.201	-200.000	0.061	0.342
-468.186	13.519	0.108	0.083
-467.172	188.134	-0.122	0.181
-466.157	-200.000	-0.026	0.127
-465.143	-124.909	-0.227	0.035
-464.128	-37.572	-0.035	0.019
-463.113	-183.802	-0.128	0.002
-462.099	-200.000	0.015	-0.195
-461.084	25.099	-0.227	0.188
-460.070	-31.783	0.193	-0.108
-459.055	-130.321	0.109	0.015
-458.040	-2.212	-0.140	-0.098
-457.026	-200.000	0.004	-0.249
-456.011	-131.498	-0.034	-0.004
-454.997	-200.000	-0.021	0.282
-453.982	-57.100	-0.208	-0.091
-452.968	800.000	-0.114	-0.374
-451.953	305.668	-0.034	-0.063
-450.938	292.893	-0.022	-0.041
-449.924	-50.042	0.097	-0.046
-448.909	-103.947	0.133	-0.031
-447.895	-32.715	-0.082	-0.045
-446.880	-165.066	-0.247	0.011
-445.865	84.524	0.360	0.393
-444.851	300.916	0.120	-0.221
-443.836	-200.000	-0.026	-0.168
-442.822	32.258	0.148	-0.127
-441.807	83.896	-0.049	-0.053
-440.792	-129.180	0.210	-0.029
-439.778	38.353	-0.310	0.275
-438.763	-200.000	0.015	0.337
-437.749	-200.000	-0.022	0.114
-436.734	-96.211	-0.082	0.022
-435.719	176.912	-0.220	-0.319
-434.705	119.964	-0.119	0.147
-433.690	29.477	0.164	0.139
-432.676	-13.224	-0.192	0.125
-431.661	-81.929	-0.023	-0.007
-430.646	-33.642	0.128	-0.070
-429.632	63.953	-0.032	0.032
-428.617	-11.624	0.126	-0.082
-427.603	-200.000	0.064	0.292
-426.588	800.000	-0.033	0.094
-425.573	168.803	-0.295	-0.419
-424.559	-45.173	0.501	-0.248
-423.544	9.143	-0.236	0.177
-422.530	-135.253	0.234	0.028
-421.515	-200.000	0.046	-0.238
-420.500	439.920	0.137	0.297
-419.486	-200.000	0.036	0.315
-418.471	418.669	0.060	-0.128
-417.457	102.019	0.149	0.173
-416.442	-52.595	-0.395	-0.182
-415.428	69.474	-0.142	-0.146
-414.413	54.228	-0.055	-0.053
-413.398	363.773	0.012	-0.024
-412.384	-200.000	0.016	-0.244
-411.369	-1.599	-0.096	0.067
-410.355	-200.000	0.033	0.156
-409.340	-1.139	-0.193	0.136
-408.325	55.753	0.250	-0.241
-407.311	-35.577	0.239	-0.129
-406.296	-43.502	-0.235	-0.118
-405.282	152.129	0.207	-0.281
-404.267	115.163	0.143	-0.174
-403.252	307.613	-0.110	0.203
-402.238	652.280	0.045	-0.114
-401.223	88.312	-0.130	-0.144
-400.209	65.875	-0.270	0.272
-399.194	-155.292	-0.185	0.012
-398.179	35.948	-0.139	-0.121
-397.165	-121.546	0.169	0.028
-396.150	-31.160	0.284	-0.159
-395.136	800.000	0.073	0.296
-394.121	800.000	0.014	-0.056
-393.106	-200.000	0.038	0.394
-392.092	688.299	0.077	0.201
-391.077	-97.982	0.136	-0.035
-390.063	252.819	0.019	-0.033
-389.048	-165.737	0.381	-0.016
-388.033	272.922	0.146	0.257
-387.019	-13.951	-0.361	-0.232
-386.004	-200.000	0.003	-0.025
-384.990	-144.393	0.363	-0.034
-383.975	-200.000	0.043	-0.190
-382.960	-200.000	-0.001	0.039
-381.946	745.223	-0.083	-0.223
-380.931	106.190	0.033	-0.039
-379.917	24.529	0.114	-0.094
-378.902	1.363	0.430	-0.307
-377.888	-200.000	-0.023	0.101
-376.873	-161.250	0.163	0.008
-375.858	-127.347	-0.240	0.035
-374.844	294.439	0.096	0.174
-373.829	-200.000	0.001	-0.115
-372.815	-66.890	0.302	0.118
-371.800	800.000	-0.093	-0.299
-370.785	-63.920	0.062	0.025
-369.771	92.327	0.082	-0.092
-368.756	-200.000	0.006	0.283
-367.742	63.815	0.068	-0.068
-366.727	-60.270	-0.325	-0.138
-365.712	800.000	0.028	-0.120
-364.698	101.304	0.068	0.079
-363.683	171.631	-0.067	0.096
-362.669	-200.000	-0.012	-0.266
-361.654	800.000	-0.063	0.221
-360.639	250.912	-0.256	0.432
-359.625	385.838	0.030	-0.062
-358.610	-44.882	-0.427	-0.212
-357.596	124.366	0.036	-0.045
-356.581	-200.000	0.031	-0.184
-355.566	-51.242	-0.218	0.101
-354.552	-131.567	0.234	0.031
-353.537	-63.557	-0.242	0.099
-352.523	-80.212	-0.179	-0.060
-351.508	5.931	-0.058	0.043
-350.493	6.208	0.163	-0.120
-349.479	-140.770	-0.261	-0.027
-348.464	61.479	0.093	0.092
-347.450	2.792	0.092	0.066
-346.435	-71.415	0.177	0.066
-345.420	130.870	-0.169	0.215
-344.406	9.923	-0.134	-0.101
-343.391	800.000	-0.011	0.034
-342.377	800.000	-0.125	0.372
-341.362	-200.000	0.016	0.271
-340.348	4.604	-0.086	0.062
-339.333	-6.014	-0.128	0.087
-338.318	-200.000	-0.049	0.309
-337.304	25.604	0.045	-0.037
-336.289	215.849	0.118	-0.185
-335.275	800.000	-0.021	-0.083
-334.260	800.000	-0.035	0.138
-333.245	53.557	0.191	-0.182
-332.231	210.224	0.077	0.120
-331.216	-2.582	-0.085	-0.059
-330.202	436.996	0.133	-0.288
-329.187	-95.464	0.170	0.045
-328.172	-147.223	0.178	0.015
-327.158	-104.975	-0.145	-0.033
-326.143	69.076	0.285	-0.291
-325.129	-1.179	0.227	-0.159
-324.114	-200.000	-0.013	0.155
-323.099	181.155	0.195	-0.284
-322.085	7.607	-0.129	0.096
-321.070	94.198	0.071	0.080
-320.056	800.000	0.111	-0.438
-319.041	800.000	-0.013	0.051
-318.026	145.943	-0.133	0.177
-317.012	800.000	-0.050	-0.200
-315.997	800.000	0.056	0.166
-314.983	-95.622	0.068	-0.018
-313.968	-18.061	0.176	-0.109
-312.953	150.654	0.178	-0.240
-311.939	144.763	0.206	-0.273
-310.924	296.915	0.034	-0.062
-309.910	-182.236	0.334	0.006
-308.895	147.659	-0.087	0.116
-307.880	-51.517	-0.315	-0.146
-306.866	-200.000	-0.023	0.216
-305.851	-200.000	-0.018	-0.194
-304.837	50.547	0.027	0.025
-303.822	-62.952	0.403	-0.165
-302.807	800.000	-0.067	-0.257
-301.793	-148.370	-0.383	-0.031
-300.778	-200.000	-0.020	0.131
-299.764	3.269	-0.266	0.192
-298.749	200.755	0.125	0.190
-297.735	-104.007	0.467	0.108
-296.720	-28.843	-0.498	0.284
-295.705	324.957	-0.152	0.288
-294.691	623.887	0.114	0.286
-293.676	198.171	-0.177	-0.269
-292.662	324.689	-0.043	0.082
-291.647	230.424	0.113	-0.183
-290.632	-26.008	-0.183	-0.107
-289.618	75.222	0.134	0.140
-288.603	-106.059	-0.134	0.030
-287.589	22.110	0.061	-0.049
-286.574	1.579	0.044	0.031
-285.559	-62.388	-0.127	0.052
-284.545	51.587	0.225	-0.212
-283.530	8.011	-0.180	0.134
-282.516	156.277	0.133	-0.182
-281.501	-35.972	0.267	-0.143
-280.486	-121.830	-0.593	-0.097
-279.472	-104.600	-0.212	-0.048
-278.457	-200.000	0.007	0.138
-277.443	-52.526	0.119	-0.054
-276.428	-200.000	0.017	-0.081
-275.413	800.000	-0.090	0.368
-274.399	-158.235	0.102	0.006
-273.384	-200.000	0.044	0.219
-272.370	-123.772	0.083	-0.013
-271.355	31.455	-0.141	0.120
-270.340	-113.120	-0.253	0.049
-269.326	-76.687	-0.176	-0.061
-268.311	182.067	0.342	0.499
-267.297	415.467	0.066	0.138
-266.282	-16.018	-0.056	0.035
-265.267	284.133	-0.046	0.082
-264.253	-85.986	-0.278	0.085
-263.238	-65.390	-0.033	-0.013
-262.224	-65.764	-0.153	0.060
-261.209	352.137	-0.100	-0.195
-260.195	-200.000	-0.103	0.455
-259.180	-128.809	0.254	-0.035
-258.165	80.412	-0.206	0.220
-257.151	54.002	-0.193	0.184
-256.136	-111.928	-0.221	0.044
-255.122	-10.187	0.140	0.092
-254.107	-5.266	-0.187	-0.127
-253.092	-129.380	-0.214	-0.029
-252.078	256.187	0.186	0.316
-251.063	-88.332	-0.038	0.011
-250.049	149.530	-0.120	-0.161
-249.034	-200.000	0.017	-0.163
-248.019	-140.518	-0.045	-0.005
-247.005	20.886	-0.182	-0.146
-245.990	92.971	-0.112	-0.125
-244.976	-91.877	-0.418	0.117
-243.961	-64.315	0.200	0.080
-242.946	800.000	0.047	0.155
-241.932	-200.000	-0.092	-0.450
-240.917	-200.000	-0.006	-0.269
-239.903	23.052	-0.143	-0.116
-238.888	-179.383	0.148	0.003
-237.873	800.000	-0.081	0.291
-236.859	-91.678	0.063	0.018
-235.844	303.398	0.109	-0.200
-234.830	-200.000	-0.204	0.000
-233.815	1.788	-0.025	-0.018
-232.800	800.000	0.129	0.363
-231.786	-105.060	-0.125	0.028
-230.771	-200.000	-0.031	-0.313
-229.757	-90.724	0.367	0.105
-228.742	-72.704	0.137	-0.050
-227.727	-69.097	-0.164	0.062
-226.713	-200.000	0.023	0.219
-225.698	-200.000	-0.002	-0.299
-224.684	-33.881	0.241	0.131
-223.669	285.849	-0.125	0.222
-222.655	-163.476	-0.069	0.003
-221.640	290.674	-0.080	-0.144
-220.625	212.995	0.075	-0.118
-219.611	-173.396	-0.264	-0.008
-218.596	-70.430	-0.049	-0.018
-217.582	-12.319	0.261	0.168
-216.567	800.000	0.124	0.341
-215.552	800.000	-0.013	0.037
-214.538	18.273	-0.108	0.085
-213.523	-15.702	-0.061	0.039
-212.509	-38.775	0.238	-0.124
-211.494	-105.186	-0.161	0.036
-210.479	-109.243	-0.078	0.016
-209.465	-122.968	0.275	-0.044
-208.450	-200.000	0.015	0.283
-207.436	-40.466	0.007	0.004
-206.421	668.835	0.048	0.123
-205.406	695.142	-0.132	-0.341
-204.392	-42.905	-0.069	-0.035
-203.377	-76.724	-0.276	0.095
-202.363	-85.664	0.523	0.160
-201.348	-72.432	-0.234	0.085
-200.333	78.292	0.399	0.421
-199.319	-200.000	0.004	0.299
-198.304	360.082	0.105	0.208
-197.290	197.589	0.094	0.142
-196.275	398.957	0.145	-0.299
-195.260	800.000	0.120	-0.406
-194.246	-200.000	0.035	-0.502
-193.231	395.516	-0.012	0.025
-192.217	74.729	0.078	0.080
-191.202	-37.448	0.059	0.031
-190.187	73.234	-0.215	0.222
-189.173	-200.000	0.014	-0.202
-188.158	-193.687	0.224	0.002
-187.144	-141.443	0.074	0.007
-186.129	144.467	-0.054	0.072
-185.114	-200.000	-0.019	-0.257
-184.100	-109.275	0.243	-0.051
-183.085	218.261	0.164	-0.259
-182.071	-200.000	-0.021	-0.228
-181.056	-142.763	-0.205	0.020
-180.042	81.225	-0.177	0.189
-179.027	100.938	0.086	-0.099
-178.012	-200.000	-0.085	0.452
-176.998	-30.052	-0.212	-0.119
-175.983	-49.631	0.167	-0.078
-174.969	-49.896	0.067	0.031
-173.954	-200.000	-0.044	-0.433
-172.939	398.711	-0.172	-0.354
-171.925	313.981	-0.070	0.130
-170.910	40.351	-0.165	0.146
-169.896	355.413	0.110	0.217
-168.881	158.313	-0.216	0.296
-167.866	482.171	-0.099	-0.223
-166.852	-190.686	-0.277	0.003
-165.837	63.969	0.241	-0.239
-164.823	800.000	0.118	0.327
-163.808	-82.763	-0.188	-0.060
-162.793	220.500	-0.115	0.181
-161.779	-7.860	0.220	0.146
-160.764	-159.777	0.400	-0.022
-159.750	-154.511	-0.229	0.015
-158.735	-76.914	0.204	0.070
-157.720	-29.838	0.457	-0.257
-156.706	12.567	-0.235	-0.179
-155.691	119.922	0.158	0.193
-154.677	-144.932	0.129	-0.012
-153.662	219.791	-0.134	-0.211
-152.647	237.544	0.135	0.220
-151.633	-78.870	0.116	0.039
-150.618	-103.645	-0.134	0.031
-149.604	-200.000	-0.039	-0.652
-148.589	-116.750	0.205	-0.037
-147.574	-10.822	-0.151	-0.099
-146.560	-107.177	0.296	-0.064
-145.545	30.624	0.367	0.309
-144.531	-142.564	-0.290	0.028
-143.516	-115.594	0.349	-0.065
-142.502	-200.000	-0.023	0.215
-141.487	36.228	0.074	0.064
-140.472	800.000	-0.086	-0.356
-139.458	-9.903	-0.144	0.095
-138.443	-200.000	0.061	-0.267
-137.429	-41.767	0.081	0.041
-136.414	249.168	0.045	-0.074
-135.399	118.266	-0.191	0.232
-134.385	-200.000	-0.013	-0.201
-133.370	-78.318	0.199	-0.067
-132.356	42.603	0.167	-0.149
-131.341	-56.569	0.214	-0.093
-130.326	-58.040	-0.262	-0.113
-129.312	-173.550	-0.209	0.006
-128.297	-22.025	-0.127	-0.076
-127.283	-200.000	-0.031	-0.177
-126.268	800.000	0.049	-0.179
-125.253	112.337	-0.144	0.172
-124.239	-200.000	0.006	-0.114
-123.224	800.000	-0.056	0.226
-122.210	-90.456	0.022	0.006
-121.195	-200.000	-0.026	0.275
-120.180	212.936	0.109	-0.169
-119.166	-115.006	-0.569	0.106
-118.151	-87.791	0.284	-0.084
-117.137	-15.550	0.258	0.162
-116.122	3.436	-0.275	0.197
-115.107	-159.541	-0.321	-0.018
-114.093	-200.000	-0.021	0.118
-113.078	-200.000	0.025	-0.287
-112.064	53.374	-0.150	-0.141
-111.049	-4.329	-0.119	0.081
-110.034	123.039	-0.089	0.110
-109.020	-120.134	-0.204	-0.034
-108.005	-130.863	-0.183	-0.024
-106.991	199.678	-0.136	0.205
-105.976	200.363	-0.084	0.127
-104.962	-154.713	0.308	0.020
-103.947	-200.000	-0.001	-0.029
-102.932	-189.652	0.306	-0.003
-101.918	-153.317	0.146	0.010
-100.903	-65.578	-0.110	-0.043
-99.889	32.493	0.022	0.019
-98.874	-146.891	0.155	-0.013
-97.859	800.000	0.019	0.072
-96.845	-96.540	-0.202	0.052
-95.830	263.350	-0.079	-0.135
-94.816	-19.145	0.192	0.117
-93.801	58.258	-0.153	-0.148
-92.786	4.782	-0.146	0.105
-91.772	-200.000	0.036	-0.348
-90.757	800.000	-0.078	0.233
-89.743	-32.867	0.082	0.045
-88.728	605.223	-0.030	-0.074
-87.713	641.087	-0.212	-0.531
-86.699	-78.619	-0.314	-0.105
-85.684	-90.453	0.394	-0.112
-84.670	-19.903	-0.071	0.043
-83.655	15.741	-0.120	0.093
-82.640	-200.000	-0.012	0.227
-81.626	-77.324	0.365	-0.125
-80.611	129.024	-0.098	-0.123
-79.597	-155.404	0.339	-0.022
-78.582	27.491	-0.059	0.048
-77.567	-65.222	0.183	0.072
-76.553	-200.000	-0.019	-0.242
-75.538	-33.279	0.246	-0.134
-74.524	53.032	-0.069	0.064
-73.509	800.000	-0.081	-0.241
-72.494	-200.000	0.070	0.377
-71.480	86.635	0.132	0.143
-70.465	335.147	0.104	0.197
-69.451	76.203	-0.074	0.077
-68.436	-29.487	-0.174	0.098
-67.422	97.504	-0.097	0.109
-66.407	690.846	-0.104	-0.269
-65.392	-46.299	0.145	0.070
-64.378	-136.036	-0.237	0.027
-63.363	800.000	0.060	-0.233
-62.349	-152.718	-0.028	-0.002
-61.334	57.284	-0.807	-0.774
-60.319	249.014	0.521	0.866
-59.305	-200.000	-0.010	-0.651
-58.290	241.650	0.562	0.923
-57.276	800.000	0.546	1.502
-56.261	-200.000	95.648	585.807
-55.246	569.626	1367.825	3264.833
-54.232	162.247	2549.026	3506.982
-53.217	106.764	2263.116	2636.111
-52.203	41.886	1890.426	1682.606
-51.188	35.769	1680.789	1450.016
-50.173	33.066	1636.399	1391.792
-49.159	50.086	1682.824	1558.701
-48.144	51.919	1699.119	1587.410
-47.130	35.356	1660.459	1429.172
-46.115	32.658	1646.093	1396.789
-45.100	32.426	1641.379	1391.020
-44.086	32.399	1638.984	1388.731
-43.071	32.420	1635.652	1386.014
-42.057	32.397	1633.432	1383.906
-41.042	32.439	1631.173	1382.244
-40.027	32.521	1629.684	1381.533
-39.013	32.374	1627.889	1378.874
-37.998	32.350	1626.343	1377.333
-36.984	32.353	1625.339	1376.456
-35.969	32.453	1623.182	1375.303
-34.954	32.462	1621.830	1374.165
-33.940	32.481	1619.727	1372.467
-32.925	32.613	1617.878	1371.812
-31.911	32.479	1616.858	1369.918
-30.896	32.413	1614.794	1367.630
-29.881	32.451	1613.005	1366.341
-28.867	32.477	1611.761	1365.421
-27.852	32.532	1609.940	1364.221
-26.838	32.396	1608.564	1362.013
-25.823	32.456	1607.073	1361.134
-24.809	32.511	1605.976	1360.545
-23.794	32.502	1604.372	1359.071
-22.779	32.593	1602.641	1358.209
-21.765	32.548	1601.029	1356.464
-20.750	32.508	1599.636	1354.943
-19.736	32.624	1597.902	1354.252
-18.721	32.561	1597.017	1352.994
-17.706	32.492	1595.719	1351.350
-16.692	32.514	1593.872	1349.888
-15.677	32.521	1592.731	1348.918
-14.663	32.636	1590.787	1348.038
-13.648	32.556	1589.775	1346.553
-12.633	32.650	1587.794	1345.500
-11.619	32.553	1586.764	1343.875
-10.604	32.598	1584.804	1342.486
-9.590	32.489	1584.536	1341.432
-8.575	32.484	1583.204	1340.210
-7.560	32.587	1581.512	1339.457
-6.546	32.547	1580.525	1338.287
-5.531	32.494	1579.652	1337.120
-4.517	32.545	1577.894	1335.934
-3.502	32.505	1576.908	1334.765
-2.487	32.666	1575.243	1334.444
-1.473	32.275	1563.326	1321.549
-0.458	29.499	1545.046	1286.723
0.556	26.529	1545.431	1256.875
1.571	24.271	1569.463	1260.364
2.586	23.823	1582.902	1267.849
3.600	21.426	1530.041	1208.847
4.615	12.414	1420.101	1063.804
5.629	3.789	1354.711	961.279
6.644	2.239	1346.173	945.546
7.659	2.151	1344.570	943.793
8.673	2.013	1343.661	942.220
9.688	1.948	1341.962	940.548
10.702	1.710	1338.969	936.902
11.717	5.248	1346.161	963.706
12.731	15.398	1364.690	1040.096
13.746	23.849	1379.082	1103.682
14.761	26.253	1382.362	1121.146
15.775	26.604	1382.123	1123.030
16.790	26.663	1381.704	1122.955
17.804	26.757	1380.975	1122.848
18.819	26.983	1380.370	1123.654
19.834	27.098	1379.797	1123.804
20.848	26.932	1379.546	1122.471
21.863	27.131	1378.677	1122.895
22.877	27.112	1377.268	1121.530
23.892	27.135	1377.171	1121.492
24.907	27.057	1375.883	1119.866
25.921	27.010	1375.195	1118.913
26.936	27.037	1374.212	1118.183
27.950	27.106	1372.890	1117.433
28.965	27.120	1371.543	1116.323
29.980	27.019	1370.477	1114.737
30.994	26.999	1369.586	1113.790
32.009	27.031	1368.240	1112.794
33.023	26.943	1367.548	1111.591
34.038	27.088	1365.919	1111.059
35.053	27.100	1364.947	1110.241
36.067	27.049	1364.065	1109.115
37.082	27.080	1363.206	1108.506
38.096	27.074	1362.250	1107.596
39.111	27.034	1361.672	1106.783
40.126	27.072	1361.122	1106.469
41.140	27.012	1360.273	1105.317
42.155	27.020	1360.143	1105.165
43.169	26.963	1360.454	1104.972
44.184	27.088	1359.661	1104.989
45.199	27.123	1358.972	1104.542
46.213	27.108	1358.189	1103.718
47.228	27.027	1357.632	1102.677
48.242	26.988	1356.720	1101.602
49.257	26.954	1355.983	1100.698
50.271	26.975	1354.176	1099.266
51.286	27.051	1352.369	1098.158
52.301	27.039	1351.083	1096.945
53.315	27.089	1349.920	1096.205
54.330	27.041	1349.414	1095.405
55.344	27.042	1348.435	1094.523
56.359	27.047	1347.261	1093.503
57.374	27.114	1346.823	1093.452
58.388	27.173	1345.777	1092.860
59.403	27.064	1345.291	1091.716
60.417	26.994	1345.395	1091.284
61.432	27.098	1344.103	1090.763
62.447	27.121	1343.340	1090.183
63.461	26.962	1342.613	1088.547
64.476	27.197	1340.899	1088.464
65.490	27.086	1340.435	1087.326
66.505	27.051	1338.595	1085.533
67.520	27.026	1337.572	1084.455
68.534	27.128	1336.463	1084.071
69.549	27.057	1335.817	1083.024
70.563	27.056	1334.941	1082.214
71.578	27.003	1333.923	1080.979
72.593	26.958	1333.132	1079.971
73.607	27.056	1332.301	1079.784
74.622	27.128	1331.464	1079.443
75.636	27.027	1330.620	1078.062
76.651	27.087	1329.801	1077.659
77.666	27.083	1329.337	1077.165
78.680	26.956	1329.396	1076.362
79.695	26.963	1328.725	1075.766
80.709	27.092	1327.325	1075.301
81.724	27.097	1326.277	1074.387
82.739	27.156	1325.605	1074.094
83.753	27.080	1324.511	1072.663
84.768	27.079	1323.849	1072.026
85.782	27.057	1322.588	1070.779
86.797	27.231	1321.019	1070.442
87.812	27.154	1319.829	1068.930
88.826	27.082	1318.821	1067.597
89.841	27.109	1318.093	1067.070
90.855	27.155	1317.175	1066.504
91.870	27.145	1316.410	1065.730
92.884	27.144	1315.520	1064.911
93.899	27.152	1315.144	1064.556
94.914	27.145	1313.720	1063.271
95.928	27.125	1313.241	1062.674
96.943	27.165	1312.340	1062.080
97.957	27.158	1311.967	1061.647
98.972	27.133	1310.819	1060.478
99.987	27.052	1310.589	1059.726
101.001	27.137	1309.185	1058.989
102.016	27.139	1308.147	1058.068
103.030	27.088	1307.837	1057.427
104.045	27.145	1306.454	1056.546
105.060	27.124	1305.764	1055.775
106.074	27.243	1304.543	1055.384
107.089	27.136	1303.644	1053.941
108.103	27.083	1303.076	1053.084
109.118	27.118	1301.505	1051.924
110.133	27.206	1300.460	1051.495
111.147	27.122	1299.646	1050.258
112.162	27.160	1298.509	1049.467
113.176	27.258	1297.107	1048.803
114.191	27.242	1296.065	1047.780
115.206	27.164	1295.053	1046.418
116.220	27.127	1294.530	1045.689
117.235	27.111	1293.634	1044.778
118.249	27.083	1292.459	1043.576
119.264	27.207	1291.599	1043.501
120.279	27.281	1290.835	1043.217
121.293	27.283	1290.145	1042.578
122.308	27.288	1289.214	1041.761
123.322	27.329	1288.325	1041.188
124.337	27.240	1287.395	1039.834
125.352	27.303	1286.870	1039.677
126.366	27.308	1285.983	1038.898
127.381	27.341	1285.305	1038.445
128.395	27.211	1284.583	1037.029
129.410	27.204	1283.457	1035.992
130.424	27.219	1282.754	1035.418
131.439	27.272	1282.273	1035.239
132.454	27.181	1281.622	1034.102
133.468	27.323	1280.215	1033.684
134.483	27.236	1280.099	1033.007
135.497	27.226	1279.589	1032.442
136.512	27.286	1278.149	1031.529
137.527	27.282	1276.916	1030.422
138.541	27.310	1275.399	1029.264
139.556	27.361	1274.082	1028.402
140.570	27.304	1273.755	1027.721
141.585	27.295	1272.662	1026.701
142.600	27.277	1271.491	1025.563
143.614	27.263	1271.005	1025.003
144.629	27.265	1269.932	1024.058
145.643	27.167	1268.975	1022.643
146.658	27.164	1268.049	1021.787
147.673	27.192	1266.909	1020.938
148.687	27.140	1266.097	1019.901
149.702	27.211	1264.518	1018.937
150.716	27.134	1263.990	1017.989
151.731	27.204	1262.732	1017.275
152.746	27.182	1261.702	1016.237
153.760	27.238	1260.830	1015.757
154.775	27.222	1260.432	1015.255
155.789	27.236	1259.204	1014.254
156.804	27.175	1258.627	1013.360
157.819	27.229	1257.374	1012.562
158.833	27.258	1256.519	1011.948
159.848	27.310	1255.785	1011.554
160.862	27.224	1255.217	1010.532
161.877	27.210	1254.409	1009.712
162.892	27.354	1253.478	1009.671
163.906	27.372	1252.633	1009.004
164.921	27.405	1251.921	1008.524
165.935	27.331	1251.162	1007.413
166.950	27.213	1250.880	1006.441
167.964	27.421	1250.160	1006.925
168.979	27.423	1249.528	1006.335
169.994	27.352	1249.181	1005.575
171.008	27.322	1248.820	1005.029
172.023	27.483	1247.231	1004.554
173.037	27.398	1247.110	1003.899
174.052	27.379	1246.299	1003.048
175.067	27.354	1245.463	1002.151
176.081	27.317	1244.834	1001.355
177.096	27.426	1244.097	1001.269
178.110	27.385	1242.692	999.824
179.125	27.326	1242.164	998.987
180.140	27.351	1241.160	998.231
181.154	27.403	1239.792	997.326
182.169	27.298	1238.847	995.904
183.183	27.330	1238.124	995.408
184.198	27.380	1236.954	994.653
185.213	27.412	1236.107	994.057
186.227	27.526	1235.050	993.743
187.242	27.534	1234.310	993.101
188.256	27.466	1233.548	992.032
189.271	27.336	1233.360	991.086
190.286	27.367	1232.310	990.323
191.300	27.456	1231.671	990.202
192.315	27.393	1231.198	989.393
193.329	27.418	1230.681	989.025
194.344	27.577	1230.235	989.444
195.359	27.413	1229.779	988.100
196.373	27.541	1228.807	987.924
197.388	27.548	1228.292	987.461
198.402	27.423	1228.201	986.623
199.417	27.527	1227.584	986.606
200.432	27.437	1227.136	985.672
201.446	27.523	1226.579	985.601
202.461	27.412	1225.762	984.259
203.475	27.539	1224.817	984.096
204.490	27.585	1224.046	983.639
205.504	27.488	1223.068	982.245
206.519	27.629	1222.154	982.179
207.534	27.538	1221.405	981.004
208.548	27.544	1220.459	980.188
209.563	27.419	1219.912	978.991
210.577	27.540	1218.943	978.778
211.592	27.515	1218.574	978.256
212.607	27.654	1217.115	977.748
213.621	27.718	1216.573	977.569
214.636	27.560	1216.153	976.297
215.650	27.534	1215.288	975.377
216.665	27.537	1214.121	974.368
217.680	27.525	1213.119	973.416
218.694	27.655	1212.504	973.532
219.709	27.718	1211.683	973.120
220.723	27.648	1211.206	972.280
221.738	27.545	1210.500	971.075
222.753	27.435	1210.042	970.037
223.767	27.586	1209.259	970.129
224.782	27.614	1208.631	969.687
225.796	27.669	1208.426	969.727
226.811	27.627	1208.059	969.125
227.826	27.737	1207.390	969.088
228.840	27.646	1206.761	968.014
229.855	27.743	1205.779	967.655
230.869	27.744	1205.214	967.122
231.884	27.646	1204.632	966.052
232.899	27.628	1203.638	965.072
233.913	27.551	1203.221	964.243
234.928	27.770	1202.658	964.865
235.942	27.672	1202.237	963.927
236.957	27.764	1201.372	963.632
237.972	27.773	1200.323	962.753
238.986	27.639	1200.311	961.948
240.001	27.753	1199.463	961.786
241.015	27.927	1198.714	962.017
242.030	27.854	1197.830	960.841
243.045	27.847	1196.828	959.914
244.059	27.863	1196.544	959.683
245.074	27.848	1195.774	958.901
246.088	27.875	1195.087	958.411
247.103	27.944	1193.748	957.613
248.117	27.908	1193.262	956.952
249.132	27.819	1192.588	955.857
250.147	27.921	1191.977	955.819
251.161	27.992	1191.014	955.333
252.176	27.948	1190.844	954.880
253.190	27.919	1190.210	954.137
254.205	27.883	1189.559	953.342
255.220	27.829	1188.844	952.402
256.234	27.908	1188.411	952.384
257.249	27.924	1187.618	951.751
258.263	27.958	1187.204	951.510
259.278	27.850	1186.705	950.462
260.293	28.038	1185.754	950.594
261.307	28.055	1185.406	950.319
262.322	28.071	1184.954	949.958
263.336	28.058	1184.234	949.226
264.351	27.972	1183.687	948.258
265.366	27.909	1182.985	947.284
266.380	27.951	1182.613	947.120
267.395	28.013	1181.897	946.788
268.409	28.002	1180.956	945.893
269.424	28.031	1180.651	945.715
270.439	28.006	1180.480	945.365
271.453	28.056	1179.539	944.782
272.468	27.844	1178.889	943.084
273.482	28.067	1177.643	943.156
274.497	28.011	1177.704	942.835
275.512	28.172	1176.737	942.803
276.526	28.094	1175.997	941.725
277.541	28.096	1175.416	941.189
278.555	28.123	1175.091	940.981
279.570	28.118	1174.159	940.127
280.585	27.965	1173.425	938.670
281.599	28.075	1172.679	938.558
282.614	28.180	1171.660	938.198
283.628	28.181	1170.581	937.255
284.643	28.077	1170.309	936.419
285.657	28.181	1169.023	935.842
286.672	28.196	1168.293	935.251
287.687	28.100	1167.748	934.240
288.701	28.195	1167.028	934.068
289.716	28.194	1166.362	933.449
290.730	28.201	1165.707	932.873
291.745	28.285	1164.452	932.216
292.760	28.198	1164.499	931.726
293.774	28.254	1164.003	931.534
294.789	28.347	1163.233	931.306
295.803	28.269	1162.418	930.175
296.818	28.184	1161.949	929.287
297.833	28.251	1161.266	929.001
298.847	28.287	1160.623	928.583
299.862	28.267	1160.268	928.117
300.876	28.298	1159.579	927.641
301.891	28.316	1158.788	927.016
302.906	28.397	1158.082	926.780
303.920	28.420	1157.925	926.690
304.935	28.397	1157.220	925.924
305.949	28.329	1156.719	925.101
306.964	28.424	1155.682	924.668
307.979	28.392	1154.707	923.643
308.993	28.483	1154.117	923.552
310.008	28.440	1153.534	922.783
311.022	28.412	1152.778	921.956
312.037	28.569	1152.044	922.080
313.052	28.411	1151.210	920.537
314.066	28.439	1150.594	920.101
315.081	28.413	1149.770	919.234
316.095	28.560	1149.323	919.531
317.110	28.525	1148.513	918.626
318.125	28.571	1147.495	917.958
319.139	28.405	1147.419	916.985
320.154	28.561	1146.513	916.963
321.168	28.564	1146.172	916.624
322.183	28.501	1145.842	915.962
323.197	28.571	1145.255	915.761
324.212	28.541	1144.508	914.933
325.227	28.625	1144.287	915.097
326.241	28.520	1143.610	913.952
327.256	28.574	1142.970	913.626
328.270	28.583	1141.803	912.657
329.285	28.639	1140.984	912.200
330.300	28.676	1140.329	911.778
331.314	28.520	1139.656	910.388
332.329	28.629	1139.172	910.461
333.343	28.702	1138.228	909.990
334.358	28.738	1137.022	909.122
335.373	28.705	1136.535	908.487
336.387	28.763	1136.015	908.280
337.402	28.682	1135.325	907.246
338.416	28.765	1134.762	907.128
339.431	28.837	1134.000	906.792
340.446	28.687	1133.343	905.447
341.460	28.800	1132.822	905.506
342.475	28.876	1132.038	905.173
343.489	28.847	1131.020	904.136
344.504	28.825	1130.232	903.319
345.519	28.833	1129.320	902.550
346.533	28.897	1128.501	902.130
347.548	28.836	1128.189	901.501
348.562	28.877	1127.344	900.948
349.577	28.856	1126.613	900.179
350.592	28.722	1126.135	899.064
351.606	28.717	1125.614	898.541
352.621	28.960	1124.981	899.148
353.635	28.949	1124.064	898.282
354.650	28.925	1123.796	897.870
355.665	28.835	1123.065	896.768
356.679	28.887	1122.391	896.403
357.694	28.938	1121.828	896.124
358.708	28.894	1121.077	895.227
359.723	28.949	1120.243	894.751
360.738	28.927	1119.729	894.156
361.752	29.015	1119.054	893.964
362.767	28.983	1118.611	893.377
363.781	29.023	1117.903	892.924
364.796	28.984	1117.615	892.428
365.810	29.069	1117.017	892.285
366.825	29.069	1116.098	891.469
367.840	29.048	1115.854	891.095
368.854	29.114	1115.388	890.962
369.869	29.077	1114.507	889.999
370.883	29.159	1113.852	889.796
371.898	29.110	1112.998	888.799
372.913	29.062	1112.473	888.067
373.927	29.048	1112.072	887.602
374.942	29.149	1111.727	887.735
375.956	29.202	1110.879	887.234
376.971	29.192	1110.547	886.843
377.986	29.207	1109.850	886.282
379.000	29.286	1109.262	886.110
380.015	29.246	1108.966	885.605
381.029	29.215	1108.658	885.131
382.044	29.237	1107.475	884.212
383.059	29.242	1107.238	883.969
384.073	29.176	1106.471	882.966
385.088	29.207	1105.582	882.322
386.102	29.245	1104.869	881.860
387.117	29.278	1103.757	881.049
388.132	29.205	1102.904	879.943
389.146	29.336	1102.422	880.106
390.161	29.411	1101.713	879.820
391.175	29.289	1101.356	878.877
392.190	29.350	1100.711	878.573
393.205	29.474	1099.258	877.928
394.219	29.385	1099.056	877.266
395.234	29.528	1098.130	877.125
396.248	29.287	1097.538	875.430
397.263	29.446	1096.400	875.201
398.278	29.582	1095.997	875.446
399.292	29.469	1095.830	874.700
400.307	29.491	1094.615	873.758
401.321	29.370	1094.541	873.048
402.336	29.477	1093.790	872.877
403.350	29.394	1093.029	871.803
404.365	29.458	1092.364	871.494
405.380	29.759	1091.370	872.046
406.394	29.626	1090.591	870.719
407.409	29.391	1090.402	869.384
408.423	29.643	1089.326	869.638
409.438	29.692	1088.649	869.248
410.453	29.574	1088.353	868.379
411.467	29.670	1087.653	868.196
412.482	29.641	1087.017	867.476
413.496	29.565	1086.382	866.535
414.511	29.608	1085.582	866.024
415.526	29.768	1084.815	866.083
416.540	29.715	1084.697	865.663
417.555	29.615	1084.494	864.957
418.569	29.603	1083.981	864.416
419.584	29.729	1083.449	864.506
420.599	29.746	1082.801	863.989
421.613	104.726	1321.153	1458.983
422.628	97.454	1355.869	1459.106
