DTS Sentinel unit serial number:	SN413079Multiplexer serial number:	ORYXHardware model number:	OX4-SRSoftware version number:	ORYX F/W v4.00 Oryx Data Collector v3.7.2.0data status	okinstallation	princeton_trtdifferential loss correction	single-endedforward channel	channel 2reverse channel	N/Adate	2019/09/17time	04:23:35forward acquisition time	60.00reverse acquisition time	0.00gamma	496.2192k internal	0.2327k external	0.2327temperature offset calibration	0.9977default loss term (dB/km)	0.3790temperature slope calibration	1.0000multiplexer offset coefficient	1.0000multiplexer slope coefficient	1.0000fibre end	0.00T internal ref (°C)	29.75T ext. ref 1 (°C)	0.14T ext. ref 2 (°C)	24.21length (m)	temperature (°C)	Stokes	anti-Stokes-747.200	-200.000	-0.012	0.330
-746.185	241.445	-0.070	-0.118
-745.171	98.844	-0.122	0.142
-744.156	-170.070	-0.144	0.005
-743.142	-168.723	0.121	-0.005
-742.127	800.000	-0.127	0.420
-741.112	-18.135	-0.228	-0.144
-740.098	-106.675	-0.334	-0.075
-739.083	-118.253	-0.120	-0.022
-738.069	-44.400	-0.058	0.029
-737.054	-21.912	0.060	0.036
-736.039	-117.772	0.104	0.019
-735.025	-184.474	0.389	-0.006
-734.010	-141.657	0.048	0.005
-732.996	-200.000	-0.025	0.333
-731.981	-200.000	-0.003	0.285
-730.966	-102.558	0.030	-0.007
-729.952	-84.558	0.081	-0.026
-728.937	105.010	-0.193	-0.230
-727.923	-98.008	-0.238	-0.062
-726.908	500.883	-0.152	0.354
-725.894	-157.793	-0.261	-0.016
-724.879	-19.228	-0.154	-0.096
-723.864	-129.762	-0.109	0.015
-722.850	-101.824	0.191	-0.047
-721.835	65.340	-0.212	-0.215
-720.821	-37.831	-0.416	-0.223
-719.806	-21.181	-0.050	0.031
-718.791	189.002	0.117	0.176
-717.777	-152.318	-0.217	-0.016
-716.762	564.891	0.118	-0.288
-715.748	-88.940	0.181	0.054
-714.733	-71.136	0.083	-0.031
-713.718	105.645	-0.044	-0.053
-712.704	-200.000	0.021	-0.109
-711.689	-200.000	-0.013	-0.432
-710.675	-85.327	0.195	0.061
-709.660	-52.792	-0.369	-0.171
-708.645	-170.845	0.107	0.004
-707.631	575.966	-0.049	-0.120
-706.616	374.720	-0.153	0.313
-705.602	-91.223	-0.193	-0.056
-704.587	215.015	-0.094	-0.150
-703.572	69.086	-0.081	-0.084
-702.558	-200.000	-0.043	-0.303
-701.543	-200.000	-0.010	-0.285
-700.529	87.614	0.094	-0.105
-699.514	240.911	-0.083	0.140
-698.499	-151.119	-0.094	-0.007
-697.485	800.000	-0.101	-0.291
-696.470	255.247	-0.060	-0.104
-695.456	800.000	0.093	-0.320
-694.441	-109.725	-0.233	-0.049
-693.426	128.390	0.063	0.081
-692.412	194.540	-0.145	0.222
-691.397	-120.389	-0.148	-0.025
-690.383	261.417	0.048	-0.083
-689.368	-46.554	0.151	-0.074
-688.354	-200.000	-0.048	0.292
-687.339	391.075	-0.137	0.286
-686.324	125.125	0.145	-0.184
-685.310	-144.098	0.148	0.014
-684.295	-53.368	0.272	0.125
-683.281	47.787	0.118	-0.111
-682.266	-114.528	0.217	0.042
-681.251	-115.083	-0.162	-0.031
-680.237	-200.000	-0.044	0.279
-679.222	-200.000	-0.020	-0.326
-678.208	125.720	0.054	0.068
-677.193	-106.975	0.304	-0.068
-676.178	800.000	-0.046	0.172
-675.164	-200.000	-0.026	0.383
-674.149	729.518	-0.089	0.239
-673.135	800.000	0.039	-0.131
-672.120	100.109	-0.172	-0.200
-671.105	-12.745	0.244	-0.160
-670.091	487.396	-0.052	0.119
-669.076	-187.037	-0.279	-0.004
-668.062	381.160	-0.075	0.155
-667.047	-91.234	-0.346	-0.100
-666.032	-50.336	-0.108	-0.051
-665.018	-200.000	0.067	-0.362
-664.003	-200.000	-0.020	0.194
-662.989	-200.000	-0.053	0.260
-661.974	-73.921	-0.136	0.050
-660.959	58.688	-0.072	0.071
-659.945	-200.000	-0.030	0.155
-658.930	137.209	-0.109	0.144
-657.916	149.910	0.096	-0.131
-656.901	76.868	-0.274	0.292
-655.886	206.455	-0.078	-0.122
-654.872	-111.490	-0.148	-0.030
-653.857	800.000	-0.037	0.161
-652.843	-200.000	0.030	-0.233
-651.828	466.520	-0.105	-0.236
-650.814	-52.994	0.273	-0.126
-649.799	800.000	-0.074	-0.257
-648.784	-200.000	-0.041	0.225
-647.770	-14.355	-0.172	0.111
-646.755	-200.000	-0.038	0.246
-645.741	-78.935	-0.229	0.078
-644.726	800.000	0.134	-0.382
-643.711	800.000	-0.036	0.114
-642.697	-200.000	-0.055	0.000
-641.682	-146.678	-0.176	-0.015
-640.668	-25.290	-0.033	-0.020
-639.653	-200.000	0.033	-0.363
-638.638	172.254	0.181	-0.261
-637.624	-200.000	-0.101	0.487
-636.609	11.469	0.173	0.133
-635.595	595.567	0.072	-0.180
-634.580	-200.000	-0.040	-0.239
-633.565	403.500	0.053	0.112
-632.551	800.000	-0.029	-0.117
-631.536	-200.000	-0.003	0.019
-630.522	1.087	0.165	0.119
-629.507	-36.505	-0.352	0.190
-628.492	172.321	-0.118	0.170
-627.478	800.000	-0.046	-0.148
-626.463	-200.000	0.007	0.178
-625.449	-116.032	-0.229	0.043
-624.434	460.846	-0.122	0.273
-623.419	-200.000	0.001	-0.031
-622.405	172.637	0.140	0.202
-621.390	-200.000	-0.005	-0.108
-620.376	78.018	0.033	-0.035
-619.361	-200.000	0.014	-0.206
-618.346	56.594	-0.217	-0.212
-617.332	800.000	0.060	0.189
-616.317	282.913	-0.159	-0.286
-615.303	-51.874	0.143	-0.067
-614.288	-200.000	0.007	0.421
-613.273	-200.000	0.008	-0.102
-612.259	-146.376	-0.132	-0.012
-611.244	174.614	-0.193	-0.280
-610.230	-8.949	-0.249	0.167
-609.215	183.016	-0.128	0.189
-608.201	148.640	0.255	0.346
-607.186	-40.338	-0.338	0.176
-606.171	-200.000	0.031	-0.300
-605.157	-82.755	0.139	0.045
-604.142	-31.195	-0.111	0.063
-603.128	-200.000	0.005	-0.322
-602.113	-102.398	0.093	-0.022
-601.098	-59.848	-0.226	-0.097
-600.084	-3.109	0.124	-0.087
-599.069	-80.006	-0.214	0.072
-598.055	-14.027	0.281	-0.182
-597.040	56.872	-0.035	0.034
-596.025	-200.000	-0.012	-0.075
-595.011	-48.526	0.164	0.079
-593.996	-188.468	-0.236	0.003
-592.982	-200.000	0.031	-0.250
-591.967	235.184	-0.102	0.169
-590.952	-59.414	0.071	0.031
-589.938	-200.000	-0.016	0.155
-588.923	209.250	-0.158	-0.249
-587.909	189.720	-0.062	-0.093
-586.894	-51.871	-0.266	-0.124
-585.879	213.942	0.036	0.056
-584.865	-15.608	-0.346	0.221
-583.850	-40.208	-0.385	0.201
-582.836	54.436	0.180	-0.174
-581.821	800.000	-0.034	-0.115
-580.806	-132.977	-0.228	-0.029
-579.792	125.040	-0.113	0.143
-578.777	-200.000	-0.005	0.151
-577.763	72.980	0.081	0.084
-576.748	-110.971	-0.355	-0.073
-575.733	106.479	0.270	-0.321
-574.719	800.000	0.025	0.080
-573.704	800.000	0.117	0.333
-572.690	48.575	-0.189	0.177
-571.675	212.549	0.084	-0.133
-570.661	557.360	-0.056	-0.134
-569.646	464.075	-0.033	0.074
-568.631	-27.163	0.132	-0.077
-567.617	-86.173	-0.268	0.083
-566.602	17.880	-0.145	0.116
-565.588	101.030	0.133	0.155
-564.573	-200.000	0.028	-0.197
-563.558	-200.000	0.020	0.154
-562.544	-200.000	-0.051	-0.351
-561.529	-175.637	-0.132	-0.004
-560.515	-200.000	0.025	0.138
-559.500	800.000	0.022	0.079
-558.485	-93.564	-0.380	0.105
-557.471	-200.000	-0.001	0.353
-556.456	730.658	0.071	-0.191
-555.442	595.972	-0.109	0.270
-554.427	800.000	-0.064	-0.178
-553.412	159.688	0.318	-0.444
-552.398	-154.820	-0.101	-0.007
-551.383	766.907	0.006	0.018
-550.369	431.516	0.156	0.337
-549.354	-43.212	0.230	0.116
-548.339	-76.574	-0.209	0.073
-547.325	-200.000	0.059	-0.407
-546.310	-120.057	0.329	0.056
-545.296	800.000	0.032	-0.107
-544.281	88.332	0.030	0.034
-543.266	62.578	-0.071	-0.071
-542.252	284.797	-0.177	-0.319
-541.237	-42.795	-0.275	-0.140
-540.223	-123.774	0.513	0.081
-539.208	-72.226	-0.106	0.039
-538.193	734.699	-0.056	0.149
-537.179	-2.726	-0.278	-0.194
-536.164	-200.000	-0.023	-0.134
-535.150	-119.405	-0.085	-0.015
-534.135	800.000	0.033	-0.107
-533.121	800.000	0.061	-0.195
-532.106	-23.112	0.353	0.213
-531.091	102.041	-0.246	0.288
-530.077	-200.000	-0.092	-0.411
-529.062	189.249	0.348	-0.521
-528.048	-200.000	-0.016	-0.349
-527.033	208.469	-0.045	0.070
-526.018	800.000	0.023	-0.099
-525.004	-83.511	-0.191	-0.061
-523.989	36.517	-0.291	-0.257
-522.975	250.624	0.128	0.218
-521.960	354.017	-0.119	0.235
-520.945	-123.462	0.421	0.067
-519.931	-200.000	0.018	0.278
-518.916	-37.045	-0.148	0.079
-517.902	800.000	-0.067	0.240
-516.887	800.000	-0.102	-0.323
-515.872	438.626	0.077	-0.169
-514.858	-200.000	-0.041	-0.214
-513.843	255.609	0.188	-0.322
-512.829	12.763	0.249	0.192
-511.814	9.199	0.178	-0.134
-510.799	-200.000	0.006	-0.074
-509.785	66.953	-0.200	-0.204
-508.770	410.174	-0.118	-0.251
-507.756	-200.000	0.019	-0.226
-506.741	-139.563	-0.388	-0.041
-505.726	800.000	0.092	-0.342
-504.712	60.986	-0.039	0.039
-503.697	81.421	0.107	-0.116
-502.683	485.100	-0.086	-0.195
-501.668	-200.000	-0.021	0.107
-500.653	-15.864	0.415	0.264
-499.639	-69.250	0.158	-0.061
-498.624	40.319	-0.400	0.360
-497.610	-67.394	0.141	-0.055
-496.595	800.000	0.031	0.112
-495.581	-200.000	0.074	-0.366
-494.566	331.250	0.126	-0.243
-493.551	-84.484	0.154	0.049
-492.537	268.315	0.253	0.443
-491.522	-200.000	-0.043	0.218
-490.508	-81.691	-0.323	-0.106
-489.493	63.028	-0.146	0.146
-488.478	-101.289	-0.115	0.028
-487.464	42.167	0.134	0.121
-486.449	37.941	0.211	-0.187
-485.435	-141.180	-0.051	0.005
-484.420	-47.835	-0.170	-0.082
-483.405	538.397	0.092	0.219
-482.391	-22.794	-0.195	0.118
-481.376	-126.992	-0.255	0.037
-480.362	-109.169	-0.151	0.032
-479.347	743.791	-0.067	-0.179
-478.332	-200.000	-0.075	-0.332
-477.318	-65.289	-0.088	0.035
-476.303	-59.347	0.195	-0.084
-475.289	46.347	-0.080	-0.074
-474.274	-24.854	0.348	0.206
-473.259	-64.378	0.123	0.050
-472.245	800.000	-0.054	-0.222
-471.230	-200.000	0.093	0.558
-470.216	-67.334	-0.327	-0.128
-469.201	-56.791	-0.318	0.140
-468.186	183.743	0.211	0.311
-467.172	647.830	0.176	-0.447
-466.157	800.000	0.056	-0.236
-465.143	-3.692	0.240	0.166
-464.128	-40.051	0.375	0.195
-463.113	-22.886	0.127	0.077
-462.099	-129.445	-0.234	-0.032
-461.084	-200.000	0.049	0.287
-460.070	-83.053	0.103	-0.033
-459.055	-123.821	0.275	0.043
-458.040	108.162	-0.201	0.239
-457.026	-9.224	0.299	-0.199
-456.011	-200.000	0.007	-0.116
-454.997	-200.000	0.010	0.063
-453.982	-5.745	0.196	-0.134
-452.968	415.629	-0.112	-0.237
-451.953	549.269	0.150	-0.358
-450.938	-174.916	-0.180	0.005
-449.924	433.462	-0.062	0.134
-448.909	-4.703	0.154	-0.106
-447.895	238.075	0.164	0.270
-446.880	332.188	-0.263	-0.506
-445.865	18.003	-0.406	-0.323
-444.851	-179.925	-0.251	-0.005
-443.836	-22.340	0.110	0.066
-442.822	620.303	-0.066	-0.165
-441.807	58.693	0.115	-0.112
-440.792	23.714	0.358	-0.294
-439.778	-34.935	-0.357	-0.194
-438.763	28.428	0.353	0.297
-437.749	177.549	-0.239	0.347
-436.734	-91.803	-0.149	0.042
-435.719	-200.000	0.038	-0.238
-434.705	484.052	0.152	0.345
-433.690	80.050	-0.215	0.230
-432.676	800.000	0.079	-0.284
-431.661	168.094	0.231	-0.327
-430.646	443.235	0.128	0.280
-429.632	2.004	-0.039	-0.028
-428.617	17.272	0.050	-0.040
-427.603	-135.129	-0.173	0.021
-426.588	9.450	0.059	-0.044
-425.573	-68.312	0.297	-0.115
-424.559	-200.000	-0.031	0.250
-423.544	-200.000	-0.005	-0.447
-422.530	800.000	0.041	0.116
-421.515	-130.096	0.238	0.032
-420.500	-66.205	-0.314	-0.125
-419.486	-77.243	0.274	-0.095
-418.471	39.914	0.161	-0.144
-417.457	99.038	-0.211	0.242
-416.442	625.038	-0.048	0.120
-415.428	262.594	0.107	0.184
-414.413	55.100	-0.091	0.087
-413.398	169.286	-0.050	0.071
-412.384	-200.000	0.000	-0.076
-411.369	-72.230	-0.128	-0.047
-410.355	-108.876	-0.241	0.051
-409.340	-11.988	0.137	0.089
-408.325	-32.721	-0.094	0.052
-407.311	-149.609	-0.083	-0.007
-406.296	-22.927	0.264	-0.159
-405.282	-200.000	-0.061	0.287
-404.267	247.452	-0.088	0.147
-403.252	-11.381	-0.264	0.173
-402.238	-200.000	0.020	0.167
-401.223	-200.000	0.009	-0.253
-400.209	265.579	0.116	0.201
-399.194	-189.370	0.153	-0.002
-398.179	-200.000	0.000	0.030
-397.165	-9.984	-0.166	-0.110
-396.150	800.000	0.066	0.243
-395.136	-104.828	-0.220	0.050
-394.121	-200.000	-0.036	-0.281
-393.106	193.749	-0.171	0.258
-392.092	356.512	-0.055	0.110
-391.077	36.133	0.016	-0.014
-390.063	-200.000	-0.046	0.231
-389.048	800.000	0.031	0.113
-388.033	-200.000	-0.014	-0.064
-387.019	-200.000	0.016	0.194
-386.004	-151.507	-0.233	-0.017
-384.990	-64.193	0.125	-0.051
-383.975	485.993	0.067	0.152
-382.960	-9.186	-0.081	-0.054
-381.946	-200.000	0.004	-0.162
-380.931	86.672	0.252	0.277
-379.917	281.594	-0.099	0.175
-378.902	-115.803	0.072	0.013
-377.888	-75.404	-0.156	-0.055
-376.873	800.000	0.114	0.401
-375.858	105.944	0.065	0.077
-374.844	-50.139	-0.149	0.070
-373.829	-183.800	-0.035	0.001
-372.815	51.380	-0.093	0.088
-371.800	-200.000	0.023	0.531
-370.785	-74.071	0.136	-0.049
-369.771	-132.552	0.199	0.025
-368.756	-42.398	0.144	0.073
-367.742	282.491	0.069	0.124
-366.727	-200.000	0.053	0.321
-365.712	-200.000	-0.026	0.180
-364.698	132.408	-0.132	-0.169
-363.683	800.000	0.030	-0.096
-362.669	134.295	0.075	-0.097
-361.654	800.000	-0.044	0.121
-360.639	536.443	-0.099	-0.234
-359.625	-19.112	0.286	0.176
-358.610	-42.323	-0.124	0.063
-357.596	429.963	-0.013	-0.028
-356.581	800.000	0.097	0.386
-355.566	-200.000	-0.013	0.164
-354.552	262.682	-0.096	-0.166
-353.537	-77.705	-0.267	-0.092
-352.523	7.059	0.197	-0.146
-351.508	95.655	0.245	-0.278
-350.493	-25.165	-0.412	0.242
-349.479	-41.310	-0.273	-0.140
-348.464	276.614	0.058	-0.102
-347.450	226.402	0.049	-0.078
-346.435	-139.076	-0.084	0.009
-345.420	-200.000	-0.002	0.084
-344.406	248.214	-0.085	-0.143
-343.391	255.193	0.199	0.338
-342.377	442.754	0.068	0.147
-341.362	-51.424	-0.405	0.188
-340.348	-200.000	0.043	-0.188
-339.333	-124.388	-0.222	-0.034
-338.318	-51.726	-0.246	-0.114
-337.304	-147.023	0.145	-0.012
-336.289	-200.000	0.020	0.173
-335.275	800.000	0.007	-0.026
-334.260	-104.715	-0.472	-0.108
-333.245	800.000	-0.108	-0.381
-332.231	-55.930	-0.169	0.075
-331.216	800.000	0.010	0.036
-330.202	800.000	-0.068	0.250
-329.187	-200.000	0.056	0.328
-328.172	37.731	-0.141	-0.124
-327.158	252.983	0.062	-0.104
-326.143	634.510	0.114	-0.287
-325.129	-45.330	-0.127	-0.062
-324.114	-86.311	-0.237	-0.072
-323.099	79.909	-0.257	0.273
-322.085	75.963	-0.072	-0.076
-321.070	206.118	0.084	0.130
-320.056	-117.129	0.154	0.028
-319.041	800.000	-0.020	0.078
-318.026	-200.000	-0.007	-0.039
-317.012	800.000	0.095	-0.304
-315.997	-24.074	0.139	0.082
-314.983	-129.791	-0.173	-0.024
-313.968	345.536	-0.129	-0.250
-312.953	173.867	-0.192	-0.275
-311.939	138.572	0.108	0.140
-310.924	-110.223	0.261	-0.054
-309.910	15.033	0.127	0.099
-308.895	-71.182	-0.210	-0.078
-307.880	-129.100	-0.271	0.038
-306.866	-78.678	0.064	-0.022
-305.851	-106.907	0.411	0.090
-304.837	-134.463	-0.367	0.044
-303.822	-147.469	0.066	-0.005
-302.807	464.511	0.118	-0.262
-301.793	-5.394	-0.237	-0.161
-300.778	-200.000	0.057	0.387
-299.764	51.951	0.138	-0.130
-298.749	420.357	-0.150	-0.319
-297.735	56.658	0.086	0.083
-296.720	45.134	0.306	0.279
-295.705	-93.820	0.271	-0.074
-294.691	-45.281	0.246	-0.121
-293.676	-23.207	-0.224	0.134
-292.662	-11.272	0.111	0.073
-291.647	-171.368	0.363	-0.012
-290.632	63.245	0.069	-0.069
-289.618	-34.752	-0.234	0.127
-288.603	28.683	0.172	0.144
-287.589	-119.700	-0.282	0.048
-286.574	-10.647	0.251	0.164
-285.559	-77.177	0.306	-0.106
-284.545	95.466	-0.128	-0.145
-283.530	337.191	-0.108	-0.208
-282.516	-200.000	0.406	0.001
-281.501	-126.001	0.215	0.032
-280.486	-37.450	-0.085	-0.045
-279.472	26.263	0.024	-0.020
-278.457	11.242	-0.192	0.145
-277.443	91.953	0.362	0.403
-276.428	800.000	-0.058	-0.223
-275.413	104.918	-0.068	-0.079
-274.399	69.697	-0.212	-0.216
-273.384	800.000	-0.030	0.085
-272.370	800.000	0.131	-0.470
-271.355	-112.804	0.191	-0.038
-270.340	-18.901	-0.106	-0.065
-269.326	-61.688	0.309	0.128
-268.311	-200.000	-0.022	-0.425
-267.297	-21.430	-0.248	0.150
-266.282	-145.306	-0.216	-0.019
-265.267	-200.000	-0.018	0.338
-264.253	37.343	-0.109	-0.096
-263.238	800.000	0.066	0.202
-262.224	-88.030	0.210	-0.062
-261.209	-27.573	0.164	-0.094
-260.195	-193.678	-0.159	-0.001
-259.180	-142.544	-0.385	-0.037
-258.165	-1.014	-0.099	-0.069
-257.151	-200.000	-0.068	-0.389
-256.136	140.459	-0.073	-0.095
-255.122	-28.477	0.144	0.082
-254.107	-42.253	0.451	-0.228
-253.092	179.886	0.129	0.186
-252.078	-137.536	0.331	-0.037
-251.063	267.563	-0.212	0.367
-250.049	-120.789	0.052	0.009
-249.034	-7.986	0.143	0.095
-248.019	14.529	0.156	0.121
-247.005	-49.784	-0.224	0.105
-245.990	-200.000	0.007	0.096
-244.976	46.518	0.132	0.121
-243.961	410.007	-0.087	-0.183
-242.946	-184.426	-0.267	-0.004
-241.932	-62.905	0.131	-0.054
-240.917	535.120	-0.032	0.074
-239.903	800.000	-0.065	-0.278
-238.888	-85.802	0.060	-0.018
-237.873	-120.787	0.342	0.057
-236.859	-200.000	0.003	0.021
-235.844	-196.894	-0.091	0.001
-234.830	416.717	0.126	-0.266
-233.815	-101.377	-0.268	0.065
-232.800	69.529	0.121	-0.124
-231.786	-200.000	-0.002	-0.088
-230.771	800.000	-0.083	-0.244
-229.757	-200.000	0.019	0.540
-228.742	-117.536	-0.141	0.025
-227.727	-119.031	-0.153	0.027
-226.713	-89.049	0.328	-0.096
-225.698	-200.000	-0.002	0.108
-224.684	-200.000	-0.058	-0.254
-223.669	-65.144	-0.074	0.030
-222.655	87.712	-0.171	0.187
-221.640	225.390	0.033	-0.052
-220.625	-75.562	-0.439	0.154
-219.611	-200.000	-0.049	-0.249
-218.596	-102.185	-0.297	-0.070
-217.582	331.657	0.190	0.362
-216.567	800.000	0.061	0.179
-215.552	-89.813	0.343	0.099
-214.538	-47.934	0.380	0.182
-213.523	-200.000	0.025	-0.147
-212.509	-200.000	0.005	0.161
-211.494	-61.740	-0.080	0.033
-210.479	-91.176	0.171	-0.049
-209.465	528.530	0.014	-0.034
-208.450	-132.805	-0.272	0.034
-207.436	-63.274	0.421	0.171
-206.421	16.481	-0.211	0.164
-205.406	377.707	0.025	0.051
-204.392	-200.000	-0.049	-0.261
-203.377	688.910	-0.082	0.211
-202.363	-200.000	0.057	-0.387
-201.348	-200.000	0.005	-0.296
-200.333	-68.855	0.279	0.106
-199.319	-45.662	0.053	-0.026
-198.304	-200.000	0.040	-0.201
-197.290	31.761	0.232	0.197
-196.275	-23.940	0.182	0.107
-195.260	16.956	-0.193	0.151
-194.246	-110.491	0.269	-0.055
-193.231	-200.000	-0.042	0.436
-192.217	800.000	-0.096	0.265
-191.202	-98.536	0.189	-0.048
-190.187	39.262	0.159	-0.140
-189.173	-84.394	0.264	0.082
-188.158	-117.767	0.171	0.030
-187.144	-91.743	-0.198	0.056
-186.129	-87.596	-0.108	0.032
-185.114	66.559	0.078	0.078
-184.100	-200.000	-0.022	-0.366
-183.085	800.000	-0.055	0.207
-182.071	800.000	0.055	0.186
-181.056	218.815	0.303	0.477
-180.042	229.459	0.175	-0.282
-179.027	800.000	0.142	-0.538
-178.012	64.113	0.126	0.125
-176.998	371.662	0.138	0.277
-175.983	-7.661	0.229	-0.152
-174.969	-134.543	-0.185	0.022
-173.954	800.000	-0.069	-0.218
-172.939	-0.187	0.061	0.043
-171.925	39.508	0.425	-0.376
-170.910	2.015	-0.158	-0.112
-169.896	-200.000	0.024	0.169
-168.881	66.487	-0.116	-0.116
-167.866	-200.000	-0.006	-0.491
-166.852	-24.778	0.183	0.107
-165.837	-13.571	-0.208	0.133
-164.823	-63.525	-0.247	0.100
-163.808	24.977	-0.218	-0.178
-162.793	202.500	0.093	-0.142
-161.779	-24.539	-0.201	0.118
-160.764	800.000	0.030	0.128
-159.750	148.704	-0.037	0.049
-158.735	201.074	0.168	0.255
-157.720	-76.656	0.495	-0.171
-156.706	800.000	-0.024	-0.070
-155.691	-9.705	0.277	-0.182
-154.677	-191.908	0.185	0.002
-153.662	696.682	-0.098	-0.254
-152.647	-200.000	0.034	0.262
-151.633	282.643	0.062	0.109
-150.618	-200.000	-0.030	-0.193
-149.604	505.987	0.074	-0.168
-148.589	-69.258	0.130	0.049
-147.574	-84.534	-0.189	0.059
-146.560	-200.000	0.072	-0.320
-145.545	-200.000	0.063	-0.366
-144.531	-200.000	0.069	0.429
-143.516	-115.983	0.042	-0.008
-142.502	36.694	0.369	0.321
-141.487	15.476	-0.092	-0.071
-140.472	-14.566	-0.177	0.112
-139.458	800.000	-0.086	-0.266
-138.443	-200.000	-0.028	0.327
-137.429	-64.709	0.533	0.212
-136.414	-100.745	-0.242	0.059
-135.399	-200.000	0.047	0.280
-134.385	-80.896	0.112	0.036
-133.370	-55.573	0.165	-0.073
-132.356	-46.148	-0.546	-0.265
-131.341	305.026	-0.207	0.378
-130.326	30.836	-0.102	0.086
-129.312	-200.000	-0.006	0.256
-128.297	-43.040	-0.189	-0.094
-127.283	-200.000	-0.002	0.027
-126.268	-200.000	0.099	-0.468
-125.253	-200.000	0.005	-0.215
-124.239	22.130	0.205	-0.165
-123.224	-96.763	0.128	0.033
-122.210	-158.409	0.104	-0.006
-121.195	-46.645	0.254	-0.123
-120.180	-26.849	0.315	0.181
-119.166	-48.778	-0.553	-0.261
-118.151	-11.979	0.276	-0.178
-117.137	35.852	-0.329	-0.284
-116.122	461.579	0.096	-0.210
-115.107	-123.026	0.283	-0.045
-114.093	-200.000	0.050	-0.387
-113.078	277.671	-0.213	0.373
-112.064	-5.634	0.366	0.247
-111.049	-66.552	0.021	-0.008
-110.034	-200.000	-0.006	0.053
-109.020	800.000	0.072	-0.307
-108.005	-65.144	0.094	0.037
-106.991	-19.491	0.114	-0.070
-105.976	35.937	-0.083	-0.072
-104.962	-95.266	0.352	-0.093
-103.947	204.567	0.138	-0.211
-102.932	185.035	-0.250	0.364
-101.918	-200.000	0.018	-0.174
-100.903	146.152	0.322	-0.425
-99.889	-47.026	-0.337	-0.162
-98.874	-96.167	0.060	-0.016
-97.859	-149.653	-0.044	0.003
-96.845	800.000	-0.099	0.371
-95.830	-67.463	0.326	-0.126
-94.816	77.852	-0.196	0.205
-93.801	347.064	-0.114	0.220
-92.786	-200.000	-0.128	0.560
-91.772	-200.000	-0.022	0.396
-90.757	101.806	-0.202	0.232
-89.743	94.512	0.115	-0.129
-88.728	-30.186	0.187	-0.104
-87.713	-84.443	-0.389	-0.121
-86.699	-200.000	0.021	-0.119
-85.684	-200.000	0.037	0.326
-84.670	586.451	-0.066	0.160
-83.655	130.485	-0.064	-0.081
-82.640	-39.039	0.049	0.025
-81.626	-55.490	-0.045	0.020
-80.611	-200.000	-0.014	-0.207
-79.597	108.776	0.411	0.482
-78.582	-96.148	0.306	0.080
-77.567	-69.953	0.349	-0.131
-76.553	115.069	0.055	0.066
-75.538	-22.478	-0.377	0.224
-74.524	-75.704	-0.188	-0.066
-73.509	102.495	0.292	0.335
-72.494	498.772	-0.087	-0.198
-71.480	-16.447	0.100	-0.062
-70.465	-200.000	0.030	0.360
-69.451	257.144	0.080	-0.135
-68.436	254.028	-0.050	-0.085
-67.422	13.618	0.267	0.203
-66.407	265.959	0.051	0.087
-65.392	-49.298	-0.058	0.027
-64.378	-122.988	-0.307	0.048
-63.363	224.219	0.077	0.123
-62.349	797.003	-0.050	0.134
-61.334	50.600	-1.120	-1.040
-60.319	800.000	0.181	0.598
-59.305	351.479	-0.268	-0.521
-58.290	680.433	0.453	1.159
-57.276	800.000	0.395	1.627
-56.261	-200.000	107.457	588.563
-55.246	451.720	1472.826	3193.489
-54.232	146.664	2666.827	3516.080
-53.217	100.100	2293.070	2608.701
-52.203	38.870	1904.940	1669.430
-51.188	32.971	1693.623	1439.380
-50.173	30.308	1650.523	1382.889
-49.159	49.207	1702.667	1570.050
-48.144	49.634	1718.232	1587.564
-47.130	32.570	1676.208	1421.331
-46.115	29.869	1661.786	1388.808
-45.100	29.698	1657.087	1383.544
-44.086	29.561	1654.544	1380.341
-43.071	29.627	1651.805	1378.497
-42.057	29.622	1649.224	1376.250
-41.042	29.552	1647.592	1374.316
-40.027	29.717	1645.184	1373.477
-39.013	29.526	1643.764	1370.818
-37.998	29.586	1641.738	1369.521
-36.984	29.658	1640.216	1368.730
-35.969	29.727	1639.201	1368.340
-34.954	29.817	1637.794	1367.777
-33.940	29.787	1635.753	1365.795
-32.925	29.828	1634.068	1364.632
-31.911	29.707	1632.515	1362.390
-30.896	29.701	1630.849	1360.907
-29.881	29.683	1629.012	1359.186
-28.867	29.752	1627.395	1358.290
-27.852	29.754	1625.665	1356.805
-26.838	29.815	1624.401	1356.143
-25.823	29.769	1623.295	1354.829
-24.809	29.877	1621.645	1354.186
-23.794	29.728	1620.310	1351.928
-22.779	29.750	1618.784	1350.767
-21.765	29.685	1617.256	1348.958
-20.750	29.711	1615.523	1347.650
-19.736	29.696	1614.277	1346.448
-18.721	29.765	1612.819	1345.685
-17.706	29.753	1611.143	1344.143
-16.692	29.849	1608.931	1342.940
-15.677	29.752	1608.305	1341.663
-14.663	29.874	1606.885	1341.309
-13.648	29.845	1605.438	1339.841
-12.633	29.728	1604.267	1337.960
-11.619	29.828	1602.287	1336.979
-10.604	29.783	1600.988	1335.520
-9.590	29.825	1599.497	1334.522
-8.575	29.828	1598.435	1333.608
-7.560	29.817	1597.411	1332.617
-6.546	29.801	1596.690	1331.846
-5.531	29.744	1595.320	1330.244
-4.517	29.714	1594.521	1329.306
-3.502	29.792	1592.602	1328.217
-2.487	29.859	1590.941	1327.256
-1.473	29.507	1579.465	1315.124
-0.458	26.629	1559.844	1278.452
0.556	21.207	1561.180	1245.874
1.571	18.898	1585.126	1248.126
2.586	18.509	1598.874	1255.995
3.600	16.985	1545.931	1203.495
4.615	9.582	1435.538	1068.518
5.629	1.929	1370.221	971.209
6.644	0.245	1362.593	955.047
7.659	0.184	1361.032	953.481
8.673	0.138	1360.295	952.589
9.688	-0.007	1358.524	950.344
10.702	-0.092	1354.988	947.254
11.717	3.534	1361.164	974.418
12.731	12.009	1374.210	1037.525
13.746	17.228	1381.272	1075.896
14.761	17.325	1379.933	1075.372
15.775	16.379	1376.891	1066.933
16.790	15.192	1374.728	1057.675
17.804	14.514	1372.656	1051.712
18.819	14.238	1370.937	1048.562
19.834	13.844	1369.890	1045.187
20.848	13.618	1368.346	1042.493
21.863	13.327	1367.206	1039.708
22.877	13.232	1365.906	1038.027
23.892	13.094	1364.977	1036.362
24.907	13.161	1363.978	1035.934
25.921	13.231	1363.123	1035.633
26.936	13.278	1362.093	1035.055
27.950	13.262	1361.154	1034.150
28.965	13.260	1360.388	1033.459
29.980	13.343	1360.168	1033.718
30.994	13.345	1358.767	1032.580
32.009	13.447	1357.896	1032.462
33.023	13.428	1356.654	1031.306
34.038	13.463	1355.276	1030.388
35.053	13.422	1354.032	1029.096
36.067	13.324	1353.337	1027.864
37.082	13.302	1352.670	1027.130
38.096	13.310	1351.738	1026.381
39.111	13.350	1350.646	1025.713
40.126	13.277	1350.341	1024.934
41.140	13.188	1349.310	1023.514
42.155	13.020	1348.700	1021.917
43.169	13.126	1348.513	1022.345
44.184	13.144	1348.295	1022.197
45.199	13.132	1347.830	1021.680
46.213	13.121	1347.605	1021.352
47.228	13.279	1346.261	1021.216
48.242	13.193	1345.100	1019.719
49.257	13.297	1343.593	1019.125
50.271	13.364	1341.699	1018.009
51.286	13.249	1340.764	1016.501
52.301	13.278	1339.514	1015.645
53.315	13.311	1338.441	1014.942
54.330	13.310	1337.362	1014.028
55.344	13.216	1336.203	1012.483
56.359	13.206	1335.023	1011.440
57.374	13.169	1334.525	1010.744
58.388	13.154	1333.681	1009.927
59.403	13.135	1333.304	1009.434
60.417	13.185	1332.178	1008.800
61.432	13.101	1331.183	1007.444
62.447	13.127	1330.199	1006.766
63.461	13.053	1329.164	1005.445
64.476	13.014	1328.158	1004.356
65.490	13.052	1327.310	1003.859
66.505	13.143	1325.587	1003.020
67.520	13.214	1324.032	1002.186
68.534	13.196	1323.178	1001.341
69.549	13.191	1322.334	1000.584
70.563	13.149	1321.347	999.496
71.578	13.147	1319.664	998.119
72.593	12.971	1319.157	996.586
73.607	12.982	1318.630	996.166
74.622	12.962	1317.850	995.370
75.636	12.991	1316.862	994.710
76.651	13.079	1316.348	994.764
77.666	13.015	1315.570	993.698
78.680	13.118	1314.683	993.564
79.695	13.050	1314.150	992.665
80.709	13.215	1312.863	992.592
81.724	13.058	1312.563	991.339
82.739	13.195	1311.479	991.249
83.753	13.207	1310.252	990.309
84.768	13.260	1309.421	989.911
85.782	13.215	1308.447	988.819
86.797	13.307	1307.208	988.345
87.812	13.346	1305.430	987.145
88.826	13.239	1304.954	986.058
89.841	13.287	1303.925	985.478
90.855	13.237	1302.676	984.149
91.870	13.279	1302.202	983.954
92.884	13.257	1301.629	983.302
93.899	13.331	1300.726	982.974
94.914	13.367	1299.891	982.470
95.928	13.390	1299.106	981.925
96.943	13.411	1298.064	981.180
97.957	13.382	1296.841	979.994
98.972	13.255	1295.994	978.518
99.987	13.283	1295.322	978.086
101.001	13.390	1294.023	977.655
102.016	13.342	1292.879	976.421
103.030	13.413	1291.891	976.008
104.045	13.405	1291.172	975.330
105.060	13.333	1289.863	973.830
106.074	13.195	1288.813	972.140
107.089	13.137	1287.633	970.821
108.103	13.171	1285.977	969.685
109.118	13.137	1285.043	968.699
110.133	13.225	1283.856	968.230
111.147	13.176	1282.632	966.937
112.162	13.191	1280.762	965.529
113.176	13.293	1279.452	965.049
114.191	13.253	1278.750	964.206
115.206	13.278	1277.790	963.539
116.220	13.320	1276.252	962.541
117.235	13.300	1275.594	961.842
118.249	13.262	1274.939	961.044
119.264	13.267	1273.590	959.966
120.279	13.163	1272.621	958.553
121.293	13.250	1271.058	957.791
122.308	13.142	1270.367	956.563
123.322	13.176	1269.437	955.974
124.337	13.088	1268.545	954.709
125.352	13.181	1267.214	954.161
126.366	13.184	1265.709	952.956
127.381	13.141	1264.795	951.939
128.395	13.220	1263.670	951.464
129.410	13.198	1263.055	950.787
130.424	13.206	1262.428	950.277
131.439	13.285	1261.114	949.658
132.454	13.261	1260.224	948.765
133.468	13.287	1259.414	948.224
134.483	13.243	1258.474	947.180
135.497	13.272	1257.481	946.515
136.512	13.203	1256.137	945.024
137.527	13.324	1254.782	944.609
138.541	13.259	1253.754	943.382
139.556	13.352	1252.042	942.543
140.570	13.360	1251.273	941.927
141.585	13.388	1250.198	941.192
142.600	13.381	1248.648	939.899
143.614	13.412	1247.881	939.417
144.629	13.367	1247.337	938.671
145.643	13.384	1245.993	937.671
146.658	13.347	1244.538	936.284
147.673	13.334	1242.995	934.965
148.687	13.316	1241.932	933.981
149.702	13.193	1240.697	932.278
150.716	13.247	1239.217	931.390
151.731	13.321	1238.136	930.907
152.746	13.369	1236.453	929.831
153.760	13.377	1235.371	928.979
154.775	13.405	1234.738	928.580
155.789	13.461	1233.693	928.026
156.804	13.552	1232.465	927.530
157.819	13.544	1231.505	926.680
158.833	13.601	1230.752	926.350
159.848	13.511	1230.230	925.372
160.862	13.614	1228.994	924.937
161.877	13.579	1227.651	923.645
162.892	13.536	1226.618	922.548
163.906	13.488	1225.791	921.578
164.921	13.461	1225.057	920.793
165.935	13.557	1224.250	920.639
166.950	13.557	1223.359	919.888
167.964	13.595	1222.664	919.493
168.979	13.501	1222.099	918.467
169.994	13.506	1221.183	917.728
171.008	13.586	1220.402	917.502
172.023	13.572	1219.806	916.892
173.037	13.638	1218.961	916.545
174.052	13.620	1218.076	915.695
175.067	13.583	1217.125	914.694
176.081	13.491	1216.386	913.550
177.096	13.573	1214.572	912.562
178.110	13.699	1213.496	912.367
179.125	13.643	1212.273	911.060
180.140	13.698	1211.180	910.458
181.154	13.515	1210.827	909.109
182.169	13.660	1208.843	908.329
183.183	13.838	1207.685	908.356
184.198	13.792	1206.475	907.115
185.213	13.732	1205.756	906.167
186.227	13.745	1204.776	905.416
187.242	13.803	1203.303	904.548
188.256	13.915	1202.252	904.290
189.271	13.891	1201.502	903.513
190.286	13.812	1200.559	902.294
191.300	13.689	1199.622	900.841
192.315	13.557	1199.264	899.775
193.329	13.702	1198.402	899.839
194.344	13.646	1198.031	899.175
195.359	13.720	1197.285	898.938
196.373	13.805	1196.635	898.831
197.388	13.808	1196.251	898.478
198.402	14.003	1195.813	899.124
199.417	14.068	1194.754	898.600
200.432	14.095	1194.086	898.162
201.446	14.042	1193.117	897.068
202.461	13.953	1192.502	896.045
203.475	14.047	1190.836	895.220
204.490	14.110	1189.492	894.472
205.504	14.185	1188.397	893.975
206.519	14.025	1187.398	892.285
207.534	14.051	1186.460	891.640
208.548	13.964	1185.975	890.727
209.563	14.011	1184.981	890.155
210.577	14.031	1184.048	889.484
211.592	14.109	1183.074	889.091
212.607	14.243	1182.581	889.356
213.621	14.084	1182.029	888.013
214.636	14.125	1180.735	887.184
215.650	14.244	1179.801	887.035
216.665	14.207	1178.647	885.893
217.680	14.234	1178.039	885.501
218.694	14.272	1177.046	884.876
219.709	14.238	1176.265	884.034
220.723	14.308	1175.509	883.758
221.738	14.199	1174.878	882.627
222.753	14.396	1173.821	882.798
223.767	14.351	1173.346	882.126
224.782	14.395	1173.227	882.192
225.796	14.368	1172.550	881.458
226.811	14.468	1171.534	881.147
227.826	14.372	1170.778	879.994
228.840	14.335	1170.069	879.184
229.855	14.433	1168.889	878.739
230.869	14.333	1168.397	877.767
231.884	14.416	1167.283	877.288
232.899	14.333	1167.160	876.681
233.913	14.265	1166.294	875.595
234.928	14.320	1165.697	875.356
235.942	14.345	1164.512	874.520
236.957	14.276	1164.045	873.731
237.972	14.437	1163.090	873.783
238.986	14.319	1162.858	872.910
240.001	14.395	1162.131	872.688
241.015	14.410	1161.267	872.040
242.030	14.496	1160.324	871.706
243.045	14.473	1159.656	871.002
244.059	14.351	1159.312	870.029
245.074	14.616	1157.822	870.216
246.088	14.534	1156.880	869.008
247.103	14.629	1156.369	869.041
248.117	14.506	1155.832	867.922
249.132	14.648	1155.098	868.028
250.147	14.759	1154.056	867.745
251.161	14.698	1153.524	866.953
252.176	14.770	1152.971	866.833
253.190	14.860	1151.877	866.403
254.205	14.758	1151.871	865.790
255.220	14.915	1151.149	865.984
256.234	14.977	1149.613	865.077
257.249	14.876	1149.686	864.532
258.263	14.965	1149.278	864.607
259.278	14.879	1148.147	863.237
260.293	14.934	1148.080	863.392
261.307	14.984	1147.199	862.910
262.322	15.038	1146.600	862.664
263.336	15.063	1146.030	862.286
264.351	15.139	1145.223	861.996
265.366	15.140	1144.629	861.478
266.380	14.937	1144.112	859.966
267.395	15.021	1143.428	859.811
268.409	14.952	1142.661	858.802
269.424	15.086	1141.921	858.855
270.439	15.026	1141.105	857.859
271.453	15.131	1140.680	858.005
272.468	15.049	1139.743	856.799
273.482	14.921	1139.159	855.634
274.497	15.011	1138.508	855.529
275.512	15.129	1137.405	855.224
276.526	15.077	1137.027	854.601
277.541	15.178	1135.931	854.217
278.555	15.067	1135.602	853.329
279.570	15.072	1135.038	852.852
280.585	15.260	1133.862	852.852
281.599	15.263	1132.977	852.127
282.614	15.270	1132.061	851.394
283.628	15.267	1130.870	850.409
284.643	15.379	1129.731	850.044
285.657	15.219	1129.496	848.983
286.672	15.243	1128.354	848.173
287.687	15.251	1127.706	847.651
288.701	15.310	1126.621	847.058
289.716	15.426	1126.172	847.230
290.730	15.396	1125.319	846.364
291.745	15.360	1124.829	845.739
292.760	15.290	1124.357	844.954
293.774	15.418	1123.670	845.010
294.789	15.431	1122.891	844.411
295.803	15.513	1122.272	844.287
296.818	15.433	1121.863	843.502
297.833	15.394	1120.859	842.477
298.847	15.419	1120.283	842.091
299.862	15.408	1119.287	841.214
300.876	15.497	1118.410	840.929
301.891	15.454	1118.152	840.443
302.906	15.559	1117.086	840.093
303.920	15.601	1116.833	840.038
304.935	15.531	1116.502	839.367
305.949	15.625	1115.615	839.095
306.964	15.688	1114.528	838.518
307.979	15.668	1113.612	837.655
308.993	15.688	1113.310	837.452
310.008	15.701	1112.314	836.693
311.022	15.725	1111.250	835.935
312.037	15.742	1110.517	835.399
313.052	15.701	1110.103	834.810
314.066	15.602	1109.185	833.555
315.081	15.731	1108.048	833.263
316.095	15.622	1107.763	832.437
317.110	15.807	1106.599	832.400
318.125	15.765	1105.708	831.451
319.139	15.641	1105.342	830.489
320.154	15.564	1104.862	829.674
321.168	15.704	1104.154	829.759
322.183	15.814	1103.386	829.652
323.197	15.735	1103.195	829.046
324.212	15.695	1102.121	827.971
325.227	15.765	1101.596	827.847
326.241	15.815	1101.082	827.630
327.256	15.825	1100.525	827.187
328.270	15.742	1099.380	825.847
329.285	15.792	1098.162	825.104
330.300	15.883	1097.329	824.850
331.314	15.860	1096.600	824.118
332.329	15.789	1095.994	823.243
333.343	15.892	1094.722	822.720
334.358	15.840	1094.357	822.116
335.373	15.965	1093.552	822.049
336.387	15.920	1092.504	820.968
337.402	15.890	1091.905	820.299
338.416	16.034	1091.300	820.475
339.431	15.993	1090.832	819.853
340.446	16.006	1090.242	819.400
341.460	16.121	1089.304	819.180
342.475	16.221	1088.213	818.771
343.489	16.127	1087.699	817.858
344.504	16.120	1086.593	816.917
345.519	16.273	1085.737	816.945
346.533	16.375	1085.099	816.882
347.548	16.218	1084.271	815.431
348.562	16.281	1083.857	815.349
349.577	16.213	1082.801	814.155
350.592	16.148	1082.393	813.462
351.606	16.183	1081.330	812.762
352.621	16.201	1080.530	812.176
353.635	16.163	1080.021	811.537
354.650	16.271	1079.168	811.342
355.665	16.135	1079.289	810.709
356.679	16.219	1078.073	810.129
357.694	16.296	1077.486	809.983
358.708	16.454	1076.627	810.025
359.723	16.386	1075.893	809.076
360.738	16.323	1075.917	808.719
361.752	16.370	1075.182	808.321
362.767	16.295	1074.527	807.397
363.781	16.376	1073.746	807.124
364.796	16.403	1073.496	806.995
365.810	16.475	1072.863	806.791
366.825	16.440	1072.447	806.244
367.840	16.561	1071.707	806.192
368.854	16.579	1071.033	805.699
369.869	16.660	1070.235	805.411
370.883	16.538	1069.301	804.056
371.898	16.648	1068.583	803.971
372.913	16.596	1067.984	803.201
373.927	16.656	1067.362	802.948
374.942	16.715	1066.927	802.830
375.956	16.542	1066.643	801.721
376.971	16.675	1065.984	801.785
377.986	16.784	1065.250	801.679
379.000	16.768	1064.830	801.217
380.015	16.775	1064.414	800.864
381.029	16.815	1063.381	800.205
382.044	16.810	1062.816	799.689
383.059	16.872	1062.081	799.355
384.073	16.794	1061.557	798.521
385.088	16.808	1060.597	797.796
386.102	16.778	1059.626	796.853
387.117	16.822	1058.740	796.323
388.132	16.860	1057.729	795.672
389.146	16.817	1056.770	794.679
390.161	16.728	1056.560	794.031
391.175	16.782	1055.613	793.506
392.190	16.877	1055.032	793.443
393.205	16.897	1054.577	793.123
394.219	17.009	1053.450	792.727
395.234	16.953	1052.593	791.750
396.248	16.938	1051.257	790.607
397.263	16.854	1050.597	789.648
398.278	16.856	1049.860	789.036
399.292	16.900	1049.118	788.611
400.307	17.000	1048.408	788.474
401.321	16.868	1047.854	787.372
402.336	16.884	1047.533	787.138
403.350	16.854	1046.903	786.454
404.365	16.991	1045.895	786.264
405.380	16.964	1045.337	785.647
406.394	16.935	1044.725	784.983
407.409	17.010	1043.985	784.708
408.423	17.141	1042.942	784.456
409.438	17.177	1042.366	784.124
410.453	17.139	1041.825	783.468
411.467	17.191	1040.997	783.018
412.482	17.290	1040.596	783.104
413.496	17.287	1039.752	782.387
414.511	17.299	1039.124	781.895
415.526	17.391	1038.493	781.776
416.540	17.352	1038.114	781.244
417.555	17.385	1037.451	780.828
418.569	17.416	1037.386	780.851
419.584	17.335	1037.081	780.183
420.599	17.367	1036.336	779.698
421.613	102.999	1322.872	1468.179
422.628	94.390	1364.578	1468.257
