DTS Sentinel unit serial number:	SN413079Multiplexer serial number:	ORYXHardware model number:	OX4-SRSoftware version number:	ORYX F/W v4.00 Oryx Data Collector v3.7.2.0data status	okinstallation	princeton_trtdifferential loss correction	single-endedforward channel	channel 2reverse channel	N/Adate	2019/09/12time	21:23:34forward acquisition time	60.00reverse acquisition time	0.00gamma	496.2192k internal	0.2328k external	0.2328temperature offset calibration	1.0163default loss term (dB/km)	0.3790temperature slope calibration	1.0000multiplexer offset coefficient	1.0000multiplexer slope coefficient	1.0000fibre end	0.00T internal ref (°C)	30.50T ext. ref 1 (°C)	3.61T ext. ref 2 (°C)	25.17length (m)	temperature (°C)	Stokes	anti-Stokes-747.200	-200.000	-0.014	0.109
-746.185	156.901	-0.040	-0.055
-745.171	311.837	-0.113	-0.213
-744.156	51.317	0.126	0.120
-743.142	-200.000	0.041	-0.211
-742.127	-48.391	0.330	0.160
-741.112	54.594	-0.053	-0.051
-740.098	60.133	-0.096	-0.096
-739.083	759.303	0.063	0.172
-738.069	215.937	-0.110	0.176
-737.054	-200.000	0.012	0.174
-736.039	-200.000	-0.045	-0.248
-735.025	-58.510	-0.117	0.051
-734.010	800.000	-0.044	-0.168
-732.996	162.494	-0.075	-0.106
-731.981	-200.000	-0.045	-0.270
-730.966	-106.697	-0.165	0.037
-729.952	-146.730	-0.097	0.008
-728.937	111.068	0.137	-0.167
-727.923	-72.231	-0.242	-0.090
-726.908	230.218	0.165	-0.271
-725.894	264.284	-0.087	-0.152
-724.879	-200.000	0.004	0.230
-723.864	-200.000	0.001	-0.092
-722.850	-107.887	-0.348	0.076
-721.835	-100.567	-0.138	-0.034
-720.821	211.954	0.171	-0.272
-719.806	800.000	-0.080	-0.307
-718.791	800.000	-0.041	0.120
-717.777	-200.000	-0.026	0.171
-716.762	296.869	-0.066	-0.122
-715.748	-200.000	0.022	-0.118
-714.733	800.000	-0.112	-0.336
-713.718	-2.472	-0.345	-0.243
-712.704	-116.093	-0.113	-0.021
-711.689	7.713	-0.254	0.192
-710.675	119.691	-0.152	-0.189
-709.660	-200.000	0.015	0.089
-708.645	-39.942	-0.083	0.043
-707.631	790.963	0.037	-0.102
-706.616	-38.032	0.137	0.073
-705.602	204.293	0.211	-0.330
-704.587	-143.541	-0.192	0.018
-703.572	437.868	-0.157	-0.344
-702.558	6.633	-0.359	-0.269
-701.543	-127.887	-0.175	0.025
-700.529	94.692	-0.169	0.193
-699.514	-200.000	0.081	-0.386
-698.499	-200.000	-0.045	-0.260
-697.485	30.182	0.189	-0.162
-696.470	14.553	0.142	-0.111
-695.456	-106.890	-0.273	0.061
-694.441	54.725	0.054	0.053
-693.426	-200.000	0.014	-0.241
-692.412	-31.962	-0.195	0.110
-691.397	-173.903	-0.050	0.001
-690.383	75.818	-0.251	-0.267
-689.368	140.305	-0.178	-0.237
-688.354	9.400	0.128	0.097
-687.339	701.398	-0.007	0.017
-686.324	-52.821	-0.061	0.028
-685.310	125.226	0.103	0.130
-684.295	800.000	-0.095	-0.282
-683.281	-85.141	0.198	-0.062
-682.266	-200.000	-0.051	-0.267
-681.251	30.565	-0.019	0.016
-680.237	-200.000	0.027	-0.360
-679.222	53.872	0.111	0.107
-678.208	-200.000	-0.061	-0.282
-677.193	-73.518	-0.115	-0.042
-676.178	125.167	0.138	-0.175
-675.164	-200.000	-0.013	0.193
-674.149	73.019	0.069	-0.072
-673.135	63.453	-0.168	0.170
-672.120	800.000	0.046	0.179
-671.105	55.260	-0.081	-0.079
-670.091	-149.555	-0.083	0.007
-669.076	800.000	0.067	0.258
-668.062	-200.000	0.004	0.162
-667.047	-200.000	0.028	-0.264
-666.032	-111.928	0.115	-0.023
-665.018	-44.354	-0.008	0.004
-664.003	-79.192	0.052	0.018
-662.989	-69.953	-0.301	0.115
-661.974	69.208	-0.152	-0.157
-660.959	344.286	-0.096	-0.188
-659.945	68.208	-0.164	0.169
-658.930	-200.000	0.046	0.244
-657.916	32.610	-0.020	0.017
-656.901	-200.000	0.006	-0.192
-655.886	25.942	-0.112	-0.094
-654.872	483.209	0.091	0.207
-653.857	65.778	-0.173	0.176
-652.843	33.755	-0.194	-0.170
-651.828	96.847	-0.150	-0.173
-650.814	-67.440	0.305	-0.120
-649.799	-7.738	-0.116	-0.079
-648.784	-28.631	-0.108	-0.062
-647.770	212.660	-0.031	0.050
-646.755	-115.187	-0.033	0.006
-645.741	-83.615	-0.281	-0.090
-644.726	800.000	0.040	0.132
-643.711	-30.807	-0.173	0.098
-642.697	-35.163	0.169	-0.093
-641.682	-114.377	-0.099	-0.019
-640.668	-4.909	-0.115	-0.080
-639.653	-154.766	-0.293	0.019
-638.638	-200.000	-0.025	-0.400
-637.624	138.296	-0.259	-0.342
-636.609	800.000	0.039	0.124
-635.595	51.884	-0.103	-0.099
-634.580	401.026	-0.165	0.347
-633.565	208.944	0.252	0.396
-632.551	-200.000	-0.034	0.299
-631.536	800.000	-0.046	0.168
-630.522	9.773	0.193	0.147
-629.507	320.888	-0.084	-0.160
-628.492	71.891	-0.312	-0.326
-627.478	308.548	0.082	-0.153
-626.463	93.338	-0.059	0.067
-625.449	321.229	-0.059	-0.112
-624.434	-144.476	0.258	0.024
-623.419	-200.000	0.007	-0.087
-622.405	-122.385	0.267	-0.044
-621.390	32.772	0.157	0.136
-620.376	682.524	0.108	0.283
-619.361	-176.425	-0.386	-0.010
-618.346	291.434	0.090	0.164
-617.332	504.529	0.148	0.345
-616.317	112.683	0.247	-0.300
-615.303	-200.000	-0.023	0.223
-614.288	-107.838	0.186	0.041
-613.273	197.109	-0.197	-0.301
-612.259	282.316	0.013	-0.024
-611.244	-200.000	0.066	-0.301
-610.230	-200.000	0.045	-0.385
-609.215	-120.262	-0.331	-0.057
-608.201	61.560	-0.196	-0.195
-607.186	-200.000	0.013	-0.120
-606.171	134.749	0.102	0.132
-605.157	-55.075	-0.119	-0.054
-604.142	-57.088	-0.178	-0.078
-603.128	136.561	0.190	0.248
-602.113	800.000	-0.040	-0.169
-601.098	-88.805	-0.437	0.130
-600.084	-25.074	-0.037	-0.022
-599.069	239.407	0.090	0.150
-598.055	-52.715	-0.349	-0.161
-597.040	-7.239	-0.357	-0.242
-596.025	-18.609	-0.146	-0.091
-595.011	62.057	0.294	0.294
-593.996	5.653	0.325	0.241
-592.982	-200.000	0.026	-0.360
-591.967	-55.879	-0.369	0.165
-590.952	-5.654	-0.317	0.218
-589.938	-200.000	0.009	-0.104
-588.923	376.512	0.079	0.161
-587.909	267.312	-0.234	0.410
-586.894	-26.789	0.103	0.060
-585.879	212.703	0.211	0.333
-584.865	800.000	-0.094	-0.293
-583.850	10.033	-0.230	0.175
-582.836	-136.125	-0.221	-0.026
-581.821	-48.261	-0.327	0.158
-580.806	346.587	-0.158	-0.312
-579.792	-127.240	-0.055	-0.008
-578.777	-200.000	0.006	-0.355
-577.763	800.000	-0.097	0.295
-576.748	661.325	-0.044	-0.114
-575.733	-200.000	-0.038	-0.248
-574.719	-154.074	-0.077	0.005
-573.704	761.139	-0.163	0.443
-572.690	-136.873	0.115	0.013
-571.675	-103.042	-0.146	-0.035
-570.661	-3.664	-0.266	0.185
-569.646	-200.000	-0.063	0.315
-568.631	632.730	-0.032	-0.082
-567.617	33.568	0.098	-0.086
-566.602	259.452	0.015	0.026
-565.588	-200.000	-0.006	-0.275
-564.573	181.087	0.075	-0.110
-563.558	-5.928	0.349	-0.239
-562.544	-9.403	-0.081	-0.054
-561.529	-112.961	-0.363	0.072
-560.515	-47.181	-0.058	-0.028
-559.500	-94.311	-0.229	-0.063
-558.485	-96.232	-0.108	-0.029
-557.471	-103.785	-0.002	0.000
-556.456	800.000	0.017	0.063
-555.442	-200.000	0.010	0.144
-554.427	-159.110	-0.141	-0.008
-553.412	299.768	-0.143	-0.264
-552.398	327.895	0.171	-0.329
-551.383	-179.795	-0.173	-0.004
-550.369	46.200	0.372	0.344
-549.354	-75.806	0.120	0.042
-548.339	-107.353	0.231	0.051
-547.325	-3.471	-0.117	-0.081
-546.310	-42.365	-0.376	-0.192
-545.296	-52.079	-0.028	0.013
-544.281	-0.045	0.286	0.204
-543.266	17.874	-0.223	0.178
-542.252	225.665	0.209	0.338
-541.237	-49.316	0.237	0.113
-540.223	547.940	0.040	-0.096
-539.208	-94.413	-0.143	0.039
-538.193	-200.000	-0.003	0.021
-537.179	330.531	0.045	-0.088
-536.164	-191.471	-0.330	0.003
-535.150	715.930	0.056	-0.148
-534.135	-93.181	0.289	0.080
-533.121	259.287	0.191	-0.330
-532.106	146.998	0.032	0.043
-531.091	-167.403	0.189	-0.008
-530.077	646.086	0.093	0.236
-529.062	-120.748	-0.279	-0.047
-528.048	276.078	0.124	0.220
-527.033	-57.324	-0.126	0.055
-526.018	47.424	-0.301	0.280
-525.004	61.311	-0.098	0.097
-523.989	-123.051	-0.343	0.055
-522.975	800.000	-0.067	-0.205
-521.960	-200.000	-0.004	0.362
-520.945	-0.032	-0.237	0.168
-519.931	-101.880	0.099	0.024
-518.916	414.011	-0.023	0.050
-517.902	-96.100	0.065	-0.017
-516.887	-21.326	0.326	-0.199
-515.872	-103.126	0.250	0.059
-514.858	153.438	0.061	-0.084
-513.843	-143.610	0.421	0.040
-512.829	-105.649	-0.494	0.112
-511.814	-48.441	-0.200	-0.096
-510.799	-85.815	-0.111	-0.034
-509.785	800.000	-0.119	-0.333
-508.770	-65.600	0.088	0.035
-507.756	800.000	0.120	-0.342
-506.741	800.000	0.095	0.370
-505.726	-200.000	0.014	0.110
-504.712	81.371	-0.173	0.187
-503.697	800.000	0.030	0.104
-502.683	-53.358	-0.120	0.055
-501.668	-32.341	-0.286	-0.159
-500.653	-200.000	-0.026	0.241
-499.639	-25.898	-0.135	-0.079
-498.624	-1.255	0.126	-0.089
-497.610	-94.213	0.024	-0.007
-496.595	-200.000	0.005	-0.159
-495.581	-42.463	0.267	-0.136
-494.566	-113.852	0.161	-0.031
-493.551	790.767	0.054	0.149
-492.537	243.784	0.063	-0.106
-491.522	-200.000	0.047	-0.244
-490.508	-37.412	0.083	-0.044
-489.493	156.791	0.172	-0.237
-488.478	37.286	-0.071	0.063
-487.464	4.566	0.306	-0.224
-486.449	197.199	-0.236	-0.359
-485.435	-163.167	-0.302	-0.014
-484.420	494.829	-0.008	0.019
-483.405	585.637	-0.059	-0.144
-482.391	125.570	-0.087	-0.110
-481.376	-200.000	0.009	-0.098
-480.362	-200.000	-0.002	-0.094
-479.347	-148.044	0.080	0.007
-478.332	341.725	0.041	0.081
-477.318	321.381	-0.227	0.431
-476.303	-3.898	-0.135	-0.093
-475.289	800.000	-0.031	0.128
-474.274	753.713	-0.064	0.171
-473.259	185.812	-0.124	-0.184
-472.245	-200.000	0.009	0.082
-471.230	-14.998	0.119	0.076
-470.216	20.426	-0.198	0.159
-469.201	36.241	0.112	-0.098
-468.186	-102.486	-0.257	-0.061
-467.172	-122.770	-0.190	0.031
-466.157	25.598	-0.167	-0.138
-465.143	-200.000	0.040	-0.176
-464.128	-12.890	0.200	-0.130
-463.113	39.906	0.233	0.209
-462.099	-200.000	-0.040	-0.320
-461.084	31.676	0.152	-0.130
-460.070	-40.467	0.225	0.116
-459.055	-148.293	-0.306	-0.025
-458.040	414.378	-0.074	0.157
-457.026	800.000	-0.043	-0.151
-456.011	-192.886	0.295	0.003
-454.997	35.161	0.209	-0.182
-453.982	-200.000	-0.025	-0.416
-452.968	373.077	0.075	-0.152
-451.953	169.063	0.078	-0.110
-450.938	-200.000	0.026	0.177
-449.924	800.000	0.005	-0.020
-448.909	-127.636	-0.180	-0.026
-447.895	235.665	0.130	-0.214
-446.880	-200.000	-0.015	-0.200
-445.865	-200.000	-0.016	-0.094
-444.851	-121.420	0.026	0.004
-443.836	330.791	-0.095	-0.183
-442.822	-140.024	0.220	0.023
-441.807	-86.560	-0.123	-0.038
-440.792	-26.003	0.053	-0.031
-439.778	-38.851	-0.451	0.237
-438.763	-22.508	0.174	-0.105
-437.749	-144.563	-0.082	0.008
-436.734	-1.921	0.254	-0.178
-435.719	800.000	0.061	-0.249
-434.705	199.928	0.082	-0.125
-433.690	3.662	0.118	-0.086
-432.676	-200.000	-0.004	-0.062
-431.661	-200.000	0.035	-0.164
-430.646	6.182	-0.210	0.155
-429.632	-30.787	0.247	0.139
-428.617	800.000	-0.069	0.263
-427.603	118.960	-0.072	0.088
-426.588	-87.182	0.193	-0.059
-425.573	-51.051	0.246	0.115
-424.559	21.393	0.145	0.117
-423.544	378.348	0.119	0.243
-422.530	-167.560	0.114	-0.005
-421.515	-11.283	-0.147	0.097
-420.500	800.000	0.030	0.092
-419.486	318.968	0.095	0.179
-418.471	143.537	0.094	-0.124
-417.457	-2.480	0.104	-0.073
-416.442	633.188	-0.196	0.495
-415.428	202.303	-0.113	-0.173
-414.413	-200.000	-0.014	-0.345
-413.398	-200.000	-0.037	-0.162
-412.384	-130.954	0.106	0.014
-411.369	800.000	0.143	-0.427
-410.355	800.000	-0.084	0.248
-409.340	-8.008	0.028	-0.019
-408.325	5.248	-0.081	0.059
-407.311	800.000	-0.053	-0.162
-406.296	115.945	0.154	-0.188
-405.282	742.418	-0.018	0.049
-404.267	-200.000	-0.000	-0.260
-403.252	-200.000	0.007	0.055
-402.238	25.766	0.205	-0.170
-401.223	-75.363	-0.139	-0.049
-400.209	-81.776	0.120	0.039
-399.194	0.743	-0.270	0.192
-398.179	-0.982	0.411	-0.289
-397.165	240.650	-0.111	-0.184
-396.150	23.829	-0.097	-0.079
-395.136	-121.980	-0.124	0.020
-394.121	165.818	-0.095	0.134
-393.106	-200.000	0.070	-0.406
-392.092	357.618	0.177	-0.351
-391.077	-48.419	0.148	0.071
-390.063	-125.164	-0.092	0.014
-389.048	-155.021	0.250	-0.016
-388.033	-200.000	0.033	0.437
-387.019	402.410	-0.085	-0.177
-386.004	-17.224	0.385	0.241
-384.990	-104.764	0.193	-0.044
-383.975	800.000	-0.025	-0.076
-382.960	-200.000	-0.003	-0.063
-381.946	-200.000	0.016	0.119
-380.931	-133.418	0.186	0.023
-379.917	793.314	0.085	0.234
-378.902	-200.000	-0.002	-0.032
-377.888	47.256	-0.046	-0.042
-376.873	-94.971	0.411	0.110
-375.858	4.994	0.018	0.013
-374.844	-61.939	0.198	0.082
-373.829	-108.453	-0.161	-0.034
-372.815	-83.139	-0.038	0.012
-371.800	521.560	0.035	0.082
-370.785	-95.634	-0.151	-0.040
-369.771	492.230	-0.157	0.356
-368.756	-115.587	-0.047	-0.009
-367.742	-200.000	0.042	-0.259
-366.727	-200.000	0.075	0.365
-365.712	-30.336	-0.208	-0.117
-364.698	774.867	-0.089	-0.242
-363.683	-24.829	-0.245	-0.144
-362.669	129.559	0.106	-0.135
-361.654	-200.000	0.006	-0.102
-360.639	-89.093	-0.056	0.016
-359.625	800.000	0.118	0.377
-358.610	136.164	0.132	0.171
-357.596	-1.245	-0.128	0.090
-356.581	-101.129	0.123	-0.030
-355.566	43.069	-0.121	0.110
-354.552	154.987	-0.194	-0.264
-353.537	-90.389	0.231	-0.067
-352.523	156.156	0.216	-0.295
-351.508	-172.902	-0.074	0.002
-350.493	-132.436	-0.334	0.043
-349.479	284.112	-0.231	-0.413
-348.464	7.868	-0.219	0.163
-347.450	-200.000	0.010	-0.193
-346.435	603.938	-0.047	-0.116
-345.420	-200.000	-0.019	-0.128
-344.406	378.164	0.061	0.123
-343.391	-188.879	0.069	-0.001
-342.377	235.223	-0.094	0.154
-341.362	411.254	-0.082	0.172
-340.348	-175.221	-0.244	-0.007
-339.333	104.775	-0.146	0.171
-338.318	-30.955	0.403	0.226
-337.304	-200.000	-0.032	0.343
-336.289	-147.214	0.167	0.014
-335.275	101.586	0.071	0.083
-334.260	478.257	0.150	0.337
-333.245	183.958	0.150	-0.220
-332.231	-200.000	0.009	0.065
-331.216	129.413	-0.111	-0.140
-330.202	-200.000	0.027	-0.241
-329.187	-33.208	-0.172	0.094
-328.172	134.176	-0.279	0.359
-327.158	-130.133	0.132	0.018
-326.143	-200.000	0.033	0.295
-325.129	-40.977	-0.250	0.128
-324.114	-21.555	0.110	0.066
-323.099	252.860	0.113	0.191
-322.085	-53.121	0.417	0.190
-321.070	449.228	-0.191	0.418
-320.056	-200.000	-0.048	0.285
-319.041	420.357	-0.079	-0.169
-318.026	64.798	-0.363	-0.363
-317.012	800.000	-0.030	0.127
-315.997	-38.815	0.173	-0.091
-314.983	-200.000	-0.033	-0.410
-313.968	-52.337	-0.119	0.054
-312.953	282.568	-0.184	0.328
-311.939	690.410	0.169	0.438
-310.924	224.257	-0.035	-0.056
-309.910	800.000	0.090	0.256
-308.895	800.000	0.050	0.190
-307.880	-133.252	0.267	-0.033
-306.866	-2.784	0.127	0.088
-305.851	-198.335	-0.050	0.000
-304.837	-161.933	-0.244	-0.012
-303.822	43.771	0.133	-0.120
-302.807	196.781	-0.095	0.143
-301.793	153.952	0.091	-0.123
-300.778	169.279	0.058	-0.082
-299.764	276.524	-0.157	-0.276
-298.749	-200.000	0.015	-0.126
-297.735	-68.161	-0.164	-0.063
-296.720	-200.000	0.018	0.122
-295.705	509.418	-0.048	0.111
-294.691	-10.437	-0.084	-0.055
-293.676	264.570	0.064	0.110
-292.662	-175.161	-0.202	0.006
-291.647	134.713	-0.090	-0.116
-290.632	65.626	-0.102	-0.102
-289.618	-29.342	0.078	0.044
-288.603	-200.000	-0.040	0.323
-287.589	113.914	-0.208	0.250
-286.574	78.805	-0.231	-0.244
-285.559	296.170	0.093	0.168
-284.545	88.043	-0.077	-0.085
-283.530	49.313	0.106	-0.099
-282.516	800.000	-0.019	0.073
-281.501	59.395	-0.272	-0.266
-280.486	-185.577	0.004	0.000
-279.472	-156.247	-0.248	-0.015
-278.457	-4.872	0.159	0.109
-277.443	-91.848	0.154	-0.043
-276.428	53.981	-0.077	0.073
-275.413	-45.337	0.145	0.071
-274.399	6.288	0.344	-0.253
-273.384	147.191	0.081	0.108
-272.370	652.033	0.051	0.129
-271.355	-127.106	-0.177	-0.026
-270.340	129.210	0.064	0.081
-269.326	321.579	-0.095	-0.180
-268.311	-179.659	-0.142	-0.003
-267.297	-200.000	0.047	0.457
-266.282	800.000	-0.086	-0.364
-265.267	-24.428	0.308	0.182
-264.253	132.582	-0.162	-0.207
-263.238	80.598	-0.267	0.285
-262.224	-93.533	0.410	-0.112
-261.209	-178.948	0.099	0.002
-260.195	-178.328	-0.099	0.002
-259.180	-200.000	-0.002	-0.037
-258.165	98.699	0.082	-0.094
-257.151	17.073	-0.241	-0.189
-256.136	-98.186	0.409	0.104
-255.122	45.101	-0.111	-0.101
-254.107	-4.815	-0.205	-0.140
-253.092	-200.000	-0.006	0.049
-252.078	-125.685	-0.136	0.020
-251.063	-59.970	-0.210	0.089
-250.049	-200.000	-0.008	0.170
-249.034	-100.525	-0.256	-0.063
-248.019	148.294	-0.122	0.163
-247.005	140.475	0.308	-0.402
-245.990	601.120	0.159	0.391
-244.976	17.846	0.318	-0.250
-243.961	57.145	-0.170	0.164
-242.946	-200.000	0.004	-0.081
-241.932	-163.927	-0.362	0.017
-240.917	-200.000	0.037	-0.380
-239.903	-119.574	0.287	-0.049
-238.888	-200.000	0.029	-0.179
-237.873	55.143	-0.122	-0.117
-236.859	21.864	0.168	-0.135
-235.844	-74.815	-0.167	-0.059
-234.830	-37.620	-0.226	-0.119
-233.815	467.332	0.048	-0.107
-232.800	281.650	0.081	-0.143
-231.786	-119.338	0.228	0.039
-230.771	-119.378	0.078	-0.013
-229.757	114.382	-0.167	0.201
-228.742	-200.000	-0.022	-0.254
-227.727	800.000	0.089	-0.366
-226.713	3.710	-0.126	0.091
-225.698	73.408	0.186	0.192
-224.684	150.637	0.178	-0.239
-223.669	800.000	0.039	-0.147
-222.655	150.410	0.165	0.221
-221.640	-164.562	0.300	-0.013
-220.625	800.000	0.031	-0.110
-219.611	800.000	-0.089	0.277
-218.596	357.797	0.125	0.246
-217.582	-42.422	0.281	0.142
-216.567	774.271	-0.104	0.281
-215.552	308.607	-0.078	-0.145
-214.538	-83.399	-0.180	-0.057
-213.523	135.832	0.073	0.094
-212.509	62.204	0.123	0.121
-211.494	-187.857	0.247	0.003
-210.479	-123.293	0.138	-0.022
-209.465	-33.230	0.308	-0.169
-208.450	64.818	-0.129	-0.129
-207.436	-87.030	0.147	0.044
-206.421	73.835	0.220	0.228
-205.406	13.220	0.084	0.064
-204.392	-85.508	0.212	-0.065
-203.377	-45.818	0.331	0.162
-202.363	344.157	-0.096	0.186
-201.348	157.199	-0.024	-0.032
-200.333	319.146	-0.034	0.064
-199.319	-152.644	-0.254	0.018
-198.304	222.745	0.145	0.231
-197.290	-200.000	0.030	0.236
-196.275	-200.000	0.005	0.233
-195.260	-107.598	-0.096	0.021
-194.246	-135.153	-0.223	0.026
-193.231	-200.000	0.004	0.256
-192.217	-103.756	0.123	-0.028
-191.202	293.036	-0.066	0.119
-190.187	106.629	0.138	-0.161
-189.173	-48.786	-0.467	-0.221
-188.158	28.906	-0.268	0.224
-187.144	-74.431	0.271	-0.096
-186.129	-200.000	-0.020	0.089
-185.114	-71.604	0.153	-0.056
-184.100	-75.092	0.025	-0.009
-183.085	302.958	0.124	0.227
-182.071	417.889	0.088	-0.185
-181.056	38.561	0.129	0.113
-180.042	-8.505	-0.219	-0.145
-179.027	278.944	-0.110	-0.193
-178.012	-67.421	-0.140	-0.054
-176.998	800.000	-0.056	0.240
-175.983	-145.741	0.641	-0.056
-174.969	97.639	0.099	-0.112
-173.954	800.000	0.076	0.227
-172.939	-1.809	-0.157	-0.109
-171.925	-31.172	0.344	-0.191
-170.910	-43.560	0.427	0.212
-169.896	33.783	0.212	-0.182
-168.881	-87.938	0.119	0.035
-167.866	266.786	0.120	0.206
-166.852	800.000	-0.038	-0.162
-165.837	-100.614	0.084	-0.020
-164.823	322.645	-0.138	-0.260
-163.808	-130.002	-0.060	0.008
-162.793	-200.000	-0.021	-0.390
-161.779	-30.889	0.093	0.052
-160.764	139.151	0.123	0.159
-159.750	-200.000	-0.063	0.317
-158.735	-200.000	-0.006	0.027
-157.720	-26.847	-0.243	0.140
-156.706	9.421	0.188	-0.140
-155.691	291.535	0.091	-0.162
-154.677	503.821	0.044	-0.101
-153.662	32.180	0.112	0.095
-152.647	118.910	0.096	0.117
-151.633	-97.142	0.195	-0.050
-150.618	800.000	-0.016	0.063
-149.604	418.445	0.072	0.151
-148.589	-162.577	-0.059	0.003
-147.574	-15.050	0.280	0.177
-146.560	-78.725	0.232	0.078
-145.545	71.890	-0.219	0.225
-144.531	5.926	0.204	-0.149
-143.516	-182.290	-0.154	-0.003
-142.502	-68.996	-0.190	0.072
-141.487	118.127	0.166	0.201
-140.472	2.195	-0.162	-0.115
-139.458	128.120	0.073	0.092
-138.443	214.342	0.248	0.386
-137.429	37.124	0.058	-0.051
-136.414	126.954	-0.095	-0.119
-135.399	122.547	0.173	0.213
-134.385	-123.153	0.310	0.049
-133.370	-86.003	0.133	-0.040
-132.356	-200.000	0.023	0.142
-131.341	-153.276	0.322	0.022
-130.326	-108.588	-0.165	-0.035
-129.312	-20.275	0.068	0.041
-128.297	-135.300	-0.164	0.019
-127.283	-112.630	0.361	-0.071
-126.268	2.793	-0.347	0.248
-125.253	-84.933	-0.352	-0.109
-124.239	-169.439	-0.179	0.006
-123.224	-15.089	0.298	-0.188
-122.210	102.118	-0.247	-0.284
-121.195	56.154	-0.147	-0.140
-120.180	86.732	0.066	0.072
-119.166	75.653	-0.174	-0.180
-118.151	-72.291	0.065	0.024
-117.137	624.123	-0.164	-0.406
-116.122	-140.432	0.245	-0.025
-115.107	-38.313	0.194	0.101
-114.093	114.073	0.097	0.116
-113.078	191.913	-0.082	0.122
-112.064	327.771	-0.115	0.217
-111.049	15.154	0.212	0.164
-110.034	-200.000	0.004	0.167
-109.020	-0.551	-0.220	-0.153
-108.005	-71.319	-0.112	0.041
-106.991	46.089	-0.097	0.088
-105.976	-200.000	-0.006	-0.090
-104.962	601.666	-0.083	0.204
-103.947	94.591	-0.044	-0.049
-102.932	70.667	-0.031	-0.031
-101.918	-116.701	0.303	0.055
-100.903	-200.000	0.013	0.084
-99.889	-54.101	-0.149	-0.067
-98.874	-82.872	0.634	0.201
-97.859	-41.490	0.207	0.105
-96.845	258.983	0.152	0.257
-95.830	151.391	-0.081	0.108
-94.816	-95.007	0.178	-0.047
-93.801	38.344	-0.166	0.145
-92.786	800.000	0.026	0.089
-91.772	17.968	0.057	-0.045
-90.757	64.581	0.192	-0.190
-89.743	-49.674	0.446	-0.209
-88.728	-74.293	0.127	-0.045
-87.713	207.175	-0.016	-0.025
-86.699	-17.390	0.223	-0.138
-85.684	-44.303	0.295	-0.145
-84.670	84.151	0.044	0.047
-83.655	29.371	-0.084	-0.070
-82.640	-128.412	-0.104	-0.015
-81.626	-200.000	0.068	0.423
-80.611	-67.892	-0.123	0.047
-79.597	-200.000	0.047	-0.205
-78.582	171.730	-0.132	-0.186
-77.567	15.729	0.205	-0.159
-76.553	-154.505	-0.054	0.004
-75.538	-92.073	0.247	0.069
-74.524	800.000	-0.034	0.099
-73.509	-99.208	-0.085	-0.021
-72.494	655.268	-0.019	0.047
-71.480	-113.718	-0.326	0.062
-70.465	157.746	-0.240	-0.327
-69.451	-18.122	0.235	0.145
-68.436	7.472	0.227	-0.167
-67.422	-129.296	0.313	0.043
-66.407	261.581	-0.052	-0.089
-65.392	26.959	-0.154	0.126
-64.378	-54.451	0.234	-0.104
-63.363	143.617	-0.171	-0.223
-62.349	-200.000	0.010	0.287
-61.334	36.815	-1.072	-0.929
-60.319	-17.199	0.877	0.542
-59.305	800.000	-0.302	-0.871
-58.290	141.502	0.746	0.970
-57.276	401.352	0.619	1.274
-56.261	-200.000	102.887	579.353
-55.246	551.300	1434.076	3376.704
-54.232	187.405	2626.370	3843.501
-53.217	108.386	2269.588	2656.995
-52.203	39.640	1888.827	1661.411
-51.188	33.684	1679.036	1432.036
-50.173	31.026	1635.893	1375.608
-49.159	49.497	1687.439	1557.788
-48.144	50.421	1703.683	1579.644
-47.130	33.267	1662.437	1414.538
-46.115	30.542	1647.801	1381.800
-45.100	30.398	1642.845	1376.522
-44.086	30.426	1640.463	1374.678
-43.071	30.332	1637.825	1371.718
-42.057	30.398	1635.148	1369.909
-41.042	30.338	1633.303	1367.871
-40.027	30.368	1631.383	1366.427
-39.013	30.338	1629.425	1364.511
-37.998	30.295	1628.057	1362.996
-36.984	30.405	1626.942	1362.813
-35.969	30.550	1625.105	1362.289
-34.954	30.563	1623.406	1360.903
-33.940	30.438	1622.430	1359.119
-32.925	30.455	1620.218	1357.330
-31.911	30.504	1618.508	1356.207
-30.896	30.587	1616.653	1355.201
-29.881	30.524	1615.266	1353.524
-28.867	30.564	1613.554	1352.326
-27.852	30.447	1612.175	1350.266
-26.838	30.525	1610.419	1349.311
-25.823	30.511	1609.158	1348.102
-24.809	30.414	1608.424	1346.725
-23.794	30.407	1607.092	1345.511
-22.779	30.527	1604.662	1344.286
-21.765	30.503	1603.351	1342.960
-20.750	30.464	1601.928	1341.440
-19.736	30.553	1600.558	1340.878
-18.721	30.619	1598.703	1339.745
-17.706	30.548	1597.391	1338.083
-16.692	30.501	1595.987	1336.514
-15.677	30.527	1595.018	1335.836
-14.663	30.627	1593.346	1335.100
-13.648	30.531	1592.142	1333.351
-12.633	30.566	1590.250	1331.962
-11.619	30.611	1588.682	1330.922
-10.604	30.482	1587.524	1328.977
-9.590	30.566	1586.268	1328.472
-8.575	30.550	1585.022	1327.264
-7.560	30.540	1583.558	1325.913
-6.546	30.470	1582.986	1324.878
-5.531	30.541	1581.780	1324.326
-4.517	30.516	1580.139	1322.720
-3.502	30.528	1579.141	1321.916
-2.487	30.504	1577.901	1320.655
-1.473	30.142	1566.073	1308.151
-0.458	27.221	1546.710	1271.530
0.556	25.219	1547.287	1239.686
1.571	22.694	1571.070	1240.887
2.586	22.136	1584.127	1247.134
3.600	19.812	1531.521	1189.648
4.615	11.966	1424.202	1055.810
5.629	4.900	1361.666	965.690
6.644	3.552	1353.972	951.832
7.659	3.582	1352.811	951.117
8.673	3.638	1352.131	950.901
9.688	3.669	1350.229	949.671
10.702	3.458	1347.248	946.195
11.717	6.724	1353.204	970.395
12.731	15.261	1368.811	1034.388
13.746	22.426	1380.690	1087.704
14.761	24.132	1382.376	1099.479
15.775	23.758	1380.718	1095.756
16.790	23.127	1379.204	1090.570
17.804	22.742	1377.402	1086.678
18.819	22.489	1376.848	1084.584
19.834	22.393	1376.026	1083.252
20.848	22.479	1375.179	1083.017
21.863	22.529	1374.170	1082.434
22.877	22.332	1373.501	1080.601
23.892	22.224	1372.625	1079.158
24.907	22.212	1371.499	1078.100
25.921	22.228	1370.501	1077.317
26.936	22.192	1369.776	1076.433
27.950	22.290	1368.758	1076.138
28.965	22.466	1367.584	1076.193
29.980	22.461	1366.661	1075.344
30.994	22.654	1365.943	1075.857
32.009	22.720	1364.734	1075.217
33.023	22.710	1363.409	1074.018
34.038	22.478	1362.226	1071.575
35.053	22.420	1361.297	1070.401
36.067	22.345	1360.130	1068.930
37.082	22.254	1359.819	1068.038
38.096	22.443	1358.802	1068.293
39.111	22.487	1357.549	1067.477
40.126	22.314	1356.820	1065.762
41.140	22.098	1355.595	1063.402
42.155	21.905	1355.264	1061.880
43.169	21.777	1355.075	1060.865
44.184	21.832	1354.915	1060.978
45.199	22.046	1354.177	1061.598
46.213	22.206	1354.290	1062.557
47.228	22.377	1353.410	1062.805
48.242	22.434	1352.561	1062.393
49.257	22.429	1350.795	1060.882
50.271	22.281	1349.581	1058.939
51.286	22.395	1348.108	1058.377
52.301	22.294	1347.465	1057.172
53.315	22.183	1345.773	1055.087
54.330	22.040	1345.126	1053.624
55.344	22.071	1343.563	1052.493
56.359	21.999	1342.929	1051.472
57.374	21.946	1341.579	1050.004
58.388	21.878	1341.124	1049.153
59.403	21.865	1340.324	1048.354
60.417	21.753	1339.614	1047.035
61.432	21.664	1338.970	1045.912
62.447	21.695	1337.967	1045.219
63.461	21.584	1337.015	1043.723
64.476	21.505	1336.217	1042.532
65.490	21.546	1335.019	1041.752
66.505	21.474	1333.495	1040.045
67.520	21.637	1331.569	1039.419
68.534	21.529	1331.428	1038.571
69.549	21.498	1329.970	1037.162
70.563	21.463	1328.886	1036.018
71.578	21.339	1328.064	1034.551
72.593	21.257	1327.082	1033.210
73.607	21.317	1326.217	1032.795
74.622	21.403	1325.521	1032.669
75.636	21.487	1324.854	1032.555
76.651	21.440	1324.378	1031.819
77.666	21.523	1323.725	1031.709
78.680	21.578	1323.382	1031.671
79.695	21.519	1323.030	1030.956
80.709	21.717	1322.253	1031.427
81.724	21.920	1321.496	1031.937
82.739	21.990	1321.080	1031.933
83.753	22.132	1320.931	1032.564
84.768	22.498	1319.746	1033.695
85.782	22.666	1319.205	1034.164
86.797	22.571	1317.747	1032.370
87.812	22.477	1316.653	1030.873
88.826	22.432	1315.219	1029.395
89.841	22.528	1314.538	1029.334
90.855	22.533	1313.363	1028.351
91.870	22.644	1312.759	1028.435
92.884	22.650	1312.393	1028.090
93.899	22.748	1311.131	1027.581
94.914	22.645	1310.661	1026.526
95.928	22.719	1309.937	1026.299
96.943	22.704	1308.781	1025.212
97.957	22.605	1307.946	1023.892
98.972	22.676	1306.969	1023.450
99.987	22.476	1306.456	1021.795
101.001	22.455	1305.122	1020.543
102.016	22.518	1304.417	1020.267
103.030	22.523	1303.286	1019.317
104.045	22.527	1301.762	1018.058
105.060	22.308	1300.896	1016.026
106.074	22.003	1298.779	1012.526
107.089	21.730	1297.905	1010.182
108.103	21.630	1296.425	1008.364
109.118	21.588	1294.620	1006.629
110.133	21.579	1293.667	1005.746
111.147	21.485	1292.513	1004.224
112.162	21.735	1291.386	1004.691
113.176	21.741	1290.490	1003.942
114.191	21.664	1290.021	1003.047
115.206	21.718	1288.744	1002.272
116.220	21.801	1287.716	1001.860
117.235	21.824	1286.114	1000.657
118.249	21.627	1285.164	998.705
119.264	21.430	1284.387	996.887
120.279	21.464	1283.449	996.265
121.293	21.388	1282.145	994.735
122.308	21.288	1281.251	993.381
123.322	21.249	1279.925	992.044
124.337	21.372	1278.627	991.653
125.352	21.201	1278.169	990.240
126.366	21.200	1277.042	989.268
127.381	21.139	1276.176	988.165
128.395	21.042	1274.431	986.182
129.410	21.026	1274.299	985.900
130.424	21.199	1273.548	986.212
131.439	21.487	1272.608	987.017
132.454	21.550	1272.460	987.170
133.468	21.700	1271.377	987.089
134.483	21.688	1271.104	986.722
135.497	21.638	1270.020	985.511
136.512	21.680	1268.982	984.855
137.527	21.752	1267.747	984.217
138.541	21.689	1266.425	982.750
139.556	21.884	1265.477	983.019
140.570	21.982	1264.845	982.989
141.585	22.130	1263.806	982.923
142.600	22.315	1262.913	983.175
143.614	22.552	1262.316	983.948
144.629	22.488	1262.223	983.433
145.643	22.507	1260.435	982.059
146.658	22.162	1259.378	979.223
147.673	22.101	1257.555	977.378
148.687	21.947	1256.547	975.654
149.702	21.812	1254.770	973.441
150.716	21.530	1253.676	970.942
151.731	21.499	1252.048	969.420
152.746	21.607	1251.199	969.277
153.760	21.816	1250.450	969.766
154.775	22.091	1249.523	970.482
155.789	22.183	1248.525	970.130
156.804	22.136	1247.755	969.183
157.819	22.054	1247.042	968.095
158.833	22.293	1246.142	968.623
159.848	22.370	1245.753	968.659
160.862	22.257	1244.775	967.191
161.877	22.019	1243.002	964.423
162.892	21.581	1241.812	961.008
163.906	21.518	1240.539	959.596
164.921	21.549	1239.788	959.098
165.935	21.631	1239.491	959.235
166.950	21.814	1239.274	959.985
167.964	21.657	1238.707	958.599
168.979	21.768	1237.441	958.143
169.994	21.729	1236.818	957.358
171.008	21.719	1236.056	956.634
172.023	21.950	1235.108	957.072
173.037	22.128	1235.273	958.086
174.052	22.181	1233.969	957.279
175.067	21.880	1232.987	954.797
176.081	21.618	1231.382	952.046
177.096	21.571	1230.675	951.160
178.110	21.621	1229.823	950.684
179.125	21.674	1228.819	950.116
180.140	22.031	1227.707	951.102
181.154	22.056	1227.424	950.934
182.169	22.214	1226.156	950.726
183.183	22.274	1224.924	950.006
184.198	22.315	1223.935	949.379
185.213	22.191	1223.030	947.924
186.227	22.397	1221.791	947.988
187.242	22.336	1221.239	947.147
188.256	22.493	1220.076	947.007
189.271	22.569	1219.615	946.973
190.286	22.298	1218.504	944.572
191.300	21.863	1217.463	941.346
192.315	21.814	1216.801	940.492
193.329	21.761	1216.128	939.602
194.344	21.807	1214.854	938.779
195.359	21.740	1214.284	937.900
196.373	21.576	1214.438	937.058
197.388	21.778	1213.839	937.591
198.402	22.120	1214.207	939.624
199.417	22.424	1213.620	940.712
200.432	22.621	1213.532	941.612
201.446	22.649	1212.779	941.094
202.461	22.825	1212.210	941.509
203.475	22.767	1210.710	939.951
204.490	22.326	1209.016	936.204
205.504	22.163	1207.572	934.139
206.519	22.040	1206.722	932.745
207.534	21.946	1205.362	931.114
208.548	21.872	1204.693	930.119
209.563	21.963	1203.863	929.878
210.577	21.946	1203.284	929.263
211.592	22.033	1202.616	929.125
212.607	22.472	1201.792	930.722
213.621	22.497	1201.178	930.296
214.636	22.333	1200.398	928.748
215.650	22.355	1199.315	927.940
216.665	22.534	1198.878	928.466
217.680	22.803	1197.787	928.956
218.694	22.829	1197.193	928.551
219.709	22.643	1196.594	927.022
220.723	22.513	1195.798	925.642
221.738	22.543	1195.048	925.137
222.753	22.356	1194.306	923.501
223.767	22.423	1193.318	923.004
224.782	22.554	1193.452	923.715
225.796	22.842	1192.827	924.659
226.811	22.661	1191.944	922.944
227.826	22.497	1191.142	921.382
228.840	22.360	1190.240	919.886
229.855	22.306	1189.336	918.824
230.869	22.292	1188.771	918.235
231.884	22.191	1187.612	916.731
232.899	21.916	1186.883	914.654
233.913	21.927	1185.751	913.760
234.928	21.894	1185.310	913.168
235.942	21.998	1183.812	912.473
236.957	21.689	1183.228	910.338
237.972	21.781	1182.649	910.286
238.986	21.882	1182.188	910.376
240.001	21.748	1181.767	909.274
241.015	21.876	1180.614	908.973
242.030	21.978	1180.082	909.009
243.045	22.177	1179.780	909.725
244.059	22.253	1179.302	909.672
245.074	22.333	1178.272	909.211
246.088	22.389	1177.563	908.871
247.103	22.508	1177.104	909.052
248.117	22.735	1176.392	909.589
249.132	22.946	1175.973	910.273
250.147	23.227	1175.494	911.270
251.161	23.504	1175.191	912.380
252.176	23.448	1174.785	911.694
253.190	23.586	1173.578	911.385
254.205	23.761	1173.360	912.036
255.220	23.725	1173.011	911.499
256.234	23.603	1172.630	910.493
257.249	23.628	1171.534	909.692
258.263	23.459	1170.865	908.226
259.278	23.421	1170.408	907.599
260.293	23.535	1169.840	907.657
261.307	23.544	1169.544	907.398
262.322	23.595	1168.781	906.984
263.336	23.685	1168.349	907.030
264.351	23.637	1167.410	905.971
265.366	23.666	1166.614	905.426
266.380	23.722	1166.123	905.247
267.395	23.507	1165.568	903.644
268.409	23.370	1164.129	901.747
269.424	23.257	1163.813	900.851
270.439	23.329	1163.018	900.518
271.453	23.347	1161.913	899.675
272.468	23.048	1161.008	897.377
273.482	22.915	1160.483	896.219
274.497	22.921	1159.828	895.666
275.512	23.043	1158.999	895.560
276.526	22.895	1158.606	894.430
277.541	23.000	1157.432	893.974
278.555	23.045	1157.331	894.049
279.570	23.459	1156.632	895.520
280.585	23.604	1156.360	895.961
281.599	23.544	1155.325	894.777
282.614	23.305	1154.026	892.490
283.628	23.146	1152.709	890.589
284.643	23.048	1152.237	889.656
285.657	23.153	1151.064	889.195
286.672	23.069	1150.426	888.201
287.687	23.110	1149.646	887.726
288.701	23.209	1148.820	887.508
289.716	23.178	1148.124	886.738
290.730	23.093	1147.461	885.723
291.745	23.206	1146.527	885.489
292.760	23.225	1146.183	885.238
293.774	23.326	1146.267	885.730
294.789	23.474	1145.509	885.806
295.803	23.603	1144.780	885.805
296.818	23.319	1143.784	883.540
297.833	23.235	1143.272	882.648
298.847	23.087	1142.343	881.117
299.862	23.179	1141.101	880.539
300.876	23.229	1140.762	880.448
301.891	23.445	1140.304	881.088
302.906	23.579	1139.509	881.065
303.920	23.678	1139.691	881.615
304.935	23.717	1139.264	881.401
305.949	23.846	1138.332	881.245
306.964	23.850	1137.742	880.727
307.979	23.819	1136.549	879.574
308.993	23.693	1135.431	878.009
310.008	23.809	1134.731	877.959
311.022	23.838	1134.379	877.752
312.037	23.787	1133.719	876.913
313.052	23.625	1132.499	875.097
314.066	23.324	1131.312	872.617
315.081	23.112	1130.034	870.510
316.095	22.881	1129.627	868.986
317.110	22.905	1129.102	868.623
318.125	22.958	1128.262	868.158
319.139	23.065	1127.309	867.874
320.154	23.095	1126.347	867.204
321.168	23.020	1126.321	866.738
322.183	22.908	1125.888	865.782
323.197	23.171	1124.937	866.258
324.212	23.212	1124.163	865.788
325.227	23.262	1124.113	865.918
326.241	23.225	1123.561	865.237
327.256	23.046	1122.562	863.515
328.270	23.010	1121.534	862.471
329.285	23.059	1120.779	862.055
330.300	23.204	1119.856	861.975
331.314	23.108	1118.835	860.645
332.329	23.124	1118.260	860.205
333.343	23.140	1117.494	859.617
334.358	23.309	1116.661	859.720
335.373	23.568	1116.193	860.538
336.387	23.468	1116.307	860.067
337.402	23.548	1115.403	859.684
338.416	23.675	1114.669	859.656
339.431	23.747	1113.781	859.241
340.446	23.989	1113.514	860.128
341.460	24.140	1113.731	860.952
342.475	24.147	1112.909	860.274
343.489	24.296	1111.807	860.064
344.504	24.368	1110.507	859.328
345.519	24.395	1110.294	859.220
346.533	24.365	1109.697	858.538
347.548	24.488	1108.999	858.514
348.562	24.342	1108.122	857.057
349.577	24.069	1106.772	854.628
350.592	23.721	1105.523	851.917
351.606	23.508	1104.727	850.208
352.621	23.394	1103.673	848.773
353.635	23.271	1103.123	847.687
354.650	23.382	1102.334	847.536
355.665	23.440	1101.972	847.459
356.679	23.661	1101.458	848.047
357.694	23.626	1101.228	847.628
358.708	23.787	1100.831	848.015
359.723	23.783	1099.840	847.159
360.738	23.863	1098.844	846.698
361.752	23.808	1098.535	846.119
362.767	23.817	1098.287	845.900
363.781	23.816	1097.539	845.241
364.796	24.107	1097.288	846.358
365.810	24.288	1096.874	846.823
366.825	24.423	1096.364	846.995
367.840	24.504	1096.249	847.215
368.854	24.701	1095.556	847.538
369.869	24.615	1095.065	846.676
370.883	24.464	1093.649	844.791
371.898	24.359	1092.781	843.550
372.913	24.251	1091.912	842.296
373.927	24.095	1091.892	841.468
374.942	24.568	1091.107	843.024
375.956	24.417	1090.795	841.995
376.971	24.356	1090.102	841.097
377.986	24.458	1089.823	841.290
379.000	24.553	1089.414	841.345
380.015	24.757	1088.737	841.707
381.029	24.733	1088.141	841.062
382.044	24.701	1087.708	840.501
383.059	24.660	1086.909	839.617
384.073	24.681	1085.845	838.817
385.088	24.718	1084.974	838.245
386.102	24.704	1083.905	837.279
387.117	24.484	1082.414	835.025
388.132	24.205	1081.442	832.899
389.146	24.152	1080.873	832.135
390.161	24.072	1080.194	831.169
391.175	23.987	1079.580	830.225
392.190	24.257	1079.282	831.180
393.205	24.595	1078.518	832.096
394.219	24.504	1078.243	831.385
395.234	24.373	1076.633	829.463
396.248	24.192	1075.225	827.461
397.263	24.118	1074.595	826.561
398.278	24.107	1073.921	825.919
399.292	24.065	1073.433	825.272
400.307	23.990	1073.155	824.641
401.321	23.951	1072.219	823.666
402.336	23.820	1071.297	822.282
403.350	23.849	1070.149	821.461
404.365	24.054	1069.837	822.095
405.380	24.266	1069.380	822.649
406.394	24.166	1068.715	821.604
407.409	24.425	1068.748	822.749
408.423	24.631	1067.946	823.011
409.438	24.830	1067.132	823.227
410.453	24.828	1066.908	822.969
411.467	24.809	1066.331	822.366
412.482	24.798	1065.664	821.729
413.496	25.012	1064.893	822.044
414.511	25.067	1064.469	821.893
415.526	25.127	1064.233	821.912
416.540	25.327	1063.451	822.155
417.555	25.249	1062.868	821.271
418.569	25.040	1062.374	819.864
419.584	24.927	1062.121	819.080
420.599	24.886	1061.033	817.979
421.613	155.190	1404.502	1796.654
422.628	142.673	1454.545	1796.743
