DTS Sentinel unit serial number:	SN413079Multiplexer serial number:	ORYXHardware model number:	OX4-SRSoftware version number:	ORYX F/W v4.00 Oryx Data Collector v3.7.2.0data status	okinstallation	princeton_trtdifferential loss correction	single-endedforward channel	channel 2reverse channel	N/Adate	2019/09/10time	17:49:11forward acquisition time	60.00reverse acquisition time	0.00gamma	496.2192k internal	0.2312k external	0.2312temperature offset calibration	0.9941default loss term (dB/km)	0.3790temperature slope calibration	1.0000multiplexer offset coefficient	1.0000multiplexer slope coefficient	1.0000fibre end	0.00T internal ref (°C)	37.44T ext. ref 1 (°C)	-0.34T ext. ref 2 (°C)	30.24length (m)	temperature (°C)	Stokes	anti-Stokes-747.200	49.299	0.047	0.045
-746.185	-58.856	0.189	0.083
-745.171	-64.477	0.101	0.042
-744.156	800.000	0.065	0.251
-743.142	362.754	-0.102	0.207
-742.127	-200.000	-0.066	0.331
-741.112	-47.296	-0.383	0.189
-740.098	20.904	0.048	-0.039
-739.083	89.735	0.138	-0.156
-738.069	196.857	0.339	0.524
-737.054	-99.325	0.215	-0.055
-736.039	-109.548	-0.215	0.046
-735.025	-200.000	0.019	0.229
-734.010	536.084	-0.034	-0.082
-732.996	508.346	0.087	-0.204
-731.981	268.143	0.172	0.306
-730.966	39.450	-0.220	-0.200
-729.952	-152.000	-0.391	0.029
-728.937	90.016	0.184	0.209
-727.923	-24.157	-0.429	0.260
-726.908	105.167	-0.193	-0.231
-725.894	-88.024	-0.532	-0.162
-724.879	-54.379	-0.129	-0.059
-723.864	-170.549	-0.081	-0.003
-722.850	-116.207	0.133	0.025
-721.835	85.891	-0.198	-0.221
-720.821	-21.277	0.300	0.186
-719.806	283.727	0.188	0.343
-718.791	44.508	-0.146	-0.136
-717.777	-30.632	-0.091	-0.052
-716.762	24.902	0.113	0.095
-715.748	-103.612	-0.258	-0.061
-714.733	71.669	-0.132	-0.139
-713.718	-200.000	-0.008	0.178
-712.704	-180.591	-0.133	-0.003
-711.689	-71.247	-0.229	-0.087
-710.675	196.745	-0.094	0.146
-709.660	-128.915	0.097	0.014
-708.645	-7.950	0.225	-0.154
-707.631	152.551	-0.019	0.026
-706.616	393.780	-0.216	-0.457
-705.602	262.178	0.169	0.297
-704.587	239.501	-0.150	-0.253
-703.572	-200.000	0.018	-0.206
-702.558	-43.097	-0.111	0.057
-701.543	-200.000	0.039	-0.227
-700.529	800.000	-0.058	0.179
-699.514	-93.309	-0.222	-0.062
-698.499	-72.301	0.284	-0.107
-697.485	-39.457	-0.079	-0.042
-696.470	800.000	-0.093	-0.343
-695.456	-200.000	-0.031	0.142
-694.441	302.360	0.069	0.130
-693.426	160.513	-0.110	0.155
-692.412	796.599	0.033	-0.093
-691.397	-20.708	-0.120	-0.075
-690.383	-73.314	0.411	-0.152
-689.368	258.258	0.085	-0.148
-688.354	-41.746	0.120	0.062
-687.339	-6.439	-0.136	-0.094
-686.324	-179.907	-0.251	-0.005
-685.310	800.000	-0.054	-0.167
-684.295	-200.000	-0.007	-0.087
-683.281	106.535	-0.161	-0.193
-682.266	274.781	-0.180	-0.323
-681.251	64.294	-0.053	-0.054
-680.237	30.941	-0.120	-0.104
-679.222	56.199	0.038	-0.037
-678.208	291.514	-0.080	-0.146
-677.193	22.615	0.126	-0.104
-676.178	408.990	-0.096	0.207
-675.164	46.157	0.116	0.108
-674.149	-96.889	0.113	0.030
-673.135	233.730	-0.075	-0.125
-672.120	188.446	-0.138	0.209
-671.105	259.123	0.214	0.373
-670.091	-27.196	-0.186	0.110
-669.076	137.843	0.082	0.109
-668.062	-85.113	-0.211	-0.067
-667.047	-200.000	0.037	0.249
-666.032	221.361	0.091	0.148
-665.018	-181.518	0.295	-0.006
-664.003	125.397	-0.152	-0.194
-662.989	416.784	-0.103	-0.222
-661.974	93.236	0.205	0.234
-660.959	-14.094	0.109	0.071
-659.945	-156.008	0.403	0.026
-658.930	-115.462	-0.264	0.050
-657.916	258.708	-0.076	0.133
-656.901	12.534	0.032	0.025
-655.886	300.597	0.100	0.186
-654.872	-94.095	-0.103	-0.029
-653.857	-61.768	0.171	0.072
-652.843	8.647	0.200	0.152
-651.828	86.362	0.119	-0.133
-650.814	-200.000	-0.068	0.316
-649.799	-200.000	0.009	0.240
-648.784	75.436	-0.257	-0.274
-647.770	-142.949	-0.243	-0.024
-646.755	800.000	-0.101	0.360
-645.741	39.694	0.313	-0.284
-644.726	-61.762	0.156	0.066
-643.711	-103.753	-0.098	-0.023
-642.697	-200.000	-0.002	-0.106
-641.682	-200.000	0.059	-0.477
-640.668	39.724	-0.177	0.161
-639.653	-11.978	0.200	0.132
-638.638	268.484	-0.151	-0.267
-637.624	56.626	-0.076	-0.075
-636.609	-193.856	-0.100	0.001
-635.595	800.000	0.050	-0.203
-634.580	-72.416	0.243	0.091
-633.565	93.491	0.184	-0.210
-632.551	800.000	0.073	0.276
-631.536	-63.142	-0.187	0.078
-630.522	61.950	-0.149	-0.150
-629.507	-34.555	0.216	0.120
-628.492	70.667	-0.322	0.337
-627.478	8.687	0.159	0.121
-626.463	-93.931	0.153	-0.043
-625.449	679.404	0.029	0.077
-624.434	-19.274	-0.191	-0.120
-623.419	45.915	0.403	0.377
-622.405	356.531	0.080	0.161
-621.390	-200.000	0.032	0.246
-620.376	-130.600	0.198	0.027
-619.361	8.114	0.116	0.088
-618.346	-130.889	-0.323	-0.044
-617.332	107.690	-0.129	0.155
-616.317	-126.086	0.330	0.050
-615.303	800.000	-0.032	-0.094
-614.288	-48.805	0.076	0.037
-613.273	800.000	-0.084	-0.250
-612.259	-67.091	-0.167	0.067
-611.244	134.055	0.106	0.138
-610.230	-39.193	-0.513	-0.272
-609.215	2.291	0.119	-0.087
-608.201	10.028	-0.188	-0.144
-607.186	21.021	-0.223	0.183
-606.171	-94.454	-0.374	0.103
-605.157	23.535	0.156	-0.130
-604.142	-200.000	0.033	-0.265
-603.128	-200.000	-0.015	-0.137
-602.113	-79.523	0.080	-0.027
-601.098	800.000	-0.081	0.354
-600.084	-200.000	0.028	-0.176
-599.069	68.827	0.095	-0.098
-598.055	14.173	-0.168	0.132
-597.040	-3.714	0.115	0.080
-596.025	296.328	-0.222	0.410
-595.011	-52.857	0.440	0.204
-593.996	800.000	-0.050	-0.194
-592.982	-86.127	-0.119	-0.037
-591.967	-135.247	0.122	-0.015
-590.952	189.291	-0.212	-0.321
-589.938	302.349	-0.165	0.308
-588.923	282.348	0.108	0.195
-587.909	214.535	0.027	-0.043
-586.894	-63.603	-0.491	0.203
-585.879	-36.442	0.329	-0.178
-584.865	-167.843	0.180	0.007
-583.850	800.000	0.110	-0.430
-582.836	41.092	-0.120	0.109
-581.821	75.815	0.071	-0.076
-580.806	-200.000	0.011	-0.228
-579.792	563.667	-0.079	-0.194
-578.777	-11.469	-0.077	-0.051
-577.763	-174.192	0.153	-0.004
-576.748	570.965	-0.101	-0.249
-575.733	-9.105	0.201	-0.135
-574.719	-200.000	0.051	-0.280
-573.704	-64.529	0.233	0.095
-572.690	-54.110	-0.189	-0.086
-571.675	-200.000	0.012	-0.095
-570.661	494.543	0.082	-0.191
-569.646	467.379	0.097	-0.220
-568.631	-88.837	-0.090	-0.027
-567.617	61.332	-0.171	-0.171
-566.602	-200.000	0.001	0.162
-565.588	18.964	-0.181	-0.146
-564.573	-200.000	0.001	-0.358
-563.558	-200.000	-0.033	0.188
-562.544	-136.284	-0.553	-0.065
-561.529	65.920	0.176	-0.180
-560.515	-200.000	-0.037	-0.376
-559.500	-200.000	-0.012	-0.263
-558.485	800.000	0.054	0.190
-557.471	22.860	0.252	0.208
-556.456	38.569	0.186	0.167
-555.442	-67.989	-0.372	0.146
-554.427	-200.000	0.006	-0.218
-553.412	-8.341	-0.079	0.053
-552.398	-51.098	-0.015	0.007
-551.383	-200.000	0.012	0.433
-550.369	-200.000	0.019	-0.305
-549.354	-26.709	-0.062	0.036
-548.339	-69.563	-0.269	-0.104
-547.325	297.897	-0.042	0.077
-546.310	115.155	0.033	-0.041
-545.296	-175.394	0.217	-0.006
-544.281	213.738	0.157	-0.250
-543.266	65.219	0.238	-0.243
-542.252	-200.000	-0.032	0.261
-541.237	52.665	0.137	-0.132
-540.223	790.598	-0.042	0.115
-539.208	-155.290	0.392	-0.026
-538.193	-53.870	-0.247	-0.113
-537.179	-200.000	0.005	0.209
-536.164	17.624	0.140	-0.112
-535.150	166.565	-0.073	-0.104
-534.135	797.966	0.074	0.206
-533.121	-136.672	0.048	-0.006
-532.106	168.296	-0.112	0.160
-531.091	-200.000	-0.027	-0.122
-530.077	800.000	-0.054	0.203
-529.062	-94.678	-0.191	0.052
-528.048	10.087	-0.193	-0.147
-527.033	-200.000	0.299	-0.001
-526.018	800.000	-0.069	-0.217
-525.004	-107.651	0.295	0.065
-523.989	132.698	-0.198	-0.257
-522.975	-200.000	0.024	0.299
-521.960	800.000	-0.055	0.193
-520.945	161.752	0.183	0.257
-519.931	137.389	-0.171	-0.225
-518.916	-103.553	-0.137	0.032
-517.902	-125.998	0.431	-0.065
-516.887	-153.717	0.073	-0.005
-515.872	-47.662	0.149	0.073
-514.858	-3.467	-0.300	0.210
-513.843	32.012	-0.184	-0.160
-512.829	-101.745	-0.289	0.070
-511.814	73.866	0.132	0.140
-510.799	105.136	-0.060	0.071
-509.785	125.692	-0.177	0.224
-508.770	-151.435	-0.532	-0.040
-507.756	285.703	-0.064	0.115
-506.741	8.186	-0.198	0.149
-505.726	-120.107	0.145	0.025
-504.712	-200.000	-0.002	0.049
-503.697	-200.000	0.016	-0.187
-502.683	-200.000	-0.003	0.207
-501.668	40.012	0.249	-0.225
-500.653	188.821	-0.106	-0.159
-499.639	-2.215	0.132	0.093
-498.624	-200.000	0.027	-0.132
-497.610	247.099	-0.090	-0.153
-496.595	571.982	0.138	-0.339
-495.581	193.187	0.094	0.143
-494.566	-200.000	-0.004	0.304
-493.551	-47.674	-0.058	-0.028
-492.537	32.938	0.125	-0.109
-491.522	-200.000	-0.006	0.282
-490.508	231.952	-0.145	0.238
-489.493	685.518	-0.122	0.320
-488.478	-35.455	0.164	0.089
-487.464	-131.940	0.154	0.020
-486.449	-200.000	-0.025	0.164
-485.435	85.031	0.097	-0.106
-484.420	800.000	-0.069	0.267
-483.405	-26.021	0.188	0.111
-482.391	-200.000	-0.006	-0.048
-481.376	-200.000	0.012	0.191
-480.362	126.409	0.080	-0.101
-479.347	550.334	-0.071	-0.170
-478.332	-150.511	0.346	0.027
-477.318	2.320	0.136	0.099
-476.303	-200.000	-0.037	-0.187
-475.289	-200.000	-0.010	-0.120
-474.274	316.980	0.059	-0.112
-473.259	-1.849	0.159	-0.112
-472.245	-200.000	0.010	-0.173
-471.230	98.782	0.135	0.157
-470.216	-54.706	-0.296	-0.134
-469.201	-139.743	-0.279	-0.030
-468.186	21.659	-0.152	0.124
-467.172	315.386	-0.051	-0.097
-466.157	-82.847	0.227	-0.073
-465.143	-146.767	0.031	0.003
-464.128	-7.287	-0.147	0.100
-463.113	-5.521	-0.365	0.252
-462.099	-49.658	0.066	-0.031
-461.084	-75.656	0.219	0.078
-460.070	-200.000	0.026	-0.116
-459.055	-78.183	-0.307	0.106
-458.040	-75.206	-0.051	0.018
-457.026	770.357	-0.061	-0.167
-456.011	800.000	-0.094	0.348
-454.997	267.760	-0.135	0.237
-453.982	800.000	0.120	0.365
-452.968	-74.154	-0.224	-0.081
-451.953	316.850	0.104	-0.196
-450.938	-200.000	0.016	0.236
-449.924	-200.000	0.020	0.209
-448.909	570.479	-0.064	-0.156
-447.895	7.031	0.231	-0.173
-446.880	-7.444	0.412	-0.280
-445.865	-15.820	0.325	-0.208
-444.851	773.217	0.080	-0.219
-443.836	84.789	-0.152	-0.167
-442.822	-166.443	0.109	-0.005
-441.807	-26.264	0.091	-0.054
-440.792	469.162	0.191	0.430
-439.778	2.304	0.379	0.275
-438.763	-77.739	-0.175	0.061
-437.749	-54.800	-0.045	-0.021
-436.734	800.000	0.053	0.199
-435.719	-1.149	0.086	0.061
-434.705	-200.000	-0.008	0.174
-433.690	-200.000	0.006	-0.179
-432.676	5.341	0.220	-0.163
-431.661	800.000	-0.074	-0.224
-430.646	-200.000	0.031	-0.227
-429.632	-200.000	0.012	-0.158
-428.617	-26.719	-0.152	-0.089
-427.603	-200.000	0.081	0.437
-426.588	573.812	0.039	-0.094
-425.573	-74.364	0.215	0.078
-424.559	-122.288	0.176	0.029
-423.544	120.730	-0.043	-0.054
-422.530	72.411	0.197	-0.206
-421.515	-104.585	0.145	0.034
-420.500	-34.928	-0.089	0.049
-419.486	163.179	-0.024	-0.034
-418.471	800.000	0.050	0.161
-417.457	-176.805	-0.523	0.013
-416.442	-8.345	-0.216	-0.145
-415.428	-62.702	0.252	-0.105
-414.413	2.210	0.189	-0.137
-413.398	67.731	-0.231	-0.236
-412.384	-145.743	0.082	0.007
-411.369	-200.000	0.009	-0.208
-410.355	-69.455	0.334	0.128
-409.340	-136.826	0.177	0.020
-408.325	-95.087	-0.301	0.081
-407.311	-200.000	0.018	-0.089
-406.296	74.376	0.017	-0.018
-405.282	97.471	-0.182	0.209
-404.267	-48.614	0.239	-0.115
-403.252	-200.000	-0.004	0.105
-402.238	-23.008	-0.083	-0.050
-401.223	447.874	0.034	-0.075
-400.209	-12.799	-0.292	-0.191
-399.194	71.598	-0.055	-0.057
-398.179	-200.000	-0.002	0.030
-397.165	-200.000	0.036	-0.298
-396.150	188.390	-0.032	0.048
-395.136	45.070	-0.140	0.130
-394.121	81.576	0.153	0.166
-393.106	-66.175	0.176	-0.070
-392.092	81.656	-0.113	-0.123
-391.077	103.938	-0.139	-0.163
-390.063	-200.000	-0.031	-0.246
-389.048	376.334	-0.181	0.371
-388.033	28.185	-0.163	-0.138
-387.019	-163.902	-0.252	-0.012
-386.004	147.046	-0.184	-0.247
-384.990	51.466	0.189	0.179
-383.975	-94.630	0.207	-0.056
-382.960	-79.377	-0.214	0.072
-381.946	-200.000	0.007	0.376
-380.931	70.505	-0.152	0.157
-379.917	-52.777	0.153	-0.071
-378.902	-38.509	-0.067	-0.035
-377.888	-200.000	0.051	0.232
-376.873	-38.828	-0.182	0.096
-375.858	-13.478	0.201	0.131
-374.844	104.721	0.157	-0.186
-373.829	-67.633	-0.190	0.074
-372.815	-1.907	0.232	0.163
-371.800	188.236	0.051	-0.076
-370.785	-54.056	-0.023	-0.010
-369.771	-104.157	-0.310	0.072
-368.756	88.260	0.061	0.068
-367.742	800.000	-0.030	-0.095
-366.727	236.339	-0.120	-0.199
-365.712	173.204	0.080	0.116
-364.698	-71.690	0.008	0.003
-363.683	-76.355	-0.097	0.034
-362.669	-8.644	-0.139	0.093
-361.654	-32.780	0.074	-0.041
-360.639	-45.485	-0.284	0.141
-359.625	-200.000	0.031	-0.217
-358.610	-175.026	0.390	-0.011
-357.596	508.857	-0.117	-0.271
-356.581	-28.450	-0.023	0.013
-355.566	69.653	0.003	0.003
-354.552	-0.966	0.127	0.090
-353.537	-45.607	0.098	0.049
-352.523	-200.000	0.005	-0.120
-351.508	-63.497	-0.168	-0.069
-350.493	-93.249	-0.077	0.021
-349.479	-169.008	-0.212	0.008
-348.464	-200.000	0.231	0.000
-347.450	65.532	0.124	0.126
-346.435	-104.778	0.414	0.095
-345.420	-4.697	0.111	-0.076
-344.406	-150.092	-0.083	-0.006
-343.391	-200.000	-0.063	0.309
-342.377	578.963	0.037	0.090
-341.362	-95.211	-0.114	0.031
-340.348	525.990	0.068	-0.160
-339.333	-29.176	0.085	-0.048
-338.318	26.247	0.154	-0.129
-337.304	-5.180	0.125	-0.086
-336.289	256.272	0.049	0.085
-335.275	-42.474	0.365	0.186
-334.260	-145.993	-0.139	0.012
-333.245	344.794	-0.064	0.126
-332.231	-119.544	-0.207	0.036
-331.216	-200.000	0.046	0.301
-330.202	-137.771	0.073	-0.008
-329.187	95.621	-0.148	-0.168
-328.172	800.000	0.009	0.029
-327.158	-200.000	-0.015	0.355
-326.143	800.000	-0.048	-0.150
-325.129	-200.000	0.030	0.178
-324.114	800.000	-0.075	0.286
-323.099	11.579	0.234	0.179
-322.085	356.624	0.099	0.198
-321.070	182.541	-0.070	-0.103
-320.056	-150.278	-0.156	-0.012
-319.041	-146.896	0.312	-0.027
-318.026	40.914	0.182	0.164
-317.012	800.000	0.014	0.041
-315.997	-179.373	0.429	0.009
-314.983	-23.465	0.205	-0.123
-313.968	287.307	0.106	-0.191
-312.953	-132.844	0.305	-0.039
-311.939	78.350	0.109	0.116
-310.924	265.100	-0.034	-0.059
-309.910	-49.358	-0.124	0.059
-308.895	-145.702	0.085	0.008
-307.880	-108.564	0.272	0.058
-306.866	432.700	-0.178	-0.386
-305.851	-200.000	0.013	-0.122
-304.837	86.893	-0.093	0.103
-303.822	-78.956	0.067	-0.023
-302.807	-24.666	0.312	-0.185
-301.793	109.426	-0.146	-0.174
-300.778	-136.368	-0.287	-0.033
-299.764	276.098	-0.047	0.084
-298.749	385.269	-0.125	0.257
-297.735	-200.000	-0.007	0.056
-296.720	10.080	-0.174	0.132
-295.705	800.000	0.135	-0.424
-294.691	-200.000	0.020	-0.162
-293.676	16.260	-0.145	0.114
-292.662	-105.615	-0.296	0.067
-291.647	74.300	-0.128	-0.134
-290.632	-16.826	-0.268	-0.169
-289.618	-200.000	0.054	0.306
-288.603	-200.000	0.263	-0.001
-287.589	-70.016	-0.229	-0.087
-286.574	516.383	-0.141	-0.329
-285.559	84.200	-0.173	-0.188
-284.545	469.825	0.036	-0.080
-283.530	-92.598	0.241	-0.067
-282.516	349.650	0.047	0.093
-281.501	71.854	0.193	0.200
-280.486	530.573	-0.146	0.343
-279.472	-68.272	-0.231	-0.089
-278.457	-38.610	-0.119	-0.063
-277.443	52.831	0.344	0.328
-276.428	-85.659	0.370	-0.114
-275.413	-200.000	0.035	-0.273
-274.399	-187.893	-0.404	0.005
-273.384	416.391	0.043	0.092
-272.370	-74.283	0.336	-0.121
-271.355	-200.000	0.023	0.164
-270.340	198.248	-0.202	-0.308
-269.326	58.013	0.195	-0.190
-268.311	-200.000	0.054	0.244
-267.297	-56.054	0.071	0.032
-266.282	-200.000	-0.014	0.157
-265.267	-200.000	0.020	0.135
-264.253	-40.737	-0.238	-0.123
-263.238	800.000	-0.100	-0.401
-262.224	800.000	0.080	0.255
-261.209	-76.637	-0.239	0.083
-260.195	56.327	-0.291	-0.281
-259.180	369.301	0.025	0.051
-258.165	762.042	-0.035	-0.095
-257.151	22.323	-0.114	0.093
-256.136	800.000	-0.093	-0.334
-255.122	64.350	-0.216	-0.217
-254.107	-27.883	0.314	0.181
-253.092	-90.391	0.499	-0.144
-252.078	-124.086	0.324	0.051
-251.063	172.446	0.168	-0.241
-250.049	-45.729	0.141	0.069
-249.034	800.000	-0.041	-0.124
-248.019	-32.533	0.077	-0.043
-247.005	111.072	0.206	-0.247
-245.990	-200.000	0.018	-0.140
-244.976	-129.571	0.058	0.008
-243.961	-0.528	-0.076	0.054
-242.946	-186.543	0.071	0.001
-241.932	-82.175	0.206	-0.067
-240.917	1.513	0.275	0.197
-239.903	109.161	0.129	-0.154
-238.888	-72.701	0.229	-0.084
-237.873	-150.932	-0.214	-0.016
-236.859	800.000	0.056	0.178
-235.844	800.000	-0.017	0.051
-234.830	800.000	-0.007	0.029
-233.815	94.186	-0.072	-0.081
-232.800	140.667	-0.060	-0.079
-231.786	800.000	-0.141	0.459
-230.771	-63.959	0.139	0.056
-229.757	-53.420	-0.264	0.120
-228.742	-200.000	0.042	0.291
-227.727	-7.850	-0.081	-0.054
-226.713	213.596	-0.096	0.151
-225.698	-48.799	-0.355	0.170
-224.684	-127.830	-0.237	0.034
-223.669	-200.000	-0.008	0.291
-222.655	216.038	0.017	-0.026
-221.640	800.000	-0.063	0.183
-220.625	-200.000	0.013	0.296
-219.611	249.453	0.191	0.322
-218.596	22.689	0.113	-0.092
-217.582	-68.658	-0.329	-0.126
-216.567	-75.734	-0.209	0.074
-215.552	766.844	0.075	0.202
-214.538	-4.987	-0.076	0.052
-213.523	-200.000	-0.012	-0.106
-212.509	70.587	0.086	0.088
-211.494	122.578	0.255	0.316
-210.479	291.413	-0.155	0.281
-209.465	-165.937	-0.086	-0.004
-208.450	-200.000	0.000	0.153
-207.436	68.426	-0.196	-0.200
-206.421	-104.613	0.110	-0.025
-205.406	-5.340	0.216	0.147
-204.392	29.066	-0.257	-0.216
-203.377	394.744	0.033	0.069
-202.363	28.757	0.123	-0.103
-201.348	-43.793	0.266	-0.133
-200.333	283.323	-0.163	0.291
-199.319	800.000	0.050	0.209
-198.304	10.210	0.559	-0.422
-197.290	-200.000	-0.061	-0.335
-196.275	392.166	0.057	0.117
-195.260	1.506	0.210	0.150
-194.246	800.000	-0.070	0.239
-193.231	-25.996	-0.382	-0.223
-192.217	-111.417	-0.129	0.026
-191.202	159.292	-0.173	-0.238
-190.187	-85.998	0.431	-0.132
-189.173	-200.000	-0.045	-0.215
-188.158	244.014	-0.257	-0.429
-187.144	-168.643	-0.349	-0.013
-186.129	-88.645	-0.173	0.051
-185.114	800.000	-0.062	0.187
-184.100	-13.054	-0.171	-0.110
-183.085	-92.373	-0.040	0.011
-182.071	-27.655	-0.117	0.067
-181.056	-200.000	0.020	0.290
-180.042	11.041	-0.152	-0.115
-179.027	184.274	0.060	0.088
-178.012	-200.000	0.001	-0.071
-176.998	773.753	0.126	0.342
-175.983	519.785	-0.082	0.192
-174.969	-176.836	-0.190	0.005
-173.954	499.556	0.166	-0.380
-172.939	-48.851	0.228	-0.109
-171.925	67.625	-0.140	-0.142
-170.910	-200.000	-0.014	-0.104
-169.896	800.000	-0.114	0.360
-168.881	60.475	0.033	-0.033
-167.866	-39.927	0.162	0.084
-166.852	163.253	-0.129	0.180
-165.837	-67.676	-0.346	-0.134
-164.823	56.409	0.162	-0.156
-163.808	61.524	-0.298	0.294
-162.793	12.740	-0.234	-0.180
-161.779	800.000	-0.027	-0.081
-160.764	226.143	0.168	0.271
-159.750	68.168	0.021	0.021
-158.735	352.191	-0.055	-0.108
-157.720	-186.732	-0.306	0.004
-156.706	-102.494	0.334	-0.079
-155.691	-200.000	-0.002	-0.267
-154.677	800.000	0.048	-0.174
-153.662	-165.511	-0.119	0.005
-152.647	558.178	-0.062	0.149
-151.633	-200.000	-0.071	-0.514
-150.618	-64.478	-0.028	0.011
-149.604	-75.552	-0.218	0.077
-148.589	27.741	-0.110	0.092
-147.574	-62.573	0.116	-0.048
-146.560	-92.819	0.317	0.088
-145.545	-200.000	-0.006	0.138
-144.531	-32.137	-0.414	0.229
-143.516	1.862	0.418	0.299
-142.502	-44.325	0.328	-0.163
-141.487	-15.023	-0.307	-0.195
-140.472	-86.093	-0.044	0.014
-139.458	-66.860	-0.276	-0.108
-138.443	232.138	-0.171	-0.277
-137.429	-18.805	0.078	0.048
-136.414	389.514	0.087	-0.179
-135.399	-200.000	-0.009	-0.119
-134.385	800.000	-0.057	-0.197
-133.370	-148.378	0.115	-0.009
-132.356	258.207	-0.114	0.195
-131.341	732.940	0.074	-0.196
-130.326	-27.757	-0.328	-0.189
-129.312	-91.899	-0.148	0.042
-128.297	-131.548	0.211	0.027
-127.283	-116.164	0.257	0.047
-126.268	-150.588	-0.375	0.028
-125.253	-200.000	0.093	0.407
-124.239	-200.000	-0.047	0.260
-123.224	800.000	-0.006	0.020
-122.210	350.664	-0.075	-0.147
-121.195	71.160	-0.212	0.218
-120.180	372.324	0.115	0.232
-119.166	-200.000	-0.004	-0.317
-118.151	209.135	-0.114	0.176
-117.137	175.893	-0.084	0.121
-116.122	17.072	-0.148	0.116
-115.107	51.921	-0.153	-0.144
-114.093	480.500	-0.100	-0.225
-113.078	285.878	-0.097	-0.174
-112.064	800.000	0.075	0.220
-111.049	-44.659	-0.131	0.065
-110.034	-200.000	0.006	-0.096
-109.020	-105.957	-0.279	-0.062
-108.005	-84.296	-0.055	-0.017
-106.991	-200.000	-0.043	-0.247
-105.976	464.057	0.193	-0.427
-104.962	-200.000	-0.012	0.142
-103.947	-24.133	0.303	0.179
-102.932	-200.000	-0.025	0.235
-101.918	250.547	0.060	0.101
-100.903	98.420	0.146	-0.167
-99.889	-66.105	0.180	-0.071
-98.874	378.579	0.082	0.165
-97.859	-200.000	-0.021	0.098
-96.845	-12.615	0.098	-0.064
-95.830	-81.440	0.194	0.063
-94.816	-200.000	-0.016	0.178
-93.801	-200.000	-0.007	-0.205
-92.786	55.602	0.282	0.270
-91.772	-36.133	-0.285	0.152
-90.757	74.738	0.108	-0.112
-89.743	90.024	-0.126	-0.139
-88.728	9.772	-0.193	0.145
-87.713	-177.876	0.358	0.008
-86.699	-81.060	0.072	-0.023
-85.684	-200.000	-0.062	-0.316
-84.670	800.000	-0.052	0.202
-83.655	176.398	-0.308	0.442
-82.640	67.965	0.060	-0.061
-81.626	800.000	-0.045	-0.126
-80.611	-102.798	0.072	-0.017
-79.597	-6.379	0.115	-0.078
-78.582	54.501	0.068	0.065
-77.567	-89.223	-0.138	0.040
-76.553	116.087	-0.116	0.140
-75.538	800.000	-0.095	0.360
-74.524	12.062	0.076	0.058
-73.509	-200.000	0.064	0.382
-72.494	-44.015	-0.197	-0.098
-71.480	-115.962	-0.175	-0.032
-70.465	-101.404	0.245	-0.059
-69.451	289.641	-0.118	0.211
-68.436	-200.000	-0.024	-0.139
-67.422	-200.000	-0.020	-0.367
-66.407	8.058	0.212	-0.158
-65.392	800.000	0.064	-0.180
-64.378	-113.594	-0.295	0.057
-63.363	-24.607	-0.146	-0.086
-62.349	-40.465	-0.226	-0.116
-61.334	45.392	-1.059	-0.965
-60.319	108.088	0.520	0.613
-59.305	800.000	0.174	-0.614
-58.290	264.754	0.427	0.735
-57.276	290.607	0.648	1.163
-56.261	-200.000	87.284	500.912
-55.246	543.148	1377.423	3245.962
-54.232	181.610	2634.710	3829.189
-53.217	111.933	2365.168	2821.452
-52.203	46.305	1974.137	1807.184
-51.188	40.651	1758.383	1565.188
-50.173	37.841	1712.375	1502.552
-49.159	52.808	1754.522	1656.499
-48.144	56.561	1773.549	1703.659
-47.130	40.385	1732.840	1540.133
-46.115	37.438	1718.462	1504.533
-45.100	37.305	1713.658	1499.237
-44.086	37.373	1710.765	1497.173
-43.071	37.250	1708.070	1493.808
-42.057	37.277	1705.340	1491.571
-41.042	37.328	1703.235	1490.065
-40.027	37.315	1701.269	1488.185
-39.013	37.292	1699.008	1485.971
-37.998	37.264	1697.129	1484.051
-36.984	37.346	1695.760	1483.427
-35.969	37.422	1694.310	1482.675
-34.954	37.502	1692.591	1481.724
-33.940	37.478	1690.968	1480.059
-32.925	37.372	1689.129	1477.587
-31.911	37.433	1687.289	1476.379
-30.896	37.464	1685.488	1474.981
-29.881	37.406	1684.097	1473.267
-28.867	37.365	1682.512	1471.509
-27.852	37.418	1681.005	1470.538
-26.838	37.393	1680.036	1469.441
-25.823	37.494	1678.346	1468.664
-24.809	37.456	1677.009	1467.154
-23.794	37.390	1675.241	1465.051
-22.779	37.491	1673.472	1464.203
-21.765	37.500	1672.059	1462.980
-20.750	37.415	1670.221	1460.673
-19.736	37.477	1668.751	1459.793
-18.721	37.522	1667.027	1458.568
-17.706	37.429	1665.953	1456.874
-16.692	37.448	1664.662	1455.831
-15.677	37.428	1663.114	1454.266
-14.663	37.437	1661.671	1453.016
-13.648	37.523	1659.832	1451.988
-12.633	37.448	1658.845	1450.507
-11.619	37.419	1657.754	1449.282
-10.604	37.512	1655.512	1447.955
-9.590	37.567	1653.880	1446.882
-8.575	37.462	1652.912	1445.198
-7.560	37.589	1651.103	1444.504
-6.546	37.519	1650.344	1443.259
-5.531	37.441	1649.764	1442.113
-4.517	37.451	1648.268	1440.827
-3.502	37.448	1647.054	1439.689
-2.487	37.613	1644.846	1438.919
-1.473	37.138	1633.460	1425.414
-0.458	33.974	1611.905	1383.565
0.556	27.259	1610.852	1343.512
1.571	24.432	1634.993	1342.296
2.586	23.651	1649.374	1348.055
3.600	21.126	1595.714	1285.504
4.615	11.475	1478.982	1125.157
5.629	1.737	1407.295	1006.406
6.644	-0.277	1397.329	985.968
7.659	-0.253	1395.195	984.528
8.673	-0.386	1394.352	982.974
9.688	-0.423	1392.264	981.175
10.702	-0.624	1389.631	977.919
11.717	2.755	1396.252	1004.648
12.731	12.009	1414.335	1078.730
13.746	17.572	1423.582	1122.446
14.761	17.302	1421.734	1119.110
15.775	17.253	1420.517	1117.731
16.790	17.259	1420.413	1117.590
17.804	17.324	1419.845	1117.471
18.819	17.484	1419.389	1118.063
19.834	17.568	1418.843	1118.085
20.848	17.471	1417.774	1116.508
21.863	17.605	1416.946	1116.635
22.877	17.655	1415.709	1115.892
23.892	17.630	1415.129	1115.173
24.907	17.596	1414.057	1114.007
25.921	17.575	1413.542	1113.361
26.936	17.536	1412.296	1112.028
27.950	17.553	1410.899	1110.942
28.965	17.515	1410.157	1110.014
29.980	17.470	1408.717	1108.490
30.994	17.442	1407.368	1107.144
32.009	17.529	1405.680	1106.285
33.023	17.565	1404.825	1105.745
34.038	17.586	1403.061	1104.395
35.053	17.438	1402.614	1102.992
36.067	17.506	1401.236	1102.250
37.082	17.533	1400.412	1101.677
38.096	17.482	1399.631	1100.635
39.111	17.523	1398.277	1099.738
40.126	17.509	1397.797	1099.174
41.140	17.497	1397.305	1098.610
42.155	17.517	1396.626	1098.112
43.169	17.590	1396.344	1098.259
44.184	17.537	1396.138	1097.661
45.199	17.528	1395.611	1097.092
46.213	17.565	1395.020	1096.766
47.228	17.534	1393.921	1095.606
48.242	17.444	1392.972	1094.187
49.257	17.476	1391.441	1093.094
50.271	17.490	1389.533	1091.586
51.286	17.541	1388.176	1090.747
52.301	17.563	1386.796	1089.712
53.315	17.564	1385.727	1088.776
54.330	17.459	1385.725	1088.011
55.344	17.536	1384.305	1087.289
56.359	17.583	1382.529	1086.101
57.374	17.510	1382.454	1085.481
58.388	17.503	1381.502	1084.591
59.403	17.513	1381.308	1084.405
60.417	17.445	1380.317	1083.098
61.432	17.548	1379.217	1082.793
62.447	17.546	1378.339	1082.000
63.461	17.632	1376.998	1081.392
64.476	17.532	1375.861	1079.774
65.490	17.513	1374.962	1078.849
66.505	17.511	1373.280	1077.421
67.520	17.522	1371.829	1076.256
68.534	17.526	1370.941	1075.491
69.549	17.521	1370.096	1074.703
70.563	17.575	1368.774	1073.908
71.578	17.557	1367.453	1072.668
72.593	17.579	1366.760	1072.165
73.607	17.529	1366.055	1071.205
74.622	17.586	1364.679	1070.385
75.636	17.566	1364.037	1069.661
76.651	17.497	1363.660	1068.844
77.666	17.556	1362.641	1068.316
78.680	17.507	1362.521	1067.820
79.695	17.465	1361.351	1066.545
80.709	17.565	1360.405	1066.338
81.724	17.457	1359.395	1064.777
82.739	17.684	1357.876	1064.913
83.753	17.533	1357.691	1063.724
84.768	17.587	1355.901	1062.567
85.782	17.479	1355.114	1061.183
86.797	17.519	1353.589	1060.143
87.812	17.496	1352.989	1059.441
88.826	17.557	1351.103	1058.246
89.841	17.513	1350.586	1057.475
90.855	17.674	1348.900	1057.061
91.870	17.609	1347.987	1055.846
92.884	17.603	1346.855	1054.832
93.899	17.579	1346.629	1054.412
94.914	17.555	1345.507	1053.289
95.928	17.543	1344.582	1052.402
96.943	17.606	1343.588	1051.918
97.957	17.569	1342.742	1050.936
98.972	17.575	1341.386	1049.818
99.987	17.576	1340.506	1049.042
101.001	17.627	1339.245	1048.274
102.016	17.566	1338.385	1047.134
103.030	17.514	1337.040	1045.672
104.045	17.597	1336.129	1045.372
105.060	17.685	1334.809	1044.789
106.074	17.705	1333.978	1044.166
107.089	17.517	1333.136	1042.264
108.103	17.629	1331.488	1041.573
109.118	17.771	1329.840	1041.055
110.133	17.624	1328.958	1039.374
111.147	17.607	1327.741	1038.227
112.162	17.657	1326.291	1037.309
113.176	17.716	1324.979	1036.547
114.191	17.726	1324.544	1036.175
115.206	17.696	1323.032	1034.723
116.220	17.647	1321.856	1033.410
117.235	17.648	1320.767	1032.475
118.249	17.640	1319.799	1031.581
119.264	17.623	1318.819	1030.618
120.279	17.670	1317.653	1029.901
121.293	17.701	1316.540	1029.130
122.308	17.634	1314.994	1027.425
123.322	17.667	1313.619	1026.454
124.337	17.632	1312.735	1025.467
125.352	17.696	1311.828	1025.048
126.366	17.811	1310.546	1024.650
127.381	17.713	1309.285	1022.982
128.395	17.757	1308.352	1022.429
129.410	17.768	1307.405	1021.661
130.424	17.643	1307.095	1020.583
131.439	17.830	1305.221	1020.148
132.454	17.611	1304.777	1018.401
133.468	17.653	1304.056	1018.002
134.483	17.687	1302.835	1017.156
135.497	17.642	1302.206	1016.307
136.512	17.629	1301.213	1015.366
137.527	17.688	1300.031	1014.704
138.541	17.693	1298.346	1013.328
139.556	17.681	1296.788	1011.954
140.570	17.645	1295.684	1010.790
141.585	17.700	1293.778	1009.538
142.600	17.619	1292.424	1007.915
143.614	17.719	1291.835	1007.959
144.629	17.670	1290.426	1006.477
145.643	17.613	1289.298	1005.172
146.658	17.633	1288.197	1004.342
147.673	17.699	1287.143	1003.820
148.687	17.627	1286.248	1002.613
149.702	17.626	1284.722	1001.327
150.716	17.718	1283.530	1000.848
151.731	17.622	1282.976	999.764
152.746	17.568	1281.736	998.395
153.760	17.694	1280.113	997.780
154.775	17.684	1278.918	996.701
155.789	17.684	1278.195	996.048
156.804	17.650	1276.984	994.817
157.819	17.630	1276.256	994.048
158.833	17.663	1274.874	993.077
159.848	17.658	1274.457	992.634
160.862	17.738	1273.379	992.172
161.877	17.641	1272.493	990.832
162.892	17.724	1271.611	990.537
163.906	17.747	1270.473	989.698
164.921	17.767	1269.920	989.297
165.935	17.748	1268.707	988.155
166.950	17.724	1268.443	987.718
167.964	17.658	1267.904	986.830
168.979	17.840	1266.481	986.688
169.994	17.707	1266.179	985.598
171.008	17.709	1265.713	985.158
172.023	17.874	1264.552	985.120
173.037	17.887	1263.441	984.244
174.052	17.757	1263.322	983.312
175.067	17.760	1262.270	982.426
176.081	17.764	1261.443	981.717
177.096	17.766	1260.755	981.110
178.110	17.763	1259.810	980.266
179.125	17.909	1258.318	979.857
180.140	17.893	1257.159	978.779
181.154	17.798	1256.568	977.683
182.169	17.839	1254.762	976.429
183.183	17.875	1253.859	975.847
184.198	17.804	1252.959	974.653
185.213	17.840	1251.918	973.964
186.227	17.866	1250.858	973.201
187.242	17.922	1249.940	972.719
188.256	17.841	1249.204	971.600
189.271	17.843	1248.245	970.778
190.286	17.888	1247.880	970.666
191.300	17.853	1247.360	969.975
192.315	17.706	1246.882	968.680
193.329	17.872	1246.417	969.179
194.344	17.830	1245.750	968.337
195.359	17.855	1245.111	967.894
196.373	17.833	1244.345	967.086
197.388	17.813	1244.106	966.702
198.402	17.761	1243.735	966.036
199.417	17.853	1242.830	965.770
200.432	17.891	1242.471	965.618
201.446	17.836	1241.781	964.688
202.461	17.922	1240.247	963.892
203.475	17.836	1239.963	963.103
204.490	17.826	1238.580	961.886
205.504	17.817	1237.886	961.212
206.519	17.925	1236.498	960.659
207.534	18.008	1235.332	960.130
208.548	17.854	1234.653	958.654
209.563	17.890	1234.057	958.307
210.577	17.875	1233.044	957.356
211.592	17.856	1232.406	956.669
212.607	17.919	1231.359	956.122
213.621	17.956	1230.786	955.802
214.636	18.025	1229.722	955.274
215.650	17.882	1229.115	953.923
216.665	17.969	1227.730	953.249
217.680	17.922	1226.954	952.299
218.694	17.958	1226.351	951.945
219.709	18.022	1225.255	951.369
220.723	17.980	1224.587	950.533
221.738	17.911	1223.859	949.496
222.753	17.969	1222.602	948.758
223.767	17.887	1222.473	948.120
224.782	18.019	1222.155	948.524
225.796	18.120	1221.390	948.407
226.811	17.977	1220.732	947.020
227.826	17.914	1220.469	946.380
228.840	17.940	1219.731	945.871
229.855	17.967	1218.775	945.192
230.869	18.014	1218.218	944.938
231.884	18.113	1216.903	944.382
232.899	18.094	1216.244	943.681
233.913	18.097	1215.983	943.415
234.928	18.169	1215.445	943.310
235.942	18.246	1214.466	942.892
236.957	18.021	1214.306	941.443
237.972	18.222	1212.904	941.380
238.986	18.111	1212.364	940.262
240.001	18.239	1211.903	940.527
241.015	18.156	1210.944	939.243
242.030	18.163	1210.435	938.803
243.045	18.180	1209.688	938.236
244.059	18.165	1208.664	937.275
245.074	18.232	1208.030	937.071
246.088	18.215	1206.951	936.056
247.103	18.300	1206.179	935.838
248.117	18.157	1205.482	934.434
249.132	18.244	1204.329	933.932
250.147	18.177	1204.183	933.371
251.161	18.353	1202.800	933.176
252.176	18.237	1202.658	932.353
253.190	18.351	1201.738	932.175
254.205	18.301	1201.218	931.420
255.220	18.137	1200.910	930.207
256.234	18.299	1200.075	930.357
257.249	18.302	1199.479	929.829
258.263	18.241	1199.164	929.170
259.278	18.276	1198.506	928.768
260.293	18.314	1197.886	928.414
261.307	18.331	1197.019	927.751
262.322	18.314	1196.586	927.242
263.336	18.270	1195.933	926.415
264.351	18.322	1195.041	925.922
265.366	18.246	1194.531	925.031
266.380	18.377	1193.707	925.020
267.395	18.359	1192.891	924.211
268.409	18.354	1192.504	923.803
269.424	18.342	1191.837	923.139
270.439	18.306	1191.464	922.572
271.453	18.295	1190.692	921.836
272.468	18.374	1189.291	921.097
273.482	18.295	1189.070	920.415
274.497	18.346	1188.404	920.091
275.512	18.371	1188.043	919.868
276.526	18.302	1187.344	918.874
277.541	18.402	1186.570	918.728
278.555	18.405	1185.799	918.068
279.570	18.442	1184.981	917.549
280.585	18.419	1183.693	916.351
281.599	18.410	1183.488	916.065
282.614	18.459	1182.116	915.183
283.628	18.479	1181.207	914.505
284.643	18.519	1180.525	914.106
285.657	18.350	1179.882	912.627
286.672	18.398	1178.572	911.789
287.687	18.515	1177.671	911.634
288.701	18.511	1177.200	911.168
289.716	18.562	1176.618	910.909
290.730	18.560	1176.287	910.561
291.745	18.591	1175.062	909.694
292.760	18.641	1174.385	909.357
293.774	18.574	1174.119	908.712
294.789	18.536	1173.552	907.993
295.803	18.620	1172.623	907.636
296.818	18.650	1171.836	907.109
297.833	18.563	1171.343	906.184
298.847	18.676	1170.344	905.932
299.862	18.660	1169.541	905.142
300.876	18.687	1169.134	904.894
301.891	18.710	1168.566	904.492
302.906	18.783	1167.655	904.090
303.920	18.677	1167.148	903.060
304.935	18.720	1166.304	902.556
305.949	18.689	1165.411	901.619
306.964	18.739	1165.024	901.505
307.979	18.619	1164.730	900.567
308.993	18.698	1163.794	900.178
310.008	18.654	1163.020	899.269
311.022	18.719	1162.459	899.097
312.037	18.693	1161.672	898.271
313.052	18.637	1160.550	897.034
314.066	18.679	1159.527	896.380
315.081	18.809	1158.475	896.168
316.095	18.676	1158.324	895.277
317.110	18.739	1157.402	894.815
318.125	18.885	1156.576	894.858
319.139	18.766	1156.277	893.926
320.154	18.782	1155.467	893.302
321.168	18.833	1155.047	893.167
322.183	18.767	1154.459	892.291
323.197	18.838	1153.887	892.139
324.212	18.770	1153.056	891.062
325.227	18.810	1152.361	890.656
326.241	18.786	1152.073	890.227
327.256	18.902	1151.117	890.010
328.270	18.864	1150.120	888.967
329.285	18.958	1149.232	888.685
330.300	18.874	1148.647	887.721
331.314	18.810	1147.604	886.504
332.329	18.926	1146.647	886.285
333.343	18.876	1145.913	885.385
334.358	18.746	1145.234	884.110
335.373	18.763	1144.499	883.555
336.387	18.929	1144.017	883.954
337.402	18.854	1143.535	883.118
338.416	18.950	1142.591	882.802
339.431	19.029	1141.695	882.439
340.446	19.026	1141.310	882.048
341.460	18.955	1140.552	881.021
342.475	19.055	1139.561	880.692
343.489	19.038	1138.532	879.732
344.504	18.917	1138.131	878.723
345.519	18.968	1136.905	877.960
346.533	19.027	1136.404	877.794
347.548	19.047	1135.921	877.447
348.562	19.097	1134.707	876.687
349.577	19.117	1134.051	876.204
350.592	19.057	1133.133	875.110
351.606	19.102	1132.596	874.850
352.621	19.141	1131.668	874.252
353.635	19.185	1131.367	874.164
354.650	19.154	1130.601	873.341
355.665	19.182	1129.742	872.743
356.679	19.101	1129.651	872.183
357.694	19.249	1128.885	872.262
358.708	19.087	1128.431	871.017
359.723	19.059	1127.545	870.112
360.738	19.146	1126.783	869.889
361.752	19.111	1126.397	869.335
362.767	19.188	1125.718	869.123
363.781	19.124	1125.476	868.535
364.796	19.237	1124.519	868.291
365.810	19.215	1123.992	867.696
366.825	19.259	1123.129	867.175
367.840	19.152	1122.958	866.428
368.854	19.278	1122.240	866.431
369.869	19.320	1121.420	865.932
370.883	19.311	1120.989	865.479
371.898	19.251	1120.041	864.371
372.913	19.210	1119.717	863.834
373.927	19.274	1119.070	863.579
374.942	19.401	1118.247	863.506
375.956	19.344	1117.552	862.607
376.971	19.270	1117.008	861.739
377.986	19.288	1116.223	861.147
379.000	19.431	1115.761	861.428
380.015	19.450	1115.351	861.130
381.029	19.374	1114.829	860.274
382.044	19.421	1114.094	859.865
383.059	19.316	1113.516	858.820
384.073	19.400	1112.570	858.434
385.088	19.469	1111.610	857.960
386.102	19.529	1110.571	857.377
387.117	19.459	1109.883	856.423
388.132	19.457	1108.794	855.500
389.146	19.504	1108.647	855.543
390.161	19.534	1107.802	854.965
391.175	19.467	1106.950	853.899
392.190	19.581	1106.121	853.748
393.205	19.413	1105.789	852.583
394.219	19.498	1104.667	852.064
395.234	19.613	1103.331	851.524
396.248	19.536	1102.845	850.697
397.263	19.519	1101.791	849.725
398.278	19.635	1101.317	849.853
399.292	19.588	1100.836	849.174
400.307	19.721	1099.882	849.019
401.321	19.546	1099.457	847.758
402.336	19.756	1098.483	847.959
403.350	19.578	1097.912	846.571
404.365	19.676	1096.983	846.260
405.380	19.744	1096.209	845.920
406.394	19.687	1095.853	845.290
407.409	19.698	1095.205	844.773
408.423	19.739	1093.991	843.959
409.438	19.715	1093.515	843.400
410.453	19.660	1093.124	842.756
411.467	19.729	1092.333	842.411
412.482	19.609	1091.673	841.242
413.496	19.663	1090.824	840.777
414.511	19.675	1089.898	840.046
415.526	19.779	1089.226	839.956
416.540	19.866	1089.110	840.215
417.555	19.945	1088.352	839.943
418.569	19.932	1087.879	839.439
419.584	19.894	1087.391	838.804
420.599	19.908	1087.068	838.548
421.613	144.473	1394.232	1781.996
422.628	133.711	1438.986	1782.133
