DTS Sentinel unit serial number:	SN413079Multiplexer serial number:	ORYXHardware model number:	OX4-SRSoftware version number:	ORYX F/W v4.00 Oryx Data Collector v3.7.2.0data status	okinstallation	princeton_trtdifferential loss correction	single-endedforward channel	channel 2reverse channel	N/Adate	2019/09/11time	23:49:11forward acquisition time	60.00reverse acquisition time	0.00gamma	496.2192k internal	0.2325k external	0.2325temperature offset calibration	1.0084default loss term (dB/km)	0.3790temperature slope calibration	1.0000multiplexer offset coefficient	1.0000multiplexer slope coefficient	1.0000fibre end	0.00T internal ref (°C)	33.94T ext. ref 1 (°C)	1.97T ext. ref 2 (°C)	27.39length (m)	temperature (°C)	Stokes	anti-Stokes-747.200	86.349	0.254	-0.282
-746.185	12.399	-0.199	0.154
-745.171	-86.005	0.256	-0.080
-744.156	20.106	-0.019	0.015
-743.142	36.247	-0.179	0.159
-742.127	156.261	0.239	0.333
-741.112	38.539	0.130	0.117
-740.098	-69.615	0.236	0.091
-739.083	800.000	-0.044	0.163
-738.069	114.256	0.153	0.188
-737.054	63.015	-0.403	0.408
-736.039	-191.398	-0.155	0.002
-735.025	85.258	0.278	0.307
-734.010	487.937	-0.029	0.068
-732.996	-200.000	0.018	0.130
-731.981	58.714	0.116	-0.115
-730.966	-31.288	-0.178	-0.101
-729.952	-122.770	0.012	0.002
-728.937	-200.000	0.025	0.332
-727.923	-72.638	-0.125	0.047
-726.908	216.016	0.147	-0.236
-725.894	102.578	0.120	0.141
-724.879	-128.345	-0.216	-0.031
-723.864	800.000	-0.074	-0.218
-722.850	104.125	0.089	0.106
-721.835	-81.766	-0.108	-0.036
-720.821	473.768	0.105	0.239
-719.806	684.272	-0.021	0.056
-718.791	-115.254	-0.145	0.028
-717.777	401.398	0.094	0.198
-716.762	-36.709	-0.213	0.115
-715.748	-132.505	-0.032	0.004
-714.733	85.641	-0.033	-0.037
-713.718	-115.777	-0.078	0.015
-712.704	-200.000	0.034	-0.258
-711.689	-43.911	-0.318	-0.161
-710.675	418.189	-0.037	0.079
-709.660	-87.710	0.198	0.060
-708.645	407.621	0.082	0.175
-707.631	-200.000	-0.004	-0.084
-706.616	-15.864	-0.163	-0.105
-705.602	-28.918	0.165	0.096
-704.587	17.427	0.122	0.097
-703.572	-100.823	0.234	-0.058
-702.558	800.000	0.053	0.177
-701.543	211.314	-0.193	0.306
-700.529	-149.816	0.287	0.023
-699.514	-19.736	0.047	-0.029
-698.499	38.981	0.190	-0.171
-697.485	38.014	0.158	-0.142
-696.470	-95.172	-0.298	-0.081
-695.456	-133.471	-0.214	-0.027
-694.441	81.977	-0.165	-0.180
-693.426	-77.471	0.109	-0.038
-692.412	-4.916	-0.194	-0.134
-691.397	-100.937	0.206	0.051
-690.383	24.476	-0.361	-0.300
-689.368	715.208	0.068	-0.182
-688.354	-151.269	-0.394	-0.030
-687.339	-176.864	-0.479	-0.012
-686.324	800.000	0.089	-0.290
-685.310	21.272	0.203	0.166
-684.295	120.005	0.132	-0.165
-683.281	153.657	-0.080	-0.110
-682.266	800.000	0.055	-0.222
-681.251	-200.000	0.018	0.091
-680.237	-157.180	-0.184	-0.011
-679.222	18.812	0.152	-0.122
-678.208	-94.970	0.126	-0.034
-677.193	-64.015	-0.337	0.138
-676.178	-200.000	-0.039	0.196
-675.164	204.659	0.154	0.241
-674.149	-105.840	-0.016	-0.004
-673.135	191.465	0.187	0.284
-672.120	69.311	0.194	0.201
-671.105	-48.717	-0.310	-0.150
-670.091	-2.960	-0.526	0.370
-669.076	800.000	0.062	0.178
-668.062	-56.308	-0.139	-0.062
-667.047	-115.500	-0.500	0.095
-666.032	-200.000	0.337	-0.001
-665.018	622.045	0.096	0.242
-664.003	-17.142	0.077	-0.049
-662.989	3.043	0.154	-0.113
-661.974	236.059	0.145	-0.241
-660.959	76.190	0.115	0.122
-659.945	-183.282	-0.354	0.006
-658.930	-109.306	-0.203	-0.043
-657.916	800.000	-0.139	-0.430
-656.901	800.000	0.071	-0.280
-655.886	229.024	0.085	-0.139
-654.872	18.168	-0.175	-0.140
-653.857	46.890	0.179	0.167
-652.843	182.595	-0.178	-0.265
-651.828	57.056	-0.171	0.167
-650.814	95.624	-0.192	0.220
-649.799	314.025	-0.048	0.090
-648.784	67.426	0.057	0.059
-647.770	-46.733	-0.169	-0.083
-646.755	-200.000	-0.029	0.215
-645.741	277.305	0.083	0.148
-644.726	-119.974	-0.171	0.029
-643.711	-200.000	0.043	-0.368
-642.697	8.947	-0.070	0.053
-641.682	-86.035	0.319	-0.099
-640.668	-106.408	0.083	-0.019
-639.653	-17.740	0.050	-0.032
-638.638	-129.237	-0.285	-0.040
-637.624	195.857	0.149	0.227
-636.609	-110.912	-0.218	-0.045
-635.595	25.834	-0.181	0.152
-634.580	-181.933	0.254	0.005
-633.565	-137.780	-0.212	0.024
-632.551	-15.297	0.082	-0.053
-631.536	-68.041	0.220	0.086
-630.522	42.919	-0.286	0.262
-629.507	-12.116	-0.102	0.067
-628.492	30.569	0.097	-0.083
-627.478	-200.000	0.002	-0.165
-626.463	-68.951	0.063	-0.024
-625.449	-127.723	0.240	0.035
-624.434	-152.948	-0.319	0.023
-623.419	39.726	-0.094	0.085
-622.405	142.708	-0.038	-0.051
-621.390	343.471	0.170	0.334
-620.376	84.689	0.067	0.074
-619.361	23.711	0.047	0.039
-618.346	-86.549	0.313	-0.096
-617.332	-88.147	0.098	-0.030
-616.317	-102.349	0.213	0.051
-615.303	90.885	-0.323	-0.363
-614.288	306.154	0.161	-0.301
-613.273	19.638	0.214	-0.173
-612.259	42.302	0.078	-0.071
-611.244	-88.069	-0.343	0.103
-610.230	4.092	0.018	-0.013
-609.215	-103.490	-0.084	0.020
-608.201	249.144	0.154	0.262
-607.186	19.475	0.262	-0.211
-606.171	-200.000	0.023	-0.288
-605.157	-62.981	0.178	-0.074
-604.142	13.763	0.203	-0.158
-603.128	454.470	-0.182	-0.405
-602.113	800.000	-0.046	0.160
-601.098	-10.113	-0.393	0.262
-600.084	-140.989	-0.123	-0.013
-599.069	-200.000	0.006	-0.067
-598.055	239.059	-0.156	0.260
-597.040	82.795	-0.071	-0.077
-596.025	-35.465	0.252	0.137
-595.011	-109.118	0.127	0.027
-593.996	-200.000	0.059	-0.401
-592.982	327.694	-0.062	-0.120
-591.967	800.000	0.040	0.155
-590.952	8.075	-0.143	-0.107
-589.938	614.364	0.121	0.304
-588.923	-22.822	-0.303	-0.183
-587.909	-24.337	-0.229	-0.137
-586.894	15.508	-0.077	0.060
-585.879	-115.538	-0.124	-0.023
-584.865	-105.684	0.265	0.060
-583.850	-200.000	0.051	-0.307
-582.836	-200.000	0.006	-0.253
-581.821	-6.442	0.214	0.146
-580.806	-200.000	-0.075	-0.404
-579.792	45.446	-0.115	0.106
-578.777	-92.515	-0.290	-0.082
-577.763	-200.000	-0.026	-0.148
-576.748	-118.420	-0.098	-0.017
-575.733	-60.146	-0.222	-0.095
-574.719	-69.289	0.237	-0.091
-573.704	12.210	-0.105	-0.081
-572.690	-100.804	-0.120	0.030
-571.675	-200.000	-0.042	0.220
-570.661	800.000	-0.048	0.193
-569.646	800.000	0.030	-0.115
-568.631	-118.266	0.304	0.054
-567.617	-191.189	-0.163	-0.002
-566.602	-32.504	-0.174	-0.097
-565.588	-200.000	-0.012	-0.078
-564.573	400.214	-0.034	-0.072
-563.558	37.948	-0.264	-0.236
-562.544	215.344	-0.155	0.246
-561.529	359.335	-0.033	-0.066
-560.515	800.000	0.023	0.095
-559.500	203.532	0.181	0.280
-558.485	-200.000	-0.018	-0.151
-557.471	30.369	0.077	0.066
-556.456	-54.517	-0.079	0.036
-555.442	-74.603	-0.152	-0.055
-554.427	170.780	0.087	0.125
-553.412	653.015	-0.076	-0.196
-552.398	-190.124	-0.386	-0.004
-551.383	-66.282	0.184	0.073
-550.369	-200.000	0.006	0.110
-549.354	269.400	-0.085	-0.149
-548.339	-22.022	0.217	0.132
-547.325	71.901	0.124	-0.130
-546.310	-107.667	0.031	-0.007
-545.296	-94.673	-0.196	0.053
-544.281	-200.000	0.012	0.098
-543.266	-117.347	-0.106	0.019
-542.252	-153.180	0.222	-0.016
-541.237	167.067	-0.165	-0.234
-540.223	620.285	0.042	0.106
-539.208	183.465	0.101	-0.150
-538.193	-102.106	0.095	0.023
-537.179	-200.000	-0.026	0.197
-536.164	80.260	0.139	0.149
-535.150	-85.747	-0.191	0.059
-534.135	-66.331	-0.281	0.112
-533.121	162.761	0.206	0.290
-532.106	135.515	0.128	-0.167
-531.091	-84.012	-0.227	0.072
-530.077	308.214	0.166	-0.309
-529.062	103.661	-0.119	-0.140
-528.048	41.492	0.170	-0.154
-527.033	-48.316	0.079	-0.038
-526.018	115.253	-0.088	-0.108
-525.004	-96.569	0.230	-0.061
-523.989	800.000	0.059	0.189
-522.975	709.020	-0.022	-0.057
-521.960	800.000	-0.107	-0.322
-520.945	-57.942	-0.126	-0.055
-519.931	-200.000	-0.050	0.277
-518.916	800.000	-0.036	-0.110
-517.902	-200.000	-0.051	0.255
-516.887	-200.000	0.024	0.243
-515.872	399.586	0.105	0.221
-514.858	-200.000	-0.020	0.239
-513.843	-200.000	0.011	-0.177
-512.829	-200.000	0.027	-0.276
-511.814	196.397	0.160	0.243
-510.799	-122.496	0.204	0.033
-509.785	-87.847	-0.165	0.050
-508.770	-200.000	-0.018	0.216
-507.756	-200.000	-0.029	-0.317
-506.741	-0.377	-0.149	-0.106
-505.726	800.000	-0.034	-0.127
-504.712	-14.221	0.449	0.289
-503.697	76.737	-0.064	0.068
-502.683	800.000	-0.089	0.265
-501.668	-10.938	-0.100	0.066
-500.653	247.388	0.115	-0.195
-499.639	6.216	0.220	0.163
-498.624	-45.595	-0.299	-0.148
-497.610	121.411	0.140	0.175
-496.595	-200.000	0.036	-0.300
-495.581	4.149	-0.223	0.163
-494.566	25.026	0.260	0.216
-493.551	66.132	0.178	-0.180
-492.537	21.677	-0.167	0.135
-491.522	-163.633	0.462	-0.022
-490.508	-200.000	0.087	-0.419
-489.493	-173.830	-0.196	0.006
-488.478	744.284	-0.138	-0.372
-487.464	-83.321	-0.186	-0.059
-486.449	59.039	0.230	0.226
-485.435	-200.000	-0.029	-0.295
-484.420	-64.854	0.358	-0.145
-483.405	-200.000	0.035	-0.217
-482.391	-13.579	0.143	0.093
-481.376	126.828	0.154	-0.195
-480.362	-200.000	0.011	0.232
-479.347	800.000	0.058	0.229
-478.332	-82.941	-0.420	-0.135
-477.318	42.127	0.075	-0.068
-476.303	-200.000	0.014	-0.230
-475.289	-31.734	0.086	0.048
-474.274	-26.948	-0.246	0.143
-473.259	-44.791	0.219	0.109
-472.245	-200.000	0.066	-0.377
-471.230	116.541	0.128	-0.156
-470.216	800.000	0.055	-0.173
-469.201	425.911	0.100	0.216
-468.186	-148.454	0.209	-0.017
-467.172	218.059	-0.165	0.262
-466.157	250.025	-0.077	0.130
-465.143	-161.757	-0.324	-0.016
-464.128	-101.363	-0.077	0.019
-463.113	-200.000	-0.059	-0.271
-462.099	97.038	0.203	0.233
-461.084	100.147	0.072	0.083
-460.070	-200.000	-0.010	-0.193
-459.055	-200.000	-0.029	0.147
-458.040	7.107	-0.309	0.230
-457.026	237.131	0.031	0.051
-456.011	-130.894	-0.146	-0.019
-454.997	-27.528	0.140	0.081
-453.982	-200.000	0.069	-0.400
-452.968	129.508	-0.122	-0.155
-451.953	-200.000	0.006	0.052
-450.938	800.000	-0.087	-0.250
-449.924	392.900	0.046	0.096
-448.909	-200.000	0.027	-0.185
-447.895	427.624	0.102	-0.220
-446.880	-130.409	-0.261	0.035
-445.865	5.622	0.181	0.134
-444.851	534.447	0.149	0.353
-443.836	-112.816	0.396	-0.078
-442.822	77.171	-0.263	0.279
-441.807	-93.427	0.134	-0.037
-440.792	-76.207	-0.171	0.060
-439.778	-200.000	0.016	-0.123
-438.763	170.343	0.082	-0.116
-437.749	-72.215	-0.077	-0.029
-436.734	-200.000	0.034	-0.278
-435.719	-200.000	-0.019	-0.127
-434.705	76.163	-0.240	-0.253
-433.690	-200.000	0.032	0.178
-432.676	712.234	-0.110	0.292
-431.661	-183.642	0.231	0.004
-430.646	48.298	0.033	0.031
-429.632	-18.599	0.186	-0.116
-428.617	101.823	-0.078	0.090
-427.603	-85.278	-0.108	0.034
-426.588	-46.550	-0.210	-0.103
-425.573	-200.000	-0.019	0.163
-424.559	-58.415	-0.104	0.045
-423.544	800.000	-0.128	0.352
-422.530	579.608	-0.057	-0.139
-421.515	-200.000	0.015	0.210
-420.500	397.080	-0.091	0.190
-419.486	-110.667	0.231	-0.048
-418.471	-94.790	0.316	0.085
-417.457	-130.061	-0.116	-0.016
-416.442	-11.765	-0.179	0.117
-415.428	333.117	0.034	-0.065
-414.413	-200.000	-0.081	-0.409
-413.398	68.847	-0.231	0.236
-412.384	241.034	-0.064	-0.107
-411.369	-32.657	0.150	0.083
-410.355	-0.351	0.502	-0.355
-409.340	-112.395	0.106	-0.021
-408.325	800.000	0.087	-0.265
-407.311	-200.000	-0.016	-0.268
-406.296	-50.807	-0.086	-0.040
-405.282	-34.488	-0.155	0.084
-404.267	-5.508	-0.099	-0.068
-403.252	238.085	0.159	-0.263
-402.238	-10.444	0.314	0.207
-401.223	204.941	-0.147	0.228
-400.209	363.607	0.139	0.277
-399.194	-162.911	-0.209	-0.010
-398.179	-200.000	0.020	0.233
-397.165	800.000	-0.083	-0.276
-396.150	99.566	-0.088	0.101
-395.136	10.887	0.179	0.136
-394.121	-200.000	0.000	0.190
-393.106	20.149	-0.099	-0.079
-392.092	-60.676	0.133	-0.056
-391.077	-110.534	-0.216	0.044
-390.063	-192.971	0.281	-0.003
-389.048	800.000	0.045	-0.137
-388.033	777.764	-0.045	0.121
-387.019	-32.613	0.193	0.107
-386.004	125.729	-0.114	0.143
-384.990	-200.000	-0.037	0.230
-383.975	171.435	0.049	0.069
-382.960	58.230	0.049	-0.048
-381.946	74.656	0.191	-0.200
-380.931	-200.000	-0.030	-0.286
-379.917	-132.307	0.312	-0.040
-378.902	-68.608	0.368	-0.142
-377.888	800.000	0.126	0.388
-376.873	-76.834	0.363	0.126
-375.858	147.394	-0.098	-0.131
-374.844	800.000	0.035	-0.112
-373.829	-200.000	0.043	-0.232
-372.815	-8.586	-0.148	0.099
-371.800	242.113	-0.144	0.240
-370.785	-29.943	0.203	0.115
-369.771	47.516	-0.148	0.137
-368.756	800.000	0.048	0.159
-367.742	113.225	0.101	0.122
-366.727	-143.413	0.258	0.025
-365.712	-200.000	0.024	0.162
-364.698	0.602	-0.114	0.081
-363.683	-100.635	-0.065	-0.016
-362.669	-200.000	-0.200	0.000
-361.654	-105.048	-0.239	-0.054
-360.639	800.000	-0.020	0.059
-359.625	113.337	-0.286	-0.346
-358.610	3.106	-0.223	0.161
-357.596	-13.846	0.203	-0.130
-356.581	-62.244	0.049	-0.020
-355.566	-26.959	-0.204	-0.119
-354.552	-52.353	-0.100	-0.046
-353.537	-81.934	-0.024	-0.008
-352.523	-116.282	0.266	0.049
-351.508	800.000	0.067	0.201
-350.493	800.000	-0.095	0.277
-349.479	604.083	0.042	-0.105
-348.464	-29.019	-0.069	-0.039
-347.450	800.000	-0.088	0.376
-346.435	-200.000	-0.052	0.297
-345.420	-188.095	0.059	0.001
-344.406	-79.479	0.110	0.037
-343.391	-98.489	-0.234	0.059
-342.377	-174.782	-0.252	0.007
-341.362	-115.964	-0.175	-0.032
-340.348	-81.987	-0.126	-0.041
-339.333	-33.317	-0.091	0.050
-338.318	46.060	-0.263	-0.242
-337.304	-108.230	0.351	0.075
-336.289	-19.934	-0.163	-0.100
-335.275	25.593	-0.116	-0.096
-334.260	-200.000	0.020	-0.277
-333.245	-73.269	-0.257	-0.093
-332.231	800.000	0.022	0.085
-331.216	-81.738	-0.144	0.047
-330.202	-26.782	-0.365	-0.212
-329.187	-183.515	-0.311	-0.005
-328.172	-177.710	-0.233	0.006
-327.158	-95.010	0.168	0.045
-326.143	363.690	0.177	0.354
-325.129	565.046	0.089	0.215
-324.114	142.887	-0.093	0.123
-323.099	-6.177	0.091	-0.062
-322.085	341.806	0.129	0.249
-321.070	139.836	-0.087	0.114
-320.056	139.431	-0.113	0.148
-319.041	148.681	0.087	-0.117
-318.026	-7.591	-0.037	0.025
-317.012	-17.587	-0.184	-0.115
-315.997	219.998	0.209	0.333
-314.983	-200.000	-0.021	0.159
-313.968	-35.638	-0.234	0.126
-312.953	-133.970	-0.221	-0.027
-311.939	545.647	-0.097	0.231
-310.924	-169.716	-0.355	-0.013
-309.910	800.000	0.046	0.199
-308.895	-46.354	0.194	0.095
-307.880	38.325	-0.115	0.102
-306.866	-131.560	0.123	0.016
-305.851	-200.000	0.011	0.149
-304.837	125.823	0.121	-0.152
-303.822	-160.584	-0.173	0.009
-302.807	800.000	-0.080	0.305
-301.793	51.103	-0.161	0.152
-300.778	151.926	-0.144	-0.194
-299.764	-104.041	-0.230	-0.053
-298.749	800.000	0.071	-0.298
-297.735	1.087	0.235	0.167
-296.720	800.000	0.057	0.166
-295.705	100.242	-0.032	0.037
-294.691	-102.133	0.189	0.045
-293.676	-200.000	0.012	-0.100
-292.662	136.578	0.264	-0.342
-291.647	-200.000	0.016	-0.238
-290.632	-34.184	-0.079	0.043
-289.618	800.000	-0.095	0.332
-288.603	800.000	0.104	0.359
-287.589	314.793	0.109	0.204
-286.574	80.504	0.175	-0.187
-285.559	781.662	0.095	-0.259
-284.545	78.803	-0.118	-0.126
-283.530	-200.000	-0.009	0.160
-282.516	126.045	0.132	-0.165
-281.501	521.781	-0.176	-0.408
-280.486	-10.323	0.397	-0.261
-279.472	-200.000	0.016	0.233
-278.457	68.205	0.080	-0.081
-277.443	-75.946	0.179	0.063
-276.428	-98.609	-0.130	-0.033
-275.413	-154.763	-0.236	0.016
-274.399	-189.052	0.162	-0.002
-273.384	83.532	-0.179	-0.193
-272.370	800.000	0.077	-0.221
-271.355	800.000	-0.025	-0.083
-270.340	800.000	0.062	-0.212
-269.326	-179.125	0.109	-0.002
-268.311	-61.207	0.060	-0.025
-267.297	-200.000	-0.062	-0.470
-266.282	-151.440	0.298	0.022
-265.267	89.095	0.200	-0.221
-264.253	14.504	0.135	0.105
-263.238	-14.400	0.246	-0.157
-262.224	232.060	0.183	-0.297
-261.209	800.000	-0.031	0.113
-260.195	-80.199	0.337	0.112
-259.180	172.590	-0.149	0.212
-258.165	-64.560	-0.245	0.098
-257.151	-200.000	-0.020	0.115
-256.136	-107.776	0.056	-0.012
-255.122	28.397	-0.033	-0.027
-254.107	800.000	-0.118	-0.328
-253.092	200.076	-0.194	-0.295
-252.078	56.036	-0.104	0.100
-251.063	575.090	-0.029	0.069
-250.049	-53.309	0.191	-0.087
-249.034	-200.000	-0.011	-0.057
-248.019	524.379	-0.011	-0.024
-247.005	-148.506	-0.120	0.010
-245.990	-48.270	-0.110	0.053
-244.976	-49.372	0.093	-0.044
-243.961	436.409	-0.066	0.141
-242.946	-131.276	-0.083	0.011
-241.932	800.000	-0.068	-0.207
-240.917	-200.000	0.023	0.288
-239.903	52.318	-0.126	-0.119
-238.888	763.374	0.073	-0.197
-237.873	800.000	0.014	0.054
-236.859	800.000	0.050	-0.205
-235.844	160.244	0.006	-0.008
-234.830	800.000	-0.035	-0.113
-233.815	83.551	0.159	-0.172
-232.800	-45.631	-0.311	-0.152
-231.786	171.726	0.066	0.094
-230.771	-74.383	-0.089	-0.032
-229.757	-127.531	-0.359	-0.051
-228.742	-148.576	0.088	0.007
-227.727	-43.384	0.077	-0.038
-226.713	-46.196	0.033	-0.016
-225.698	-18.719	-0.203	0.125
-224.684	581.261	-0.135	0.328
-223.669	39.563	-0.117	-0.104
-222.655	800.000	-0.060	-0.181
-221.640	133.819	-0.096	0.123
-220.625	-5.598	-0.205	-0.139
-219.611	-200.000	0.034	-0.201
-218.596	-34.289	-0.155	0.084
-217.582	238.996	-0.075	0.124
-216.567	-125.919	0.282	0.042
-215.552	92.366	0.028	0.032
-214.538	235.087	0.109	0.177
-213.523	52.867	0.108	-0.102
-212.509	166.828	-0.248	-0.348
-211.494	127.213	-0.313	0.392
-210.479	-21.023	0.304	0.184
-209.465	-200.000	-0.001	-0.327
-208.450	127.710	-0.175	-0.220
-207.436	219.431	0.131	0.207
-206.421	-27.967	-0.117	0.067
-205.406	-200.000	-0.029	0.382
-204.392	-147.312	0.332	0.028
-203.377	149.045	-0.200	0.268
-202.363	85.800	-0.152	0.165
-201.348	-200.000	-0.020	-0.092
-200.333	-78.198	0.043	0.014
-199.319	517.852	0.121	0.280
-198.304	800.000	0.078	-0.263
-197.290	-4.315	0.053	-0.036
-196.275	-200.000	0.032	-0.143
-195.260	-200.000	0.084	0.525
-194.246	-93.842	0.256	-0.070
-193.231	-33.295	0.188	0.103
-192.217	-200.000	0.058	0.383
-191.202	386.998	-0.119	0.244
-190.187	393.849	-0.071	-0.146
-189.173	-112.200	-0.150	-0.030
-188.158	-200.000	-0.027	0.207
-187.144	-200.000	0.027	-0.299
-186.129	217.950	0.100	0.157
-185.114	800.000	-0.102	-0.336
-184.100	-20.746	0.169	-0.102
-183.085	-144.366	0.344	0.032
-182.071	-200.000	0.011	0.222
-181.056	171.548	0.097	-0.137
-180.042	-42.927	-0.146	0.073
-179.027	1.948	0.117	0.084
-178.012	800.000	-0.072	-0.265
-176.998	-7.837	-0.195	-0.130
-175.983	65.152	-0.110	-0.110
-174.969	-200.000	-0.011	-0.187
-173.954	-43.350	0.066	-0.033
-172.939	800.000	-0.086	0.246
-171.925	-200.000	0.009	0.056
-170.910	-200.000	-0.039	0.216
-169.896	80.050	0.178	0.189
-168.881	-53.593	-0.251	0.113
-167.866	-0.807	0.230	-0.161
-166.852	-15.756	-0.157	-0.099
-165.837	11.162	0.281	-0.212
-164.823	16.643	-0.146	0.114
-163.808	-130.787	0.267	0.035
-162.793	-116.495	0.230	0.042
-161.779	-200.000	0.021	-0.175
-160.764	-124.670	0.420	-0.064
-159.750	-19.018	0.192	0.118
-158.735	-183.396	-0.225	0.004
-157.720	-36.169	-0.133	0.071
-156.706	-200.000	0.009	-0.345
-155.691	135.182	-0.095	-0.122
-154.677	686.107	0.132	0.341
-153.662	-200.000	0.010	0.068
-152.647	-200.000	-0.047	0.223
-151.633	15.408	0.161	-0.125
-150.618	-171.527	-0.122	-0.004
-149.604	-133.091	-0.209	-0.026
-148.589	27.539	-0.070	-0.058
-147.574	138.138	-0.116	0.150
-146.560	-69.743	-0.219	0.082
-145.545	567.266	0.109	0.261
-144.531	-55.653	0.338	0.149
-143.516	-26.035	0.456	0.264
-142.502	800.000	-0.108	0.345
-141.487	-200.000	0.029	0.190
-140.472	-37.576	0.119	-0.063
-139.458	-130.693	-0.461	-0.061
-138.443	-76.957	0.333	0.115
-137.429	142.280	0.206	0.269
-136.414	35.255	0.181	0.156
-135.399	-99.162	0.322	0.080
-134.385	93.525	-0.201	0.224
-133.370	-129.037	-0.380	-0.052
-132.356	800.000	0.065	0.219
-131.341	111.237	0.245	0.291
-130.326	-82.142	-0.323	-0.104
-129.312	65.092	0.093	0.093
-128.297	332.097	-0.060	-0.113
-127.283	-200.000	-0.035	0.173
-126.268	78.898	-0.159	-0.168
-125.253	-179.472	-0.142	0.003
-124.239	800.000	0.042	0.158
-123.224	800.000	-0.038	0.140
-122.210	-200.000	-0.036	0.274
-121.195	190.981	-0.151	-0.223
-120.180	-66.527	0.191	-0.075
-119.166	36.159	0.076	-0.066
-118.151	139.602	-0.186	-0.241
-117.137	-112.739	-0.173	-0.034
-116.122	529.308	-0.066	-0.154
-115.107	137.252	0.108	-0.139
-114.093	56.237	0.139	-0.133
-113.078	89.017	0.187	-0.205
-112.064	728.700	0.069	0.182
-111.049	-200.000	0.023	0.415
-110.034	-79.191	-0.360	0.120
-109.020	-23.959	0.240	0.142
-108.005	-138.842	-0.140	-0.015
-106.991	-28.200	0.056	-0.032
-105.976	-114.176	-0.214	-0.041
-104.962	425.162	-0.070	0.148
-103.947	-190.740	-0.099	-0.001
-102.932	349.150	-0.149	0.289
-101.918	-148.572	-0.421	-0.034
-100.903	29.577	0.211	-0.177
-99.889	800.000	0.061	-0.244
-98.874	86.197	-0.220	-0.239
-97.859	-30.268	0.148	0.082
-96.845	-69.919	0.088	0.033
-95.830	160.696	-0.078	0.106
-94.816	151.682	0.180	0.242
-93.801	800.000	0.059	0.226
-92.786	-92.619	-0.179	-0.049
-91.772	-37.187	0.150	-0.079
-90.757	666.894	0.098	0.248
-89.743	-200.000	0.050	-0.238
-88.728	212.723	0.118	0.183
-87.713	-200.000	-0.004	0.063
-86.699	-3.510	0.107	0.073
-85.684	63.124	0.288	0.284
-84.670	800.000	-0.087	0.343
-83.655	-126.468	0.145	0.021
-82.640	-22.419	-0.131	0.078
-81.626	-58.056	-0.214	-0.092
-80.611	-38.273	0.369	0.192
-79.597	-61.720	0.062	0.025
-78.582	-200.000	-0.015	0.346
-77.567	-121.542	0.255	0.042
-76.553	-68.614	0.350	-0.133
-75.538	-122.866	0.246	0.039
-74.524	-200.000	0.008	-0.228
-73.509	-31.769	0.371	0.204
-72.494	-120.319	-0.168	0.028
-71.480	18.091	0.131	0.103
-70.465	-160.992	0.122	-0.006
-69.451	64.572	0.239	0.237
-68.436	242.303	0.090	-0.149
-67.422	100.675	-0.174	-0.199
-66.407	87.345	-0.190	0.207
-65.392	-39.790	-0.105	-0.054
-64.378	-122.399	0.224	-0.036
-63.363	797.842	-0.106	0.286
-62.349	369.021	-0.088	-0.174
-61.334	23.361	-0.994	-0.803
-60.319	-32.223	0.541	0.297
-59.305	229.559	-0.448	-0.718
-58.290	800.000	0.301	0.852
-57.276	800.000	0.579	1.629
-56.261	-200.000	96.430	580.001
-55.246	550.464	1385.740	3264.503
-54.232	155.841	2585.458	3499.130
-53.217	106.261	2278.121	2650.555
-52.203	43.024	1899.242	1701.054
-51.188	37.196	1690.362	1469.945
-50.173	34.483	1646.408	1411.617
-49.159	52.104	1693.314	1584.356
-48.144	54.325	1709.995	1616.535
-47.130	36.744	1668.853	1447.631
-46.115	33.984	1654.172	1414.336
-45.100	33.830	1649.259	1408.944
-44.086	33.738	1647.051	1406.316
-43.071	33.890	1644.185	1404.939
-42.057	33.852	1641.342	1402.170
-41.042	33.858	1639.451	1400.545
-40.027	33.822	1637.405	1398.478
-39.013	33.851	1635.226	1396.778
-37.998	33.811	1633.602	1395.035
-36.984	33.880	1633.112	1395.068
-35.969	33.886	1631.508	1393.693
-34.954	34.019	1629.310	1392.734
-33.940	33.896	1627.373	1390.116
-32.925	33.926	1626.280	1389.353
-31.911	33.902	1624.562	1387.652
-30.896	33.989	1622.026	1386.065
-29.881	33.812	1621.336	1384.130
-28.867	33.913	1619.167	1382.957
-27.852	33.994	1617.496	1382.069
-26.838	33.848	1616.357	1379.977
-25.823	33.905	1614.630	1378.860
-24.809	34.008	1613.041	1378.199
-23.794	34.000	1612.117	1377.293
-22.779	33.965	1610.258	1375.402
-21.765	33.924	1609.148	1374.096
-20.750	33.921	1607.410	1372.539
-19.736	34.002	1605.714	1371.617
-18.721	33.982	1604.325	1370.237
-17.706	33.980	1603.151	1369.161
-16.692	33.931	1601.394	1367.255
-15.677	33.974	1600.466	1366.722
-14.663	33.939	1599.196	1365.328
-13.648	33.911	1597.417	1363.553
-12.633	33.997	1595.832	1362.765
-11.619	33.992	1594.526	1361.562
-10.604	34.024	1592.677	1360.157
-9.590	34.011	1591.109	1358.670
-8.575	34.008	1590.139	1357.768
-7.560	33.991	1589.515	1357.056
-6.546	33.999	1588.048	1355.810
-5.531	33.924	1587.060	1354.380
-4.517	33.977	1585.596	1353.450
-3.502	33.954	1584.772	1352.528
-2.487	34.012	1582.818	1351.223
-1.473	33.563	1571.201	1338.080
-0.458	30.936	1550.828	1302.347
0.556	27.726	1551.172	1271.435
1.571	25.549	1576.324	1276.504
2.586	25.266	1590.280	1285.663
3.600	22.659	1537.867	1225.094
4.615	13.081	1426.689	1074.396
5.629	3.892	1359.365	966.405
6.644	2.116	1350.938	949.296
7.659	1.989	1349.496	947.408
8.673	1.989	1347.753	946.101
9.688	1.776	1346.581	943.876
10.702	1.625	1343.699	940.836
11.717	5.328	1350.409	968.428
12.731	15.580	1370.217	1046.727
13.746	23.899	1384.355	1109.572
14.761	26.023	1386.727	1124.634
15.775	26.304	1386.367	1125.991
16.790	26.432	1386.010	1126.398
17.804	26.392	1385.387	1125.545
18.819	26.682	1385.248	1127.135
19.834	26.734	1384.662	1126.881
20.848	26.732	1384.178	1126.375
21.863	26.784	1382.969	1125.618
22.877	26.863	1382.082	1125.283
23.892	26.795	1381.269	1124.105
24.907	26.683	1380.789	1122.920
25.921	26.820	1379.400	1122.540
26.936	26.763	1378.642	1121.468
27.950	26.821	1377.420	1120.731
28.965	26.865	1375.712	1119.516
29.980	26.676	1375.176	1117.813
30.994	26.812	1373.517	1117.208
32.009	26.805	1372.766	1116.454
33.023	26.825	1371.610	1115.534
34.038	26.859	1370.215	1114.514
35.053	26.783	1369.367	1113.256
36.067	26.747	1368.821	1112.493
37.082	26.764	1367.604	1111.514
38.096	26.796	1366.857	1111.001
39.111	26.632	1366.572	1109.669
40.126	26.741	1365.774	1109.589
41.140	26.828	1364.869	1109.285
42.155	26.820	1364.762	1109.052
43.169	26.740	1364.535	1108.282
44.184	26.753	1364.350	1108.110
45.199	26.771	1363.846	1107.718
46.213	26.783	1363.147	1107.120
47.228	26.776	1362.083	1106.115
48.242	26.744	1361.008	1104.951
49.257	26.726	1360.073	1103.985
50.271	26.775	1358.098	1102.581
51.286	26.759	1356.932	1101.442
52.301	26.760	1356.125	1100.697
53.315	26.672	1354.926	1099.087
54.330	26.779	1353.703	1098.646
55.344	26.759	1352.737	1097.647
56.359	26.751	1351.859	1096.788
57.374	26.760	1351.251	1096.255
58.388	26.719	1350.775	1095.523
59.403	26.761	1350.330	1095.320
60.417	26.766	1349.825	1094.839
61.432	26.755	1348.902	1093.931
62.447	26.687	1348.026	1092.713
63.461	26.730	1346.974	1092.021
64.476	26.846	1346.119	1091.933
65.490	26.788	1345.311	1090.832
66.505	26.768	1343.168	1088.877
67.520	26.811	1342.097	1088.170
68.534	26.778	1340.873	1086.880
69.549	26.802	1339.803	1086.063
70.563	26.738	1339.118	1085.031
71.578	26.856	1337.956	1084.697
72.593	26.851	1337.162	1083.929
73.607	26.793	1336.467	1082.922
74.622	26.832	1335.584	1082.344
75.636	26.790	1335.108	1081.610
76.651	26.814	1334.609	1081.255
77.666	26.770	1334.396	1080.720
78.680	26.732	1333.570	1079.731
79.695	26.850	1332.757	1079.680
80.709	26.847	1331.588	1078.622
81.724	26.754	1331.022	1077.515
82.739	26.727	1330.084	1076.498
83.753	26.823	1329.012	1076.103
84.768	26.744	1328.182	1074.872
85.782	26.861	1326.880	1074.412
86.797	26.846	1325.929	1073.462
87.812	26.812	1324.541	1072.040
88.826	26.794	1323.682	1071.143
89.841	26.897	1322.650	1070.823
90.855	26.795	1321.527	1069.217
91.870	26.923	1320.436	1068.992
92.884	26.849	1320.126	1068.210
93.899	26.712	1319.110	1066.491
94.914	26.879	1318.413	1066.811
95.928	26.796	1318.018	1065.913
96.943	26.858	1316.941	1065.313
97.957	26.838	1316.280	1064.563
98.972	26.837	1315.437	1063.782
99.987	26.848	1314.762	1063.209
101.001	26.804	1313.392	1061.749
102.016	26.934	1312.426	1061.631
103.030	26.818	1311.660	1060.240
104.045	26.838	1310.637	1059.434
105.060	26.952	1309.735	1059.279
106.074	26.919	1308.626	1058.099
107.089	26.977	1307.370	1057.323
108.103	26.940	1307.053	1056.762
109.118	26.887	1305.806	1055.350
110.133	26.894	1304.584	1054.310
111.147	26.850	1303.579	1053.150
112.162	26.905	1302.289	1052.330
113.176	26.932	1301.334	1051.625
114.191	26.847	1300.548	1050.402
115.206	27.013	1299.599	1050.504
116.220	27.074	1298.424	1049.816
117.235	26.997	1297.528	1048.555
118.249	26.921	1297.094	1047.672
119.264	26.890	1296.009	1046.522
120.279	26.951	1295.232	1046.155
121.293	26.933	1294.268	1045.180
122.308	27.026	1293.538	1045.034
123.322	26.945	1292.915	1043.972
124.337	26.952	1292.346	1043.461
125.352	26.943	1291.461	1042.599
126.366	26.951	1290.135	1041.485
127.381	26.987	1289.760	1041.295
128.395	27.088	1288.395	1040.679
129.410	27.064	1287.189	1039.479
130.424	26.984	1287.379	1039.078
131.439	27.060	1286.451	1038.672
132.454	26.997	1285.610	1037.541
133.468	26.857	1285.286	1036.388
134.483	26.948	1284.264	1035.992
135.497	26.991	1283.342	1035.402
136.512	26.903	1282.738	1034.323
137.527	26.913	1281.206	1033.053
138.541	26.983	1279.963	1032.360
139.556	26.894	1278.895	1030.897
140.570	26.946	1277.849	1030.262
141.585	26.987	1276.344	1029.190
142.600	26.904	1275.762	1028.159
143.614	26.989	1274.838	1027.803
144.629	27.026	1273.863	1027.137
145.643	26.932	1272.688	1025.567
146.658	26.804	1272.038	1024.225
147.673	26.889	1271.033	1023.805
148.687	26.827	1270.147	1022.654
149.702	26.752	1268.925	1021.155
150.716	26.841	1267.805	1020.665
151.731	26.864	1267.046	1020.094
152.746	26.887	1266.334	1019.557
153.760	27.005	1264.968	1019.032
154.775	27.043	1264.025	1018.396
155.789	26.946	1263.238	1017.129
156.804	27.045	1261.989	1016.588
157.819	26.933	1261.303	1015.317
158.833	26.987	1260.849	1015.164
159.848	26.960	1260.317	1014.493
160.862	27.055	1259.120	1013.971
161.877	26.995	1258.602	1013.132
162.892	27.083	1257.875	1012.946
163.906	27.040	1257.119	1012.009
164.921	27.119	1256.393	1011.774
165.935	27.107	1255.383	1010.805
166.950	27.011	1255.099	1009.949
167.964	27.133	1254.341	1009.932
168.979	27.147	1253.749	1009.444
169.994	27.046	1253.463	1008.564
171.008	27.116	1252.271	1007.901
172.023	26.946	1251.901	1006.575
173.037	27.097	1250.878	1006.495
174.052	27.192	1250.283	1006.456
175.067	27.047	1249.700	1005.097
176.081	27.076	1248.661	1004.329
177.096	27.229	1247.549	1004.194
178.110	27.105	1246.830	1002.838
179.125	27.093	1246.225	1002.199
180.140	27.191	1245.171	1001.801
181.154	27.156	1243.533	1000.206
182.169	27.105	1242.700	999.162
183.183	27.075	1241.614	998.039
184.198	27.235	1240.586	998.003
185.213	27.069	1240.498	996.931
186.227	27.202	1239.133	996.478
187.242	27.183	1238.209	995.537
188.256	27.204	1237.310	994.846
189.271	27.278	1236.267	994.324
190.286	27.116	1236.064	993.184
191.300	27.111	1235.779	992.841
192.315	27.069	1235.170	992.035
193.329	27.173	1234.254	991.779
194.344	27.148	1234.262	991.562
195.359	27.221	1233.757	991.465
196.373	27.262	1232.867	990.884
197.388	27.093	1232.776	989.805
198.402	27.119	1232.285	989.464
199.417	27.168	1231.776	989.235
200.432	27.236	1230.799	988.734
201.446	27.223	1230.361	988.221
202.461	27.153	1230.055	987.506
203.475	27.119	1229.247	986.590
204.490	27.215	1227.892	985.933
205.504	27.165	1226.894	984.772
206.519	27.373	1225.615	984.784
207.534	27.248	1225.208	983.695
208.548	27.188	1224.552	982.760
209.563	27.242	1223.516	982.130
210.577	27.145	1223.006	981.112
211.592	27.241	1221.951	980.696
212.607	27.348	1220.782	980.250
213.621	27.335	1220.378	979.767
214.636	27.313	1219.668	978.992
215.650	27.370	1218.547	978.308
216.665	27.230	1217.703	976.793
217.680	27.203	1217.057	976.043
218.694	27.341	1216.090	975.921
219.709	27.385	1215.446	975.558
220.723	27.335	1214.904	974.767
221.738	27.197	1214.598	973.697
222.753	27.206	1213.315	972.629
223.767	27.281	1212.807	972.540
224.782	27.328	1212.500	972.454
225.796	27.375	1211.838	972.087
226.811	27.435	1211.215	971.827
227.826	27.436	1210.466	971.144
228.840	27.373	1210.642	970.861
229.855	27.437	1209.335	970.071
230.869	27.556	1208.723	970.124
231.884	27.251	1208.340	968.112
232.899	27.414	1207.074	967.876
233.913	27.449	1206.832	967.780
234.928	27.522	1206.320	967.672
235.942	27.624	1205.249	967.269
236.957	27.487	1204.589	965.930
237.972	27.576	1204.037	965.871
238.986	27.456	1203.525	964.742
240.001	27.481	1203.117	964.460
241.015	27.578	1202.309	964.240
242.030	27.596	1201.222	963.381
243.045	27.569	1200.287	962.400
244.059	27.661	1199.773	962.387
245.074	27.571	1199.223	961.388
246.088	27.610	1198.306	960.772
247.103	27.500	1197.640	959.574
248.117	27.519	1196.758	958.883
249.132	27.609	1195.864	958.558
250.147	27.663	1195.099	958.143
251.161	27.699	1194.277	957.585
252.176	27.751	1193.791	957.386
253.190	27.700	1193.158	956.527
254.205	27.703	1192.620	956.026
255.220	27.612	1192.024	954.988
256.234	27.845	1191.160	955.428
257.249	27.690	1190.631	954.110
258.263	27.766	1190.421	954.251
259.278	27.670	1189.759	953.138
260.293	27.646	1189.580	952.782
261.307	27.637	1188.967	952.159
262.322	27.785	1188.206	952.239
263.336	27.742	1187.399	951.285
264.351	27.714	1186.567	950.390
265.366	27.704	1186.228	949.979
266.380	27.761	1185.585	949.677
267.395	27.820	1184.795	949.268
268.409	27.748	1184.274	948.394
269.424	27.681	1184.013	947.753
270.439	27.692	1183.605	947.400
271.453	27.803	1182.623	947.104
272.468	27.802	1181.681	946.259
273.482	27.639	1181.292	945.019
274.497	27.735	1180.850	945.083
275.512	27.870	1179.837	944.887
276.526	27.800	1179.246	943.965
277.541	27.798	1178.604	943.360
278.555	27.843	1178.078	943.086
279.570	27.887	1176.889	942.280
280.585	27.859	1176.284	941.568
281.599	27.830	1175.784	940.934
282.614	27.858	1174.571	940.021
283.628	27.973	1173.656	939.801
284.643	27.983	1173.292	939.475
285.657	27.844	1172.439	937.994
286.672	27.867	1171.737	937.470
287.687	27.876	1170.863	936.735
288.701	27.908	1170.469	936.501
289.716	27.941	1169.374	935.709
290.730	27.941	1168.769	935.140
291.745	28.014	1167.946	934.776
292.760	27.983	1167.580	934.239
293.774	28.022	1167.020	933.910
294.789	28.082	1166.523	933.735
295.803	27.994	1166.156	932.907
296.818	27.985	1165.331	932.120
297.833	27.981	1164.619	931.448
298.847	27.965	1164.184	930.937
299.862	27.965	1163.337	930.177
300.876	28.129	1162.471	930.236
301.891	28.019	1162.284	929.447
302.906	28.123	1161.460	929.231
303.920	28.212	1160.487	928.826
304.935	28.164	1159.878	928.009
305.949	28.143	1159.639	927.630
306.964	28.117	1158.854	926.789
307.979	28.184	1157.944	926.317
308.993	28.252	1157.023	925.842
310.008	28.043	1157.111	924.773
311.022	28.166	1156.118	924.518
312.037	28.146	1155.018	923.458
313.052	28.078	1154.347	922.495
314.066	28.189	1153.520	922.314
315.081	28.219	1152.802	921.812
316.095	28.084	1152.778	921.031
317.110	28.164	1151.876	920.630
318.125	28.237	1150.678	919.956
319.139	28.202	1150.464	919.529
320.154	28.208	1149.990	919.097
321.168	28.179	1149.459	918.448
322.183	28.173	1149.020	917.984
323.197	28.242	1148.464	917.804
324.212	28.113	1148.074	916.768
325.227	28.288	1147.257	916.910
326.241	28.300	1146.903	916.606
327.256	28.273	1145.785	915.495
328.270	28.344	1144.733	914.930
329.285	28.392	1144.093	914.573
330.300	28.280	1143.323	913.323
331.314	28.247	1142.907	912.741
332.329	28.258	1142.217	912.164
333.343	28.347	1141.026	911.579
334.358	28.436	1140.564	911.570
335.373	28.439	1139.571	910.709
336.387	28.572	1138.855	910.716
337.402	28.379	1138.350	909.277
338.416	28.438	1137.869	909.104
339.431	28.448	1136.985	908.369
340.446	28.345	1136.712	907.560
341.460	28.523	1136.073	907.849
342.475	28.595	1134.877	907.169
343.489	28.604	1133.902	906.353
344.504	28.501	1133.288	905.273
345.519	28.472	1132.719	904.594
346.533	28.571	1131.661	904.161
347.548	28.673	1130.968	904.028
348.562	28.630	1130.273	903.181
349.577	28.592	1129.486	902.285
350.592	28.505	1128.793	901.224
351.606	28.638	1128.094	901.238
352.621	28.646	1127.961	901.093
353.635	28.628	1127.134	900.265
354.650	28.613	1126.957	899.972
355.665	28.611	1126.309	899.364
356.679	28.680	1125.346	898.850
357.694	28.814	1124.445	898.709
358.708	28.712	1123.679	897.516
359.723	28.645	1123.248	896.768
360.738	28.538	1123.165	896.096
361.752	28.631	1122.095	895.621
362.767	28.756	1121.430	895.619
363.781	28.711	1120.901	894.898
364.796	28.854	1120.173	894.935
365.810	28.668	1120.230	893.996
366.825	28.841	1119.341	894.050
367.840	28.879	1118.532	893.507
368.854	28.853	1118.280	893.101
369.869	28.934	1117.187	892.540
370.883	28.839	1116.978	891.834
371.898	28.744	1116.480	890.896
372.913	28.855	1115.508	890.578
373.927	28.758	1115.625	890.125
374.942	28.826	1114.956	889.843
375.956	28.917	1114.236	889.628
376.971	29.018	1113.211	889.219
377.986	28.838	1113.168	888.237
379.000	28.907	1112.562	888.009
380.015	28.759	1112.460	887.135
381.029	28.925	1111.325	886.952
382.044	28.935	1110.606	886.346
383.059	28.983	1110.048	886.052
384.073	28.937	1109.264	885.130
385.088	29.066	1108.315	884.914
386.102	28.922	1107.842	883.766
387.117	28.984	1106.972	883.292
388.132	29.044	1106.108	882.811
389.146	29.037	1105.384	882.121
390.161	29.068	1104.746	881.682
391.175	29.077	1104.258	881.260
392.190	29.114	1103.519	880.768
393.205	28.920	1103.017	879.363
394.219	29.176	1102.032	879.719
395.234	29.144	1101.487	879.056
396.248	29.108	1100.615	878.111
397.263	29.229	1099.349	877.600
398.278	29.184	1099.021	877.044
399.292	29.197	1098.733	876.800
400.307	29.272	1098.230	876.674
401.321	29.146	1097.495	875.416
402.336	29.128	1096.801	874.698
403.350	29.166	1096.217	874.333
404.365	29.271	1095.380	874.089
405.380	29.238	1094.836	873.419
406.394	29.246	1093.916	872.647
407.409	29.241	1093.523	872.233
408.423	29.318	1092.473	871.683
409.438	29.317	1091.703	870.983
410.453	29.429	1090.942	870.832
411.467	29.428	1090.227	870.178
412.482	29.488	1089.734	869.991
413.496	29.373	1089.179	868.926
414.511	29.403	1088.462	868.418
415.526	29.428	1088.161	868.219
416.540	29.386	1087.936	867.769
417.555	29.380	1087.345	867.189
418.569	29.384	1086.384	866.365
419.584	29.374	1086.531	866.359
420.599	29.430	1086.117	866.217
421.613	103.207	1319.428	1451.156
422.628	96.136	1353.407	1451.289
