DTS Sentinel unit serial number:	SN413079Multiplexer serial number:	ORYXHardware model number:	OX4-SRSoftware version number:	ORYX F/W v4.00 Oryx Data Collector v3.7.2.0data status	okinstallation	princeton_trtdifferential loss correction	single-endedforward channel	channel 2reverse channel	N/Adate	2019/09/10time	19:21:11forward acquisition time	60.00reverse acquisition time	0.00gamma	496.2192k internal	0.2325k external	0.2325temperature offset calibration	0.9948default loss term (dB/km)	0.3790temperature slope calibration	1.0000multiplexer offset coefficient	1.0000multiplexer slope coefficient	1.0000fibre end	0.00T internal ref (°C)	33.77T ext. ref 1 (°C)	-0.28T ext. ref 2 (°C)	26.28length (m)	temperature (°C)	Stokes	anti-Stokes-747.200	800.000	0.043	-0.141
-746.185	238.242	-0.225	0.377
-745.171	-19.300	-0.108	0.067
-744.156	162.572	-0.093	0.131
-743.142	495.121	-0.077	-0.179
-742.127	-68.844	-0.091	-0.035
-741.112	-200.000	0.050	-0.241
-740.098	42.989	-0.187	0.172
-739.083	-101.405	0.144	-0.035
-738.069	349.649	-0.236	0.470
-737.054	-37.452	-0.192	-0.104
-736.039	-134.918	-0.170	0.021
-735.025	55.985	-0.165	0.161
-734.010	89.201	-0.102	-0.114
-732.996	-69.913	-0.028	0.011
-731.981	55.810	0.224	-0.219
-730.966	-48.771	-0.157	0.076
-729.952	-42.504	-0.242	-0.124
-728.937	-8.950	0.099	0.067
-727.923	83.257	0.187	0.206
-726.908	-185.893	0.128	0.002
-725.894	800.000	0.070	0.273
-724.879	-200.000	-0.007	-0.094
-723.864	31.239	-0.152	-0.132
-722.850	123.282	-0.109	0.137
-721.835	-200.000	-0.021	-0.115
-720.821	-34.229	-0.361	0.200
-719.806	16.986	0.092	0.074
-718.791	185.536	-0.179	-0.268
-717.777	316.853	-0.130	0.248
-716.762	-151.591	-0.110	-0.008
-715.748	800.000	-0.080	-0.349
-714.733	800.000	-0.050	-0.192
-713.718	198.515	0.019	0.029
-712.704	30.762	-0.257	-0.222
-711.689	-200.000	-0.016	-0.157
-710.675	230.941	0.035	0.058
-709.660	800.000	0.019	0.067
-708.645	197.672	-0.039	-0.060
-707.631	-200.000	0.055	-0.361
-706.616	-194.158	-0.182	-0.001
-705.602	800.000	0.113	-0.354
-704.587	-30.363	0.402	0.230
-703.572	-122.653	-0.394	-0.064
-702.558	121.551	0.071	-0.089
-701.543	-125.865	-0.073	0.011
-700.529	800.000	0.053	0.151
-699.514	193.604	-0.063	0.097
-698.499	-101.933	-0.095	-0.023
-697.485	140.373	0.142	0.189
-696.470	105.338	0.118	0.141
-695.456	25.263	0.137	-0.114
-694.441	-23.520	-0.169	-0.102
-693.426	-27.265	-0.194	-0.114
-692.412	-200.000	0.010	-0.084
-691.397	81.381	0.234	0.255
-690.383	-16.041	0.119	0.077
-689.368	-118.383	0.164	0.029
-688.354	-121.889	-0.096	-0.016
-687.339	423.970	-0.142	-0.308
-686.324	-125.068	-0.109	0.017
-685.310	28.567	-0.244	0.208
-684.295	-46.287	-0.079	-0.039
-683.281	-88.525	0.186	-0.056
-682.266	10.308	0.081	0.062
-681.251	-200.000	-0.006	0.033
-680.237	-128.370	-0.331	0.047
-679.222	-200.000	-0.029	0.223
-678.208	-191.162	-0.402	-0.004
-677.193	-45.683	0.086	-0.043
-676.178	140.691	0.134	0.178
-675.164	800.000	-0.026	-0.111
-674.149	-121.805	0.180	-0.030
-673.135	336.463	-0.291	-0.569
-672.120	135.813	-0.153	-0.200
-671.105	103.924	0.111	0.132
-670.091	41.526	0.024	-0.022
-669.076	596.363	-0.021	-0.052
-668.062	43.691	-0.033	-0.030
-667.047	-200.000	-0.010	-0.219
-666.032	76.147	-0.180	-0.191
-665.018	-76.890	0.302	-0.106
-664.003	-118.695	-0.331	0.059
-662.989	-64.802	-0.133	-0.054
-661.974	-101.909	0.203	-0.049
-660.959	71.438	-0.201	-0.210
-659.945	-200.000	-0.031	0.369
-658.930	-68.593	-0.093	-0.036
-657.916	-26.295	0.225	0.133
-656.901	193.086	0.036	0.055
-655.886	620.081	-0.014	0.035
-654.872	-73.105	-0.018	0.007
-653.857	-200.000	-0.025	-0.271
-652.843	56.948	-0.214	-0.210
-651.828	800.000	0.051	-0.158
-650.814	386.626	0.274	0.569
-649.799	-123.504	0.414	0.066
-648.784	-40.946	-0.261	-0.136
-647.770	368.767	-0.061	0.125
-646.755	200.744	-0.040	0.062
-645.741	320.821	-0.106	-0.202
-644.726	123.104	0.050	-0.063
-643.711	-113.882	0.108	0.021
-642.697	93.380	0.118	0.134
-641.682	-200.000	-0.073	-0.350
-640.668	380.531	-0.136	-0.280
-639.653	-200.000	0.015	-0.292
-638.638	-5.964	-0.245	-0.168
-637.624	800.000	-0.173	-0.600
-636.609	-141.421	0.065	-0.007
-635.595	-41.437	-0.143	0.074
-634.580	-77.122	0.305	0.107
-633.565	-124.623	-0.161	0.025
-632.551	222.379	0.124	0.200
-631.536	-200.000	0.009	0.155
-630.522	20.262	-0.026	-0.021
-629.507	294.823	0.091	-0.167
-628.492	40.629	-0.221	-0.200
-627.478	147.995	0.187	-0.253
-626.463	-107.699	-0.211	-0.046
-625.449	517.128	-0.110	-0.258
-624.434	423.714	-0.082	0.176
-623.419	48.305	0.278	0.262
-622.405	515.137	0.022	0.051
-621.390	-67.789	-0.264	-0.104
-620.376	-132.316	0.341	0.044
-619.361	-144.709	-0.607	-0.056
-618.346	800.000	0.116	0.413
-617.332	-80.221	0.178	-0.060
-616.317	-78.673	-0.428	0.147
-615.303	-70.463	0.232	0.088
-614.288	-14.232	-0.204	-0.132
-613.273	-24.807	0.355	0.211
-612.259	43.821	0.261	0.240
-611.244	-124.712	-0.365	-0.057
-610.230	-200.000	-0.005	-0.248
-609.215	-64.819	0.335	0.136
-608.201	-200.000	0.031	0.247
-607.186	800.000	0.081	0.290
-606.171	38.684	-0.243	0.217
-605.157	800.000	0.052	0.219
-604.142	185.262	-0.135	-0.202
-603.128	23.102	0.112	-0.092
-602.113	-200.000	0.018	-0.112
-601.098	800.000	0.044	-0.136
-600.084	-119.088	0.337	-0.059
-599.069	800.000	0.049	0.201
-598.055	61.628	-0.209	-0.209
-597.040	40.863	-0.076	0.069
-596.025	800.000	-0.057	-0.236
-595.011	297.809	0.228	0.421
-593.996	165.293	0.081	-0.115
-592.982	-200.000	-0.034	0.269
-591.967	-78.274	0.543	0.187
-590.952	-32.197	0.032	-0.018
-589.938	-98.035	-0.147	-0.038
-588.923	119.582	0.193	-0.239
-587.909	-64.853	-0.103	0.042
-586.894	-200.000	0.025	0.181
-585.879	-128.040	0.167	-0.024
-584.865	-200.000	0.013	-0.186
-583.850	-200.000	-0.027	-0.122
-582.836	-38.673	-0.377	0.199
-581.821	-135.680	-0.065	-0.008
-580.806	134.286	0.046	0.060
-579.792	105.202	-0.027	-0.032
-578.777	800.000	0.019	0.064
-577.763	-200.000	0.002	0.192
-576.748	-121.857	0.310	-0.051
-575.733	800.000	-0.145	-0.439
-574.719	-66.635	-0.252	-0.100
-573.704	-112.106	0.233	0.047
-572.690	244.151	0.110	0.184
-571.675	-41.801	-0.201	0.103
-570.661	42.041	0.191	-0.174
-569.646	-79.542	0.071	0.024
-568.631	80.333	0.159	-0.172
-567.617	-75.911	-0.197	-0.070
-566.602	-151.673	0.229	-0.017
-565.588	-200.000	0.045	0.206
-564.573	-183.818	0.261	0.004
-563.558	365.719	-0.112	0.226
-562.544	74.470	0.090	0.095
-561.529	276.231	-0.196	0.348
-560.515	51.198	0.019	-0.018
-559.500	-99.581	0.122	0.031
-558.485	-120.922	-0.458	-0.077
-557.471	-200.000	0.055	-0.358
-556.456	800.000	-0.093	-0.268
-555.442	-98.563	-0.268	-0.069
-554.427	800.000	-0.111	-0.444
-553.412	20.854	0.174	-0.141
-552.398	-200.000	-0.047	0.286
-551.383	-186.840	-0.193	0.003
-550.369	-132.737	-0.442	0.057
-549.354	5.472	-0.179	0.132
-548.339	580.474	0.140	0.344
-547.325	328.180	-0.172	-0.330
-546.310	3.902	-0.104	0.076
-545.296	-200.000	-0.250	0.000
-544.281	-75.204	0.081	-0.029
-543.266	-100.184	-0.155	0.039
-542.252	52.774	0.167	-0.160
-541.237	-113.591	0.152	0.030
-540.223	-200.000	-0.000	-0.156
-539.208	57.109	-0.188	-0.183
-538.193	19.866	-0.207	-0.167
-537.179	-14.978	0.243	0.156
-536.164	-21.655	-0.261	-0.159
-535.150	800.000	-0.072	-0.206
-534.135	386.616	0.060	-0.124
-533.121	-200.000	0.013	-0.119
-532.106	22.780	-0.103	0.085
-531.091	-44.600	0.135	0.067
-530.077	164.819	0.059	-0.083
-529.062	80.552	0.242	-0.261
-528.048	19.954	-0.074	-0.060
-527.033	-127.433	-0.213	-0.031
-526.018	-17.615	0.142	-0.089
-525.004	-119.019	-0.478	-0.084
-523.989	-101.106	-0.113	-0.028
-522.975	356.030	-0.046	0.091
-521.960	-125.086	-0.104	0.016
-520.945	37.026	0.155	-0.138
-519.931	-200.000	-0.009	0.227
-518.916	-161.854	-0.147	0.007
-517.902	797.264	-0.058	-0.160
-516.887	280.295	0.031	-0.056
-515.872	270.357	0.132	0.231
-514.858	368.139	0.100	-0.202
-513.843	-19.753	-0.199	-0.123
-512.829	-163.328	0.245	-0.012
-511.814	-163.482	0.203	0.010
-510.799	-200.000	-0.021	0.278
-509.785	800.000	0.056	-0.177
-508.770	-43.089	-0.248	-0.126
-507.756	-200.000	0.001	0.076
-506.741	800.000	0.043	0.148
-505.726	254.881	0.013	0.023
-504.712	119.676	-0.106	-0.132
-503.697	36.784	-0.194	0.172
-502.683	-32.987	0.198	-0.110
-501.668	-200.000	0.001	0.012
-500.653	301.101	0.042	0.077
-499.639	-17.166	0.263	0.166
-498.624	-97.428	-0.465	0.121
-497.610	83.584	-0.175	-0.190
-496.595	413.477	0.182	-0.387
-495.581	172.883	-0.155	0.224
-494.566	-1.190	-0.167	0.118
-493.551	-162.060	-0.254	-0.013
-492.537	219.055	-0.171	0.273
-491.522	-62.574	-0.097	-0.040
-490.508	376.094	-0.139	-0.283
-489.493	-147.877	-0.308	-0.026
-488.478	71.099	-0.162	-0.168
-487.464	-83.393	-0.333	0.107
-486.449	-127.404	-0.415	-0.060
-485.435	123.475	0.247	0.310
-484.420	-200.000	-0.125	-0.730
-483.405	-200.000	0.000	-0.292
-482.391	749.625	0.113	0.304
-481.376	516.915	0.197	0.459
-480.362	800.000	0.061	-0.259
-479.347	-92.179	0.013	-0.004
-478.332	800.000	0.022	-0.089
-477.318	-10.790	-0.360	0.238
-476.303	37.803	0.163	-0.145
-475.289	356.845	-0.188	0.375
-474.274	64.027	0.263	-0.264
-473.259	60.754	-0.185	0.183
-472.245	-68.081	-0.307	0.120
-471.230	104.805	0.175	0.206
-470.216	-200.000	-0.052	0.420
-469.201	-10.754	-0.396	0.261
-468.186	-150.523	0.419	-0.032
-467.172	-139.506	0.021	0.002
-466.157	-106.132	0.232	0.052
-465.143	-21.632	-0.311	0.189
-464.128	-188.355	0.293	-0.004
-463.113	800.000	0.063	0.230
-462.099	-31.438	-0.250	0.140
-461.084	400.609	0.098	-0.206
-460.070	-200.000	-0.071	-0.343
-459.055	-25.754	-0.048	-0.028
-458.040	467.270	0.096	-0.215
-457.026	-200.000	-0.044	0.221
-456.011	235.393	-0.101	0.167
-454.997	-12.268	-0.318	-0.207
-453.982	-22.047	-0.297	0.180
-452.968	470.171	0.112	0.252
-451.953	116.397	0.191	0.233
-450.938	528.680	0.133	0.313
-449.924	-200.000	0.029	0.379
-448.909	-164.444	0.130	0.006
-447.895	-138.761	0.093	0.010
-446.880	143.640	-0.163	-0.217
-445.865	-200.000	0.021	-0.226
-444.851	345.832	0.108	-0.212
-443.836	-60.186	0.201	0.085
-442.822	197.642	-0.152	0.231
-441.807	-191.047	0.055	-0.001
-440.792	13.367	0.106	0.082
-439.778	-149.169	-0.152	-0.012
-438.763	-120.065	-0.476	0.081
-437.749	-59.901	0.115	-0.049
-436.734	800.000	0.042	-0.163
-435.719	365.649	0.121	-0.244
-434.705	-50.536	-0.329	-0.155
-433.690	-58.985	0.196	0.085
-432.676	444.488	-0.015	0.033
-431.661	-98.552	-0.158	0.040
-430.646	-80.354	-0.135	0.045
-429.632	800.000	0.111	-0.386
-428.617	-77.958	0.214	-0.074
-427.603	-200.000	0.061	-0.274
-426.588	210.098	0.078	0.122
-425.573	10.206	-0.394	0.298
-424.559	4.131	0.187	-0.136
-423.544	451.028	-0.138	-0.304
-422.530	800.000	-0.089	0.368
-421.515	-200.000	0.029	0.131
-420.500	-30.180	0.324	0.184
-419.486	338.186	0.134	0.260
-418.471	-88.335	0.293	-0.087
-417.457	138.872	-0.237	-0.310
-416.442	-200.000	0.018	0.089
-415.428	123.472	0.218	0.272
-414.413	-121.997	0.241	0.039
-413.398	425.582	0.179	0.384
-412.384	-135.631	0.086	0.010
-411.369	204.588	0.151	0.233
-410.355	38.229	-0.260	0.231
-409.340	180.992	0.106	0.155
-408.325	115.167	0.153	0.187
-407.311	-109.474	-0.122	0.026
-406.296	-200.000	0.087	-0.465
-405.282	527.705	0.100	0.235
-404.267	-112.384	0.419	0.083
-403.252	86.740	-0.191	0.210
-402.238	800.000	-0.021	0.065
-401.223	303.680	-0.120	-0.221
-400.209	138.992	0.353	-0.462
-399.194	-200.000	-0.036	0.160
-398.179	130.484	-0.063	0.081
-397.165	666.930	0.110	0.283
-396.150	800.000	-0.123	0.454
-395.136	-48.661	0.197	-0.094
-394.121	-47.464	0.178	0.086
-393.106	-128.431	0.081	-0.011
-392.092	633.176	0.091	-0.231
-391.077	-106.004	0.140	0.031
-390.063	-28.184	0.180	0.103
-389.048	266.567	-0.081	-0.141
-388.033	198.902	-0.073	-0.111
-387.019	429.759	-0.048	-0.103
-386.004	800.000	0.126	0.412
-384.990	800.000	0.028	-0.082
-383.975	395.202	-0.069	-0.144
-382.960	-41.903	0.180	0.092
-381.946	433.008	0.101	0.217
-380.931	800.000	-0.135	-0.401
-379.917	-136.465	-0.128	0.015
-378.902	106.345	0.065	-0.077
-377.888	-200.000	0.035	0.244
-376.873	114.348	0.143	0.173
-375.858	52.068	0.149	0.141
-374.844	-115.222	0.142	-0.027
-373.829	-152.259	0.093	-0.007
-372.815	-127.309	0.157	-0.023
-371.800	204.195	-0.222	-0.342
-370.785	-84.616	-0.384	-0.120
-369.771	-200.000	0.006	-0.264
-368.756	104.716	0.267	0.313
-367.742	490.582	-0.067	-0.153
-366.727	188.585	0.007	0.011
-365.712	167.585	0.099	-0.140
-364.698	800.000	0.080	-0.297
-363.683	718.118	-0.081	-0.215
-362.669	140.753	-0.187	0.245
-361.654	-141.527	-0.085	0.009
-360.639	-200.000	-0.055	0.378
-359.625	-200.000	-0.364	0.002
-358.610	213.133	-0.085	-0.134
-357.596	511.970	0.080	0.185
-356.581	16.652	0.115	-0.091
-355.566	373.908	0.073	-0.147
-354.552	781.611	0.020	-0.055
-353.537	-200.000	0.009	-0.126
-352.523	-200.000	-0.069	-0.326
-351.508	-64.774	-0.284	0.114
-350.493	-42.922	0.139	-0.070
-349.479	-80.193	0.088	-0.029
-348.464	-65.226	-0.304	0.122
-347.450	-80.290	-0.350	0.116
-346.435	23.331	0.167	0.137
-345.420	-16.259	-0.373	0.235
-344.406	178.171	-0.121	0.176
-343.391	-91.224	0.182	0.052
-342.377	98.410	0.215	0.246
-341.362	136.269	-0.244	0.316
-340.348	244.288	-0.050	0.083
-339.333	-57.543	-0.221	-0.096
-338.318	800.000	-0.132	-0.388
-337.304	36.452	-0.265	-0.232
-336.289	39.498	-0.121	-0.108
-335.275	280.969	-0.004	-0.007
-334.260	-144.442	-0.138	-0.013
-333.245	-72.267	0.147	-0.054
-332.231	800.000	0.069	-0.229
-331.216	380.494	-0.097	0.198
-330.202	97.026	-0.056	0.064
-329.187	-200.000	-0.005	0.070
-328.172	-108.061	-0.251	0.054
-327.158	19.057	-0.120	-0.095
-326.143	-40.998	-0.167	0.086
-325.129	-60.075	0.097	0.041
-324.114	259.537	0.230	0.395
-323.099	800.000	-0.018	0.056
-322.085	800.000	-0.026	0.073
-321.070	413.997	-0.017	0.036
-320.056	-200.000	0.068	0.343
-319.041	-23.543	0.164	0.098
-318.026	142.714	-0.050	-0.066
-317.012	183.321	-0.344	-0.504
-315.997	-186.989	-0.640	0.009
-314.983	800.000	0.016	-0.050
-313.968	50.054	0.258	-0.241
-312.953	117.527	0.332	-0.405
-311.939	-187.016	0.305	0.004
-310.924	10.554	0.210	-0.159
-309.910	-79.753	-0.110	0.037
-308.895	-44.718	0.267	-0.132
-307.880	-82.650	0.159	0.051
-306.866	-162.087	-0.232	-0.012
-305.851	41.382	-0.184	0.166
-304.837	-173.787	0.282	-0.008
-303.822	-76.602	-0.429	0.149
-302.807	215.072	-0.092	-0.145
-301.793	-134.925	0.131	-0.016
-300.778	-105.092	-0.050	-0.011
-299.764	-48.195	0.031	0.015
-298.749	800.000	-0.058	-0.173
-297.735	24.210	-0.179	-0.147
-296.720	-131.976	-0.280	-0.036
-295.705	615.148	-0.128	-0.317
-294.691	70.108	-0.078	0.080
-293.676	-168.062	0.104	0.004
-292.662	-73.127	-0.026	0.010
-291.647	-165.885	0.271	-0.012
-290.632	-45.647	-0.415	-0.204
-289.618	-2.253	-0.137	0.095
-288.603	270.233	0.113	0.197
-287.589	-200.000	-0.001	-0.055
-286.574	219.312	0.140	0.221
-285.559	63.335	0.098	0.097
-284.545	140.474	-0.042	0.056
-283.530	-18.872	0.429	0.265
-282.516	-119.720	0.033	0.006
-281.501	-43.951	0.284	-0.141
-280.486	-200.000	-0.018	0.096
-279.472	-13.292	0.072	-0.046
-278.457	-200.000	0.047	-0.385
-277.443	55.496	0.142	0.136
-276.428	64.064	0.163	0.162
-275.413	800.000	-0.009	-0.028
-274.399	1.873	-0.060	0.043
-273.384	-97.822	-0.115	0.029
-272.370	800.000	-0.063	-0.257
-271.355	-200.000	-0.055	-0.346
-270.340	325.798	0.011	0.022
-269.326	-143.512	0.209	0.020
-268.311	-123.703	0.370	-0.058
-267.297	371.146	-0.123	0.247
-266.282	217.596	0.057	0.090
-265.267	800.000	0.117	-0.387
-264.253	47.624	0.065	-0.060
-263.238	125.389	0.156	-0.194
-262.224	-140.132	0.700	-0.073
-261.209	-110.956	0.397	0.081
-260.195	283.206	-0.110	-0.195
-259.180	-71.952	-0.192	0.071
-258.165	-98.006	0.185	-0.047
-257.151	167.067	0.075	0.106
-256.136	70.657	-0.112	0.114
-255.122	-137.313	-0.367	0.041
-254.107	135.583	0.113	0.146
-253.092	-81.349	0.294	0.096
-252.078	-27.464	-0.354	-0.204
-251.063	-200.000	-0.012	-0.062
-250.049	-200.000	-0.048	-0.238
-249.034	298.557	0.125	0.228
-248.019	-150.817	-0.049	0.004
-247.005	-141.551	-0.234	-0.023
-245.990	24.932	-0.154	0.127
-244.976	-160.837	0.170	-0.009
-243.961	179.605	0.174	0.253
-242.946	-11.439	-0.175	0.114
-241.932	-49.772	0.217	-0.102
-240.917	68.652	-0.147	-0.149
-239.903	800.000	-0.018	0.063
-238.888	420.752	0.082	-0.173
-237.873	710.593	-0.137	-0.359
-236.859	440.456	0.163	-0.352
-235.844	-111.791	-0.167	0.033
-234.830	800.000	0.069	0.209
-233.815	-153.069	0.472	-0.033
-232.800	800.000	-0.017	0.054
-231.786	-200.000	0.007	0.058
-230.771	-111.268	-0.043	0.009
-229.757	139.731	-0.085	-0.111
-228.742	-150.806	0.077	-0.006
-227.727	-200.000	0.022	-0.108
-226.713	-134.486	0.104	-0.013
-225.698	-39.498	-0.162	-0.084
-224.684	-200.000	0.068	0.293
-223.669	440.073	-0.037	-0.080
-222.655	-200.000	0.007	-0.111
-221.640	156.292	0.190	0.259
-220.625	607.767	-0.065	0.161
-219.611	-33.140	-0.099	0.054
-218.596	-200.000	0.017	-0.195
-217.582	-64.895	-0.079	0.032
-216.567	435.088	-0.066	-0.141
-215.552	-4.621	-0.211	-0.144
-214.538	-133.012	0.283	0.035
-213.523	343.236	0.160	-0.310
-212.509	-132.993	-0.052	0.007
-211.494	322.941	-0.135	0.255
-210.479	-200.000	0.057	-0.253
-209.465	54.481	0.299	-0.285
-208.450	230.179	0.136	-0.220
-207.436	800.000	-0.015	-0.049
-206.421	458.780	-0.128	-0.280
-205.406	-66.839	-0.145	-0.057
-204.392	-65.150	0.100	-0.040
-203.377	500.386	0.020	-0.046
-202.363	108.222	-0.185	-0.218
-201.348	53.834	0.165	0.156
-200.333	-200.000	0.035	0.287
-199.319	-117.147	-0.102	-0.018
-198.304	166.548	-0.175	0.245
-197.290	-51.528	0.262	-0.121
-196.275	-123.593	-0.290	0.045
-195.260	-81.144	0.367	0.120
-194.246	233.216	0.052	-0.084
-193.231	-200.000	-0.032	-0.143
-192.217	226.439	0.125	0.200
-191.202	-16.818	0.356	0.222
-190.187	-170.842	0.264	0.009
-189.173	653.540	0.129	0.328
-188.158	129.702	0.177	-0.224
-187.144	186.502	0.230	-0.338
-186.129	116.859	0.024	-0.029
-185.114	413.515	-0.042	-0.087
-184.100	270.074	0.142	0.247
-183.085	38.581	-0.176	-0.155
-182.071	43.307	-0.133	-0.120
-181.056	-48.096	-0.117	-0.056
-180.042	133.322	0.085	0.109
-179.027	-10.981	-0.126	0.082
-178.012	-200.000	-0.025	0.120
-176.998	-90.180	-0.302	-0.087
-175.983	-200.000	0.066	0.562
-174.969	128.174	0.324	0.407
-173.954	274.286	-0.218	0.381
-172.939	124.096	0.096	-0.119
-171.925	232.440	-0.169	0.274
-170.910	-121.059	-0.238	-0.039
-169.896	10.125	0.252	0.189
-168.881	27.025	-0.248	0.205
-167.866	-200.000	0.003	-0.023
-166.852	-23.104	0.418	-0.248
-165.837	-170.189	-0.327	-0.011
-164.823	-9.852	-0.013	-0.009
-163.808	-100.813	0.401	-0.097
-162.793	-200.000	-0.023	-0.132
-161.779	1.666	0.051	-0.036
-160.764	-103.349	0.423	-0.098
-159.750	441.237	0.179	-0.386
-158.735	127.060	0.151	-0.188
-157.720	-114.529	-0.132	-0.025
-156.706	-57.534	-0.426	0.184
-155.691	60.345	0.271	0.264
-154.677	-200.000	0.056	0.289
-153.662	-67.805	-0.056	-0.022
-152.647	65.591	-0.039	-0.039
-151.633	-105.944	-0.063	-0.014
-150.618	-3.617	-0.383	-0.263
-149.604	477.447	0.150	-0.335
-148.589	-200.000	0.025	-0.240
-147.574	-139.063	0.135	-0.014
-146.560	-26.481	-0.112	-0.065
-145.545	2.492	0.151	-0.108
-144.531	-200.000	0.016	-0.128
-143.516	36.333	0.199	0.173
-142.502	-106.105	-0.043	-0.010
-141.487	-42.966	0.070	0.035
-140.472	248.615	-0.089	0.148
-139.458	-123.984	0.167	-0.026
-138.443	255.903	-0.207	-0.350
-137.429	800.000	-0.035	0.138
-136.414	-121.448	-0.252	-0.041
-135.399	7.318	-0.061	-0.045
-134.385	530.056	-0.116	-0.270
-133.370	-200.000	-0.015	-0.264
-132.356	-200.000	0.057	-0.284
-131.341	-29.973	-0.212	-0.119
-130.326	-200.000	0.002	0.051
-129.312	614.425	0.089	-0.219
-128.297	-72.827	0.220	0.080
-127.283	800.000	-0.030	-0.129
-126.268	800.000	0.014	0.044
-125.253	-116.236	-0.101	0.018
-124.239	800.000	-0.083	0.274
-123.224	-29.790	0.285	-0.160
-122.210	800.000	-0.129	-0.452
-121.195	800.000	0.028	0.078
-120.180	144.215	0.135	0.177
-119.166	-200.000	-0.010	-0.170
-118.151	800.000	-0.049	-0.197
-117.137	128.628	0.142	-0.179
-116.122	58.958	-0.067	-0.065
-115.107	-121.204	0.409	0.067
-114.093	161.985	0.308	0.425
-113.078	-167.250	-0.219	-0.009
-112.064	-200.000	-0.023	-0.126
-111.049	772.031	-0.054	0.146
-110.034	-200.000	-0.017	-0.290
-109.020	-50.514	-0.190	0.088
-108.005	235.353	0.097	-0.158
-106.991	-200.000	0.015	-0.374
-105.976	112.093	0.080	0.095
-104.962	759.004	0.039	-0.105
-103.947	-200.000	0.008	-0.090
-102.932	800.000	0.108	-0.301
-101.918	-15.384	-0.188	-0.119
-100.903	-64.398	-0.191	-0.076
-99.889	800.000	0.022	-0.079
-98.874	-5.637	0.082	0.055
-97.859	-200.000	-0.044	-0.201
-96.845	-147.622	0.329	-0.027
-95.830	-17.841	-0.201	-0.124
-94.816	-84.371	0.160	0.050
-93.801	108.037	0.079	-0.092
-92.786	-71.641	0.230	0.085
-91.772	153.541	-0.091	0.123
-90.757	25.511	-0.188	-0.154
-89.743	-200.000	-0.070	-0.316
-88.728	800.000	0.047	0.171
-87.713	-60.014	0.335	0.141
-86.699	-200.000	0.082	0.369
-85.684	-200.000	-0.048	0.207
-84.670	-33.112	-0.370	-0.202
-83.655	98.364	-0.248	-0.281
-82.640	-86.445	-0.204	0.062
-81.626	-48.734	0.407	-0.192
-80.611	-200.000	-0.019	-0.131
-79.597	-44.256	-0.197	0.097
-78.582	-50.002	0.100	-0.047
-77.567	-200.000	-0.132	0.585
-76.553	-103.480	0.465	-0.107
-75.538	-128.353	0.161	0.023
-74.524	-200.000	0.047	0.234
-73.509	-108.615	0.115	0.024
-72.494	-94.570	0.335	0.090
-71.480	-4.168	-0.212	-0.144
-70.465	-200.000	0.050	0.280
-69.451	35.718	0.202	0.175
-68.436	150.579	0.049	0.065
-67.422	-200.000	-0.026	0.161
-66.407	70.903	-0.252	0.256
-65.392	800.000	0.089	-0.271
-64.378	-200.000	-0.001	0.102
-63.363	101.454	0.165	0.189
-62.349	-58.481	0.318	0.136
-61.334	111.734	-0.867	-1.028
-60.319	234.019	0.276	0.447
-59.305	-200.000	0.109	-0.926
-58.290	186.166	0.823	1.203
-57.276	167.419	1.037	1.447
-56.261	-200.000	102.842	622.488
-55.246	607.991	1442.279	3534.765
-54.232	181.000	2661.039	3840.574
-53.217	112.781	2306.065	2743.590
-52.203	43.295	1916.128	1718.857
-51.188	37.073	1705.377	1482.380
-50.173	34.262	1661.747	1423.425
-49.159	51.987	1714.142	1603.306
-48.144	54.230	1729.808	1634.898
-47.130	36.676	1684.346	1460.868
-46.115	33.855	1669.326	1426.635
-45.100	33.700	1664.291	1421.109
-44.086	33.698	1661.383	1418.557
-43.071	33.616	1659.500	1416.280
-42.057	33.548	1656.987	1413.577
-41.042	33.701	1654.803	1412.791
-40.027	33.601	1652.874	1410.350
-39.013	33.569	1651.173	1408.598
-37.998	33.690	1648.853	1407.461
-36.984	33.729	1647.765	1406.770
-35.969	33.828	1646.127	1406.047
-34.954	33.737	1644.769	1404.156
-33.940	33.754	1643.116	1402.814
-32.925	33.736	1640.885	1400.727
-31.911	33.764	1639.246	1399.474
-30.896	33.730	1637.729	1397.873
-29.881	33.745	1635.842	1396.323
-28.867	33.797	1633.583	1394.719
-27.852	33.736	1632.526	1393.315
-26.838	33.839	1630.380	1392.182
-25.823	33.816	1629.510	1391.217
-24.809	33.816	1628.160	1390.008
-23.794	33.727	1626.782	1388.123
-22.779	33.899	1624.970	1387.780
-21.765	33.780	1623.491	1385.591
-20.750	33.720	1622.113	1383.927
-19.736	33.793	1620.470	1382.997
-18.721	33.789	1619.011	1381.667
-17.706	33.822	1617.205	1380.312
-16.692	33.761	1615.680	1378.515
-15.677	33.734	1614.398	1377.167
-14.663	33.757	1613.046	1376.127
-13.648	33.790	1611.737	1375.193
-12.633	33.808	1609.984	1373.776
-11.619	33.759	1608.846	1372.393
-10.604	33.780	1607.292	1371.168
-9.590	33.771	1606.162	1370.088
-8.575	33.814	1604.943	1369.296
-7.560	33.873	1603.272	1368.247
-6.546	33.836	1601.905	1366.760
-5.531	33.784	1600.994	1365.554
-4.517	33.831	1599.488	1364.549
-3.502	33.811	1598.673	1363.658
-2.487	33.807	1596.886	1362.051
-1.473	33.369	1585.034	1348.770
-0.458	30.143	1563.812	1307.939
0.556	23.859	1562.522	1270.868
1.571	21.166	1586.073	1270.341
2.586	20.849	1599.013	1278.261
3.600	18.983	1547.390	1223.621
4.615	10.310	1436.646	1078.418
5.629	1.648	1368.554	972.070
6.644	-0.160	1359.754	954.252
7.659	-0.321	1358.586	952.322
8.673	-0.305	1357.152	951.341
9.688	-0.354	1355.524	949.803
10.702	-0.534	1352.353	946.361
11.717	2.880	1358.984	972.563
12.731	12.026	1376.855	1043.743
13.746	18.405	1387.193	1092.290
14.761	18.940	1387.807	1096.089
15.775	19.078	1386.465	1095.810
16.790	19.069	1385.982	1095.274
17.804	19.143	1385.443	1095.223
18.819	19.364	1384.625	1095.885
19.834	19.455	1384.311	1096.113
20.848	19.447	1383.598	1095.403
21.863	19.387	1382.785	1094.281
22.877	19.472	1382.044	1094.140
23.892	19.401	1381.189	1092.916
24.907	19.449	1379.894	1092.097
25.921	19.453	1379.050	1091.359
26.936	19.402	1378.310	1090.351
27.950	19.492	1376.325	1089.254
28.965	19.442	1375.379	1088.091
29.980	19.445	1374.475	1087.301
30.994	19.380	1373.559	1086.069
32.009	19.407	1371.909	1084.841
33.023	19.419	1371.172	1084.235
34.038	19.398	1369.946	1083.038
35.053	19.514	1368.455	1082.493
36.067	19.431	1367.527	1081.142
37.082	19.329	1367.155	1080.115
38.096	19.451	1365.874	1079.770
39.111	19.376	1365.578	1078.969
40.126	19.488	1364.530	1078.745
41.140	19.510	1363.591	1078.044
42.155	19.416	1363.745	1077.488
43.169	19.463	1363.652	1077.611
44.184	19.438	1363.120	1076.937
45.199	19.489	1362.798	1076.907
46.213	19.461	1361.833	1075.875
47.228	19.464	1361.309	1075.386
48.242	19.447	1359.933	1074.099
49.257	19.462	1358.562	1073.009
50.271	19.427	1357.437	1071.809
51.286	19.388	1355.757	1070.149
52.301	19.449	1354.469	1069.414
53.315	19.493	1353.583	1068.891
54.330	19.454	1352.584	1067.770
55.344	19.361	1351.878	1066.544
56.359	19.539	1350.371	1066.357
57.374	19.425	1350.080	1065.328
58.388	19.501	1349.335	1065.118
59.403	19.442	1349.066	1064.446
60.417	19.512	1348.220	1064.118
61.432	19.400	1347.536	1062.791
62.447	19.414	1346.225	1061.750
63.461	19.514	1345.506	1061.704
64.476	19.402	1344.226	1059.909
65.490	19.424	1343.264	1059.193
66.505	19.469	1341.155	1057.715
67.520	19.452	1340.443	1056.954
68.534	19.447	1338.968	1055.667
69.549	19.436	1337.863	1054.633
70.563	19.516	1336.558	1054.003
71.578	19.458	1336.007	1053.120
72.593	19.506	1335.243	1052.714
73.607	19.405	1334.571	1051.476
74.622	19.406	1333.699	1050.704
75.636	19.464	1332.920	1050.351
76.651	19.423	1332.274	1049.496
77.666	19.459	1331.764	1049.224
78.680	19.522	1330.908	1048.837
79.695	19.362	1330.752	1047.653
80.709	19.510	1329.271	1047.294
81.724	19.459	1328.731	1046.462
82.739	19.405	1327.672	1045.212
83.753	19.487	1326.360	1044.582
84.768	19.489	1324.919	1043.368
85.782	19.480	1324.046	1042.531
86.797	19.455	1322.672	1041.207
87.812	19.523	1321.564	1040.651
88.826	19.446	1320.678	1039.396
89.841	19.504	1319.461	1038.699
90.855	19.504	1318.687	1037.995
91.870	19.528	1317.429	1037.057
92.884	19.506	1316.907	1036.423
93.899	19.461	1315.915	1035.280
94.914	19.554	1314.923	1034.968
95.928	19.517	1314.210	1034.095
96.943	19.578	1313.252	1033.613
97.957	19.577	1312.312	1032.776
98.972	19.426	1312.168	1031.670
99.987	19.603	1310.517	1031.335
101.001	19.494	1309.549	1029.829
102.016	19.497	1308.434	1028.880
103.030	19.508	1307.571	1028.180
104.045	19.505	1306.663	1027.353
105.060	19.564	1305.643	1026.811
106.074	19.539	1304.677	1025.810
107.089	19.574	1303.493	1024.998
108.103	19.549	1302.673	1024.115
109.118	19.450	1301.744	1022.710
110.133	19.572	1300.238	1022.153
111.147	19.647	1298.499	1021.141
112.162	19.552	1297.573	1019.761
113.176	19.676	1296.184	1019.314
114.191	19.693	1295.312	1018.636
115.206	19.545	1294.495	1017.031
116.220	19.649	1292.999	1016.381
117.235	19.684	1291.893	1015.624
118.249	19.543	1291.170	1014.138
119.264	19.545	1290.333	1013.403
120.279	19.644	1288.911	1012.778
121.293	19.699	1287.750	1012.097
122.308	19.644	1287.141	1011.207
123.322	19.592	1286.221	1010.089
124.337	19.660	1285.209	1009.606
125.352	19.697	1284.238	1008.969
126.366	19.656	1283.419	1007.998
127.381	19.779	1282.001	1007.509
128.395	19.678	1280.900	1005.969
129.410	19.677	1280.284	1005.389
130.424	19.698	1279.258	1004.618
131.439	19.633	1278.501	1003.552
132.454	19.666	1277.874	1003.165
133.468	19.732	1276.712	1002.548
134.483	19.639	1276.419	1001.687
135.497	19.622	1275.280	1000.607
136.512	19.617	1274.031	999.514
137.527	19.649	1273.303	999.036
138.541	19.596	1271.768	997.437
139.556	19.526	1270.509	995.959
140.570	19.586	1269.283	995.258
141.585	19.608	1267.959	994.258
142.600	19.658	1266.661	993.437
143.614	19.610	1265.647	992.280
144.629	19.522	1264.978	991.161
145.643	19.488	1263.653	989.838
146.658	19.566	1262.311	989.147
147.673	19.494	1261.591	988.082
148.687	19.672	1259.973	987.747
149.702	19.547	1259.270	986.397
150.716	19.635	1258.032	985.843
151.731	19.670	1256.686	984.899
152.746	19.552	1256.262	983.807
153.760	19.591	1255.020	982.971
154.775	19.563	1254.080	981.985
155.789	19.719	1252.794	981.776
156.804	19.594	1252.067	980.412
157.819	19.647	1251.113	979.878
158.833	19.603	1250.134	978.774
159.848	19.679	1249.450	978.586
160.862	19.651	1248.723	977.771
161.877	19.642	1247.733	976.859
162.892	19.731	1246.814	976.554
163.906	19.704	1246.140	975.787
164.921	19.703	1245.446	975.154
165.935	19.782	1244.652	974.892
166.950	19.723	1243.905	973.884
167.964	19.747	1243.341	973.491
168.979	19.835	1242.781	973.465
169.994	19.796	1242.406	972.862
171.008	19.742	1241.620	971.858
172.023	19.797	1240.060	970.858
173.037	19.760	1239.600	970.210
174.052	19.651	1239.645	969.545
175.067	19.758	1238.341	969.042
176.081	19.817	1237.221	968.406
177.096	19.816	1236.793	967.982
178.110	19.718	1235.680	966.476
179.125	19.803	1234.791	966.168
180.140	19.834	1233.591	965.321
181.154	19.749	1232.512	963.914
182.169	19.782	1231.505	963.229
183.183	19.743	1230.607	962.224
184.198	19.807	1229.285	961.461
185.213	19.837	1228.209	960.699
186.227	19.770	1227.459	959.656
187.242	19.826	1226.719	959.300
188.256	19.920	1225.318	958.641
189.271	19.744	1225.561	957.772
190.286	19.859	1224.124	957.203
191.300	19.895	1223.498	956.826
192.315	19.806	1223.125	955.960
193.329	19.809	1222.672	955.534
194.344	19.796	1222.329	955.109
195.359	19.858	1221.652	954.838
196.373	19.796	1220.694	953.667
197.388	19.666	1220.826	952.964
198.402	19.680	1220.594	952.779
199.417	19.709	1219.631	952.105
200.432	19.844	1218.676	952.013
201.446	19.839	1217.954	951.342
202.461	19.905	1217.209	951.038
203.475	19.775	1216.724	949.858
204.490	19.847	1215.363	949.108
205.504	19.853	1214.198	948.146
206.519	19.956	1213.565	948.132
207.534	19.881	1212.700	946.965
208.548	20.011	1211.174	946.399
209.563	19.881	1210.713	945.244
210.577	19.858	1210.032	944.502
211.592	19.848	1209.418	943.887
212.607	19.911	1208.549	943.469
213.621	19.913	1207.864	942.859
214.636	20.030	1206.793	942.576
215.650	19.949	1206.121	941.530
216.665	19.989	1205.077	940.845
217.680	19.922	1204.466	939.921
218.694	19.909	1203.479	938.999
219.709	19.935	1202.914	938.615
220.723	19.897	1202.335	937.877
221.738	19.973	1201.341	937.427
222.753	19.958	1200.379	936.516
223.767	19.971	1200.013	936.214
224.782	20.031	1199.667	936.188
225.796	20.050	1198.626	935.392
226.811	20.065	1198.266	935.109
227.826	20.031	1197.814	934.493
228.840	20.090	1197.111	934.177
229.855	20.111	1196.425	933.677
230.869	20.105	1195.666	932.969
231.884	20.002	1195.268	932.019
232.899	20.089	1194.260	931.622
233.913	20.095	1193.601	931.057
234.928	20.036	1193.442	930.532
235.942	20.172	1192.757	930.646
236.957	20.168	1191.618	929.653
237.972	20.149	1191.065	929.037
238.986	20.132	1190.242	928.224
240.001	20.203	1189.808	928.181
241.015	20.244	1188.820	927.550
242.030	20.193	1188.094	926.625
243.045	20.176	1187.673	926.125
244.059	20.280	1186.637	925.794
245.074	20.222	1186.040	924.936
246.088	20.240	1184.711	923.911
247.103	20.316	1184.575	924.126
248.117	20.180	1183.731	922.664
249.132	20.196	1182.963	922.071
250.147	20.208	1182.259	921.501
251.161	20.290	1181.430	921.210
252.176	20.203	1180.957	920.296
253.190	20.253	1180.318	919.984
254.205	20.262	1179.810	919.554
255.220	20.350	1179.005	919.312
256.234	20.334	1178.509	918.757
257.249	20.333	1178.067	918.326
258.263	20.313	1177.625	917.796
259.278	20.391	1176.700	917.407
260.293	20.389	1176.167	916.899
261.307	20.397	1175.407	916.268
262.322	20.316	1174.973	915.418
263.336	20.419	1173.967	915.101
264.351	20.268	1174.036	914.278
265.366	20.445	1172.841	914.196
266.380	20.342	1172.337	913.181
267.395	20.328	1171.467	912.347
268.409	20.270	1171.264	911.804
269.424	20.400	1170.209	911.588
270.439	20.325	1170.114	911.040
271.453	20.428	1169.652	911.136
272.468	20.303	1168.412	909.434
273.482	20.361	1167.812	909.191
274.497	20.422	1167.122	908.894
275.512	20.426	1166.653	908.470
276.526	20.355	1166.277	907.726
277.541	20.443	1165.386	907.408
278.555	20.568	1164.523	907.308
279.570	20.399	1164.208	906.104
280.585	20.386	1163.565	905.454
281.599	20.509	1162.249	904.991
282.614	20.375	1161.674	903.767
283.628	20.402	1160.505	902.919
284.643	20.589	1159.354	902.912
285.657	20.449	1159.014	901.843
286.672	20.567	1157.894	901.500
287.687	20.600	1156.934	900.845
288.701	20.541	1156.576	900.180
289.716	20.534	1155.577	899.289
290.730	20.592	1154.961	899.031
291.745	20.551	1154.382	898.286
292.760	20.504	1153.587	897.345
293.774	20.528	1153.173	897.066
294.789	20.659	1152.437	897.090
295.803	20.606	1151.577	896.069
296.818	20.573	1151.208	895.533
297.833	20.608	1150.694	895.233
298.847	20.586	1150.160	894.624
299.862	20.623	1149.199	893.990
300.876	20.588	1148.665	893.314
301.891	20.656	1147.797	892.913
302.906	20.815	1147.055	893.072
303.920	20.653	1146.872	892.020
304.935	20.700	1146.008	891.510
305.949	20.716	1145.060	890.772
306.964	20.766	1144.589	890.583
307.979	20.795	1143.853	890.079
308.993	20.667	1143.890	889.375
310.008	20.773	1142.617	888.852
311.022	20.762	1141.686	887.992
312.037	20.741	1141.199	887.424
313.052	20.783	1139.999	886.626
314.066	20.719	1139.508	885.841
315.081	20.705	1138.782	885.128
316.095	20.631	1138.155	884.185
317.110	20.765	1137.688	884.427
318.125	20.841	1136.676	883.947
319.139	20.782	1136.214	883.212
320.154	20.755	1135.714	882.608
321.168	20.695	1134.992	881.666
322.183	20.873	1134.370	882.003
323.197	20.823	1133.695	881.148
324.212	20.788	1133.242	880.538
325.227	20.811	1132.926	880.334
326.241	20.840	1132.160	879.806
327.256	20.786	1131.679	879.083
328.270	20.795	1130.954	878.488
329.285	20.783	1129.940	877.562
330.300	20.821	1128.669	876.690
331.314	20.817	1128.527	876.482
332.329	20.976	1127.644	876.515
333.343	21.079	1126.001	875.677
334.358	21.022	1125.363	874.819
335.373	20.959	1124.962	874.113
336.387	20.936	1124.280	873.391
337.402	21.046	1123.565	873.307
338.416	20.972	1123.092	872.495
339.431	21.028	1122.869	872.523
340.446	21.075	1122.054	872.046
341.460	21.077	1121.524	871.566
342.475	20.943	1120.558	870.072
343.489	21.010	1119.280	869.338
344.504	21.068	1118.567	868.997
345.519	21.065	1117.845	868.344
346.533	21.150	1116.902	867.958
347.548	21.181	1116.121	867.426
348.562	21.048	1115.635	866.312
349.577	21.204	1114.752	866.323
350.592	21.132	1114.077	865.365
351.606	21.111	1113.474	864.713
352.621	21.184	1113.057	864.674
353.635	21.246	1112.500	864.473
354.650	21.131	1111.781	863.270
355.665	21.185	1111.046	862.888
356.679	21.052	1111.038	862.152
357.694	21.271	1109.919	862.285
358.708	21.143	1108.954	860.827
359.723	21.179	1108.228	860.367
360.738	21.142	1107.594	859.618
361.752	21.245	1107.216	859.753
362.767	21.324	1106.678	859.648
363.781	21.332	1106.191	859.235
364.796	21.255	1105.642	858.351
365.810	21.362	1104.994	858.298
366.825	21.286	1104.542	857.502
367.840	21.390	1103.971	857.491
368.854	21.426	1103.247	857.028
369.869	21.380	1102.563	856.197
370.883	21.382	1101.741	855.491
371.898	21.490	1100.722	855.154
372.913	21.416	1100.399	854.466
373.927	21.475	1099.916	854.301
374.942	21.545	1099.162	853.982
375.956	21.418	1098.975	853.144
376.971	21.421	1098.194	852.473
377.986	21.543	1097.765	852.659
379.000	21.493	1097.448	852.094
380.015	21.662	1096.620	852.201
381.029	21.439	1095.788	850.394
382.044	21.558	1095.204	850.442
383.059	21.588	1094.541	849.999
384.073	21.512	1093.934	849.083
385.088	21.470	1093.111	848.163
386.102	21.451	1092.435	847.473
387.117	21.573	1091.198	847.029
388.132	21.595	1090.322	846.381
389.146	21.596	1089.927	846.004
390.161	21.602	1089.107	845.323
391.175	21.686	1088.300	845.027
392.190	21.529	1088.113	844.048
393.205	21.520	1087.195	843.217
394.219	21.665	1086.250	843.112
395.234	21.648	1085.713	842.536
396.248	21.618	1084.961	841.732
397.263	21.614	1083.847	840.778
398.278	21.761	1083.065	840.800
399.292	21.687	1082.878	840.224
400.307	21.780	1082.163	840.042
401.321	21.768	1081.743	839.586
402.336	21.644	1080.989	838.334
403.350	21.743	1080.127	838.063
404.365	21.759	1079.460	837.547
405.380	21.757	1078.737	836.902
406.394	21.882	1077.744	836.655
407.409	21.786	1077.139	835.654
408.423	21.760	1076.984	835.337
409.438	21.839	1075.534	834.513
410.453	21.888	1074.967	834.233
411.467	21.890	1074.551	833.843
412.482	21.763	1073.766	832.559
413.496	21.859	1072.971	832.322
414.511	21.754	1072.610	831.471
415.526	21.762	1072.086	831.031
416.540	21.809	1071.853	830.998
417.555	21.923	1071.108	830.889
418.569	21.819	1070.681	829.989
419.584	21.898	1070.722	830.321
420.599	21.902	1070.047	829.742
421.613	148.142	1397.434	1793.486
422.628	136.517	1445.139	1793.587
