DTS Sentinel unit serial number:	SN413079Multiplexer serial number:	ORYXHardware model number:	OX4-SRSoftware version number:	ORYX F/W v4.00 Oryx Data Collector v3.7.2.0data status	okinstallation	princeton_trtdifferential loss correction	single-endedforward channel	channel 2reverse channel	N/Adate	2019/09/16time	06:39:35forward acquisition time	60.00reverse acquisition time	0.00gamma	496.2192k internal	0.2334k external	0.2334temperature offset calibration	0.9976default loss term (dB/km)	0.3790temperature slope calibration	1.0000multiplexer offset coefficient	1.0000multiplexer slope coefficient	1.0000fibre end	0.00T internal ref (°C)	27.37T ext. ref 1 (°C)	11.40T ext. ref 2 (°C)	21.96length (m)	temperature (°C)	Stokes	anti-Stokes-747.200	11.214	0.457	0.351
-746.185	-200.000	0.031	-0.161
-745.171	-66.758	-0.128	0.051
-744.156	-137.364	-0.144	-0.016
-743.142	279.574	-0.119	0.213
-742.127	-200.000	0.017	0.108
-741.112	462.261	0.106	0.237
-740.098	148.252	0.160	0.217
-739.083	-69.831	-0.267	-0.103
-738.069	-200.000	0.009	0.198
-737.054	-11.529	-0.315	0.208
-736.039	-113.635	-0.152	0.030
-735.025	-85.942	0.360	0.112
-734.010	422.703	-0.234	-0.504
-732.996	138.652	-0.277	-0.365
-731.981	-200.000	-0.044	-0.232
-730.966	142.719	-0.170	-0.227
-729.952	698.672	-0.116	-0.305
-728.937	-66.659	-0.216	0.086
-727.923	-59.796	-0.208	-0.089
-726.908	548.732	0.041	0.098
-725.894	-29.431	-0.278	-0.160
-724.879	99.883	0.153	-0.177
-723.864	-130.650	-0.157	0.021
-722.850	648.719	-0.086	-0.222
-721.835	499.572	0.106	-0.245
-720.821	28.724	-0.236	-0.200
-719.806	-9.338	0.070	0.047
-718.791	-10.373	-0.225	0.150
-717.777	-19.571	-0.242	-0.151
-716.762	531.303	0.092	0.217
-715.748	-113.455	0.138	0.027
-714.733	6.186	-0.182	0.136
-713.718	-200.000	-0.038	-0.256
-712.704	-146.421	0.096	0.008
-711.689	280.537	-0.057	-0.102
-710.675	-29.410	-0.226	-0.130
-709.660	-116.955	0.379	0.069
-708.645	800.000	-0.044	-0.176
-707.631	78.390	0.103	-0.111
-706.616	-112.375	-0.298	0.060
-705.602	-200.000	0.007	-0.194
-704.587	102.789	0.133	-0.156
-703.572	796.893	0.115	0.319
-702.558	-61.498	-0.109	0.046
-701.543	-200.000	-0.022	-0.256
-700.529	-38.800	0.185	0.098
-699.514	-45.704	0.031	0.015
-698.499	-200.000	0.069	-0.339
-697.485	-144.952	0.217	0.020
-696.470	124.218	-0.077	-0.098
-695.456	-98.924	0.076	-0.019
-694.441	-174.697	-0.519	0.015
-693.426	3.657	0.129	0.094
-692.412	637.137	0.084	-0.215
-691.397	-200.000	-0.031	0.143
-690.383	170.603	0.122	-0.175
-689.368	158.164	-0.170	0.236
-688.354	-146.386	0.116	-0.010
-687.339	-19.007	0.079	-0.049
-686.324	4.558	-0.125	0.092
-685.310	161.368	0.213	-0.298
-684.295	-99.960	-0.442	-0.111
-683.281	57.236	-0.151	0.148
-682.266	-27.289	0.046	-0.027
-681.251	-200.000	0.045	-0.202
-680.237	800.000	-0.072	-0.215
-679.222	40.937	0.109	0.098
-678.208	81.940	-0.287	-0.312
-677.193	35.134	0.338	-0.297
-676.178	-55.833	-0.181	-0.081
-675.164	-91.522	0.087	-0.025
-674.149	4.676	-0.228	-0.168
-673.135	-200.000	-0.007	-0.236
-672.120	314.570	-0.181	0.343
-671.105	-164.856	-0.215	0.010
-670.091	-200.000	0.026	-0.147
-669.076	-164.507	-0.400	-0.018
-668.062	21.335	-0.331	-0.269
-667.047	110.857	0.123	-0.149
-666.032	-10.747	0.137	-0.091
-665.018	-50.447	0.080	-0.038
-664.003	-200.000	-0.008	0.054
-662.989	329.265	0.060	0.115
-661.974	330.906	0.025	-0.047
-660.959	-118.769	0.455	0.080
-659.945	-119.672	0.110	-0.019
-658.930	57.206	-0.295	-0.289
-657.916	33.347	-0.084	0.073
-656.901	138.997	0.212	-0.278
-655.886	-92.120	0.107	-0.030
-654.872	279.187	-0.095	0.170
-653.857	102.176	-0.207	-0.242
-652.843	184.286	0.038	-0.057
-651.828	-59.648	0.130	-0.056
-650.814	-165.555	-0.222	0.010
-649.799	-28.636	0.085	-0.049
-648.784	-51.813	-0.264	-0.123
-647.770	493.438	0.216	-0.495
-646.755	-136.710	-0.493	-0.057
-645.741	651.017	0.072	0.185
-644.726	326.904	0.138	-0.265
-643.711	-200.000	-0.046	0.319
-642.697	800.000	0.101	-0.305
-641.682	195.599	0.170	-0.258
-640.668	44.896	0.368	0.339
-639.653	14.225	-0.352	-0.274
-638.638	-40.315	0.148	-0.077
-637.624	-21.539	0.165	0.101
-636.609	-59.509	-0.200	0.086
-635.595	-27.665	-0.192	-0.112
-634.580	-200.000	-0.127	-0.001
-633.565	53.089	0.067	0.064
-632.551	-165.612	0.444	-0.019
-631.536	-34.050	-0.165	-0.091
-630.522	-116.622	0.109	0.020
-629.507	25.713	0.160	0.134
-628.492	117.828	-0.133	-0.164
-627.478	-167.380	0.290	-0.012
-626.463	367.009	0.034	0.069
-625.449	-28.180	-0.150	-0.086
-624.434	-164.409	-0.228	0.010
-623.419	-200.000	-0.020	0.153
-622.405	-52.618	0.012	-0.005
-621.390	-160.504	0.071	-0.004
-620.376	-200.000	-0.037	-0.172
-619.361	217.821	0.109	-0.174
-618.346	693.345	-0.056	0.146
-617.332	148.613	-0.060	0.081
-616.317	-200.000	-0.008	0.184
-615.303	24.460	0.135	0.111
-614.288	147.669	0.075	-0.101
-613.273	-200.000	-0.005	-0.526
-612.259	-62.800	0.126	-0.052
-611.244	-35.274	-0.104	-0.056
-610.230	800.000	-0.064	0.206
-609.215	-143.626	-0.248	0.024
-608.201	68.473	-0.131	0.135
-607.186	202.652	-0.176	0.272
-606.171	-115.013	0.335	0.064
-605.157	53.896	-0.116	0.112
-604.142	-119.520	-0.147	-0.026
-603.128	-119.594	-0.324	-0.056
-602.113	800.000	-0.059	-0.221
-601.098	-184.841	-0.472	-0.007
-600.084	-88.503	-0.153	-0.046
-599.069	340.217	0.034	-0.066
-598.055	-73.861	0.341	0.124
-597.040	126.075	0.178	-0.224
-596.025	-126.572	-0.348	0.052
-595.011	-88.287	-0.205	-0.061
-593.996	-200.000	0.031	-0.210
-592.982	130.121	-0.080	-0.103
-591.967	-120.124	0.252	0.043
-590.952	353.396	0.073	-0.144
-589.938	105.595	-0.075	0.088
-588.923	27.076	0.261	0.218
-587.909	532.467	-0.046	-0.110
-586.894	79.062	0.170	-0.182
-585.879	800.000	0.129	-0.498
-584.865	673.381	-0.114	0.296
-583.850	-93.586	-0.222	0.061
-582.836	94.120	-0.081	-0.092
-581.821	34.900	-0.153	0.134
-580.806	-74.656	0.178	0.064
-579.792	-11.331	0.130	-0.085
-578.777	103.754	0.196	0.230
-577.763	-33.767	0.095	0.052
-576.748	800.000	0.041	0.132
-575.733	-16.188	0.217	0.138
-574.719	162.009	-0.187	0.261
-573.704	450.702	0.092	-0.202
-572.690	-107.515	-0.165	0.036
-571.675	251.087	-0.236	0.401
-570.661	-200.000	0.023	-0.251
-569.646	-76.364	-0.150	-0.053
-568.631	-200.000	-0.038	0.189
-567.617	-154.379	-0.386	0.026
-566.602	-200.000	0.048	-0.225
-565.588	-200.000	0.021	-0.204
-564.573	103.520	-0.207	-0.243
-563.558	-200.000	-0.016	0.411
-562.544	141.111	0.060	-0.080
-561.529	-200.000	-0.027	-0.442
-560.515	-200.000	0.001	-0.009
-559.500	185.081	-0.018	-0.026
-558.485	283.875	0.072	-0.128
-557.471	17.935	0.219	-0.174
-556.456	373.494	0.068	0.138
-555.442	-58.778	0.284	-0.123
-554.427	800.000	0.051	-0.195
-553.412	-179.758	0.194	0.004
-552.398	97.110	-0.356	-0.408
-551.383	194.855	-0.056	-0.085
-550.369	-129.247	-0.240	-0.033
-549.354	-126.884	-0.097	0.014
-548.339	14.852	-0.302	0.236
-547.325	75.417	0.202	0.212
-546.310	-14.073	0.106	-0.068
-545.296	198.553	0.070	0.107
-544.281	76.399	0.147	-0.155
-543.266	-14.980	0.179	-0.114
-542.252	-200.000	0.039	0.304
-541.237	21.488	0.080	0.065
-540.223	793.960	0.103	0.283
-539.208	50.627	0.297	-0.280
-538.193	-83.456	0.043	0.014
-537.179	81.054	0.150	-0.162
-536.164	800.000	0.084	0.353
-535.150	-200.000	0.012	0.173
-534.135	-200.000	0.040	0.257
-533.121	7.057	0.088	-0.065
-532.106	-52.839	0.194	-0.089
-531.091	-14.557	-0.251	-0.161
-530.077	70.720	0.226	0.233
-529.062	-73.078	-0.111	-0.041
-528.048	-22.983	0.118	0.071
-527.033	-46.732	-0.082	-0.040
-526.018	-37.884	0.268	-0.142
-525.004	-78.867	0.172	0.059
-523.989	99.427	-0.168	0.194
-522.975	347.191	-0.051	0.100
-521.960	51.186	0.182	0.172
-520.945	747.596	0.081	0.218
-519.931	307.714	-0.118	-0.220
-518.916	15.839	-0.168	0.131
-517.902	-38.646	-0.216	-0.113
-516.887	404.049	0.054	0.113
-515.872	123.585	0.112	0.140
-514.858	-121.489	-0.232	0.038
-513.843	-200.000	-0.003	-0.125
-512.829	159.408	0.196	-0.272
-511.814	800.000	-0.109	-0.314
-510.799	-2.427	-0.219	0.153
-509.785	12.618	0.242	0.186
-508.770	5.258	-0.212	-0.155
-507.756	94.828	0.140	-0.158
-506.741	452.912	-0.122	0.269
-505.726	37.868	-0.236	0.209
-504.712	550.912	-0.076	-0.182
-503.697	-169.121	-0.026	0.001
-502.683	-105.377	0.179	-0.041
-501.668	301.000	0.136	-0.250
-500.653	-200.000	-0.005	0.067
-499.639	-90.106	-0.188	0.055
-498.624	11.490	-0.126	0.096
-497.610	-3.702	0.208	0.144
-496.595	-104.746	-0.164	0.038
-495.581	-27.114	0.118	0.068
-494.566	-200.000	-0.027	-0.267
-493.551	-119.372	-0.122	0.021
-492.537	-108.542	0.165	-0.035
-491.522	-200.000	-0.018	0.113
-490.508	-200.000	-0.003	-0.040
-489.493	-138.085	0.213	0.024
-488.478	220.709	0.104	0.166
-487.464	652.984	0.122	-0.312
-486.449	-146.725	-0.373	0.032
-485.435	-62.734	0.271	0.112
-484.420	-200.000	-0.038	0.256
-483.405	-173.399	-0.347	-0.010
-482.391	149.223	0.160	0.216
-481.376	-58.295	0.120	-0.052
-480.362	-68.269	0.223	0.086
-479.347	719.445	-0.046	0.121
-478.332	800.000	-0.143	0.422
-477.318	219.708	0.236	0.376
-476.303	602.170	0.068	-0.167
-475.289	190.045	0.138	0.206
-474.274	-200.000	0.034	0.420
-473.259	-200.000	0.003	0.013
-472.245	513.042	-0.024	0.056
-471.230	-135.538	0.096	-0.011
-470.216	-130.633	0.528	0.071
-469.201	32.827	0.131	-0.113
-468.186	26.383	-0.136	-0.113
-467.172	121.449	-0.169	0.209
-466.157	-200.000	-0.045	-0.217
-465.143	-200.000	0.079	-0.413
-464.128	28.457	-0.295	0.248
-463.113	-200.000	-0.003	0.074
-462.099	34.776	-0.252	0.219
-461.084	0.105	-0.040	-0.028
-460.070	-109.111	-0.312	-0.066
-459.055	526.197	0.220	-0.514
-458.040	30.564	0.073	-0.062
-457.026	137.697	0.072	-0.094
-456.011	-200.000	-0.000	0.014
-454.997	-47.173	0.308	0.149
-453.982	48.146	0.019	-0.018
-452.968	800.000	0.050	-0.140
-451.953	-200.000	0.023	-0.102
-450.938	-200.000	0.083	0.570
-449.924	724.190	-0.141	0.374
-448.909	-51.489	-0.108	-0.050
-447.895	-200.000	-0.010	0.230
-446.880	-200.000	0.012	0.177
-445.865	-80.122	0.239	-0.080
-444.851	44.145	-0.147	-0.134
-443.836	-200.000	-0.009	-0.258
-442.822	-143.289	-0.214	0.020
-441.807	-60.315	0.204	0.086
-440.792	-144.057	0.162	-0.015
-439.778	-200.000	-0.018	-0.425
-438.763	-37.936	0.165	-0.087
-437.749	174.181	-0.241	0.346
-436.734	6.073	-0.195	0.143
-435.719	68.881	0.250	0.255
-434.705	800.000	0.015	-0.058
-433.690	-86.633	-0.081	0.025
-432.676	800.000	0.076	0.325
-431.661	248.020	0.038	-0.064
-430.646	426.754	0.033	0.071
-429.632	-23.477	0.259	-0.154
-428.617	474.121	0.116	-0.261
-427.603	21.638	0.147	0.118
-426.588	73.554	-0.120	0.125
-425.573	564.380	-0.048	-0.116
-424.559	-22.560	-0.103	-0.062
-423.544	291.164	-0.026	0.047
-422.530	58.419	0.107	0.104
-421.515	170.301	-0.008	-0.011
-420.500	-119.683	-0.050	-0.009
-419.486	623.442	0.059	0.147
-418.471	-7.122	-0.072	-0.048
-417.457	-29.452	-0.025	0.014
-416.442	-200.000	0.009	0.158
-415.428	694.386	-0.008	0.020
-414.413	-76.170	-0.195	-0.068
-413.398	-144.674	0.012	0.001
-412.384	-200.000	-0.020	-0.331
-411.369	-200.000	-0.311	-0.000
-410.355	-8.812	0.139	-0.093
-409.340	84.307	0.176	-0.191
-408.325	235.422	0.085	0.139
-407.311	800.000	-0.075	-0.258
-406.296	800.000	0.074	-0.270
-405.282	367.996	-0.059	-0.117
-404.267	233.104	0.097	0.159
-403.252	36.277	-0.080	0.070
-402.238	800.000	-0.166	0.602
-401.223	-1.350	-0.109	-0.076
-400.209	390.126	0.102	0.209
-399.194	-106.014	0.411	0.092
-398.179	35.219	0.077	-0.067
-397.165	-200.000	0.023	0.199
-396.150	-200.000	0.016	0.150
-395.136	800.000	0.020	0.086
-394.121	98.814	0.106	-0.121
-393.106	34.690	-0.100	-0.087
-392.092	209.248	0.084	-0.130
-391.077	134.882	-0.267	0.344
-390.063	58.874	0.301	0.293
-389.048	-145.294	-0.167	-0.015
-388.033	150.035	-0.102	-0.137
-387.019	-67.163	0.140	-0.055
-386.004	-78.415	-0.266	-0.090
-384.990	158.186	0.193	0.266
-383.975	613.424	-0.099	0.245
-382.960	503.867	0.079	-0.182
-381.946	-42.168	0.175	0.088
-380.931	102.348	-0.133	-0.154
-379.917	-78.862	-0.185	0.063
-378.902	800.000	0.073	0.217
-377.888	236.800	-0.113	0.186
-376.873	-75.878	0.349	0.122
-375.858	-53.781	0.101	-0.046
-374.844	8.158	0.179	-0.133
-373.829	76.753	0.215	-0.226
-372.815	46.645	-0.020	0.019
-371.800	88.286	0.195	-0.215
-370.785	-200.000	-0.012	-0.240
-369.771	130.877	0.237	-0.302
-368.756	2.938	0.080	0.057
-367.742	-200.000	0.002	0.240
-366.727	-200.000	-0.045	0.246
-365.712	800.000	0.057	-0.228
-364.698	282.987	-0.032	-0.056
-363.683	-106.281	0.157	-0.035
-362.669	64.670	-0.213	0.213
-361.654	451.352	-0.219	0.478
-360.639	71.408	0.238	0.245
-359.625	92.660	0.047	-0.052
-358.610	-200.000	-0.005	-0.274
-357.596	233.581	0.178	0.290
-356.581	716.447	-0.080	-0.211
-355.566	-156.294	0.166	-0.010
-354.552	-58.374	-0.302	-0.130
-353.537	103.636	-0.135	0.157
-352.523	27.791	-0.154	-0.128
-351.508	800.000	0.086	0.263
-350.493	20.992	-0.165	0.133
-349.479	31.908	-0.064	-0.055
-348.464	-11.026	0.219	0.143
-347.450	-73.205	-0.141	0.051
-346.435	40.617	0.231	0.206
-345.420	-120.826	0.234	0.039
-344.406	77.321	0.151	0.159
-343.391	744.522	0.083	-0.220
-342.377	-189.086	0.425	-0.005
-341.362	800.000	0.027	-0.080
-340.348	-200.000	0.038	0.260
-339.333	227.344	0.161	0.259
-338.318	30.348	0.170	-0.144
-337.304	-200.000	-0.068	0.495
-336.289	530.519	-0.017	0.040
-335.275	-200.000	0.002	-0.051
-334.260	60.896	0.078	-0.077
-333.245	-200.000	-0.020	0.096
-332.231	27.608	0.069	-0.057
-331.216	-145.082	-0.382	-0.034
-330.202	-42.564	0.027	0.014
-329.187	-23.215	-0.225	0.134
-328.172	-72.124	0.136	-0.050
-327.158	-200.000	0.006	-0.156
-326.143	14.507	0.114	0.088
-325.129	23.075	0.083	0.067
-324.114	-132.075	0.158	-0.020
-323.099	336.732	0.114	-0.219
-322.085	-200.000	0.032	0.421
-321.070	-128.891	0.360	-0.050
-320.056	-37.029	-0.248	-0.131
-319.041	508.640	0.041	-0.094
-318.026	-91.236	0.337	0.095
-317.012	-28.501	0.069	-0.039
-315.997	-104.616	-0.262	-0.060
-314.983	-200.000	0.007	-0.138
-313.968	657.822	0.054	0.138
-312.953	-200.000	-0.026	-0.189
-311.939	-200.000	-0.017	0.086
-310.924	7.016	0.115	-0.085
-309.910	800.000	-0.116	0.345
-308.895	-200.000	0.006	0.169
-307.880	75.016	0.116	-0.121
-306.866	-51.862	-0.204	-0.094
-305.851	800.000	-0.037	0.113
-304.837	-69.535	-0.014	-0.005
-303.822	-123.762	-0.150	0.023
-302.807	106.935	-0.221	-0.259
-301.793	315.675	0.216	-0.402
-300.778	6.171	-0.113	0.082
-299.764	148.996	-0.161	-0.215
-298.749	-133.493	0.264	-0.033
-297.735	4.582	-0.106	0.077
-296.720	174.717	0.137	-0.196
-295.705	-37.567	0.306	0.161
-294.691	-122.420	-0.024	0.004
-293.676	-200.000	0.014	-0.308
-292.662	-200.000	-0.023	0.296
-291.647	150.649	-0.091	-0.122
-290.632	-110.553	-0.369	0.075
-289.618	296.038	-0.076	0.138
-288.603	-38.389	0.150	-0.078
-287.589	172.325	-0.147	0.208
-286.574	-23.016	-0.099	-0.059
-285.559	-81.668	-0.246	-0.080
-284.545	47.078	0.147	0.135
-283.530	60.511	-0.285	-0.278
-282.516	-89.542	-0.227	-0.066
-281.501	-52.963	-0.220	0.100
-280.486	-46.953	-0.264	-0.127
-279.472	-93.801	0.118	-0.032
-278.457	-102.960	0.314	0.074
-277.443	168.257	0.131	0.184
-276.428	800.000	0.027	0.074
-275.413	23.308	0.220	-0.179
-274.399	-200.000	-0.016	0.198
-273.384	-114.665	-0.124	0.023
-272.370	-200.000	-0.042	-0.545
-271.355	-14.784	0.157	0.099
-270.340	-60.356	0.041	0.017
-269.326	69.136	0.128	0.130
-268.311	-75.582	-0.231	0.081
-267.297	73.208	-0.272	-0.280
-266.282	-107.644	0.452	-0.097
-265.267	-106.166	-0.404	-0.089
-264.253	-141.603	-0.089	0.009
-263.238	90.538	-0.040	-0.044
-262.224	-200.000	0.005	-0.105
-261.209	-200.000	0.036	0.211
-260.195	800.000	-0.079	0.217
-259.180	-101.626	0.447	0.107
-258.165	502.070	0.030	0.067
-257.151	-165.926	0.162	0.007
-256.136	-72.333	-0.339	-0.124
-255.122	800.000	0.097	-0.274
-254.107	29.102	-0.160	0.134
-253.092	9.838	-0.282	0.211
-252.078	49.301	-0.079	0.074
-251.063	102.649	0.170	-0.197
-250.049	-73.881	0.208	-0.075
-249.034	-45.308	-0.386	0.189
-248.019	-133.392	-0.264	-0.033
-247.005	-36.337	0.095	-0.050
-245.990	68.804	0.175	0.177
-244.976	-200.000	0.022	0.136
-243.961	60.561	-0.118	-0.115
-242.946	796.949	-0.137	-0.371
-241.932	-200.000	-0.018	-0.116
-240.917	-63.579	-0.193	0.078
-239.903	-153.342	-0.085	0.006
-238.888	0.196	0.428	-0.300
-237.873	800.000	-0.035	0.146
-236.859	-111.735	-0.251	-0.050
-235.844	800.000	0.058	-0.238
-234.830	-200.000	-0.033	-0.457
-233.815	64.837	0.286	0.285
-232.800	-200.000	-0.052	-0.305
-231.786	-112.293	0.103	-0.020
-230.771	55.092	-0.059	-0.056
-229.757	-156.718	0.221	0.013
-228.742	-200.000	0.003	-0.237
-227.727	247.363	-0.120	-0.199
-226.713	36.121	0.213	0.185
-225.698	786.529	-0.121	-0.328
-224.684	-1.510	0.258	-0.179
-223.669	800.000	0.064	0.180
-222.655	800.000	-0.090	0.317
-221.640	-103.781	-0.289	-0.067
-220.625	418.498	0.167	-0.351
-219.611	-66.358	-0.121	0.047
-218.596	125.473	-0.171	0.212
-217.582	183.972	-0.082	-0.119
-216.567	-13.975	0.240	0.152
-215.552	-118.340	0.203	-0.036
-214.538	-200.000	0.032	-0.228
-213.523	-115.231	0.236	-0.044
-212.509	168.327	-0.218	0.306
-211.494	133.490	-0.064	0.082
-210.479	183.573	-0.148	-0.215
-209.465	317.420	0.155	-0.288
-208.450	-200.000	-0.033	-0.258
-207.436	800.000	-0.045	-0.133
-206.421	-114.846	0.244	-0.046
-205.406	-200.000	-0.032	-0.264
-204.392	22.393	0.075	-0.060
-203.377	738.107	-0.070	-0.184
-202.363	151.075	-0.105	0.140
-201.348	-104.006	-0.128	0.029
-200.333	35.091	-0.174	-0.150
-199.319	-200.000	-0.002	0.111
-198.304	-37.765	-0.394	0.206
-197.290	-136.291	0.252	0.029
-196.275	-57.988	0.287	-0.123
-195.260	-174.237	-0.237	-0.007
-194.246	-200.000	0.023	0.252
-193.231	-200.000	-0.073	0.447
-192.217	2.796	-0.089	0.063
-191.202	-47.610	0.061	-0.029
-190.187	800.000	0.068	-0.261
-189.173	-190.237	-0.171	-0.002
-188.158	800.000	-0.090	0.264
-187.144	177.246	-0.093	-0.133
-186.129	-119.458	-0.367	-0.063
-185.114	356.507	0.201	0.394
-184.100	-200.000	-0.001	-0.067
-183.085	-130.731	-0.196	-0.026
-182.071	663.383	0.049	0.125
-181.056	277.323	-0.042	-0.073
-180.042	-30.892	-0.102	0.057
-179.027	36.016	0.205	0.177
-178.012	365.069	0.063	-0.125
-176.998	-63.031	0.037	0.015
-175.983	800.000	-0.069	-0.273
-174.969	-107.314	-0.447	-0.097
-173.954	221.188	-0.073	0.115
-172.939	20.362	0.173	-0.137
-171.925	-170.823	0.181	0.006
-170.910	52.862	-0.325	0.306
-169.896	258.109	-0.213	-0.361
-168.881	-83.833	-0.083	0.026
-167.866	-26.503	-0.227	-0.131
-166.852	-142.228	-0.240	-0.023
-165.837	65.626	-0.240	0.239
-164.823	227.007	-0.064	-0.103
-163.808	-200.000	-0.046	-0.277
-162.793	-200.000	-0.057	-0.285
-161.779	-20.676	0.256	0.154
-160.764	16.074	0.072	0.055
-159.750	-40.161	-0.190	-0.097
-158.735	156.536	-0.151	-0.205
-157.720	314.950	0.131	0.243
-156.706	-84.732	-0.361	0.112
-155.691	379.421	0.040	-0.081
-154.677	338.848	-0.181	-0.346
-153.662	-6.758	0.243	0.162
-152.647	796.114	-0.060	-0.162
-151.633	-141.008	-0.106	-0.011
-150.618	-200.000	0.052	0.261
-149.604	562.974	0.077	0.183
-148.589	-72.093	-0.093	-0.034
-147.574	365.288	-0.087	0.171
-146.560	-85.412	0.127	0.039
-145.545	-46.824	0.179	0.086
-144.531	-200.000	-0.004	-0.132
-143.516	184.377	0.103	-0.150
-142.502	-189.099	-0.019	-0.000
-141.487	-43.381	0.265	0.131
-140.472	-200.000	-0.008	-0.114
-139.458	-189.117	0.293	0.003
-138.443	-102.809	0.387	0.090
-137.429	800.000	-0.061	-0.230
-136.414	-92.453	0.088	-0.024
-135.399	800.000	-0.035	-0.104
-134.385	517.753	-0.033	-0.075
-133.370	112.346	-0.224	-0.266
-132.356	133.828	0.203	0.257
-131.341	-91.691	-0.139	0.039
-130.326	-200.000	0.038	0.516
-129.312	99.776	0.061	0.070
-128.297	-111.906	0.446	-0.088
-127.283	-157.673	-0.137	0.008
-126.268	295.896	0.127	0.228
-125.253	-200.000	-0.007	0.046
-124.239	-86.994	-0.150	0.045
-123.224	-11.862	0.160	0.103
-122.210	-85.743	0.281	0.086
-121.195	-122.116	0.263	0.042
-120.180	-200.000	-0.041	-0.179
-119.166	-200.000	0.022	0.214
-118.151	41.782	0.163	-0.145
-117.137	-88.895	-0.176	-0.051
-116.122	753.142	-0.087	-0.230
-115.107	231.565	0.091	0.146
-114.093	800.000	0.049	0.200
-113.078	800.000	0.058	0.191
-112.064	-200.000	-0.001	-0.223
-111.049	143.526	-0.181	0.237
-110.034	629.688	0.063	0.156
-109.020	800.000	-0.095	0.375
-108.005	185.726	0.080	-0.116
-106.991	-134.133	0.157	0.019
-105.976	-115.420	-0.261	0.048
-104.962	158.417	0.085	-0.116
-103.947	-200.000	-0.069	-0.343
-102.932	-4.293	0.275	-0.186
-101.918	471.704	0.143	0.316
-100.903	-200.000	0.010	-0.102
-99.889	-48.291	-0.101	-0.048
-98.874	-200.000	-0.017	0.525
-97.859	44.743	0.244	0.220
-96.845	-129.756	0.217	-0.029
-95.830	-56.173	0.277	-0.121
-94.816	-162.732	0.050	0.002
-93.801	800.000	0.136	0.375
-92.786	123.301	-0.174	-0.214
-91.772	800.000	-0.081	0.224
-90.757	-18.682	0.481	0.294
-89.743	-36.790	-0.182	0.096
-88.728	-59.493	0.192	0.081
-87.713	-84.444	-0.483	0.150
-86.699	-200.000	0.001	-0.160
-85.684	-85.164	-0.251	0.077
-84.670	31.439	0.039	-0.033
-83.655	-100.268	0.392	-0.095
-82.640	88.158	0.134	0.146
-81.626	-200.000	-0.033	-0.216
-80.611	800.000	0.095	0.279
-79.597	-51.163	0.304	0.140
-78.582	134.211	-0.037	-0.047
-77.567	69.721	-0.098	0.099
-76.553	-27.098	0.277	-0.158
-75.538	348.874	-0.016	-0.031
-74.524	404.719	-0.202	0.417
-73.509	-93.842	0.220	-0.059
-72.494	6.569	0.123	-0.090
-71.480	79.444	0.140	0.147
-70.465	471.218	-0.013	-0.028
-69.451	236.843	-0.011	0.017
-68.436	-60.784	0.096	-0.040
-67.422	-62.376	-0.068	0.028
-66.407	345.649	0.125	-0.241
-65.392	538.979	0.079	0.183
-64.378	527.049	-0.058	0.134
-63.363	-145.510	-0.200	0.018
-62.349	73.819	-0.206	0.212
-61.334	38.817	-0.973	-0.850
-60.319	-4.445	0.991	0.670
-59.305	540.818	-0.414	-0.964
-58.290	102.399	1.087	1.243
-57.276	231.999	0.924	1.483
-56.261	-200.000	114.525	643.924
-55.246	464.104	1513.425	3309.356
-54.232	145.203	2691.077	3522.664
-53.217	96.687	2296.060	2572.382
-52.203	36.409	1906.391	1644.682
-51.188	30.495	1697.077	1419.039
-50.173	27.995	1655.860	1365.866
-49.159	50.193	1710.247	1579.625
-48.144	48.763	1724.562	1581.966
-47.130	30.231	1682.790	1404.876
-46.115	27.487	1668.611	1372.342
-45.100	27.399	1663.535	1367.447
-44.086	27.286	1660.936	1364.408
-43.071	27.203	1658.750	1361.937
-42.057	27.216	1656.312	1359.984
-41.042	27.236	1654.056	1358.227
-40.027	27.225	1652.293	1356.637
-39.013	27.200	1650.361	1354.815
-37.998	27.287	1648.919	1354.221
-36.984	27.367	1647.065	1353.244
-35.969	27.354	1645.717	1351.985
-34.954	27.413	1644.058	1351.004
-33.940	27.399	1642.723	1349.752
-32.925	27.374	1640.650	1347.808
-31.911	27.382	1638.915	1346.389
-30.896	27.379	1637.114	1344.835
-29.881	27.279	1635.397	1342.630
-28.867	27.350	1633.973	1341.938
-27.852	27.375	1632.019	1340.462
-26.838	27.338	1630.382	1338.793
-25.823	27.322	1629.178	1337.628
-24.809	27.419	1628.543	1337.768
-23.794	27.509	1626.553	1336.741
-22.779	27.477	1625.051	1335.220
-21.765	27.343	1624.137	1333.438
-20.750	27.321	1622.472	1331.850
-19.736	27.406	1621.319	1331.473
-18.721	27.458	1619.404	1330.233
-17.706	27.379	1618.081	1328.518
-16.692	27.425	1616.157	1327.218
-15.677	27.392	1614.998	1325.974
-14.663	27.425	1614.006	1325.348
-13.648	27.420	1612.599	1324.103
-12.633	27.290	1611.086	1321.864
-11.619	27.377	1609.637	1321.255
-10.604	27.400	1608.115	1320.120
-9.590	27.430	1606.156	1318.673
-8.575	27.400	1605.569	1317.920
-7.560	27.472	1603.839	1316.970
-6.546	27.393	1603.204	1315.825
-5.531	27.440	1602.018	1315.137
-4.517	27.407	1600.742	1313.803
-3.502	27.453	1599.824	1313.330
-2.487	27.468	1597.947	1311.846
-1.473	27.132	1585.921	1299.518
-0.458	24.376	1566.728	1264.238
0.556	19.298	1568.759	1234.517
1.571	17.180	1592.179	1237.421
2.586	16.867	1604.826	1244.841
3.600	16.412	1554.860	1202.743
4.615	14.268	1456.904	1112.553
5.629	11.915	1403.537	1056.544
6.644	11.503	1395.881	1048.041
7.659	11.435	1394.976	1046.836
8.673	11.375	1393.829	1045.495
9.688	11.308	1391.820	1043.466
10.702	11.370	1388.363	1041.182
11.717	12.279	1390.255	1048.314
12.731	15.025	1394.352	1068.873
13.746	17.273	1397.251	1085.367
14.761	17.491	1397.302	1086.703
15.775	16.697	1394.361	1079.260
16.790	15.581	1392.372	1070.519
17.804	14.783	1389.939	1063.477
18.819	14.297	1388.045	1058.844
19.834	14.031	1386.587	1055.948
20.848	13.839	1385.604	1053.887
21.863	13.474	1384.382	1050.547
22.877	13.367	1383.290	1048.948
23.892	13.395	1382.354	1048.323
24.907	13.345	1381.199	1047.038
25.921	13.392	1380.631	1046.814
26.936	13.553	1378.874	1046.403
27.950	13.468	1378.229	1045.284
28.965	13.582	1377.238	1045.159
29.980	13.585	1376.212	1044.312
30.994	13.674	1374.766	1043.679
32.009	13.709	1373.850	1043.113
33.023	13.714	1372.788	1042.243
34.038	13.606	1371.615	1040.581
35.053	13.568	1370.167	1039.154
36.067	13.605	1368.723	1038.201
37.082	13.553	1368.239	1037.414
38.096	13.591	1367.163	1036.748
39.111	13.516	1366.509	1035.689
40.126	13.572	1365.214	1034.962
41.140	13.397	1364.421	1033.178
42.155	13.315	1363.854	1032.148
43.169	13.335	1363.315	1031.770
44.184	13.385	1363.361	1032.029
45.199	13.339	1362.730	1031.171
46.213	13.423	1362.462	1031.404
47.228	13.421	1361.797	1030.793
48.242	13.571	1359.618	1029.988
49.257	13.493	1358.800	1028.794
50.271	13.419	1356.911	1026.812
51.286	13.532	1355.611	1026.437
52.301	13.462	1354.456	1025.039
53.315	13.488	1353.150	1024.119
54.330	13.411	1352.482	1023.050
55.344	13.308	1351.238	1021.377
56.359	13.425	1349.967	1021.049
57.374	13.332	1349.428	1019.978
58.388	13.426	1348.087	1019.457
59.403	13.283	1348.465	1018.768
60.417	13.178	1347.879	1017.588
61.432	13.294	1346.554	1017.215
62.447	13.203	1345.690	1015.910
63.461	13.145	1344.153	1014.305
64.476	13.228	1343.426	1014.173
65.490	13.168	1342.356	1012.911
66.505	13.133	1341.094	1011.652
67.520	13.249	1339.397	1010.996
68.534	13.333	1338.391	1010.661
69.549	13.244	1337.426	1009.295
70.563	13.275	1336.468	1008.670
71.578	13.149	1335.401	1007.010
72.593	13.130	1334.575	1006.182
73.607	13.222	1333.783	1006.059
74.622	13.093	1333.329	1004.839
75.636	13.178	1332.392	1004.562
76.651	13.169	1331.764	1003.948
77.666	13.198	1330.901	1003.383
78.680	13.211	1330.344	1002.954
79.695	13.165	1329.633	1002.050
80.709	13.323	1328.471	1002.041
81.724	13.331	1328.025	1001.664
82.739	13.371	1327.375	1001.327
83.753	13.436	1326.296	1000.816
84.768	13.549	1325.159	1000.551
85.782	13.511	1324.099	999.434
86.797	13.528	1322.943	998.577
87.812	13.395	1321.757	996.796
88.826	13.469	1320.259	996.019
89.841	13.350	1319.783	994.854
90.855	13.455	1318.636	994.535
91.870	13.505	1317.790	994.108
92.884	13.547	1316.627	993.397
93.899	13.501	1316.305	992.791
94.914	13.709	1315.175	993.098
95.928	13.582	1314.142	991.467
96.943	13.571	1313.541	990.861
97.957	13.529	1312.353	989.629
98.972	13.529	1311.297	988.742
99.987	13.564	1310.187	988.025
101.001	13.555	1308.929	986.937
102.016	13.453	1308.346	985.801
103.030	13.443	1307.326	984.890
104.045	13.607	1306.048	984.809
105.060	13.459	1305.122	983.150
106.074	13.354	1303.841	981.472
107.089	13.295	1302.397	979.946
108.103	13.316	1301.024	978.956
109.118	13.333	1299.770	978.023
110.133	13.361	1298.462	977.121
111.147	13.390	1296.956	976.071
112.162	13.332	1295.799	974.773
113.176	13.318	1295.045	974.037
114.191	13.447	1294.018	973.936
115.206	13.413	1292.837	972.758
116.220	13.368	1291.466	971.382
117.235	13.343	1290.358	970.315
118.249	13.433	1289.495	970.107
119.264	13.257	1288.313	968.102
120.279	13.377	1286.959	967.696
121.293	13.339	1285.971	966.650
122.308	13.343	1285.074	965.913
123.322	13.336	1283.632	964.704
124.337	13.280	1282.812	963.674
125.352	13.246	1282.069	962.833
126.366	13.358	1280.588	962.289
127.381	13.337	1279.339	961.142
128.395	13.311	1278.781	960.485
129.410	13.199	1277.875	959.070
130.424	13.414	1276.055	958.866
131.439	13.402	1275.537	958.321
132.454	13.348	1274.573	957.198
133.468	13.415	1273.929	957.017
134.483	13.534	1273.024	956.941
135.497	13.301	1272.030	954.767
136.512	13.312	1270.680	953.730
137.527	13.372	1269.485	953.093
138.541	13.483	1267.569	952.213
139.556	13.457	1266.685	951.312
140.570	13.620	1265.287	951.117
141.585	13.623	1264.153	950.194
142.600	13.633	1262.718	949.088
143.614	13.589	1262.833	948.843
144.629	13.668	1261.633	948.306
145.643	13.647	1260.416	947.186
146.658	13.563	1258.821	945.426
147.673	13.447	1257.456	943.656
148.687	13.523	1256.204	943.065
149.702	13.556	1255.037	942.294
150.716	13.438	1253.458	940.353
151.731	13.536	1252.421	940.050
152.746	13.541	1251.204	939.081
153.760	13.576	1250.313	938.528
154.775	13.646	1249.228	938.028
155.789	13.682	1247.643	936.959
156.804	13.658	1247.219	936.422
157.819	13.708	1245.647	935.441
158.833	13.738	1244.857	934.934
159.848	13.788	1243.759	934.308
160.862	13.653	1243.296	933.117
161.877	13.639	1242.011	931.993
162.892	13.546	1240.743	930.436
163.906	13.744	1239.270	930.358
164.921	13.591	1239.159	929.336
165.935	13.677	1238.022	928.883
166.950	13.684	1237.455	928.410
167.964	13.629	1236.881	927.594
168.979	13.732	1235.891	927.343
169.994	13.683	1235.239	926.496
171.008	13.712	1234.166	925.775
172.023	13.710	1233.745	925.363
173.037	13.853	1232.897	925.443
174.052	13.950	1231.473	924.834
175.067	13.803	1230.366	923.102
176.081	13.647	1229.420	921.443
177.096	13.707	1228.617	921.094
178.110	13.731	1227.762	920.504
179.125	13.743	1226.244	919.352
180.140	13.810	1225.309	918.942
181.154	13.869	1223.768	918.028
182.169	13.757	1222.892	916.673
183.183	13.965	1221.459	916.663
184.198	13.938	1221.002	916.091
185.213	13.871	1219.871	914.792
186.227	14.031	1218.309	914.422
187.242	13.973	1217.286	913.254
188.256	13.986	1216.643	912.764
189.271	14.034	1215.336	911.963
190.286	13.917	1214.173	910.369
191.300	13.775	1213.396	908.928
192.315	13.634	1213.354	908.046
193.329	13.795	1212.157	907.948
194.344	13.793	1211.720	907.533
195.359	13.912	1211.043	907.595
196.373	13.955	1210.684	907.481
197.388	13.995	1210.118	907.190
198.402	14.196	1209.398	907.667
199.417	14.210	1208.490	906.985
200.432	14.227	1207.920	906.570
201.446	14.231	1207.378	906.101
202.461	14.238	1206.248	905.213
203.475	14.196	1205.694	904.489
204.490	14.173	1203.713	902.798
205.504	14.236	1202.444	902.110
206.519	14.124	1201.505	900.719
207.534	14.249	1199.926	900.130
208.548	14.266	1199.296	899.669
209.563	14.244	1198.332	898.745
210.577	14.229	1197.460	897.936
211.592	14.229	1196.877	897.419
212.607	14.323	1196.001	897.186
213.621	14.254	1195.134	896.086
214.636	14.285	1194.182	895.461
215.650	14.355	1193.349	895.134
216.665	14.408	1192.025	894.345
217.680	14.388	1191.764	893.961
218.694	14.482	1190.905	893.740
219.709	14.417	1190.160	892.756
220.723	14.449	1189.548	892.392
221.738	14.361	1189.044	891.461
222.753	14.397	1187.709	890.575
223.767	14.507	1187.309	890.784
224.782	14.526	1186.856	890.463
225.796	14.573	1185.904	889.921
226.811	14.589	1185.363	889.522
227.826	14.624	1184.698	889.130
228.840	14.564	1183.498	887.831
229.855	14.518	1182.817	886.997
230.869	14.558	1182.287	886.735
231.884	14.416	1181.667	885.436
232.899	14.439	1180.715	884.772
233.913	14.514	1179.956	884.519
234.928	14.468	1179.053	883.522
235.942	14.526	1178.237	883.137
236.957	14.504	1177.503	882.395
237.972	14.499	1177.083	881.975
238.986	14.527	1176.362	881.502
240.001	14.586	1175.465	881.063
241.015	14.685	1174.062	880.458
242.030	14.571	1174.024	879.748
243.045	14.687	1172.914	879.449
244.059	14.670	1172.540	879.002
245.074	14.725	1171.345	878.317
246.088	14.769	1170.661	877.960
247.103	14.769	1170.001	877.389
248.117	14.704	1169.669	876.717
249.132	14.900	1168.618	876.882
250.147	15.035	1167.719	876.839
251.161	14.929	1166.943	875.622
252.176	15.076	1166.115	875.690
253.190	15.033	1165.605	875.009
254.205	15.123	1164.964	874.919
255.220	15.005	1164.963	874.226
256.234	15.078	1163.933	873.755
257.249	15.070	1163.304	873.165
258.263	14.986	1162.818	872.285
259.278	15.091	1161.899	872.063
260.293	15.183	1161.459	872.137
261.307	15.065	1161.043	871.130
262.322	15.157	1160.061	870.795
263.336	15.203	1159.476	870.516
264.351	15.260	1158.854	870.272
265.366	15.234	1158.149	869.529
266.380	15.355	1157.127	869.315
267.395	15.301	1156.128	868.204
268.409	15.186	1155.797	867.283
269.424	15.250	1155.300	867.166
270.439	15.219	1155.020	866.720
271.453	15.140	1154.026	865.490
272.468	15.182	1152.822	864.723
273.482	15.259	1151.944	864.389
274.497	15.174	1151.858	863.810
275.512	15.266	1151.068	863.611
276.526	15.318	1149.970	862.980
277.541	15.333	1149.374	862.533
278.555	15.298	1148.756	861.816
279.570	15.440	1147.905	861.829
280.585	15.259	1147.392	860.439
281.599	15.363	1146.530	860.252
282.614	15.398	1145.034	859.229
283.628	15.444	1143.702	858.390
284.643	15.300	1143.666	857.550
285.657	15.336	1142.680	856.921
286.672	15.493	1141.339	856.636
287.687	15.355	1140.537	855.255
288.701	15.427	1139.766	854.969
289.716	15.491	1138.865	854.546
290.730	15.505	1138.168	854.016
291.745	15.459	1137.604	853.283
292.760	15.523	1136.786	852.921
293.774	15.534	1136.749	852.873
294.789	15.581	1136.017	852.488
295.803	15.580	1135.604	852.099
296.818	15.641	1134.467	851.475
297.833	15.669	1133.486	850.805
298.847	15.624	1132.681	849.902
299.862	15.549	1132.082	848.994
300.876	15.640	1131.485	848.934
301.891	15.636	1131.389	848.768
302.906	15.709	1130.090	848.087
303.920	15.756	1129.557	847.844
304.935	15.795	1128.777	847.384
305.949	15.701	1128.130	846.347
306.964	15.864	1127.650	846.733
307.979	15.787	1126.758	845.604
308.993	15.734	1126.247	844.875
310.008	15.933	1125.085	844.930
311.022	15.816	1124.422	843.769
312.037	15.830	1123.807	843.305
313.052	15.759	1122.701	842.044
314.066	15.967	1121.606	842.190
315.081	15.765	1120.830	840.524
316.095	15.789	1119.837	839.824
317.110	15.755	1119.587	839.390
318.125	15.797	1118.635	838.810
319.139	15.891	1117.857	838.625
320.154	15.868	1117.209	837.950
321.168	15.768	1117.061	837.266
322.183	15.811	1116.465	836.958
323.197	15.883	1115.432	836.467
324.212	15.907	1114.874	836.096
325.227	15.945	1114.091	835.624
326.241	15.858	1113.781	834.882
327.256	15.950	1112.845	834.564
328.270	15.890	1111.792	833.402
329.285	15.908	1110.855	832.715
330.300	15.906	1109.880	831.904
331.314	15.993	1108.674	831.356
332.329	15.869	1108.117	830.253
333.343	16.011	1106.933	829.991
334.358	16.049	1106.735	829.955
335.373	15.988	1105.918	828.970
336.387	16.031	1105.326	828.662
337.402	16.168	1104.238	828.448
338.416	16.043	1104.026	827.599
339.431	16.133	1102.998	827.200
340.446	16.263	1101.917	826.952
341.460	16.327	1101.227	826.676
342.475	16.331	1100.555	826.114
343.489	16.340	1099.218	825.083
344.504	16.337	1099.007	824.838
345.519	16.422	1097.679	824.183
346.533	16.494	1097.056	823.993
347.548	16.272	1096.906	822.727
348.562	16.477	1095.440	822.552
349.577	16.382	1094.724	821.478
350.592	16.300	1094.035	820.490
351.606	16.245	1093.697	819.895
352.621	16.391	1092.552	819.674
353.635	16.320	1092.013	818.855
354.650	16.372	1091.208	818.427
355.665	16.340	1090.569	817.721
356.679	16.362	1090.237	817.508
357.694	16.382	1089.349	816.868
358.708	16.498	1088.582	816.779
359.723	16.422	1088.383	816.189
360.738	16.310	1087.817	815.151
361.752	16.461	1087.329	815.443
362.767	16.428	1086.453	814.554
363.781	16.528	1085.652	814.365
364.796	16.612	1085.166	814.332
365.810	16.513	1084.769	813.487
366.825	16.664	1083.976	813.547
367.840	16.733	1083.685	813.586
368.854	16.662	1083.409	812.966
369.869	16.714	1082.479	812.447
370.883	16.697	1081.246	811.365
371.898	16.721	1080.758	811.042
372.913	16.725	1080.123	810.515
373.927	16.847	1079.427	810.502
374.942	16.750	1079.109	809.728
375.956	16.732	1078.186	808.878
376.971	16.744	1077.821	808.592
377.986	16.796	1077.584	808.593
379.000	16.935	1076.634	808.468
380.015	16.920	1076.347	808.109
381.029	17.017	1075.630	807.965
382.044	16.896	1074.954	806.808
383.059	16.887	1074.046	806.011
384.073	16.880	1073.555	805.539
385.088	16.907	1072.057	804.470
386.102	16.925	1071.709	804.225
387.117	16.948	1070.723	803.524
388.132	16.847	1069.594	802.127
389.146	16.919	1068.601	801.650
390.161	16.976	1067.991	801.393
391.175	17.005	1067.607	801.171
392.190	17.087	1066.577	800.711
393.205	17.000	1065.987	799.790
394.219	17.003	1065.298	799.217
395.234	16.957	1064.066	798.004
396.248	17.129	1063.098	798.014
397.263	17.071	1062.320	797.088
398.278	17.007	1061.832	796.350
399.292	16.993	1060.628	795.313
400.307	17.014	1060.279	795.079
401.321	17.006	1059.771	794.588
402.336	16.947	1059.333	793.914
403.350	17.020	1058.367	793.463
404.365	17.007	1057.763	792.879
405.380	17.150	1056.744	792.711
406.394	17.287	1056.040	792.755
407.409	17.126	1055.691	791.672
408.423	17.155	1055.133	791.315
409.438	17.270	1054.473	791.287
410.453	17.181	1053.799	790.299
411.467	17.304	1053.050	790.239
412.482	17.361	1052.161	789.763
413.496	17.353	1051.526	789.180
414.511	17.450	1050.840	789.048
415.526	17.484	1050.667	789.003
416.540	17.518	1050.060	788.636
417.555	17.606	1049.286	788.391
418.569	17.509	1048.986	787.648
419.584	17.518	1048.723	787.421
420.599	17.574	1047.882	786.981
421.613	104.528	1325.816	1474.895
422.628	96.123	1366.270	1474.988
