DTS Sentinel unit serial number:	SN413079Multiplexer serial number:	ORYXHardware model number:	OX4-SRSoftware version number:	ORYX F/W v4.00 Oryx Data Collector v3.7.2.0data status	okinstallation	princeton_trtdifferential loss correction	single-endedforward channel	channel 2reverse channel	N/Adate	2019/09/13time	14:43:35forward acquisition time	60.00reverse acquisition time	0.00gamma	496.2192k internal	0.2313k external	0.2313temperature offset calibration	1.0207default loss term (dB/km)	0.3790temperature slope calibration	1.0000multiplexer offset coefficient	1.0000multiplexer slope coefficient	1.0000fibre end	0.00T internal ref (°C)	35.44T ext. ref 1 (°C)	4.68T ext. ref 2 (°C)	32.38length (m)	temperature (°C)	Stokes	anti-Stokes-747.200	-157.010	0.366	0.023
-746.185	-200.000	-0.027	0.541
-745.171	-24.826	0.307	-0.185
-744.156	-200.000	0.054	0.291
-743.142	-60.294	-0.132	-0.057
-742.127	800.000	-0.097	0.345
-741.112	-109.598	0.289	-0.062
-740.098	-144.258	-0.330	0.031
-739.083	106.676	-0.076	0.092
-738.069	-92.750	-0.189	-0.054
-737.054	428.684	-0.075	-0.165
-736.039	-67.528	-0.104	-0.041
-735.025	-133.384	0.529	-0.068
-734.010	54.151	-0.228	0.223
-732.996	-53.476	0.188	-0.087
-731.981	-69.324	-0.459	0.179
-730.966	158.034	-0.047	0.066
-729.952	200.346	-0.173	-0.269
-728.937	-139.911	-0.106	0.011
-727.923	800.000	-0.011	0.044
-726.908	103.265	-0.346	-0.411
-725.894	-200.000	-0.040	-0.188
-724.879	136.730	-0.224	-0.296
-723.864	-82.958	-0.223	0.073
-722.850	-200.000	-0.060	0.276
-721.835	800.000	-0.091	0.288
-720.821	-78.901	-0.301	0.104
-719.806	-61.878	0.240	0.102
-718.791	182.421	0.153	-0.228
-717.777	181.902	0.204	-0.304
-716.762	-21.155	-0.117	0.072
-715.748	-200.000	0.038	-0.240
-714.733	583.592	0.049	-0.122
-713.718	-71.237	-0.328	0.125
-712.704	-127.363	-0.260	0.038
-711.689	2.187	-0.207	0.152
-710.675	-6.605	-0.150	-0.104
-709.660	-200.000	-0.004	0.083
-708.645	25.766	0.178	0.150
-707.631	-200.000	-0.020	0.104
-706.616	27.697	0.050	0.043
-705.602	-74.797	-0.101	0.037
-704.587	800.000	-0.131	-0.390
-703.572	-200.000	0.025	0.313
-702.558	-70.591	-0.290	0.111
-701.543	-200.000	0.013	-0.114
-700.529	95.199	-0.118	-0.137
-699.514	800.000	-0.123	0.535
-698.499	77.960	-0.394	0.425
-697.485	22.883	-0.164	-0.136
-696.470	500.553	-0.059	-0.137
-695.456	-165.587	0.181	-0.008
-694.441	139.054	0.174	-0.232
-693.426	-88.494	-0.170	0.051
-692.412	127.403	0.232	0.298
-691.397	-68.938	-0.270	0.105
-690.383	-89.639	0.085	-0.025
-689.368	147.173	0.029	0.039
-688.354	100.058	0.097	-0.113
-687.339	-125.295	0.119	-0.018
-686.324	-10.869	0.206	-0.137
-685.310	-97.181	0.232	0.061
-684.295	-123.096	-0.236	0.038
-683.281	1.610	-0.327	-0.238
-682.266	-94.539	-0.429	-0.118
-681.251	-137.808	-0.028	0.003
-680.237	-61.545	-0.243	0.103
-679.222	-187.756	-0.197	-0.003
-678.208	-33.308	0.324	-0.182
-677.193	-161.581	0.148	-0.008
-676.178	22.165	-0.099	-0.082
-675.164	-69.373	0.214	0.083
-674.149	-65.475	0.226	0.092
-673.135	122.650	-0.032	-0.040
-672.120	-118.271	-0.203	0.037
-671.105	-200.000	-0.042	0.257
-670.091	77.899	0.161	0.173
-669.076	-126.741	0.198	-0.030
-668.062	-29.937	-0.256	0.147
-667.047	24.016	0.137	0.115
-666.032	-200.000	-0.016	0.186
-665.018	-200.000	0.050	0.400
-664.003	-65.998	-0.260	0.105
-662.989	-52.437	-0.128	-0.060
-661.974	82.498	0.109	-0.120
-660.959	-200.000	-0.003	0.181
-659.945	-200.000	-0.045	-0.224
-658.930	175.497	-0.119	-0.174
-657.916	-38.586	-0.220	-0.117
-656.901	-100.572	0.360	-0.090
-655.886	83.618	-0.018	-0.020
-654.872	449.017	-0.195	0.434
-653.857	-150.680	0.137	-0.011
-652.843	-200.000	0.020	-0.170
-651.828	-200.000	-0.021	-0.224
-650.814	21.251	0.075	-0.061
-649.799	-106.876	-0.256	-0.057
-648.784	-89.741	0.284	0.084
-647.770	168.909	0.090	0.129
-646.755	19.267	0.206	-0.167
-645.741	800.000	0.049	-0.204
-644.726	-152.343	0.182	0.013
-643.711	-52.755	0.304	-0.142
-642.697	218.296	-0.147	-0.238
-641.682	-11.872	0.303	-0.201
-640.668	-200.000	0.024	0.199
-639.653	800.000	-0.047	0.149
-638.638	28.365	0.240	-0.205
-637.624	259.181	-0.201	0.351
-636.609	-200.000	-0.060	0.375
-635.595	-67.574	-0.391	-0.155
-634.580	-200.000	0.008	0.267
-633.565	-200.000	0.090	-0.434
-632.551	11.890	-0.255	-0.198
-631.536	84.361	0.383	-0.422
-630.522	-86.921	0.364	0.112
-629.507	-90.941	-0.098	-0.029
-628.492	57.879	-0.198	0.195
-627.478	-200.000	0.003	0.066
-626.463	125.381	0.032	0.040
-625.449	800.000	0.041	0.165
-624.434	-77.837	-0.096	-0.034
-623.419	-9.765	-0.179	0.120
-622.405	-129.645	0.156	-0.022
-621.390	-200.000	-0.002	-0.287
-620.376	-46.776	-0.059	-0.029
-619.361	-74.957	-0.340	-0.123
-618.346	-200.000	0.007	0.055
-617.332	121.931	0.210	-0.264
-616.317	-200.000	-0.041	-0.215
-615.303	-111.696	-0.119	-0.024
-614.288	-42.005	0.150	0.078
-613.273	23.107	0.062	0.051
-612.259	81.876	0.177	-0.194
-611.244	13.356	-0.203	-0.159
-610.230	347.269	-0.199	-0.395
-609.215	47.016	0.145	-0.136
-608.201	800.000	-0.063	0.178
-607.186	-165.199	0.359	0.016
-606.171	-51.730	0.263	0.124
-605.157	14.013	0.097	-0.076
-604.142	91.184	-0.133	0.150
-603.128	-200.000	0.020	-0.245
-602.113	800.000	0.064	-0.220
-601.098	362.510	0.146	0.295
-600.084	-125.910	-0.175	0.027
-599.069	-83.686	0.078	0.025
-598.055	99.265	-0.006	-0.007
-597.040	-160.494	-0.222	0.012
-596.025	34.188	0.254	0.223
-595.011	-84.149	-0.092	-0.030
-593.996	-15.725	-0.388	-0.249
-592.982	139.092	0.050	-0.067
-591.967	66.354	0.286	-0.293
-590.952	-176.761	0.172	0.004
-589.938	194.113	-0.187	0.286
-588.923	800.000	-0.025	0.081
-587.909	-94.829	0.248	0.068
-586.894	7.991	0.166	0.125
-585.879	73.286	0.125	-0.132
-584.865	800.000	-0.057	0.163
-583.850	-6.290	-0.200	-0.137
-582.836	-103.628	-0.141	0.033
-581.821	800.000	0.066	0.201
-580.806	185.258	-0.136	-0.204
-579.792	-79.043	0.124	-0.043
-578.777	-27.942	0.141	-0.082
-577.763	97.432	0.196	-0.227
-576.748	-75.585	0.239	-0.086
-575.733	3.867	-0.168	-0.124
-574.719	84.238	-0.147	0.162
-573.704	-4.727	-0.306	-0.213
-572.690	-106.305	-0.067	-0.015
-571.675	52.502	-0.173	-0.166
-570.661	-93.565	0.217	0.061
-569.646	-9.102	-0.213	0.144
-568.631	-200.000	-0.062	-0.281
-567.617	-58.624	-0.346	-0.151
-566.602	22.458	-0.108	0.089
-565.588	521.219	0.199	0.470
-564.573	-141.585	-0.299	0.030
-563.558	-56.266	0.201	-0.090
-562.544	-39.266	-0.170	0.090
-561.529	51.371	-0.210	0.201
-560.515	90.777	-0.274	-0.310
-559.500	-163.474	-0.091	0.004
-558.485	60.365	0.064	0.064
-557.471	800.000	0.100	0.295
-556.456	-71.923	-0.410	0.154
-555.442	-143.023	0.431	-0.042
-554.427	570.111	0.037	-0.090
-553.412	36.841	-0.090	0.080
-552.398	-18.968	-0.242	0.151
-551.383	296.714	0.073	-0.136
-550.369	73.164	0.205	0.216
-549.354	800.000	-0.054	-0.170
-548.339	391.682	-0.109	-0.228
-547.325	159.932	0.155	0.218
-546.310	-134.064	-0.305	-0.038
-545.296	33.762	-0.171	-0.150
-544.281	-29.939	-0.168	0.096
-543.266	-37.081	0.269	0.145
-542.252	-200.000	-0.020	0.162
-541.237	-63.592	0.287	0.119
-540.223	-200.000	-0.006	0.462
-539.208	-49.682	0.229	0.110
-538.193	16.666	-0.079	-0.063
-537.179	-200.000	-0.050	-0.350
-536.164	-200.000	-0.038	-0.190
-535.150	15.367	0.148	-0.117
-534.135	-58.830	0.332	0.144
-533.121	-23.834	0.325	0.196
-532.106	-4.156	-0.195	-0.136
-531.091	800.000	0.053	-0.148
-530.077	-200.000	-0.058	-0.270
-529.062	-121.341	0.147	-0.025
-528.048	800.000	-0.044	0.158
-527.033	55.797	-0.058	0.057
-526.018	-139.540	-0.324	0.035
-525.004	3.251	0.204	0.149
-523.989	674.390	0.077	-0.202
-522.975	225.246	-0.161	-0.261
-521.960	123.651	-0.165	-0.209
-520.945	329.818	-0.129	-0.249
-519.931	90.429	0.040	-0.045
-518.916	-200.000	-0.013	0.082
-517.902	-67.793	0.184	0.072
-516.887	157.791	-0.115	0.161
-515.872	-200.000	-0.054	0.371
-514.858	-200.000	0.013	-0.166
-513.843	-200.000	0.031	-0.378
-512.829	-132.258	-0.310	-0.040
-511.814	-52.997	-0.270	0.125
-510.799	112.717	0.203	0.247
-509.785	-139.020	-0.312	0.034
-508.770	190.341	-0.053	-0.081
-507.756	-80.895	-0.116	-0.039
-506.741	28.581	0.468	-0.398
-505.726	515.789	-0.095	-0.223
-504.712	680.830	-0.183	-0.478
-503.697	67.155	0.040	0.040
-502.683	-179.815	0.146	0.003
-501.668	800.000	-0.050	0.145
-500.653	-115.937	-0.118	-0.022
-499.639	-200.000	0.027	0.230
-498.624	800.000	0.030	-0.125
-497.610	-9.416	0.175	-0.117
-496.595	85.887	0.078	0.087
-495.581	-200.000	-0.043	-0.276
-494.566	62.131	0.070	-0.070
-493.551	-200.000	-0.011	-0.047
-492.537	-200.000	-0.018	-0.208
-491.522	744.247	0.069	-0.185
-490.508	-12.691	0.214	-0.140
-489.493	239.050	0.088	-0.147
-488.478	23.605	0.195	0.161
-487.464	-200.000	0.017	0.238
-486.449	-59.807	0.117	0.050
-485.435	88.358	-0.136	0.151
-484.420	800.000	-0.015	0.054
-483.405	-103.453	-0.152	0.036
-482.391	-200.000	0.003	0.174
-481.376	800.000	-0.041	0.125
-480.362	-37.813	0.119	-0.063
-479.347	-167.316	0.122	-0.005
-478.332	37.153	0.162	0.144
-477.318	-144.683	0.052	-0.005
-476.303	20.590	0.107	0.087
-475.289	-39.420	-0.028	0.015
-474.274	682.994	0.050	0.132
-473.259	-10.054	0.152	0.101
-472.245	31.527	-0.062	0.054
-471.230	-4.880	-0.296	0.205
-470.216	-200.000	-0.025	-0.159
-469.201	-150.807	-0.236	-0.018
-468.186	252.729	-0.237	0.405
-467.172	800.000	0.072	-0.202
-466.157	244.494	0.249	-0.419
-465.143	171.195	0.053	-0.076
-464.128	638.846	0.052	0.132
-463.113	523.075	0.076	-0.179
-462.099	-16.710	0.215	-0.136
-461.084	-137.845	-0.287	-0.032
-460.070	87.144	0.194	-0.215
-459.055	-48.103	0.176	0.085
-458.040	800.000	-0.006	-0.023
-457.026	-80.948	0.101	0.034
-456.011	-200.000	0.012	0.273
-454.997	-63.134	0.271	0.112
-453.982	-77.605	0.071	-0.025
-452.968	119.065	0.128	-0.159
-451.953	-8.629	0.216	0.145
-450.938	-197.826	0.152	-0.001
-449.924	-200.000	-0.004	-0.027
-448.909	83.730	0.153	0.167
-447.895	-200.000	-0.038	-0.181
-446.880	800.000	0.077	-0.306
-445.865	-48.143	-0.349	-0.169
-444.851	173.736	0.100	-0.145
-443.836	78.424	-0.118	0.126
-442.822	-1.313	-0.129	0.091
-441.807	29.676	-0.133	-0.113
-440.792	-115.577	-0.142	-0.027
-439.778	271.186	-0.023	0.040
-438.763	-95.103	0.087	0.023
-437.749	79.847	0.177	0.191
-436.734	-200.000	0.017	0.179
-435.719	800.000	0.079	0.218
-434.705	35.709	-0.076	0.067
-433.690	-176.688	-0.286	0.007
-432.676	550.423	0.141	0.340
-431.661	200.901	-0.151	0.233
-430.646	93.805	0.107	-0.122
-429.632	-166.810	-0.253	0.010
-428.617	-200.000	-0.029	0.331
-427.603	569.111	0.256	0.623
-426.588	-14.559	-0.228	0.147
-425.573	96.742	-0.064	0.073
-424.559	1.042	-0.211	0.152
-423.544	758.112	-0.088	-0.239
-422.530	621.246	-0.120	-0.303
-421.515	-200.000	0.004	0.032
-420.500	26.297	0.073	0.061
-419.486	800.000	-0.156	-0.481
-418.471	-26.369	-0.253	-0.149
-417.457	-152.035	-0.164	-0.012
-416.442	-200.000	0.028	-0.400
-415.428	-13.224	0.101	-0.066
-414.413	-200.000	0.016	-0.158
-413.398	-117.271	-0.091	-0.017
-412.384	-45.381	0.238	-0.118
-411.369	85.254	-0.181	-0.199
-410.355	-69.654	-0.219	0.084
-409.340	-200.000	-0.006	-0.254
-408.325	-75.279	0.188	0.067
-407.311	51.761	0.050	-0.048
-406.296	-200.000	-0.017	-0.115
-405.282	800.000	-0.097	-0.375
-404.267	-20.580	0.150	-0.092
-403.252	177.070	-0.186	-0.271
-402.238	546.139	0.122	0.292
-401.223	-111.336	-0.267	-0.055
-400.209	-60.898	0.161	0.068
-399.194	-0.763	-0.193	0.137
-398.179	24.521	0.123	-0.102
-397.165	-7.923	-0.286	-0.193
-396.150	31.254	0.179	-0.154
-395.136	-192.146	0.212	-0.002
-394.121	292.962	-0.040	-0.073
-393.106	15.259	-0.049	-0.038
-392.092	-63.276	-0.220	-0.091
-391.077	37.109	-0.075	-0.066
-390.063	-33.554	-0.190	-0.105
-389.048	-36.604	-0.201	0.108
-388.033	248.899	0.191	-0.324
-387.019	10.464	0.107	-0.082
-386.004	246.434	-0.061	0.102
-384.990	90.154	-0.146	0.163
-383.975	-69.271	-0.453	0.174
-382.960	800.000	0.045	-0.173
-381.946	-89.819	0.156	0.046
-380.931	-200.000	-0.006	-0.109
-379.917	-147.714	-0.355	0.030
-378.902	80.618	0.212	-0.229
-377.888	39.280	-0.220	-0.196
-376.873	472.610	-0.058	-0.130
-375.858	244.280	0.116	0.195
-374.844	221.717	-0.081	0.130
-373.829	14.522	-0.188	0.147
-372.815	130.240	-0.121	0.155
-371.800	24.569	0.196	0.162
-370.785	395.324	0.047	-0.099
-369.771	-39.238	-0.098	0.051
-368.756	14.563	-0.210	0.164
-367.742	98.215	0.296	0.341
-366.727	70.752	0.204	0.211
-365.712	-74.888	-0.293	0.105
-364.698	229.423	-0.071	-0.116
-363.683	161.396	-0.108	-0.150
-362.669	-200.000	0.009	-0.215
-361.654	-64.022	-0.112	0.046
-360.639	-50.516	-0.453	0.214
-359.625	175.972	-0.100	0.145
-358.610	800.000	-0.110	0.462
-357.596	800.000	-0.086	-0.288
-356.581	-82.348	-0.065	0.021
-355.566	56.935	-0.198	-0.193
-354.552	800.000	-0.011	-0.037
-353.537	-200.000	0.004	-0.053
-352.523	4.326	-0.139	-0.102
-351.508	-124.696	0.242	0.038
-350.493	-31.487	0.047	0.026
-349.479	-80.039	-0.396	0.133
-348.464	151.655	0.072	0.098
-347.450	18.444	0.121	0.096
-346.435	494.749	-0.094	-0.216
-345.420	103.741	0.149	-0.175
-344.406	-200.000	-0.015	0.097
-343.391	-92.443	0.242	0.068
-342.377	-5.286	0.026	0.018
-341.362	-16.894	0.062	-0.039
-340.348	-157.783	0.091	0.005
-339.333	180.212	-0.018	-0.026
-338.318	800.000	0.020	0.068
-337.304	-200.000	-0.048	0.319
-336.289	-200.000	-0.013	-0.193
-335.275	-200.000	0.004	-0.247
-334.260	236.817	-0.193	-0.318
-333.245	93.732	0.230	-0.260
-332.231	-200.000	0.002	0.043
-331.216	-86.412	0.228	0.070
-330.202	-6.923	-0.068	-0.046
-329.187	-200.000	-0.006	-0.065
-328.172	-114.985	0.273	-0.052
-327.158	299.574	-0.044	-0.081
-326.143	-99.682	-0.339	0.085
-325.129	-200.000	0.006	0.132
-324.114	-73.888	-0.286	-0.104
-323.099	800.000	0.038	0.118
-322.085	-158.752	-0.168	-0.010
-321.070	-200.000	0.015	0.326
-320.056	259.876	-0.052	0.090
-319.041	-200.000	0.121	0.552
-318.026	187.397	0.055	0.081
-317.012	136.984	0.205	0.267
-315.997	-78.974	0.067	-0.023
-314.983	96.249	0.198	0.226
-313.968	-200.000	-0.002	0.064
-312.953	-114.232	-0.298	0.057
-311.939	-109.454	0.457	0.096
-310.924	148.791	0.061	0.082
-309.910	26.341	-0.108	0.090
-308.895	43.145	0.067	0.061
-307.880	32.644	0.118	0.102
-306.866	800.000	-0.017	0.059
-305.851	80.161	-0.185	-0.199
-304.837	-200.000	0.059	0.303
-303.822	436.881	0.151	0.328
-302.807	8.225	0.261	-0.195
-301.793	-200.000	0.000	0.042
-300.778	-138.405	0.102	-0.011
-299.764	-200.000	0.004	-0.019
-298.749	-200.000	-0.024	0.149
-297.735	522.669	0.066	-0.155
-296.720	-130.062	-0.247	0.034
-295.705	-159.520	0.160	-0.009
-294.691	800.000	-0.054	-0.185
-293.676	83.022	-0.126	-0.137
-292.662	317.232	-0.013	0.025
-291.647	38.759	0.234	0.208
-290.632	233.283	0.109	-0.178
-289.618	-144.720	-0.412	-0.038
-288.603	169.839	-0.207	0.294
-287.589	-63.324	0.247	-0.101
-286.574	181.695	-0.017	-0.025
-285.559	-128.231	0.231	-0.033
-284.545	-171.595	-0.221	-0.007
-283.530	-4.596	0.099	-0.068
-282.516	152.815	-0.051	0.069
-281.501	172.151	0.112	-0.160
-280.486	27.001	0.108	0.090
-279.472	296.487	-0.038	-0.070
-278.457	145.125	-0.231	0.308
-277.443	42.676	-0.066	-0.060
-276.428	-89.632	-0.167	0.049
-275.413	-200.000	-0.000	-0.076
-274.399	228.330	-0.119	-0.194
-273.384	800.000	-0.068	0.258
-272.370	195.782	0.347	0.525
-271.355	800.000	0.141	0.414
-270.340	-6.128	0.087	0.059
-269.326	393.895	-0.159	-0.329
-268.311	-32.710	-0.230	-0.127
-267.297	322.687	-0.161	0.305
-266.282	106.871	0.111	0.132
-265.267	57.688	-0.105	0.102
-264.253	-74.766	-0.243	0.087
-263.238	14.698	0.264	0.206
-262.224	-200.000	0.005	-0.133
-261.209	-42.065	-0.163	0.083
-260.195	-200.000	0.028	-0.276
-259.180	-51.855	-0.277	-0.128
-258.165	-94.650	0.276	0.075
-257.151	-62.698	0.039	-0.016
-256.136	675.037	-0.136	-0.351
-255.122	432.765	-0.081	0.176
-254.107	90.211	0.052	0.058
-253.092	-200.000	0.052	0.000
-252.078	-77.636	0.192	-0.066
-251.063	172.706	0.028	0.041
-250.049	-200.000	0.002	0.039
-249.034	-47.204	0.191	0.093
-248.019	-200.000	-0.014	0.116
-247.005	102.088	-0.092	0.107
-245.990	-200.000	0.035	0.314
-244.976	-103.869	-0.127	-0.030
-243.961	-144.415	0.248	-0.023
-242.946	-65.441	0.321	-0.128
-241.932	-41.985	0.130	0.066
-240.917	800.000	0.076	-0.266
-239.903	-200.000	0.000	-0.159
-238.888	-164.081	-0.195	-0.009
-237.873	-200.000	0.004	-0.048
-236.859	224.464	-0.094	-0.151
-235.844	-12.316	0.146	-0.095
-234.830	-110.411	0.141	0.029
-233.815	-50.386	0.136	0.064
-232.800	133.174	-0.121	0.156
-231.786	177.301	0.129	0.187
-230.771	-57.841	0.240	0.104
-229.757	92.009	0.238	-0.266
-228.742	-3.836	-0.135	-0.093
-227.727	-200.000	0.029	-0.344
-226.713	86.204	-0.152	0.167
-225.698	-97.055	-0.074	-0.019
-224.684	-200.000	-0.008	-0.105
-223.669	-200.000	0.034	-0.262
-222.655	-140.493	0.125	0.013
-221.640	-200.000	0.024	0.213
-220.625	-200.000	-0.012	0.104
-219.611	-200.000	0.000	-0.230
-218.596	323.486	-0.079	-0.149
-217.582	-111.493	-0.045	-0.009
-216.567	-140.852	-0.375	0.038
-215.552	252.894	0.077	-0.131
-214.538	800.000	-0.073	-0.294
-213.523	-43.296	-0.057	0.028
-212.509	-162.024	0.340	-0.017
-211.494	28.693	0.099	-0.083
-210.479	-200.000	0.015	0.088
-209.465	-7.841	0.217	-0.145
-208.450	97.880	-0.318	-0.363
-207.436	-73.725	0.338	-0.122
-206.421	419.562	-0.071	-0.151
-205.406	-184.098	0.258	0.004
-204.392	-200.000	-0.030	0.237
-203.377	-167.863	0.140	0.005
-202.363	800.000	-0.048	0.191
-201.348	198.086	0.164	0.249
-200.333	800.000	-0.072	0.245
-199.319	59.069	-0.330	-0.323
-198.304	23.968	0.089	0.073
-197.290	13.749	-0.352	-0.271
-196.275	-83.373	0.121	-0.039
-195.260	-14.041	-0.185	0.119
-194.246	-104.630	0.347	0.079
-193.231	222.731	0.048	-0.077
-192.217	-57.840	-0.036	-0.016
-191.202	23.721	0.091	-0.075
-190.187	-118.587	0.150	-0.026
-189.173	-174.503	0.119	0.003
-188.158	-200.000	0.033	-0.300
-187.144	-98.037	0.301	0.077
-186.129	800.000	0.041	0.168
-185.114	-55.837	-0.185	-0.082
-184.100	107.554	-0.148	0.175
-183.085	-200.000	-0.003	-0.061
-182.071	-200.000	-0.007	0.045
-181.056	-200.000	0.053	0.322
-180.042	-200.000	0.092	0.586
-179.027	800.000	0.081	0.232
-178.012	-200.000	-0.003	-0.049
-176.998	100.123	-0.238	0.274
-175.983	119.550	-0.114	0.141
-174.969	563.225	0.116	0.278
-173.954	-200.000	0.013	0.157
-172.939	800.000	-0.020	0.073
-171.925	113.968	0.208	-0.251
-170.910	62.274	0.051	0.051
-169.896	-38.806	-0.092	0.048
-168.881	90.821	0.141	-0.157
-167.866	-101.166	-0.145	0.035
-166.852	-47.346	-0.023	-0.011
-165.837	92.877	0.127	0.142
-164.823	-200.000	0.029	-0.248
-163.808	-83.502	0.080	0.025
-162.793	-142.449	0.240	0.023
-161.779	84.651	0.123	0.133
-160.764	19.356	-0.201	0.160
-159.750	-200.000	-0.009	-0.082
-158.735	-200.000	-0.001	0.113
-157.720	-11.432	-0.135	-0.088
-156.706	-137.501	0.210	0.024
-155.691	744.852	-0.040	0.107
-154.677	72.754	-0.071	-0.073
-153.662	234.930	-0.105	0.172
-152.647	-200.000	-0.020	-0.280
-151.633	-57.911	-0.162	0.070
-150.618	-200.000	0.013	-0.300
-149.604	-9.563	-0.156	0.103
-148.589	-89.742	0.255	-0.074
-147.574	166.511	-0.198	-0.278
-146.560	-200.000	0.008	-0.060
-145.545	149.598	-0.041	-0.054
-144.531	628.609	-0.059	-0.148
-143.516	-200.000	-0.042	-0.352
-142.502	-174.702	0.339	-0.010
-141.487	165.952	0.042	0.059
-140.472	-200.000	-0.041	0.205
-139.458	494.174	-0.055	0.126
-138.443	-88.900	0.220	-0.065
-137.429	-200.000	-0.023	0.265
-136.414	265.245	-0.103	-0.177
-135.399	-108.492	0.065	-0.014
-134.385	-200.000	0.018	0.195
-133.370	73.579	-0.132	0.137
-132.356	304.861	-0.222	0.409
-131.341	800.000	-0.032	0.116
-130.326	-200.000	0.009	-0.218
-129.312	39.639	0.335	-0.297
-128.297	-200.000	0.083	-0.397
-127.283	141.597	0.234	0.307
-126.268	-128.987	0.141	-0.020
-125.253	-103.911	0.189	-0.044
-124.239	-200.000	0.051	-0.375
-123.224	-148.171	-0.034	-0.003
-122.210	-1.968	-0.246	0.171
-121.195	-128.441	-0.382	0.054
-120.180	200.154	-0.079	-0.120
-119.166	-57.588	0.151	-0.066
-118.151	-90.345	-0.115	0.033
-117.137	177.111	-0.088	0.127
-116.122	-8.035	0.188	-0.125
-115.107	104.197	0.199	-0.231
-114.093	7.649	-0.070	0.052
-113.078	14.572	-0.113	-0.087
-112.064	86.911	-0.023	-0.025
-111.049	-200.000	-0.037	-0.362
-110.034	147.750	0.065	-0.087
-109.020	-19.342	0.443	0.272
-108.005	-64.091	-0.187	0.075
-106.991	800.000	0.115	-0.363
-105.976	532.997	0.086	-0.201
-104.962	726.089	-0.085	-0.224
-103.947	-148.736	0.186	0.015
-102.932	58.216	0.104	0.101
-101.918	-40.242	0.087	0.045
-100.903	-134.537	-0.304	0.037
-99.889	406.983	0.091	-0.189
-98.874	-2.128	-0.062	0.043
-97.859	-55.270	-0.388	-0.172
-96.845	226.582	0.123	-0.198
-95.830	771.371	-0.036	-0.098
-94.816	199.193	-0.193	-0.293
-93.801	103.416	-0.110	0.127
-92.786	-200.000	-0.060	0.304
-91.772	441.332	0.093	0.201
-90.757	488.614	0.157	0.354
-89.743	-105.350	0.337	0.076
-88.728	800.000	-0.063	-0.232
-87.713	-139.929	-0.264	0.028
-86.699	316.537	0.054	-0.100
-85.684	-200.000	-0.013	0.439
-84.670	-200.000	0.006	-0.043
-83.655	-158.281	0.097	0.006
-82.640	-200.000	-0.017	0.000
-81.626	17.557	0.108	-0.085
-80.611	4.859	0.065	0.048
-79.597	15.832	-0.164	-0.127
-78.582	800.000	-0.042	-0.157
-77.567	197.935	0.041	0.063
-76.553	-200.000	-0.047	-0.260
-75.538	-115.321	-0.203	0.038
-74.524	254.954	0.075	0.126
-73.509	-200.000	0.003	0.302
-72.494	-139.306	-0.193	0.021
-71.480	-200.000	0.035	0.213
-70.465	800.000	-0.052	0.193
-69.451	402.548	-0.132	0.275
-68.436	3.645	0.314	0.226
-67.422	-175.443	0.128	-0.003
-66.407	357.341	0.178	-0.350
-65.392	159.352	0.145	0.199
-64.378	55.712	-0.189	0.181
-63.363	190.204	-0.037	-0.055
-62.349	800.000	-0.120	0.417
-61.334	24.488	-0.879	-0.718
-60.319	148.445	0.202	0.270
-59.305	-200.000	-0.200	-0.869
-58.290	189.760	0.643	0.952
-57.276	313.904	0.812	1.508
-56.261	-200.000	92.289	546.252
-55.246	611.231	1383.823	3415.662
-54.232	186.928	2607.098	3835.337
-53.217	115.872	2322.644	2805.791
-52.203	45.189	1933.742	1759.755
-51.188	38.730	1719.989	1515.456
-50.173	35.907	1674.606	1454.119
-49.159	52.234	1721.272	1619.974
-48.144	55.440	1739.594	1661.696
-47.130	38.502	1696.880	1493.117
-46.115	35.492	1681.853	1457.033
-45.100	35.420	1676.377	1451.690
-44.086	35.286	1674.484	1448.980
-43.071	35.209	1671.659	1445.892
-42.057	35.129	1669.758	1443.590
-41.042	35.273	1667.428	1442.601
-40.027	35.321	1665.301	1441.066
-39.013	35.328	1663.480	1439.487
-37.998	35.277	1661.885	1437.666
-36.984	35.340	1660.772	1437.116
-35.969	35.367	1659.247	1435.943
-34.954	35.427	1657.735	1435.025
-33.940	35.468	1655.225	1433.098
-32.925	35.423	1653.480	1431.201
-31.911	35.456	1652.264	1430.332
-30.896	35.421	1650.393	1428.398
-29.881	35.360	1648.809	1426.514
-28.867	35.439	1646.924	1425.412
-27.852	35.438	1645.856	1424.429
-26.838	35.484	1644.273	1423.343
-25.823	35.465	1642.507	1421.617
-24.809	35.454	1641.516	1420.619
-23.794	35.500	1639.959	1419.556
-22.779	35.442	1638.611	1417.905
-21.765	35.457	1636.725	1416.326
-20.750	35.449	1635.172	1414.867
-19.736	35.456	1634.113	1413.949
-18.721	35.536	1632.273	1412.892
-17.706	35.480	1630.414	1410.813
-16.692	35.464	1628.907	1409.337
-15.677	35.455	1627.662	1408.134
-14.663	35.583	1626.010	1407.585
-13.648	35.382	1625.384	1405.520
-12.633	35.451	1623.761	1404.564
-11.619	35.522	1622.070	1403.562
-10.604	35.480	1620.443	1401.797
-9.590	35.515	1619.256	1400.967
-8.575	35.444	1617.892	1399.217
-7.560	35.467	1616.815	1398.393
-6.546	35.422	1615.540	1396.910
-5.531	35.465	1614.202	1396.006
-4.517	35.553	1613.167	1395.696
-3.502	35.428	1611.994	1393.718
-2.487	35.481	1610.885	1393.092
-1.473	35.406	1599.635	1382.764
-0.458	32.875	1579.943	1347.647
0.556	31.406	1578.865	1311.145
1.571	28.447	1602.164	1309.282
2.586	27.259	1614.303	1310.529
3.600	23.765	1559.613	1241.648
4.615	14.449	1447.397	1091.489
5.629	6.171	1380.191	988.842
6.644	4.778	1370.693	973.245
7.659	4.577	1370.080	971.466
8.673	4.703	1368.683	971.178
9.688	4.651	1367.231	969.738
10.702	4.697	1364.764	968.187
11.717	8.663	1372.189	998.139
12.731	17.442	1388.831	1065.346
13.746	22.782	1396.980	1105.038
14.761	22.725	1395.184	1103.159
15.775	21.900	1392.504	1095.791
16.790	20.814	1390.729	1087.524
17.804	19.950	1388.603	1080.370
18.819	19.695	1386.746	1077.247
19.834	19.505	1385.601	1075.077
20.848	19.364	1384.469	1073.225
21.863	19.189	1383.211	1071.065
22.877	18.983	1382.353	1069.025
23.892	18.972	1381.060	1067.862
24.907	18.947	1380.434	1067.133
25.921	18.999	1379.280	1066.468
26.936	18.997	1378.558	1065.804
27.950	19.020	1377.768	1065.238
28.965	19.122	1376.734	1064.978
29.980	19.238	1375.707	1064.806
30.994	19.257	1374.616	1063.981
32.009	19.302	1374.038	1063.716
33.023	19.401	1372.228	1062.836
34.038	19.358	1370.342	1061.016
35.053	19.185	1369.489	1059.196
36.067	19.132	1368.509	1058.019
37.082	19.261	1366.925	1057.494
38.096	19.277	1366.474	1057.149
39.111	19.305	1365.394	1056.390
40.126	19.129	1364.982	1054.902
41.140	18.908	1363.725	1052.483
42.155	18.745	1362.860	1050.723
43.169	18.636	1363.057	1050.117
44.184	18.743	1362.320	1050.111
45.199	18.735	1362.356	1049.994
46.213	18.886	1361.637	1050.269
47.228	19.090	1360.871	1050.833
48.242	19.087	1360.450	1050.398
49.257	19.049	1358.514	1048.579
50.271	19.071	1356.840	1047.324
51.286	19.168	1355.485	1046.780
52.301	19.120	1354.126	1045.344
53.315	19.024	1353.335	1044.061
54.330	18.820	1352.329	1041.951
55.344	18.852	1350.700	1040.797
56.359	18.848	1349.518	1039.770
57.374	18.707	1348.923	1038.368
58.388	18.737	1347.894	1037.667
59.403	18.651	1347.588	1036.819
60.417	18.602	1347.101	1036.057
61.432	18.580	1345.794	1034.830
62.447	18.591	1344.837	1034.065
63.461	18.459	1343.733	1032.333
64.476	18.530	1342.534	1031.746
65.490	18.511	1341.211	1030.522
66.505	18.623	1339.525	1029.810
67.520	18.603	1338.841	1029.075
68.534	18.497	1337.869	1027.596
69.549	18.552	1336.273	1026.610
70.563	18.457	1335.368	1025.257
71.578	18.346	1334.326	1023.700
72.593	18.365	1333.548	1023.130
73.607	18.337	1333.015	1022.460
74.622	18.398	1331.879	1021.866
75.636	18.392	1331.332	1021.318
76.651	18.365	1330.942	1020.769
77.666	18.448	1330.429	1020.776
78.680	18.567	1330.095	1021.138
79.695	18.592	1328.971	1020.335
80.709	18.652	1328.547	1020.277
81.724	18.727	1328.038	1020.239
82.739	18.772	1327.396	1019.925
83.753	18.901	1326.887	1020.208
84.768	19.225	1325.133	1020.693
85.782	19.328	1324.322	1020.588
86.797	19.181	1323.117	1018.696
87.812	19.010	1322.704	1017.276
88.826	19.163	1320.575	1016.455
89.841	19.099	1320.076	1015.601
90.855	19.220	1318.972	1015.375
91.870	19.231	1318.585	1015.053
92.884	19.233	1317.338	1014.013
93.899	19.280	1316.386	1013.467
94.914	19.366	1315.831	1013.457
95.928	19.361	1314.989	1012.690
96.943	19.239	1314.155	1011.243
97.957	19.134	1313.485	1010.022
98.972	19.209	1312.102	1009.306
99.987	19.266	1310.827	1008.569
101.001	19.236	1310.033	1007.697
102.016	19.271	1309.181	1007.157
103.030	19.188	1308.555	1006.103
104.045	19.284	1307.502	1005.763
105.060	19.094	1306.395	1003.716
106.074	18.786	1304.871	1000.656
107.089	18.598	1302.791	997.883
108.103	18.523	1301.668	996.495
109.118	18.543	1300.131	995.351
110.133	18.491	1299.331	994.345
111.147	18.608	1297.562	993.584
112.162	18.679	1296.579	993.154
113.176	18.727	1295.074	992.192
114.191	18.734	1294.758	991.903
115.206	18.795	1293.266	991.022
116.220	18.769	1292.105	989.897
117.235	18.790	1290.859	988.975
118.249	18.608	1290.253	987.376
119.264	18.623	1288.733	986.211
120.279	18.589	1287.427	984.928
121.293	18.620	1286.516	984.322
122.308	18.445	1285.583	982.517
123.322	18.390	1284.566	981.337
124.337	18.293	1283.902	980.188
125.352	18.486	1282.170	979.886
126.366	18.330	1281.864	978.670
127.381	18.501	1280.143	978.247
128.395	18.396	1279.840	977.332
129.410	18.509	1277.972	976.461
130.424	18.534	1277.943	976.495
131.439	18.689	1276.938	976.525
132.454	18.650	1276.654	975.998
133.468	18.754	1275.301	975.468
134.483	18.735	1274.807	974.892
135.497	18.835	1274.027	974.780
136.512	18.740	1272.224	972.774
137.527	18.833	1270.834	972.151
138.541	18.725	1270.249	971.006
139.556	18.810	1268.895	970.366
140.570	18.928	1267.951	970.227
141.585	19.174	1266.239	970.214
142.600	19.107	1265.643	969.294
143.614	19.171	1265.034	969.104
144.629	19.175	1264.047	968.286
145.643	19.220	1262.703	967.421
146.658	19.073	1261.434	965.541
147.673	18.971	1259.481	963.386
148.687	18.864	1258.563	962.000
149.702	18.900	1256.544	960.574
150.716	18.776	1255.564	959.048
151.731	18.776	1254.445	958.108
152.746	18.749	1253.587	957.220
153.760	18.911	1252.268	957.027
154.775	18.890	1251.071	955.911
155.789	19.010	1250.304	955.906
156.804	18.909	1249.610	954.730
157.819	19.144	1248.364	955.001
158.833	19.234	1247.419	954.690
159.848	19.294	1246.566	954.283
160.862	19.272	1245.649	953.377
161.877	19.011	1244.479	950.952
162.892	18.894	1242.911	949.027
163.906	18.739	1242.088	947.462
164.921	18.680	1241.455	946.565
165.935	18.859	1240.340	946.616
166.950	18.934	1239.381	946.218
167.964	18.968	1239.211	946.191
168.979	18.945	1237.986	945.043
169.994	19.031	1237.386	944.973
171.008	19.082	1236.169	944.241
172.023	18.991	1236.053	943.573
173.037	19.082	1235.616	943.652
174.052	19.048	1234.372	942.431
175.067	18.941	1232.735	940.511
176.081	18.830	1231.417	938.817
177.096	18.848	1230.833	938.389
178.110	18.771	1229.996	937.248
179.125	18.961	1228.297	936.904
180.140	18.982	1227.577	936.388
181.154	18.995	1226.805	935.785
182.169	19.323	1225.565	936.538
183.183	19.225	1224.343	934.993
184.198	19.374	1222.772	934.514
185.213	19.198	1221.963	932.861
186.227	19.337	1221.093	932.869
187.242	19.426	1220.175	932.565
188.256	19.436	1219.011	931.648
189.271	19.484	1218.362	931.330
190.286	19.184	1217.609	929.051
191.300	19.005	1215.683	926.539
192.315	18.843	1214.559	924.727
193.329	18.848	1214.222	924.417
194.344	18.920	1214.001	924.551
195.359	18.978	1213.835	924.657
196.373	19.176	1213.219	925.166
197.388	19.224	1212.991	925.168
198.402	19.383	1213.054	925.990
199.417	19.495	1212.295	925.929
200.432	19.650	1211.053	925.730
201.446	19.656	1210.806	925.491
202.461	19.712	1209.908	925.023
203.475	19.749	1208.815	924.302
204.490	19.615	1206.987	922.107
205.504	19.298	1206.370	919.863
206.519	19.450	1204.591	919.236
207.534	19.301	1203.686	917.668
208.548	19.423	1202.548	917.370
209.563	19.238	1202.643	916.379
210.577	19.375	1201.492	916.149
211.592	19.491	1200.143	915.652
212.607	19.681	1199.408	916.019
213.621	19.680	1198.780	915.453
214.636	19.571	1198.045	914.232
215.650	19.567	1196.888	913.248
216.665	19.615	1196.540	913.155
217.680	19.818	1195.550	913.392
218.694	19.906	1194.324	912.840
219.709	19.856	1193.445	911.825
220.723	19.914	1192.668	911.452
221.738	19.712	1192.304	910.033
222.753	19.767	1191.409	909.554
223.767	19.775	1191.225	909.380
224.782	19.988	1190.345	909.744
225.796	19.949	1189.719	908.981
226.811	20.019	1188.782	908.549
227.826	19.765	1188.326	906.793
228.840	19.798	1187.530	906.277
229.855	19.790	1186.692	905.517
230.869	19.748	1186.086	904.750
231.884	19.648	1185.038	903.348
232.899	19.575	1184.283	902.310
233.913	19.504	1183.387	901.178
234.928	19.458	1182.451	900.150
235.942	19.515	1181.813	899.877
236.957	19.468	1180.979	898.918
237.972	19.513	1180.129	898.427
238.986	19.559	1179.333	897.983
240.001	19.440	1179.236	897.210
241.015	19.570	1177.877	896.772
242.030	19.678	1176.976	896.567
243.045	19.680	1176.699	896.285
244.059	19.721	1176.028	895.906
245.074	19.874	1175.201	895.990
246.088	19.830	1174.499	895.150
247.103	19.980	1173.862	895.358
248.117	20.158	1172.961	895.516
249.132	20.180	1172.658	895.313
250.147	20.446	1172.039	896.137
251.161	20.591	1171.534	896.418
252.176	20.545	1170.830	895.563
253.190	20.548	1170.605	895.327
254.205	20.677	1169.831	895.323
255.220	20.677	1169.213	894.770
256.234	20.589	1168.592	893.763
257.249	20.722	1167.515	893.541
258.263	20.577	1167.229	892.501
259.278	20.596	1166.449	891.921
260.293	20.622	1165.978	891.614
261.307	20.649	1165.626	891.408
262.322	20.841	1164.573	891.502
263.336	20.845	1163.921	890.949
264.351	20.809	1163.483	890.348
265.366	20.789	1163.001	889.797
266.380	20.856	1162.008	889.302
267.395	20.735	1161.124	887.933
268.409	20.706	1160.052	886.884
269.424	20.527	1159.697	885.623
270.439	20.478	1159.528	885.164
271.453	20.559	1158.288	884.552
272.468	20.517	1156.954	883.243
273.482	20.423	1156.375	882.246
274.497	20.418	1155.897	881.775
275.512	20.414	1155.335	881.251
276.526	20.533	1154.240	880.942
277.541	20.479	1153.790	880.246
278.555	20.494	1153.054	879.680
279.570	20.686	1152.468	880.125
280.585	20.810	1152.054	880.358
281.599	20.969	1150.383	879.809
282.614	20.713	1149.706	877.919
283.628	20.649	1148.237	876.400
284.643	20.591	1147.656	875.585
285.657	20.626	1146.711	874.962
286.672	20.645	1145.664	874.181
287.687	20.664	1145.327	873.942
288.701	20.622	1144.634	873.127
289.716	20.737	1143.353	872.649
290.730	20.703	1142.716	871.916
291.745	20.793	1141.922	871.682
292.760	20.790	1141.424	871.209
293.774	20.897	1140.941	871.301
294.789	20.941	1140.413	871.042
295.803	20.946	1139.517	870.305
296.818	20.639	1138.954	868.266
297.833	20.687	1138.066	867.748
298.847	20.751	1137.295	867.404
299.862	20.891	1136.107	867.115
300.876	20.837	1135.763	866.508
301.891	20.921	1135.442	866.607
302.906	20.956	1135.002	866.369
303.920	21.051	1134.448	866.339
304.935	21.158	1133.739	866.253
305.949	21.240	1133.394	866.322
306.964	21.277	1132.215	865.525
307.979	21.124	1131.484	864.131
308.993	21.030	1130.662	862.962
310.008	21.136	1129.801	862.753
311.022	21.144	1129.106	862.183
312.037	21.245	1128.041	861.793
313.052	21.117	1127.240	860.473
314.066	21.012	1126.262	859.133
315.081	20.843	1125.214	857.429
316.095	20.766	1124.569	856.482
317.110	20.761	1123.839	855.827
318.125	20.924	1122.872	855.814
319.139	20.839	1122.459	855.007
320.154	20.842	1121.642	854.324
321.168	20.823	1121.187	853.805
322.183	20.965	1120.575	853.962
323.197	20.961	1119.948	853.388
324.212	20.872	1119.625	852.632
325.227	20.956	1118.741	852.293
326.241	21.070	1118.227	852.384
327.256	20.946	1117.356	851.039
328.270	20.941	1116.442	850.242
329.285	20.961	1115.245	849.354
330.300	20.991	1114.535	848.883
331.314	20.891	1113.785	847.750
332.329	20.881	1112.877	846.936
333.343	21.026	1111.757	846.711
334.358	21.292	1110.912	847.286
335.373	21.246	1110.918	846.993
336.387	21.216	1109.928	846.016
337.402	21.189	1109.660	845.604
338.416	21.383	1108.568	845.637
339.431	21.370	1108.039	845.095
340.446	21.501	1107.664	845.368
341.460	21.593	1106.743	845.036
342.475	21.686	1106.106	844.924
343.489	21.611	1105.355	843.912
344.504	21.732	1104.374	843.672
345.519	21.806	1103.722	843.457
346.533	21.867	1102.587	842.804
347.548	21.957	1101.760	842.533
348.562	21.890	1100.984	841.541
349.577	21.652	1100.149	839.686
350.592	21.532	1099.010	838.170
351.606	21.440	1098.351	837.154
352.621	21.275	1097.889	835.938
353.635	21.416	1096.640	835.587
354.650	21.224	1096.282	834.321
355.665	21.375	1095.569	834.428
356.679	21.402	1095.197	834.200
357.694	21.489	1094.815	834.250
358.708	21.579	1093.941	833.938
359.723	21.683	1093.308	833.875
360.738	21.521	1092.894	832.715
361.752	21.598	1092.455	832.674
362.767	21.637	1091.741	832.240
363.781	21.556	1091.282	831.432
364.796	21.770	1090.600	831.857
365.810	21.974	1089.795	832.134
366.825	21.919	1089.752	831.766
367.840	22.060	1089.190	831.932
368.854	22.140	1088.591	831.779
369.869	22.125	1087.821	831.047
370.883	21.914	1087.206	829.507
371.898	22.086	1085.748	829.131
372.913	21.995	1084.921	827.998
373.927	22.002	1085.185	828.160
374.942	22.137	1084.522	828.216
375.956	22.089	1083.911	827.451
376.971	22.065	1083.162	826.692
377.986	22.106	1082.883	826.602
379.000	22.279	1082.217	826.831
380.015	22.230	1081.897	826.282
381.029	22.410	1080.969	826.348
382.044	22.364	1080.547	825.737
383.059	22.344	1079.608	824.850
384.073	22.394	1078.915	824.482
385.088	22.295	1077.811	823.102
386.102	22.242	1077.067	822.215
387.117	22.312	1075.701	821.426
388.132	21.950	1075.118	819.219
389.146	22.074	1073.994	818.867
390.161	22.037	1073.294	818.091
391.175	21.971	1072.797	817.329
392.190	21.942	1072.202	816.668
393.205	22.246	1071.583	817.538
394.219	22.273	1070.760	816.962
395.234	22.285	1069.382	815.896
396.248	22.037	1068.956	814.351
397.263	22.032	1067.662	813.268
398.278	22.006	1066.941	812.526
399.292	21.940	1066.065	811.485
400.307	21.800	1065.465	810.309
401.321	21.784	1064.847	809.691
402.336	21.769	1064.468	809.261
403.350	21.992	1063.130	809.204
404.365	21.948	1063.231	809.003
405.380	22.113	1062.012	808.764
406.394	22.183	1061.274	808.455
407.409	22.286	1060.717	808.429
408.423	22.355	1060.252	808.323
409.438	22.476	1059.455	808.198
410.453	22.491	1058.952	807.813
411.467	22.625	1058.299	807.855
412.482	22.672	1057.812	807.627
413.496	22.594	1056.977	806.564
414.511	22.742	1056.488	806.796
415.526	22.824	1056.516	807.117
416.540	22.875	1056.215	807.050
417.555	22.906	1055.032	806.218
418.569	22.625	1054.547	804.495
419.584	22.783	1054.112	804.813
420.599	22.690	1053.714	804.013
421.613	153.652	1400.455	1787.691
422.628	141.085	1450.974	1787.828
