DTS Sentinel unit serial number:	SN413079Multiplexer serial number:	ORYXHardware model number:	OX4-SRSoftware version number:	ORYX F/W v4.00 Oryx Data Collector v3.7.2.0data status	okinstallation	princeton_trtdifferential loss correction	single-endedforward channel	channel 2reverse channel	N/Adate	2019/09/14time	21:51:34forward acquisition time	60.00reverse acquisition time	0.00gamma	496.2192k internal	0.2323k external	0.2323temperature offset calibration	1.0069default loss term (dB/km)	0.3790temperature slope calibration	1.0000multiplexer offset coefficient	1.0000multiplexer slope coefficient	1.0000fibre end	0.00T internal ref (°C)	32.75T ext. ref 1 (°C)	4.73T ext. ref 2 (°C)	27.69length (m)	temperature (°C)	Stokes	anti-Stokes-747.200	-200.000	0.019	-0.219
-746.185	73.168	-0.193	0.203
-745.171	-155.909	-0.424	0.027
-744.156	357.688	0.066	-0.134
-743.142	377.299	0.100	0.206
-742.127	-200.000	0.040	0.337
-741.112	50.611	0.081	0.078
-740.098	-156.540	0.199	-0.012
-739.083	334.996	-0.120	0.234
-738.069	28.647	-0.279	0.238
-737.054	242.090	-0.120	-0.202
-736.039	800.000	-0.099	-0.310
-735.025	44.753	0.345	0.321
-734.010	-189.474	-0.287	0.003
-732.996	-117.659	-0.162	0.029
-731.981	-200.000	0.008	0.281
-730.966	-200.000	-0.011	0.151
-729.952	-200.000	0.001	0.032
-728.937	484.904	-0.103	-0.237
-727.923	-20.076	0.194	-0.121
-726.908	51.802	0.069	0.066
-725.894	9.540	0.242	0.185
-724.879	-138.366	0.223	0.025
-723.864	800.000	-0.059	-0.177
-722.850	-62.836	-0.190	0.079
-721.835	-135.473	-0.161	-0.019
-720.821	379.919	-0.214	0.443
-719.806	-96.060	0.049	-0.013
-718.791	-200.000	-0.011	0.069
-717.777	-103.207	-0.214	-0.051
-716.762	173.392	-0.163	0.238
-715.748	172.487	0.095	0.137
-714.733	-200.000	-0.003	-0.156
-713.718	171.548	0.183	-0.265
-712.704	170.702	0.109	0.157
-711.689	440.580	0.078	0.173
-710.675	-200.000	-0.025	0.260
-709.660	609.092	0.111	0.278
-708.645	-38.998	-0.184	0.098
-707.631	-200.000	-0.013	-0.065
-706.616	-52.052	-0.231	0.108
-705.602	-107.917	-0.287	0.063
-704.587	-200.000	0.025	-0.117
-703.572	61.993	-0.077	0.078
-702.558	2.530	0.084	0.061
-701.543	800.000	0.040	-0.133
-700.529	-51.086	0.210	-0.099
-699.514	-117.949	-0.013	-0.002
-698.499	318.179	-0.038	-0.072
-697.485	647.033	-0.143	0.369
-696.470	615.445	0.109	-0.274
-695.456	800.000	-0.061	-0.199
-694.441	800.000	-0.036	0.106
-693.426	472.011	-0.120	-0.273
-692.412	28.159	0.309	0.263
-691.397	91.959	-0.079	0.090
-690.383	569.113	-0.191	-0.467
-689.368	-18.756	-0.382	-0.240
-688.354	-33.312	0.109	-0.061
-687.339	266.137	-0.036	0.063
-686.324	-200.000	-0.033	-0.242
-685.310	166.733	-0.104	0.149
-684.295	-200.000	-0.034	-0.269
-683.281	-54.040	-0.335	0.153
-682.266	177.431	0.064	-0.094
-681.251	-109.089	0.238	-0.051
-680.237	-200.000	0.001	-0.033
-679.222	-137.498	0.220	0.025
-678.208	-200.000	-0.007	-0.059
-677.193	-147.706	0.138	0.012
-676.178	-48.685	0.065	-0.031
-675.164	-200.000	-0.028	-0.302
-674.149	674.870	0.106	-0.278
-673.135	-128.274	-0.374	0.054
-672.120	-41.835	0.158	-0.081
-671.105	-155.630	-0.200	-0.013
-670.091	424.995	-0.126	0.272
-669.076	-18.192	0.107	0.067
-668.062	-200.000	-0.003	-0.155
-667.047	-200.000	-0.050	-0.419
-666.032	51.869	-0.087	-0.083
-665.018	89.432	-0.019	0.021
-664.003	55.402	0.231	-0.225
-662.989	-93.025	0.241	0.068
-661.974	-38.342	0.043	0.023
-660.959	-49.873	0.308	0.147
-659.945	-64.892	0.360	-0.146
-658.930	-172.441	0.147	0.005
-657.916	-74.078	-0.249	-0.091
-656.901	-200.000	-0.016	0.367
-655.886	44.726	-0.152	0.141
-654.872	-93.772	-0.345	0.096
-653.857	-131.328	-0.252	-0.034
-652.843	-141.751	-0.123	0.012
-651.828	13.219	-0.171	0.133
-650.814	-51.847	0.171	0.080
-649.799	499.034	-0.057	-0.132
-648.784	-104.332	-0.324	-0.076
-647.770	-21.563	-0.048	-0.029
-646.755	-6.675	0.252	0.172
-645.741	122.221	0.112	0.141
-644.726	-200.000	0.164	-0.000
-643.711	800.000	-0.100	-0.282
-642.697	-57.659	-0.306	0.135
-641.682	123.244	-0.229	-0.288
-640.668	-37.339	-0.245	-0.132
-639.653	383.062	-0.243	-0.504
-638.638	1.158	-0.178	0.129
-637.624	-51.872	0.265	0.124
-636.609	-200.000	0.066	-0.417
-635.595	436.306	-0.166	0.364
-634.580	33.981	0.041	-0.036
-633.565	-200.000	-0.031	0.317
-632.551	153.634	-0.088	-0.121
-631.536	228.365	-0.141	-0.230
-630.522	-30.543	0.220	0.125
-629.507	144.965	0.141	-0.190
-628.492	34.052	0.213	-0.187
-627.478	92.683	0.044	0.049
-626.463	-102.539	-0.264	0.063
-625.449	159.465	0.042	-0.058
-624.434	-200.000	0.020	0.208
-623.419	98.622	-0.106	0.123
-622.405	788.354	-0.025	0.069
-621.390	-81.765	0.286	-0.094
-620.376	359.218	0.027	-0.054
-619.361	-200.000	-0.008	0.185
-618.346	-37.071	-0.298	0.161
-617.332	-78.716	-0.262	-0.090
-616.317	783.267	0.046	0.126
-615.303	800.000	-0.043	0.181
-614.288	50.733	-0.174	0.166
-613.273	-93.134	0.111	0.031
-612.259	-200.000	0.011	-0.065
-611.244	155.054	0.152	0.210
-610.230	-14.830	0.092	-0.059
-609.215	-200.000	0.007	-0.115
-608.201	-23.177	-0.183	-0.110
-607.186	84.274	0.093	-0.102
-606.171	-100.228	0.179	0.045
-605.157	-200.000	0.004	-0.067
-604.142	-200.000	0.068	-0.436
-603.128	-200.000	-0.076	-0.433
-602.113	-200.000	-0.018	0.099
-601.098	-25.459	0.063	-0.037
-600.084	800.000	-0.031	0.092
-599.069	222.172	0.155	-0.251
-598.055	-86.690	-0.372	0.114
-597.040	-200.000	-0.031	0.283
-596.025	-78.676	-0.365	-0.125
-595.011	-93.836	-0.149	0.041
-593.996	-66.351	0.381	-0.152
-592.982	-15.301	-0.090	0.058
-591.967	-14.000	0.181	-0.117
-590.952	-22.896	0.093	-0.056
-589.938	202.894	-0.114	0.177
-588.923	131.654	0.142	0.183
-587.909	-119.756	0.233	0.040
-586.894	136.602	0.098	0.128
-585.879	-100.613	0.202	0.050
-584.865	800.000	0.041	0.129
-583.850	-200.000	0.026	-0.344
-582.836	127.932	0.294	0.376
-581.821	124.182	-0.129	0.162
-580.806	202.684	0.023	0.035
-579.792	-87.547	0.152	-0.046
-578.777	800.000	-0.103	-0.321
-577.763	-20.134	0.128	0.079
-576.748	-18.662	0.229	0.143
-575.733	-125.079	-0.288	-0.044
-574.719	114.037	0.093	-0.114
-573.704	386.814	-0.134	-0.277
-572.690	-200.000	-0.051	-0.259
-571.675	-27.982	-0.185	0.107
-570.661	76.145	-0.283	-0.301
-569.646	59.960	-0.198	0.196
-568.631	-113.298	0.218	0.043
-567.617	-200.000	0.011	-0.138
-566.602	129.048	0.189	-0.241
-565.588	-14.937	0.106	-0.068
-564.573	-132.769	0.151	-0.019
-563.558	-106.300	0.123	0.028
-562.544	70.564	-0.239	0.248
-561.529	-89.077	0.121	-0.036
-560.515	-200.000	-0.022	-0.119
-559.500	-200.000	0.010	-0.138
-558.485	-107.126	-0.179	0.040
-557.471	-200.000	-0.061	0.435
-556.456	599.967	0.123	0.305
-555.442	2.408	-0.138	0.100
-554.427	800.000	0.094	-0.399
-553.412	49.690	-0.101	-0.095
-552.398	-69.528	0.561	0.215
-551.383	800.000	0.049	-0.198
-550.369	800.000	-0.120	-0.359
-549.354	-200.000	0.017	-0.179
-548.339	-5.304	-0.092	0.063
-547.325	-200.000	-0.016	-0.304
-546.310	17.009	-0.164	-0.130
-545.296	-33.847	0.164	0.090
-544.281	800.000	0.091	-0.294
-543.266	-96.779	0.258	0.068
-542.252	122.088	-0.308	-0.385
-541.237	157.120	0.184	-0.255
-540.223	-200.000	-0.011	0.075
-539.208	-3.113	0.244	-0.170
-538.193	-200.000	-0.016	-0.104
-537.179	800.000	0.035	0.134
-536.164	0.247	-0.144	0.103
-535.150	-114.496	-0.522	-0.100
-534.135	-200.000	-0.023	-0.138
-533.121	-51.624	-0.236	-0.110
-532.106	-200.000	-0.020	-0.152
-531.091	-200.000	-0.035	-0.414
-530.077	611.235	-0.067	-0.167
-529.062	-200.000	-0.012	-0.120
-528.048	-200.000	-0.010	0.100
-527.033	141.502	-0.202	0.268
-526.018	-106.324	-0.117	-0.026
-525.004	800.000	-0.033	-0.095
-523.989	71.222	0.102	-0.106
-522.975	-90.036	-0.439	-0.128
-521.960	-20.202	-0.319	0.197
-520.945	-67.278	0.192	-0.076
-519.931	-200.000	-0.022	-0.119
-518.916	-55.613	-0.208	-0.093
-517.902	252.084	0.152	0.259
-516.887	-35.367	-0.228	0.124
-515.872	-18.991	-0.214	-0.133
-514.858	-197.577	0.258	0.002
-513.843	800.000	0.058	0.195
-512.829	-144.608	0.238	-0.022
-511.814	-13.715	-0.143	-0.093
-510.799	-181.384	0.206	-0.004
-509.785	10.123	0.163	0.124
-508.770	-95.741	-0.403	-0.108
-507.756	-167.406	-0.109	-0.004
-506.741	369.028	0.035	-0.070
-505.726	-12.817	-0.107	-0.070
-504.712	-52.515	0.113	-0.052
-503.697	78.669	-0.112	0.120
-502.683	137.986	-0.156	-0.205
-501.668	-54.350	-0.178	-0.081
-500.653	800.000	0.046	-0.151
-499.639	383.679	-0.077	0.159
-498.624	-133.488	0.165	-0.021
-497.610	264.100	-0.101	0.176
-496.595	-95.455	-0.213	0.057
-495.581	-200.000	0.006	-0.050
-494.566	-133.343	0.137	0.017
-493.551	5.963	-0.093	-0.069
-492.537	-200.000	-0.458	0.000
-491.522	800.000	0.117	0.445
-490.508	37.149	-0.220	0.195
-489.493	58.652	-0.248	0.243
-488.478	800.000	0.046	0.183
-487.464	52.928	-0.035	0.034
-486.449	133.703	-0.078	0.100
-485.435	696.635	-0.038	-0.099
-484.420	-200.000	0.004	0.059
-483.405	-49.241	0.158	0.075
-482.391	-153.540	0.322	-0.022
-481.376	800.000	0.071	-0.258
-480.362	-58.800	-0.090	0.039
-479.347	217.298	-0.085	0.135
-478.332	-200.000	0.042	-0.248
-477.318	-120.193	0.100	-0.017
-476.303	133.123	-0.141	0.182
-475.289	-21.906	0.390	-0.237
-474.274	-140.402	0.339	-0.035
-473.259	-39.559	0.163	-0.085
-472.245	312.925	-0.065	-0.123
-471.230	103.281	-0.286	-0.335
-470.216	-148.691	-0.315	-0.026
-469.201	-15.758	-0.235	-0.150
-468.186	782.280	-0.049	-0.134
-467.172	-72.327	0.143	-0.053
-466.157	-200.000	-0.009	-0.248
-465.143	155.687	0.092	-0.127
-464.128	-107.505	-0.072	0.016
-463.113	206.746	-0.097	-0.150
-462.099	271.481	0.036	0.063
-461.084	-200.000	-0.081	-0.414
-460.070	372.743	-0.076	-0.153
-459.055	-109.767	0.200	0.042
-458.040	-62.154	0.134	-0.056
-457.026	-159.775	0.169	0.009
-456.011	33.407	-0.093	-0.081
-454.997	4.022	-0.267	-0.195
-453.982	-52.655	0.088	-0.040
-452.968	83.636	-0.093	-0.101
-451.953	666.664	-0.008	0.021
-450.938	-133.487	0.105	-0.013
-449.924	216.343	0.130	0.207
-448.909	237.231	-0.101	-0.167
-447.895	-102.125	0.289	-0.069
-446.880	-183.429	0.184	0.003
-445.865	734.671	0.070	0.187
-444.851	-76.173	-0.120	0.042
-443.836	52.457	0.110	0.105
-442.822	-55.769	-0.075	0.034
-441.807	-101.352	0.363	-0.088
-440.792	-200.000	-0.192	0.001
-439.778	92.372	0.083	0.093
-438.763	-62.652	-0.111	0.046
-437.749	-122.639	0.238	0.039
-436.734	3.595	-0.134	0.097
-435.719	-200.000	-0.013	0.364
-434.705	-23.366	0.405	0.243
-433.690	273.344	0.023	0.041
-432.676	302.149	0.140	0.258
-431.661	70.666	-0.185	-0.191
-430.646	-200.000	0.059	-0.384
-429.632	-200.000	-0.072	-0.316
-428.617	-108.221	0.076	-0.016
-427.603	-138.592	0.041	-0.004
-426.588	-146.196	0.175	0.015
-425.573	123.368	-0.158	-0.197
-424.559	-9.822	-0.141	0.094
-423.544	-200.000	0.084	0.440
-422.530	458.522	-0.133	0.296
-421.515	-113.455	-0.339	-0.066
-420.500	217.352	0.121	-0.193
-419.486	364.770	0.101	-0.202
-418.471	-41.089	0.226	0.116
-417.457	118.729	0.091	-0.112
-416.442	56.615	-0.057	-0.055
-415.428	-200.000	-0.047	-0.292
-414.413	134.222	0.099	-0.128
-413.398	146.512	-0.257	-0.344
-412.384	-153.148	-0.122	-0.009
-411.369	29.116	0.174	0.147
-410.355	21.249	-0.319	0.258
-409.340	120.725	-0.096	0.119
-408.325	4.748	-0.136	-0.100
-407.311	61.486	0.302	0.299
-406.296	200.389	-0.079	0.121
-405.282	52.378	-0.153	-0.146
-404.267	800.000	-0.078	0.265
-403.252	-82.123	-0.166	0.054
-402.238	-200.000	0.061	-0.314
-401.223	-138.622	0.214	0.023
-400.209	-130.701	-0.168	0.022
-399.194	797.923	-0.018	-0.049
-398.179	-200.000	-0.235	0.000
-397.165	158.097	0.160	0.221
-396.150	-162.313	0.226	0.011
-395.136	-20.110	-0.259	0.159
-394.121	7.102	-0.308	-0.229
-393.106	-24.511	-0.220	-0.131
-392.092	103.707	0.116	-0.135
-391.077	-200.000	0.040	0.377
-390.063	770.859	-0.098	-0.267
-389.048	2.177	-0.244	-0.176
-388.033	262.122	0.103	0.177
-387.019	-172.129	-0.234	0.008
-386.004	800.000	0.048	0.155
-384.990	-92.620	-0.224	0.063
-383.975	760.270	0.044	0.118
-382.960	-200.000	0.030	-0.165
-381.946	-200.000	-0.008	0.169
-380.931	211.602	-0.121	0.190
-379.917	-24.637	0.365	-0.216
-378.902	800.000	-0.022	-0.093
-377.888	800.000	-0.066	0.205
-376.873	481.098	0.103	0.232
-375.858	-89.183	-0.187	-0.055
-374.844	-126.482	-0.346	0.051
-373.829	-113.792	0.233	0.045
-372.815	800.000	-0.074	-0.251
-371.800	-87.125	0.214	-0.065
-370.785	402.950	0.208	0.434
-369.771	302.018	0.165	0.304
-368.756	78.536	0.205	-0.218
-367.742	-34.098	0.186	-0.102
-366.727	-200.000	-0.006	-0.281
-365.712	71.694	-0.046	-0.047
-364.698	-140.212	0.296	-0.031
-363.683	-42.212	0.034	-0.017
-362.669	260.492	-0.015	-0.026
-361.654	800.000	0.058	0.200
-360.639	-186.887	0.282	-0.004
-359.625	-106.139	0.371	-0.083
-358.610	108.211	0.166	-0.197
-357.596	-16.600	0.229	0.144
-356.581	-145.477	-0.188	-0.017
-355.566	-200.000	0.039	0.189
-354.552	72.179	-0.157	0.162
-353.537	-72.485	0.266	0.098
-352.523	-200.000	0.007	0.064
-351.508	7.028	-0.203	0.151
-350.493	20.787	0.106	-0.085
-349.479	0.794	-0.208	-0.148
-348.464	22.006	-0.185	0.150
-347.450	-158.901	-0.135	0.008
-346.435	408.439	0.039	0.082
-345.420	98.388	0.161	-0.185
-344.406	37.858	-0.248	0.219
-343.391	28.884	-0.299	0.252
-342.377	145.365	-0.091	-0.121
-341.362	-71.946	-0.408	0.151
-340.348	117.039	-0.052	0.064
-339.333	800.000	0.068	-0.210
-338.318	-147.273	0.219	0.018
-337.304	800.000	0.042	0.159
-336.289	699.764	-0.060	0.157
-335.275	94.298	-0.033	0.037
-334.260	-71.601	-0.116	0.043
-333.245	-60.099	-0.051	0.021
-332.231	-74.003	-0.206	-0.074
-331.216	-46.500	0.202	0.098
-330.202	-124.621	0.192	0.030
-329.187	499.676	0.099	-0.227
-328.172	-50.070	0.239	0.112
-327.158	0.944	-0.226	0.161
-326.143	20.953	0.167	-0.134
-325.129	28.389	0.098	-0.082
-324.114	-200.000	-0.083	-0.391
-323.099	463.698	-0.053	-0.118
-322.085	230.746	-0.040	-0.064
-321.070	-80.606	-0.272	-0.090
-320.056	800.000	-0.094	0.397
-319.041	800.000	-0.091	0.308
-318.026	-49.564	0.132	0.063
-317.012	370.072	-0.045	-0.090
-315.997	-200.000	-0.005	0.388
-314.983	-106.921	-0.366	0.080
-313.968	-105.505	0.352	0.079
-312.953	800.000	0.084	-0.268
-311.939	-200.000	0.014	-0.282
-310.924	-200.000	-0.037	0.276
-309.910	-200.000	0.057	-0.000
-308.895	-83.289	-0.099	0.032
-307.880	-200.000	0.001	0.082
-306.866	92.081	-0.263	0.294
-305.851	-200.000	-0.022	0.100
-304.837	53.164	0.127	0.121
-303.822	-200.000	0.462	0.001
-302.807	-200.000	0.015	-0.225
-301.793	278.279	-0.096	0.169
-300.778	183.936	0.239	0.351
-299.764	96.775	0.163	-0.185
-298.749	513.840	0.146	-0.338
-297.735	-115.399	0.173	0.032
-296.720	800.000	-0.134	-0.529
-295.705	194.118	0.207	0.311
-294.691	335.444	-0.063	-0.121
-293.676	-63.407	0.523	0.213
-292.662	-79.887	-0.111	-0.037
-291.647	-60.781	-0.212	-0.089
-290.632	-163.128	0.287	-0.014
-289.618	5.895	0.187	0.137
-288.603	85.259	-0.021	-0.023
-287.589	-73.556	0.247	-0.089
-286.574	283.347	-0.089	0.158
-285.559	182.380	0.105	-0.154
-284.545	-19.565	-0.127	-0.078
-283.530	284.865	-0.091	0.163
-282.516	14.101	0.186	-0.144
-281.501	-153.695	0.148	-0.010
-280.486	-200.000	-0.029	0.167
-279.472	180.771	-0.234	-0.341
-278.457	206.739	-0.124	-0.192
-277.443	259.289	0.139	0.238
-276.428	-200.000	0.027	0.127
-275.413	-200.000	0.071	0.394
-274.399	34.006	-0.155	0.134
-273.384	781.852	0.074	0.201
-272.370	-139.569	-0.134	-0.014
-271.355	-157.628	-0.407	-0.024
-270.340	-143.137	0.085	0.008
-269.326	164.490	0.050	0.070
-268.311	-35.691	-0.195	-0.105
-267.297	-63.831	0.448	-0.182
-266.282	231.434	-0.176	0.285
-265.267	-200.000	-0.024	0.388
-264.253	139.859	0.172	-0.225
-263.238	-200.000	0.023	-0.194
-262.224	207.489	-0.058	-0.089
-261.209	49.401	-0.064	0.060
-260.195	-141.413	-0.126	-0.013
-259.180	310.016	0.119	-0.221
-258.165	-149.375	0.261	-0.021
-257.151	160.538	-0.040	0.055
-256.136	75.638	0.357	0.373
-255.122	30.638	-0.211	-0.179
-254.107	-30.811	-0.037	-0.021
-253.092	164.492	-0.092	0.128
-252.078	209.977	0.102	0.158
-251.063	-63.591	-0.232	-0.094
-250.049	800.000	-0.094	0.359
-249.034	800.000	0.020	0.056
-248.019	-36.524	0.142	0.076
-247.005	271.359	0.013	0.022
-245.990	179.907	0.159	0.231
-244.976	-32.085	0.045	0.025
-243.961	82.387	-0.224	-0.241
-242.946	-52.999	0.072	0.033
-241.932	-68.433	-0.128	-0.049
-240.917	800.000	-0.028	-0.113
-239.903	379.907	0.063	-0.128
-238.888	609.661	0.140	0.345
-237.873	121.659	0.050	-0.062
-236.859	800.000	0.025	-0.109
-235.844	377.518	-0.100	-0.202
-234.830	800.000	0.084	-0.339
-233.815	330.901	0.076	0.145
-232.800	74.261	0.255	0.265
-231.786	169.567	0.103	0.146
-230.771	87.860	0.241	-0.264
-229.757	54.625	0.070	-0.067
-228.742	-63.660	-0.245	0.099
-227.727	-200.000	-0.039	0.246
-226.713	728.417	-0.044	0.116
-225.698	151.924	0.051	-0.068
-224.684	-68.578	0.333	-0.128
-223.669	105.822	-0.197	-0.231
-222.655	17.715	-0.329	-0.259
-221.640	-200.000	0.000	-0.031
-220.625	259.703	0.191	0.326
-219.611	255.885	0.082	0.139
-218.596	17.853	-0.297	-0.234
-217.582	800.000	0.076	0.226
-216.567	800.000	-0.007	-0.021
-215.552	-34.132	-0.218	-0.118
-214.538	-21.600	0.077	0.046
-213.523	113.233	-0.098	0.118
-212.509	-165.875	-0.230	0.010
-211.494	-178.232	0.054	-0.001
-210.479	-64.944	-0.181	-0.072
-209.465	-200.000	-0.019	0.090
-208.450	47.050	0.206	0.189
-207.436	-130.538	0.075	-0.010
-206.421	-72.824	0.347	0.126
-205.406	366.470	0.067	-0.133
-204.392	800.000	0.010	-0.039
-203.377	-200.000	-0.020	0.163
-202.363	139.204	-0.081	0.106
-201.348	198.888	0.065	0.098
-200.333	-146.333	-0.294	0.025
-199.319	79.689	0.207	0.220
-198.304	-75.163	0.216	-0.076
-197.290	107.636	-0.220	0.259
-196.275	-120.910	-0.207	0.034
-195.260	75.110	-0.084	0.088
-194.246	91.214	0.142	0.158
-193.231	-1.882	-0.188	-0.131
-192.217	7.867	0.168	0.125
-191.202	-200.000	-0.009	-0.279
-190.187	-44.964	-0.155	-0.076
-189.173	-73.632	-0.213	0.077
-188.158	-200.000	-0.042	0.268
-187.144	-36.069	0.320	0.171
-186.129	-200.000	-0.029	-0.160
-185.114	56.605	0.201	0.193
-184.100	-58.328	-0.260	0.112
-183.085	-140.507	-0.053	0.005
-182.071	216.949	0.164	-0.258
-181.056	207.170	0.182	-0.280
-180.042	270.461	0.261	0.454
-179.027	137.406	0.137	-0.177
-178.012	10.074	-0.200	0.150
-176.998	42.815	0.280	0.252
-175.983	-131.532	-0.042	0.005
-174.969	-192.736	-0.222	0.002
-173.954	113.279	0.141	0.169
-172.939	464.662	-0.049	-0.108
-171.925	-66.566	-0.106	0.041
-170.910	10.920	-0.088	-0.066
-169.896	-178.972	-0.335	-0.007
-168.881	-17.069	0.129	-0.080
-167.866	-183.716	0.403	0.007
-166.852	-10.962	-0.158	-0.103
-165.837	-76.113	0.084	-0.029
-164.823	200.664	-0.009	0.014
-163.808	-200.000	-0.047	-0.347
-162.793	36.647	0.158	0.137
-161.779	469.961	-0.170	-0.377
-160.764	158.520	-0.161	0.220
-159.750	22.742	0.165	0.133
-158.735	-200.000	-0.025	0.467
-157.720	800.000	0.099	0.287
-156.706	-143.708	0.476	-0.045
-155.691	800.000	-0.066	0.200
-154.677	39.438	0.096	0.085
-153.662	-56.587	-0.342	-0.150
-152.647	8.797	0.169	-0.126
-151.633	-200.000	0.058	-0.296
-150.618	800.000	-0.053	0.219
-149.604	40.799	0.244	0.217
-148.589	-200.000	-0.102	-0.635
-147.574	800.000	0.036	-0.126
-146.560	684.256	-0.099	0.254
-145.545	5.074	0.370	0.268
-144.531	21.302	0.135	0.108
-143.516	-42.745	0.131	-0.066
-142.502	156.059	0.097	-0.132
-141.487	100.506	0.133	-0.153
-140.472	-119.679	0.149	0.025
-139.458	60.788	0.243	-0.238
-138.443	-200.000	0.001	0.070
-137.429	455.760	-0.129	0.283
-136.414	-26.753	0.224	-0.129
-135.399	800.000	-0.143	0.457
-134.385	-8.336	-0.206	0.137
-133.370	49.347	0.150	-0.139
-132.356	211.316	0.193	0.300
-131.341	187.059	0.085	-0.125
-130.326	79.937	0.194	0.205
-129.312	-96.392	-0.117	-0.031
-128.297	-38.087	-0.106	0.056
-127.283	-82.772	0.093	0.030
-126.268	800.000	-0.063	-0.258
-125.253	-116.207	-0.338	-0.062
-124.239	239.668	0.026	0.042
-123.224	-200.000	0.036	0.259
-122.210	-35.008	-0.156	-0.084
-121.195	0.693	-0.092	0.065
-120.180	627.293	0.084	-0.210
-119.166	-200.000	-0.018	-0.195
-118.151	695.264	0.057	-0.146
-117.137	221.395	-0.120	0.190
-116.122	-181.952	0.131	0.002
-115.107	-200.000	-0.004	-0.177
-114.093	87.443	-0.134	0.146
-113.078	-200.000	-0.014	-0.074
-112.064	-200.000	-0.003	0.039
-111.049	-67.577	0.253	0.098
-110.034	-120.419	0.214	0.036
-109.020	782.139	0.040	-0.107
-108.005	117.702	0.134	-0.162
-106.991	-193.928	0.085	0.001
-105.976	684.966	-0.152	0.391
-104.962	641.346	0.068	-0.172
-103.947	-15.309	-0.246	-0.155
-102.932	-36.205	-0.032	-0.017
-101.918	-200.000	-0.005	-0.147
-100.903	457.639	0.062	0.137
-99.889	-200.000	-0.005	0.024
-98.874	124.391	0.251	0.311
-97.859	-200.000	0.000	0.104
-96.845	4.763	0.171	-0.124
-95.830	-122.118	0.369	-0.060
-94.816	36.524	-0.108	0.094
-93.801	395.461	0.118	0.242
-92.786	-96.299	0.322	-0.084
-91.772	-200.000	0.037	0.195
-90.757	-118.508	0.083	0.014
-89.743	396.891	0.075	0.154
-88.728	-117.243	-0.290	-0.052
-87.713	512.484	0.123	-0.283
-86.699	-200.000	0.039	0.261
-85.684	-200.000	-0.037	-0.172
-84.670	-200.000	0.005	-0.206
-83.655	93.095	-0.079	0.088
-82.640	-66.752	0.130	0.051
-81.626	800.000	0.024	-0.085
-80.611	-81.271	-0.310	-0.101
-79.597	255.052	-0.124	-0.209
-78.582	564.229	0.079	-0.189
-77.567	-86.839	0.171	0.051
-76.553	-200.000	-0.010	-0.064
-75.538	12.668	0.016	0.012
-74.524	-190.535	-0.276	0.003
-73.509	17.712	-0.245	0.192
-72.494	800.000	-0.059	-0.230
-71.480	-8.964	0.151	0.099
-70.465	28.589	0.293	-0.244
-69.451	-200.000	-0.006	-0.343
-68.436	-198.650	0.181	0.001
-67.422	38.612	-0.108	-0.095
-66.407	-172.319	-0.020	-0.001
-65.392	-111.827	0.256	0.051
-64.378	33.084	-0.112	0.095
-63.363	-200.000	-0.019	0.306
-62.349	-137.654	0.206	-0.023
-61.334	60.250	-1.196	-1.163
-60.319	-87.667	0.441	0.131
-59.305	423.807	-0.363	-0.767
-58.290	487.691	0.367	0.822
-57.276	800.000	0.412	1.458
-56.261	-200.000	94.994	571.969
-55.246	653.155	1374.862	3465.303
-54.232	198.464	2555.062	3842.057
-53.217	113.146	2268.763	2704.027
-52.203	42.164	1895.531	1691.798
-51.188	36.073	1685.333	1458.226
-50.173	33.259	1641.190	1399.200
-49.159	50.543	1686.616	1567.744
-48.144	52.236	1703.485	1596.043
-47.130	35.529	1664.718	1436.089
-46.115	32.830	1649.949	1403.251
-45.100	32.689	1645.638	1398.483
-44.086	32.665	1642.492	1395.577
-43.071	32.596	1639.722	1392.660
-42.057	32.613	1637.419	1390.773
-41.042	32.656	1635.325	1389.260
-40.027	32.659	1633.746	1387.882
-39.013	32.675	1631.283	1385.856
-37.998	32.518	1630.650	1384.103
-36.984	32.628	1629.030	1383.484
-35.969	32.816	1627.232	1383.278
-34.954	32.830	1625.822	1382.128
-33.940	32.811	1623.811	1380.224
-32.925	32.760	1622.308	1378.522
-31.911	32.636	1620.915	1376.380
-30.896	32.718	1619.259	1375.516
-29.881	32.679	1617.225	1373.445
-28.867	32.762	1615.534	1372.563
-27.852	32.763	1614.098	1371.297
-26.838	32.718	1612.693	1369.717
-25.823	32.772	1610.861	1368.505
-24.809	32.785	1609.731	1367.581
-23.794	32.715	1608.407	1365.896
-22.779	32.797	1607.206	1365.412
-21.765	32.774	1605.144	1363.445
-20.750	32.829	1603.299	1362.218
-19.736	32.853	1602.114	1361.333
-18.721	32.766	1600.979	1359.688
-17.706	32.864	1599.012	1358.664
-16.692	32.746	1597.857	1356.784
-15.677	32.700	1596.840	1355.534
-14.663	32.874	1594.710	1354.919
-13.648	32.782	1593.923	1353.542
-12.633	32.776	1592.289	1352.053
-11.619	32.727	1591.091	1350.630
-10.604	32.786	1589.246	1349.436
-9.590	32.724	1588.213	1348.062
-8.575	32.842	1586.757	1347.617
-7.560	32.807	1585.643	1346.366
-6.546	32.766	1584.608	1345.137
-5.531	32.756	1583.451	1344.030
-4.517	32.759	1581.762	1342.570
-3.502	32.774	1580.771	1341.779
-2.487	32.788	1579.280	1340.559
-1.473	32.577	1567.152	1328.728
-0.458	29.817	1548.204	1293.342
0.556	26.115	1549.616	1261.778
1.571	23.925	1572.432	1264.693
2.586	23.304	1585.729	1270.820
3.600	20.723	1532.651	1210.249
4.615	12.560	1424.388	1071.692
5.629	5.865	1361.632	982.567
6.644	4.787	1353.524	969.920
7.659	4.712	1351.988	968.263
8.673	4.660	1350.969	967.128
9.688	4.751	1349.769	966.746
10.702	4.653	1346.636	963.808
11.717	7.687	1352.291	986.629
12.731	15.205	1366.537	1043.938
13.746	19.911	1372.939	1078.119
14.761	19.550	1371.110	1074.337
15.775	18.504	1368.178	1065.448
16.790	17.502	1365.561	1057.102
17.804	16.595	1363.510	1049.794
18.819	16.217	1362.234	1046.371
19.834	15.980	1360.881	1043.775
20.848	15.710	1359.885	1041.245
21.863	15.480	1358.495	1038.666
22.877	15.438	1357.076	1037.227
23.892	15.426	1356.236	1036.422
24.907	15.410	1355.494	1035.667
25.921	15.464	1354.532	1035.170
26.936	15.463	1353.771	1034.489
27.950	15.509	1353.045	1034.131
28.965	15.479	1352.034	1033.081
29.980	15.584	1350.904	1032.769
30.994	15.660	1349.670	1032.199
32.009	15.697	1348.861	1031.718
33.023	15.755	1347.218	1030.724
34.038	15.569	1346.246	1028.756
35.053	15.557	1344.649	1027.368
36.067	15.552	1343.681	1026.508
37.082	15.493	1342.610	1025.235
38.096	15.653	1341.434	1025.228
39.111	15.578	1341.049	1024.385
40.126	15.643	1339.701	1023.657
41.140	15.436	1339.079	1021.831
42.155	15.335	1338.946	1021.028
43.169	15.272	1338.366	1020.109
44.184	15.279	1338.055	1019.825
45.199	15.211	1338.047	1019.316
46.213	15.321	1337.592	1019.545
47.228	15.528	1336.314	1019.742
48.242	15.599	1335.134	1019.177
49.257	15.417	1333.709	1016.899
50.271	15.431	1332.387	1015.888
51.286	15.548	1330.994	1015.442
52.301	15.397	1330.102	1013.759
53.315	15.491	1328.910	1013.327
54.330	15.365	1327.876	1011.690
55.344	15.383	1326.351	1010.547
56.359	15.313	1325.455	1009.355
57.374	15.316	1324.424	1008.499
58.388	15.301	1323.246	1007.419
59.403	15.179	1323.410	1006.723
60.417	15.257	1322.642	1006.518
61.432	15.269	1321.668	1005.757
62.447	15.171	1320.851	1004.460
63.461	15.143	1319.228	1002.971
64.476	15.220	1318.495	1002.785
65.490	15.095	1317.348	1001.076
66.505	15.218	1315.791	1000.540
67.520	15.206	1314.610	999.482
68.534	15.276	1313.840	999.224
69.549	15.247	1312.543	997.979
70.563	15.189	1311.740	996.935
71.578	15.053	1310.580	995.154
72.593	15.115	1309.458	994.584
73.607	14.959	1308.813	993.079
74.622	15.010	1308.246	992.864
75.636	15.006	1307.571	992.243
76.651	15.121	1306.426	991.964
77.666	15.031	1306.556	991.440
78.680	15.085	1305.839	991.130
79.695	15.237	1304.763	991.123
80.709	15.236	1303.830	990.322
81.724	15.270	1303.160	989.927
82.739	15.278	1302.521	989.399
83.753	15.423	1301.624	989.490
84.768	15.532	1300.408	989.119
85.782	15.483	1300.239	988.613
86.797	15.618	1298.304	987.849
87.812	15.422	1297.129	985.717
88.826	15.472	1296.179	985.199
89.841	15.560	1294.860	984.623
90.855	15.550	1294.013	983.834
91.870	15.562	1293.334	983.305
92.884	15.615	1292.216	982.678
93.899	15.599	1291.788	982.169
94.914	15.708	1290.998	982.119
95.928	15.723	1290.140	981.465
96.943	15.585	1289.180	979.845
97.957	15.590	1288.042	978.924
98.972	15.541	1287.210	977.917
99.987	15.563	1285.810	976.896
101.001	15.542	1285.074	976.128
102.016	15.534	1284.163	975.304
103.030	15.667	1282.938	975.062
104.045	15.606	1282.382	974.194
105.060	15.503	1281.082	972.525
106.074	15.450	1279.367	970.833
107.089	15.289	1277.709	968.560
108.103	15.247	1277.158	967.810
109.118	15.213	1275.796	966.497
110.133	15.209	1274.765	965.609
111.147	15.200	1273.383	964.424
112.162	15.360	1271.704	963.985
113.176	15.348	1271.104	963.377
114.191	15.354	1269.968	962.468
115.206	15.289	1269.471	961.633
116.220	15.352	1267.538	960.444
117.235	15.304	1266.698	959.447
118.249	15.300	1265.625	958.527
119.264	15.221	1264.691	957.280
120.279	15.336	1263.179	956.711
121.293	15.247	1262.505	955.606
122.308	15.199	1261.282	954.321
123.322	15.130	1260.102	952.954
124.337	15.124	1259.348	952.268
125.352	15.181	1258.572	951.916
126.366	15.262	1256.709	950.882
127.381	15.163	1256.505	950.086
128.395	15.172	1255.380	949.202
129.410	15.264	1254.093	948.663
130.424	15.249	1253.373	947.951
131.439	15.339	1252.348	947.598
132.454	15.373	1251.340	946.943
133.468	15.312	1250.989	946.254
134.483	15.378	1250.321	946.035
135.497	15.417	1249.278	945.382
136.512	15.366	1248.025	944.064
137.527	15.434	1246.518	943.222
138.541	15.331	1245.307	941.644
139.556	15.419	1243.425	940.633
140.570	15.587	1242.508	940.796
141.585	15.578	1241.812	940.134
142.600	15.526	1240.762	938.966
143.614	15.579	1239.654	938.337
144.629	15.684	1238.487	937.961
145.643	15.587	1237.740	936.771
146.658	15.557	1236.133	935.303
147.673	15.452	1235.034	933.804
148.687	15.477	1233.926	933.022
149.702	15.366	1232.747	931.433
150.716	15.284	1231.423	929.894
151.731	15.318	1230.355	929.195
152.746	15.383	1229.059	928.494
153.760	15.549	1227.950	928.491
154.775	15.432	1226.928	926.988
155.789	15.545	1225.898	926.754
156.804	15.579	1224.530	925.826
157.819	15.607	1223.940	925.452
158.833	15.607	1223.015	924.669
159.848	15.811	1221.752	924.756
160.862	15.705	1221.308	923.755
161.877	15.541	1220.275	921.994
162.892	15.518	1219.121	920.911
163.906	15.452	1218.402	919.924
164.921	15.562	1217.143	919.497
165.935	15.551	1216.124	918.584
166.950	15.641	1215.388	918.438
167.964	15.668	1214.104	917.536
168.979	15.599	1214.301	917.228
169.994	15.684	1213.402	916.928
171.008	15.647	1212.487	915.956
172.023	15.717	1211.922	915.830
173.037	15.829	1211.065	915.711
174.052	15.738	1210.497	914.705
175.067	15.605	1209.058	912.813
176.081	15.580	1208.218	911.961
177.096	15.611	1207.143	911.239
178.110	15.568	1206.320	910.306
179.125	15.692	1204.863	909.796
180.140	15.770	1203.470	909.087
181.154	15.684	1202.207	907.583
182.169	15.773	1201.150	907.185
183.183	15.863	1200.114	906.807
184.198	15.907	1199.119	906.214
185.213	15.780	1198.167	904.732
186.227	15.965	1196.930	904.709
187.242	15.945	1196.138	903.924
188.256	16.020	1194.968	903.362
189.271	15.998	1194.287	902.649
190.286	15.787	1193.267	900.671
191.300	15.734	1191.752	899.163
192.315	15.530	1191.518	897.818
193.329	15.679	1190.685	897.908
194.344	15.645	1190.358	897.398
195.359	15.606	1189.669	896.591
196.373	15.852	1188.955	897.283
197.388	15.923	1188.706	897.397
198.402	15.994	1188.106	897.240
199.417	16.144	1187.979	897.863
200.432	16.184	1187.173	897.390
201.446	16.295	1186.083	897.079
202.461	16.235	1185.066	895.909
203.475	16.175	1184.481	895.068
204.490	16.095	1183.238	893.625
205.504	16.115	1181.883	892.631
206.519	16.063	1180.746	891.416
207.534	16.067	1179.524	890.437
208.548	16.111	1178.445	889.777
209.563	16.053	1177.643	888.783
210.577	16.080	1176.605	888.067
211.592	16.093	1176.050	887.636
212.607	16.340	1175.141	888.171
213.621	16.240	1174.557	887.128
214.636	16.214	1173.481	886.098
215.650	16.254	1172.776	885.698
216.665	16.281	1172.111	885.259
217.680	16.401	1171.003	884.972
218.694	16.313	1170.402	883.979
219.709	16.343	1169.475	883.357
220.723	16.522	1168.428	883.423
221.738	16.347	1168.068	882.159
222.753	16.363	1167.408	881.667
223.767	16.435	1166.680	881.413
224.782	16.518	1166.110	881.336
225.796	16.605	1165.225	881.045
226.811	16.568	1164.355	880.116
227.826	16.380	1164.069	878.842
228.840	16.399	1163.081	878.119
229.855	16.538	1162.268	878.147
230.869	16.393	1161.362	876.634
231.884	16.429	1160.803	876.325
232.899	16.402	1159.832	875.372
233.913	16.405	1159.271	874.884
234.928	16.289	1158.754	873.818
235.942	16.378	1157.374	873.160
236.957	16.381	1156.832	872.688
237.972	16.297	1156.349	871.816
238.986	16.346	1155.802	871.575
240.001	16.339	1155.098	870.935
241.015	16.414	1153.923	870.356
242.030	16.420	1153.405	869.918
243.045	16.469	1152.501	869.413
244.059	16.494	1151.842	868.967
245.074	16.532	1151.112	868.536
246.088	16.539	1150.257	867.849
247.103	16.628	1149.581	867.718
248.117	16.674	1148.515	867.072
249.132	16.755	1148.300	867.247
250.147	16.808	1147.497	866.835
251.161	16.928	1146.934	866.948
252.176	16.898	1146.400	866.312
253.190	16.955	1145.767	866.050
254.205	17.061	1145.066	865.987
255.220	17.185	1144.062	865.783
256.234	17.159	1143.382	865.059
257.249	17.081	1142.963	864.267
258.263	17.007	1142.698	863.611
259.278	16.895	1142.165	862.565
260.293	17.161	1141.194	863.105
261.307	17.116	1140.455	862.244
262.322	17.269	1139.858	862.492
263.336	17.287	1139.002	861.859
264.351	17.233	1138.650	861.240
265.366	17.302	1137.656	860.762
266.380	17.332	1137.078	860.401
267.395	17.342	1136.274	859.770
268.409	17.221	1136.020	858.887
269.424	17.086	1135.377	857.644
270.439	17.182	1134.746	857.575
271.453	17.160	1133.818	856.688
272.468	17.044	1132.783	855.248
273.482	17.136	1132.295	855.264
274.497	17.076	1131.616	854.376
275.512	17.241	1130.539	854.317
276.526	17.072	1130.113	853.068
277.541	17.143	1129.653	853.000
278.555	17.206	1129.071	852.803
279.570	17.255	1128.214	852.329
280.585	17.225	1126.987	851.175
281.599	17.373	1126.440	851.424
282.614	17.292	1125.338	850.112
283.628	17.227	1124.480	849.064
284.643	17.183	1123.520	848.047
285.657	17.361	1122.468	848.063
286.672	17.372	1121.249	847.122
287.687	17.297	1120.908	846.417
288.701	17.364	1120.127	846.088
289.716	17.375	1119.242	845.397
290.730	17.407	1118.612	845.003
291.745	17.402	1118.104	844.521
292.760	17.421	1116.990	843.700
293.774	17.420	1116.742	843.431
294.789	17.482	1116.614	843.570
295.803	17.581	1115.393	843.062
296.818	17.484	1114.290	841.674
297.833	17.581	1113.460	841.450
298.847	17.394	1112.935	840.056
299.862	17.489	1112.360	840.018
300.876	17.531	1111.799	839.728
301.891	17.603	1111.148	839.516
302.906	17.617	1110.478	839.003
303.920	17.721	1109.753	838.892
304.935	17.737	1109.084	838.392
305.949	17.817	1108.300	838.121
306.964	17.767	1107.563	837.244
307.979	17.713	1107.140	836.582
308.993	17.635	1106.408	835.572
310.008	17.780	1105.618	835.614
311.022	17.854	1104.747	835.244
312.037	17.924	1103.579	834.627
313.052	17.776	1102.854	833.284
314.066	17.679	1101.946	832.051
315.081	17.652	1101.359	831.400
316.095	17.492	1100.716	830.061
317.110	17.625	1099.804	829.948
318.125	17.766	1098.431	829.524
319.139	17.666	1098.180	828.779
320.154	17.697	1097.599	828.414
321.168	17.631	1097.096	827.641
322.183	17.779	1096.329	827.708
323.197	17.771	1095.802	827.196
324.212	17.690	1095.387	826.418
325.227	17.762	1094.919	826.339
326.241	17.934	1093.856	826.297
327.256	17.853	1092.953	825.150
328.270	17.764	1092.001	823.931
329.285	17.738	1091.225	823.145
330.300	17.773	1090.527	822.715
331.314	17.824	1089.571	822.168
332.329	17.759	1088.619	821.063
333.343	17.732	1087.626	820.111
334.358	17.876	1087.014	820.267
335.373	18.029	1086.192	820.312
336.387	18.118	1085.500	820.142
337.402	18.040	1084.540	818.972
338.416	18.083	1084.199	818.846
339.431	18.060	1083.532	818.159
340.446	18.045	1083.456	817.962
341.460	18.146	1082.494	817.642
342.475	18.262	1081.989	817.745
343.489	18.197	1081.003	816.618
344.504	18.142	1080.331	815.772
345.519	18.325	1079.071	815.624
346.533	18.409	1078.377	815.427
347.548	18.341	1077.808	814.599
348.562	18.358	1077.080	814.059
349.577	18.309	1075.825	812.805
350.592	18.157	1075.106	811.470
351.606	18.165	1074.514	810.987
352.621	18.231	1073.898	810.766
353.635	18.216	1072.818	809.807
354.650	18.117	1072.453	808.993
355.665	18.144	1071.719	808.493
356.679	18.196	1071.006	808.128
357.694	18.172	1070.839	807.818
358.708	18.334	1069.857	807.770
359.723	18.275	1069.484	807.140
360.738	18.327	1068.626	806.665
361.752	18.288	1067.868	805.837
362.767	18.341	1067.532	805.762
363.781	18.218	1067.022	804.728
364.796	18.427	1066.630	805.345
365.810	18.541	1065.739	805.136
366.825	18.551	1065.306	804.784
367.840	18.623	1064.925	804.760
368.854	18.730	1064.034	804.520
369.869	18.699	1063.601	803.978
370.883	18.684	1062.388	802.917
371.898	18.549	1061.506	801.550
372.913	18.531	1061.296	801.235
373.927	18.721	1060.695	801.598
374.942	18.760	1060.104	801.263
375.956	18.742	1059.552	800.690
376.971	18.709	1058.996	800.046
377.986	18.758	1058.673	799.956
379.000	18.802	1058.013	799.593
380.015	18.944	1057.489	799.785
381.029	18.950	1056.678	799.130
382.044	18.992	1055.701	798.518
383.059	18.890	1055.406	797.747
384.073	18.942	1054.492	797.228
385.088	18.917	1053.808	796.528
386.102	18.959	1052.930	795.985
387.117	18.800	1051.820	794.342
388.132	18.833	1050.780	793.639
389.146	18.771	1050.259	792.888
390.161	18.853	1049.502	792.625
391.175	18.834	1048.897	792.009
392.190	18.818	1048.156	791.307
393.205	18.817	1047.531	790.759
394.219	18.929	1046.584	790.488
395.234	18.973	1045.407	789.736
396.248	18.871	1044.592	788.578
397.263	18.803	1044.206	787.908
398.278	18.748	1043.685	787.190
399.292	18.730	1042.791	786.363
400.307	18.808	1041.760	785.877
401.321	18.785	1041.176	785.261
402.336	18.744	1040.429	784.441
403.350	18.763	1039.891	784.052
404.365	18.859	1038.877	783.656
405.380	18.910	1038.251	783.344
406.394	18.897	1037.700	782.804
407.409	19.073	1036.971	782.982
408.423	18.995	1036.786	782.422
409.438	19.079	1036.092	782.210
410.453	19.258	1034.918	782.068
411.467	19.263	1034.483	781.690
412.482	19.266	1033.969	781.247
413.496	19.209	1032.998	780.184
414.511	19.242	1032.624	779.982
415.526	19.277	1032.454	779.945
416.540	19.445	1031.829	780.164
417.555	19.387	1031.084	779.269
418.569	19.357	1030.771	778.828
419.584	19.341	1030.480	778.468
420.599	19.430	1029.465	778.030
421.613	151.554	1401.455	1795.027
422.628	138.243	1455.658	1795.125
