DTS Sentinel unit serial number:	SN413079Multiplexer serial number:	ORYXHardware model number:	OX4-SRSoftware version number:	ORYX F/W v4.00 Oryx Data Collector v3.7.2.0data status	okinstallation	princeton_trtdifferential loss correction	single-endedforward channel	channel 2reverse channel	N/Adate	2019/09/10time	17:41:11forward acquisition time	60.00reverse acquisition time	0.00gamma	496.2192k internal	0.2311k external	0.2311temperature offset calibration	0.9939default loss term (dB/km)	0.3790temperature slope calibration	1.0000multiplexer offset coefficient	1.0000multiplexer slope coefficient	1.0000fibre end	0.00T internal ref (°C)	37.61T ext. ref 1 (°C)	-0.32T ext. ref 2 (°C)	31.14length (m)	temperature (°C)	Stokes	anti-Stokes-747.200	-160.814	-0.026	-0.001
-746.185	800.000	0.113	0.328
-745.171	135.989	-0.120	-0.159
-744.156	552.746	0.182	0.445
-743.142	386.751	-0.150	0.314
-742.127	-200.000	-0.040	0.491
-741.112	-76.596	0.133	0.048
-740.098	288.898	-0.064	-0.119
-739.083	-100.552	0.100	0.025
-738.069	800.000	-0.091	0.270
-737.054	766.384	-0.103	0.284
-736.039	30.977	-0.339	0.295
-735.025	-200.000	0.003	-0.116
-734.010	-200.000	-0.000	-0.180
-732.996	-163.427	-0.294	0.014
-731.981	-114.334	-0.241	0.047
-730.966	800.000	-0.045	-0.128
-729.952	-181.153	-0.037	0.001
-728.937	-57.322	0.356	0.159
-727.923	41.767	-0.112	-0.103
-726.908	-122.616	-0.324	0.053
-725.894	127.124	-0.205	-0.264
-724.879	17.401	-0.183	-0.147
-723.864	-117.284	0.152	0.028
-722.850	15.771	-0.386	0.308
-721.835	-31.053	-0.077	-0.044
-720.821	-200.000	-0.050	-0.280
-719.806	139.438	0.238	-0.318
-718.791	-106.338	-0.176	-0.040
-717.777	-97.262	0.160	-0.042
-716.762	-200.000	0.146	-0.001
-715.748	-200.000	-0.028	-0.205
-714.733	-200.000	0.052	0.234
-713.718	800.000	-0.024	0.074
-712.704	77.390	-0.059	-0.064
-711.689	-126.132	0.287	-0.044
-710.675	-200.000	-0.061	-0.296
-709.660	-54.757	-0.049	-0.023
-708.645	104.456	-0.142	-0.169
-707.631	-200.000	-0.008	-0.097
-706.616	-44.971	-0.185	0.094
-705.602	-169.170	-0.174	0.007
-704.587	63.359	0.176	0.179
-703.572	47.728	0.254	-0.240
-702.558	-11.076	0.074	0.049
-701.543	800.000	0.058	-0.241
-700.529	-52.293	0.242	-0.114
-699.514	4.069	0.146	-0.108
-698.499	19.995	-0.332	-0.272
-697.485	-151.990	0.255	0.019
-696.470	-200.000	0.014	0.261
-695.456	-168.527	0.192	-0.007
-694.441	142.993	0.211	-0.285
-693.426	-79.560	-0.198	-0.068
-692.412	37.273	0.070	-0.063
-691.397	212.924	-0.173	-0.277
-690.383	215.439	-0.215	-0.345
-689.368	172.505	-0.057	0.084
-688.354	202.900	0.144	0.225
-687.339	-157.422	0.285	0.017
-686.324	210.894	0.070	-0.111
-685.310	146.499	0.075	-0.102
-684.295	-53.585	-0.373	-0.173
-683.281	13.352	0.225	0.176
-682.266	-70.252	0.166	0.064
-681.251	-40.843	0.235	-0.123
-680.237	-46.914	-0.058	0.029
-679.222	176.384	-0.009	0.013
-678.208	800.000	0.111	-0.448
-677.193	782.502	-0.123	0.342
-676.178	-83.961	-0.076	0.025
-675.164	349.778	-0.110	-0.220
-674.149	-200.000	0.007	-0.189
-673.135	27.082	-0.133	0.113
-672.120	800.000	0.123	-0.394
-671.105	178.408	-0.220	0.326
-670.091	-200.000	0.047	-0.218
-669.076	6.959	0.131	0.099
-668.062	113.900	-0.196	-0.241
-667.047	-74.937	0.372	0.135
-666.032	-127.718	-0.198	-0.029
-665.018	-122.937	0.116	-0.019
-664.003	-97.096	0.395	-0.104
-662.989	48.691	0.030	-0.028
-661.974	-85.754	-0.238	0.075
-660.959	-86.562	-0.165	-0.051
-659.945	-200.000	0.000	-0.188
-658.930	-10.313	0.246	0.165
-657.916	-107.654	-0.230	-0.051
-656.901	390.669	-0.057	-0.120
-655.886	-200.000	0.026	-0.255
-654.872	178.587	-0.069	-0.102
-653.857	169.659	-0.136	-0.196
-652.843	-103.860	-0.235	-0.055
-651.828	-200.000	0.026	-0.229
-650.814	72.349	0.071	-0.075
-649.799	623.119	-0.081	-0.206
-648.784	274.202	0.149	-0.267
-647.770	-98.924	0.057	0.015
-646.755	-33.125	0.422	0.237
-645.741	-125.194	-0.257	0.040
-644.726	-200.000	-0.002	-0.114
-643.711	-171.446	0.218	0.007
-642.697	142.730	-0.107	0.144
-641.682	123.178	0.095	-0.120
-640.668	800.000	0.066	-0.188
-639.653	233.974	0.313	-0.521
-638.638	800.000	0.032	0.113
-637.624	618.716	0.024	0.061
-636.609	90.333	0.158	-0.179
-635.595	-200.000	0.044	0.236
-634.580	-200.000	0.005	0.197
-633.565	800.000	0.022	0.066
-632.551	-200.000	0.018	0.279
-631.536	-143.995	0.433	0.041
-630.522	-40.514	-0.192	-0.101
-629.507	55.331	-0.171	-0.168
-628.492	-200.000	-0.017	0.317
-627.478	262.222	0.270	0.473
-626.463	-31.833	0.256	0.145
-625.449	35.974	-0.127	-0.113
-624.434	27.852	0.238	-0.203
-623.419	282.423	0.149	0.270
-622.405	-200.000	-0.040	0.563
-621.390	-200.000	0.021	-0.130
-620.376	112.200	0.246	-0.300
-619.361	-200.000	0.001	-0.464
-618.346	-81.844	0.082	0.027
-617.332	18.886	-0.116	0.094
-616.317	52.362	0.358	0.345
-615.303	-13.797	-0.252	-0.165
-614.288	675.732	-0.026	0.069
-613.273	-34.794	0.113	-0.062
-612.259	-72.364	0.071	0.026
-611.244	-200.000	0.024	-0.166
-610.230	-146.711	0.093	-0.008
-609.215	-200.000	0.017	-0.360
-608.201	-200.000	0.013	-0.164
-607.186	-51.082	-0.256	0.121
-606.171	-41.334	-0.249	-0.129
-605.157	-56.963	0.077	0.034
-604.142	26.515	0.181	-0.153
-603.128	800.000	-0.062	-0.272
-602.113	-84.467	0.347	-0.111
-601.098	137.278	-0.130	0.171
-600.084	-56.330	-0.193	0.087
-599.069	-200.000	-0.007	-0.126
-598.055	-10.169	0.077	-0.051
-597.040	285.725	-0.096	-0.175
-596.025	-121.073	0.357	0.060
-595.011	-60.786	-0.244	-0.104
-593.996	41.647	-0.176	0.161
-592.982	205.223	-0.206	0.322
-591.967	25.697	0.308	-0.259
-590.952	-93.115	-0.548	-0.154
-589.938	-200.000	0.082	0.425
-588.923	-152.326	-0.335	-0.024
-587.909	-121.434	-0.314	-0.053
-586.894	-47.701	-0.077	0.037
-585.879	-35.834	0.401	0.219
-584.865	-108.164	0.150	0.033
-583.850	-64.896	-0.348	0.142
-582.836	664.922	-0.058	0.152
-581.821	-130.449	0.229	-0.031
-580.806	120.689	0.077	-0.097
-579.792	494.188	-0.068	-0.158
-578.777	-200.000	0.083	0.368
-577.763	273.597	0.110	0.196
-576.748	178.606	0.113	0.167
-575.733	-165.699	0.071	-0.003
-574.719	-46.096	-0.620	-0.308
-573.704	48.205	-0.244	-0.230
-572.690	102.711	0.066	0.078
-571.675	-19.498	-0.239	-0.149
-570.661	627.652	-0.181	-0.461
-569.646	-45.609	-0.231	-0.116
-568.631	-166.697	-0.456	-0.019
-567.617	-71.543	0.118	-0.044
-566.602	-200.000	0.261	0.001
-565.588	-60.089	0.244	-0.105
-564.573	-200.000	-0.022	-0.129
-563.558	229.069	-0.068	-0.112
-562.544	11.291	-0.141	-0.109
-561.529	52.258	0.131	0.126
-560.515	85.331	0.144	-0.159
-559.500	176.592	-0.144	-0.212
-558.485	22.286	-0.098	-0.081
-557.471	-63.931	-0.441	-0.182
-556.456	493.236	0.131	0.303
-555.442	800.000	-0.017	0.061
-554.427	267.798	0.253	-0.447
-553.412	149.470	-0.141	0.192
-552.398	800.000	0.105	-0.327
-551.383	800.000	0.092	-0.345
-550.369	-161.036	-0.521	0.028
-549.354	231.415	0.134	0.221
-548.339	61.124	0.211	0.211
-547.325	-200.000	-0.060	0.285
-546.310	-144.355	-0.225	-0.021
-545.296	-82.322	-0.052	0.017
-544.281	-4.823	-0.059	0.041
-543.266	-25.459	-0.138	-0.082
-542.252	-24.079	-0.100	0.060
-541.237	234.620	-0.028	0.047
-540.223	-27.875	-0.117	-0.068
-539.208	-9.678	-0.191	-0.128
-538.193	-20.908	0.307	-0.189
-537.179	-102.352	-0.472	-0.114
-536.164	-68.019	0.282	0.111
-535.150	800.000	-0.040	0.167
-534.135	-200.000	0.012	-0.074
-533.121	800.000	-0.036	-0.157
-532.106	83.085	-0.122	0.133
-531.091	-200.000	-0.034	-0.230
-530.077	68.506	0.017	0.018
-529.062	437.690	0.056	0.123
-528.048	-141.271	0.244	0.025
-527.033	-150.440	-0.058	-0.004
-526.018	-120.820	-0.082	-0.014
-525.004	54.357	-0.208	0.201
-523.989	299.580	-0.075	0.139
-522.975	-29.507	-0.285	-0.164
-521.960	532.728	0.076	0.181
-520.945	-12.426	-0.122	0.080
-519.931	213.256	-0.256	-0.407
-518.916	-94.011	0.411	-0.114
-517.902	197.907	-0.199	-0.306
-516.887	-37.738	0.230	-0.123
-515.872	-30.827	-0.195	0.111
-514.858	-39.858	-0.349	-0.183
-513.843	800.000	-0.073	-0.240
-512.829	-95.069	0.226	-0.062
-511.814	800.000	-0.121	-0.435
-510.799	-106.873	0.307	-0.069
-509.785	105.371	0.208	0.248
-508.770	109.215	-0.332	0.400
-507.756	114.127	0.169	0.207
-506.741	-55.034	-0.223	0.101
-505.726	-200.000	-0.014	0.223
-504.712	372.485	0.186	0.381
-503.697	-200.000	0.042	0.000
-502.683	644.013	0.070	-0.181
-501.668	-98.770	-0.168	0.043
-500.653	243.783	0.091	-0.154
-499.639	-84.916	0.147	-0.046
-498.624	15.085	-0.054	-0.043
-497.610	189.247	0.142	0.213
-496.595	441.877	-0.151	-0.332
-495.581	-200.000	-0.007	0.290
-494.566	-49.620	0.373	-0.179
-493.551	90.193	-0.197	-0.222
-492.537	800.000	0.098	-0.310
-491.522	271.615	0.047	0.083
-490.508	149.266	0.225	0.306
-489.493	-115.560	0.457	0.086
-488.478	-38.007	-0.163	0.087
-487.464	800.000	-0.145	0.483
-486.449	581.280	0.117	0.288
-485.435	-200.000	-0.060	0.333
-484.420	-181.197	0.193	-0.004
-483.405	-200.000	-0.003	-0.109
-482.391	-46.011	-0.128	0.063
-481.376	161.213	-0.123	-0.173
-480.362	-200.000	0.056	0.349
-479.347	-46.597	-0.029	0.014
-478.332	-77.169	-0.255	-0.089
-477.318	800.000	0.101	-0.282
-476.303	800.000	-0.025	0.106
-475.289	461.700	-0.108	0.242
-474.274	-2.442	-0.093	0.066
-473.259	800.000	-0.062	0.205
-472.245	-165.418	0.155	0.007
-471.230	-200.000	-0.020	0.241
-470.216	784.092	0.061	0.169
-469.201	-40.112	-0.174	-0.091
-468.186	44.602	0.060	-0.056
-467.172	33.104	0.100	0.087
-466.157	508.973	-0.098	-0.228
-465.143	-3.916	0.259	-0.180
-464.128	73.582	-0.226	0.238
-463.113	155.734	0.116	0.160
-462.099	-89.571	-0.210	-0.062
-461.084	-126.967	-0.080	0.012
-460.070	-200.000	0.015	0.248
-459.055	498.691	0.067	0.154
-458.040	276.915	-0.040	-0.072
-457.026	-130.948	0.319	0.043
-456.011	224.090	0.049	-0.080
-454.997	-200.000	-0.076	0.488
-453.982	-48.026	-0.383	-0.186
-452.968	182.143	0.211	-0.312
-451.953	-118.387	-0.278	0.050
-450.938	127.394	0.151	-0.192
-449.924	550.908	-0.141	0.340
-448.909	-3.176	0.091	0.064
-447.895	-200.000	-0.023	-0.152
-446.880	-41.349	-0.332	0.172
-445.865	-200.000	-0.043	0.477
-444.851	21.043	0.247	-0.201
-443.836	140.534	0.145	-0.192
-442.822	-53.113	0.382	0.176
-441.807	26.463	0.270	0.227
-440.792	38.456	-0.139	-0.124
-439.778	-19.449	-0.167	0.104
-438.763	-90.600	-0.294	-0.085
-437.749	-30.348	-0.144	-0.082
-436.734	725.015	0.008	-0.022
-435.719	-200.000	0.036	-0.223
-434.705	30.845	-0.264	-0.227
-433.690	705.208	0.074	0.197
-432.676	-39.028	-0.043	0.023
-431.661	-200.000	-0.009	-0.043
-430.646	-200.000	0.033	0.153
-429.632	-144.957	-0.062	-0.006
-428.617	153.253	-0.200	-0.274
-427.603	800.000	-0.039	-0.170
-426.588	46.338	0.022	-0.021
-425.573	-60.341	0.075	-0.032
-424.559	82.067	-0.067	0.073
-423.544	-200.000	-0.012	0.077
-422.530	102.023	-0.200	0.234
-421.515	-122.628	0.430	-0.070
-420.500	-200.000	-0.017	-0.270
-419.486	-200.000	0.010	-0.122
-418.471	-200.000	-0.031	-0.167
-417.457	285.771	0.049	-0.088
-416.442	800.000	-0.049	0.164
-415.428	273.592	-0.133	0.235
-414.413	-1.772	-0.298	-0.210
-413.398	414.333	-0.086	0.183
-412.384	-75.142	-0.247	0.088
-411.369	-198.971	-0.136	-0.001
-410.355	12.296	-0.182	0.141
-409.340	14.730	0.177	0.139
-408.325	-200.000	0.059	0.328
-407.311	62.573	-0.017	0.017
-406.296	-200.000	-0.042	-0.184
-405.282	-200.000	0.024	-0.385
-404.267	-137.441	0.181	-0.021
-403.252	-200.000	-0.008	0.152
-402.238	-164.298	-0.098	-0.005
-401.223	-121.321	-0.115	-0.019
-400.209	800.000	-0.166	-0.510
-399.194	-128.272	0.298	0.043
-398.179	800.000	-0.057	-0.174
-397.165	-102.690	0.279	-0.067
-396.150	-168.694	-0.553	0.021
-395.136	-83.663	0.295	-0.094
-394.121	-25.371	0.195	-0.116
-393.106	39.723	0.285	0.256
-392.092	-33.897	-0.388	0.214
-391.077	411.366	0.097	-0.206
-390.063	800.000	-0.021	-0.071
-389.048	-24.121	0.186	-0.112
-388.033	800.000	0.039	-0.116
-387.019	800.000	-0.149	-0.615
-386.004	-131.088	0.306	0.041
-384.990	-200.000	0.023	0.206
-383.975	-23.295	0.360	-0.217
-382.960	94.225	-0.161	-0.183
-381.946	-200.000	-0.006	0.104
-380.931	617.452	0.014	0.034
-379.917	-200.000	-0.050	0.311
-378.902	153.388	0.259	-0.355
-377.888	-87.884	-0.187	-0.056
-376.873	369.156	0.104	-0.210
-375.858	-200.000	-0.018	0.203
-374.844	-200.000	-0.004	0.054
-373.829	280.387	-0.122	-0.219
-372.815	-33.152	-0.162	-0.090
-371.800	152.329	0.157	-0.215
-370.785	-200.000	0.035	-0.189
-369.771	38.911	-0.346	0.309
-368.756	248.864	0.164	0.278
-367.742	-200.000	0.024	-0.142
-366.727	-200.000	-0.002	0.087
-365.712	12.090	0.251	0.193
-364.698	-20.649	0.252	0.155
-363.683	199.386	-0.116	-0.177
-362.669	673.227	-0.107	0.277
-361.654	-85.355	0.057	-0.018
-360.639	253.439	-0.131	-0.224
-359.625	-5.176	0.124	0.085
-358.610	-30.062	-0.040	-0.023
-357.596	22.502	-0.362	-0.296
-356.581	49.671	-0.138	-0.130
-355.566	-200.000	0.024	0.196
-354.552	-100.108	-0.068	0.017
-353.537	-200.000	0.029	-0.332
-352.523	62.389	0.108	0.108
-351.508	114.265	0.052	0.063
-350.493	-119.242	0.236	0.041
-349.479	148.693	0.280	0.378
-348.464	-146.190	-0.261	-0.023
-347.450	-200.000	0.012	0.096
-346.435	-69.165	-0.105	0.040
-345.420	-200.000	0.021	0.178
-344.406	-200.000	-0.021	-0.106
-343.391	-200.000	-0.028	-0.176
-342.377	204.209	-0.182	-0.282
-341.362	79.652	0.198	-0.213
-340.348	118.307	0.128	0.158
-339.333	-106.597	-0.263	-0.058
-338.318	800.000	0.057	-0.164
-337.304	201.718	0.155	0.239
-336.289	-200.000	0.516	-0.001
-335.275	115.791	0.070	0.085
-334.260	-31.345	0.280	0.158
-333.245	-114.411	-0.265	0.051
-332.231	-88.444	0.275	-0.082
-331.216	4.285	0.121	-0.088
-330.202	440.954	-0.265	0.579
-329.187	458.962	-0.074	0.164
-328.172	154.677	-0.147	0.201
-327.158	-27.325	0.084	0.049
-326.143	-148.563	-0.267	0.022
-325.129	-57.618	0.182	-0.080
-324.114	185.780	-0.215	0.319
-323.099	-90.479	0.030	-0.009
-322.085	-200.000	-0.084	-0.427
-321.070	800.000	-0.100	-0.352
-320.056	359.358	-0.077	-0.155
-319.041	-200.000	0.008	-0.142
-318.026	-43.565	-0.309	0.156
-317.012	-142.195	0.290	-0.029
-315.997	137.822	-0.209	-0.273
-314.983	186.259	-0.194	0.289
-313.968	-200.000	0.017	0.163
-312.953	-2.228	0.199	-0.139
-311.939	800.000	-0.041	-0.151
-310.924	-67.448	-0.027	0.010
-309.910	65.739	0.115	-0.116
-308.895	-136.880	-0.155	0.018
-307.880	360.616	0.039	0.078
-306.866	-105.089	0.062	-0.014
-305.851	-139.562	-0.238	0.025
-304.837	800.000	0.082	-0.263
-303.822	-200.000	0.030	-0.141
-302.807	800.000	0.028	0.109
-301.793	-200.000	-0.065	0.380
-300.778	-89.434	-0.194	-0.057
-299.764	-112.822	0.059	0.012
-298.749	-88.265	0.268	0.080
-297.735	800.000	0.052	0.143
-296.720	352.014	-0.246	-0.487
-295.705	118.722	-0.169	-0.209
-294.691	-115.825	0.392	-0.073
-293.676	-38.582	0.219	0.115
-292.662	-37.286	-0.066	-0.035
-291.647	-143.642	-0.304	0.029
-290.632	-105.208	-0.176	0.040
-289.618	-200.000	0.010	0.140
-288.603	-200.000	0.048	0.450
-287.589	120.692	0.189	0.234
-286.574	-69.931	-0.135	-0.051
-285.559	-137.154	-0.097	0.011
-284.545	327.387	-0.115	0.219
-283.530	-66.098	-0.139	0.055
-282.516	219.016	0.025	-0.040
-281.501	800.000	0.110	-0.338
-280.486	-94.743	0.333	-0.090
-279.472	800.000	-0.042	0.164
-278.457	55.054	0.335	0.323
-277.443	-75.118	-0.374	0.133
-276.428	-200.000	0.116	-0.512
-275.413	-18.725	-0.163	0.101
-274.399	796.358	0.166	0.456
-273.384	67.057	-0.133	0.135
-272.370	-39.642	-0.069	0.036
-271.355	70.205	-0.163	0.167
-270.340	-200.000	0.034	0.470
-269.326	218.668	-0.155	-0.246
-268.311	-15.246	0.220	-0.140
-267.297	207.302	-0.153	0.238
-266.282	-200.000	-0.018	-0.104
-265.267	-54.317	-0.253	-0.114
-264.253	800.000	-0.051	-0.149
-263.238	-36.305	0.177	0.095
-262.224	516.546	-0.074	-0.173
-261.209	800.000	0.024	0.101
-260.195	70.966	-0.228	0.235
-259.180	2.322	-0.147	-0.106
-258.165	800.000	0.072	-0.227
-257.151	45.012	-0.039	0.036
-256.136	87.490	0.156	-0.171
-255.122	149.918	-0.207	0.280
-254.107	-200.000	0.022	0.447
-253.092	88.843	0.144	-0.159
-252.078	106.077	0.203	0.240
-251.063	-200.000	0.091	-0.403
-250.049	-65.934	-0.236	-0.094
-249.034	-66.466	0.207	-0.082
-248.019	-63.592	0.351	-0.143
-247.005	-5.115	-0.244	-0.167
-245.990	21.262	0.322	0.260
-244.976	-51.415	-0.126	0.059
-243.961	160.132	0.268	-0.372
-242.946	-200.000	0.024	-0.156
-241.932	-106.170	-0.296	-0.066
-240.917	-97.355	0.303	0.078
-239.903	-18.870	-0.033	-0.020
-238.888	54.303	-0.064	-0.061
-237.873	364.765	-0.138	0.277
-236.859	658.938	0.152	-0.390
-235.844	20.405	-0.192	-0.154
-234.830	300.092	0.135	-0.248
-233.815	87.901	-0.306	-0.338
-232.800	-183.573	-0.191	0.003
-231.786	-43.289	-0.044	0.022
-230.771	-41.667	-0.207	0.106
-229.757	20.618	0.310	0.250
-228.742	200.662	0.058	-0.089
-227.727	800.000	0.059	0.246
-226.713	-2.551	0.171	0.119
-225.698	-62.448	0.226	0.094
-224.684	800.000	-0.071	-0.234
-223.669	-200.000	-0.016	0.180
-222.655	19.373	0.059	0.047
-221.640	-18.543	-0.342	0.212
-220.625	372.404	-0.152	-0.307
-219.611	71.998	0.239	-0.248
-218.596	549.500	0.135	-0.322
-217.582	230.158	0.159	0.258
-216.567	26.038	-0.246	0.205
-215.552	-73.883	0.279	-0.101
-214.538	58.319	0.055	-0.053
-213.523	116.256	-0.113	0.138
-212.509	-66.392	-0.324	0.128
-211.494	2.436	0.183	-0.132
-210.479	220.372	0.016	-0.026
-209.465	800.000	0.030	-0.113
-208.450	-200.000	0.019	0.312
-207.436	-105.043	0.217	-0.049
-206.421	-89.043	-0.219	-0.065
-205.406	180.063	-0.177	-0.258
-204.392	178.051	-0.156	-0.226
-203.377	-108.480	0.075	0.016
-202.363	-200.000	-0.012	0.137
-201.348	181.783	-0.033	-0.049
-200.333	246.430	0.201	0.337
-199.319	313.286	-0.077	0.145
-198.304	-52.624	0.087	-0.040
-197.290	288.842	0.072	-0.131
-196.275	38.261	0.217	-0.192
-195.260	279.245	-0.082	-0.146
-194.246	164.483	-0.195	0.274
-193.231	619.033	-0.178	0.444
-192.217	-141.523	0.149	-0.015
-191.202	-108.494	-0.193	-0.041
-190.187	-200.000	0.021	-0.322
-189.173	-103.161	0.125	0.029
-188.158	564.838	-0.117	-0.281
-187.144	-200.000	0.021	0.132
-186.129	-117.497	0.331	0.059
-185.114	25.536	-0.116	-0.096
-184.100	763.099	-0.051	0.136
-183.085	800.000	-0.049	0.167
-182.071	-13.889	0.114	-0.073
-181.056	-57.511	0.009	-0.004
-180.042	-103.665	0.187	-0.043
-179.027	-174.332	0.380	0.011
-178.012	27.994	-0.264	-0.221
-176.998	698.442	-0.023	-0.060
-175.983	-55.528	0.113	0.050
-174.969	800.000	-0.044	0.168
-173.954	800.000	0.047	0.140
-172.939	800.000	0.033	0.130
-171.925	-96.991	-0.246	0.064
-170.910	-93.581	0.217	-0.060
-169.896	-142.561	0.384	-0.037
-168.881	800.000	-0.042	0.143
-167.866	-14.540	0.148	-0.094
-166.852	800.000	-0.101	0.281
-165.837	181.762	0.186	-0.272
-164.823	-200.000	-0.000	-0.023
-163.808	-200.000	0.054	0.269
-162.793	-76.372	0.275	0.096
-161.779	235.574	-0.066	-0.108
-160.764	-98.614	0.121	-0.031
-159.750	53.912	0.138	0.132
-158.735	499.988	0.105	-0.240
-157.720	-200.000	0.035	0.151
-156.706	19.764	0.216	0.173
-155.691	178.884	0.096	-0.140
-154.677	389.164	-0.133	0.273
-153.662	121.644	-0.077	0.095
-152.647	-134.913	0.196	-0.023
-151.633	-164.709	-0.229	0.010
-150.618	-121.662	0.335	-0.055
-149.604	-200.000	0.010	0.059
-148.589	21.412	-0.129	-0.104
-147.574	31.916	0.218	0.186
-146.560	-20.101	0.224	-0.137
-145.545	101.630	-0.121	0.140
-144.531	500.756	-0.056	-0.128
-143.516	-200.000	-0.020	0.427
-142.502	800.000	0.071	0.304
-141.487	64.259	-0.260	-0.260
-140.472	-200.000	-0.011	-0.093
-139.458	-200.000	0.035	0.241
-138.443	800.000	0.082	-0.235
-137.429	-77.758	-0.085	0.029
-136.414	-200.000	-0.009	-0.085
-135.399	126.156	0.102	-0.128
-134.385	-59.384	0.215	-0.092
-133.370	-53.798	0.111	0.050
-132.356	363.179	-0.049	-0.098
-131.341	800.000	0.015	0.057
-130.326	-200.000	0.004	0.156
-129.312	136.311	-0.056	0.073
-128.297	360.623	0.151	-0.299
-127.283	258.516	-0.017	0.028
-126.268	-88.111	-0.072	0.021
-125.253	800.000	0.086	0.279
-124.239	150.985	-0.245	0.330
-123.224	-122.698	-0.400	-0.064
-122.210	800.000	0.061	0.176
-121.195	800.000	0.041	0.160
-120.180	-8.373	0.168	0.112
-119.166	-62.052	-0.238	0.098
-118.151	800.000	0.090	-0.301
-117.137	800.000	-0.051	0.187
-116.122	178.109	0.262	0.378
-115.107	149.729	-0.244	0.328
-114.093	-20.191	-0.208	0.127
-113.078	-200.000	-0.011	0.060
-112.064	800.000	0.054	-0.217
-111.049	-200.000	-0.010	-0.156
-110.034	9.546	-0.329	-0.247
-109.020	113.998	0.219	-0.264
-108.005	103.428	-0.183	-0.212
-106.991	-126.636	-0.383	-0.056
-105.976	-68.226	0.173	-0.066
-104.962	-200.000	0.348	-0.001
-103.947	800.000	-0.014	0.040
-102.932	-41.988	-0.180	-0.091
-101.918	-200.000	0.002	-0.169
-100.903	-33.216	0.173	0.095
-99.889	-200.000	0.018	0.306
-98.874	109.292	0.118	0.139
-97.859	182.716	-0.111	0.162
-96.845	-74.825	0.312	-0.111
-95.830	-56.445	0.208	-0.091
-94.816	656.954	0.100	-0.254
-93.801	-39.677	-0.103	-0.053
-92.786	158.221	0.120	0.164
-91.772	-86.445	0.415	0.126
-90.757	96.619	-0.154	0.174
-89.743	19.424	0.187	-0.148
-88.728	-90.769	0.160	0.046
-87.713	-57.376	0.319	0.139
-86.699	338.453	-0.086	-0.165
-85.684	-200.000	-0.035	-0.178
-84.670	82.887	0.209	0.225
-83.655	-5.461	0.234	0.159
-82.640	35.857	0.331	0.288
-81.626	-179.156	-0.232	0.005
-80.611	-37.595	0.290	0.153
-79.597	-27.653	0.278	-0.160
-78.582	800.000	0.065	-0.178
-77.567	-120.391	-0.079	-0.013
-76.553	320.038	0.143	0.269
-75.538	123.733	-0.141	-0.175
-74.524	70.757	0.099	-0.101
-73.509	-200.000	-0.018	-0.234
-72.494	10.684	-0.047	0.035
-71.480	-41.875	0.148	-0.075
-70.465	-70.097	0.054	0.020
-69.451	-84.313	0.168	0.053
-68.436	209.084	0.110	0.170
-67.422	471.724	-0.055	0.123
-66.407	-150.325	0.514	0.039
-65.392	-200.000	-0.036	-0.217
-64.378	-24.470	-0.278	-0.164
-63.363	-69.165	0.341	-0.130
-62.349	96.891	-0.058	0.066
-61.334	40.925	-0.817	-0.729
-60.319	-42.020	0.267	0.135
-59.305	577.235	-0.478	-1.156
-58.290	88.717	0.604	0.664
-57.276	-200.000	0.265	1.504
-56.261	-200.000	87.246	506.289
-55.246	549.432	1381.148	3271.797
-54.232	181.223	2634.597	3827.702
-53.217	113.596	2369.771	2844.314
-52.203	46.541	1977.633	1813.514
-51.188	40.778	1761.864	1570.207
-50.173	37.968	1715.904	1507.510
-49.159	53.268	1757.532	1663.869
-48.144	56.934	1775.299	1709.239
-47.130	40.561	1735.735	1544.984
-46.115	37.617	1721.472	1509.437
-45.100	37.444	1716.825	1503.966
-44.086	37.506	1713.450	1501.422
-43.071	37.424	1711.118	1498.690
-42.057	37.494	1708.630	1496.993
-41.042	37.419	1706.689	1494.657
-40.027	37.462	1704.693	1493.178
-39.013	37.501	1701.947	1491.012
-37.998	37.434	1700.730	1489.376
-36.984	37.499	1699.174	1488.448
-35.969	37.621	1697.567	1487.913
-34.954	37.621	1695.752	1486.266
-33.940	37.643	1693.792	1484.654
-32.925	37.668	1691.815	1483.055
-31.911	37.641	1690.413	1481.562
-30.896	37.530	1688.844	1479.287
-29.881	37.639	1687.492	1478.866
-28.867	37.588	1685.621	1476.781
-27.852	37.601	1684.210	1475.587
-26.838	37.625	1682.600	1474.304
-25.823	37.555	1681.681	1472.907
-24.809	37.676	1680.110	1472.390
-23.794	37.628	1678.311	1470.390
-22.779	37.645	1676.877	1469.202
-21.765	37.637	1674.933	1467.381
-20.750	37.657	1673.310	1466.048
-19.736	37.623	1672.334	1464.882
-18.721	37.529	1670.958	1462.914
-17.706	37.656	1668.608	1461.752
-16.692	37.638	1667.492	1460.580
-15.677	37.653	1665.911	1459.253
-14.663	37.688	1665.054	1458.702
-13.648	37.608	1663.879	1457.015
-12.633	37.557	1662.088	1455.006
-11.619	37.728	1659.512	1453.970
-10.604	37.722	1658.504	1452.990
-9.590	37.703	1656.998	1451.467
-8.575	37.655	1656.089	1450.259
-7.560	37.592	1655.034	1448.809
-6.546	37.611	1653.896	1447.895
-5.531	37.606	1652.274	1446.380
-4.517	37.572	1651.566	1445.447
-3.502	37.558	1650.212	1444.101
-2.487	37.626	1648.461	1443.018
-1.473	37.377	1636.528	1430.680
-0.458	34.482	1615.642	1391.291
0.556	28.010	1614.645	1353.381
1.571	25.155	1638.968	1352.156
2.586	24.296	1653.231	1357.264
3.600	21.620	1600.100	1293.785
4.615	11.663	1482.118	1129.800
5.629	1.837	1409.254	1009.325
6.644	-0.152	1399.385	989.083
7.659	-0.346	1397.971	986.716
8.673	-0.408	1396.901	985.470
9.688	-0.394	1394.996	984.126
10.702	-0.649	1392.406	980.540
11.717	2.752	1399.112	1007.541
12.731	12.102	1417.054	1082.334
13.746	17.527	1425.926	1124.952
14.761	17.187	1423.949	1121.052
15.775	17.041	1422.770	1119.058
16.790	17.050	1422.380	1118.712
17.804	17.087	1421.559	1118.214
18.819	17.334	1421.483	1119.681
19.834	17.229	1420.797	1118.346
20.848	17.227	1420.137	1117.719
21.863	17.223	1419.142	1116.807
22.877	17.315	1417.522	1116.041
23.892	17.288	1417.459	1115.714
24.907	17.352	1416.102	1114.969
25.921	17.287	1415.166	1113.707
26.936	17.261	1414.546	1112.945
27.950	17.276	1413.331	1111.990
28.965	17.389	1411.792	1111.423
29.980	17.293	1410.627	1109.779
30.994	17.322	1409.238	1108.776
32.009	17.331	1407.500	1107.368
33.023	17.300	1406.627	1106.383
34.038	17.277	1405.187	1105.002
35.053	17.244	1404.497	1104.148
36.067	17.332	1403.002	1103.450
37.082	17.233	1402.484	1102.298
38.096	17.252	1401.239	1101.345
39.111	17.281	1400.126	1100.562
40.126	17.273	1399.873	1100.216
41.140	17.259	1398.928	1099.287
42.155	17.275	1398.758	1099.158
43.169	17.228	1398.863	1098.840
44.184	17.339	1397.855	1098.664
45.199	17.229	1397.699	1097.731
46.213	17.350	1397.141	1097.980
47.228	17.285	1395.670	1096.310
48.242	17.263	1394.822	1095.402
49.257	17.214	1393.544	1093.985
50.271	17.269	1391.515	1092.650
51.286	17.310	1390.152	1091.746
52.301	17.312	1389.145	1090.871
53.315	17.256	1388.538	1089.939
54.330	17.284	1387.154	1088.938
55.344	17.203	1386.081	1087.480
56.359	17.247	1384.819	1086.674
57.374	17.280	1384.013	1086.158
58.388	17.267	1383.171	1085.319
59.403	17.262	1382.983	1085.041
60.417	17.208	1382.262	1084.038
61.432	17.281	1381.252	1083.614
62.447	17.400	1379.906	1083.222
63.461	17.182	1379.288	1081.252
64.476	17.307	1377.764	1080.752
65.490	17.288	1376.984	1079.929
66.505	17.282	1375.320	1078.489
67.520	17.318	1373.642	1077.306
68.534	17.306	1372.534	1076.268
69.549	17.266	1372.096	1075.570
70.563	17.160	1371.453	1074.305
71.578	17.227	1369.930	1073.439
72.593	17.332	1368.719	1073.055
73.607	17.259	1367.913	1071.868
74.622	17.260	1367.313	1071.309
75.636	17.300	1366.456	1070.798
76.651	17.255	1365.081	1069.344
77.666	17.287	1365.056	1069.430
78.680	17.253	1364.187	1068.439
79.695	17.275	1363.262	1067.759
80.709	17.283	1362.773	1067.332
81.724	17.309	1361.422	1066.343
82.739	17.237	1360.529	1065.096
83.753	17.274	1359.479	1064.410
84.768	17.235	1358.264	1063.126
85.782	17.334	1356.740	1062.452
86.797	17.281	1355.247	1060.860
87.812	17.293	1354.110	1059.954
88.826	17.303	1353.291	1059.278
89.841	17.332	1351.829	1058.219
90.855	17.270	1350.737	1056.885
91.870	17.247	1350.029	1056.095
92.884	17.264	1348.961	1055.277
93.899	17.332	1347.703	1054.619
94.914	17.241	1347.575	1053.863
95.928	17.330	1345.953	1053.049
96.943	17.422	1344.851	1052.664
97.957	17.364	1344.257	1051.746
98.972	17.324	1343.350	1050.697
99.987	17.352	1342.406	1050.042
101.001	17.210	1341.538	1048.392
102.016	17.321	1340.067	1047.835
103.030	17.310	1338.985	1046.828
104.045	17.324	1337.946	1046.005
105.060	17.424	1336.399	1045.322
106.074	17.395	1335.370	1044.242
107.089	17.429	1334.084	1043.354
108.103	17.324	1333.536	1042.189
109.118	17.488	1331.376	1041.414
110.133	17.381	1330.707	1040.144
111.147	17.395	1328.835	1038.677
112.162	17.438	1327.985	1038.178
113.176	17.460	1326.450	1037.022
114.191	17.347	1325.713	1035.665
115.206	17.372	1324.718	1034.949
116.220	17.494	1323.429	1034.591
117.235	17.413	1322.279	1033.113
118.249	17.389	1321.316	1032.121
119.264	17.376	1320.087	1030.991
120.279	17.523	1318.815	1030.799
121.293	17.506	1317.804	1029.815
122.308	17.531	1316.693	1029.004
123.322	17.561	1315.418	1028.096
124.337	17.438	1314.430	1026.494
125.352	17.420	1313.792	1025.795
126.366	17.451	1312.788	1025.105
127.381	17.469	1311.578	1024.181
128.395	17.474	1310.089	1022.955
129.410	17.468	1309.235	1022.162
130.424	17.474	1308.351	1021.418
131.439	17.460	1307.419	1020.518
132.454	17.490	1306.152	1019.615
133.468	17.492	1305.399	1018.953
134.483	17.431	1304.905	1018.108
135.497	17.414	1303.837	1017.082
136.512	17.468	1302.384	1016.182
137.527	17.435	1300.690	1014.576
138.541	17.419	1299.730	1013.642
139.556	17.541	1297.669	1012.670
140.570	17.436	1297.193	1011.585
141.585	17.467	1295.777	1010.574
142.600	17.383	1294.775	1009.205
143.614	17.434	1293.490	1008.421
144.629	17.421	1292.525	1007.499
145.643	17.282	1291.715	1005.958
146.658	17.371	1290.310	1005.301
147.673	17.388	1288.934	1004.238
148.687	17.377	1288.043	1003.393
149.702	17.373	1286.663	1002.203
150.716	17.372	1285.481	1001.186
151.731	17.382	1284.074	1000.063
152.746	17.362	1282.864	998.911
153.760	17.476	1281.530	998.456
154.775	17.382	1280.839	997.277
155.789	17.376	1279.620	996.205
156.804	17.404	1278.604	995.491
157.819	17.509	1277.400	995.077
158.833	17.433	1276.800	994.079
159.848	17.451	1275.835	993.346
160.862	17.495	1275.125	992.959
161.877	17.451	1274.373	992.034
162.892	17.367	1273.283	990.605
163.906	17.420	1272.174	989.966
164.921	17.508	1271.751	990.061
165.935	17.449	1271.317	989.293
166.950	17.552	1270.011	988.785
167.964	17.615	1268.800	988.120
168.979	17.554	1268.744	987.635
169.994	17.484	1267.948	986.521
171.008	17.651	1267.137	986.772
172.023	17.573	1266.585	985.800
173.037	17.561	1265.664	984.929
174.052	17.552	1264.819	984.132
175.067	17.491	1263.930	983.001
176.081	17.572	1263.086	982.722
177.096	17.427	1262.409	981.274
178.110	17.579	1261.235	981.152
179.125	17.525	1260.534	980.206
180.140	17.613	1258.943	979.389
181.154	17.598	1257.468	978.068
182.169	17.534	1256.670	976.997
183.183	17.474	1255.700	975.809
184.198	17.496	1254.668	975.052
185.213	17.605	1253.154	974.412
186.227	17.590	1252.292	973.568
187.242	17.645	1251.653	973.301
188.256	17.600	1250.565	972.109
189.271	17.637	1249.613	971.495
190.286	17.649	1248.545	970.647
191.300	17.506	1248.343	969.588
192.315	17.596	1248.210	969.911
193.329	17.586	1247.545	969.255
194.344	17.665	1246.508	968.812
195.359	17.589	1246.054	967.938
196.373	17.539	1245.596	967.217
197.388	17.527	1245.538	967.017
198.402	17.501	1244.984	966.355
199.417	17.628	1243.854	966.112
200.432	17.664	1243.492	965.946
201.446	17.631	1242.433	964.854
202.461	17.614	1241.721	964.118
203.475	17.667	1240.900	963.696
204.490	17.562	1239.944	962.272
205.504	17.667	1238.882	961.958
206.519	17.613	1237.649	960.612
207.534	17.805	1236.458	960.683
208.548	17.653	1235.326	958.865
209.563	17.599	1234.844	958.100
210.577	17.691	1233.707	957.648
211.592	17.665	1233.055	956.911
212.607	17.683	1232.233	956.293
213.621	17.692	1231.309	955.542
214.636	17.758	1230.624	955.292
215.650	17.616	1230.178	954.068
216.665	17.753	1228.536	953.478
217.680	17.813	1227.430	952.869
218.694	17.678	1227.567	952.137
219.709	17.695	1226.403	951.245
220.723	17.750	1225.901	951.078
221.738	17.606	1225.157	949.615
222.753	17.607	1224.712	949.191
223.767	17.733	1223.490	948.861
224.782	17.771	1223.435	948.947
225.796	17.726	1222.936	948.225
226.811	17.699	1221.949	947.225
227.826	17.780	1221.344	947.124
228.840	17.858	1220.606	946.896
229.855	17.715	1220.063	945.602
230.869	17.792	1219.068	945.170
231.884	17.826	1218.388	944.748
232.899	17.782	1217.562	943.782
233.913	17.679	1217.443	943.037
234.928	17.790	1216.624	942.930
235.942	17.777	1216.134	942.397
236.957	17.883	1214.765	941.836
237.972	17.744	1214.115	940.484
238.986	17.771	1213.670	940.205
240.001	17.811	1213.365	940.108
241.015	17.974	1211.798	939.704
242.030	17.850	1211.220	938.492
243.045	18.014	1209.991	938.355
244.059	17.978	1209.520	937.715
245.074	17.903	1208.789	936.653
246.088	17.951	1208.299	936.453
247.103	17.970	1207.561	935.900
248.117	17.878	1206.701	934.647
249.132	17.962	1205.677	934.230
250.147	18.027	1204.902	933.903
251.161	18.000	1204.188	933.122
252.176	17.970	1203.571	932.398
253.190	17.969	1203.156	931.985
254.205	18.019	1202.593	931.741
255.220	17.971	1201.742	930.737
256.234	17.901	1201.490	930.078
257.249	18.025	1200.472	929.881
258.263	18.034	1199.873	929.383
259.278	18.006	1199.622	928.955
260.293	18.052	1198.766	928.463
261.307	18.084	1198.157	928.082
262.322	18.146	1197.454	927.793
263.336	18.180	1196.450	927.114
264.351	18.058	1196.264	926.228
265.366	18.068	1195.602	925.688
266.380	18.062	1195.051	925.145
267.395	18.092	1193.871	924.313
268.409	18.053	1193.381	923.641
269.424	18.083	1192.864	923.323
270.439	18.077	1192.318	922.785
271.453	18.049	1191.914	922.242
272.468	18.058	1190.929	921.444
273.482	18.115	1189.813	920.805
274.497	18.242	1189.436	921.115
275.512	18.160	1188.959	920.222
276.526	18.074	1188.437	919.278
277.541	18.232	1187.784	919.540
278.555	18.165	1186.786	918.326
279.570	18.150	1185.995	917.550
280.585	18.241	1185.164	917.318
281.599	18.071	1184.179	915.563
282.614	18.117	1183.611	915.287
283.628	18.217	1182.200	914.651
284.643	18.240	1181.609	914.237
285.657	18.178	1180.831	913.222
286.672	18.144	1179.621	912.022
287.687	18.286	1178.762	912.035
288.701	18.297	1178.221	911.593
289.716	18.337	1177.405	911.093
290.730	18.158	1177.084	909.816
291.745	18.280	1176.266	909.750
292.760	18.335	1175.726	909.544
293.774	18.280	1174.955	908.576
294.789	18.308	1174.509	908.300
295.803	18.374	1173.812	908.028
296.818	18.297	1172.941	906.869
297.833	18.295	1172.285	906.269
298.847	18.343	1171.768	906.044
299.862	18.416	1170.566	905.417
300.876	18.305	1170.087	904.379
301.891	18.316	1169.588	903.974
302.906	18.318	1168.934	903.401
303.920	18.357	1168.387	903.102
304.935	18.408	1167.416	902.541
305.949	18.432	1166.706	902.038
306.964	18.431	1166.298	901.635
307.979	18.335	1165.779	900.649
308.993	18.472	1164.726	900.477
310.008	18.529	1163.542	899.783
311.022	18.476	1163.038	899.037
312.037	18.399	1163.104	898.603
313.052	18.574	1161.640	898.308
314.066	18.398	1160.923	896.753
315.081	18.456	1159.836	896.138
316.095	18.575	1158.991	896.028
317.110	18.595	1158.497	895.672
318.125	18.601	1157.856	895.129
319.139	18.518	1157.536	894.367
320.154	18.543	1156.569	893.671
321.168	18.514	1156.486	893.374
322.183	18.504	1155.629	892.585
323.197	18.400	1154.857	891.370
324.212	18.457	1154.683	891.450
325.227	18.502	1153.691	890.839
326.241	18.573	1153.511	890.993
327.256	18.552	1152.460	889.992
328.270	18.643	1151.324	889.504
329.285	18.642	1150.849	889.054
330.300	18.653	1149.775	888.204
331.314	18.552	1148.947	886.962
332.329	18.590	1148.004	886.356
333.343	18.587	1147.412	885.804
334.358	18.744	1146.462	885.800
335.373	18.622	1145.774	884.563
336.387	18.621	1144.874	883.785
337.402	18.743	1144.375	883.947
338.416	18.733	1143.558	883.190
339.431	18.689	1143.121	882.544
340.446	18.668	1142.589	881.950
341.460	18.746	1141.440	881.386
342.475	18.663	1141.302	880.775
343.489	18.738	1139.689	879.834
344.504	18.761	1138.811	879.197
345.519	18.805	1137.925	878.660
346.533	18.913	1137.000	878.421
347.548	18.704	1136.625	876.986
348.562	18.704	1135.976	876.410
349.577	18.897	1135.033	876.589
350.592	18.784	1134.170	875.266
351.606	18.898	1133.225	875.041
352.621	18.934	1132.995	874.970
353.635	18.880	1132.448	874.196
354.650	18.792	1131.896	873.242
355.665	18.816	1131.063	872.644
356.679	18.917	1130.190	872.410
357.694	18.980	1129.606	872.200
358.708	18.935	1128.803	871.275
359.723	18.777	1128.729	870.340
360.738	18.929	1127.982	870.457
361.752	18.863	1127.377	869.579
362.767	18.973	1126.512	869.391
363.781	18.909	1125.874	868.496
364.796	18.994	1125.416	868.495
365.810	19.009	1125.074	868.232
366.825	18.899	1124.466	867.128
367.840	19.150	1123.788	867.797
368.854	19.048	1123.413	866.916
369.869	19.103	1122.342	866.290
370.883	19.115	1121.568	865.676
371.898	19.062	1120.878	864.803
372.913	19.113	1120.420	864.625
373.927	19.088	1119.688	863.859
374.942	19.131	1119.043	863.500
375.956	19.036	1118.835	862.790
376.971	19.151	1118.124	862.740
377.986	19.030	1117.745	861.765
379.000	18.957	1117.472	861.112
380.015	19.085	1116.566	860.979
381.029	19.113	1115.574	860.275
382.044	19.151	1114.993	859.940
383.059	19.115	1114.330	859.175
384.073	19.184	1113.264	858.623
385.088	19.327	1112.103	858.364
386.102	19.289	1111.682	857.775
387.117	19.088	1111.151	856.284
388.132	19.207	1109.852	855.802
389.146	19.210	1109.176	855.217
390.161	19.283	1108.754	855.180
391.175	19.198	1107.779	853.931
392.190	19.205	1107.450	853.636
393.205	19.167	1106.325	852.506
394.219	19.122	1105.733	851.752
395.234	19.312	1104.232	851.461
396.248	19.208	1103.816	850.549
397.263	19.333	1102.662	850.204
398.278	19.351	1102.120	849.795
399.292	19.328	1101.412	849.064
400.307	19.504	1100.849	849.420
401.321	19.412	1100.354	848.511
402.336	19.392	1099.336	847.552
403.350	19.386	1098.461	846.771
404.365	19.504	1097.655	846.653
405.380	19.347	1097.171	845.436
406.394	19.545	1096.151	845.548
407.409	19.428	1095.862	844.677
408.423	19.488	1094.996	844.225
409.438	19.546	1093.902	843.590
410.453	19.475	1093.901	843.170
411.467	19.434	1093.132	842.301
412.482	19.576	1092.023	842.063
413.496	19.536	1091.399	841.315
414.511	19.496	1090.992	840.732
415.526	19.463	1090.505	840.122
416.540	19.475	1090.233	839.897
417.555	19.567	1089.409	839.635
418.569	19.489	1089.091	838.936
419.584	19.524	1088.449	838.535
420.599	19.626	1087.469	838.200
421.613	144.144	1393.012	1780.282
422.628	133.439	1437.551	1780.417
