DTS Sentinel unit serial number:	SN413079Multiplexer serial number:	ORYXHardware model number:	OX4-SRSoftware version number:	ORYX F/W v4.00 Oryx Data Collector v3.7.2.0data status	okinstallation	princeton_trtdifferential loss correction	single-endedforward channel	channel 2reverse channel	N/Adate	2019/09/11time	11:49:11forward acquisition time	60.00reverse acquisition time	0.00gamma	496.2192k internal	0.2301k external	0.2301temperature offset calibration	0.9971default loss term (dB/km)	0.3790temperature slope calibration	1.0000multiplexer offset coefficient	1.0000multiplexer slope coefficient	1.0000fibre end	0.00T internal ref (°C)	38.78T ext. ref 1 (°C)	0.19T ext. ref 2 (°C)	36.67length (m)	temperature (°C)	Stokes	anti-Stokes-747.200	-200.000	-0.009	0.155
-746.185	161.856	-0.067	0.096
-745.171	-181.474	-0.184	0.004
-744.156	-62.565	0.273	0.116
-743.142	-200.000	-0.034	-0.185
-742.127	-29.034	0.024	-0.014
-741.112	-70.522	0.487	-0.188
-740.098	-6.868	-0.009	0.006
-739.083	424.904	0.134	0.295
-738.069	535.599	0.079	0.191
-737.054	-200.000	-0.008	0.042
-736.039	30.789	-0.053	0.046
-735.025	356.378	0.055	-0.111
-734.010	-50.336	-0.427	-0.205
-732.996	76.694	0.251	-0.271
-731.981	130.344	0.073	-0.096
-730.966	314.092	-0.038	0.074
-729.952	-135.014	0.075	0.009
-728.937	-28.957	-0.305	-0.179
-727.923	-200.000	0.044	-0.248
-726.908	-200.000	-0.016	-0.279
-725.894	-165.922	0.189	0.008
-724.879	-72.874	-0.110	-0.041
-723.864	283.485	-0.063	-0.115
-722.850	-200.000	0.297	0.001
-721.835	-21.664	0.283	0.176
-720.821	198.959	0.116	0.181
-719.806	334.228	-0.042	0.083
-718.791	114.567	0.159	0.198
-717.777	-93.078	-0.261	-0.074
-716.762	57.577	0.217	-0.216
-715.748	-130.437	-0.133	-0.018
-714.733	-27.333	-0.268	-0.159
-713.718	-89.284	0.071	0.021
-712.704	-200.000	0.024	-0.157
-711.689	-200.000	-0.013	-0.072
-710.675	-37.218	-0.232	-0.126
-709.660	90.995	0.161	0.184
-708.645	800.000	0.046	0.202
-707.631	-117.938	-0.425	0.078
-706.616	-116.037	0.158	-0.030
-705.602	-200.000	-0.011	-0.370
-704.587	800.000	-0.043	-0.157
-703.572	-56.400	0.036	0.016
-702.558	16.992	0.321	-0.259
-701.543	-46.512	-0.227	0.113
-700.529	-118.769	-0.374	-0.067
-699.514	286.850	-0.074	-0.137
-698.499	-200.000	-0.012	-0.226
-697.485	-44.578	0.109	0.055
-696.470	-45.226	0.033	0.016
-695.456	800.000	-0.132	-0.405
-694.441	-149.747	-0.261	0.021
-693.426	39.031	-0.183	0.166
-692.412	-152.602	-0.153	0.011
-691.397	-49.602	0.157	-0.076
-690.383	-121.957	-0.056	-0.009
-689.368	-200.000	0.015	0.259
-688.354	800.000	-0.028	-0.107
-687.339	530.709	0.018	-0.043
-686.324	-122.750	0.246	-0.040
-685.310	-133.355	0.192	-0.025
-684.295	-200.000	0.042	0.347
-683.281	-125.337	-0.208	0.032
-682.266	236.954	0.096	0.161
-681.251	-45.142	0.300	-0.152
-680.237	7.042	-0.170	0.129
-679.222	-200.000	0.001	0.234
-678.208	-200.000	-0.024	-0.196
-677.193	-153.410	0.358	-0.025
-676.178	-79.517	0.447	0.154
-675.164	141.082	-0.050	-0.067
-674.149	-200.000	0.006	-0.117
-673.135	178.285	0.064	-0.095
-672.120	-82.940	0.150	-0.049
-671.105	-18.416	0.285	0.181
-670.091	-78.752	0.146	0.051
-669.076	-24.940	0.310	0.187
-668.062	-200.000	-0.020	0.351
-667.047	198.187	-0.056	0.086
-666.032	128.741	-0.242	-0.314
-665.018	100.258	-0.122	0.143
-664.003	667.359	-0.087	0.228
-662.989	-2.905	-0.184	0.131
-661.974	800.000	0.120	0.410
-660.959	-48.080	0.168	0.083
-659.945	45.867	-0.049	-0.046
-658.930	-147.277	0.253	-0.022
-657.916	-18.139	0.160	0.102
-656.901	309.647	-0.162	0.308
-655.886	-15.669	-0.042	0.027
-654.872	111.947	-0.106	-0.130
-653.857	-57.477	0.274	-0.122
-652.843	-200.000	0.023	-0.208
-651.828	-77.424	-0.086	-0.030
-650.814	14.918	0.312	-0.248
-649.799	-200.000	0.020	-0.198
-648.784	547.894	0.065	-0.157
-647.770	800.000	-0.045	-0.183
-646.755	-10.305	-0.188	-0.127
-645.741	-200.000	-0.051	-0.266
-644.726	416.761	-0.047	0.102
-643.711	504.917	0.144	-0.340
-642.697	26.309	-0.030	-0.025
-641.682	-152.490	-0.252	0.018
-640.668	-200.000	0.007	-0.333
-639.653	-129.686	-0.104	-0.015
-638.638	-36.938	-0.142	-0.078
-637.624	462.857	-0.182	-0.412
-636.609	-30.840	0.302	-0.173
-635.595	-48.296	-0.266	-0.130
-634.580	144.944	-0.124	-0.168
-633.565	800.000	-0.064	0.203
-632.551	-154.365	-0.277	0.019
-631.536	-200.000	-0.006	-0.074
-630.522	-79.366	-0.167	0.058
-629.507	-141.812	0.178	0.018
-628.492	-66.993	-0.135	0.054
-627.478	-83.865	-0.251	-0.081
-626.463	-88.257	-0.181	0.055
-625.449	-200.000	-0.057	0.289
-624.434	534.946	-0.106	-0.255
-623.419	-200.000	0.003	0.143
-622.405	-200.000	-0.048	-0.230
-621.390	-164.981	-0.307	0.014
-620.376	128.660	0.131	-0.169
-619.361	-65.479	0.100	0.041
-618.346	-200.000	0.025	-0.278
-617.332	131.066	-0.166	0.216
-616.317	-39.878	0.069	-0.037
-615.303	-93.086	0.134	-0.038
-614.288	800.000	0.035	0.125
-613.273	94.037	0.081	0.094
-612.259	158.679	0.138	-0.195
-611.244	123.836	0.160	0.204
-610.230	4.096	-0.374	-0.277
-609.215	178.753	-0.064	-0.095
-608.201	-56.962	-0.147	0.066
-607.186	-65.832	-0.297	-0.121
-606.171	-200.000	0.061	0.287
-605.157	133.548	-0.116	0.152
-604.142	-200.000	-0.007	0.092
-603.128	-59.828	-0.111	-0.048
-602.113	-102.012	0.268	0.066
-601.098	-200.000	-0.429	0.001
-600.084	226.723	0.188	0.310
-599.069	92.343	0.106	-0.121
-598.055	-74.646	0.272	0.099
-597.040	-200.000	-0.001	0.061
-596.025	8.913	-0.211	-0.161
-595.011	544.342	0.070	0.169
-593.996	800.000	0.015	-0.049
-592.982	43.624	-0.090	0.084
-591.967	-135.294	-0.549	-0.067
-590.952	535.330	0.054	-0.131
-589.938	-200.000	-0.002	-0.053
-588.923	139.067	0.207	0.275
-587.909	485.759	-0.118	0.273
-586.894	-200.000	0.025	0.146
-585.879	-200.000	-0.057	-0.296
-584.865	19.048	0.474	0.385
-583.850	24.552	-0.172	0.144
-582.836	-24.199	-0.162	0.098
-581.821	-103.681	-0.201	-0.048
-580.806	-200.000	-0.049	0.318
-579.792	17.941	-0.102	0.082
-578.777	-27.830	-0.080	0.047
-577.763	680.959	-0.121	-0.318
-576.748	28.881	0.145	-0.125
-575.733	655.328	0.058	-0.151
-574.719	98.800	-0.140	-0.164
-573.704	50.236	-0.086	-0.083
-572.690	-107.433	-0.179	0.040
-571.675	705.798	-0.027	-0.072
-570.661	-97.804	-0.216	-0.057
-569.646	-99.090	0.327	0.084
-568.631	20.739	-0.078	-0.064
-567.617	800.000	0.110	-0.327
-566.602	-50.620	0.089	-0.042
-565.588	-52.186	-0.314	-0.148
-564.573	800.000	0.092	0.273
-563.558	800.000	-0.080	0.276
-562.544	-128.828	0.336	0.048
-561.529	33.747	0.021	0.018
-560.515	-200.000	0.010	-0.256
-559.500	308.629	0.081	0.153
-558.485	-77.132	-0.262	-0.092
-557.471	-200.000	0.034	0.436
-556.456	-90.382	-0.003	-0.001
-555.442	-3.997	-0.049	-0.035
-554.427	-60.602	0.115	-0.049
-553.412	101.706	0.172	0.202
-552.398	800.000	-0.086	-0.283
-551.383	112.668	0.042	0.052
-550.369	33.792	-0.167	-0.147
-549.354	51.057	0.138	-0.133
-548.339	210.864	0.073	0.115
-547.325	281.764	-0.057	-0.104
-546.310	-200.000	-0.029	-0.183
-545.296	210.487	-0.213	0.338
-544.281	278.265	-0.145	-0.262
-543.266	-200.000	0.002	-0.259
-542.252	151.783	0.064	-0.088
-541.237	212.679	0.062	-0.099
-540.223	-62.049	-0.210	-0.089
-539.208	639.206	0.041	-0.105
-538.193	5.119	-0.139	0.104
-537.179	-200.000	0.039	0.231
-536.164	-200.000	-0.147	0.001
-535.150	-90.990	0.009	-0.003
-534.135	-27.841	0.156	-0.091
-533.121	-143.229	0.210	0.020
-532.106	16.416	-0.252	-0.201
-531.091	-149.689	0.197	0.016
-530.077	35.368	-0.200	0.177
-529.062	800.000	0.082	0.271
-528.048	12.423	-0.306	0.238
-527.033	-73.345	0.311	-0.115
-526.018	250.354	-0.169	0.291
-525.004	-200.000	0.054	-0.304
-523.989	392.318	-0.144	-0.303
-522.975	-200.000	-0.092	-0.447
-521.960	6.146	-0.161	-0.121
-520.945	155.363	-0.096	0.134
-519.931	-5.925	-0.247	0.171
-518.916	328.859	-0.056	-0.109
-517.902	-200.000	0.012	-0.210
-516.887	250.277	-0.206	0.353
-515.872	-80.286	-0.161	-0.054
-514.858	-117.366	0.384	0.070
-513.843	800.000	-0.069	-0.282
-512.829	61.805	0.123	0.124
-511.814	-169.546	-0.309	0.011
-510.799	302.343	-0.145	-0.271
-509.785	-7.200	-0.175	0.120
-508.770	464.232	0.145	-0.327
-507.756	-80.496	-0.172	0.058
-506.741	-96.768	-0.127	0.034
-505.726	-39.010	-0.046	0.024
-504.712	800.000	-0.088	0.260
-503.697	-110.074	0.070	-0.015
-502.683	800.000	0.082	-0.239
-501.668	-187.346	0.079	-0.001
-500.653	-100.310	-0.067	0.017
-499.639	-48.098	0.083	0.041
-498.624	124.005	0.138	0.175
-497.610	57.044	-0.131	-0.129
-496.595	92.509	-0.256	-0.292
-495.581	-200.000	-0.055	-0.396
-494.566	334.627	0.083	-0.163
-493.551	-133.837	0.298	-0.037
-492.537	800.000	-0.007	-0.032
-491.522	-114.154	0.064	0.012
-490.508	243.103	-0.217	0.367
-489.493	-200.000	-0.010	0.312
-488.478	425.257	-0.026	0.056
-487.464	23.787	-0.356	-0.296
-486.449	-200.000	0.041	0.222
-485.435	107.377	0.102	0.122
-484.420	434.350	0.082	-0.179
-483.405	-200.000	-0.030	-0.175
-482.391	98.448	0.142	-0.165
-481.376	-152.693	-0.101	0.007
-480.362	41.283	-0.109	-0.099
-479.347	800.000	-0.081	0.239
-478.332	283.404	0.050	-0.090
-477.318	49.361	0.209	-0.199
-476.303	7.812	-0.173	0.131
-475.289	-200.000	0.003	0.102
-474.274	626.380	-0.153	0.389
-473.259	31.761	0.134	0.117
-472.245	14.324	0.161	-0.127
-471.230	-67.868	-0.139	-0.055
-470.216	-79.472	0.170	0.058
-469.201	-149.934	0.194	0.015
-468.186	-200.000	-0.017	-0.354
-467.172	800.000	0.099	0.310
-466.157	432.568	-0.138	-0.303
-465.143	146.828	-0.167	-0.227
-464.128	800.000	0.071	0.227
-463.113	295.713	-0.088	0.163
-462.099	697.348	0.095	-0.252
-461.084	607.112	-0.045	-0.113
-460.070	73.246	-0.246	0.260
-459.055	219.093	0.254	-0.409
-458.040	4.576	-0.075	0.056
-457.026	30.032	-0.228	-0.196
-456.011	-200.000	-0.042	0.250
-454.997	-127.970	-0.186	-0.027
-453.982	-111.721	-0.237	-0.048
-452.968	16.510	0.422	0.336
-451.953	-52.630	-0.150	0.070
-450.938	800.000	0.117	-0.415
-449.924	158.670	-0.055	-0.077
-448.909	-88.869	0.261	-0.078
-447.895	-76.846	0.171	-0.060
-446.880	126.472	-0.025	-0.032
-445.865	-151.333	0.402	-0.030
-444.851	800.000	0.083	0.251
-443.836	19.027	0.219	-0.177
-442.822	-35.585	-0.290	0.158
-441.807	-141.164	0.255	0.026
-440.792	-195.613	0.167	-0.001
-439.778	-200.000	0.006	0.029
-438.763	122.434	-0.158	-0.199
-437.749	-66.776	-0.155	-0.062
-436.734	1.253	0.059	0.043
-435.719	387.299	0.197	0.410
-434.705	43.523	0.099	-0.091
-433.690	-40.262	-0.345	0.181
-432.676	252.037	-0.254	0.435
-431.661	-60.084	-0.105	-0.045
-430.646	800.000	-0.032	-0.090
-429.632	232.330	0.021	0.035
-428.617	-200.000	-0.013	0.316
-427.603	-50.404	-0.103	0.049
-426.588	-70.139	0.100	0.038
-425.573	800.000	0.086	0.370
-424.559	67.946	0.125	-0.129
-423.544	438.165	0.077	0.170
-422.530	57.762	0.144	-0.142
-421.515	61.557	0.202	0.202
-420.500	-142.734	0.213	0.021
-419.486	1.341	-0.312	-0.226
-418.471	800.000	-0.070	0.263
-417.457	591.140	-0.120	0.299
-416.442	-10.112	0.193	-0.129
-415.428	459.527	-0.124	-0.278
-414.413	446.715	0.128	0.283
-413.398	74.115	0.103	-0.109
-412.384	-6.129	-0.127	-0.087
-411.369	-146.145	-0.090	-0.008
-410.355	48.510	-0.142	-0.134
-409.340	800.000	-0.039	0.134
-408.325	-31.214	-0.250	0.142
-407.311	216.419	-0.113	0.181
-406.296	-200.000	-0.002	-0.098
-405.282	-60.927	-0.350	-0.149
-404.267	800.000	-0.078	-0.232
-403.252	-200.000	0.390	0.001
-402.238	-200.000	0.000	0.193
-401.223	-58.393	-0.127	-0.056
-400.209	-97.044	0.287	-0.076
-399.194	-200.000	0.010	0.144
-398.179	-49.013	-0.296	-0.143
-397.165	-200.000	0.007	0.074
-396.150	-200.000	-0.004	-0.254
-395.136	-87.192	-0.390	-0.119
-394.121	279.422	-0.175	-0.314
-393.106	142.591	0.192	0.257
-392.092	800.000	0.075	0.232
-391.077	800.000	-0.050	-0.169
-390.063	108.572	0.219	-0.263
-389.048	-65.901	0.165	0.066
-388.033	800.000	0.031	0.107
-387.019	74.789	0.087	0.092
-386.004	-200.000	-0.015	0.092
-384.990	283.595	-0.034	0.061
-383.975	114.610	-0.085	0.104
-382.960	-29.889	-0.205	-0.117
-381.946	218.929	0.181	0.291
-380.931	120.185	0.229	-0.285
-379.917	135.923	-0.083	-0.108
-378.902	-93.956	-0.031	0.009
-377.888	-200.000	0.008	-0.118
-376.873	-131.624	-0.516	0.068
-375.858	-38.634	0.047	0.025
-374.844	800.000	0.037	0.161
-373.829	-117.222	0.423	-0.077
-372.815	30.180	-0.139	-0.119
-371.800	103.564	0.301	0.355
-370.785	-149.601	0.059	-0.005
-369.771	-200.000	-0.076	-0.371
-368.756	-200.000	-0.008	-0.044
-367.742	-106.197	0.266	-0.060
-366.727	21.117	0.091	-0.074
-365.712	227.525	0.071	-0.116
-364.698	-6.293	-0.092	-0.063
-363.683	-172.243	-0.305	-0.010
-362.669	800.000	-0.076	-0.255
-361.654	223.249	0.117	0.189
-360.639	-8.598	-0.172	-0.116
-359.625	122.854	-0.081	-0.102
-358.610	12.793	-0.210	0.163
-357.596	800.000	0.114	0.382
-356.581	688.356	0.041	0.108
-355.566	-2.925	-0.192	-0.135
-354.552	-77.234	0.359	0.125
-353.537	-200.000	0.058	0.279
-352.523	-200.000	0.039	0.277
-351.508	108.224	0.084	-0.101
-350.493	-69.378	0.188	0.072
-349.479	-187.165	0.198	-0.003
-348.464	-102.725	-0.223	-0.053
-347.450	651.560	-0.054	-0.140
-346.435	800.000	0.111	0.325
-345.420	188.419	-0.118	-0.177
-344.406	-200.000	0.004	0.256
-343.391	-106.980	0.116	-0.026
-342.377	-96.038	0.253	-0.068
-341.362	284.319	0.037	-0.067
-340.348	-128.682	0.335	-0.047
-339.333	-41.656	0.523	0.270
-338.318	57.695	-0.200	-0.196
-337.304	-39.570	-0.121	-0.064
-336.289	282.535	0.072	-0.130
-335.275	151.894	-0.050	0.069
-334.260	-85.055	0.176	0.055
-333.245	-200.000	0.041	0.210
-332.231	269.654	-0.109	-0.192
-331.216	152.806	0.111	0.152
-330.202	25.153	-0.211	-0.175
-329.187	-28.563	0.275	-0.159
-328.172	-200.000	-0.010	-0.078
-327.158	29.216	0.289	-0.246
-326.143	-200.000	0.006	-0.191
-325.129	-32.896	-0.354	0.197
-324.114	148.350	-0.068	0.092
-323.099	800.000	-0.033	0.136
-322.085	-200.000	-0.024	0.252
-321.070	86.498	-0.084	0.093
-320.056	-52.413	-0.026	0.012
-319.041	56.050	-0.168	0.163
-318.026	-28.372	-0.054	0.031
-317.012	-28.485	-0.179	0.104
-315.997	-34.322	-0.180	0.099
-314.983	781.239	-0.096	-0.263
-313.968	750.684	-0.070	-0.191
-312.953	109.777	-0.136	0.164
-311.939	500.805	0.073	0.169
-310.924	800.000	0.029	0.127
-309.910	-50.812	-0.179	0.084
-308.895	691.523	0.057	-0.151
-307.880	-64.359	0.205	-0.083
-306.866	70.678	-0.139	0.144
-305.851	52.435	-0.182	-0.174
-304.837	-101.899	0.129	0.031
-303.822	800.000	0.004	-0.012
-302.807	800.000	-0.083	0.232
-301.793	-200.000	-0.017	0.198
-300.778	-200.000	0.003	-0.113
-299.764	-103.863	-0.231	-0.054
-298.749	-129.160	0.244	0.034
-297.735	555.585	0.014	-0.033
-296.720	-92.215	0.093	0.026
-295.705	-97.650	0.343	-0.089
-294.691	-177.885	0.555	0.013
-293.676	-85.298	0.278	0.087
-292.662	231.106	0.196	-0.322
-291.647	-200.000	-0.017	0.524
-290.632	-200.000	-0.000	-0.098
-289.618	-200.000	-0.027	-0.121
-288.603	-28.450	-0.162	0.094
-287.589	-200.000	-0.032	-0.494
-286.574	278.392	0.149	-0.265
-285.559	32.060	0.041	0.035
-284.545	-15.851	0.233	-0.149
-283.530	-82.867	0.177	0.057
-282.516	-44.618	-0.150	-0.075
-281.501	205.189	0.064	0.099
-280.486	-134.892	0.379	-0.046
-279.472	800.000	0.016	-0.062
-278.457	56.585	-0.093	0.090
-277.443	800.000	-0.089	0.272
-276.428	-152.770	-0.093	0.007
-275.413	11.547	-0.176	0.135
-274.399	6.964	0.566	0.422
-273.384	-103.345	0.430	0.102
-272.370	-200.000	0.037	0.292
-271.355	-120.439	0.204	0.035
-270.340	495.404	-0.072	0.166
-269.326	-200.000	-0.017	0.092
-268.311	-97.402	-0.412	-0.107
-267.297	-66.352	0.279	0.111
-266.282	800.000	-0.068	-0.252
-265.267	-115.524	0.229	-0.043
-264.253	-142.138	-0.219	-0.022
-263.238	-120.111	-0.253	0.043
-262.224	544.729	0.047	-0.112
-261.209	-129.322	0.114	0.016
-260.195	-44.982	0.062	0.031
-259.180	-163.763	-0.128	-0.006
-258.165	303.769	-0.124	-0.230
-257.151	334.235	0.084	0.162
-256.136	194.340	-0.108	-0.163
-255.122	137.967	-0.118	-0.154
-254.107	-200.000	-0.025	-0.121
-253.092	-200.000	0.015	0.124
-252.078	-200.000	-0.026	-0.155
-251.063	-124.998	-0.231	0.036
-250.049	-200.000	-0.018	-0.236
-249.034	-97.931	0.142	-0.037
-248.019	-88.682	-0.462	-0.137
-247.005	800.000	-0.045	-0.133
-245.990	-200.000	0.054	-0.303
-244.976	-200.000	0.017	0.298
-243.961	90.343	-0.166	0.186
-242.946	-82.703	0.080	-0.026
-241.932	-99.686	0.362	0.091
-240.917	-37.470	-0.229	0.122
-239.903	-92.542	0.187	-0.053
-238.888	93.132	-0.077	-0.087
-237.873	398.006	0.130	0.272
-236.859	66.324	0.138	-0.140
-235.844	-96.461	-0.079	-0.021
-234.830	-200.000	-0.033	-0.377
-233.815	65.028	-0.229	0.231
-232.800	259.067	-0.150	0.258
-231.786	-200.000	0.006	0.091
-230.771	407.914	0.041	0.086
-229.757	-34.536	-0.207	0.113
-228.742	-179.492	-0.329	-0.007
-227.727	-75.440	0.389	0.138
-226.713	156.351	0.359	0.495
-225.698	-87.175	-0.259	-0.079
-224.684	-53.796	-0.191	-0.087
-223.669	-117.973	0.257	-0.046
-222.655	90.878	0.177	0.198
-221.640	14.175	-0.246	0.192
-220.625	439.937	0.073	0.160
-219.611	508.313	0.036	0.083
-218.596	110.059	-0.054	0.065
-217.582	-11.248	0.249	-0.164
-216.567	70.942	0.258	-0.267
-215.552	-155.201	0.301	-0.020
-214.538	87.995	-0.273	0.302
-213.523	-200.000	0.046	-0.324
-212.509	-24.204	0.311	0.185
-211.494	-109.028	-0.064	-0.014
-210.479	-46.440	-0.211	0.104
-209.465	9.305	-0.349	0.264
-208.450	704.790	0.111	0.292
-207.436	-8.202	0.121	-0.082
-206.421	747.503	-0.085	-0.229
-205.406	800.000	-0.061	-0.240
-204.392	102.936	0.234	-0.273
-203.377	-200.000	0.006	0.108
-202.363	-200.000	0.056	0.261
-201.348	203.638	0.099	0.152
-200.333	655.711	0.036	-0.093
-199.319	-200.000	0.038	0.334
-198.304	-117.469	0.268	-0.048
-197.290	1.684	-0.126	0.091
-196.275	385.929	-0.032	0.067
-195.260	255.476	-0.040	0.069
-194.246	298.099	-0.098	-0.179
-193.231	800.000	-0.065	-0.268
-192.217	-200.000	-0.034	0.221
-191.202	1.563	0.199	0.143
-190.187	709.026	0.134	-0.354
-189.173	93.040	0.033	0.038
-188.158	-49.686	0.286	-0.136
-187.144	800.000	0.056	0.224
-186.129	800.000	0.078	0.270
-185.114	-200.000	0.022	-0.146
-184.100	247.993	-0.061	0.103
-183.085	171.359	-0.106	0.152
-182.071	-200.000	0.000	-0.108
-181.056	526.386	0.144	-0.337
-180.042	66.429	0.036	-0.036
-179.027	-145.571	0.195	-0.017
-178.012	17.066	0.194	-0.153
-176.998	-200.000	-0.032	0.508
-175.983	-141.631	0.279	-0.028
-174.969	-126.916	0.237	-0.035
-173.954	-80.724	-0.061	0.020
-172.939	-29.202	0.062	0.035
-171.925	-67.560	0.141	0.055
-170.910	290.438	0.113	0.205
-169.896	66.873	-0.233	0.237
-168.881	-86.048	0.110	-0.034
-167.866	-107.598	-0.240	-0.052
-166.852	462.732	-0.132	0.294
-165.837	280.260	0.067	-0.120
-164.823	-200.000	0.042	-0.302
-163.808	-200.000	0.012	-0.199
-162.793	-200.000	-0.042	0.267
-161.779	800.000	0.088	-0.346
-160.764	-87.589	-0.212	0.064
-159.750	739.409	0.028	-0.075
-158.735	1.100	0.343	-0.245
-157.720	15.390	-0.118	-0.092
-156.706	-200.000	0.035	0.197
-155.691	-124.003	0.254	-0.040
-154.677	61.011	0.290	-0.286
-153.662	800.000	0.105	-0.328
-152.647	-14.952	0.438	0.280
-151.633	-49.024	-0.044	0.021
-150.618	-46.961	-0.136	0.066
-149.604	800.000	0.049	-0.163
-148.589	368.101	-0.162	-0.326
-147.574	-116.684	0.099	-0.018
-146.560	-200.000	0.030	0.219
-145.545	15.812	0.090	0.070
-144.531	-101.056	-0.417	0.102
-143.516	94.332	0.167	-0.189
-142.502	-49.592	0.351	-0.166
-141.487	117.444	0.105	0.129
-140.472	7.423	-0.173	-0.129
-139.458	-143.038	0.156	0.015
-138.443	-21.821	0.254	-0.154
-137.429	62.863	0.110	0.110
-136.414	32.227	0.141	0.121
-135.399	-5.788	0.130	0.089
-134.385	155.638	-0.081	-0.111
-133.370	79.696	0.156	0.166
-132.356	-200.000	0.008	0.224
-131.341	-200.000	0.065	-0.301
-130.326	136.936	0.181	-0.236
-129.312	21.439	0.066	0.053
-128.297	-37.555	0.129	-0.069
-127.283	-155.264	0.100	0.006
-126.268	-114.728	-0.190	-0.036
-125.253	-200.000	-0.011	-0.120
-124.239	50.778	-0.136	-0.128
-123.224	-3.438	-0.143	-0.099
-122.210	-56.382	-0.487	0.215
-121.195	-200.000	-0.001	-0.171
-120.180	59.132	0.081	0.079
-119.166	90.455	0.130	0.144
-118.151	85.886	-0.231	0.252
-117.137	143.103	0.116	-0.154
-116.122	90.429	-0.278	-0.309
-115.107	355.455	-0.051	-0.100
-114.093	40.335	0.177	-0.158
-113.078	792.931	-0.100	-0.272
-112.064	56.125	-0.114	0.110
-111.049	-200.000	0.046	0.229
-110.034	-200.000	0.001	-0.119
-109.020	-72.971	0.161	0.059
-108.005	379.655	-0.135	-0.276
-106.991	-200.000	0.000	-0.027
-105.976	14.905	0.095	-0.074
-104.962	151.754	-0.075	0.102
-103.947	800.000	0.074	0.319
-102.932	-134.277	0.152	0.019
-101.918	121.432	0.186	0.230
-100.903	-144.689	0.140	-0.013
-99.889	-194.091	0.122	0.001
-98.874	-85.782	0.134	-0.041
-97.859	-200.000	0.035	0.470
-96.845	-200.000	0.023	0.224
-95.830	-64.210	-0.205	0.083
-94.816	-200.000	0.127	-0.566
-93.801	-31.318	0.124	-0.069
-92.786	-123.789	-0.087	0.014
-91.772	-152.122	-0.446	0.032
-90.757	-141.029	0.333	-0.034
-89.743	800.000	-0.127	-0.376
-88.728	-166.498	0.084	-0.003
-87.713	-200.000	0.023	-0.129
-86.699	-200.000	0.013	0.280
-85.684	-200.000	0.043	0.315
-84.670	-119.748	0.354	0.061
-83.655	265.177	-0.157	0.272
-82.640	718.151	-0.097	0.257
-81.626	-21.123	-0.302	0.184
-80.611	133.942	-0.102	-0.131
-79.597	-200.000	-0.077	-0.467
-78.582	-19.987	0.261	-0.160
-77.567	800.000	0.039	0.154
-76.553	-51.417	-0.197	0.091
-75.538	700.821	0.067	0.175
-74.524	-44.925	-0.210	-0.104
-73.509	8.041	-0.170	0.126
-72.494	94.499	-0.092	0.104
-71.480	-145.569	0.350	0.031
-70.465	247.573	-0.105	0.175
-69.451	141.934	-0.017	0.022
-68.436	-64.917	0.082	-0.033
-67.422	-119.323	-0.126	0.022
-66.407	-131.086	-0.143	-0.019
-65.392	800.000	0.049	0.200
-64.378	-60.024	0.108	0.046
-63.363	29.749	0.336	-0.284
-62.349	-174.806	0.342	0.010
-61.334	27.434	-0.824	-0.688
-60.319	695.333	0.210	0.548
-59.305	324.114	-0.312	-0.591
-58.290	642.629	0.338	0.856
-57.276	800.000	0.472	1.496
-56.261	-200.000	79.277	497.520
-55.246	568.502	1369.949	3303.760
-54.232	180.305	2619.883	3813.877
-53.217	117.870	2373.639	2901.335
-52.203	48.064	1978.787	1835.659
-51.188	41.909	1762.262	1586.133
-50.173	39.120	1715.913	1522.786
-49.159	54.041	1751.199	1670.837
-48.144	58.551	1768.866	1722.788
-47.130	41.966	1733.662	1560.586
-46.115	38.813	1719.692	1523.509
-45.100	38.715	1715.293	1518.793
-44.086	38.708	1712.339	1516.064
-43.071	38.651	1709.830	1513.347
-42.057	38.603	1707.765	1511.080
-41.042	38.644	1705.178	1509.052
-40.027	38.629	1703.381	1507.288
-39.013	38.633	1701.948	1505.990
-37.998	38.681	1699.535	1504.162
-36.984	38.624	1698.647	1502.879
-35.969	38.799	1696.750	1502.484
-34.954	38.839	1695.389	1501.521
-33.940	38.825	1692.910	1499.161
-32.925	38.717	1691.788	1497.286
-31.911	38.866	1689.475	1496.312
-30.896	38.739	1687.440	1493.485
-29.881	38.695	1686.336	1492.111
-28.867	38.743	1684.648	1490.928
-27.852	38.885	1682.855	1490.356
-26.838	38.707	1681.856	1488.062
-25.823	38.884	1680.024	1487.723
-24.809	38.812	1679.142	1486.340
-23.794	38.801	1677.314	1484.582
-22.779	38.818	1675.698	1483.217
-21.765	38.853	1673.782	1481.728
-20.750	38.738	1672.606	1479.760
-19.736	38.778	1670.992	1478.575
-18.721	38.839	1669.299	1477.480
-17.706	38.853	1667.946	1476.326
-16.692	38.894	1666.062	1474.908
-15.677	38.736	1665.277	1472.967
-14.663	38.788	1663.604	1471.818
-13.648	38.791	1662.434	1470.749
-12.633	38.821	1660.521	1469.226
-11.619	38.787	1658.706	1467.307
-10.604	38.755	1656.866	1465.377
-9.590	38.806	1655.550	1464.542
-8.575	38.829	1653.998	1463.281
-7.560	38.850	1652.765	1462.283
-6.546	38.817	1651.857	1461.183
-5.531	38.814	1650.807	1460.173
-4.517	38.794	1649.614	1458.911
-3.502	38.690	1648.720	1457.290
-2.487	38.765	1646.888	1456.163
-1.473	38.871	1635.759	1447.054
-0.458	36.887	1616.685	1415.637
0.556	31.806	1616.665	1384.440
1.571	29.262	1641.222	1386.238
2.586	28.407	1655.990	1392.101
3.600	24.681	1600.121	1317.608
4.615	12.871	1478.860	1136.698
5.629	2.305	1404.285	1009.797
6.644	0.301	1394.880	989.788
7.659	0.200	1392.927	987.654
8.673	0.182	1392.002	986.793
9.688	0.087	1390.150	984.768
10.702	-0.211	1387.341	980.749
11.717	3.555	1395.104	1010.854
12.731	14.713	1416.632	1100.245
13.746	22.614	1430.049	1162.901
14.761	23.496	1430.967	1169.362
15.775	23.588	1430.046	1169.116
16.790	23.544	1430.066	1168.738
17.804	23.638	1428.857	1168.261
18.819	23.768	1429.667	1169.676
19.834	23.849	1428.497	1169.152
20.848	23.903	1427.688	1168.738
21.863	23.930	1426.410	1167.770
22.877	23.892	1425.602	1166.756
23.892	23.917	1424.269	1165.725
24.907	23.919	1424.004	1165.416
25.921	23.947	1422.906	1164.600
26.936	23.834	1421.952	1162.974
27.950	23.980	1420.663	1162.771
28.965	23.909	1419.679	1161.402
29.980	23.946	1417.808	1160.008
30.994	23.904	1416.777	1158.787
32.009	23.888	1415.734	1157.730
33.023	23.865	1414.675	1156.608
34.038	23.806	1413.715	1155.338
35.053	23.898	1412.754	1155.047
36.067	23.960	1411.090	1153.990
37.082	23.958	1410.232	1153.169
38.096	23.980	1409.231	1152.397
39.111	23.769	1409.032	1150.761
40.126	23.873	1408.127	1150.594
41.140	23.826	1407.681	1149.825
42.155	23.876	1407.199	1149.652
43.169	23.890	1406.972	1149.457
44.184	23.890	1406.728	1149.157
45.199	23.902	1405.888	1148.442
46.213	23.859	1405.621	1147.847
47.228	23.864	1404.491	1146.853
48.242	23.872	1403.432	1145.942
49.257	23.899	1402.021	1144.860
50.271	23.865	1400.406	1143.220
51.286	23.860	1399.098	1142.023
52.301	23.944	1398.111	1141.654
53.315	23.847	1397.430	1140.375
54.330	23.890	1396.079	1139.446
55.344	23.942	1394.926	1138.739
56.359	23.790	1394.513	1137.325
57.374	23.839	1393.123	1136.405
58.388	23.971	1392.140	1136.347
59.403	23.965	1392.105	1136.176
60.417	23.895	1391.261	1134.942
61.432	23.846	1390.815	1134.165
62.447	23.782	1389.991	1132.984
63.461	23.841	1388.815	1132.300
64.476	23.938	1387.361	1131.634
65.490	23.862	1386.575	1130.409
66.505	23.842	1385.053	1128.939
67.520	23.845	1383.878	1127.901
68.534	23.865	1382.615	1126.904
69.549	23.915	1381.569	1126.265
70.563	23.934	1380.812	1125.670
71.578	23.882	1379.695	1124.328
72.593	23.921	1378.507	1123.508
73.607	23.897	1378.308	1123.094
74.622	23.907	1377.428	1122.342
75.636	23.901	1376.644	1121.564
76.651	23.866	1375.838	1120.588
77.666	23.891	1375.682	1120.519
78.680	23.963	1375.172	1120.457
79.695	23.949	1374.018	1119.332
80.709	23.949	1373.449	1118.768
81.724	23.854	1372.545	1117.337
82.739	23.830	1371.366	1116.126
83.753	23.899	1370.615	1115.851
84.768	23.856	1369.552	1114.616
85.782	23.810	1368.752	1113.577
86.797	23.940	1367.091	1112.941
87.812	23.956	1365.825	1111.911
88.826	24.002	1364.722	1111.202
89.841	23.926	1364.067	1110.098
90.855	23.960	1362.895	1109.261
91.870	24.072	1361.461	1108.692
92.884	23.933	1360.630	1107.048
93.899	24.002	1360.016	1106.884
94.914	23.901	1359.365	1105.629
95.928	23.980	1358.443	1105.272
96.943	23.965	1357.874	1104.614
97.957	24.025	1356.885	1104.083
98.972	23.998	1355.981	1103.083
99.987	23.945	1355.156	1101.988
101.001	23.843	1354.541	1100.762
102.016	24.055	1352.753	1100.517
103.030	23.959	1352.414	1099.554
104.045	23.974	1351.369	1098.698
105.060	23.962	1350.834	1098.094
106.074	23.976	1349.503	1096.996
107.089	24.001	1348.361	1096.127
108.103	24.046	1347.136	1095.315
109.118	23.997	1346.270	1094.208
110.133	24.022	1345.030	1093.257
111.147	24.068	1343.814	1092.453
112.162	24.045	1342.742	1091.346
113.176	24.040	1341.647	1090.332
114.191	23.996	1341.314	1089.694
115.206	24.046	1339.905	1088.756
116.220	23.998	1338.829	1087.494
117.235	24.005	1338.111	1086.855
118.249	23.996	1336.999	1085.802
119.264	23.972	1336.180	1084.897
120.279	24.052	1335.228	1084.514
121.293	23.999	1334.494	1083.497
122.308	24.091	1333.641	1083.268
123.322	24.049	1333.236	1082.593
124.337	24.047	1332.172	1081.615
125.352	24.001	1331.251	1080.494
126.366	24.065	1330.478	1080.160
127.381	24.100	1329.545	1079.522
128.395	24.067	1328.608	1078.461
129.410	24.073	1327.508	1077.511
130.424	24.053	1327.019	1076.899
131.439	24.029	1325.997	1075.826
132.454	24.149	1324.916	1075.581
133.468	23.996	1324.668	1074.358
134.483	24.064	1324.038	1074.167
135.497	24.121	1322.896	1073.487
136.512	24.090	1322.039	1072.512
137.527	24.092	1320.898	1071.504
138.541	24.066	1319.608	1070.201
139.556	24.019	1318.720	1069.107
140.570	24.122	1317.475	1068.622
141.585	24.052	1316.683	1067.464
142.600	24.097	1315.564	1066.734
143.614	24.109	1314.971	1066.232
144.629	24.120	1313.424	1064.948
145.643	24.056	1312.466	1063.695
146.658	23.918	1311.736	1062.182
147.673	23.968	1310.585	1061.458
148.687	23.963	1309.864	1060.749
149.702	23.924	1308.428	1059.259
150.716	24.013	1307.270	1058.754
151.731	24.042	1306.397	1058.126
152.746	24.071	1305.609	1057.570
153.760	24.098	1304.101	1056.412
154.775	24.024	1303.292	1055.229
155.789	24.043	1302.146	1054.316
156.804	24.087	1301.236	1053.749
157.819	24.004	1301.053	1053.013
158.833	24.114	1299.826	1052.578
159.848	24.144	1298.922	1051.933
160.862	24.220	1297.726	1051.317
161.877	24.141	1296.803	1050.011
162.892	24.085	1296.483	1049.329
163.906	24.126	1295.269	1048.496
164.921	24.149	1295.034	1048.345
165.935	24.139	1293.926	1047.299
166.950	24.205	1293.484	1047.235
167.964	24.138	1292.863	1046.251
168.979	24.138	1292.735	1046.051
169.994	24.229	1291.920	1045.835
171.008	24.254	1290.540	1044.770
172.023	24.219	1290.135	1044.146
173.037	24.237	1289.096	1043.320
174.052	24.210	1288.688	1042.738
175.067	24.113	1288.375	1041.826
176.081	24.172	1287.026	1040.988
177.096	24.210	1286.374	1040.588
178.110	24.232	1285.284	1039.740
179.125	24.221	1284.492	1038.943
180.140	24.148	1283.521	1037.645
181.154	24.205	1282.243	1036.848
182.169	24.175	1281.141	1035.692
183.183	24.098	1280.365	1034.525
184.198	24.254	1278.865	1034.130
185.213	24.182	1278.114	1033.010
186.227	24.260	1277.147	1032.590
187.242	24.270	1276.331	1031.896
188.256	24.302	1275.494	1031.313
189.271	24.324	1274.404	1030.466
190.286	24.267	1273.855	1029.607
191.300	24.139	1273.208	1028.253
192.315	24.315	1272.653	1028.730
193.329	24.283	1272.369	1028.222
194.344	24.305	1271.788	1027.786
195.359	24.248	1271.496	1027.136
196.373	24.150	1271.065	1026.131
197.388	24.162	1270.735	1025.839
198.402	24.151	1270.155	1025.222
199.417	24.194	1269.445	1024.805
200.432	24.202	1268.837	1024.265
201.446	24.302	1268.187	1024.229
202.461	24.253	1267.462	1023.267
203.475	24.232	1266.855	1022.570
204.490	24.275	1265.355	1021.513
205.504	24.342	1264.398	1021.033
206.519	24.369	1263.794	1020.611
207.534	24.343	1262.598	1019.407
208.548	24.346	1262.058	1018.899
209.563	24.393	1261.194	1018.377
210.577	24.263	1260.115	1016.676
211.592	24.239	1259.678	1016.095
212.607	24.304	1258.957	1015.792
213.621	24.461	1257.822	1015.681
214.636	24.339	1257.184	1014.384
215.650	24.393	1256.460	1014.018
216.665	24.437	1255.277	1013.221
217.680	24.460	1254.222	1012.409
218.694	24.477	1253.365	1011.723
219.709	24.385	1252.951	1010.780
220.723	24.294	1252.627	1009.916
221.738	24.427	1251.562	1009.717
222.753	24.386	1250.667	1008.674
223.767	24.461	1249.737	1008.262
224.782	24.528	1249.656	1008.484
225.796	24.497	1249.040	1007.721
226.811	24.425	1248.485	1006.781
227.826	24.546	1247.874	1006.882
228.840	24.480	1247.204	1005.877
229.855	24.414	1246.582	1004.917
230.869	24.504	1245.440	1004.412
231.884	24.498	1244.872	1003.829
232.899	24.456	1244.042	1002.836
233.913	24.561	1243.509	1002.911
234.928	24.533	1243.074	1002.310
235.942	24.508	1242.472	1001.596
236.957	24.555	1242.052	1001.436
237.972	24.650	1240.887	1000.941
238.986	24.599	1240.478	1000.235
240.001	24.535	1239.906	999.329
241.015	24.588	1239.527	999.226
242.030	24.610	1238.303	998.278
243.045	24.684	1237.496	997.950
244.059	24.672	1236.922	997.335
245.074	24.634	1236.337	996.561
246.088	24.675	1235.335	995.891
247.103	24.692	1234.493	995.220
248.117	24.680	1233.622	994.366
249.132	24.633	1232.854	993.395
250.147	24.705	1231.790	992.850
251.161	24.739	1230.926	992.257
252.176	24.753	1230.295	991.737
253.190	24.754	1229.903	991.337
254.205	24.699	1229.611	990.713
255.220	24.751	1228.409	989.942
256.234	24.808	1228.056	989.886
257.249	24.662	1227.988	988.937
258.263	24.659	1227.091	988.110
259.278	24.814	1226.042	988.032
260.293	24.837	1225.632	987.743
261.307	24.869	1225.056	987.367
262.322	24.775	1224.835	986.580
263.336	24.810	1224.103	986.097
264.351	24.763	1223.595	985.342
265.366	24.770	1222.631	984.518
266.380	24.824	1222.114	984.313
267.395	24.830	1221.157	983.487
268.409	24.764	1220.743	982.705
269.424	24.724	1220.870	982.499
270.439	24.779	1219.953	981.975
271.453	24.827	1219.204	981.550
272.468	24.878	1218.020	980.791
273.482	24.750	1217.452	979.542
274.497	24.837	1217.068	979.627
275.512	24.791	1216.510	978.839
276.526	24.797	1215.898	978.289
277.541	24.958	1214.924	978.300
278.555	24.875	1214.486	977.410
279.570	24.870	1214.079	976.969
280.585	24.989	1212.651	976.379
281.599	24.888	1212.041	975.252
282.614	24.891	1210.822	974.200
283.628	24.994	1209.712	973.783
284.643	25.002	1209.123	973.264
285.657	24.989	1208.061	972.251
286.672	24.974	1207.612	971.728
287.687	24.996	1207.007	971.273
288.701	24.970	1206.215	970.410
289.716	25.039	1205.584	970.186
290.730	25.006	1204.907	969.380
291.745	25.009	1204.135	968.688
292.760	25.075	1203.371	968.342
293.774	25.043	1203.088	967.857
294.789	25.053	1202.511	967.364
295.803	25.174	1201.388	967.026
296.818	25.109	1200.860	966.167
297.833	25.136	1200.203	965.694
298.847	25.201	1199.399	965.311
299.862	25.052	1198.904	964.027
300.876	24.981	1198.462	963.206
301.891	25.107	1197.444	962.979
302.906	25.176	1196.614	962.595
303.920	25.337	1196.127	962.982
304.935	25.176	1195.595	961.606
305.949	25.214	1194.883	961.151
306.964	25.194	1194.484	960.637
307.979	25.189	1193.486	959.726
308.993	25.218	1192.926	959.347
310.008	25.242	1192.198	958.800
311.022	25.351	1191.364	958.631
312.037	25.249	1190.708	957.474
313.052	25.185	1190.121	956.572
314.066	25.263	1189.042	956.040
315.081	25.278	1188.072	955.254
316.095	25.271	1187.638	954.783
317.110	25.256	1187.183	954.250
318.125	25.383	1185.916	953.821
319.139	25.215	1185.671	952.653
320.154	25.334	1185.089	952.728
321.168	25.215	1185.185	952.093
322.183	25.391	1183.889	951.897
323.197	25.159	1183.851	950.556
324.212	25.287	1182.641	950.174
325.227	25.364	1182.303	950.227
326.241	25.401	1181.451	949.656
327.256	25.332	1180.816	948.695
328.270	25.484	1179.560	948.404
329.285	25.363	1179.551	947.678
330.300	25.404	1178.267	946.775
331.314	25.446	1177.201	946.058
332.329	25.346	1176.889	945.193
333.343	25.422	1176.033	944.825
334.358	25.473	1175.241	944.373
335.373	25.507	1174.605	943.956
336.387	25.495	1173.904	943.246
337.402	25.472	1173.042	942.351
338.416	25.488	1172.706	942.078
339.431	25.467	1172.218	941.493
340.446	25.617	1171.127	941.322
341.460	25.533	1170.719	940.470
342.475	25.559	1170.146	940.061
343.489	25.639	1169.098	939.558
344.504	25.627	1168.266	938.739
345.519	25.638	1167.081	937.763
346.533	25.766	1166.099	937.559
347.548	25.657	1165.539	936.457
348.562	25.549	1165.084	935.447
349.577	25.513	1164.750	934.911
350.592	25.551	1163.604	934.105
351.606	25.532	1162.735	933.227
352.621	25.543	1162.306	932.854
353.635	25.606	1161.664	932.581
354.650	25.750	1160.771	932.529
355.665	25.679	1160.384	931.769
356.679	25.787	1159.733	931.720
357.694	25.748	1158.927	930.790
358.708	25.641	1158.438	929.763
359.723	25.679	1157.544	929.158
360.738	25.804	1156.872	929.185
361.752	25.729	1156.621	928.512
362.767	25.740	1155.864	927.878
363.781	25.761	1155.220	927.386
364.796	25.794	1154.963	927.268
365.810	25.852	1154.271	926.928
366.825	25.864	1153.511	926.302
367.840	25.847	1153.170	925.857
368.854	25.825	1152.557	925.168
369.869	25.847	1151.748	924.550
370.883	25.929	1150.824	924.148
371.898	25.938	1150.214	923.622
372.913	25.859	1149.689	922.715
373.927	25.927	1148.929	922.368
374.942	26.052	1148.700	922.744
375.956	25.969	1148.323	921.934
376.971	25.906	1147.811	921.119
377.986	25.968	1146.955	920.670
379.000	26.029	1146.297	920.372
380.015	25.924	1146.062	919.565
381.029	26.104	1145.073	919.606
382.044	25.941	1144.615	918.329
383.059	26.057	1143.961	918.314
384.073	26.004	1143.581	917.655
385.088	26.037	1142.284	916.705
386.102	26.011	1141.441	915.814
387.117	26.146	1140.457	915.627
388.132	25.950	1140.076	914.245
389.146	26.057	1139.286	914.075
390.161	26.050	1138.671	913.465
391.175	26.095	1137.863	912.963
392.190	26.111	1136.955	912.235
393.205	26.063	1136.480	911.528
394.219	26.096	1135.979	911.213
395.234	26.269	1134.819	911.073
396.248	26.288	1133.719	910.207
397.263	26.091	1133.219	908.732
398.278	26.066	1132.918	908.285
399.292	26.274	1132.061	908.567
400.307	26.220	1131.448	907.719
401.321	26.386	1130.327	907.576
402.336	26.227	1130.192	906.586
403.350	26.222	1129.406	905.853
404.365	26.313	1128.372	905.399
405.380	26.329	1127.518	904.711
406.394	26.198	1127.002	903.565
407.409	26.372	1126.084	903.620
408.423	26.385	1125.792	903.371
409.438	26.317	1125.044	902.348
410.453	26.374	1123.923	901.655
411.467	26.378	1123.450	901.213
412.482	26.283	1122.861	900.191
413.496	26.415	1122.337	900.345
414.511	26.325	1121.684	899.295
415.526	26.459	1121.025	899.354
416.540	26.395	1120.761	898.742
417.555	26.370	1120.315	898.183
418.569	26.410	1119.758	897.855
419.584	26.433	1119.466	897.657
420.599	26.464	1118.817	897.209
421.613	139.612	1398.756	1766.074
422.628	130.018	1439.568	1766.187
