DTS Sentinel unit serial number:	SN413079Multiplexer serial number:	ORYXHardware model number:	OX4-SRSoftware version number:	ORYX F/W v4.00 Oryx Data Collector v3.7.2.0data status	okinstallation	princeton_trtdifferential loss correction	single-endedforward channel	channel 2reverse channel	N/Adate	2019/09/16time	01:03:35forward acquisition time	60.00reverse acquisition time	0.00gamma	496.2192k internal	0.2337k external	0.2337temperature offset calibration	0.9963default loss term (dB/km)	0.3790temperature slope calibration	1.0000multiplexer offset coefficient	1.0000multiplexer slope coefficient	1.0000fibre end	0.00T internal ref (°C)	27.31T ext. ref 1 (°C)	9.74T ext. ref 2 (°C)	21.49length (m)	temperature (°C)	Stokes	anti-Stokes-747.200	-200.000	0.005	0.352
-746.185	111.373	-0.186	-0.225
-745.171	800.000	0.049	0.173
-744.156	-200.000	-0.010	0.122
-743.142	205.938	0.070	-0.109
-742.127	228.110	-0.096	0.158
-741.112	-200.000	0.006	0.268
-740.098	-128.158	0.078	0.011
-739.083	102.073	0.142	-0.166
-738.069	-150.702	-0.223	0.017
-737.054	-164.175	-0.071	-0.003
-736.039	6.425	-0.126	0.094
-735.025	97.632	-0.202	0.233
-734.010	192.675	0.062	0.094
-732.996	17.951	-0.078	-0.062
-731.981	-42.239	-0.181	0.093
-730.966	71.987	-0.193	-0.201
-729.952	9.621	-0.102	0.077
-728.937	71.040	0.087	-0.090
-727.923	791.489	-0.055	-0.152
-726.908	-200.000	0.028	-0.210
-725.894	-67.670	-0.138	0.054
-724.879	-101.303	0.225	-0.055
-723.864	43.836	0.180	-0.165
-722.850	707.740	0.058	-0.154
-721.835	-126.393	-0.091	0.014
-720.821	55.595	-0.048	0.047
-719.806	-160.729	0.041	-0.002
-718.791	88.362	-0.173	0.193
-717.777	424.257	-0.109	0.235
-716.762	181.820	0.173	-0.255
-715.748	38.798	-0.146	0.131
-714.733	800.000	0.101	0.331
-713.718	72.056	-0.155	0.162
-712.704	-47.593	0.345	-0.168
-711.689	-91.966	0.310	0.088
-710.675	39.894	0.175	-0.157
-709.660	-150.839	0.296	-0.023
-708.645	392.357	-0.048	-0.100
-707.631	800.000	0.176	-0.551
-706.616	800.000	0.054	-0.154
-705.602	312.216	-0.125	-0.236
-704.587	-200.000	0.023	-0.280
-703.572	800.000	-0.040	0.164
-702.558	-200.000	-0.059	0.286
-701.543	499.217	-0.052	-0.120
-700.529	-67.256	-0.222	-0.087
-699.514	-200.000	0.012	0.272
-698.499	-129.454	-0.218	0.030
-697.485	800.000	-0.022	0.097
-696.470	-200.000	0.053	-0.295
-695.456	800.000	0.037	-0.145
-694.441	343.226	0.158	0.311
-693.426	-143.119	-0.177	0.017
-692.412	-66.338	0.171	-0.068
-691.397	800.000	0.050	-0.141
-690.383	-97.164	-0.156	0.041
-689.368	-137.181	-0.233	0.027
-688.354	-138.791	0.382	-0.042
-687.339	155.319	0.207	-0.285
-686.324	-6.021	-0.110	-0.075
-685.310	29.885	0.174	0.149
-684.295	-200.000	-0.002	-0.114
-683.281	-200.000	-0.015	-0.245
-682.266	-200.000	0.084	-0.464
-681.251	-133.146	-0.059	0.007
-680.237	-37.344	0.126	-0.068
-679.222	41.027	0.146	-0.132
-678.208	-98.551	-0.171	-0.044
-677.193	60.465	-0.435	-0.431
-676.178	-121.501	-0.178	0.030
-675.164	101.111	0.053	0.061
-674.149	-157.677	-0.204	-0.012
-673.135	464.992	0.077	-0.172
-672.120	-34.175	0.169	-0.093
-671.105	-95.000	0.315	0.085
-670.091	115.368	0.067	0.082
-669.076	-65.968	0.095	-0.038
-668.062	345.406	0.096	0.189
-667.047	146.162	-0.214	0.288
-666.032	252.251	-0.091	-0.155
-665.018	557.166	-0.009	0.021
-664.003	800.000	-0.030	0.128
-662.989	45.399	0.130	0.120
-661.974	800.000	-0.098	0.331
-660.959	329.359	0.068	0.131
-659.945	67.798	0.158	-0.162
-658.930	-2.184	0.066	-0.046
-657.916	24.875	-0.217	-0.180
-656.901	-184.561	-0.264	-0.004
-655.886	62.836	0.213	-0.213
-654.872	326.165	0.164	-0.315
-653.857	675.238	-0.102	-0.265
-652.843	93.903	-0.237	-0.269
-651.828	-40.795	0.255	-0.132
-650.814	156.850	-0.085	-0.117
-649.799	-200.000	-0.036	-0.235
-648.784	279.791	0.077	0.137
-647.770	-19.080	0.165	0.102
-646.755	-200.000	0.003	-0.102
-645.741	-169.029	-0.354	-0.013
-644.726	800.000	-0.076	0.215
-643.711	-0.675	0.138	-0.098
-642.697	40.925	0.148	-0.134
-641.682	-178.942	-0.307	0.007
-640.668	-200.000	0.009	0.119
-639.653	565.248	0.073	0.176
-638.638	-111.395	-0.241	-0.049
-637.624	357.185	-0.143	0.284
-636.609	-68.172	-0.222	0.086
-635.595	-30.511	-0.070	-0.040
-634.580	800.000	-0.048	-0.200
-633.565	-86.420	-0.014	0.004
-632.551	134.136	-0.163	-0.211
-631.536	-145.414	0.267	-0.024
-630.522	-151.848	-0.241	0.018
-629.507	173.584	0.121	0.175
-628.492	800.000	-0.078	0.306
-627.478	-103.230	0.082	0.019
-626.463	800.000	0.094	0.277
-625.449	-113.632	-0.322	0.063
-624.434	208.642	0.177	-0.276
-623.419	-86.405	-0.201	-0.062
-622.405	-192.916	0.314	0.003
-621.390	40.430	-0.197	0.177
-620.376	-200.000	-0.012	-0.183
-619.361	14.628	-0.441	-0.344
-618.346	800.000	0.052	-0.166
-617.332	149.134	-0.066	0.089
-616.317	-38.111	0.029	0.015
-615.303	-100.176	0.361	-0.090
-614.288	-200.000	0.002	-0.340
-613.273	-100.885	-0.465	-0.114
-612.259	-99.212	-0.263	-0.066
-611.244	6.792	0.364	-0.271
-610.230	-200.000	-0.065	-0.362
-609.215	-12.636	0.235	-0.153
-608.201	-200.000	0.003	-0.179
-607.186	228.873	0.027	-0.044
-606.171	-52.652	0.074	0.034
-605.157	-200.000	-0.055	0.402
-604.142	72.922	-0.255	0.266
-603.128	800.000	0.073	-0.255
-602.113	800.000	0.062	0.265
-601.098	-161.713	-0.058	0.003
-600.084	800.000	-0.054	-0.230
-599.069	-137.939	-0.171	0.019
-598.055	42.513	0.325	-0.295
-597.040	-13.222	-0.162	0.105
-596.025	159.270	0.263	-0.366
-595.011	23.450	0.446	-0.366
-593.996	-34.240	-0.245	-0.134
-592.982	-200.000	0.010	0.058
-591.967	-200.000	-0.040	0.299
-590.952	800.000	0.059	0.163
-589.938	128.377	-0.063	0.081
-588.923	21.587	-0.172	0.140
-587.909	409.888	-0.102	0.215
-586.894	-1.365	0.139	-0.098
-585.879	-140.518	-0.097	-0.010
-584.865	-81.717	-0.279	-0.091
-583.850	-200.000	-0.014	-0.114
-582.836	-129.874	-0.245	-0.034
-581.821	-55.091	0.258	0.116
-580.806	800.000	-0.020	0.063
-579.792	-123.639	0.205	0.032
-578.777	-56.657	0.222	-0.098
-577.763	800.000	-0.069	0.258
-576.748	-126.691	-0.223	0.033
-575.733	532.137	-0.096	-0.228
-574.719	-102.679	0.188	0.045
-573.704	-129.414	-0.589	-0.082
-572.690	-88.431	-0.114	0.034
-571.675	448.094	-0.157	0.345
-570.661	-200.000	0.135	0.000
-569.646	-200.000	0.028	-0.156
-568.631	23.787	-0.114	-0.094
-567.617	-114.936	-0.159	0.030
-566.602	-72.947	-0.211	-0.077
-565.588	86.877	-0.064	-0.070
-564.573	258.400	0.292	0.501
-563.558	-200.000	-0.001	-0.084
-562.544	-137.894	0.381	-0.042
-561.529	145.997	-0.096	-0.129
-560.515	-127.995	0.248	-0.035
-559.500	-77.439	0.113	0.039
-558.485	800.000	0.070	-0.225
-557.471	-200.000	-0.030	-0.233
-556.456	-200.000	-0.040	-0.277
-555.442	394.484	-0.124	-0.258
-554.427	61.383	-0.255	0.253
-553.412	-200.000	-0.024	-0.196
-552.398	308.432	-0.094	-0.175
-551.383	-200.000	-0.096	-0.511
-550.369	-200.000	-0.068	0.448
-549.354	-101.271	0.044	-0.011
-548.339	800.000	-0.050	0.146
-547.325	-200.000	-0.028	0.232
-546.310	-146.820	-0.095	0.008
-545.296	-200.000	-0.022	0.202
-544.281	38.092	-0.060	-0.053
-543.266	29.439	-0.107	0.090
-542.252	186.521	0.120	0.178
-541.237	-18.104	0.148	-0.093
-540.223	-12.250	-0.199	-0.130
-539.208	236.730	0.080	0.132
-538.193	-32.445	0.332	0.185
-537.179	-29.375	-0.319	0.182
-536.164	-53.140	0.065	0.030
-535.150	-129.502	-0.028	0.004
-534.135	-64.754	0.100	-0.040
-533.121	73.788	-0.171	-0.179
-532.106	-20.158	-0.430	-0.264
-531.091	-144.178	0.201	0.019
-530.077	-200.000	-0.019	-0.222
-529.062	72.982	0.229	0.238
-528.048	-139.010	0.217	-0.023
-527.033	-160.009	0.289	-0.016
-526.018	-200.000	-0.045	-0.332
-525.004	-200.000	0.029	-0.203
-523.989	-143.415	0.257	-0.024
-522.975	73.397	0.283	-0.295
-521.960	-6.204	-0.197	0.134
-520.945	99.874	0.066	0.076
-519.931	120.132	-0.141	-0.174
-518.916	-77.256	-0.157	0.054
-517.902	-200.000	-0.024	-0.252
-516.887	-106.309	-0.094	-0.021
-515.872	-200.000	-0.098	-0.468
-514.858	-200.000	0.002	0.173
-513.843	-200.000	0.025	0.235
-512.829	330.433	-0.137	0.262
-511.814	-200.000	0.030	0.248
-510.799	-28.807	0.287	0.164
-509.785	-57.269	-0.165	-0.072
-508.770	-104.113	0.156	-0.036
-507.756	-118.739	-0.283	-0.050
-506.741	26.281	0.017	0.014
-505.726	47.438	0.134	0.124
-504.712	101.810	-0.314	0.364
-503.697	244.677	0.271	-0.453
-502.683	-59.400	0.238	0.102
-501.668	-15.448	0.272	0.173
-500.653	71.667	-0.115	0.118
-499.639	-139.040	0.220	0.024
-498.624	800.000	-0.088	0.336
-497.610	-75.083	0.291	0.103
-496.595	201.272	-0.213	0.326
-495.581	651.574	-0.114	-0.289
-494.566	-112.557	0.328	0.065
-493.551	-190.911	0.040	0.000
-492.537	-200.000	0.071	-0.329
-491.522	-200.000	0.002	-0.096
-490.508	41.562	-0.217	-0.196
-489.493	800.000	-0.118	-0.475
-488.478	-77.561	0.263	-0.091
-487.464	430.935	0.025	0.055
-486.449	-200.000	-0.004	0.184
-485.435	279.292	0.138	-0.246
-484.420	-84.916	-0.359	-0.112
-483.405	-200.000	0.008	0.221
-482.391	-36.226	-0.096	0.051
-481.376	-0.392	0.184	0.130
-480.362	33.287	0.318	-0.274
-479.347	313.131	-0.076	0.143
-478.332	-200.000	0.038	-0.370
-477.318	-72.045	-0.021	-0.008
-476.303	-12.139	0.116	-0.075
-475.289	-200.000	-0.001	-0.071
-474.274	-28.959	0.059	-0.034
-473.259	390.500	-0.081	-0.167
-472.245	-200.000	0.012	0.132
-471.230	519.828	-0.111	0.259
-470.216	255.773	0.199	-0.339
-469.201	-200.000	-0.022	-0.213
-468.186	-18.441	-0.272	-0.168
-467.172	-159.732	0.214	-0.012
-466.157	56.756	-0.006	0.006
-465.143	-200.000	-0.023	0.294
-464.128	-200.000	0.010	-0.280
-463.113	217.609	-0.071	0.113
-462.099	-26.110	0.397	0.232
-461.084	-66.581	-0.267	-0.105
-460.070	-162.098	-0.054	0.003
-459.055	-130.803	-0.218	0.029
-458.040	-77.455	-0.191	-0.066
-457.026	61.721	-0.155	0.153
-456.011	278.000	0.021	-0.037
-454.997	-200.000	0.010	0.145
-453.982	189.225	0.137	0.204
-452.968	-200.000	0.026	-0.136
-451.953	-27.218	-0.100	0.058
-450.938	-37.819	-0.312	0.165
-449.924	800.000	0.054	0.163
-448.909	92.514	0.321	0.359
-447.895	-114.711	0.158	0.030
-446.880	-81.079	-0.260	0.085
-445.865	-130.401	0.205	-0.028
-444.851	-200.000	-0.004	-0.151
-443.836	-70.768	-0.078	0.029
-442.822	-200.000	-0.001	0.082
-441.807	-92.913	0.233	0.065
-440.792	91.410	-0.168	0.188
-439.778	-101.802	0.067	0.016
-438.763	-78.602	0.345	0.117
-437.749	118.183	-0.030	-0.037
-436.734	-49.158	-0.149	-0.070
-435.719	46.411	-0.047	-0.044
-434.705	-200.000	0.001	0.015
-433.690	545.188	0.077	-0.181
-432.676	-126.770	0.081	0.012
-431.661	-16.916	0.079	-0.050
-430.646	199.520	-0.155	-0.235
-429.632	24.697	-0.175	-0.143
-428.617	37.667	-0.142	-0.125
-427.603	556.561	0.041	-0.098
-426.588	53.148	0.229	0.217
-425.573	-134.751	0.181	-0.022
-424.559	93.020	0.258	0.289
-423.544	800.000	0.014	-0.059
-422.530	800.000	0.062	-0.171
-421.515	35.844	-0.183	-0.160
-420.500	-160.504	0.048	-0.003
-419.486	57.993	0.067	0.065
-418.471	36.549	-0.184	0.161
-417.457	-121.040	0.458	-0.076
-416.442	546.032	-0.155	-0.366
-415.428	-200.000	-0.001	-0.019
-414.413	-200.000	0.023	0.209
-413.398	-92.343	-0.055	0.015
-412.384	2.443	0.161	-0.115
-411.369	408.907	0.122	-0.255
-410.355	179.217	-0.122	-0.176
-409.340	-200.000	0.023	0.130
-408.325	-101.373	0.152	0.037
-407.311	800.000	-0.040	0.143
-406.296	24.532	0.187	0.153
-405.282	-200.000	0.003	0.025
-404.267	-0.236	-0.038	0.027
-403.252	-6.542	-0.222	-0.150
-402.238	339.942	-0.133	-0.256
-401.223	106.650	0.103	-0.121
-400.209	-36.426	0.188	0.100
-399.194	-200.000	-0.001	-0.179
-398.179	360.851	0.110	0.218
-397.165	55.255	-0.410	0.393
-396.150	-4.019	-0.090	0.062
-395.136	-200.000	0.042	-0.280
-394.121	450.307	0.042	-0.092
-393.106	-42.707	0.187	-0.094
-392.092	800.000	-0.012	0.040
-391.077	305.318	0.057	-0.106
-390.063	16.677	0.029	0.023
-389.048	33.937	0.163	0.140
-388.033	-58.274	-0.084	-0.036
-387.019	87.067	-0.107	0.117
-386.004	-123.605	0.281	0.044
-384.990	227.621	0.070	0.113
-383.975	-89.713	-0.165	-0.048
-382.960	-157.416	-0.084	-0.005
-381.946	261.792	0.020	0.035
-380.931	14.237	-0.142	-0.110
-379.917	-200.000	0.002	0.036
-378.902	148.821	-0.127	0.170
-377.888	182.785	0.255	0.373
-376.873	-61.776	-0.515	0.214
-375.858	-142.951	-0.272	-0.026
-374.844	180.692	-0.149	-0.216
-373.829	-151.465	0.139	0.010
-372.815	219.657	-0.182	-0.288
-371.800	-72.366	0.136	0.050
-370.785	-85.936	-0.069	-0.021
-369.771	157.782	0.191	-0.261
-368.756	571.394	-0.076	0.182
-367.742	-177.923	-0.252	-0.006
-366.727	-115.581	-0.308	0.057
-365.712	180.614	0.165	-0.240
-364.698	-81.125	0.196	0.064
-363.683	-93.141	-0.436	0.120
-362.669	800.000	-0.063	-0.177
-361.654	-19.471	-0.237	0.145
-360.639	29.960	-0.248	0.209
-359.625	-30.263	0.094	-0.053
-358.610	92.910	-0.139	0.155
-357.596	288.484	-0.037	0.066
-356.581	-136.512	-0.121	-0.014
-355.566	71.378	-0.135	0.138
-354.552	33.951	-0.023	-0.020
-353.537	-40.257	0.193	-0.099
-352.523	131.547	-0.088	0.112
-351.508	471.386	0.135	0.300
-350.493	-48.606	0.392	0.186
-349.479	-23.649	0.263	0.156
-348.464	164.963	0.134	-0.187
-347.450	131.939	-0.107	-0.137
-346.435	-76.049	0.090	0.031
-345.420	-151.223	0.145	-0.011
-344.406	56.304	0.281	0.270
-343.391	-4.119	0.349	0.239
-342.377	717.267	-0.080	0.209
-341.362	-95.324	0.171	-0.045
-340.348	238.681	-0.058	-0.095
-339.333	-134.887	-0.163	0.020
-338.318	88.524	-0.057	0.063
-337.304	273.880	-0.103	-0.180
-336.289	-200.000	-0.023	0.259
-335.275	-84.098	0.101	-0.032
-334.260	-1.091	0.254	-0.177
-333.245	800.000	-0.024	0.083
-332.231	132.586	-0.127	0.162
-331.216	-144.183	-0.182	-0.017
-330.202	-95.430	-0.049	-0.013
-329.187	-47.884	0.175	-0.084
-328.172	-200.000	-0.058	-0.304
-327.158	-200.000	-0.055	-0.354
-326.143	800.000	-0.082	-0.239
-325.129	-16.580	-0.042	0.026
-324.114	121.615	0.255	-0.314
-323.099	352.718	0.109	0.214
-322.085	-22.324	0.209	0.125
-321.070	-200.000	0.005	0.110
-320.056	265.641	0.051	-0.087
-319.041	68.070	-0.110	0.111
-318.026	67.393	0.152	0.153
-317.012	27.224	-0.118	0.098
-315.997	319.740	-0.125	0.234
-314.983	800.000	0.059	0.225
-313.968	-84.961	-0.179	-0.055
-312.953	-78.185	-0.276	-0.094
-311.939	800.000	-0.108	0.314
-310.924	-151.970	0.256	-0.018
-309.910	800.000	0.068	-0.194
-308.895	4.796	-0.277	-0.201
-307.880	-58.707	0.070	0.030
-306.866	-102.668	0.153	-0.036
-305.851	-111.825	-0.303	0.060
-304.837	-200.000	-0.013	-0.321
-303.822	29.766	-0.132	-0.111
-302.807	6.780	0.020	0.015
-301.793	469.292	0.034	0.076
-300.778	-146.581	-0.211	0.018
-299.764	-130.472	-0.170	0.023
-298.749	-200.000	-0.020	0.116
-297.735	160.582	0.126	0.173
-296.720	-89.911	0.319	-0.092
-295.705	36.443	0.165	0.143
-294.691	-72.672	-0.346	-0.126
-293.676	-137.068	-0.499	0.056
-292.662	473.016	0.074	-0.165
-291.647	83.395	-0.200	-0.215
-290.632	6.669	0.223	-0.164
-289.618	329.585	-0.148	-0.281
-288.603	4.813	-0.176	-0.128
-287.589	-62.783	0.136	0.056
-286.574	-163.847	-0.091	-0.004
-285.559	204.411	0.215	-0.328
-284.545	-152.903	-0.385	-0.027
-283.530	-118.665	0.461	0.080
-282.516	66.724	0.106	-0.107
-281.501	305.902	-0.058	0.106
-280.486	-164.503	0.249	-0.011
-279.472	66.359	0.038	-0.038
-278.457	183.928	-0.119	-0.174
-277.443	-200.000	-0.029	-0.140
-276.428	-60.297	0.343	-0.144
-275.413	96.802	-0.024	0.027
-274.399	-144.698	-0.263	0.024
-273.384	-98.371	-0.517	-0.130
-272.370	-99.430	-0.310	-0.077
-271.355	446.807	0.088	0.190
-270.340	800.000	0.034	0.128
-269.326	-1.223	-0.390	-0.271
-268.311	-85.394	-0.364	-0.112
-267.297	39.754	-0.108	0.095
-266.282	-200.000	-0.037	-0.333
-265.267	335.516	-0.091	-0.174
-264.253	-200.000	0.033	0.205
-263.238	44.811	-0.054	0.049
-262.224	30.030	0.101	0.085
-261.209	800.000	-0.019	0.069
-260.195	-200.000	0.007	-0.079
-259.180	-19.540	0.394	0.240
-258.165	-121.078	-0.430	0.071
-257.151	235.944	-0.072	-0.117
-256.136	473.933	0.008	-0.018
-255.122	-113.804	-0.046	0.009
-254.107	175.597	-0.095	-0.135
-253.092	800.000	0.048	0.143
-252.078	24.984	-0.129	-0.105
-251.063	-200.000	-0.003	0.162
-250.049	-52.149	-0.432	-0.198
-249.034	-74.406	-0.131	-0.047
-248.019	800.000	0.050	0.150
-247.005	-90.795	0.248	0.070
-245.990	12.578	-0.204	0.155
-244.976	800.000	-0.082	-0.239
-243.961	-38.994	0.055	-0.028
-242.946	451.117	-0.030	-0.065
-241.932	116.796	-0.262	0.317
-240.917	48.967	0.020	0.019
-239.903	-123.383	-0.090	0.014
-238.888	21.017	0.055	0.044
-237.873	155.545	0.228	0.309
-236.859	-100.528	0.128	-0.031
-235.844	-7.928	0.293	0.195
-234.830	-200.000	-0.030	0.279
-233.815	-111.749	0.231	0.046
-232.800	-92.952	-0.240	0.066
-231.786	-200.000	0.004	-0.427
-230.771	215.027	0.119	-0.186
-229.757	-66.432	0.142	0.056
-228.742	189.601	-0.007	0.010
-227.727	-200.000	0.016	0.108
-226.713	-27.742	0.290	0.165
-225.698	-139.049	0.159	-0.017
-224.684	690.027	0.059	0.153
-223.669	182.336	0.008	0.011
-222.655	-200.000	0.011	0.156
-221.640	6.335	-0.105	-0.077
-220.625	171.162	-0.144	-0.203
-219.611	-73.008	0.443	-0.160
-218.596	304.545	-0.115	0.210
-217.582	-200.000	0.044	0.232
-216.567	-200.000	-0.030	0.133
-215.552	577.891	-0.061	-0.146
-214.538	-200.000	-0.225	0.001
-213.523	-123.229	0.087	-0.014
-212.509	-200.000	0.004	0.071
-211.494	140.237	-0.142	-0.185
-210.479	275.251	0.165	0.287
-209.465	-200.000	0.010	0.283
-208.450	25.956	0.111	0.091
-207.436	-127.319	0.187	-0.027
-206.421	-200.000	-0.033	0.156
-205.406	99.788	-0.115	-0.131
-204.392	-200.000	-0.008	-0.155
-203.377	-114.603	0.188	-0.035
-202.363	-156.993	0.167	-0.010
-201.348	-66.876	-0.131	-0.051
-200.333	-200.000	0.010	0.229
-199.319	295.000	0.056	-0.101
-198.304	5.868	-0.075	-0.054
-197.290	38.858	0.186	-0.163
-196.275	-192.505	0.326	0.003
-195.260	800.000	-0.062	0.170
-194.246	34.632	0.060	0.052
-193.231	731.645	-0.082	-0.216
-192.217	-88.242	-0.269	-0.079
-191.202	800.000	0.082	0.318
-190.187	-200.000	-0.045	-0.216
-189.173	-54.158	-0.191	-0.085
-188.158	212.218	-0.014	-0.022
-187.144	-200.000	0.000	0.101
-186.129	116.636	0.119	-0.143
-185.114	-152.604	0.260	-0.018
-184.100	-61.169	0.152	-0.063
-183.085	147.196	0.130	0.172
-182.071	-142.821	0.239	-0.023
-181.056	109.601	-0.170	0.200
-180.042	800.000	-0.110	0.305
-179.027	-200.000	0.023	0.240
-178.012	-23.189	0.173	-0.102
-176.998	800.000	0.045	-0.171
-175.983	-133.041	-0.022	0.003
-174.969	-23.843	0.147	-0.087
-173.954	30.710	0.221	0.186
-172.939	-110.528	0.418	0.085
-171.925	75.500	0.265	0.274
-170.910	-188.259	-0.188	0.002
-169.896	-200.000	0.023	-0.156
-168.881	-111.551	0.049	0.010
-167.866	-126.589	0.426	-0.062
-166.852	199.517	0.098	-0.147
-165.837	800.000	-0.030	-0.081
-164.823	-123.706	0.212	-0.033
-163.808	71.172	0.316	-0.322
-162.793	42.963	0.210	0.188
-161.779	124.893	0.129	0.159
-160.764	-200.000	-0.035	0.161
-159.750	-75.233	-0.169	-0.059
-158.735	-53.690	-0.258	0.115
-157.720	142.011	0.133	0.174
-156.706	92.995	0.061	0.068
-155.691	291.892	-0.098	0.174
-154.677	165.511	-0.097	0.135
-153.662	-28.757	-0.292	0.165
-152.647	-16.811	0.251	0.156
-151.633	307.889	0.062	0.113
-150.618	81.363	0.062	0.065
-149.604	-137.515	-0.060	0.007
-148.589	-86.483	-0.241	-0.073
-147.574	-26.554	-0.042	0.024
-146.560	-182.186	-0.219	-0.004
-145.545	-200.000	0.021	0.134
-144.531	333.891	-0.153	-0.290
-143.516	-193.937	0.306	-0.003
-142.502	224.761	-0.083	-0.132
-141.487	754.488	0.069	-0.182
-140.472	-200.000	0.014	-0.111
-139.458	136.898	0.239	-0.306
-138.443	139.850	-0.037	-0.047
-137.429	438.305	0.062	-0.133
-136.414	800.000	-0.111	0.378
-135.399	-2.769	-0.208	0.142
-134.385	-45.981	-0.230	-0.111
-133.370	-156.365	-0.027	0.002
-132.356	54.086	-0.125	0.118
-131.341	-79.618	-0.418	-0.138
-130.326	-90.835	-0.060	0.017
-129.312	-200.000	-0.009	0.093
-128.297	-200.000	0.074	-0.402
-127.283	-158.057	0.250	0.014
-126.268	-200.000	-0.022	-0.312
-125.253	30.634	-0.177	0.149
-124.239	-35.397	0.067	-0.036
-123.224	138.782	-0.234	0.302
-122.210	-46.290	0.233	-0.112
-121.195	-200.000	0.398	-0.002
-120.180	56.178	-0.134	-0.127
-119.166	800.000	0.025	0.086
-118.151	800.000	-0.091	0.347
-117.137	-200.000	0.010	0.199
-116.122	-105.101	0.295	0.066
-115.107	427.472	0.135	0.285
-114.093	-200.000	-0.040	0.171
-113.078	-68.589	-0.100	0.038
-112.064	-200.000	0.060	-0.300
-111.049	-200.000	-0.049	0.323
-110.034	-75.775	-0.193	0.067
-109.020	113.245	-0.085	-0.101
-108.005	246.755	0.221	0.364
-106.991	-200.000	-0.003	-0.052
-105.976	185.439	-0.178	0.258
-104.962	-159.211	0.363	-0.020
-103.947	137.647	0.105	0.134
-102.932	800.000	0.069	0.235
-101.918	800.000	0.013	0.052
-100.903	-200.000	0.027	0.351
-99.889	20.815	-0.270	0.214
-98.874	64.605	-0.129	0.127
-97.859	49.867	-0.094	-0.087
-96.845	-32.992	-0.329	0.179
-95.830	154.947	0.175	-0.235
-94.816	-52.006	0.226	-0.103
-93.801	9.214	-0.413	-0.306
-92.786	192.311	-0.168	0.248
-91.772	227.373	0.069	0.110
-90.757	-44.927	0.208	0.101
-89.743	345.981	0.074	0.142
-88.728	-112.517	0.219	-0.043
-87.713	99.605	0.212	0.240
-86.699	39.091	0.056	-0.049
-85.684	-59.155	0.161	0.068
-84.670	36.293	0.182	-0.157
-83.655	-45.414	-0.255	0.124
-82.640	-18.018	-0.248	-0.152
-81.626	105.321	0.226	0.261
-80.611	-104.227	-0.075	0.017
-79.597	182.075	-0.128	-0.184
-78.582	337.315	-0.141	0.267
-77.567	-38.638	-0.290	-0.150
-76.553	536.285	-0.032	-0.075
-75.538	64.762	0.301	0.297
-74.524	343.015	-0.110	-0.211
-73.509	136.340	-0.218	0.278
-72.494	-200.000	0.008	0.046
-71.480	-200.000	0.038	0.244
-70.465	176.537	-0.186	-0.264
-69.451	800.000	0.045	-0.188
-68.436	22.748	-0.300	0.240
-67.422	-110.988	0.071	-0.014
-66.407	-27.975	0.031	0.018
-65.392	-132.355	0.086	0.011
-64.378	139.560	-0.107	0.138
-63.363	296.249	-0.134	-0.240
-62.349	-68.309	0.257	0.098
-61.334	3.169	-1.052	-0.748
-60.319	105.170	0.658	0.759
-59.305	800.000	-0.311	-1.139
-58.290	198.033	0.897	1.340
-57.276	281.154	0.811	1.419
-56.261	-200.000	113.750	640.191
-55.246	477.827	1498.078	3312.465
-54.232	148.651	2669.911	3524.893
-53.217	96.113	2276.786	2542.506
-52.203	36.080	1893.285	1628.692
-51.188	30.417	1687.114	1408.476
-50.173	28.034	1645.593	1356.103
-49.159	48.834	1700.953	1559.079
-48.144	47.845	1714.980	1564.430
-47.130	30.008	1674.339	1394.510
-46.115	27.390	1659.516	1362.539
-45.100	27.200	1654.777	1357.177
-44.086	27.184	1652.207	1354.896
-43.071	27.173	1649.984	1352.941
-42.057	27.225	1647.167	1350.961
-41.042	27.135	1645.807	1349.122
-40.027	27.215	1643.589	1347.846
-39.013	27.195	1641.233	1345.711
-37.998	27.206	1639.659	1344.445
-36.984	27.230	1638.332	1343.488
-35.969	27.324	1637.112	1343.122
-34.954	27.210	1635.876	1341.220
-33.940	27.240	1633.865	1339.737
-32.925	27.291	1632.067	1338.585
-31.911	27.395	1629.977	1337.579
-30.896	27.334	1628.480	1335.852
-29.881	27.258	1627.282	1334.259
-28.867	27.335	1625.241	1333.096
-27.852	27.273	1624.050	1331.608
-26.838	27.287	1622.538	1330.421
-25.823	27.408	1620.990	1329.987
-24.809	27.350	1619.857	1328.580
-23.794	27.252	1619.252	1327.311
-22.779	27.361	1617.191	1326.365
-21.765	27.238	1615.637	1324.142
-20.750	27.226	1613.912	1322.593
-19.736	27.384	1612.435	1322.476
-18.721	27.358	1610.874	1320.955
-17.706	27.281	1609.768	1319.434
-16.692	27.353	1608.312	1318.708
-15.677	27.354	1607.439	1317.951
-14.663	27.421	1605.421	1316.726
-13.648	27.420	1604.370	1315.807
-12.633	27.469	1602.033	1314.193
-11.619	27.438	1600.847	1312.939
-10.604	27.376	1599.592	1311.412
-9.590	27.294	1598.575	1309.941
-8.575	27.357	1596.971	1309.022
-7.560	27.353	1596.059	1308.197
-6.546	27.323	1595.007	1307.066
-5.531	27.262	1594.162	1305.888
-4.517	27.343	1592.756	1305.264
-3.502	27.430	1591.304	1304.646
-2.487	27.406	1589.842	1303.218
-1.473	27.020	1578.263	1290.937
-0.458	24.149	1559.139	1255.045
0.556	18.826	1560.661	1224.984
1.571	16.717	1584.814	1228.546
2.586	16.408	1597.406	1235.936
3.600	15.641	1547.077	1191.454
4.615	13.035	1449.076	1098.557
5.629	10.317	1394.278	1039.497
6.644	9.809	1387.703	1031.258
7.659	9.758	1386.224	1029.743
8.673	9.754	1384.922	1028.655
9.688	9.659	1382.770	1026.363
10.702	9.600	1379.875	1023.749
11.717	10.825	1381.678	1032.784
12.731	14.165	1387.233	1058.123
13.746	16.841	1391.283	1078.164
14.761	17.296	1391.246	1080.932
15.775	16.420	1388.180	1072.896
16.790	15.348	1385.755	1064.134
17.804	14.526	1383.668	1057.226
18.819	14.004	1382.043	1052.587
19.834	13.838	1380.871	1050.546
20.848	13.545	1379.497	1047.554
21.863	13.279	1378.058	1044.690
22.877	13.216	1377.076	1043.456
23.892	13.188	1375.795	1042.214
24.907	13.244	1374.673	1041.624
25.921	13.181	1374.241	1040.813
26.936	13.236	1373.454	1040.470
27.950	13.285	1372.373	1039.864
28.965	13.313	1371.212	1039.070
29.980	13.405	1370.277	1038.850
30.994	13.434	1368.763	1037.786
32.009	13.538	1367.565	1037.440
33.023	13.452	1366.487	1035.996
34.038	13.398	1365.134	1034.540
35.053	13.394	1363.763	1033.382
36.067	13.310	1362.927	1032.133
37.082	13.349	1361.923	1031.527
38.096	13.383	1360.647	1030.681
39.111	13.317	1360.291	1029.905
40.126	13.287	1359.166	1028.778
41.140	13.165	1358.384	1027.333
42.155	13.163	1357.875	1026.850
43.169	13.091	1358.331	1026.652
44.184	13.150	1357.532	1026.326
45.199	13.182	1356.992	1026.022
46.213	13.207	1356.591	1025.785
47.228	13.338	1355.271	1025.511
48.242	13.234	1354.633	1024.295
49.257	13.247	1352.720	1022.838
50.271	13.286	1351.130	1021.784
51.286	13.388	1349.964	1021.443
52.301	13.367	1348.806	1020.348
53.315	13.166	1348.148	1018.521
54.330	13.090	1346.771	1016.921
55.344	13.286	1345.470	1017.054
56.359	13.241	1344.445	1015.909
57.374	13.170	1343.521	1014.688
58.388	13.189	1342.758	1014.139
59.403	13.109	1342.331	1013.236
60.417	13.057	1341.417	1012.138
61.432	13.076	1340.890	1011.766
62.447	13.104	1339.281	1010.631
63.461	13.034	1338.507	1009.534
64.476	12.923	1337.864	1008.278
65.490	12.988	1336.510	1007.568
66.505	13.014	1334.611	1006.206
67.520	13.106	1333.677	1005.973
68.534	13.124	1332.151	1004.840
69.549	13.105	1331.686	1004.286
70.563	13.091	1330.587	1003.281
71.578	13.086	1329.144	1002.079
72.593	12.915	1328.830	1000.713
73.607	12.953	1327.993	1000.222
74.622	12.925	1327.155	999.335
75.636	13.052	1325.940	999.098
76.651	13.012	1325.618	998.526
77.666	13.021	1325.256	998.218
78.680	12.930	1324.758	997.210
79.695	12.944	1323.974	996.615
80.709	13.120	1323.244	997.039
81.724	13.190	1322.314	996.669
82.739	13.178	1321.473	995.877
83.753	13.224	1320.975	995.690
84.768	13.363	1319.263	995.150
85.782	13.286	1318.540	994.051
86.797	13.278	1317.134	992.856
87.812	13.228	1315.966	991.588
88.826	13.289	1314.899	991.063
89.841	13.254	1313.889	990.003
90.855	13.303	1312.992	989.535
91.870	13.355	1311.917	988.948
92.884	13.216	1311.710	987.871
93.899	13.430	1310.246	987.959
94.914	13.344	1309.807	987.026
95.928	13.404	1308.700	986.464
96.943	13.442	1307.469	985.675
97.957	13.375	1306.345	984.340
98.972	13.474	1305.255	984.022
99.987	13.364	1304.599	982.787
101.001	13.402	1303.418	982.039
102.016	13.367	1302.560	981.097
103.030	13.317	1301.841	980.171
104.045	13.369	1300.938	979.713
105.060	13.192	1300.035	977.898
106.074	13.261	1297.829	976.562
107.089	13.159	1296.438	974.825
108.103	13.057	1295.843	973.690
109.118	13.135	1293.776	972.506
110.133	13.168	1292.808	971.893
111.147	13.103	1291.432	970.388
112.162	13.136	1290.351	969.683
113.176	13.196	1289.167	969.057
114.191	13.180	1288.698	968.527
115.206	13.259	1286.829	967.499
116.220	13.248	1285.751	966.542
117.235	13.182	1284.683	965.265
118.249	13.185	1283.696	964.455
119.264	13.107	1282.477	963.001
120.279	13.135	1281.609	962.425
121.293	13.129	1280.800	961.696
122.308	13.102	1279.337	960.357
123.322	13.142	1278.312	959.733
124.337	13.113	1277.512	958.883
125.352	12.970	1276.365	957.108
126.366	13.077	1275.109	956.699
127.381	13.046	1273.971	955.582
128.395	13.183	1272.559	955.232
129.410	13.144	1272.122	954.594
130.424	13.080	1271.007	953.302
131.439	13.148	1270.255	953.047
132.454	13.207	1269.231	952.535
133.468	13.143	1268.488	951.524
134.483	13.256	1267.510	951.358
135.497	13.327	1266.514	950.930
136.512	13.349	1264.734	949.636
137.527	13.194	1263.753	947.930
138.541	13.217	1261.901	946.587
139.556	13.297	1260.681	946.045
140.570	13.288	1260.328	945.646
141.585	13.384	1259.132	945.215
142.600	13.434	1257.905	944.495
143.614	13.451	1257.196	943.975
144.629	13.452	1255.947	942.957
145.643	13.422	1254.747	941.806
146.658	13.359	1253.385	940.341
147.673	13.292	1252.183	938.974
148.687	13.305	1250.854	937.969
149.702	13.197	1249.805	936.487
150.716	13.223	1248.288	935.415
151.731	13.281	1246.968	934.671
152.746	13.399	1245.980	934.515
153.760	13.419	1244.620	933.522
154.775	13.411	1243.809	932.790
155.789	13.371	1242.289	931.341
156.804	13.491	1241.462	931.313
157.819	13.547	1240.673	930.953
158.833	13.645	1239.331	930.413
159.848	13.560	1239.003	929.611
160.862	13.657	1237.242	928.748
161.877	13.496	1236.284	927.049
162.892	13.415	1235.585	925.989
163.906	13.489	1234.462	925.475
164.921	13.398	1233.425	924.107
165.935	13.497	1232.091	923.583
166.950	13.430	1231.878	922.965
167.964	13.456	1231.123	922.464
168.979	13.507	1230.547	922.233
169.994	13.510	1230.137	921.863
171.008	13.493	1229.084	920.894
172.023	13.543	1228.077	920.341
173.037	13.646	1227.513	920.407
174.052	13.577	1226.750	919.371
175.067	13.539	1225.479	918.124
176.081	13.526	1224.442	917.197
177.096	13.546	1223.404	916.447
178.110	13.594	1222.130	915.677
179.125	13.566	1221.307	914.822
180.140	13.509	1220.230	913.622
181.154	13.576	1219.031	913.012
182.169	13.496	1218.047	911.754
183.183	13.738	1216.398	911.769
184.198	13.779	1215.249	911.052
185.213	13.829	1213.908	910.241
186.227	13.728	1213.680	909.435
187.242	13.762	1212.565	908.707
188.256	13.850	1211.500	908.308
189.271	13.777	1210.233	906.880
190.286	13.664	1209.717	905.795
191.300	13.508	1208.776	904.160
192.315	13.525	1208.198	903.742
193.329	13.577	1207.107	903.129
194.344	13.724	1206.673	903.525
195.359	13.711	1206.245	903.054
196.373	13.794	1205.059	902.536
197.388	13.843	1205.135	902.782
198.402	13.852	1204.361	902.170
199.417	13.915	1204.231	902.336
200.432	13.976	1203.039	901.693
201.446	13.999	1202.454	901.299
202.461	14.092	1201.689	901.147
203.475	13.999	1200.155	899.415
204.490	14.055	1198.723	898.568
205.504	13.996	1197.442	897.207
206.519	13.983	1196.391	896.273
207.534	13.941	1195.373	895.205
208.548	13.990	1194.513	894.741
209.563	13.978	1194.032	894.242
210.577	13.902	1193.079	893.039
211.592	13.912	1192.357	892.471
212.607	14.175	1191.108	892.873
213.621	14.135	1190.008	891.753
214.636	14.143	1189.342	891.218
215.650	14.168	1188.547	890.674
216.665	14.174	1187.470	889.823
217.680	14.159	1187.173	889.442
218.694	14.267	1185.572	888.738
219.709	14.325	1185.143	888.649
220.723	14.287	1184.375	887.792
221.738	14.250	1183.909	887.169
222.753	14.275	1182.775	886.369
223.767	14.264	1182.553	886.068
224.782	14.297	1181.941	885.706
225.796	14.296	1181.546	885.329
226.811	14.416	1180.035	884.754
227.826	14.385	1179.376	884.016
228.840	14.405	1178.684	883.528
229.855	14.295	1178.357	882.618
230.869	14.375	1176.897	881.874
231.884	14.342	1176.011	880.953
232.899	14.289	1175.692	880.356
233.913	14.251	1175.034	879.584
234.928	14.243	1174.151	878.808
235.942	14.203	1173.052	877.696
236.957	14.301	1172.647	877.829
237.972	14.314	1172.175	877.468
238.986	14.283	1171.326	876.591
240.001	14.274	1170.376	875.753
241.015	14.270	1169.965	875.350
242.030	14.375	1169.210	875.256
243.045	14.393	1168.108	874.449
244.059	14.440	1167.411	874.098
245.074	14.480	1166.517	873.561
246.088	14.491	1165.355	872.668
247.103	14.533	1165.069	872.598
248.117	14.622	1164.248	872.374
249.132	14.675	1163.918	872.324
250.147	14.723	1162.519	871.448
251.161	14.669	1162.432	871.024
252.176	14.819	1161.363	870.932
253.190	14.805	1161.396	870.803
254.205	14.861	1160.256	870.164
255.220	14.913	1159.241	869.597
256.234	14.996	1158.723	869.562
257.249	14.973	1158.221	868.989
258.263	14.960	1157.684	868.439
259.278	14.893	1157.343	867.762
260.293	14.844	1156.824	867.039
261.307	14.938	1155.761	866.653
262.322	14.965	1155.517	866.535
263.336	14.980	1154.582	865.834
264.351	15.056	1153.666	865.464
265.366	14.990	1153.362	864.816
266.380	15.004	1152.555	864.210
267.395	15.103	1151.700	864.002
268.409	14.992	1150.761	862.650
269.424	15.016	1150.411	862.432
270.439	14.989	1150.018	861.925
271.453	14.928	1149.090	860.837
272.468	15.038	1147.625	860.231
273.482	15.069	1147.033	859.871
274.497	15.033	1146.581	859.270
275.512	15.046	1145.689	858.590
276.526	15.024	1144.906	857.818
277.541	15.047	1144.426	857.501
278.555	15.022	1144.000	856.973
279.570	15.125	1143.508	857.058
280.585	15.175	1142.327	856.355
281.599	15.218	1141.072	855.554
282.614	15.167	1140.527	854.809
283.628	15.198	1139.145	853.858
284.643	15.212	1138.416	853.308
285.657	15.201	1137.179	852.249
286.672	15.261	1136.590	852.039
287.687	15.253	1135.691	851.248
288.701	15.300	1134.803	850.744
289.716	15.312	1134.265	850.327
290.730	15.292	1133.775	849.780
291.745	15.221	1133.231	848.940
292.760	15.326	1132.184	848.610
293.774	15.416	1131.334	848.354
294.789	15.396	1131.301	848.154
295.803	15.371	1130.182	847.113
296.818	15.350	1129.468	846.397
297.833	15.457	1128.573	846.189
298.847	15.399	1128.297	845.615
299.862	15.410	1127.161	844.747
300.876	15.435	1126.790	844.518
301.891	15.520	1126.157	844.396
302.906	15.575	1125.188	843.873
303.920	15.540	1124.762	843.302
304.935	15.624	1123.852	842.968
305.949	15.699	1123.212	842.786
306.964	15.610	1122.906	842.041
307.979	15.633	1122.395	841.693
308.993	15.639	1120.774	840.434
310.008	15.658	1120.363	840.150
311.022	15.636	1119.685	839.458
312.037	15.707	1118.436	838.799
313.052	15.481	1118.119	837.359
314.066	15.730	1116.682	837.451
315.081	15.512	1115.894	835.700
316.095	15.585	1115.145	835.429
317.110	15.595	1114.375	834.828
318.125	15.504	1114.105	834.098
319.139	15.578	1113.045	833.600
320.154	15.691	1112.201	833.455
321.168	15.578	1111.883	832.579
322.183	15.678	1110.909	832.273
323.197	15.751	1110.236	832.058
324.212	15.636	1109.995	831.232
325.227	15.710	1109.575	831.210
326.241	15.638	1108.765	830.173
327.256	15.750	1108.064	830.128
328.270	15.717	1107.161	829.216
329.285	15.659	1106.198	828.135
330.300	15.748	1105.133	827.704
331.314	15.769	1104.254	827.076
332.329	15.790	1103.478	826.526
333.343	15.755	1102.733	825.723
334.358	15.804	1101.624	825.060
335.373	15.832	1101.212	824.814
336.387	15.847	1100.437	824.234
337.402	15.778	1099.397	823.045
338.416	15.892	1099.203	823.383
339.431	16.013	1097.919	822.938
340.446	16.048	1097.207	822.504
341.460	16.073	1096.792	822.243
342.475	16.093	1095.965	821.648
343.489	16.216	1095.415	821.760
344.504	16.190	1094.437	820.828
345.519	16.066	1093.515	819.464
346.533	16.177	1092.650	819.278
347.548	16.191	1091.922	818.731
348.562	16.279	1090.857	818.286
349.577	16.268	1089.874	817.423
350.592	16.262	1089.285	816.878
351.606	16.202	1088.332	815.802
352.621	16.007	1088.235	814.716
353.635	16.081	1087.384	814.360
354.650	16.135	1086.573	813.946
355.665	16.150	1086.103	813.591
356.679	16.083	1085.376	812.650
357.694	16.153	1084.818	812.501
358.708	16.146	1084.672	812.286
359.723	16.285	1083.391	811.920
360.738	16.239	1082.798	811.186
361.752	16.264	1082.414	810.946
362.767	16.430	1081.575	811.042
363.781	16.266	1081.290	809.970
364.796	16.358	1080.425	809.689
365.810	16.507	1079.859	809.910
366.825	16.405	1079.639	809.182
367.840	16.442	1079.224	808.977
368.854	16.630	1078.075	808.943
369.869	16.432	1077.713	807.654
370.883	16.357	1076.799	806.538
371.898	16.378	1076.179	806.104
372.913	16.522	1075.420	806.154
373.927	16.633	1074.640	806.024
374.942	16.554	1074.217	805.258
375.956	16.536	1074.168	805.064
376.971	16.518	1073.515	804.420
377.986	16.619	1072.620	804.160
379.000	16.622	1071.936	803.588
380.015	16.818	1071.171	803.875
381.029	16.796	1070.512	803.202
382.044	16.787	1070.059	802.751
383.059	16.763	1069.580	802.208
384.073	16.739	1068.137	800.939
385.088	16.775	1067.625	800.656
386.102	16.857	1066.546	800.160
387.117	16.717	1065.692	798.790
388.132	16.766	1064.724	798.226
389.146	16.657	1064.266	797.299
390.161	16.722	1063.500	796.956
391.175	16.667	1063.063	796.300
392.190	16.784	1061.880	795.896
393.205	16.873	1061.372	795.861
394.219	16.846	1060.479	794.994
395.234	16.940	1059.664	794.756
396.248	16.811	1058.616	793.296
397.263	16.715	1057.823	792.181
398.278	16.815	1057.198	792.108
399.292	16.764	1056.582	791.338
400.307	16.834	1055.282	790.624
401.321	16.692	1055.148	789.791
402.336	16.726	1054.370	789.294
403.350	16.829	1053.464	789.029
404.365	16.937	1052.753	788.930
405.380	16.823	1052.427	788.084
406.394	16.926	1051.499	787.798
407.409	17.023	1050.810	787.661
408.423	16.932	1050.310	786.796
409.438	17.049	1049.474	786.644
410.453	17.168	1048.604	786.473
411.467	17.229	1048.051	786.268
412.482	17.273	1047.597	786.061
413.496	17.261	1046.826	785.360
414.511	17.211	1046.196	784.587
415.526	17.340	1045.821	784.830
416.540	17.195	1045.672	783.981
417.555	17.301	1044.823	783.764
418.569	17.361	1044.094	783.422
419.584	17.251	1043.713	782.561
420.599	17.159	1043.640	782.016
421.613	104.858	1326.207	1477.267
422.628	96.309	1367.323	1477.370
