DTS Sentinel unit serial number:	SN413079Multiplexer serial number:	ORYXHardware model number:	OX4-SRSoftware version number:	ORYX F/W v4.00 Oryx Data Collector v3.7.2.0data status	okinstallation	princeton_trtdifferential loss correction	single-endedforward channel	channel 2reverse channel	N/Adate	2019/09/19time	06:59:35forward acquisition time	60.00reverse acquisition time	0.00gamma	496.2192k internal	0.2350k external	0.2350temperature offset calibration	1.0012default loss term (dB/km)	0.3790temperature slope calibration	1.0000multiplexer offset coefficient	1.0000multiplexer slope coefficient	1.0000fibre end	0.00T internal ref (°C)	19.00T ext. ref 1 (°C)	0.56T ext. ref 2 (°C)	12.84length (m)	temperature (°C)	Stokes	anti-Stokes-747.200	-130.588	-0.313	-0.042
-746.185	738.667	-0.209	0.559
-745.171	-10.373	-0.115	0.076
-744.156	-200.000	0.029	0.474
-743.142	94.312	0.183	0.207
-742.127	800.000	-0.072	0.228
-741.112	-123.872	0.275	0.043
-740.098	62.810	-0.170	0.170
-739.083	208.367	-0.117	-0.182
-738.069	90.171	0.118	0.132
-737.054	800.000	-0.044	-0.192
-736.039	151.960	-0.155	-0.211
-735.025	800.000	0.022	-0.089
-734.010	-124.521	-0.094	0.015
-732.996	-113.343	-0.064	0.013
-731.981	46.492	-0.111	-0.103
-730.966	800.000	0.062	0.260
-729.952	-109.068	-0.096	-0.020
-728.937	214.937	-0.168	-0.266
-727.923	22.003	-0.266	0.216
-726.908	800.000	-0.003	-0.009
-725.894	-48.260	-0.160	-0.077
-724.879	71.198	-0.258	-0.267
-723.864	543.330	-0.126	-0.301
-722.850	-133.630	-0.360	-0.045
-721.835	-68.542	0.254	0.098
-720.821	95.166	-0.330	-0.375
-719.806	-48.545	-0.424	-0.203
-718.791	102.378	0.162	-0.189
-717.777	-92.623	0.085	0.024
-716.762	800.000	-0.032	-0.136
-715.748	800.000	-0.085	-0.279
-714.733	184.602	-0.079	-0.117
-713.718	-108.559	0.077	0.017
-712.704	-46.766	-0.212	0.104
-711.689	-138.521	0.038	0.004
-710.675	-200.000	-0.005	-0.021
-709.660	800.000	0.067	-0.237
-708.645	365.956	0.042	-0.084
-707.631	800.000	0.029	-0.123
-706.616	-12.255	-0.325	0.212
-705.602	117.215	0.114	0.139
-704.587	-86.889	-0.376	0.114
-703.572	18.540	0.129	-0.103
-702.558	-60.119	0.109	-0.046
-701.543	162.425	-0.106	0.148
-700.529	-200.000	0.003	0.021
-699.514	34.669	0.240	0.209
-698.499	74.643	-0.197	0.207
-697.485	-33.421	-0.079	0.044
-696.470	184.858	0.166	0.245
-695.456	-200.000	0.008	-0.374
-694.441	-46.864	-0.222	0.108
-693.426	27.387	0.084	0.070
-692.412	22.401	0.116	-0.095
-691.397	67.254	0.169	0.172
-690.383	192.273	-0.290	-0.437
-689.368	165.997	-0.166	0.235
-688.354	29.513	-0.218	-0.185
-687.339	800.000	-0.067	0.265
-686.324	439.517	-0.113	-0.247
-685.310	-200.000	-0.021	-0.403
-684.295	-102.796	-0.190	-0.045
-683.281	-200.000	-0.009	-0.125
-682.266	-128.843	-0.409	0.057
-681.251	-86.446	-0.189	0.058
-680.237	-104.864	0.322	-0.074
-679.222	282.705	0.142	-0.254
-678.208	-130.376	-0.275	-0.037
-677.193	-123.345	0.271	-0.043
-676.178	154.228	-0.087	-0.119
-675.164	-200.000	0.014	0.117
-674.149	203.619	0.130	-0.200
-673.135	131.570	0.168	-0.214
-672.120	-200.000	-0.009	-0.124
-671.105	27.699	0.122	0.102
-670.091	-200.000	-0.007	-0.363
-669.076	594.294	-0.104	0.255
-668.062	74.370	-0.159	-0.166
-667.047	-35.044	0.079	-0.043
-666.032	77.181	-0.236	-0.250
-665.018	-12.549	-0.189	0.123
-664.003	179.428	0.130	-0.189
-662.989	-74.852	-0.159	-0.057
-661.974	-200.000	0.037	-0.323
-660.959	-159.494	0.179	0.010
-659.945	-200.000	-0.039	0.482
-658.930	-200.000	-0.075	0.443
-657.916	84.318	0.250	-0.273
-656.901	-123.124	-0.309	-0.049
-655.886	-82.332	-0.049	-0.016
-654.872	15.994	0.385	0.302
-653.857	309.880	0.043	0.080
-652.843	-14.421	0.173	0.111
-651.828	-200.000	0.006	-0.360
-650.814	-200.000	0.010	-0.093
-649.799	-200.000	-0.003	-0.041
-648.784	-200.000	-0.077	0.383
-647.770	74.696	-0.046	-0.048
-646.755	119.357	0.136	-0.167
-645.741	578.070	-0.163	-0.397
-644.726	800.000	-0.104	0.303
-643.711	570.894	0.180	0.435
-642.697	-45.586	-0.188	-0.092
-641.682	-200.000	0.012	0.221
-640.668	277.116	-0.054	-0.095
-639.653	-200.000	0.025	0.271
-638.638	-200.000	-0.001	0.072
-637.624	62.299	-0.052	-0.052
-636.609	-200.000	0.017	0.164
-635.595	-200.000	0.007	-0.110
-634.580	-78.420	-0.144	0.049
-633.565	800.000	0.101	0.395
-632.551	-2.411	0.080	0.056
-631.536	-98.764	-0.179	0.045
-630.522	-133.613	-0.209	-0.026
-629.507	-200.000	-0.021	-0.186
-628.492	737.778	0.060	-0.160
-627.478	-169.944	-0.136	0.005
-626.463	-166.713	0.252	0.010
-625.449	-200.000	0.011	0.082
-624.434	800.000	-0.003	-0.011
-623.419	-31.590	-0.200	-0.112
-622.405	800.000	0.068	0.233
-621.390	424.358	-0.066	0.141
-620.376	-78.649	-0.132	-0.045
-619.361	-200.000	0.009	0.177
-618.346	-141.905	0.377	0.037
-617.332	15.619	0.157	-0.123
-616.317	68.413	0.297	0.302
-615.303	-36.338	0.274	-0.147
-614.288	-108.180	0.023	-0.005
-613.273	-172.978	-0.080	0.002
-612.259	155.195	-0.088	-0.120
-611.244	315.183	0.021	0.040
-610.230	16.524	-0.169	0.133
-609.215	101.172	0.169	-0.195
-608.201	800.000	0.058	0.167
-607.186	-200.000	-0.059	-0.310
-606.171	-200.000	-0.058	-0.539
-605.157	185.570	-0.147	-0.217
-604.142	23.868	-0.149	0.122
-603.128	61.035	-0.213	-0.210
-602.113	298.374	0.052	-0.095
-601.098	800.000	-0.132	0.504
-600.084	63.302	0.242	0.241
-599.069	-200.000	-0.006	-0.214
-598.055	357.609	0.177	-0.351
-597.040	-200.000	-0.010	-0.122
-596.025	-173.181	-0.434	0.013
-595.011	10.945	0.153	0.116
-593.996	-140.743	-0.339	-0.035
-592.982	153.335	0.121	-0.165
-591.967	-72.210	0.193	-0.071
-590.952	-26.692	-0.370	0.215
-589.938	7.883	0.191	-0.142
-588.923	628.663	-0.066	0.166
-587.909	-200.000	-0.004	0.247
-586.894	-59.633	-0.113	-0.048
-585.879	81.182	0.166	0.178
-584.865	605.489	-0.031	0.076
-583.850	348.923	0.092	0.180
-582.836	800.000	0.081	0.277
-581.821	127.285	0.072	-0.090
-580.806	-61.901	-0.434	0.180
-579.792	6.709	-0.185	0.137
-578.777	-197.138	0.432	0.003
-577.763	621.847	0.077	-0.193
-576.748	-200.000	0.318	-0.001
-575.733	-31.553	-0.127	-0.071
-574.719	800.000	0.073	0.306
-573.704	7.876	0.171	0.127
-572.690	61.499	0.179	-0.177
-571.675	17.752	-0.149	-0.117
-570.661	-200.000	-0.004	-0.292
-569.646	325.677	-0.023	0.044
-568.631	800.000	-0.114	-0.376
-567.617	41.567	-0.065	-0.058
-566.602	-200.000	0.028	-0.288
-565.588	800.000	0.054	-0.157
-564.573	178.245	0.152	0.220
-563.558	456.353	-0.065	-0.143
-562.544	35.956	0.091	-0.079
-561.529	268.429	0.154	-0.267
-560.515	-24.108	0.165	0.098
-559.500	-200.000	0.009	0.075
-558.485	-163.952	-0.027	0.001
-557.471	-127.722	-0.407	0.058
-556.456	-8.117	0.164	-0.110
-555.442	-8.587	0.179	-0.119
-554.427	-200.000	0.017	-0.269
-553.412	679.234	-0.063	0.161
-552.398	251.264	-0.122	0.206
-551.383	120.850	-0.135	-0.166
-550.369	-119.384	0.182	0.031
-549.354	53.246	-0.095	-0.090
-548.339	148.315	0.188	-0.251
-547.325	800.000	-0.032	-0.093
-546.310	-31.796	-0.092	0.051
-545.296	-200.000	0.008	-0.129
-544.281	719.478	0.112	-0.296
-543.266	800.000	-0.038	-0.116
-542.252	-200.000	0.019	0.230
-541.237	-89.336	-0.104	0.030
-540.223	-1.206	-0.148	0.103
-539.208	81.344	-0.332	0.355
-538.193	264.618	-0.065	0.111
-537.179	-158.463	0.207	-0.012
-536.164	-15.747	0.162	0.102
-535.150	29.049	-0.268	-0.225
-534.135	-173.142	-0.085	0.003
-533.121	237.041	0.094	0.154
-532.106	212.925	-0.036	0.056
-531.091	-90.627	0.181	-0.052
-530.077	-71.117	-0.308	-0.115
-529.062	-136.386	-0.058	0.007
-528.048	-60.775	-0.229	0.096
-527.033	-67.642	-0.119	0.046
-526.018	-7.256	0.166	0.111
-525.004	154.847	0.113	-0.153
-523.989	-59.793	-0.403	-0.171
-522.975	-112.975	0.158	0.031
-521.960	-181.133	0.132	0.003
-520.945	-44.990	0.231	-0.114
-519.931	-78.438	0.074	-0.025
-518.916	513.428	-0.062	-0.144
-517.902	-114.551	-0.159	0.030
-516.887	69.289	0.045	0.046
-515.872	52.333	0.107	-0.101
-514.858	117.973	-0.182	0.222
-513.843	-69.495	0.218	-0.083
-512.829	-0.035	-0.126	0.089
-511.814	-200.000	0.018	-0.190
-510.799	800.000	-0.027	0.080
-509.785	-79.538	-0.148	-0.049
-508.770	618.896	0.129	0.321
-507.756	-109.218	-0.219	0.046
-506.741	-3.803	-0.096	-0.066
-505.726	-200.000	0.004	0.132
-504.712	493.875	0.075	0.170
-503.697	800.000	-0.096	-0.264
-502.683	800.000	0.081	-0.256
-501.668	-73.792	0.319	-0.115
-500.653	-121.416	-0.202	0.033
-499.639	-87.732	0.398	0.119
-498.624	800.000	-0.044	0.137
-497.610	420.738	-0.060	0.127
-496.595	5.579	0.084	0.062
-495.581	-174.759	0.236	-0.007
-494.566	-200.000	-0.061	0.291
-493.551	24.164	-0.296	0.242
-492.537	-135.849	0.066	0.008
-491.522	800.000	-0.061	0.226
-490.508	136.346	-0.096	0.123
-489.493	-57.356	0.197	-0.086
-488.478	175.031	0.073	-0.105
-487.464	-200.000	0.012	0.190
-486.449	-37.115	0.144	0.076
-485.435	-200.000	0.018	0.126
-484.420	-110.915	-0.183	-0.037
-483.405	-97.579	0.086	0.022
-482.391	-105.532	-0.183	0.041
-481.376	-200.000	0.024	-0.267
-480.362	-39.590	0.156	0.081
-479.347	-29.465	-0.280	-0.158
-478.332	-112.402	-0.130	-0.026
-477.318	800.000	0.116	0.349
-476.303	-200.000	-0.029	0.338
-475.289	243.873	-0.240	0.397
-474.274	66.096	-0.257	0.257
-473.259	53.282	0.240	-0.227
-472.245	-38.728	0.106	0.055
-471.230	-131.083	0.288	0.038
-470.216	104.145	0.114	-0.133
-469.201	43.758	-0.204	0.184
-468.186	225.756	0.279	0.447
-467.172	23.016	-0.032	-0.026
-466.157	800.000	-0.075	0.205
-465.143	-55.176	-0.063	-0.028
-464.128	-54.340	-0.220	0.099
-463.113	-122.486	-0.160	0.026
-462.099	147.277	-0.142	-0.189
-461.084	685.612	0.036	-0.092
-460.070	-37.682	-0.019	0.010
-459.055	-36.673	-0.193	-0.103
-458.040	176.488	-0.131	-0.189
-457.026	412.253	0.067	-0.140
-456.011	54.022	-0.013	0.012
-454.997	-49.662	0.161	-0.076
-453.982	-200.000	0.016	-0.179
-452.968	28.211	0.241	0.201
-451.953	8.166	-0.061	0.045
-450.938	-200.000	-0.019	-0.340
-449.924	342.851	0.068	-0.132
-448.909	-33.858	-0.163	0.088
-447.895	-200.000	0.005	-0.265
-446.880	800.000	0.060	0.212
-445.865	-200.000	-0.010	0.315
-444.851	41.849	-0.229	0.205
-443.836	252.682	-0.106	0.179
-442.822	78.785	0.119	-0.126
-441.807	-125.122	-0.178	0.027
-440.792	-23.969	0.054	0.032
-439.778	-96.111	-0.359	-0.094
-438.763	-200.000	-0.033	0.364
-437.749	84.050	-0.095	-0.102
-436.734	-159.690	-0.303	-0.017
-435.719	-41.729	-0.099	-0.050
-434.705	-48.773	-0.316	-0.149
-433.690	517.691	0.179	-0.413
-432.676	-172.780	0.267	0.008
-431.661	-88.152	0.395	-0.117
-430.646	29.576	0.248	0.208
-429.632	-12.064	-0.081	-0.052
-428.617	-200.000	0.032	0.244
-427.603	-56.410	0.315	0.138
-426.588	-98.559	0.218	-0.055
-425.573	255.622	-0.124	-0.210
-424.559	-114.187	-0.373	0.071
-423.544	800.000	-0.126	-0.389
-422.530	800.000	-0.063	-0.223
-421.515	-22.173	0.250	-0.149
-420.500	-128.557	-0.447	-0.062
-419.486	-83.725	0.421	-0.132
-418.471	-44.200	0.361	-0.179
-417.457	-200.000	0.023	-0.245
-416.442	56.384	0.178	-0.171
-415.428	-38.056	-0.142	0.074
-414.413	-72.953	-0.246	0.089
-413.398	-59.335	0.191	0.081
-412.384	508.583	-0.188	-0.430
-411.369	800.000	0.052	0.163
-410.355	-50.446	-0.288	-0.134
-409.340	-68.072	-0.505	0.194
-408.325	-200.000	0.044	0.297
-407.311	341.598	-0.138	0.267
-406.296	-9.235	-0.060	0.040
-405.282	-108.543	-0.114	-0.024
-404.267	107.630	-0.125	-0.146
-403.252	-59.973	-0.168	-0.071
-402.238	533.359	-0.136	-0.318
-401.223	282.074	0.091	-0.161
-400.209	68.855	0.111	-0.112
-399.194	172.840	0.273	0.388
-398.179	-154.730	-0.087	-0.006
-397.165	-112.365	-0.190	-0.038
-396.150	340.038	-0.058	0.111
-395.136	800.000	0.034	0.134
-394.121	-200.000	-0.007	0.178
-393.106	4.803	0.354	-0.256
-392.092	800.000	0.093	0.278
-391.077	220.376	0.132	-0.209
-390.063	-124.515	-0.234	-0.036
-389.048	-106.658	-0.192	0.042
-388.033	233.885	0.129	0.208
-387.019	376.682	-0.130	0.261
-386.004	-131.552	-0.165	-0.021
-384.990	72.052	0.147	0.151
-383.975	-72.418	-0.026	-0.010
-382.960	9.299	0.318	0.237
-381.946	82.120	-0.138	-0.147
-380.931	363.984	-0.152	-0.300
-379.917	27.068	0.161	0.133
-378.902	148.622	-0.227	0.302
-377.888	-22.751	0.101	0.060
-376.873	-29.830	0.156	0.088
-375.858	47.098	0.353	0.323
-374.844	314.652	-0.053	0.098
-373.829	168.792	-0.066	-0.093
-372.815	731.622	0.048	0.125
-371.800	-126.989	-0.101	-0.015
-370.785	-200.000	0.005	-0.226
-369.771	447.599	0.082	-0.178
-368.756	-110.713	0.126	0.026
-367.742	103.025	-0.281	-0.324
-366.727	-200.000	-0.012	0.076
-365.712	800.000	-0.072	-0.216
-364.698	-200.000	-0.008	0.137
-363.683	-42.206	0.517	0.260
-362.669	800.000	0.059	-0.246
-361.654	-200.000	0.047	-0.221
-360.639	263.977	-0.055	-0.095
-359.625	45.395	0.147	0.133
-358.610	-67.002	-0.246	0.095
-357.596	246.248	-0.116	-0.192
-356.581	-30.947	0.167	0.093
-355.566	-200.000	0.021	0.310
-354.552	-71.352	0.061	-0.023
-353.537	311.381	0.091	-0.168
-352.523	120.110	-0.142	-0.173
-351.508	306.971	-0.128	-0.235
-350.493	-167.273	0.153	0.006
-349.479	30.729	-0.299	-0.252
-348.464	-200.000	-0.025	-0.177
-347.450	254.566	0.155	-0.260
-346.435	-73.842	0.069	-0.025
-345.420	-113.643	-0.362	0.069
-344.406	-174.010	0.319	0.009
-343.391	307.028	-0.159	0.291
-342.377	317.701	-0.221	0.410
-341.362	-62.552	0.127	0.052
-340.348	-200.000	0.011	-0.058
-339.333	96.251	0.136	-0.153
-338.318	329.423	-0.135	-0.254
-337.304	303.041	0.043	-0.078
-336.289	44.318	-0.101	0.091
-335.275	176.591	-0.191	-0.273
-334.260	32.031	-0.085	-0.072
-333.245	-27.939	0.131	-0.075
-332.231	-185.660	0.230	-0.003
-331.216	-70.592	0.305	0.113
-330.202	20.829	-0.087	0.069
-329.187	158.495	-0.128	0.174
-328.172	-99.448	0.049	0.012
-327.158	120.614	0.093	-0.113
-326.143	248.501	0.076	-0.126
-325.129	-200.000	-0.022	0.285
-324.114	716.258	-0.032	-0.083
-323.099	800.000	0.029	0.124
-322.085	37.392	0.171	-0.149
-321.070	82.048	0.179	0.191
-320.056	-109.190	-0.321	0.067
-319.041	-96.909	0.284	0.073
-318.026	800.000	0.038	0.148
-317.012	-200.000	0.038	0.171
-315.997	52.190	0.080	0.075
-314.983	192.801	0.121	0.179
-313.968	-181.720	0.165	0.003
-312.953	118.967	-0.045	-0.055
-311.939	-50.869	0.301	-0.139
-310.924	-200.000	0.128	-0.564
-309.910	-193.818	-0.503	-0.004
-308.895	49.554	0.230	-0.212
-307.880	226.036	-0.173	0.275
-306.866	-200.000	-0.034	0.201
-305.851	-114.569	-0.172	0.032
-304.837	-12.327	0.237	0.152
-303.822	28.358	0.188	-0.156
-302.807	-146.289	-0.337	-0.029
-301.793	-200.000	-0.010	0.180
-300.778	-167.654	-0.078	-0.003
-299.764	15.022	0.148	-0.114
-298.749	69.878	0.194	0.197
-297.735	54.962	0.126	-0.119
-296.720	-200.000	-0.041	-0.224
-295.705	-94.603	-0.512	-0.137
-294.691	187.331	0.080	0.117
-293.676	5.299	0.132	0.095
-292.662	234.463	-0.247	0.399
-291.647	82.791	0.044	0.047
-290.632	-20.995	-0.242	-0.145
-289.618	70.653	0.125	0.126
-288.603	-10.907	-0.047	0.030
-287.589	171.788	-0.100	-0.140
-286.574	-37.215	-0.232	-0.122
-285.559	-72.482	0.191	-0.069
-284.545	134.039	0.268	0.341
-283.530	-151.128	0.109	-0.008
-282.516	800.000	-0.062	0.204
-281.501	-75.795	0.282	-0.098
-280.486	100.415	-0.371	-0.422
-279.472	-58.792	0.078	0.033
-278.457	-59.651	-0.184	-0.077
-277.443	30.289	-0.209	-0.175
-276.428	5.420	0.209	0.151
-275.413	798.691	-0.141	0.381
-274.399	346.905	-0.016	0.032
-273.384	-200.000	-0.065	0.409
-272.370	-10.291	0.022	0.014
-271.355	-85.559	0.263	-0.080
-270.340	45.259	-0.223	-0.202
-269.326	-200.000	0.042	-0.227
-268.311	800.000	-0.074	-0.286
-267.297	-133.315	-0.056	0.007
-266.282	302.139	-0.056	-0.101
-265.267	800.000	0.084	-0.265
-264.253	-19.487	-0.227	0.138
-263.238	-113.063	0.134	0.026
-262.224	20.594	0.085	-0.068
-261.209	-200.000	-0.010	-0.176
-260.195	-200.000	-0.049	0.250
-259.180	-200.000	-0.018	0.302
-258.165	195.555	0.180	-0.269
-257.151	56.650	-0.151	-0.144
-256.136	-32.835	-0.105	-0.057
-255.122	-200.000	0.026	0.175
-254.107	800.000	-0.097	-0.302
-253.092	-26.684	0.125	0.072
-252.078	54.589	-0.158	0.150
-251.063	-200.000	-0.001	0.090
-250.049	68.152	0.261	0.261
-249.034	-59.162	-0.123	-0.052
-248.019	-200.000	-0.128	0.000
-247.005	-105.833	0.213	0.047
-245.990	107.369	0.058	0.068
-244.976	72.592	-0.045	-0.046
-243.961	-200.000	0.013	-0.393
-242.946	67.263	-0.153	-0.153
-241.932	-200.000	-0.038	0.165
-240.917	-200.000	0.020	0.094
-239.903	54.444	0.264	0.249
-238.888	22.814	0.112	0.090
-237.873	-154.772	0.186	0.012
-236.859	-132.253	0.037	0.005
-235.844	800.000	-0.080	0.309
-234.830	800.000	-0.026	-0.100
-233.815	800.000	-0.125	-0.394
-232.800	-97.574	-0.236	-0.060
-231.786	-4.598	0.108	0.073
-230.771	-200.000	-0.007	-0.102
-229.757	157.929	-0.330	-0.447
-228.742	-30.649	0.467	0.259
-227.727	-26.923	-0.161	-0.092
-226.713	-115.505	0.180	-0.033
-225.698	-108.239	-0.235	-0.050
-224.684	-119.831	0.308	-0.052
-223.669	-200.000	0.028	-0.232
-222.655	206.685	0.023	0.035
-221.640	-91.674	0.070	-0.019
-220.625	255.290	0.125	-0.210
-219.611	22.581	0.139	0.111
-218.596	800.000	0.113	-0.307
-217.582	-29.878	0.101	-0.056
-216.567	-200.000	0.001	-0.139
-215.552	800.000	0.081	0.315
-214.538	-158.793	-0.268	0.015
-213.523	800.000	0.024	0.068
-212.509	-88.536	-0.486	-0.142
-211.494	146.941	0.199	-0.262
-210.479	92.434	0.168	0.186
-209.465	800.000	-0.092	-0.250
-208.450	31.661	0.250	0.210
-207.436	-22.035	0.197	0.117
-206.421	800.000	0.044	0.153
-205.406	225.149	-0.297	0.469
-204.392	-200.000	0.020	-0.266
-203.377	-46.247	-0.140	-0.067
-202.363	-193.125	-0.119	0.001
-201.348	46.609	0.109	-0.099
-200.333	-91.312	0.247	0.069
-199.319	-200.000	-0.038	0.287
-198.304	-97.118	-0.124	-0.032
-197.290	800.000	0.054	0.187
-196.275	-166.210	0.183	-0.008
-195.260	800.000	0.093	-0.290
-194.246	-200.000	0.039	-0.195
-193.231	-95.182	-0.245	-0.065
-192.217	-184.674	-0.104	0.002
-191.202	35.190	-0.271	0.232
-190.187	800.000	0.131	0.400
-189.173	303.031	-0.141	0.256
-188.158	800.000	0.052	-0.217
-187.144	555.379	-0.066	-0.155
-186.129	-88.620	-0.017	-0.005
-185.114	255.870	0.184	-0.309
-184.100	-68.191	0.292	-0.111
-183.085	-200.000	-0.047	0.306
-182.071	115.503	-0.294	-0.351
-181.056	38.122	0.219	0.190
-180.042	-200.000	-0.055	0.251
-179.027	-142.925	0.073	-0.007
-178.012	43.730	0.213	-0.190
-176.998	-142.971	0.134	-0.013
-175.983	-152.415	-0.393	-0.028
-174.969	646.788	0.089	0.223
-173.954	-200.000	-0.065	0.345
-172.939	2.499	-0.059	-0.042
-171.925	800.000	-0.052	-0.187
-170.910	-4.908	0.318	0.214
-169.896	88.271	-0.314	-0.341
-168.881	-130.553	0.374	0.049
-167.866	-94.124	0.470	-0.126
-166.852	-200.000	-0.005	-0.054
-165.837	-200.000	-0.046	-0.325
-164.823	-200.000	-0.006	-0.188
-163.808	-133.006	-0.319	0.040
-162.793	99.284	0.151	-0.170
-161.779	32.498	0.071	-0.059
-160.764	-118.657	0.227	-0.039
-159.750	-19.134	0.226	0.137
-158.735	84.738	0.042	-0.045
-157.720	6.622	-0.268	0.195
-156.706	-95.650	0.277	-0.072
-155.691	345.526	-0.063	-0.120
-154.677	-28.120	-0.123	-0.070
-153.662	-73.474	-0.135	0.048
-152.647	-200.000	0.009	0.051
-151.633	-148.792	0.056	-0.004
-150.618	149.846	0.064	0.084
-149.604	-116.281	0.050	-0.009
-148.589	800.000	-0.104	-0.298
-147.574	800.000	0.139	0.530
-146.560	-200.000	-0.038	0.217
-145.545	172.683	-0.233	-0.327
-144.531	397.646	0.074	-0.152
-143.516	-200.000	-0.011	-0.116
-142.502	-200.000	0.005	0.200
-141.487	-170.664	0.084	-0.003
-140.472	181.322	0.107	-0.154
-139.458	-30.363	-0.296	-0.164
-138.443	-200.000	-0.006	0.387
-137.429	-200.000	0.010	0.287
-136.414	1.600	-0.142	-0.100
-135.399	-43.863	-0.051	-0.025
-134.385	424.980	0.070	0.148
-133.370	-200.000	-0.034	0.257
-132.356	92.002	-0.224	0.246
-131.341	-200.000	0.033	0.323
-130.326	60.835	-0.163	0.158
-129.312	160.428	-0.043	-0.059
-128.297	95.998	0.176	0.196
-127.283	-87.251	0.306	0.091
-126.268	-21.227	0.276	0.164
-125.253	800.000	0.053	-0.211
-124.239	97.140	-0.204	-0.228
-123.224	-101.975	0.102	0.024
-122.210	121.097	-0.160	-0.194
-121.195	186.280	-0.215	0.311
-120.180	800.000	0.052	0.175
-119.166	-200.000	0.046	-0.268
-118.151	800.000	-0.061	0.197
-117.137	12.959	0.175	0.132
-116.122	-200.000	-0.003	0.208
-115.107	-90.214	0.246	0.070
-114.093	102.873	0.145	-0.166
-113.078	239.158	0.092	-0.149
-112.064	-200.000	0.012	0.066
-111.049	27.984	0.181	0.149
-110.034	25.554	0.378	-0.307
-109.020	-33.749	-0.183	-0.098
-108.005	4.081	0.311	0.222
-106.991	800.000	0.067	0.261
-105.976	179.193	-0.037	-0.052
-104.962	-126.065	0.143	-0.021
-103.947	107.961	0.091	0.106
-102.932	153.999	0.158	0.211
-101.918	165.042	-0.050	0.069
-100.903	-98.124	0.118	-0.030
-99.889	800.000	0.136	0.385
-98.874	746.439	-0.039	0.101
-97.859	800.000	0.047	-0.128
-96.845	462.190	0.150	0.326
-95.830	-200.000	-0.016	0.160
-94.816	69.563	0.203	0.203
-93.801	-18.468	0.198	-0.121
-92.786	542.355	-0.037	-0.086
-91.772	-111.519	0.251	-0.050
-90.757	133.790	-0.162	0.204
-89.743	-200.000	0.083	-0.420
-88.728	-56.029	-0.255	-0.110
-87.713	-81.740	-0.287	-0.092
-86.699	212.787	-0.234	-0.359
-85.684	330.530	-0.081	0.152
-84.670	318.136	-0.199	0.366
-83.655	-14.453	0.310	-0.194
-82.640	59.677	-0.198	0.190
-81.626	412.157	0.200	-0.414
-80.611	-181.582	-0.330	0.006
-79.597	-200.000	-0.007	0.363
-78.582	800.000	-0.086	-0.245
-77.567	317.936	0.200	0.368
-76.553	-200.000	0.008	0.055
-75.538	-89.912	-0.423	-0.120
-74.524	-157.443	0.142	-0.008
-73.509	-121.515	0.246	0.040
-72.494	-75.949	-0.167	-0.058
-71.480	4.461	-0.086	0.061
-70.465	800.000	0.070	0.244
-69.451	-101.299	-0.445	-0.106
-68.436	246.692	0.065	-0.106
-67.422	-85.137	0.511	0.155
-66.407	-28.694	0.059	-0.033
-65.392	65.797	-0.251	-0.247
-64.378	0.433	-0.177	-0.123
-63.363	-200.000	0.022	-0.095
-62.349	218.498	0.044	-0.069
-61.334	86.903	-1.156	-1.241
-60.319	35.702	0.759	0.648
-59.305	531.503	-0.688	-1.581
-58.290	224.775	1.014	1.594
-57.276	429.193	0.872	1.833
-56.261	-200.000	135.626	629.717
-55.246	348.695	1632.879	3130.762
-54.232	137.548	2780.443	3536.887
-53.217	76.290	2301.033	2368.244
-52.203	27.306	1907.211	1557.182
-51.188	21.816	1703.036	1348.337
-50.173	20.120	1666.457	1306.553
-49.159	41.137	1741.448	1528.854
-48.144	37.390	1749.770	1507.112
-47.130	21.315	1702.259	1343.657
-46.115	19.081	1686.723	1314.296
-45.100	18.923	1681.219	1308.754
-44.086	18.899	1678.633	1306.510
-43.071	18.940	1675.634	1304.436
-42.057	18.929	1673.474	1302.616
-41.042	18.967	1671.679	1301.454
-40.027	18.822	1669.851	1298.885
-39.013	18.813	1668.450	1297.677
-37.998	18.824	1666.721	1296.358
-36.984	18.890	1665.138	1295.576
-35.969	19.031	1663.366	1295.209
-34.954	18.979	1662.764	1294.299
-33.940	18.876	1660.511	1291.719
-32.925	18.877	1659.198	1290.649
-31.911	18.935	1657.163	1289.454
-30.896	18.981	1655.397	1288.371
-29.881	18.945	1654.305	1287.205
-28.867	19.009	1652.437	1286.176
-27.852	19.022	1650.925	1285.044
-26.838	19.017	1649.363	1283.742
-25.823	18.998	1648.288	1282.709
-24.809	18.995	1647.063	1281.687
-23.794	18.986	1645.520	1280.367
-22.779	19.103	1643.824	1279.869
-21.765	19.043	1642.467	1278.312
-20.750	19.009	1640.942	1276.822
-19.736	18.981	1640.409	1276.147
-18.721	18.985	1638.618	1274.735
-17.706	19.077	1636.595	1273.791
-16.692	18.938	1636.065	1272.300
-15.677	19.086	1633.988	1271.730
-14.663	19.136	1632.578	1270.951
-13.648	19.042	1631.368	1269.261
-12.633	19.082	1629.468	1268.030
-11.619	19.039	1627.986	1266.513
-10.604	19.036	1626.685	1265.422
-9.590	19.185	1624.970	1265.139
-8.575	19.149	1623.788	1263.904
-7.560	19.049	1622.770	1262.327
-6.546	19.093	1622.085	1262.066
-5.531	19.026	1621.401	1260.990
-4.517	19.072	1619.888	1260.101
-3.502	19.026	1618.608	1258.719
-2.487	19.130	1616.654	1257.906
-1.473	18.686	1604.742	1245.371
-0.458	15.828	1585.388	1209.783
0.556	11.209	1587.709	1178.636
1.571	9.159	1612.653	1181.972
2.586	8.982	1624.195	1189.015
3.600	8.545	1569.234	1145.545
4.615	4.906	1464.842	1044.876
5.629	1.232	1410.205	982.068
6.644	0.606	1404.079	973.678
7.659	0.594	1403.305	972.977
8.673	0.525	1402.665	972.004
9.688	0.516	1399.640	969.761
10.702	0.409	1396.293	966.671
11.717	2.281	1397.870	979.682
12.731	7.845	1406.360	1021.340
13.746	14.137	1416.315	1069.035
14.761	16.924	1419.805	1089.506
15.775	16.513	1418.640	1085.877
16.790	15.571	1416.039	1077.753
17.804	14.870	1413.584	1071.293
18.819	14.432	1412.449	1067.535
19.834	14.354	1410.179	1065.230
20.848	14.084	1409.539	1062.920
21.863	13.692	1408.265	1059.363
22.877	13.521	1407.541	1057.637
23.892	13.543	1405.715	1056.308
24.907	13.452	1406.017	1055.861
25.921	13.507	1404.292	1054.824
26.936	13.603	1403.328	1054.617
27.950	13.626	1402.500	1054.045
28.965	13.648	1401.659	1053.459
29.980	13.731	1400.558	1053.068
30.994	13.729	1399.516	1052.178
32.009	13.802	1398.396	1051.704
33.023	13.754	1397.356	1050.529
34.038	13.738	1396.150	1049.423
35.053	13.714	1395.234	1048.495
36.067	13.710	1394.073	1047.503
37.082	13.732	1392.937	1046.693
38.096	13.749	1391.895	1045.929
39.111	13.652	1391.282	1044.761
40.126	13.718	1390.372	1044.401
41.140	13.582	1390.037	1043.205
42.155	13.595	1388.736	1042.217
43.169	13.645	1388.815	1042.495
44.184	13.542	1388.743	1041.701
45.199	13.553	1388.381	1041.408
46.213	13.495	1388.194	1040.813
47.228	13.618	1386.586	1040.287
48.242	13.711	1384.871	1039.488
49.257	13.630	1384.051	1038.272
50.271	13.696	1382.215	1037.220
51.286	13.671	1381.151	1036.170
52.301	13.646	1380.082	1035.124
53.315	13.607	1378.924	1033.920
54.330	13.521	1378.247	1032.785
55.344	13.566	1376.458	1031.629
56.359	13.675	1375.144	1031.232
57.374	13.499	1374.648	1029.673
58.388	13.437	1373.507	1028.347
59.403	13.545	1373.329	1028.793
60.417	13.466	1372.666	1027.713
61.432	13.469	1371.293	1026.613
62.447	13.574	1370.328	1026.449
63.461	13.426	1369.377	1024.730
64.476	13.400	1368.566	1023.872
65.490	13.510	1367.228	1023.462
66.505	13.586	1365.415	1022.482
67.520	13.453	1364.415	1020.824
68.534	13.470	1363.450	1020.113
69.549	13.470	1362.192	1019.087
70.563	13.472	1361.187	1018.253
71.578	13.563	1359.731	1017.635
72.593	13.445	1358.868	1016.175
73.607	13.478	1358.022	1015.654
74.622	13.359	1357.368	1014.343
75.636	13.450	1356.422	1014.108
76.651	13.447	1355.516	1013.321
77.666	13.547	1354.670	1013.208
78.680	13.496	1354.706	1012.834
79.695	13.433	1353.685	1011.597
80.709	13.472	1352.692	1011.006
81.724	13.550	1352.114	1010.961
82.739	13.537	1350.934	1009.907
83.753	13.643	1349.850	1009.651
84.768	13.706	1348.720	1009.104
85.782	13.745	1347.225	1008.133
86.797	13.731	1346.018	1007.058
87.812	13.567	1344.896	1005.132
88.826	13.654	1343.898	1004.821
89.841	13.579	1342.853	1003.501
90.855	13.657	1341.755	1003.063
91.870	13.627	1341.194	1002.373
92.884	13.684	1339.883	1001.649
93.899	13.661	1339.432	1001.083
94.914	13.704	1338.380	1000.470
95.928	13.704	1337.609	999.805
96.943	13.653	1337.052	998.994
97.957	13.733	1335.840	998.478
98.972	13.747	1334.472	997.449
99.987	13.657	1333.540	996.124
101.001	13.761	1332.024	995.533
102.016	13.734	1331.376	994.798
103.030	13.739	1330.213	993.871
104.045	13.712	1329.535	993.111
105.060	13.742	1327.801	991.910
106.074	13.611	1326.825	990.307
107.089	13.536	1325.802	989.008
108.103	13.609	1324.166	988.137
109.118	13.601	1323.099	987.207
110.133	13.630	1321.301	985.952
111.147	13.590	1319.980	984.638
112.162	13.630	1318.891	983.979
113.176	13.610	1318.226	983.275
114.191	13.702	1316.336	982.322
115.206	13.724	1315.904	982.047
116.220	13.634	1314.440	980.336
117.235	13.638	1313.451	979.533
118.249	13.611	1312.145	978.315
119.264	13.613	1311.166	977.509
120.279	13.615	1310.024	976.580
121.293	13.614	1308.905	975.653
122.308	13.613	1307.686	974.655
123.322	13.537	1306.998	973.606
124.337	13.581	1305.553	972.706
125.352	13.517	1304.553	971.498
126.366	13.608	1303.504	971.163
127.381	13.539	1302.590	969.994
128.395	13.620	1300.763	969.022
129.410	13.570	1300.467	968.421
130.424	13.557	1299.573	967.594
131.439	13.621	1298.551	967.124
132.454	13.659	1297.191	966.246
133.468	13.645	1296.325	965.430
134.483	13.608	1295.602	964.595
135.497	13.623	1293.846	963.289
136.512	13.628	1293.079	962.658
137.527	13.680	1291.361	961.597
138.541	13.690	1289.838	960.436
139.556	13.673	1288.725	959.423
140.570	13.661	1287.943	958.691
141.585	13.825	1286.246	958.290
142.600	13.696	1285.390	956.821
143.614	13.788	1284.409	956.536
144.629	13.832	1283.328	955.899
145.643	13.871	1282.242	955.229
146.658	13.813	1281.066	953.935
147.673	13.815	1279.494	952.693
148.687	13.789	1278.354	951.610
149.702	13.793	1277.055	950.582
150.716	13.721	1275.821	949.166
151.731	13.781	1275.027	948.837
152.746	13.787	1273.366	947.550
153.760	13.828	1272.164	946.807
154.775	13.725	1271.673	945.769
155.789	13.850	1270.248	945.336
156.804	13.920	1268.804	944.576
157.819	13.907	1267.970	943.799
158.833	13.927	1267.405	943.410
159.848	13.964	1266.296	942.708
160.862	14.008	1265.007	941.918
161.877	13.982	1263.970	940.915
162.892	13.891	1263.071	939.645
163.906	13.896	1262.152	938.907
164.921	13.933	1260.997	938.173
165.935	13.894	1260.422	937.442
166.950	13.893	1259.511	936.675
167.964	14.020	1258.875	936.837
168.979	13.909	1258.675	935.978
169.994	13.962	1256.976	934.932
171.008	13.898	1256.591	934.202
172.023	14.011	1255.383	933.858
173.037	14.052	1254.562	933.396
174.052	14.133	1253.388	932.892
175.067	14.040	1252.716	931.787
176.081	13.966	1251.998	930.755
177.096	13.997	1250.660	929.853
178.110	14.012	1249.449	928.957
179.125	14.072	1248.350	928.389
180.140	14.072	1246.950	927.269
181.154	14.103	1245.705	926.432
182.169	14.224	1244.382	926.038
183.183	14.306	1243.068	925.438
184.198	14.148	1242.251	923.871
185.213	14.132	1241.138	922.872
186.227	14.286	1239.743	922.608
187.242	14.327	1238.626	921.921
188.256	14.270	1238.009	921.062
189.271	14.273	1236.937	920.199
190.286	14.181	1235.760	918.738
191.300	14.153	1234.951	917.897
192.315	14.181	1234.107	917.344
193.329	14.218	1233.589	917.083
194.344	14.246	1233.076	916.771
195.359	14.251	1232.260	916.116
196.373	14.286	1231.704	915.814
197.388	14.341	1231.547	915.918
198.402	14.296	1230.866	915.083
199.417	14.451	1229.579	914.893
200.432	14.409	1229.095	914.223
201.446	14.443	1228.375	913.794
202.461	14.469	1227.441	913.162
203.475	14.553	1226.122	912.559
204.490	14.545	1224.927	911.542
205.504	14.457	1223.355	909.812
206.519	14.495	1222.737	909.480
207.534	14.488	1221.408	908.375
208.548	14.411	1220.299	907.046
209.563	14.509	1219.889	907.195
210.577	14.551	1218.778	906.515
211.592	14.522	1218.257	905.893
212.607	14.499	1217.145	904.861
213.621	14.474	1216.509	904.174
214.636	14.612	1215.003	903.722
215.650	14.686	1214.288	903.512
216.665	14.699	1212.825	902.413
217.680	14.732	1212.390	902.188
218.694	14.674	1211.871	901.407
219.709	14.670	1211.005	900.663
220.723	14.697	1209.999	899.979
221.738	14.715	1209.117	899.339
222.753	14.611	1208.733	898.417
223.767	14.692	1208.172	898.353
224.782	14.852	1207.059	898.305
225.796	14.856	1206.406	897.766
226.811	14.822	1206.000	897.199
227.826	14.815	1205.200	896.489
228.840	14.845	1204.370	895.952
229.855	14.807	1203.692	895.162
230.869	14.804	1202.767	894.379
231.884	14.820	1201.981	893.803
232.899	14.832	1201.386	893.347
233.913	14.837	1200.277	892.470
234.928	14.754	1199.738	891.543
235.942	14.793	1198.942	891.082
236.957	14.817	1198.105	890.511
237.972	14.861	1197.422	890.157
238.986	14.818	1197.341	889.788
240.001	14.919	1196.129	889.349
241.015	14.869	1194.855	888.056
242.030	14.985	1193.945	887.918
243.045	14.962	1193.834	887.635
244.059	15.021	1192.574	886.931
245.074	15.025	1191.980	886.431
246.088	14.966	1191.295	885.533
247.103	15.095	1190.270	885.373
248.117	15.153	1189.508	885.033
249.132	15.096	1189.115	884.364
250.147	15.195	1188.191	884.120
251.161	15.208	1187.555	883.640
252.176	15.251	1186.572	883.056
253.190	15.322	1185.904	882.852
254.205	15.330	1185.336	882.392
255.220	15.306	1185.174	882.067
256.234	15.358	1184.476	881.743
257.249	15.283	1183.683	880.682
258.263	15.362	1182.970	880.487
259.278	15.319	1182.234	879.639
260.293	15.355	1182.048	879.609
261.307	15.405	1181.273	879.217
262.322	15.314	1181.001	878.461
263.336	15.446	1179.881	878.242
264.351	15.440	1178.912	877.409
265.366	15.411	1178.312	876.734
266.380	15.520	1177.483	876.610
267.395	15.475	1176.451	875.529
268.409	15.369	1176.301	874.789
269.424	15.461	1175.408	874.524
270.439	15.467	1175.257	874.367
271.453	15.395	1174.436	873.302
272.468	15.482	1173.242	872.792
273.482	15.513	1172.614	872.405
274.497	15.525	1171.604	871.641
275.512	15.682	1171.023	871.943
276.526	15.495	1170.284	870.349
277.541	15.539	1169.313	869.776
278.555	15.688	1168.746	870.052
279.570	15.628	1168.111	869.191
280.585	15.672	1167.252	868.699
281.599	15.702	1165.793	867.693
282.614	15.733	1164.891	867.106
283.628	15.688	1164.470	866.482
284.643	15.563	1163.850	865.303
285.657	15.774	1162.217	865.098
286.672	15.818	1161.269	864.542
287.687	15.882	1160.081	863.908
288.701	15.844	1159.860	863.472
289.716	15.712	1159.582	862.512
290.730	15.806	1158.231	861.909
291.745	15.801	1157.447	861.224
292.760	15.883	1156.674	860.995
293.774	15.830	1156.299	860.366
294.789	15.937	1155.378	860.152
295.803	15.866	1155.142	859.539
296.818	15.800	1154.579	858.708
297.833	15.848	1153.306	857.926
298.847	15.913	1152.659	857.702
299.862	15.928	1152.069	857.265
300.876	16.070	1151.068	857.164
301.891	15.922	1150.684	856.051
302.906	15.955	1149.821	855.501
303.920	16.160	1148.769	855.682
304.935	16.056	1148.727	855.048
305.949	16.054	1147.792	854.265
306.964	16.146	1147.284	854.278
307.979	16.227	1146.333	853.903
308.993	16.119	1145.399	852.587
310.008	16.052	1145.234	852.050
311.022	16.081	1144.708	851.730
312.037	16.171	1143.162	850.961
313.052	16.135	1142.289	850.050
314.066	16.195	1141.433	849.644
315.081	16.071	1140.529	848.272
316.095	16.105	1139.967	847.948
317.110	16.090	1139.003	847.083
318.125	16.162	1138.264	846.818
319.139	16.187	1137.774	846.501
320.154	16.157	1137.032	845.726
321.168	16.229	1136.341	845.498
322.183	16.171	1135.993	844.872
323.197	16.171	1134.921	844.001
324.212	16.274	1134.479	844.114
325.227	16.145	1134.137	843.139
326.241	16.226	1133.330	842.867
327.256	16.153	1132.436	841.764
328.270	16.305	1131.010	841.390
329.285	16.363	1129.903	840.780
330.300	16.184	1129.633	839.611
331.314	16.385	1128.157	839.440
332.329	16.312	1127.094	838.211
333.343	16.387	1126.619	838.159
334.358	16.255	1126.015	836.981
335.373	16.442	1125.109	837.157
336.387	16.381	1124.283	836.170
337.402	16.462	1123.665	836.034
338.416	16.404	1122.652	834.919
339.431	16.515	1122.341	835.164
340.446	16.422	1121.955	834.345
341.460	16.487	1120.858	833.776
342.475	16.648	1119.708	833.641
343.489	16.615	1119.164	832.998
344.504	16.645	1117.858	832.102
345.519	16.526	1117.575	831.231
346.533	16.642	1116.783	831.136
347.548	16.728	1115.737	830.709
348.562	16.698	1115.081	829.996
349.577	16.708	1114.058	829.213
350.592	16.701	1113.320	828.557
351.606	16.701	1112.592	827.942
352.621	16.722	1111.788	827.371
353.635	16.676	1111.501	826.860
354.650	16.720	1110.449	826.218
355.665	16.718	1110.053	825.842
356.679	16.583	1109.883	824.982
357.694	16.660	1109.241	824.807
358.708	16.705	1108.297	824.255
359.723	16.713	1107.778	823.834
360.738	16.724	1106.922	823.178
361.752	16.816	1106.331	823.112
362.767	16.824	1105.877	822.741
363.781	16.869	1105.180	822.367
364.796	16.899	1104.604	822.009
365.810	16.895	1103.834	821.346
366.825	16.948	1103.046	820.941
367.840	17.035	1102.631	820.984
368.854	16.989	1102.139	820.319
369.869	17.023	1100.990	819.557
370.883	17.010	1100.372	818.963
371.898	16.917	1099.809	818.022
372.913	17.103	1098.988	818.234
373.927	17.117	1098.482	817.854
374.942	17.141	1097.889	817.455
375.956	17.096	1097.463	816.849
376.971	17.043	1096.881	816.089
377.986	17.148	1096.469	816.214
379.000	17.266	1095.611	816.071
380.015	17.254	1095.130	815.580
381.029	17.039	1094.787	814.223
382.044	17.224	1093.797	814.302
383.059	17.230	1093.145	813.771
384.073	17.241	1092.384	813.187
385.088	17.362	1091.201	812.813
386.102	17.249	1090.203	811.457
387.117	17.192	1089.428	810.538
388.132	17.204	1088.504	809.833
389.146	17.268	1087.479	809.305
390.161	17.275	1087.053	808.953
391.175	17.316	1086.201	808.440
392.190	17.353	1085.690	808.162
393.205	17.386	1084.459	807.334
394.219	17.451	1083.897	807.150
395.234	17.403	1083.078	806.241
396.248	17.350	1082.098	805.193
397.263	17.404	1081.040	804.587
398.278	17.419	1080.221	803.978
399.292	17.379	1079.644	803.290
400.307	17.398	1079.065	802.877
401.321	17.478	1078.170	802.516
402.336	17.379	1077.888	801.770
403.350	17.467	1076.734	801.254
404.365	17.645	1075.984	801.461
405.380	17.476	1075.296	800.085
406.394	17.417	1074.903	799.445
407.409	17.541	1073.869	799.185
408.423	17.518	1073.349	798.621
409.438	17.563	1072.595	798.200
410.453	17.699	1071.704	798.101
411.467	17.695	1071.035	797.515
412.482	17.771	1070.335	797.281
413.496	17.695	1069.635	796.332
414.511	17.734	1068.878	795.878
415.526	17.812	1068.746	796.076
416.540	17.717	1068.395	795.298
417.555	17.753	1067.780	794.938
418.569	17.750	1067.395	794.567
419.584	17.730	1066.872	794.017
420.599	17.732	1066.403	793.607
421.613	109.495	1333.187	1493.502
422.628	101.251	1371.987	1493.569
