DTS Sentinel unit serial number:	SN413079Multiplexer serial number:	ORYXHardware model number:	OX4-SRSoftware version number:	ORYX F/W v4.00 Oryx Data Collector v3.7.2.0data status	okinstallation	princeton_trtdifferential loss correction	single-endedforward channel	channel 2reverse channel	N/Adate	2019/09/14time	01:59:34forward acquisition time	60.00reverse acquisition time	0.00gamma	496.2192k internal	0.2337k external	0.2337temperature offset calibration	1.0124default loss term (dB/km)	0.3790temperature slope calibration	1.0000multiplexer offset coefficient	1.0000multiplexer slope coefficient	1.0000fibre end	0.00T internal ref (°C)	26.50T ext. ref 1 (°C)	3.21T ext. ref 2 (°C)	21.53length (m)	temperature (°C)	Stokes	anti-Stokes-747.200	252.655	0.096	-0.165
-746.185	-179.591	-0.196	0.004
-745.171	383.743	0.104	0.216
-744.156	-160.954	-0.236	0.012
-743.142	800.000	-0.143	0.525
-742.127	154.640	-0.110	0.152
-741.112	82.180	-0.125	-0.136
-740.098	-49.671	-0.393	-0.188
-739.083	150.920	-0.329	0.449
-738.069	164.637	0.062	0.087
-737.054	278.796	0.125	-0.224
-736.039	-110.668	-0.306	0.063
-735.025	668.047	0.094	0.244
-734.010	-68.413	-0.366	-0.142
-732.996	25.615	-0.073	-0.061
-731.981	-197.294	0.377	-0.002
-730.966	166.451	0.155	-0.221
-729.952	745.842	-0.113	-0.306
-728.937	487.213	0.120	-0.275
-727.923	-188.384	-0.116	0.001
-726.908	-0.063	-0.225	0.160
-725.894	800.000	0.036	0.143
-724.879	-1.155	-0.116	0.082
-723.864	-123.321	0.329	0.053
-722.850	-200.000	0.044	-0.331
-721.835	119.575	-0.128	-0.159
-720.821	-200.000	-0.049	0.289
-719.806	-200.000	0.027	0.162
-718.791	63.807	-0.287	-0.289
-717.777	-200.000	-0.013	-0.167
-716.762	800.000	-0.033	-0.142
-715.748	800.000	-0.045	-0.183
-714.733	-200.000	-0.031	0.244
-713.718	163.493	-0.075	-0.106
-712.704	268.047	-0.092	-0.161
-711.689	77.980	0.177	0.189
-710.675	83.907	-0.124	-0.135
-709.660	9.499	0.109	0.083
-708.645	-185.369	-0.141	-0.002
-707.631	-1.109	-0.133	-0.094
-706.616	243.193	0.196	0.330
-705.602	-25.783	-0.177	0.105
-704.587	5.603	-0.131	-0.097
-703.572	59.985	0.218	-0.215
-702.558	27.417	-0.218	-0.184
-701.543	22.993	-0.154	-0.127
-700.529	278.699	0.134	-0.239
-699.514	-200.000	-0.002	0.021
-698.499	396.834	0.127	0.265
-697.485	247.178	-0.168	0.284
-696.470	800.000	-0.031	-0.085
-695.456	566.160	-0.023	-0.057
-694.441	-41.829	-0.278	0.143
-693.426	-151.654	0.279	-0.021
-692.412	51.309	-0.072	0.068
-691.397	336.832	-0.036	-0.071
-690.383	-103.383	-0.192	-0.045
-689.368	31.836	-0.176	-0.152
-688.354	226.036	0.230	-0.373
-687.339	375.092	0.158	-0.323
-686.324	-101.203	-0.358	-0.088
-685.310	298.531	0.161	0.297
-684.295	800.000	0.106	-0.409
-683.281	228.950	0.236	-0.385
-682.266	161.847	0.162	-0.227
-681.251	164.527	-0.270	0.381
-680.237	742.633	0.062	-0.167
-679.222	-200.000	-0.016	-0.223
-678.208	-200.000	0.023	-0.274
-677.193	150.414	-0.281	0.382
-676.178	195.323	-0.182	-0.276
-675.164	-0.942	0.118	-0.084
-674.149	800.000	-0.037	-0.101
-673.135	86.429	-0.175	0.193
-672.120	-1.360	-0.180	-0.127
-671.105	406.906	-0.061	-0.128
-670.091	-29.159	-0.382	-0.219
-669.076	316.155	-0.113	0.214
-668.062	98.871	-0.061	-0.070
-667.047	287.451	0.188	-0.340
-666.032	186.496	0.044	-0.066
-665.018	27.941	0.322	-0.272
-664.003	-179.717	-0.311	0.007
-662.989	194.129	0.166	0.251
-661.974	-0.833	-0.354	-0.251
-660.959	-200.000	-0.004	-0.046
-659.945	-12.822	0.166	0.108
-658.930	226.547	-0.163	-0.265
-657.916	229.405	-0.114	-0.186
-656.901	-173.386	0.226	-0.007
-655.886	174.993	0.089	-0.129
-654.872	-200.000	0.027	-0.231
-653.857	-35.971	-0.331	-0.179
-652.843	-116.843	0.357	-0.065
-651.828	-153.188	-0.280	0.020
-650.814	-127.864	0.156	0.023
-649.799	16.871	-0.126	-0.100
-648.784	-200.000	0.025	0.164
-647.770	46.152	-0.077	-0.072
-646.755	230.979	0.076	-0.125
-645.741	-200.000	0.054	-0.363
-644.726	-26.172	-0.107	0.063
-643.711	800.000	-0.051	0.146
-642.697	92.125	-0.129	-0.146
-641.682	152.541	0.089	-0.121
-640.668	-76.865	0.358	0.125
-639.653	-77.657	0.230	-0.080
-638.638	-85.230	-0.332	-0.104
-637.624	-200.000	0.010	0.097
-636.609	648.047	-0.062	-0.157
-635.595	-200.000	-0.032	0.141
-634.580	-3.304	0.089	0.062
-633.565	-200.000	-0.002	0.062
-632.551	-117.329	0.436	0.079
-631.536	176.411	0.145	0.210
-630.522	0.616	-0.101	0.072
-629.507	95.118	0.317	-0.361
-628.492	11.587	-0.097	-0.074
-627.478	800.000	0.041	-0.123
-626.463	-100.768	-0.329	-0.081
-625.449	-86.306	-0.062	-0.019
-624.434	49.115	-0.189	-0.177
-623.419	16.222	0.196	-0.154
-622.405	63.212	-0.121	-0.121
-621.390	-75.069	0.257	-0.092
-620.376	531.541	-0.178	0.420
-619.361	-111.349	-0.302	0.061
-618.346	482.631	0.041	0.093
-617.332	-56.118	0.148	0.066
-616.317	-57.756	0.222	0.097
-615.303	-200.000	0.017	0.290
-614.288	800.000	0.063	-0.188
-613.273	-200.000	0.030	-0.505
-612.259	428.568	-0.088	0.190
-611.244	474.461	-0.041	0.093
-610.230	-21.734	0.019	0.012
-609.215	800.000	0.119	0.433
-608.201	800.000	-0.063	-0.212
-607.186	-200.000	-0.002	-0.429
-606.171	78.543	0.114	-0.121
-605.157	800.000	-0.038	0.116
-604.142	-77.899	-0.229	0.079
-603.128	-111.470	-0.177	-0.036
-602.113	700.170	-0.021	0.056
-601.098	-33.536	0.318	-0.176
-600.084	-26.598	-0.460	-0.269
-599.069	-43.840	-0.178	0.090
-598.055	-52.743	0.273	-0.126
-597.040	-70.216	0.176	0.067
-596.025	-200.000	0.042	0.195
-595.011	-53.841	-0.122	-0.055
-593.996	-0.537	-0.273	0.193
-592.982	-87.535	-0.111	-0.034
-591.967	-200.000	0.004	-0.408
-590.952	230.335	-0.125	-0.204
-589.938	68.377	-0.070	0.072
-588.923	55.034	0.357	0.344
-587.909	-65.960	0.078	-0.031
-586.894	-21.510	-0.155	-0.095
-585.879	187.427	0.060	0.089
-584.865	800.000	-0.093	0.396
-583.850	20.154	-0.262	-0.211
-582.836	-131.957	-0.167	0.022
-581.821	-52.722	0.340	0.156
-580.806	-57.896	0.161	0.070
-579.792	427.457	-0.170	0.366
-578.777	106.897	0.166	0.197
-577.763	-84.285	0.234	0.074
-576.748	247.670	0.236	-0.398
-575.733	-31.077	0.282	0.159
-574.719	89.594	0.068	-0.076
-573.704	-200.000	0.006	-0.034
-572.690	195.846	-0.082	0.125
-571.675	-89.328	-0.181	-0.053
-570.661	-56.641	-0.400	-0.177
-569.646	-114.838	0.109	0.021
-568.631	800.000	-0.042	-0.156
-567.617	10.221	-0.109	0.082
-566.602	-86.765	0.332	-0.101
-565.588	800.000	-0.103	-0.338
-564.573	800.000	0.062	0.185
-563.558	-200.000	0.028	0.201
-562.544	22.026	-0.204	0.166
-561.529	75.244	-0.241	0.253
-560.515	-53.577	-0.296	-0.135
-559.500	800.000	0.097	-0.339
-558.485	391.768	0.057	-0.118
-557.471	11.211	-0.169	-0.129
-556.456	-63.742	-0.109	0.045
-555.442	204.141	0.073	-0.113
-554.427	-200.000	-0.039	-0.352
-553.412	214.681	0.149	-0.236
-552.398	54.218	0.223	-0.214
-551.383	-57.319	0.314	-0.137
-550.369	178.477	-0.082	-0.119
-549.354	-43.913	0.262	-0.131
-548.339	-91.195	-0.221	0.063
-547.325	37.388	0.257	0.227
-546.310	800.000	0.070	-0.255
-545.296	-186.504	-0.273	-0.004
-544.281	52.307	0.087	0.083
-543.266	-135.193	0.075	-0.009
-542.252	-71.958	-0.279	-0.103
-541.237	-87.556	-0.208	-0.063
-540.223	421.900	-0.053	-0.112
-539.208	20.762	-0.320	0.258
-538.193	137.030	-0.218	0.283
-537.179	-18.652	-0.124	0.077
-536.164	-26.746	0.167	0.097
-535.150	163.393	-0.112	0.157
-534.135	672.257	0.079	-0.204
-533.121	-143.695	0.235	0.022
-532.106	-65.586	-0.120	0.048
-531.091	153.153	0.199	-0.271
-530.077	-117.636	-0.254	0.046
-529.062	-122.348	0.305	-0.050
-528.048	800.000	-0.102	0.380
-527.033	0.148	-0.181	0.128
-526.018	-80.437	-0.048	-0.016
-525.004	-200.000	0.016	0.080
-523.989	750.724	-0.089	-0.239
-522.975	800.000	0.047	0.172
-521.960	-101.206	0.323	0.078
-520.945	93.518	-0.271	-0.305
-519.931	-68.248	-0.295	0.114
-518.916	-23.694	-0.196	-0.117
-517.902	49.222	-0.154	-0.144
-516.887	-200.000	-0.025	-0.198
-515.872	-179.144	-0.336	0.007
-514.858	63.277	0.099	0.098
-513.843	704.951	0.070	0.182
-512.829	767.756	0.131	-0.355
-511.814	-200.000	-0.032	-0.162
-510.799	-77.377	0.145	0.050
-509.785	-6.964	0.124	-0.084
-508.770	16.113	-0.327	0.257
-507.756	-0.576	-0.253	0.179
-506.741	120.138	-0.036	0.044
-505.726	109.158	-0.232	-0.277
-504.712	-82.047	-0.404	0.131
-503.697	800.000	0.033	0.125
-502.683	22.354	-0.150	0.122
-501.668	-3.451	0.063	0.044
-500.653	-142.905	-0.061	0.006
-499.639	-142.884	-0.110	-0.011
-498.624	800.000	-0.029	-0.081
-497.610	-66.938	0.143	-0.056
-496.595	181.445	0.234	0.342
-495.581	-131.569	-0.296	-0.039
-494.566	-200.000	0.021	-0.492
-493.551	5.174	0.218	0.160
-492.537	-200.000	0.019	-0.132
-491.522	-8.439	0.082	0.055
-490.508	-105.595	0.114	0.026
-489.493	-161.086	0.146	0.008
-488.478	-183.776	-0.414	-0.007
-487.464	256.226	-0.239	-0.407
-486.449	-200.000	-0.025	0.371
-485.435	-110.328	-0.221	0.046
-484.420	800.000	-0.117	-0.336
-483.405	-200.000	0.021	0.139
-482.391	-30.293	-0.210	0.118
-481.376	355.746	0.105	-0.208
-480.362	-120.553	0.227	0.038
-479.347	16.824	-0.341	-0.268
-478.332	-101.120	0.089	0.022
-477.318	-13.943	-0.153	0.098
-476.303	-200.000	0.045	-0.259
-475.289	25.353	-0.009	-0.007
-474.274	800.000	-0.091	-0.349
-473.259	-200.000	-0.004	-0.075
-472.245	5.914	-0.178	0.131
-471.230	221.463	0.079	0.127
-470.216	-178.392	0.441	0.010
-469.201	-89.415	-0.089	0.026
-468.186	-57.864	0.143	0.062
-467.172	-31.575	-0.220	0.123
-466.157	-99.628	-0.175	-0.044
-465.143	-200.000	-0.021	0.259
-464.128	-142.670	-0.047	0.005
-463.113	800.000	0.067	-0.198
-462.099	-163.770	0.246	-0.011
-461.084	331.397	-0.172	-0.329
-460.070	498.163	0.074	-0.168
-459.055	800.000	-0.038	0.154
-458.040	-160.972	0.120	-0.006
-457.026	-118.387	-0.437	-0.077
-456.011	-192.894	-0.299	-0.003
-454.997	5.750	-0.239	-0.175
-453.982	668.626	0.100	0.257
-452.968	218.732	0.095	-0.151
-451.953	-93.344	-0.256	0.070
-450.938	73.181	-0.183	0.189
-449.924	-200.000	0.032	-0.412
-448.909	-64.074	0.468	0.189
-447.895	-42.498	0.144	0.073
-446.880	198.428	-0.108	-0.164
-445.865	288.259	-0.190	0.342
-444.851	144.869	0.197	-0.262
-443.836	259.339	-0.071	0.121
-442.822	-200.000	0.028	0.168
-441.807	124.264	-0.032	0.040
-440.792	800.000	-0.039	0.130
-439.778	29.009	0.153	-0.128
-438.763	800.000	0.090	0.249
-437.749	-7.019	0.104	0.070
-436.734	-92.990	-0.083	-0.023
-435.719	-4.634	0.260	0.178
-434.705	-94.941	0.199	0.053
-433.690	-106.560	-0.074	0.016
-432.676	800.000	0.145	0.450
-431.661	-200.000	0.220	-0.001
-430.646	95.691	-0.137	0.155
-429.632	-66.328	-0.195	0.077
-428.617	-200.000	-0.017	0.260
-427.603	-200.000	-0.005	0.239
-426.588	-200.000	-0.014	-0.205
-425.573	-147.986	0.180	0.015
-424.559	4.067	0.092	-0.067
-423.544	68.848	-0.241	-0.245
-422.530	-43.289	0.095	0.048
-421.515	800.000	0.051	0.201
-420.500	-123.097	0.208	-0.033
-419.486	-134.971	-0.172	-0.021
-418.471	674.504	0.002	0.006
-417.457	-109.294	0.239	0.050
-416.442	-141.884	-0.343	0.034
-415.428	800.000	0.086	-0.247
-414.413	-200.000	0.001	0.360
-413.398	-200.000	-0.012	0.132
-412.384	22.623	-0.161	0.130
-411.369	-101.955	-0.318	-0.076
-410.355	-200.000	-0.059	0.295
-409.340	105.089	0.279	-0.326
-408.325	800.000	-0.061	-0.175
-407.311	680.457	0.070	-0.179
-406.296	-63.396	0.285	-0.116
-405.282	-99.864	0.493	0.122
-404.267	-200.000	-0.033	0.208
-403.252	-200.000	0.007	0.046
-402.238	-100.749	-0.351	0.086
-401.223	-37.890	0.287	-0.151
-400.209	800.000	-0.049	-0.184
-399.194	261.988	0.240	0.413
-398.179	206.290	0.164	0.253
-397.165	-8.423	-0.347	0.231
-396.150	-200.000	0.022	0.155
-395.136	-86.005	0.106	-0.032
-394.121	24.123	0.149	-0.122
-393.106	166.068	-0.165	0.231
-392.092	-3.658	0.061	0.042
-391.077	-146.117	0.444	-0.039
-390.063	-200.000	-0.311	-0.001
-389.048	-125.752	0.399	0.060
-388.033	-200.000	-0.032	-0.238
-387.019	-12.088	-0.122	0.079
-386.004	174.309	0.052	-0.074
-384.990	-5.322	-0.257	0.175
-383.975	800.000	-0.045	-0.166
-382.960	-134.105	-0.089	-0.011
-381.946	138.932	0.159	-0.207
-380.931	749.489	0.074	-0.197
-379.917	-200.000	-0.015	-0.214
-378.902	-98.259	-0.263	0.067
-377.888	360.047	-0.086	-0.171
-376.873	-139.510	0.194	-0.020
-375.858	155.033	0.151	0.205
-374.844	-83.065	0.256	-0.082
-373.829	138.608	-0.148	0.193
-372.815	-43.206	-0.130	0.065
-371.800	-20.607	-0.161	-0.098
-370.785	48.408	-0.157	-0.145
-369.771	-178.418	-0.144	0.003
-368.756	800.000	-0.118	-0.323
-367.742	166.203	-0.101	-0.141
-366.727	141.824	0.163	-0.214
-365.712	-41.925	-0.112	-0.057
-364.698	-133.310	-0.066	-0.008
-363.683	251.520	-0.201	0.337
-362.669	-80.589	-0.412	0.136
-361.654	-47.832	0.082	0.039
-360.639	800.000	0.087	0.241
-359.625	592.016	-0.062	0.151
-358.610	111.321	-0.079	0.094
-357.596	9.182	0.290	-0.217
-356.581	36.088	0.432	0.376
-355.566	-107.955	-0.147	0.032
-354.552	6.126	-0.196	0.144
-353.537	-200.000	0.015	-0.193
-352.523	-110.351	-0.243	0.050
-351.508	-200.000	0.016	-0.118
-350.493	-200.000	-0.064	-0.550
-349.479	-102.839	0.085	-0.020
-348.464	11.533	0.087	0.066
-347.450	-114.662	-0.064	0.012
-346.435	-200.000	-0.031	-0.253
-345.420	-17.728	0.115	-0.072
-344.406	-21.795	-0.256	-0.154
-343.391	-53.893	0.096	-0.043
-342.377	-128.932	0.418	-0.058
-341.362	-83.033	0.351	0.112
-340.348	129.310	-0.117	0.147
-339.333	-65.189	-0.204	0.081
-338.318	-75.221	0.109	0.038
-337.304	61.540	0.156	-0.153
-336.289	-200.000	0.014	0.131
-335.275	-52.868	-0.167	0.076
-334.260	-48.988	0.217	0.103
-333.245	132.315	0.064	-0.082
-332.231	-143.474	0.132	0.012
-331.216	106.748	-0.152	0.178
-330.202	-112.401	-0.280	-0.055
-329.187	-115.605	0.362	0.067
-328.172	-159.204	0.219	-0.012
-327.158	800.000	-0.036	-0.115
-326.143	-200.000	-0.027	0.135
-325.129	-200.000	0.031	-0.336
-324.114	-156.613	0.150	0.009
-323.099	39.053	-0.231	0.204
-322.085	565.852	-0.166	-0.398
-321.070	466.016	0.100	0.221
-320.056	438.823	-0.012	0.026
-319.041	596.924	-0.060	0.146
-318.026	43.942	0.254	-0.230
-317.012	-95.657	-0.321	0.085
-315.997	-200.000	-0.039	-0.403
-314.983	704.187	-0.121	-0.315
-313.968	47.355	0.138	0.127
-312.953	-96.386	0.270	0.070
-311.939	-200.000	0.003	0.544
-310.924	-82.444	-0.278	0.089
-309.910	-3.184	-0.119	0.082
-308.895	-200.000	0.021	0.313
-307.880	-123.553	0.226	0.035
-306.866	800.000	-0.029	-0.120
-305.851	299.311	0.069	0.126
-304.837	-84.348	0.216	0.068
-303.822	-200.000	-0.003	-0.053
-302.807	-111.886	0.043	0.009
-301.793	-69.092	-0.287	0.109
-300.778	-137.682	0.295	-0.033
-299.764	-70.245	0.204	-0.077
-298.749	-46.244	-0.082	0.040
-297.735	800.000	0.050	0.183
-296.720	-59.338	0.321	0.136
-295.705	-54.969	-0.255	0.113
-294.691	-200.000	-0.040	0.246
-293.676	277.787	-0.125	0.220
-292.662	800.000	-0.053	-0.222
-291.647	-99.055	-0.187	0.047
-290.632	-200.000	0.026	0.126
-289.618	11.117	-0.364	-0.275
-288.603	-45.618	-0.146	-0.071
-287.589	-126.952	0.288	0.042
-286.574	-98.757	0.346	0.087
-285.559	643.744	0.078	0.196
-284.545	-91.184	0.129	0.037
-283.530	70.229	0.199	-0.203
-282.516	-2.023	-0.212	-0.147
-281.501	441.268	0.070	-0.151
-280.486	-200.000	0.029	-0.193
-279.472	800.000	-0.061	-0.225
-278.457	-176.594	0.236	0.006
-277.443	-72.728	-0.268	0.097
-276.428	-200.000	-0.037	-0.235
-275.413	350.510	0.137	-0.266
-274.399	-55.297	0.228	0.101
-273.384	24.089	-0.076	-0.061
-272.370	95.266	0.217	0.244
-271.355	800.000	-0.153	0.478
-270.340	733.048	-0.162	-0.427
-269.326	160.253	0.114	0.157
-268.311	-133.797	0.100	-0.012
-267.297	-200.000	0.015	0.143
-266.282	-28.245	0.331	0.188
-265.267	-136.422	-0.369	0.042
-264.253	90.894	-0.054	0.060
-263.238	-103.784	0.037	0.008
-262.224	-173.600	0.084	-0.002
-261.209	800.000	-0.067	-0.244
-260.195	-70.955	0.284	0.105
-259.180	105.289	-0.264	0.307
-258.165	-200.000	-0.005	0.125
-257.151	38.916	-0.237	-0.209
-256.136	800.000	-0.064	0.200
-255.122	19.383	-0.128	-0.101
-254.107	-13.313	0.298	0.190
-253.092	184.297	0.169	0.246
-252.078	-20.852	0.245	0.148
-251.063	38.042	0.046	0.041
-250.049	327.197	-0.097	-0.183
-249.034	-21.616	0.204	0.122
-248.019	-77.600	-0.302	0.103
-247.005	-82.843	-0.414	0.132
-245.990	223.548	0.309	-0.491
-244.976	104.210	0.218	-0.253
-243.961	-12.635	0.209	0.134
-242.946	464.264	-0.088	0.193
-241.932	29.866	0.219	-0.183
-240.917	800.000	-0.050	-0.165
-239.903	271.023	-0.165	-0.286
-238.888	570.207	-0.124	-0.296
-237.873	-14.085	0.363	-0.231
-236.859	-200.000	-0.024	-0.128
-235.844	-85.559	-0.167	0.051
-234.830	134.089	0.348	-0.444
-233.815	171.614	-0.108	0.152
-232.800	800.000	0.101	-0.290
-231.786	138.042	-0.135	-0.174
-230.771	-82.359	-0.278	0.089
-229.757	230.125	-0.162	0.260
-228.742	-9.704	0.178	0.117
-227.727	800.000	0.073	0.258
-226.713	8.583	0.268	-0.198
-225.698	225.711	-0.107	0.170
-224.684	-97.706	-0.073	0.019
-223.669	-200.000	-0.001	0.339
-222.655	-144.140	0.420	0.039
-221.640	94.607	-0.145	0.162
-220.625	800.000	-0.062	0.178
-219.611	-135.408	0.104	-0.012
-218.596	56.160	-0.194	-0.185
-217.582	-126.434	0.233	0.034
-216.567	9.611	0.284	-0.212
-215.552	-104.816	0.249	0.056
-214.538	83.650	0.247	0.265
-213.523	-84.386	0.369	0.115
-212.509	-48.921	-0.246	-0.116
-211.494	729.885	-0.011	0.029
-210.479	-200.000	-0.100	0.631
-209.465	-88.626	0.360	0.105
-208.450	-47.257	0.372	-0.178
-207.436	-133.400	-0.052	-0.006
-206.421	601.018	0.062	0.151
-205.406	-12.224	-0.281	0.181
-204.392	168.786	0.198	-0.277
-203.377	291.475	0.128	0.229
-202.363	-181.673	-0.431	-0.008
-201.348	-200.000	0.032	-0.365
-200.333	-105.724	-0.351	0.078
-199.319	123.595	-0.132	-0.162
-198.304	462.463	0.106	-0.232
-197.290	-109.948	-0.169	-0.035
-196.275	61.652	-0.061	-0.059
-195.260	249.594	0.148	-0.247
-194.246	-69.885	0.373	0.140
-193.231	271.475	0.098	0.170
-192.217	-200.000	0.010	0.087
-191.202	-200.000	-0.091	0.425
-190.187	-72.209	0.181	0.066
-189.173	-147.753	0.093	-0.008
-188.158	-119.185	-0.236	-0.041
-187.144	-200.000	0.017	-0.216
-186.129	-172.127	0.071	-0.002
-185.114	212.843	-0.166	-0.258
-184.100	31.999	-0.282	0.239
-183.085	257.602	0.055	0.092
-182.071	512.002	0.082	-0.186
-181.056	-200.000	0.055	-0.263
-180.042	800.000	-0.046	0.170
-179.027	-200.000	0.014	-0.140
-178.012	-14.396	-0.289	-0.182
-176.998	-56.863	-0.391	-0.170
-175.983	-200.000	0.011	-0.081
-174.969	27.735	0.319	0.263
-173.954	-104.379	-0.083	-0.019
-172.939	-200.000	0.012	-0.074
-171.925	82.673	0.099	-0.106
-170.910	-131.297	0.165	-0.021
-169.896	124.401	0.090	0.111
-168.881	372.283	-0.131	0.261
-167.866	-200.000	0.008	0.154
-166.852	-200.000	-0.082	-0.543
-165.837	422.251	0.083	0.175
-164.823	-47.824	0.071	-0.034
-163.808	35.953	-0.169	-0.146
-162.793	-200.000	0.078	0.493
-161.779	-200.000	0.020	0.089
-160.764	101.820	-0.178	0.204
-159.750	37.837	-0.273	-0.238
-158.735	-19.347	0.082	0.050
-157.720	-200.000	0.012	-0.107
-156.706	-83.551	-0.296	-0.093
-155.691	-83.089	0.259	0.082
-154.677	448.325	-0.144	-0.310
-153.662	-91.617	0.302	-0.084
-152.647	62.010	-0.063	-0.062
-151.633	342.116	0.166	0.319
-150.618	-200.000	0.006	0.061
-149.604	134.899	-0.094	0.119
-148.589	251.419	-0.214	0.357
-147.574	-87.912	-0.284	-0.084
-146.560	-157.264	-0.261	-0.016
-145.545	-200.000	0.080	-0.342
-144.531	-21.821	0.091	0.054
-143.516	-55.306	0.223	-0.098
-142.502	-200.000	-0.024	-0.316
-141.487	-18.200	-0.070	0.043
-140.472	751.982	-0.066	-0.174
-139.458	-51.772	0.361	-0.165
-138.443	305.586	-0.063	-0.115
-137.429	188.223	0.096	0.141
-136.414	800.000	-0.053	0.213
-135.399	800.000	-0.079	-0.229
-134.385	-200.000	-0.018	-0.155
-133.370	-200.000	0.032	0.240
-132.356	14.103	-0.167	-0.127
-131.341	50.670	0.187	-0.174
-130.326	38.337	-0.261	0.228
-129.312	19.802	0.116	-0.091
-128.297	11.957	0.082	-0.062
-127.283	-61.221	0.289	0.119
-126.268	26.292	0.166	-0.136
-125.253	-200.000	0.003	-0.051
-124.239	243.144	0.177	-0.290
-123.224	-20.295	-0.171	-0.103
-122.210	-111.403	-0.079	-0.016
-121.195	-200.000	0.003	0.072
-120.180	-200.000	-0.037	-0.233
-119.166	148.875	-0.237	-0.314
-118.151	30.569	-0.146	-0.122
-117.137	-200.000	-0.005	-0.059
-116.122	-91.372	0.081	0.023
-115.107	-33.790	-0.234	0.126
-114.093	393.584	0.181	-0.369
-113.078	800.000	0.085	0.309
-112.064	-22.951	-0.398	0.235
-111.049	308.608	0.146	0.268
-110.034	78.789	-0.204	0.214
-109.020	-18.969	0.239	-0.146
-108.005	-43.422	-0.300	0.148
-106.991	75.714	-0.115	0.119
-105.976	-67.498	-0.239	-0.092
-104.962	-200.000	0.005	-0.092
-103.947	-200.000	-0.011	0.294
-102.932	80.649	-0.094	-0.099
-101.918	-35.812	-0.190	-0.101
-100.903	800.000	-0.050	-0.151
-99.889	-11.911	0.212	-0.136
-98.874	367.959	-0.062	-0.122
-97.859	632.039	0.198	0.490
-96.845	49.341	0.093	0.086
-95.830	-72.895	-0.136	0.049
-94.816	-106.321	0.263	0.058
-93.801	-143.498	0.179	0.017
-92.786	-66.291	-0.187	0.073
-91.772	98.712	0.245	0.276
-90.757	800.000	-0.128	-0.484
-89.743	5.967	-0.174	0.126
-88.728	-153.935	-0.249	0.017
-87.713	142.923	-0.206	0.268
-86.699	133.665	0.063	0.080
-85.684	16.654	-0.147	0.114
-84.670	371.772	-0.024	-0.048
-83.655	-123.627	-0.302	0.047
-82.640	49.318	-0.221	0.203
-81.626	324.607	-0.079	0.147
-80.611	103.405	0.184	0.212
-79.597	290.205	0.083	-0.147
-78.582	-24.814	-0.279	0.162
-77.567	166.974	0.120	0.166
-76.553	-18.143	-0.145	-0.089
-75.538	14.307	-0.413	0.315
-74.524	51.746	0.337	-0.313
-73.509	-143.638	0.117	0.011
-72.494	-34.108	0.070	-0.038
-71.480	-112.091	-0.387	0.076
-70.465	288.821	-0.113	0.199
-69.451	-34.631	0.214	0.115
-68.436	11.555	0.234	-0.175
-67.422	426.174	-0.237	0.499
-66.407	-163.876	0.098	-0.004
-65.392	-200.000	-0.002	-0.280
-64.378	800.000	-0.165	-0.474
-63.363	800.000	-0.084	-0.238
-62.349	105.446	0.139	0.161
-61.334	83.279	-0.956	-1.017
-60.319	58.004	0.749	0.716
-59.305	461.860	-0.533	-1.163
-58.290	219.998	0.910	1.424
-57.276	463.289	0.741	1.618
-56.261	-200.000	116.371	646.568
-55.246	504.776	1539.601	3482.636
-54.232	174.074	2721.195	3840.556
-53.217	98.728	2297.591	2589.753
-52.203	35.533	1903.791	1632.861
-51.188	29.675	1696.208	1410.219
-50.173	27.274	1654.732	1357.780
-49.159	47.820	1711.879	1561.266
-48.144	46.357	1725.619	1562.634
-47.130	29.144	1683.292	1395.238
-46.115	26.501	1669.137	1363.564
-45.100	26.416	1663.814	1358.522
-44.086	26.376	1661.326	1356.138
-43.071	26.288	1659.248	1353.722
-42.057	26.321	1656.788	1351.908
-41.042	26.371	1654.359	1350.247
-40.027	26.272	1652.677	1348.085
-39.013	26.346	1650.382	1346.713
-37.998	26.312	1649.049	1345.315
-36.984	26.306	1647.648	1344.074
-35.969	26.440	1646.151	1343.792
-34.954	26.626	1643.792	1343.199
-33.940	26.420	1642.927	1340.908
-32.925	26.485	1640.987	1339.751
-31.911	26.521	1639.230	1338.531
-30.896	26.525	1637.287	1336.922
-29.881	26.472	1635.906	1335.352
-28.867	26.493	1634.334	1334.167
-27.852	26.504	1632.934	1333.056
-26.838	26.581	1631.293	1332.230
-25.823	26.564	1630.053	1331.041
-24.809	26.669	1628.270	1330.304
-23.794	26.512	1627.531	1328.494
-22.779	26.439	1626.313	1326.909
-21.765	26.471	1624.401	1325.529
-20.750	26.436	1622.749	1323.877
-19.736	26.485	1621.589	1323.232
-18.721	26.573	1619.650	1322.242
-17.706	26.534	1618.458	1320.933
-16.692	26.496	1617.069	1319.470
-15.677	26.546	1615.597	1318.582
-14.663	26.594	1613.655	1317.291
-13.648	26.532	1612.412	1315.777
-12.633	26.514	1611.259	1314.646
-11.619	26.496	1609.358	1312.913
-10.604	26.523	1608.280	1312.181
-9.590	26.572	1606.514	1311.039
-8.575	26.613	1604.973	1310.032
-7.560	26.543	1603.866	1308.567
-6.546	26.617	1602.632	1308.042
-5.531	26.485	1602.075	1306.586
-4.517	26.513	1600.889	1305.763
-3.502	26.539	1599.700	1304.931
-2.487	26.561	1598.039	1303.681
-1.473	26.240	1586.544	1291.958
-0.458	23.476	1567.183	1256.588
0.556	21.004	1568.770	1226.945
1.571	18.715	1593.474	1229.779
2.586	18.306	1605.092	1235.685
3.600	16.115	1549.322	1177.360
4.615	9.431	1441.544	1051.810
5.629	4.009	1382.924	974.873
6.644	3.203	1375.126	964.245
7.659	3.171	1374.204	963.311
8.673	3.240	1373.111	962.890
9.688	3.216	1371.321	961.401
10.702	3.165	1368.449	958.986
11.717	5.740	1372.732	977.985
12.731	12.875	1386.407	1032.462
13.746	19.079	1395.948	1078.476
14.761	20.383	1396.994	1087.361
15.775	19.726	1395.104	1081.683
16.790	18.606	1393.172	1073.083
17.804	18.003	1390.212	1066.944
18.819	17.501	1389.321	1063.036
19.834	17.343	1388.559	1061.369
20.848	17.212	1387.149	1059.384
21.863	16.961	1385.936	1056.800
22.877	17.018	1384.141	1055.690
23.892	16.922	1383.663	1054.634
24.907	16.879	1382.787	1053.606
25.921	16.830	1382.116	1052.695
26.936	16.806	1381.524	1052.002
27.950	16.892	1379.981	1051.270
28.965	16.989	1379.480	1051.400
29.980	17.200	1378.010	1051.487
30.994	17.158	1377.066	1050.418
32.009	17.197	1376.214	1049.915
33.023	17.189	1374.697	1048.618
34.038	17.143	1373.459	1047.294
35.053	17.051	1371.908	1045.451
36.067	16.956	1371.282	1044.298
37.082	17.127	1369.996	1044.281
38.096	17.112	1369.106	1043.413
39.111	17.087	1368.230	1042.504
40.126	17.040	1367.590	1041.631
41.140	16.858	1366.323	1039.461
42.155	16.720	1365.524	1037.916
43.169	16.606	1365.944	1037.443
44.184	16.694	1364.911	1037.108
45.199	16.682	1364.869	1036.907
46.213	16.840	1363.880	1037.033
47.228	16.966	1363.478	1037.404
48.242	16.991	1362.141	1036.450
49.257	16.944	1360.910	1035.133
50.271	16.917	1358.946	1033.385
51.286	16.917	1358.075	1032.627
52.301	16.968	1356.214	1031.435
53.315	16.880	1355.749	1030.454
54.330	16.805	1354.485	1028.948
55.344	16.810	1352.808	1027.615
56.359	16.809	1352.435	1027.231
57.374	16.689	1351.476	1025.685
58.388	16.804	1350.179	1025.305
59.403	16.649	1350.022	1024.157
60.417	16.622	1348.943	1023.088
61.432	16.594	1348.525	1022.510
62.447	16.449	1347.413	1020.698
63.461	16.518	1346.007	1019.960
64.476	16.444	1344.754	1018.478
65.490	16.505	1343.658	1017.923
66.505	16.562	1342.076	1016.979
67.520	16.672	1340.833	1016.603
68.534	16.545	1340.294	1015.347
69.549	16.589	1339.138	1014.641
70.563	16.476	1338.116	1013.099
71.578	16.441	1336.870	1011.858
72.593	16.358	1335.726	1010.406
73.607	16.337	1335.655	1010.140
74.622	16.311	1334.213	1008.806
75.636	16.396	1333.895	1008.981
76.651	16.463	1333.285	1008.831
77.666	16.446	1332.744	1008.230
78.680	16.607	1332.012	1008.544
79.695	16.500	1331.530	1007.458
80.709	16.588	1330.915	1007.425
81.724	16.686	1329.999	1007.223
82.739	16.731	1329.029	1006.671
83.753	16.815	1328.382	1006.588
84.768	16.957	1327.299	1006.524
85.782	17.046	1326.583	1006.418
86.797	16.988	1324.902	1004.711
87.812	17.098	1323.595	1004.280
88.826	17.008	1322.234	1002.626
89.841	16.968	1321.439	1001.700
90.855	17.056	1320.639	1001.521
91.870	17.085	1319.880	1001.032
92.884	17.145	1318.595	1000.323
93.899	17.147	1318.193	999.940
94.914	17.222	1317.150	999.501
95.928	17.157	1316.692	998.683
96.943	17.143	1315.040	997.257
97.957	17.139	1314.304	996.590
98.972	17.114	1313.683	995.883
99.987	17.071	1312.868	994.926
101.001	16.975	1311.819	993.482
102.016	17.036	1310.752	992.941
103.030	17.063	1309.953	992.407
104.045	17.025	1308.845	991.258
105.060	16.888	1307.147	989.083
106.074	16.802	1305.589	987.317
107.089	16.547	1304.400	984.847
108.103	16.527	1302.865	983.481
109.118	16.605	1301.642	982.929
110.133	16.644	1300.158	981.942
111.147	16.639	1298.793	980.800
112.162	16.719	1297.741	980.377
113.176	16.685	1296.827	979.405
114.191	16.724	1295.743	978.728
115.206	16.714	1294.752	977.832
116.220	16.744	1293.310	976.828
117.235	16.618	1292.550	975.444
118.249	16.640	1291.602	974.770
119.264	16.599	1290.454	973.580
120.279	16.610	1288.888	972.377
121.293	16.583	1288.271	971.668
122.308	16.451	1287.145	969.977
123.322	16.473	1285.652	968.893
124.337	16.416	1284.849	967.876
125.352	16.536	1283.713	967.623
126.366	16.443	1282.992	966.457
127.381	16.439	1281.743	965.409
128.395	16.358	1281.085	964.367
129.410	16.556	1279.772	964.419
130.424	16.547	1279.214	963.864
131.439	16.541	1278.387	963.121
132.454	16.636	1277.071	962.587
133.468	16.620	1276.818	962.218
134.483	16.694	1275.690	961.705
135.497	16.719	1274.638	960.967
136.512	16.675	1273.815	960.013
137.527	16.731	1272.465	959.230
138.541	16.656	1270.845	957.500
139.556	16.776	1269.568	957.129
140.570	16.929	1268.742	957.286
141.585	16.999	1267.536	956.688
142.600	16.988	1266.392	955.674
143.614	17.069	1265.323	955.238
144.629	17.199	1264.356	955.156
145.643	17.077	1263.345	953.625
146.658	16.919	1262.215	951.799
147.673	16.919	1260.429	950.365
148.687	16.643	1260.017	948.427
149.702	16.754	1257.929	947.393
150.716	16.739	1256.784	946.359
151.731	16.722	1255.987	945.582
152.746	16.821	1254.146	944.665
153.760	16.915	1253.066	944.293
154.775	16.974	1252.375	944.013
155.789	17.062	1251.683	943.898
156.804	17.118	1250.067	942.910
157.819	17.059	1249.306	941.921
158.833	17.155	1248.317	941.628
159.848	17.255	1247.707	941.640
160.862	17.121	1247.246	940.465
161.877	17.074	1245.154	938.544
162.892	16.821	1244.380	936.479
163.906	16.778	1244.192	936.018
164.921	16.901	1242.830	935.590
165.935	16.974	1241.970	935.259
166.950	16.944	1241.314	934.517
167.964	17.067	1240.114	934.208
168.979	16.872	1239.607	932.672
169.994	17.041	1238.698	932.835
171.008	16.980	1238.012	931.899
172.023	17.050	1237.167	931.567
173.037	17.334	1236.169	932.288
174.052	17.190	1235.724	931.085
175.067	17.063	1233.891	928.925
176.081	16.934	1233.025	927.483
177.096	16.958	1232.200	926.915
178.110	16.945	1231.266	926.059
179.125	16.960	1230.066	925.156
180.140	17.085	1229.018	924.965
181.154	17.117	1227.895	924.214
182.169	17.269	1226.700	924.058
183.183	17.164	1226.266	923.078
184.198	17.354	1224.055	922.364
185.213	17.272	1223.358	921.315
186.227	17.401	1222.333	921.159
187.242	17.325	1221.538	920.065
188.256	17.379	1220.355	919.387
189.271	17.476	1219.130	918.907
190.286	17.250	1218.582	917.190
191.300	16.996	1217.088	914.616
192.315	16.902	1216.616	913.673
193.329	16.896	1216.151	913.214
194.344	16.948	1215.364	912.820
195.359	17.150	1214.933	913.501
196.373	17.076	1214.673	912.825
197.388	17.371	1214.072	913.881
198.402	17.378	1214.079	913.841
199.417	17.508	1213.199	913.794
200.432	17.699	1212.268	914.039
201.446	17.617	1211.476	912.920
202.461	17.665	1210.642	912.467
203.475	17.691	1209.544	911.698
204.490	17.535	1208.242	909.802
205.504	17.449	1206.938	908.282
206.519	17.424	1205.715	907.148
207.534	17.459	1204.247	906.152
208.548	17.589	1203.182	905.961
209.563	17.414	1203.023	904.831
210.577	17.365	1202.255	903.911
211.592	17.567	1201.381	904.246
212.607	17.636	1200.532	903.896
213.621	17.554	1199.554	902.641
214.636	17.643	1198.099	901.938
215.650	17.604	1197.585	901.270
216.665	17.755	1196.445	901.130
217.680	17.826	1195.958	901.054
218.694	17.819	1195.344	900.476
219.709	17.787	1194.223	899.382
220.723	17.815	1193.789	899.124
221.738	17.807	1193.051	898.446
222.753	17.750	1192.172	897.406
223.767	17.802	1191.175	896.849
224.782	17.860	1190.885	896.858
225.796	17.981	1190.322	896.991
226.811	18.030	1189.841	896.802
227.826	17.864	1188.725	895.016
228.840	17.774	1188.371	894.195
229.855	17.678	1187.582	893.019
230.869	17.819	1186.177	892.621
231.884	17.701	1185.803	891.645
232.899	17.657	1184.768	890.557
233.913	17.606	1184.341	889.892
234.928	17.707	1183.171	889.461
235.942	17.629	1182.442	888.426
236.957	17.704	1182.022	888.424
237.972	17.489	1181.018	886.468
238.986	17.601	1180.134	886.312
240.001	17.716	1179.634	886.455
241.015	17.629	1178.668	885.197
242.030	17.813	1177.962	885.546
243.045	17.821	1177.221	884.952
244.059	17.873	1176.102	884.299
245.074	17.879	1175.831	884.052
246.088	17.802	1175.290	883.168
247.103	17.854	1174.337	882.640
248.117	18.027	1173.598	882.900
249.132	18.170	1172.936	883.063
250.147	18.306	1172.421	883.301
251.161	18.482	1171.395	883.357
252.176	18.418	1171.423	882.969
253.190	18.421	1170.853	882.475
254.205	18.502	1170.124	882.267
255.220	18.619	1169.296	882.168
256.234	18.504	1168.551	880.932
257.249	18.587	1167.970	880.847
258.263	18.555	1167.290	880.092
259.278	18.557	1166.514	879.437
260.293	18.484	1166.539	879.003
261.307	18.668	1165.457	879.052
262.322	18.619	1165.034	878.407
263.336	18.687	1164.333	878.150
264.351	18.630	1163.860	877.423
265.366	18.794	1162.818	877.399
266.380	18.757	1161.860	876.409
267.395	18.637	1161.404	875.373
268.409	18.542	1160.624	874.222
269.424	18.494	1159.661	873.175
270.439	18.582	1159.647	873.538
271.453	18.590	1157.887	872.174
272.468	18.468	1157.592	871.256
273.482	18.392	1156.829	870.219
274.497	18.498	1156.530	870.453
275.512	18.543	1155.720	869.996
276.526	18.430	1155.011	868.813
277.541	18.461	1154.158	868.250
278.555	18.610	1153.114	868.144
279.570	18.657	1152.657	867.958
280.585	18.821	1151.775	868.047
281.599	18.816	1150.663	867.108
282.614	18.663	1149.840	865.640
283.628	18.576	1148.533	864.140
284.643	18.637	1147.831	863.844
285.657	18.687	1147.336	863.646
286.672	18.681	1146.304	862.762
287.687	18.635	1145.335	861.723
288.701	18.756	1144.329	861.497
289.716	18.710	1143.830	860.817
290.730	18.705	1143.043	860.123
291.745	18.729	1142.612	859.843
292.760	18.737	1141.812	859.205
293.774	18.860	1141.343	859.390
294.789	18.851	1140.747	858.821
295.803	18.937	1139.954	858.579
296.818	18.834	1139.589	857.711
297.833	18.816	1138.224	856.519
298.847	18.816	1137.506	855.902
299.862	18.995	1136.113	855.668
300.876	18.901	1136.228	855.212
301.891	18.916	1135.558	854.706
302.906	19.044	1135.024	854.868
303.920	19.094	1134.202	854.420
304.935	19.254	1133.445	854.565
305.949	19.227	1133.197	854.168
306.964	19.280	1132.482	853.816
307.979	19.078	1131.848	852.265
308.993	19.207	1130.723	851.983
310.008	19.192	1129.876	851.191
311.022	19.359	1129.025	851.302
312.037	19.246	1128.184	850.032
313.052	19.078	1127.174	848.371
314.066	18.976	1126.634	847.383
315.081	18.950	1125.450	846.291
316.095	18.885	1124.650	845.298
317.110	18.892	1124.185	844.908
318.125	19.020	1122.991	844.562
319.139	18.922	1122.592	843.708
320.154	18.846	1122.117	842.901
321.168	18.952	1121.151	842.619
322.183	18.973	1120.760	842.358
323.197	19.044	1119.893	841.978
324.212	19.092	1119.581	841.902
325.227	19.079	1118.998	841.327
326.241	19.203	1118.008	841.114
327.256	19.163	1117.147	840.196
328.270	18.985	1116.378	838.673
329.285	19.042	1115.278	838.052
330.300	19.095	1114.285	837.489
331.314	18.986	1113.537	836.322
332.329	19.076	1112.662	836.031
333.343	19.015	1112.450	835.501
334.358	19.190	1111.271	835.392
335.373	19.268	1110.684	835.253
336.387	19.239	1109.757	834.342
337.402	19.257	1109.075	833.843
338.416	19.362	1108.484	833.830
339.431	19.442	1107.669	833.530
340.446	19.521	1107.395	833.635
341.460	19.675	1106.759	833.822
342.475	19.679	1105.785	833.037
343.489	19.750	1104.842	832.593
344.504	19.756	1103.905	831.841
345.519	19.676	1103.501	831.081
346.533	19.800	1102.170	830.598
347.548	19.925	1101.515	830.630
348.562	19.826	1101.285	829.908
349.577	19.703	1099.763	828.098
350.592	19.551	1098.670	826.475
351.606	19.596	1098.053	826.157
352.621	19.468	1097.385	824.967
353.635	19.459	1096.978	824.546
354.650	19.456	1096.165	823.844
355.665	19.511	1095.485	823.523
356.679	19.554	1094.707	823.072
357.694	19.562	1094.592	822.951
358.708	19.730	1093.785	823.071
359.723	19.658	1093.091	822.135
360.738	19.778	1092.257	822.004
361.752	19.713	1091.804	821.282
362.767	19.579	1091.563	820.390
363.781	19.756	1090.838	820.614
364.796	19.805	1090.550	820.559
365.810	19.802	1090.190	820.199
366.825	19.936	1089.064	819.912
367.840	20.025	1089.191	820.358
368.854	20.069	1088.389	819.889
369.869	20.044	1087.497	819.028
370.883	19.984	1086.363	817.817
371.898	19.936	1085.579	816.930
372.913	19.914	1085.393	816.615
373.927	19.992	1084.441	816.190
374.942	20.153	1084.066	816.597
375.956	20.097	1083.377	815.739
376.971	20.085	1082.769	815.155
377.986	20.194	1082.701	815.541
379.000	20.336	1082.387	815.902
380.015	20.325	1081.050	814.773
381.029	20.308	1080.843	814.465
382.044	20.393	1079.900	814.081
383.059	20.248	1079.550	813.061
384.073	20.296	1078.602	812.502
385.088	20.417	1077.015	811.799
386.102	20.232	1076.364	810.373
387.117	20.235	1075.260	809.483
388.132	20.068	1074.599	808.138
389.146	20.117	1073.640	807.574
390.161	20.018	1073.074	806.615
391.175	20.112	1072.393	806.470
392.190	20.147	1072.034	806.292
393.205	20.262	1070.679	805.735
394.219	20.284	1069.995	805.251
395.234	20.192	1069.181	804.137
396.248	20.278	1067.859	803.470
397.263	20.202	1066.956	802.369
398.278	20.034	1066.660	801.298
399.292	20.120	1065.587	800.818
400.307	20.063	1064.582	799.731
401.321	20.035	1064.363	799.364
402.336	20.145	1063.501	799.156
403.350	20.077	1062.649	798.131
404.365	20.269	1062.079	798.518
405.380	20.230	1061.675	797.962
406.394	20.304	1060.939	797.677
407.409	20.387	1060.001	797.286
408.423	20.568	1059.583	797.727
409.438	20.486	1059.064	796.893
410.453	20.535	1058.207	796.401
411.467	20.700	1057.256	796.370
412.482	20.698	1056.900	796.024
413.496	20.694	1056.305	795.486
414.511	20.561	1056.305	794.809
415.526	20.929	1055.267	795.634
416.540	20.850	1055.078	795.064
417.555	20.879	1054.200	794.462
418.569	20.784	1053.633	793.533
419.584	20.765	1053.423	793.217
420.599	20.746	1052.804	792.595
421.613	155.125	1404.099	1795.311
422.628	142.336	1455.275	1795.396
