DTS Sentinel unit serial number:	SN413079Multiplexer serial number:	ORYXHardware model number:	OX4-SRSoftware version number:	ORYX F/W v4.00 Oryx Data Collector v3.7.2.0data status	okinstallation	princeton_trtdifferential loss correction	single-endedforward channel	channel 2reverse channel	N/Adate	2019/09/10time	17:53:11forward acquisition time	60.00reverse acquisition time	0.00gamma	496.2192k internal	0.2312k external	0.2312temperature offset calibration	0.9941default loss term (dB/km)	0.3790temperature slope calibration	1.0000multiplexer offset coefficient	1.0000multiplexer slope coefficient	1.0000fibre end	0.00T internal ref (°C)	37.36T ext. ref 1 (°C)	-0.34T ext. ref 2 (°C)	30.01length (m)	temperature (°C)	Stokes	anti-Stokes-747.200	281.319	0.118	0.214
-746.185	219.657	-0.100	0.162
-745.171	0.707	0.381	0.277
-744.156	345.649	-0.177	0.353
-743.142	46.950	0.223	0.210
-742.127	-45.674	-0.134	0.067
-741.112	-33.235	-0.070	-0.039
-740.098	139.836	-0.186	0.248
-739.083	-57.252	0.036	-0.016
-738.069	-151.933	-0.149	0.011
-737.054	-149.003	0.188	-0.015
-736.039	-76.743	-0.322	0.114
-735.025	44.993	0.063	0.059
-734.010	-77.577	-0.456	0.160
-732.996	240.824	-0.104	-0.176
-731.981	-200.000	0.019	0.139
-730.966	32.342	0.191	0.167
-729.952	800.000	0.098	0.367
-728.937	89.804	0.138	-0.156
-727.923	124.181	-0.232	-0.296
-726.908	-46.905	-0.517	0.256
-725.894	-66.781	-0.077	0.031
-724.879	26.192	-0.151	-0.128
-723.864	-100.533	-0.247	0.062
-722.850	-117.559	0.206	-0.038
-721.835	316.535	-0.048	-0.093
-720.821	-52.971	0.330	0.154
-719.806	662.767	0.111	-0.290
-718.791	800.000	0.094	-0.322
-717.777	12.923	0.147	-0.115
-716.762	-136.329	-0.229	0.027
-715.748	36.504	0.119	-0.106
-714.733	800.000	-0.067	-0.280
-713.718	246.295	0.053	-0.091
-712.704	297.559	0.063	-0.117
-711.689	515.903	0.069	0.164
-710.675	469.108	0.185	-0.422
-709.660	260.768	-0.065	-0.114
-708.645	-107.254	0.206	-0.046
-707.631	132.428	0.167	-0.219
-706.616	-113.104	0.337	0.067
-705.602	800.000	-0.146	-0.439
-704.587	370.023	-0.049	0.100
-703.572	-115.795	0.359	0.068
-702.558	300.763	0.155	0.290
-701.543	-163.664	0.265	-0.013
-700.529	-200.000	0.010	0.072
-699.514	-200.000	-0.010	-0.054
-698.499	-200.000	0.019	-0.294
-697.485	59.546	-0.046	0.046
-696.470	83.805	0.101	-0.112
-695.456	105.902	0.105	0.126
-694.441	632.116	-0.096	0.247
-693.426	-200.000	-0.004	0.058
-692.412	45.002	-0.300	0.280
-691.397	800.000	-0.074	-0.263
-690.383	19.121	0.086	0.070
-689.368	-200.000	-0.008	-0.107
-688.354	-11.464	0.033	0.022
-687.339	-28.454	-0.321	-0.187
-686.324	-200.000	0.010	-0.058
-685.310	-176.581	-0.156	-0.004
-684.295	800.000	0.092	-0.268
-683.281	800.000	0.081	0.270
-682.266	323.843	-0.098	-0.189
-681.251	57.053	0.118	-0.116
-680.237	-116.335	-0.219	-0.041
-679.222	6.271	0.375	-0.282
-678.208	219.846	-0.258	-0.417
-677.193	218.189	0.159	-0.257
-676.178	-200.000	-0.034	0.220
-675.164	-12.879	0.137	0.090
-674.149	800.000	0.107	-0.422
-673.135	121.914	0.093	0.117
-672.120	-200.000	0.031	-0.290
-671.105	800.000	-0.039	-0.164
-670.091	735.255	-0.118	0.319
-669.076	800.000	-0.051	0.163
-668.062	-200.000	0.034	-0.403
-667.047	118.327	-0.261	-0.325
-666.032	-73.840	-0.340	0.125
-665.018	-81.746	0.086	0.028
-664.003	237.352	-0.084	-0.140
-662.989	71.549	-0.181	0.190
-661.974	-35.465	-0.191	-0.105
-660.959	-49.507	-0.387	0.186
-659.945	395.583	-0.169	0.357
-658.930	113.388	-0.069	-0.084
-657.916	-83.265	0.263	0.085
-656.901	267.533	0.110	-0.195
-655.886	126.431	0.098	0.125
-654.872	-160.162	-0.055	-0.003
-653.857	800.000	-0.102	0.326
-652.843	191.725	-0.064	0.097
-651.828	-200.000	-0.053	-0.242
-650.814	-200.000	0.002	0.028
-649.799	800.000	-0.024	-0.092
-648.784	-200.000	0.019	-0.178
-647.770	-37.395	0.221	0.119
-646.755	-200.000	-0.039	-0.224
-645.741	22.995	0.162	-0.135
-644.726	7.329	-0.213	-0.161
-643.711	320.032	-0.130	0.250
-642.697	726.445	-0.066	-0.178
-641.682	-4.038	0.184	0.129
-640.668	-23.255	-0.024	-0.015
-639.653	-200.000	0.002	0.143
-638.638	-200.000	-0.002	-0.338
-637.624	295.795	0.131	-0.243
-636.609	144.101	0.376	-0.507
-635.595	-120.796	0.028	-0.005
-634.580	188.352	0.164	-0.248
-633.565	-200.000	-0.021	0.342
-632.551	-200.000	0.005	0.121
-631.536	-87.247	-0.041	0.013
-630.522	10.238	0.115	-0.088
-629.507	165.076	-0.065	0.092
-628.492	800.000	0.075	0.245
-627.478	440.177	-0.077	0.169
-626.463	-28.078	0.141	-0.082
-625.449	163.240	0.088	0.125
-624.434	-71.768	0.044	0.016
-623.419	211.597	0.016	0.025
-622.405	244.968	-0.029	0.050
-621.390	800.000	-0.062	-0.269
-620.376	-200.000	-0.016	0.085
-619.361	800.000	0.084	0.276
-618.346	-149.119	0.259	-0.021
-617.332	-28.897	0.203	-0.118
-616.317	-38.962	0.235	-0.125
-615.303	-29.355	-0.124	-0.072
-614.288	-43.176	0.230	-0.117
-613.273	-200.000	0.017	-0.133
-612.259	800.000	-0.084	-0.246
-611.244	-123.038	-0.118	0.019
-610.230	-200.000	0.024	0.153
-609.215	53.022	-0.220	0.212
-608.201	51.009	0.242	-0.231
-607.186	800.000	-0.050	-0.140
-606.171	-200.000	0.076	0.373
-605.157	46.133	-0.160	0.149
-604.142	-85.144	0.151	-0.048
-603.128	69.870	0.157	0.163
-602.113	768.940	0.142	0.391
-601.098	-200.000	0.055	0.251
-600.084	-14.288	-0.081	0.053
-599.069	-200.000	0.036	0.235
-598.055	121.049	0.287	-0.360
-597.040	344.110	-0.042	-0.084
-596.025	301.943	-0.058	0.108
-595.011	-72.977	0.280	0.104
-593.996	800.000	-0.007	0.022
-592.982	-45.448	0.066	-0.033
-591.967	669.840	0.083	0.216
-590.952	-200.000	-0.003	-0.060
-589.938	-200.000	0.001	0.092
-588.923	800.000	0.013	-0.051
-587.909	327.293	-0.120	-0.232
-586.894	13.359	0.348	-0.272
-585.879	-126.086	0.127	0.019
-584.865	284.569	0.135	-0.246
-583.850	800.000	-0.061	-0.210
-582.836	-7.367	0.194	-0.132
-581.821	210.614	0.063	-0.100
-580.806	-56.763	-0.172	-0.077
-579.792	21.182	-0.235	-0.192
-578.777	-200.000	0.012	-0.210
-577.763	126.537	-0.061	-0.078
-576.748	232.489	-0.071	0.117
-575.733	16.927	-0.112	-0.089
-574.719	-33.245	0.206	0.115
-573.704	-81.201	0.095	-0.031
-572.690	-200.000	0.016	0.168
-571.675	42.489	-0.282	0.259
-570.661	499.328	0.089	0.206
-569.646	-77.288	-0.317	0.111
-568.631	-119.777	-0.171	-0.030
-567.617	800.000	0.024	-0.097
-566.602	-200.000	0.021	-0.231
-565.588	-200.000	0.022	-0.195
-564.573	-200.000	0.000	-0.143
-563.558	-59.217	-0.184	0.080
-562.544	30.073	-0.111	0.096
-561.529	-200.000	0.003	0.157
-560.515	47.594	0.191	0.180
-559.500	-200.000	-0.106	-0.659
-558.485	-83.866	0.287	-0.092
-557.471	-200.000	0.014	0.156
-556.456	-200.000	-0.085	-0.438
-555.442	800.000	-0.009	0.031
-554.427	-76.628	-0.153	0.054
-553.412	213.331	0.048	-0.076
-552.398	800.000	-0.088	0.385
-551.383	-200.000	-0.004	0.019
-550.369	-18.915	0.067	0.042
-549.354	800.000	0.066	0.219
-548.339	-167.351	0.112	0.005
-547.325	-64.851	0.272	0.111
-546.310	-49.842	-0.110	-0.053
-545.296	-25.955	0.183	-0.109
-544.281	426.901	-0.103	0.224
-543.266	117.181	0.177	0.220
-542.252	-200.000	-0.012	0.172
-541.237	-200.000	-0.004	-0.117
-540.223	112.316	0.258	0.314
-539.208	-200.000	0.015	-0.111
-538.193	167.782	0.177	-0.253
-537.179	-136.017	-0.179	0.021
-536.164	-86.041	-0.133	-0.041
-535.150	-200.000	-0.073	0.331
-534.135	-165.051	0.201	0.009
-533.121	664.786	-0.067	-0.174
-532.106	35.378	-0.091	-0.080
-531.091	454.738	0.123	-0.274
-530.077	800.000	-0.055	-0.153
-529.062	387.057	-0.124	-0.258
-528.048	-200.000	-0.029	-0.129
-527.033	-141.791	-0.183	0.018
-526.018	800.000	0.026	0.094
-525.004	258.512	0.055	0.095
-523.989	-11.337	-0.198	-0.131
-522.975	800.000	0.048	0.135
-521.960	34.869	0.120	-0.106
-520.945	-94.836	-0.139	0.038
-519.931	-129.998	0.158	0.022
-518.916	800.000	0.068	-0.225
-517.902	-100.088	-0.225	-0.056
-516.887	148.494	0.284	0.385
-515.872	800.000	0.073	-0.292
-514.858	112.368	0.259	0.315
-513.843	-120.398	0.170	0.029
-512.829	-46.212	-0.222	0.110
-511.814	800.000	0.034	0.107
-510.799	-200.000	0.002	-0.215
-509.785	326.589	0.098	-0.189
-508.770	-159.727	-0.140	-0.008
-507.756	-200.000	-0.021	0.435
-506.741	-125.535	-0.318	0.049
-505.726	-200.000	-0.005	0.247
-504.712	-119.804	0.216	0.037
-503.697	143.283	-0.150	0.200
-502.683	187.597	0.021	-0.031
-501.668	-44.232	0.224	-0.113
-500.653	-9.248	-0.146	-0.098
-499.639	-87.932	-0.191	0.058
-498.624	337.772	-0.068	-0.132
-497.610	-163.388	-0.141	0.007
-496.595	-200.000	0.048	0.239
-495.581	-101.954	-0.220	-0.053
-494.566	88.226	-0.017	-0.019
-493.551	-99.470	0.312	0.079
-492.537	54.086	-0.161	-0.156
-491.522	297.157	0.063	-0.116
-490.508	-54.461	-0.073	-0.033
-489.493	-170.148	-0.203	0.007
-488.478	-200.000	0.001	-0.208
-487.464	-94.369	-0.248	-0.068
-486.449	-65.837	-0.140	-0.056
-485.435	-174.507	0.445	-0.013
-484.420	-111.279	-0.284	-0.058
-483.405	-57.764	-0.186	-0.082
-482.391	65.069	0.238	-0.242
-481.376	-62.543	-0.308	-0.128
-480.362	319.629	-0.182	0.346
-479.347	-200.000	0.010	-0.114
-478.332	-57.266	0.439	-0.194
-477.318	-166.837	-0.059	-0.002
-476.303	-79.451	-0.055	0.019
-475.289	-19.747	-0.182	0.113
-474.274	208.093	-0.050	-0.079
-473.259	-200.000	-0.016	0.187
-472.245	-37.799	-0.291	-0.155
-471.230	-74.484	-0.081	0.029
-470.216	121.366	-0.119	-0.148
-469.201	59.042	0.131	0.129
-468.186	298.229	0.027	-0.050
-467.172	-173.570	-0.351	-0.011
-466.157	800.000	-0.029	-0.096
-465.143	-26.448	-0.166	-0.097
-464.128	-5.548	0.142	-0.097
-463.113	-79.341	0.309	0.105
-462.099	-5.125	0.261	0.180
-461.084	-79.626	-0.045	0.015
-460.070	221.330	-0.233	0.376
-459.055	70.592	-0.106	-0.110
-458.040	4.876	-0.166	0.122
-457.026	-49.575	0.156	-0.075
-456.011	-93.827	-0.408	-0.113
-454.997	148.565	-0.267	0.362
-453.982	187.052	0.161	0.241
-452.968	-118.279	0.255	0.045
-451.953	590.349	-0.042	-0.104
-450.938	800.000	0.037	-0.163
-449.924	83.292	-0.098	-0.108
-448.909	159.727	-0.151	0.211
-447.895	800.000	0.097	0.339
-446.880	-200.000	-0.022	0.143
-445.865	800.000	0.113	-0.321
-444.851	800.000	-0.016	-0.062
-443.836	-105.400	-0.496	-0.113
-442.822	-45.634	-0.241	-0.119
-441.807	-158.916	-0.158	0.009
-440.792	7.880	0.129	-0.097
-439.778	80.529	0.070	0.076
-438.763	603.612	-0.136	-0.340
-437.749	-71.613	-0.106	0.040
-436.734	-200.000	-0.105	-0.000
-435.719	-68.354	-0.258	-0.101
-434.705	392.852	0.110	0.230
-433.690	-108.932	0.213	0.046
-432.676	22.087	0.081	-0.066
-431.661	-187.606	0.253	0.003
-430.646	-200.000	-0.008	-0.154
-429.632	132.484	-0.082	0.106
-428.617	107.196	-0.238	0.283
-427.603	-154.756	0.266	-0.018
-426.588	-26.774	-0.314	0.184
-425.573	-16.559	0.035	0.022
-424.559	-138.229	-0.380	-0.042
-423.544	-104.434	0.195	-0.045
-422.530	133.746	0.089	-0.115
-421.515	-38.255	0.144	-0.076
-420.500	-60.260	0.063	0.027
-419.486	120.681	0.165	0.205
-418.471	800.000	0.063	0.206
-417.457	-200.000	0.020	-0.116
-416.442	-75.084	0.147	0.053
-415.428	-87.190	-0.159	-0.048
-414.413	50.048	0.269	-0.254
-413.398	28.067	0.266	-0.225
-412.384	-91.769	0.272	-0.077
-411.369	126.494	-0.128	-0.162
-410.355	40.333	0.158	0.142
-409.340	-57.678	-0.150	-0.066
-408.325	-133.527	-0.248	0.031
-407.311	800.000	0.014	-0.046
-406.296	-200.000	-0.001	0.423
-405.282	-200.000	0.006	0.121
-404.267	567.092	0.076	0.184
-403.252	-76.336	-0.147	0.052
-402.238	-183.217	0.171	-0.003
-401.223	-200.000	0.012	-0.176
-400.209	-147.935	-0.254	0.021
-399.194	-200.000	0.008	0.346
-398.179	-188.491	-0.328	0.004
-397.165	800.000	0.043	-0.149
-396.150	125.470	0.005	-0.006
-395.136	97.973	0.117	0.135
-394.121	-131.088	-0.267	0.036
-393.106	74.325	0.154	-0.162
-392.092	-46.513	0.091	-0.045
-391.077	179.615	-0.089	-0.130
-390.063	211.678	-0.261	-0.412
-389.048	-26.232	0.201	-0.118
-388.033	-200.000	-0.006	-0.173
-387.019	129.243	0.084	0.108
-386.004	131.050	0.123	-0.158
-384.990	64.385	-0.082	-0.082
-383.975	-114.577	-0.016	-0.003
-382.960	175.138	0.064	-0.093
-381.946	-78.659	0.236	0.081
-380.931	-200.000	-0.038	0.298
-379.917	-90.977	0.321	0.092
-378.902	47.349	-0.186	0.173
-377.888	18.746	0.092	-0.074
-376.873	-86.535	0.078	-0.024
-375.858	-110.003	0.184	0.039
-374.844	133.631	-0.233	-0.301
-373.829	800.000	0.028	-0.122
-372.815	25.811	0.132	0.110
-371.800	140.656	-0.246	-0.326
-370.785	800.000	0.048	0.170
-369.771	85.028	0.189	-0.207
-368.756	-200.000	-0.015	-0.267
-367.742	-22.722	-0.128	-0.077
-366.727	-135.957	0.349	-0.041
-365.712	69.035	-0.125	-0.129
-364.698	219.311	-0.078	0.125
-363.683	139.829	-0.089	0.117
-362.669	290.407	-0.137	0.249
-361.654	-86.821	-0.200	-0.061
-360.639	47.761	0.124	0.116
-359.625	800.000	-0.070	0.259
-358.610	26.579	-0.378	0.316
-357.596	-85.870	0.194	-0.060
-356.581	37.036	-0.243	-0.215
-355.566	44.105	-0.225	-0.206
-354.552	-61.227	0.173	0.073
-353.537	534.055	0.266	0.629
-352.523	800.000	0.068	0.259
-351.508	364.982	-0.053	0.107
-350.493	-135.702	0.166	-0.020
-349.479	136.614	0.062	-0.081
-348.464	-99.922	-0.297	-0.074
-347.450	-200.000	0.012	-0.120
-346.435	-68.621	0.239	0.093
-345.420	213.518	-0.030	-0.047
-344.406	-55.217	-0.225	0.101
-343.391	-71.279	-0.236	-0.088
-342.377	-139.489	0.088	-0.009
-341.362	-48.089	-0.160	-0.077
-340.348	477.796	0.043	-0.096
-339.333	48.655	0.173	-0.162
-338.318	-79.669	0.120	0.040
-337.304	-43.472	-0.241	0.122
-336.289	-200.000	-0.012	-0.160
-335.275	-152.944	-0.250	0.018
-334.260	44.000	-0.267	-0.244
-333.245	256.864	0.019	0.032
-332.231	-200.000	-0.024	0.114
-331.216	-200.000	-0.026	0.151
-330.202	-88.547	0.060	-0.018
-329.187	171.594	-0.255	-0.366
-328.172	153.090	-0.166	-0.227
-327.158	-200.000	-0.028	-0.247
-326.143	17.223	-0.092	0.072
-325.129	-200.000	0.011	0.066
-324.114	-139.876	-0.096	-0.010
-323.099	-97.611	0.117	0.030
-322.085	-200.000	0.005	-0.065
-321.070	-114.202	-0.263	-0.051
-320.056	-95.016	0.204	0.055
-319.041	104.257	-0.091	-0.107
-318.026	-69.249	-0.132	-0.051
-317.012	-137.587	-0.231	-0.026
-315.997	38.442	-0.259	-0.231
-314.983	32.628	0.192	-0.165
-313.968	-7.036	0.191	0.130
-312.953	-7.765	0.273	0.184
-311.939	800.000	-0.147	0.424
-310.924	-200.000	-0.236	-0.000
-309.910	-140.534	-0.051	-0.005
-308.895	-200.000	0.011	-0.425
-307.880	72.088	0.139	0.144
-306.866	-200.000	0.057	0.264
-305.851	-57.018	0.115	0.051
-304.837	-77.709	-0.122	0.042
-303.822	-143.177	0.303	-0.029
-302.807	109.374	-0.102	0.122
-301.793	-200.000	0.010	-0.171
-300.778	-101.644	0.316	0.076
-299.764	74.723	-0.058	-0.061
-298.749	45.976	-0.080	-0.074
-297.735	309.274	-0.044	-0.083
-296.720	800.000	-0.017	0.070
-295.705	-200.000	-0.018	0.122
-294.691	-200.000	0.009	-0.189
-293.676	-200.000	-0.039	0.362
-292.662	800.000	0.061	0.216
-291.647	88.186	0.153	0.170
-290.632	800.000	0.110	0.330
-289.618	499.779	-0.061	0.141
-288.603	200.504	0.206	0.315
-287.589	800.000	-0.048	0.146
-286.574	800.000	-0.084	0.315
-285.559	-86.745	0.241	0.073
-284.545	125.568	0.179	-0.225
-283.530	86.694	0.013	0.014
-282.516	-131.560	0.017	0.002
-281.501	-200.000	-0.034	0.184
-280.486	-69.674	-0.170	-0.065
-279.472	40.218	-0.343	-0.308
-278.457	7.657	-0.296	-0.220
-277.443	462.159	-0.033	-0.074
-276.428	-106.193	-0.153	0.034
-275.413	-24.467	0.160	0.095
-274.399	-53.273	0.279	0.128
-273.384	800.000	-0.046	0.192
-272.370	-200.000	0.091	0.496
-271.355	353.554	0.145	-0.286
-270.340	800.000	-0.043	0.165
-269.326	-200.000	0.011	-0.168
-268.311	-147.908	-0.160	-0.013
-267.297	-27.024	0.088	-0.051
-266.282	-200.000	-0.013	-0.180
-265.267	-200.000	-0.037	-0.232
-264.253	222.258	-0.116	0.186
-263.238	-192.369	-0.216	0.002
-262.224	-200.000	0.002	-0.507
-261.209	46.889	0.237	0.219
-260.195	205.299	-0.104	0.160
-259.180	189.998	-0.187	0.280
-258.165	152.013	-0.136	0.185
-257.151	266.164	0.153	0.267
-256.136	78.583	0.178	0.190
-255.122	-183.150	0.275	0.005
-254.107	-200.000	0.001	0.101
-253.092	800.000	0.008	0.030
-252.078	61.583	0.143	-0.141
-251.063	166.229	-0.219	-0.309
-250.049	-200.000	0.059	-0.321
-249.034	254.816	0.040	-0.068
-248.019	-200.000	-0.058	-0.305
-247.005	-200.000	0.046	-0.248
-245.990	-33.198	0.258	-0.142
-244.976	-140.556	-0.298	-0.031
-243.961	11.049	-0.157	-0.119
-242.946	-72.400	0.103	0.038
-241.932	800.000	0.055	0.199
-240.917	800.000	-0.102	0.295
-239.903	2.108	-0.183	0.131
-238.888	-121.968	-0.384	0.063
-237.873	92.140	0.085	0.095
-236.859	-200.000	0.007	-0.208
-235.844	-72.506	0.199	0.073
-234.830	575.864	0.053	-0.129
-233.815	266.825	0.155	-0.270
-232.800	-168.256	0.207	0.008
-231.786	-30.957	-0.196	0.110
-230.771	-200.000	0.001	0.204
-229.757	-200.000	0.041	0.315
-228.742	321.759	0.078	0.148
-227.727	-200.000	-0.037	-0.164
-226.713	124.987	0.068	-0.085
-225.698	147.796	0.211	-0.283
-224.684	-59.242	-0.253	0.108
-223.669	-158.463	-0.218	0.013
-222.655	152.691	-0.249	0.338
-221.640	-200.000	-0.051	0.226
-220.625	195.731	0.062	0.094
-219.611	85.031	-0.101	-0.110
-218.596	-120.760	-0.108	-0.018
-217.582	-37.543	-0.114	0.060
-216.567	-200.000	-0.022	-0.158
-215.552	-200.000	0.007	-0.309
-214.538	42.487	0.200	0.180
-213.523	-200.000	0.004	-0.219
-212.509	-200.000	0.001	-0.071
-211.494	-91.101	-0.426	-0.121
-210.479	670.644	-0.030	0.078
-209.465	800.000	0.019	0.068
-208.450	-80.127	-0.243	-0.081
-207.436	-165.992	0.172	-0.007
-206.421	-78.717	-0.229	-0.078
-205.406	-128.287	-0.101	-0.014
-204.392	159.403	0.093	0.128
-203.377	-50.150	-0.116	-0.055
-202.363	-47.830	-0.061	-0.029
-201.348	-44.342	0.092	-0.046
-200.333	-98.198	0.112	0.029
-199.319	314.602	0.046	0.085
-198.304	-200.000	0.003	0.256
-197.290	533.822	0.074	0.173
-196.275	-10.481	0.151	0.100
-195.260	-200.000	-0.009	0.098
-194.246	-8.797	0.281	0.187
-193.231	723.525	-0.067	-0.177
-192.217	800.000	0.044	0.138
-191.202	-200.000	0.021	-0.148
-190.187	-200.000	-0.051	0.346
-189.173	800.000	0.091	0.375
-188.158	-39.553	0.083	0.043
-187.144	-139.519	0.322	-0.034
-186.129	120.211	0.203	-0.250
-185.114	75.486	0.200	-0.210
-184.100	-68.388	-0.072	-0.028
-183.085	800.000	0.074	-0.237
-182.071	48.535	-0.102	0.095
-181.056	719.844	0.116	-0.307
-180.042	73.492	-0.141	-0.147
-179.027	-200.000	-0.005	-0.177
-178.012	-99.810	0.101	-0.025
-176.998	160.063	0.104	-0.143
-175.983	-200.000	0.001	-0.136
-174.969	27.366	-0.113	-0.095
-173.954	-21.175	0.105	0.063
-172.939	-192.899	0.254	-0.002
-171.925	-200.000	0.004	-0.115
-170.910	266.154	0.194	0.335
-169.896	117.628	-0.065	0.079
-168.881	106.710	0.253	-0.298
-167.866	-7.148	0.064	0.043
-166.852	85.358	0.101	-0.110
-165.837	-103.365	-0.388	-0.091
-164.823	-137.080	-0.372	-0.042
-163.808	-36.641	0.230	-0.123
-162.793	-36.213	0.266	-0.142
-161.779	-49.980	-0.256	-0.120
-160.764	-81.758	0.196	-0.064
-159.750	800.000	0.069	0.211
-158.735	-83.994	-0.236	0.074
-157.720	-52.772	-0.102	0.047
-156.706	55.512	0.119	0.114
-155.691	-200.000	0.006	-0.031
-154.677	800.000	0.067	0.242
-153.662	28.074	0.169	0.141
-152.647	-27.417	-0.191	0.110
-151.633	310.767	0.158	0.293
-150.618	-200.000	-0.021	0.238
-149.604	-56.357	0.281	0.124
-148.589	-200.000	0.023	-0.162
-147.574	9.301	-0.135	0.101
-146.560	800.000	-0.066	-0.188
-145.545	-82.309	-0.296	-0.096
-144.531	-104.916	-0.152	0.035
-143.516	5.843	0.211	0.155
-142.502	-200.000	-0.028	0.262
-141.487	50.763	0.225	-0.211
-140.472	-200.000	-0.009	-0.141
-139.458	-167.099	0.282	0.011
-138.443	533.555	0.161	0.377
-137.429	-50.915	-0.209	-0.097
-136.414	472.878	0.146	-0.325
-135.399	506.057	-0.095	-0.219
-134.385	-136.332	0.080	0.009
-133.370	800.000	-0.106	-0.305
-132.356	-111.118	-0.020	0.004
-131.341	-200.000	-0.050	0.229
-130.326	421.054	0.063	0.133
-129.312	115.251	-0.108	0.131
-128.297	355.277	0.135	-0.266
-127.283	-83.978	-0.231	0.073
-126.268	210.578	-0.066	-0.103
-125.253	-60.744	-0.169	-0.071
-124.239	-31.147	-0.250	-0.139
-123.224	-76.184	-0.352	-0.123
-122.210	204.143	0.134	-0.206
-121.195	-200.000	-0.014	0.215
-120.180	-53.874	-0.181	0.082
-119.166	26.569	-0.093	-0.077
-118.151	-18.423	0.151	-0.093
-117.137	-200.000	0.019	-0.105
-116.122	-154.235	0.254	0.017
-115.107	96.908	0.162	-0.184
-114.093	-200.000	-0.003	0.033
-113.078	-133.780	0.293	-0.036
-112.064	31.607	0.313	0.266
-111.049	184.700	-0.079	0.116
-110.034	579.745	0.055	0.133
-109.020	-80.990	-0.243	0.080
-108.005	58.280	-0.005	-0.004
-106.991	-179.953	-0.115	-0.002
-105.976	800.000	-0.127	0.371
-104.962	-159.568	0.201	-0.011
-103.947	-200.000	-0.013	0.260
-102.932	302.729	-0.042	0.077
-101.918	-68.688	0.198	-0.076
-100.903	-200.000	0.016	0.076
-99.889	-51.686	0.514	-0.237
-98.874	64.719	-0.127	-0.127
-97.859	-123.687	-0.288	0.045
-96.845	146.033	0.081	0.107
-95.830	239.573	0.193	-0.319
-94.816	-150.010	-0.299	-0.023
-93.801	76.099	-0.429	-0.449
-92.786	16.131	0.203	0.158
-91.772	800.000	0.070	-0.201
-90.757	-112.770	-0.195	0.038
-89.743	-163.933	-0.099	0.005
-88.728	99.939	0.272	-0.311
-87.713	-90.944	0.615	0.175
-86.699	167.212	-0.191	0.268
-85.684	-161.410	0.126	-0.006
-84.670	-200.000	0.043	0.218
-83.655	28.985	0.308	0.258
-82.640	-80.834	-0.327	0.107
-81.626	800.000	-0.087	0.239
-80.611	5.256	-0.123	0.090
-79.597	800.000	0.071	0.258
-78.582	-97.158	0.396	-0.102
-77.567	84.344	0.167	0.180
-76.553	40.491	-0.044	-0.039
-75.538	-180.354	0.738	0.015
-74.524	44.844	-0.148	0.135
-73.509	-200.000	-0.024	0.119
-72.494	-113.464	0.259	0.050
-71.480	-68.576	0.255	0.098
-70.465	34.555	-0.136	-0.118
-69.451	309.836	-0.051	-0.094
-68.436	-113.660	-0.078	0.015
-67.422	35.600	-0.074	0.064
-66.407	54.269	-0.136	-0.129
-65.392	717.186	0.035	0.091
-64.378	32.024	-0.237	-0.202
-63.363	-10.648	-0.227	-0.148
-62.349	-93.898	0.090	-0.024
-61.334	184.286	-0.673	-0.984
-60.319	-70.340	0.188	-0.070
-59.305	-200.000	-0.175	-0.804
-58.290	157.612	0.717	0.980
-57.276	800.000	0.392	1.439
-56.261	-200.000	87.508	496.299
-55.246	536.435	1376.560	3227.080
-54.232	181.731	2634.399	3829.211
-53.217	111.480	2362.739	2813.814
-52.203	46.296	1971.344	1804.244
-51.188	40.546	1755.890	1561.878
-50.173	37.771	1709.617	1499.339
-49.159	52.589	1753.136	1653.219
-48.144	56.505	1771.411	1700.888
-47.130	40.289	1730.410	1536.979
-46.115	37.365	1715.875	1501.451
-45.100	37.295	1710.957	1496.553
-44.086	37.310	1708.055	1494.071
-43.071	37.236	1705.305	1491.037
-42.057	37.149	1703.051	1488.336
-41.042	37.240	1700.719	1486.936
-40.027	37.134	1699.027	1484.588
-39.013	37.233	1696.939	1483.465
-37.998	37.175	1694.721	1481.025
-36.984	37.285	1693.123	1480.409
-35.969	37.325	1691.750	1479.447
-34.954	37.359	1690.588	1478.635
-33.940	37.300	1688.593	1476.379
-32.925	37.285	1687.125	1474.924
-31.911	37.318	1685.078	1473.329
-30.896	37.352	1683.347	1472.015
-29.881	37.358	1681.299	1470.212
-28.867	37.371	1679.907	1469.031
-27.852	37.346	1678.747	1467.772
-26.838	37.394	1676.962	1466.518
-25.823	37.372	1675.483	1464.999
-24.809	37.461	1674.194	1464.484
-23.794	37.386	1672.956	1462.776
-22.779	37.349	1671.571	1461.228
-21.765	37.347	1669.315	1459.188
-20.750	37.224	1668.136	1457.170
-19.736	37.296	1666.411	1456.147
-18.721	37.403	1665.090	1455.736
-17.706	37.435	1663.336	1454.386
-16.692	37.453	1661.730	1453.058
-15.677	37.376	1660.531	1451.378
-14.663	37.422	1659.264	1450.558
-13.648	37.392	1657.823	1449.019
-12.633	37.457	1656.021	1447.865
-11.619	37.399	1654.655	1446.185
-10.604	37.373	1653.610	1445.020
-9.590	37.450	1651.859	1444.002
-8.575	37.471	1650.090	1442.556
-7.560	37.473	1648.955	1441.523
-6.546	37.458	1647.870	1440.404
-5.531	37.382	1646.887	1438.927
-4.517	37.398	1645.576	1437.840
-3.502	37.336	1644.696	1436.558
-2.487	37.402	1642.959	1435.470
-1.473	37.059	1630.694	1422.185
-0.458	33.799	1608.801	1379.398
0.556	27.068	1606.994	1338.628
1.571	24.221	1631.066	1337.232
2.586	23.443	1644.986	1342.637
3.600	20.987	1592.129	1281.350
4.615	11.410	1475.081	1121.527
5.629	1.847	1403.097	1003.936
6.644	-0.152	1393.451	983.860
7.659	-0.291	1391.783	981.683
8.673	-0.436	1391.050	980.135
9.688	-0.480	1389.235	978.479
10.702	-0.663	1386.054	974.961
11.717	2.682	1393.416	1001.940
12.731	11.949	1411.393	1075.886
13.746	17.670	1420.170	1120.180
14.761	17.445	1418.485	1117.281
15.775	17.407	1417.563	1116.200
16.790	17.450	1416.972	1115.920
17.804	17.395	1416.323	1114.952
18.819	17.642	1415.983	1116.200
19.834	17.661	1415.378	1115.749
20.848	17.672	1414.379	1114.935
21.863	17.706	1413.559	1114.413
22.877	17.688	1412.482	1113.352
23.892	17.673	1411.963	1112.744
24.907	17.648	1411.140	1111.830
25.921	17.749	1410.010	1111.500
26.936	17.775	1408.653	1110.504
27.950	17.683	1407.760	1109.101
28.965	17.669	1406.607	1108.008
29.980	17.616	1405.325	1106.551
30.994	17.578	1404.169	1105.296
32.009	17.656	1402.474	1104.373
33.023	17.631	1401.123	1103.051
34.038	17.580	1400.593	1102.203
35.053	17.615	1399.172	1101.213
36.067	17.687	1398.285	1100.885
37.082	17.630	1397.263	1099.615
38.096	17.699	1396.141	1099.077
39.111	17.658	1395.169	1097.953
40.126	17.674	1394.703	1097.594
41.140	17.632	1394.189	1096.818
42.155	17.616	1393.677	1096.214
43.169	17.669	1393.168	1096.060
44.184	17.605	1393.165	1095.549
45.199	17.638	1392.663	1095.268
46.213	17.714	1391.762	1094.954
47.228	17.664	1391.244	1094.126
48.242	17.715	1389.856	1093.268
49.257	17.697	1388.236	1091.777
50.271	17.706	1386.361	1090.265
51.286	17.551	1385.280	1088.330
52.301	17.619	1383.844	1087.541
53.315	17.729	1383.040	1087.510
54.330	17.761	1381.804	1086.649
55.344	17.640	1380.767	1084.963
56.359	17.589	1380.080	1084.008
57.374	17.602	1379.115	1083.234
58.388	17.572	1378.243	1082.265
59.403	17.641	1378.123	1082.514
60.417	17.620	1377.280	1081.622
61.432	17.628	1376.240	1080.757
62.447	17.598	1375.403	1079.814
63.461	17.739	1373.866	1079.406
64.476	17.630	1373.088	1078.008
65.490	17.640	1371.890	1077.039
66.505	17.697	1370.173	1075.955
67.520	17.646	1368.807	1074.463
68.534	17.729	1367.717	1074.036
69.549	17.755	1366.344	1073.024
70.563	17.722	1365.557	1072.107
71.578	17.707	1364.151	1070.809
72.593	17.639	1364.088	1070.244
73.607	17.707	1362.982	1069.705
74.622	17.558	1362.251	1068.102
75.636	17.537	1361.711	1067.455
76.651	17.730	1360.226	1067.401
77.666	17.684	1359.418	1066.389
78.680	17.567	1359.483	1065.612
79.695	17.746	1357.916	1065.404
80.709	17.740	1357.226	1064.735
81.724	17.610	1356.671	1063.393
82.739	17.608	1355.306	1062.218
83.753	17.599	1354.183	1061.187
84.768	17.623	1353.173	1060.450
85.782	17.636	1351.530	1059.152
86.797	17.694	1350.549	1058.648
87.812	17.737	1348.920	1057.544
88.826	17.763	1347.990	1056.884
89.841	17.693	1347.095	1055.651
90.855	17.765	1346.011	1055.159
91.870	17.726	1345.088	1054.097
92.884	17.639	1344.151	1052.734
93.899	17.774	1343.315	1052.818
94.914	17.683	1342.364	1051.417
95.928	17.678	1341.160	1050.350
96.943	17.672	1340.648	1049.819
97.957	17.709	1339.506	1049.061
98.972	17.741	1338.605	1048.458
99.987	17.789	1337.309	1047.645
101.001	17.685	1336.300	1046.124
102.016	17.689	1335.205	1045.201
103.030	17.619	1334.547	1044.163
104.045	17.770	1333.046	1043.819
105.060	17.676	1332.216	1042.506
106.074	17.808	1330.670	1042.006
107.089	17.775	1329.853	1041.076
108.103	17.740	1328.470	1039.687
109.118	17.770	1327.511	1039.026
110.133	17.680	1325.904	1037.128
111.147	17.805	1324.467	1036.671
112.162	17.721	1323.148	1035.041
113.176	17.852	1321.745	1034.644
114.191	17.847	1320.642	1033.659
115.206	17.770	1319.777	1032.428
116.220	17.850	1318.496	1031.817
117.235	17.803	1316.943	1030.227
118.249	17.763	1316.450	1029.510
119.264	17.818	1315.221	1028.786
120.279	17.779	1314.251	1027.701
121.293	17.887	1313.133	1027.389
122.308	17.799	1311.894	1025.796
123.322	17.791	1310.473	1024.546
124.337	17.842	1309.316	1023.858
125.352	17.960	1308.264	1023.650
126.366	17.831	1307.247	1021.992
127.381	17.800	1306.446	1021.092
128.395	17.883	1305.092	1020.441
129.410	17.807	1304.373	1019.334
130.424	17.881	1303.405	1018.928
131.439	17.942	1302.139	1018.211
132.454	17.849	1301.662	1017.193
133.468	17.754	1301.073	1016.078
134.483	17.776	1300.440	1015.624
135.497	17.810	1299.044	1014.644
136.512	17.850	1297.412	1013.519
137.527	17.782	1296.970	1012.681
138.541	17.710	1295.231	1010.804
139.556	17.763	1293.670	1009.813
140.570	17.867	1292.653	1009.546
141.585	17.787	1291.402	1008.005
142.600	17.825	1289.732	1006.835
143.614	17.840	1288.885	1006.176
144.629	17.765	1287.597	1004.636
145.643	17.744	1286.606	1003.653
146.658	17.789	1285.087	1002.645
147.673	17.788	1283.711	1001.476
148.687	17.799	1283.356	1001.174
149.702	17.667	1282.502	999.648
150.716	17.667	1281.041	998.420
151.731	17.714	1279.804	997.642
152.746	17.678	1278.605	996.411
153.760	17.824	1277.248	996.114
154.775	17.872	1275.770	995.156
155.789	17.720	1275.562	994.018
156.804	17.793	1274.132	993.241
157.819	17.774	1272.913	992.090
158.833	17.776	1272.070	991.359
159.848	17.902	1271.157	991.292
160.862	17.878	1270.416	990.486
161.877	17.878	1269.438	989.637
162.892	17.743	1268.823	988.285
163.906	17.893	1267.662	988.165
164.921	17.943	1266.891	987.763
165.935	17.848	1265.780	986.262
166.950	17.878	1265.337	986.000
167.964	17.931	1264.646	985.685
168.979	17.850	1264.081	984.688
169.994	17.836	1263.383	983.977
171.008	17.814	1262.665	983.204
172.023	17.937	1261.542	982.949
173.037	17.924	1260.978	982.350
174.052	17.906	1260.231	981.573
175.067	17.917	1259.516	980.994
176.081	17.889	1258.660	980.081
177.096	17.932	1257.806	979.576
178.110	17.961	1256.562	978.689
179.125	17.939	1255.764	977.851
180.140	17.856	1254.778	976.526
181.154	17.923	1253.230	975.613
182.169	17.906	1252.569	974.920
183.183	17.929	1251.368	974.026
184.198	17.979	1250.032	973.188
185.213	17.924	1249.398	972.293
186.227	17.949	1248.335	971.520
187.242	17.978	1247.302	970.796
188.256	18.087	1246.246	970.507
189.271	18.079	1245.364	969.691
190.286	17.976	1244.499	968.346
191.300	17.990	1244.347	968.221
192.315	17.953	1243.964	967.632
193.329	18.007	1243.204	967.257
194.344	17.997	1242.849	966.839
195.359	18.058	1241.684	966.193
196.373	17.916	1241.595	965.233
197.388	17.965	1240.980	964.949
198.402	17.915	1240.347	964.091
199.417	17.946	1239.679	963.658
200.432	17.948	1239.166	963.187
201.446	17.904	1238.737	962.523
202.461	18.004	1237.583	962.099
203.475	17.937	1236.488	960.787
204.490	18.023	1235.661	960.545
205.504	17.936	1234.514	959.078
206.519	18.078	1233.107	958.695
207.534	18.018	1232.795	958.036
208.548	18.090	1231.791	957.569
209.563	17.992	1231.199	956.479
210.577	18.059	1230.003	955.841
211.592	17.999	1228.976	954.619
212.607	17.976	1228.498	954.039
213.621	18.086	1227.441	953.743
214.636	18.123	1226.546	953.172
215.650	18.079	1226.003	952.423
216.665	18.105	1224.481	951.297
217.680	18.076	1223.895	950.599
218.694	18.218	1222.849	950.488
219.709	18.084	1222.245	949.193
220.723	18.149	1221.841	949.154
221.738	17.993	1220.860	947.444
222.753	18.041	1220.420	947.284
223.767	18.026	1219.669	946.537
224.782	18.181	1219.254	946.988
225.796	18.110	1218.414	945.858
226.811	18.259	1217.611	945.973
227.826	18.164	1217.709	945.445
228.840	18.127	1216.931	944.550
229.855	18.172	1216.213	944.155
230.869	18.179	1214.967	943.144
231.884	18.210	1214.193	942.634
232.899	18.182	1213.648	941.971
233.913	18.222	1213.293	941.832
234.928	18.252	1212.653	941.418
235.942	18.231	1211.925	940.653
236.957	18.257	1210.858	939.883
237.972	18.194	1210.277	939.005
238.986	18.156	1209.849	938.380
240.001	18.320	1209.029	938.563
241.015	18.271	1208.595	937.871
242.030	18.271	1207.653	937.061
243.045	18.363	1206.621	936.679
244.059	18.290	1206.188	935.858
245.074	18.329	1205.383	935.365
246.088	18.275	1204.378	934.212
247.103	18.386	1203.867	934.336
248.117	18.291	1202.658	932.795
249.132	18.386	1201.816	932.580
250.147	18.413	1201.087	932.077
251.161	18.375	1200.622	931.424
252.176	18.352	1199.934	930.684
253.190	18.487	1198.991	930.606
254.205	18.445	1198.530	929.936
255.220	18.269	1198.275	928.700
256.234	18.421	1197.362	928.735
257.249	18.419	1196.714	928.142
258.263	18.397	1196.275	927.598
259.278	18.460	1195.326	927.120
260.293	18.499	1195.223	927.172
261.307	18.622	1194.600	927.273
262.322	18.369	1194.077	925.414
263.336	18.448	1193.043	924.961
264.351	18.430	1192.476	924.338
265.366	18.425	1192.288	924.085
266.380	18.461	1191.248	923.392
267.395	18.502	1190.297	922.796
268.409	18.424	1189.642	921.783
269.424	18.406	1189.250	921.302
270.439	18.543	1188.598	921.454
271.453	18.518	1187.913	920.703
272.468	18.443	1187.110	919.600
273.482	18.452	1186.419	919.033
274.497	18.499	1186.112	918.962
275.512	18.610	1185.270	918.822
276.526	18.504	1184.891	917.881
277.541	18.580	1183.681	917.268
278.555	18.659	1182.718	916.862
279.570	18.615	1182.180	916.131
280.585	18.512	1181.605	915.053
281.599	18.614	1180.388	914.577
282.614	18.591	1179.813	913.928
283.628	18.587	1178.978	913.179
284.643	18.499	1178.376	912.160
285.657	18.668	1177.279	912.129
286.672	18.658	1176.184	911.150
287.687	18.614	1175.256	910.114
288.701	18.649	1174.770	909.844
289.716	18.698	1173.879	909.331
290.730	18.655	1173.480	908.714
291.745	18.671	1172.670	908.094
292.760	18.614	1172.562	907.627
293.774	18.676	1171.508	907.057
294.789	18.763	1171.009	907.051
295.803	18.776	1170.438	906.597
296.818	18.816	1169.570	906.058
297.833	18.733	1168.667	904.841
298.847	18.784	1168.290	904.738
299.862	18.834	1167.665	904.433
300.876	18.717	1166.893	903.143
301.891	18.762	1166.261	902.809
302.906	18.877	1165.321	902.605
303.920	18.802	1164.677	901.631
304.935	18.761	1163.869	900.711
305.949	18.828	1163.343	900.578
306.964	18.796	1162.787	899.899
307.979	18.835	1161.996	899.409
308.993	18.836	1161.308	898.804
310.008	18.830	1160.590	898.139
311.022	18.949	1159.720	898.007
312.037	18.898	1158.975	897.083
313.052	18.942	1157.650	896.208
314.066	18.855	1157.012	895.181
315.081	18.859	1156.413	894.658
316.095	18.774	1156.243	894.007
317.110	18.961	1155.100	894.017
318.125	19.012	1154.266	893.560
319.139	18.957	1153.855	892.873
320.154	18.884	1153.451	892.104
321.168	18.853	1152.876	891.421
322.183	18.974	1152.058	891.335
323.197	18.930	1150.927	890.153
324.212	18.954	1150.985	890.241
325.227	18.967	1150.509	889.862
326.241	18.977	1149.892	889.361
327.256	19.051	1148.655	888.707
328.270	18.992	1147.900	887.740
329.285	18.951	1146.986	886.741
330.300	18.954	1146.025	885.937
331.314	19.017	1145.663	885.901
332.329	19.045	1144.169	884.812
333.343	19.080	1143.245	884.200
334.358	18.968	1142.861	883.247
335.373	19.070	1142.109	883.114
336.387	19.106	1141.564	882.800
337.402	19.111	1140.693	882.074
338.416	19.109	1140.322	881.697
339.431	18.985	1140.012	880.747
340.446	19.014	1139.053	880.075
341.460	19.111	1138.313	879.919
342.475	19.049	1137.205	878.670
343.489	19.213	1136.288	878.720
344.504	19.237	1135.546	878.193
345.519	19.244	1134.607	877.422
346.533	19.228	1133.825	876.658
347.548	19.126	1132.961	875.395
348.562	19.181	1132.353	875.126
349.577	19.226	1131.740	874.806
350.592	19.147	1131.114	873.845
351.606	19.147	1130.133	873.009
352.621	19.284	1129.540	873.166
353.635	19.242	1129.033	872.487
354.650	19.292	1128.195	872.010
355.665	19.270	1127.519	871.303
356.679	19.368	1126.535	870.958
357.694	19.348	1126.353	870.638
358.708	19.440	1125.107	870.063
359.723	19.313	1124.594	868.951
360.738	19.334	1124.105	868.603
361.752	19.350	1123.672	868.272
362.767	19.459	1122.802	868.070
363.781	19.371	1122.701	867.473
364.796	19.350	1122.073	866.805
365.810	19.316	1121.299	865.959
366.825	19.443	1120.747	866.094
367.840	19.446	1120.360	865.731
368.854	19.423	1119.838	865.136
369.869	19.431	1118.949	864.415
370.883	19.562	1118.106	864.340
371.898	19.465	1117.546	863.346
372.913	19.415	1116.823	862.463
373.927	19.458	1116.823	862.602
374.942	19.446	1116.182	861.968
375.956	19.448	1115.468	861.355
376.971	19.516	1114.697	861.020
377.986	19.503	1114.493	860.720
379.000	19.525	1114.014	860.387
380.015	19.514	1113.469	859.835
381.029	19.549	1112.576	859.242
382.044	19.436	1112.236	858.338
383.059	19.564	1111.204	858.107
384.073	19.697	1109.836	857.632
385.088	19.562	1109.479	856.610
386.102	19.645	1108.559	856.237
387.117	19.643	1107.833	855.592
388.132	19.549	1107.118	854.499
389.146	19.660	1106.201	854.263
390.161	19.556	1105.399	853.055
391.175	19.673	1104.678	852.997
392.190	19.624	1104.143	852.271
393.205	19.619	1103.262	851.487
394.219	19.621	1102.657	850.955
395.234	19.778	1101.397	850.680
396.248	19.738	1100.405	849.643
397.263	19.671	1099.909	848.857
398.278	19.737	1099.211	848.564
399.292	19.870	1098.262	848.410
400.307	19.807	1097.626	847.537
401.321	19.745	1097.266	846.877
402.336	19.686	1096.599	845.998
403.350	19.714	1095.971	845.577
404.365	19.803	1094.957	845.155
405.380	19.793	1094.154	844.412
406.394	19.870	1093.712	844.371
407.409	19.770	1092.869	843.161
408.423	19.997	1091.541	843.164
409.438	19.824	1091.166	841.959
410.453	19.840	1090.815	841.691
411.467	19.830	1089.732	840.734
412.482	19.749	1089.134	839.802
413.496	19.870	1088.371	839.729
414.511	19.996	1087.828	839.847
415.526	19.781	1087.520	838.491
416.540	19.994	1086.551	838.701
417.555	20.004	1086.334	838.507
418.569	19.951	1085.970	837.896
419.584	19.915	1085.545	837.320
420.599	20.016	1084.748	837.118
421.613	144.712	1393.697	1782.184
422.628	133.868	1438.702	1782.276
