DTS Sentinel unit serial number:	SN413079Multiplexer serial number:	ORYXHardware model number:	OX4-SRSoftware version number:	ORYX F/W v4.00 Oryx Data Collector v3.7.2.0data status	okinstallation	princeton_trtdifferential loss correction	single-endedforward channel	channel 2reverse channel	N/Adate	2019/09/16time	12:51:34forward acquisition time	60.00reverse acquisition time	0.00gamma	496.2192k internal	0.2301k external	0.2301temperature offset calibration	0.9945default loss term (dB/km)	0.3790temperature slope calibration	1.0000multiplexer offset coefficient	1.0000multiplexer slope coefficient	1.0000fibre end	0.00T internal ref (°C)	40.33T ext. ref 1 (°C)	13.51T ext. ref 2 (°C)	37.06length (m)	temperature (°C)	Stokes	anti-Stokes-747.200	511.411	-0.110	-0.261
-746.185	-102.205	0.332	0.081
-745.171	-155.564	-0.416	0.027
-744.156	474.102	-0.081	0.185
-743.142	111.721	0.202	0.248
-742.127	-200.000	0.095	0.511
-741.112	800.000	0.137	-0.431
-740.098	-200.000	0.015	0.405
-739.083	19.993	-0.239	0.196
-738.069	-3.074	-0.045	0.032
-737.054	-126.881	-0.149	0.022
-736.039	73.247	-0.098	0.104
-735.025	320.803	-0.165	0.320
-734.010	-33.842	-0.639	-0.359
-732.996	800.000	-0.038	-0.158
-731.981	-19.718	-0.194	-0.122
-730.966	-161.770	-0.307	0.016
-729.952	149.095	-0.144	0.199
-728.937	95.511	-0.156	-0.181
-727.923	-168.270	-0.166	0.007
-726.908	-77.045	-0.354	-0.126
-725.894	-161.535	-0.159	0.008
-724.879	183.856	-0.141	-0.212
-723.864	-200.000	0.054	-0.511
-722.850	800.000	-0.092	-0.296
-721.835	543.749	0.135	0.327
-720.821	-73.776	-0.231	-0.085
-719.806	-16.312	-0.183	0.118
-718.791	-200.000	-0.019	0.097
-717.777	-72.182	0.331	0.125
-716.762	-200.000	0.019	-0.350
-715.748	-200.000	-0.048	-0.416
-714.733	461.468	0.086	-0.195
-713.718	-13.173	-0.073	-0.049
-712.704	390.132	0.061	-0.129
-711.689	-200.000	-0.082	0.474
-710.675	-24.331	-0.108	-0.065
-709.660	-98.945	-0.101	-0.026
-708.645	158.568	0.184	-0.260
-707.631	139.825	-0.177	0.237
-706.616	123.823	-0.071	0.091
-705.602	-6.113	0.109	0.076
-704.587	-102.946	-0.116	-0.028
-703.572	-200.000	-0.063	-0.416
-702.558	800.000	-0.042	-0.126
-701.543	273.737	0.205	0.368
-700.529	197.906	0.219	0.341
-699.514	800.000	0.057	-0.167
-698.499	55.151	0.051	-0.051
-697.485	-62.148	-0.138	-0.059
-696.470	110.125	0.138	-0.169
-695.456	577.046	0.112	-0.279
-694.441	800.000	-0.132	-0.375
-693.426	-200.000	-0.014	-0.130
-692.412	800.000	0.054	0.174
-691.397	800.000	0.012	-0.049
-690.383	299.826	0.238	-0.446
-689.368	175.563	-0.094	0.139
-688.354	366.665	0.091	-0.187
-687.339	-119.306	-0.049	0.009
-686.324	202.680	0.163	0.257
-685.310	-200.000	-0.001	-0.131
-684.295	-68.894	0.174	0.068
-683.281	497.282	-0.040	0.093
-682.266	800.000	0.108	-0.313
-681.251	395.190	-0.071	-0.150
-680.237	-200.000	-0.010	-0.324
-679.222	64.504	-0.152	0.156
-678.208	-200.000	0.002	-0.065
-677.193	313.826	0.066	-0.126
-676.178	800.000	0.057	0.182
-675.164	10.031	0.051	-0.039
-674.149	137.754	-0.093	0.124
-673.135	65.172	-0.260	-0.267
-672.120	222.291	-0.070	0.114
-671.105	-177.787	0.104	0.003
-670.091	37.723	0.184	-0.166
-669.076	27.639	0.229	-0.196
-668.062	73.373	-0.109	-0.116
-667.047	-10.819	0.306	-0.206
-666.032	-200.000	0.027	-0.131
-665.018	-88.993	-0.231	0.069
-664.003	800.000	-0.059	0.217
-662.989	527.680	0.030	-0.073
-661.974	800.000	0.147	-0.436
-660.959	800.000	-0.008	0.029
-659.945	-33.821	0.205	-0.115
-658.930	-85.463	0.215	-0.068
-657.916	-133.422	0.182	-0.023
-656.901	118.307	0.098	-0.123
-655.886	344.988	-0.130	-0.258
-654.872	445.497	0.096	0.215
-653.857	-134.446	-0.085	-0.011
-652.843	-200.000	0.033	-0.170
-651.828	-145.432	-0.129	-0.012
-650.814	-112.367	0.120	-0.024
-649.799	175.142	-0.139	0.205
-648.784	70.277	0.135	-0.141
-647.770	-55.537	-0.205	-0.093
-646.755	-200.000	0.017	-0.185
-645.741	-31.911	0.223	0.127
-644.726	-55.494	0.078	0.035
-643.711	800.000	0.019	0.075
-642.697	-200.000	-0.035	-0.441
-641.682	90.241	0.134	-0.152
-640.668	-200.000	0.025	-0.171
-639.653	145.897	0.152	0.207
-638.638	800.000	-0.099	-0.300
-637.624	-200.000	-0.009	-0.076
-636.609	-200.000	-0.037	0.376
-635.595	-200.000	0.008	-0.046
-634.580	-102.328	0.389	0.095
-633.565	-200.000	0.017	-0.149
-632.551	6.973	-0.176	-0.133
-631.536	-38.961	0.223	0.119
-630.522	88.025	0.118	-0.132
-629.507	800.000	0.091	-0.398
-628.492	800.000	-0.037	0.119
-627.478	409.354	-0.139	0.299
-626.463	37.134	0.202	0.181
-625.449	-200.000	-0.021	0.296
-624.434	336.710	0.104	-0.205
-623.419	-76.055	-0.254	0.091
-622.405	69.681	-0.115	0.121
-621.390	116.838	0.048	0.060
-620.376	-98.209	0.447	0.117
-619.361	42.911	-0.018	-0.017
-618.346	-66.773	-0.126	0.051
-617.332	-77.975	-0.086	0.030
-616.317	284.192	0.175	-0.320
-615.303	-111.200	-0.162	0.034
-614.288	99.822	-0.117	0.138
-613.273	-200.000	-0.008	-0.047
-612.259	125.498	0.129	0.165
-611.244	800.000	-0.060	-0.247
-610.230	-35.355	0.238	0.131
-609.215	317.054	0.037	-0.072
-608.201	389.867	-0.098	0.207
-607.186	139.096	0.152	-0.203
-606.171	-29.028	-0.224	0.130
-605.157	-72.747	-0.168	0.063
-604.142	3.814	-0.130	-0.096
-603.128	-200.000	-0.045	-0.265
-602.113	-71.901	-0.347	0.131
-601.098	-53.806	0.012	-0.006
-600.084	-200.000	0.042	0.198
-599.069	-99.239	-0.255	-0.065
-598.055	-34.709	-0.157	0.087
-597.040	-41.997	-0.357	-0.185
-596.025	-74.940	0.178	0.065
-595.011	-200.000	0.009	0.224
-593.996	-116.896	-0.292	0.054
-592.982	800.000	0.051	-0.151
-591.967	60.008	0.073	-0.073
-590.952	-27.891	-0.225	0.132
-589.938	-88.106	0.289	0.088
-588.923	-9.528	-0.241	0.163
-587.909	205.625	0.105	0.166
-586.894	136.788	0.206	-0.272
-585.879	75.803	0.236	-0.252
-584.865	-5.910	0.077	-0.053
-583.850	411.952	-0.057	-0.123
-582.836	-45.091	0.184	0.093
-581.821	30.313	-0.206	0.178
-580.806	52.500	-0.172	0.166
-579.792	-200.000	0.017	0.290
-578.777	86.293	-0.075	0.084
-577.763	578.169	0.086	0.214
-576.748	-53.118	-0.098	0.046
-575.733	-95.152	0.199	0.054
-574.719	39.209	-0.104	-0.095
-573.704	-77.587	-0.230	0.081
-572.690	-98.664	0.254	0.066
-571.675	-83.042	-0.283	-0.092
-570.661	-41.878	-0.285	0.148
-569.646	138.619	0.161	0.214
-568.631	800.000	0.044	-0.143
-567.617	-200.000	0.038	-0.325
-566.602	-200.000	0.002	0.087
-565.588	-56.948	0.341	-0.152
-564.573	-74.217	-0.211	-0.077
-563.558	-1.517	0.187	0.133
-562.544	-83.050	-0.439	-0.143
-561.529	-28.806	0.280	0.163
-560.515	-3.216	-0.100	0.071
-559.500	261.325	0.113	0.199
-558.485	-200.000	0.271	0.000
-557.471	35.523	0.135	0.120
-556.456	66.152	-0.255	0.262
-555.442	-116.890	0.090	0.017
-554.427	-200.000	-0.035	-0.355
-553.412	-63.572	0.139	0.058
-552.398	-80.772	-0.321	-0.108
-551.383	38.345	0.375	-0.338
-550.369	-52.472	0.023	-0.011
-549.354	-30.347	-0.172	0.099
-548.339	-200.000	0.031	0.190
-547.325	-200.000	0.045	-0.263
-546.310	138.609	0.099	-0.132
-545.296	800.000	0.041	-0.147
-544.281	-59.243	0.259	-0.113
-543.266	-43.692	-0.171	0.087
-542.252	102.872	-0.049	-0.058
-541.237	545.536	0.090	-0.218
-540.223	158.391	-0.084	0.119
-539.208	-100.332	0.345	-0.087
-538.193	84.791	-0.270	-0.299
-537.179	275.960	0.102	0.183
-536.164	129.693	-0.139	0.180
-535.150	-112.955	0.107	-0.021
-534.135	-73.292	0.204	0.075
-533.121	-91.817	-0.372	0.107
-532.106	-24.601	-0.256	-0.154
-531.091	-200.000	0.013	-0.167
-530.077	-200.000	0.004	-0.369
-529.062	-113.574	-0.152	0.030
-528.048	-200.000	0.057	-0.335
-527.033	-29.828	0.033	0.019
-526.018	-43.644	0.188	0.096
-525.004	-43.671	-0.090	0.046
-523.989	-128.225	-0.105	0.015
-522.975	73.440	-0.149	-0.158
-521.960	-122.429	0.224	0.037
-520.945	-200.000	0.004	0.205
-519.931	41.914	-0.093	0.085
-518.916	-167.876	-0.437	0.017
-517.902	-101.890	-0.244	0.060
-516.887	-114.156	0.181	-0.035
-515.872	-200.000	0.046	0.298
-514.858	-72.942	-0.388	0.144
-513.843	29.132	-0.140	-0.120
-512.829	373.537	0.098	0.202
-511.814	-3.659	0.174	0.122
-510.799	125.488	0.177	0.226
-509.785	343.685	-0.255	-0.505
-508.770	-126.847	-0.119	0.018
-507.756	-12.519	0.322	-0.212
-506.741	-152.096	0.174	-0.013
-505.726	182.800	-0.277	0.413
-504.712	800.000	-0.049	-0.190
-503.697	351.867	-0.118	-0.236
-502.683	800.000	0.060	0.179
-501.668	-8.360	0.212	0.144
-500.653	-126.171	0.086	-0.013
-499.639	-200.000	0.020	-0.178
-498.624	800.000	-0.055	0.178
-497.610	800.000	0.042	0.147
-496.595	-145.421	0.286	0.026
-495.581	284.478	0.045	0.081
-494.566	-118.952	0.098	0.017
-493.551	108.268	0.169	-0.204
-492.537	-200.000	0.031	0.201
-491.522	-200.000	-0.000	-0.045
-490.508	-200.000	-0.247	-0.001
-489.493	6.103	-0.164	-0.123
-488.478	130.984	0.142	-0.184
-487.464	84.325	-0.104	-0.115
-486.449	800.000	0.061	0.176
-485.435	-200.000	0.044	0.242
-484.420	-18.517	-0.064	-0.040
-483.405	570.469	-0.036	0.088
-482.391	-200.000	0.008	-0.129
-481.376	-45.097	0.308	0.154
-480.362	58.390	0.034	-0.034
-479.347	530.566	0.105	-0.249
-478.332	800.000	-0.017	-0.052
-477.318	-89.839	0.231	0.068
-476.303	77.815	-0.026	0.028
-475.289	800.000	0.056	-0.243
-474.274	-34.750	-0.237	0.131
-473.259	14.705	0.085	-0.067
-472.245	-200.000	0.024	-0.220
-471.230	-53.531	-0.150	0.069
-470.216	-82.554	-0.165	-0.054
-469.201	-200.000	0.023	-0.129
-468.186	-200.000	-0.033	0.312
-467.172	-49.825	0.324	-0.155
-466.157	660.247	0.036	0.093
-465.143	-89.710	-0.123	0.036
-464.128	-200.000	-0.053	-0.356
-463.113	20.253	0.188	0.153
-462.099	86.068	0.078	0.087
-461.084	49.194	-0.244	0.231
-460.070	-200.000	-0.026	0.293
-459.055	225.152	-0.052	-0.085
-458.040	584.634	-0.056	-0.140
-457.026	-10.359	0.205	-0.137
-456.011	310.768	0.214	-0.404
-454.997	179.060	0.112	0.165
-453.982	-200.000	-0.005	-0.111
-452.968	-110.864	0.125	-0.026
-451.953	-21.479	0.114	0.070
-450.938	800.000	0.076	-0.304
-449.924	-13.585	0.159	-0.104
-448.909	77.891	0.172	0.185
-447.895	48.698	0.121	0.115
-446.880	-87.110	0.144	0.044
-445.865	137.005	-0.238	-0.313
-444.851	-38.025	0.111	0.060
-443.836	413.394	0.031	-0.067
-442.822	-48.911	-0.114	-0.055
-441.807	-171.638	-0.116	0.004
-440.792	-200.000	0.020	-0.304
-439.778	226.010	0.108	-0.176
-438.763	-50.235	0.221	-0.105
-437.749	-200.000	-0.041	-0.289
-436.734	-25.350	-0.064	0.038
-435.719	0.717	-0.148	-0.107
-434.705	-88.402	0.406	-0.122
-433.690	-109.743	0.199	-0.042
-432.676	-97.296	-0.230	-0.060
-431.661	-200.000	0.002	-0.122
-430.646	44.441	0.085	0.078
-429.632	-200.000	0.012	0.171
-428.617	221.994	-0.021	-0.033
-427.603	-200.000	0.006	0.130
-426.588	-200.000	0.029	-0.315
-425.573	-103.328	-0.178	0.042
-424.559	-182.247	0.177	0.003
-423.544	-200.000	0.006	-0.114
-422.530	-200.000	0.034	-0.167
-421.515	-130.896	-0.236	-0.032
-420.500	697.026	-0.057	-0.152
-419.486	-104.716	-0.344	0.080
-418.471	-125.214	0.115	-0.018
-417.457	800.000	0.043	-0.148
-416.442	-200.000	0.023	-0.122
-415.428	34.522	0.072	-0.063
-414.413	-91.052	-0.275	-0.080
-413.398	14.379	-0.184	-0.144
-412.384	-32.212	0.173	0.097
-411.369	438.861	-0.047	0.104
-410.355	-3.749	-0.398	0.278
-409.340	253.092	-0.140	-0.240
-408.325	800.000	0.071	-0.245
-407.311	-200.000	0.078	-0.480
-406.296	-170.796	0.070	0.002
-405.282	-200.000	0.009	0.209
-404.267	178.502	0.171	0.251
-403.252	-200.000	-0.052	-0.278
-402.238	-200.000	-0.056	0.342
-401.223	-70.386	0.158	0.060
-400.209	-158.342	0.336	-0.020
-399.194	-200.000	0.011	0.155
-398.179	176.483	0.094	-0.137
-397.165	-200.000	0.027	0.428
-396.150	255.959	-0.055	0.095
-395.136	190.470	-0.096	0.146
-394.121	-87.710	0.152	-0.046
-393.106	470.633	-0.062	0.140
-392.092	-69.314	0.252	0.097
-391.077	30.215	-0.121	-0.104
-390.063	-38.362	-0.217	0.115
-389.048	-101.431	0.063	-0.015
-388.033	-131.738	0.435	0.057
-387.019	-200.000	0.010	-0.223
-386.004	10.967	-0.159	0.122
-384.990	37.661	0.105	-0.094
-383.975	-200.000	-0.005	0.051
-382.960	-200.000	-0.011	-0.129
-381.946	-200.000	-0.004	0.111
-380.931	-94.526	-0.240	0.066
-379.917	-200.000	-0.003	0.100
-378.902	47.033	0.182	0.170
-377.888	-122.321	-0.020	-0.003
-376.873	-200.000	0.061	-0.336
-375.858	1.267	0.347	-0.251
-374.844	800.000	0.163	0.457
-373.829	-200.000	-0.011	0.069
-372.815	-200.000	0.016	0.281
-371.800	17.819	0.229	0.183
-370.785	268.647	-0.174	-0.306
-369.771	289.916	-0.129	-0.235
-368.756	22.775	-0.073	0.060
-367.742	-135.977	-0.179	-0.021
-366.727	109.005	0.273	-0.328
-365.712	640.321	0.103	-0.264
-364.698	-200.000	0.017	0.260
-363.683	92.200	0.163	-0.184
-362.669	-159.222	-0.384	0.022
-361.654	15.207	0.075	-0.059
-360.639	53.819	0.035	-0.034
-359.625	35.285	0.047	0.041
-358.610	-200.000	0.001	-0.112
-357.596	101.541	0.051	0.059
-356.581	-115.349	-0.165	0.031
-355.566	800.000	0.062	0.203
-354.552	23.054	-0.057	-0.047
-353.537	-15.983	-0.139	-0.089
-352.523	-200.000	-0.037	0.217
-351.508	800.000	-0.113	0.323
-350.493	285.184	0.161	-0.291
-349.479	31.390	-0.190	0.164
-348.464	-119.215	-0.348	-0.061
-347.450	-200.000	-0.006	0.125
-346.435	-139.567	0.172	0.018
-345.420	155.950	-0.113	0.156
-344.406	-55.585	0.288	-0.129
-343.391	800.000	-0.060	0.166
-342.377	-200.000	-0.005	0.148
-341.362	-66.960	-0.263	0.104
-340.348	-200.000	0.035	-0.318
-339.333	392.940	-0.113	-0.235
-338.318	-64.222	-0.080	-0.033
-337.304	-64.606	-0.266	0.108
-336.289	113.091	0.288	-0.351
-335.275	104.641	0.184	-0.217
-334.260	-169.798	-0.333	0.012
-333.245	-83.967	-0.458	0.146
-332.231	158.564	0.132	-0.184
-331.216	-200.000	-0.032	-0.170
-330.202	122.187	-0.114	-0.143
-329.187	261.641	-0.139	-0.241
-328.172	483.211	0.058	0.133
-327.158	-54.795	-0.149	-0.067
-326.143	800.000	0.117	0.422
-325.129	182.513	0.214	0.316
-324.114	33.453	-0.163	0.142
-323.099	1.859	-0.326	0.236
-322.085	63.666	0.147	0.148
-321.070	191.385	0.041	-0.061
-320.056	347.926	-0.157	-0.311
-319.041	25.598	-0.139	-0.116
-318.026	-75.641	-0.325	-0.116
-317.012	-200.000	0.048	-0.345
-315.997	-26.614	0.286	-0.168
-314.983	-145.848	-0.222	-0.020
-313.968	718.052	0.068	0.181
-312.953	-92.139	0.183	0.052
-311.939	-200.000	0.035	-0.164
-310.924	-200.000	-0.004	-0.064
-309.910	-95.647	-0.042	0.011
-308.895	800.000	0.089	0.286
-307.880	800.000	0.121	-0.375
-306.866	-76.858	-0.125	0.044
-305.851	800.000	-0.089	0.340
-304.837	-163.165	0.088	-0.004
-303.822	304.652	-0.200	-0.371
-302.807	-200.000	0.034	0.318
-301.793	271.467	-0.305	-0.537
-300.778	-145.737	0.085	0.008
-299.764	39.147	0.239	0.214
-298.749	-200.000	-0.029	0.180
-297.735	-109.253	-0.108	-0.023
-296.720	92.557	-0.217	0.246
-295.705	-58.368	-0.173	0.075
-294.691	-155.127	-0.049	-0.003
-293.676	-92.084	-0.023	0.007
-292.662	206.078	-0.019	0.029
-291.647	-7.905	-0.178	0.120
-290.632	-200.000	0.016	0.132
-289.618	-23.800	0.176	-0.106
-288.603	-200.000	-0.007	0.059
-287.589	800.000	0.084	0.248
-286.574	368.998	0.194	0.393
-285.559	800.000	0.026	-0.089
-284.545	176.206	0.071	0.104
-283.530	800.000	0.052	0.194
-282.516	-200.000	-0.025	0.135
-281.501	-186.773	0.181	0.003
-280.486	9.584	-0.171	0.130
-279.472	-126.612	-0.061	0.009
-278.457	35.741	-0.098	0.086
-277.443	-165.013	0.435	-0.019
-276.428	-200.000	-0.014	-0.212
-275.413	204.845	0.210	0.327
-274.399	-200.000	0.060	-0.295
-273.384	93.741	-0.040	0.046
-272.370	800.000	0.094	-0.363
-271.355	-73.719	0.209	-0.076
-270.340	-200.000	0.030	-0.139
-269.326	-105.985	0.202	-0.046
-268.311	-170.189	0.115	0.004
-267.297	33.232	0.239	0.208
-266.282	800.000	0.071	0.262
-265.267	-103.698	0.207	-0.048
-264.253	-146.407	-0.174	0.015
-263.238	3.349	0.169	0.123
-262.224	-200.000	-0.056	0.314
-261.209	7.172	-0.369	-0.275
-260.195	800.000	0.050	-0.147
-259.180	-111.185	0.227	-0.047
-258.165	-200.000	0.068	-0.345
-257.151	-155.717	-0.046	-0.003
-256.136	-88.545	0.091	0.027
-255.122	50.683	-0.157	0.149
-254.107	157.708	-0.222	0.308
-253.092	96.242	-0.071	0.081
-252.078	-70.579	-0.039	-0.015
-251.063	-200.000	-0.015	0.251
-250.049	80.362	-0.263	0.284
-249.034	-134.457	0.171	-0.021
-248.019	105.918	0.170	-0.201
-247.005	124.282	0.124	0.156
-245.990	-89.842	-0.290	0.085
-244.976	-3.967	-0.502	-0.348
-243.961	-139.322	0.165	0.018
-242.946	-68.662	-0.192	-0.074
-241.932	-79.293	0.125	-0.042
-240.917	-200.000	-0.013	0.294
-239.903	-12.420	0.355	-0.232
-238.888	-61.558	-0.077	0.032
-237.873	484.527	-0.196	0.447
-236.859	-128.940	-0.274	-0.038
-235.844	-19.897	0.299	-0.185
-234.830	-200.000	-0.013	0.141
-233.815	660.302	-0.094	-0.243
-232.800	-134.565	-0.333	-0.041
-231.786	-121.614	-0.031	0.005
-230.771	686.405	-0.074	-0.194
-229.757	151.485	0.134	0.182
-228.742	800.000	-0.134	0.466
-227.727	-200.000	-0.002	-0.447
-226.713	129.037	0.126	-0.160
-225.698	168.961	-0.167	-0.238
-224.684	183.573	-0.111	0.164
-223.669	800.000	-0.033	-0.123
-222.655	23.512	0.177	0.146
-221.640	-92.020	-0.355	0.100
-220.625	-56.132	0.048	0.022
-219.611	405.879	0.068	0.142
-218.596	37.068	-0.131	-0.116
-217.582	454.175	-0.102	-0.227
-216.567	610.069	0.170	0.425
-215.552	-88.341	0.154	-0.046
-214.538	-76.669	-0.473	-0.165
-213.523	-125.384	0.298	-0.045
-212.509	103.917	-0.013	-0.015
-211.494	178.711	0.113	-0.165
-210.479	-58.468	-0.155	0.067
-209.465	-28.903	0.336	0.193
-208.450	800.000	0.023	-0.084
-207.436	800.000	0.083	0.252
-206.421	-200.000	0.047	0.372
-205.406	-102.480	0.252	0.060
-204.392	414.441	-0.135	0.286
-203.377	-6.301	-0.212	0.144
-202.363	-113.879	-0.104	-0.020
-201.348	764.807	0.084	0.229
-200.333	800.000	-0.071	-0.264
-199.319	-200.000	-0.027	0.151
-198.304	128.314	-0.148	0.188
-197.290	-1.356	0.085	0.060
-196.275	153.975	0.134	-0.184
-195.260	-36.309	0.096	-0.051
-194.246	800.000	0.108	-0.321
-193.231	-200.000	0.080	-0.679
-192.217	240.292	-0.069	0.114
-191.202	-71.602	-0.177	-0.066
-190.187	-74.711	-0.119	0.043
-189.173	353.439	0.176	-0.348
-188.158	145.391	0.049	0.065
-187.144	-79.977	0.155	0.052
-186.129	75.109	-0.076	-0.080
-185.114	-172.710	-0.476	0.015
-184.100	148.535	-0.089	-0.120
-183.085	168.026	0.092	-0.131
-182.071	-164.141	-0.305	-0.014
-181.056	6.977	0.144	-0.107
-180.042	-200.000	-0.017	-0.117
-179.027	-164.333	0.216	-0.010
-178.012	-24.790	-0.136	-0.080
-176.998	125.247	0.149	0.188
-175.983	166.310	-0.122	0.172
-174.969	715.840	0.107	0.283
-173.954	800.000	-0.108	0.306
-172.939	-200.000	-0.068	0.348
-171.925	-124.599	0.395	-0.061
-170.910	55.488	-0.212	0.205
-169.896	-159.353	0.317	0.018
-168.881	-80.928	-0.178	0.059
-167.866	14.825	-0.180	-0.140
-166.852	331.272	-0.170	0.326
-165.837	340.177	0.111	-0.216
-164.823	-200.000	0.030	-0.279
-163.808	-200.000	-0.050	-0.445
-162.793	-200.000	-0.017	0.197
-161.779	-200.000	0.008	-0.084
-160.764	31.407	-0.151	0.129
-159.750	800.000	-0.049	0.204
-158.735	-200.000	0.020	-0.101
-157.720	50.033	0.293	0.275
-156.706	-72.056	-0.202	-0.075
-155.691	99.224	-0.148	0.171
-154.677	266.674	0.147	0.256
-153.662	219.050	0.039	0.063
-152.647	78.914	0.250	-0.266
-151.633	-81.267	0.124	-0.041
-150.618	-200.000	-0.172	0.000
-149.604	-81.570	-0.280	-0.092
-148.589	-45.235	0.293	-0.145
-147.574	-110.848	-0.236	0.048
-146.560	-37.142	0.172	0.092
-145.545	-104.591	-0.379	-0.087
-144.531	-126.559	-0.024	-0.003
-143.516	-200.000	-0.001	0.278
-142.502	477.362	0.061	-0.136
-141.487	-144.027	-0.227	0.021
-140.472	-46.385	-0.087	0.043
-139.458	291.477	-0.042	0.076
-138.443	-170.597	0.311	0.011
-137.429	-66.311	0.445	-0.176
-136.414	66.868	0.143	0.145
-135.399	-109.164	-0.263	-0.056
-134.385	5.688	0.399	0.294
-133.370	-121.874	0.132	-0.022
-132.356	299.056	-0.205	-0.375
-131.341	238.798	-0.161	0.266
-130.326	-199.155	0.233	0.001
-129.312	-20.279	-0.150	0.092
-128.297	550.278	0.062	-0.147
-127.283	-16.518	0.100	0.063
-126.268	198.491	-0.033	-0.051
-125.253	18.117	0.086	-0.068
-124.239	595.689	-0.060	-0.148
-123.224	43.486	-0.219	0.199
-122.210	708.142	-0.133	0.350
-121.195	800.000	0.051	-0.146
-120.180	-12.998	0.098	-0.064
-119.166	25.306	0.098	0.081
-118.151	180.503	0.099	-0.145
-117.137	-56.258	0.223	-0.099
-116.122	-142.207	-0.297	0.029
-115.107	800.000	-0.101	0.330
-114.093	800.000	0.083	0.267
-113.078	340.185	0.059	-0.114
-112.064	408.138	-0.020	0.042
-111.049	-122.858	0.166	0.027
-110.034	-129.916	0.241	-0.033
-109.020	-32.368	-0.418	-0.232
-108.005	78.894	0.289	0.308
-106.991	202.664	-0.101	0.155
-105.976	-63.607	-0.106	-0.043
-104.962	67.857	-0.181	-0.184
-103.947	394.701	-0.105	0.217
-102.932	-20.424	-0.188	-0.115
-101.918	-200.000	0.050	-0.418
-100.903	-88.640	0.153	0.045
-99.889	-75.834	-0.242	0.085
-98.874	-200.000	0.020	0.105
-97.859	289.421	0.234	0.422
-96.845	-131.628	-0.149	-0.019
-95.830	-156.821	0.144	0.009
-94.816	42.208	-0.100	-0.091
-93.801	6.336	0.031	0.023
-92.786	58.735	-0.049	-0.048
-91.772	-25.498	-0.163	-0.096
-90.757	-52.890	-0.149	0.068
-89.743	-200.000	-0.043	-0.357
-88.728	4.681	0.277	0.202
-87.713	-179.227	-0.600	0.013
-86.699	-200.000	-0.018	-0.261
-85.684	42.444	0.153	-0.138
-84.670	134.386	0.110	-0.142
-83.655	-200.000	-0.024	-0.431
-82.640	-173.041	0.267	0.008
-81.626	-163.344	-0.167	0.008
-80.611	-37.801	-0.337	0.178
-79.597	-200.000	0.006	0.131
-78.582	-200.000	-0.089	0.392
-77.567	-49.216	0.140	-0.067
-76.553	83.231	-0.059	0.064
-75.538	-200.000	0.026	-0.117
-74.524	-200.000	0.006	-0.065
-73.509	-200.000	-0.021	-0.183
-72.494	-200.000	-0.017	-0.285
-71.480	-157.908	-0.433	0.025
-70.465	-200.000	-0.004	-0.022
-69.451	-111.945	-0.334	-0.067
-68.436	-98.509	-0.075	0.019
-67.422	-37.135	-0.102	0.054
-66.407	-96.483	0.207	0.054
-65.392	-200.000	-0.023	-0.205
-64.378	-140.118	0.347	0.036
-63.363	-200.000	0.113	0.496
-62.349	58.727	0.174	0.169
-61.334	137.731	-0.645	-0.839
-60.319	-25.326	0.412	0.242
-59.305	-200.000	0.100	-0.640
-58.290	137.657	0.529	0.688
-57.276	268.980	0.863	1.502
-56.261	-200.000	76.798	521.185
-55.246	513.792	1343.541	3109.332
-54.232	142.302	2602.287	3426.741
-53.217	109.124	2379.495	2824.704
-52.203	49.460	1989.848	1857.930
-51.188	43.581	1774.509	1610.169
-50.173	40.770	1728.474	1546.490
-49.159	55.151	1763.401	1690.792
-48.144	60.109	1781.590	1747.008
-47.130	43.527	1745.524	1583.196
-46.115	40.382	1731.592	1546.004
-45.100	40.317	1726.348	1540.753
-44.086	40.284	1724.208	1538.533
-43.071	40.246	1721.548	1535.802
-42.057	40.173	1719.486	1533.330
-41.042	40.162	1716.882	1530.867
-40.027	40.200	1715.577	1529.936
-39.013	40.179	1713.614	1527.960
-37.998	40.203	1712.150	1526.780
-36.984	40.300	1710.409	1525.917
-35.969	40.294	1708.809	1524.380
-34.954	40.347	1707.366	1523.445
-33.940	40.296	1705.345	1521.186
-32.925	40.330	1703.284	1519.549
-31.911	40.296	1701.208	1517.376
-30.896	40.286	1699.596	1515.798
-29.881	40.325	1697.845	1514.473
-28.867	40.352	1696.322	1513.267
-27.852	40.395	1694.639	1512.029
-26.838	40.293	1694.026	1510.644
-25.823	40.344	1692.027	1509.195
-24.809	40.397	1690.405	1508.091
-23.794	40.400	1688.662	1506.498
-22.779	40.392	1687.279	1505.139
-21.765	40.395	1686.271	1504.205
-20.750	40.332	1684.124	1501.756
-19.736	40.360	1682.831	1500.757
-18.721	40.442	1681.164	1499.828
-17.706	40.381	1679.752	1498.044
-16.692	40.331	1678.503	1496.495
-15.677	40.358	1676.789	1495.113
-14.663	40.406	1675.187	1493.984
-13.648	40.340	1674.129	1492.486
-12.633	40.343	1672.333	1490.846
-11.619	40.306	1670.996	1489.319
-10.604	40.271	1669.546	1487.707
-9.590	40.327	1667.740	1486.460
-8.575	40.331	1667.034	1485.801
-7.560	40.376	1665.208	1484.448
-6.546	40.377	1664.104	1483.414
-5.531	40.302	1663.360	1482.129
-4.517	40.291	1661.892	1480.682
-3.502	40.288	1661.033	1479.834
-2.487	40.375	1658.977	1478.594
-1.473	40.312	1648.106	1468.380
-0.458	37.912	1627.921	1432.733
0.556	31.713	1625.851	1394.940
1.571	28.817	1650.331	1393.888
2.586	27.611	1664.014	1396.089
3.600	25.378	1612.564	1336.214
4.615	19.802	1504.329	1207.595
5.629	14.731	1439.073	1121.156
6.644	13.648	1429.360	1106.262
7.659	13.537	1427.967	1104.349
8.673	13.430	1427.062	1102.838
9.688	13.436	1424.883	1101.095
10.702	13.245	1422.495	1097.889
11.717	15.545	1426.964	1116.541
12.731	19.943	1434.215	1151.433
13.746	20.097	1432.782	1151.209
14.761	17.752	1427.242	1131.119
15.775	16.437	1423.538	1119.379
16.790	15.273	1421.180	1109.726
17.804	14.431	1418.185	1101.724
18.819	13.914	1416.826	1097.154
19.834	13.513	1415.806	1093.625
20.848	13.295	1414.309	1090.931
21.863	13.089	1412.571	1088.135
22.877	12.951	1411.529	1086.328
23.892	12.829	1410.644	1084.749
24.907	12.886	1409.818	1084.396
25.921	12.857	1409.090	1083.547
26.936	12.994	1407.739	1083.313
27.950	12.942	1406.995	1082.302
28.965	13.044	1405.575	1081.781
29.980	13.155	1404.719	1081.753
30.994	13.181	1403.433	1080.838
32.009	13.175	1401.952	1079.560
33.023	13.194	1400.679	1078.608
34.038	13.064	1399.149	1076.487
35.053	13.140	1397.859	1075.900
36.067	13.054	1397.173	1074.713
37.082	13.101	1396.115	1074.108
38.096	13.154	1395.151	1073.621
39.111	13.110	1394.183	1072.496
40.126	13.062	1393.065	1071.225
41.140	12.889	1392.480	1069.558
42.155	12.821	1392.326	1068.905
43.169	12.886	1391.778	1068.814
44.184	12.865	1391.410	1068.300
45.199	12.868	1390.947	1067.868
46.213	12.885	1390.423	1067.479
47.228	12.958	1389.475	1067.130
48.242	12.942	1388.260	1066.003
49.257	12.967	1386.323	1064.583
50.271	12.955	1385.313	1063.634
51.286	12.987	1383.684	1062.493
52.301	12.997	1382.191	1061.317
53.315	12.814	1381.793	1059.742
54.330	12.924	1380.245	1059.170
55.344	12.991	1378.844	1058.429
56.359	12.863	1377.733	1056.662
57.374	12.971	1376.537	1056.345
58.388	12.840	1375.700	1054.770
59.403	12.778	1375.593	1054.194
60.417	12.815	1374.921	1053.823
61.432	12.864	1373.550	1052.993
62.447	12.738	1373.024	1051.692
63.461	12.777	1371.682	1050.823
64.476	12.665	1370.887	1049.405
65.490	12.698	1369.505	1048.462
66.505	12.725	1367.696	1047.157
67.520	12.780	1366.585	1046.567
68.534	12.798	1365.081	1045.435
69.549	12.820	1364.477	1045.020
70.563	12.773	1363.366	1043.778
71.578	12.712	1362.150	1042.366
72.593	12.688	1361.183	1041.384
73.607	12.592	1360.756	1040.358
74.622	12.691	1359.510	1039.937
75.636	12.741	1358.988	1039.763
76.651	12.686	1358.548	1038.990
77.666	12.674	1357.997	1038.400
78.680	12.646	1357.808	1037.983
79.695	12.684	1356.736	1037.310
80.709	12.865	1354.961	1037.000
81.724	12.787	1354.622	1036.162
82.739	12.763	1353.680	1035.200
83.753	12.867	1353.055	1035.281
84.768	13.017	1351.686	1035.085
85.782	13.028	1350.627	1034.251
86.797	12.976	1349.074	1032.645
87.812	12.872	1348.073	1031.135
88.826	12.902	1346.898	1030.335
89.841	13.083	1345.692	1030.452
90.855	12.977	1344.849	1029.055
91.870	13.030	1344.058	1028.686
92.884	13.081	1342.869	1028.000
93.899	12.963	1342.263	1026.715
94.914	13.069	1341.392	1026.615
95.928	13.177	1340.020	1026.143
96.943	13.013	1339.553	1024.681
97.957	13.022	1338.556	1023.881
98.972	12.973	1337.253	1022.491
99.987	13.074	1336.384	1022.359
101.001	13.088	1335.169	1021.429
102.016	13.013	1334.159	1020.102
103.030	13.000	1333.531	1019.451
104.045	13.054	1332.501	1018.904
105.060	13.010	1331.324	1017.642
106.074	12.981	1329.779	1016.193
107.089	12.849	1328.622	1014.406
108.103	12.817	1326.909	1012.812
109.118	12.876	1325.725	1012.185
110.133	12.789	1324.054	1010.283
111.147	12.822	1322.765	1009.416
112.162	12.873	1321.267	1008.494
113.176	12.885	1320.194	1007.658
114.191	12.911	1319.559	1007.243
115.206	12.951	1318.311	1006.443
116.220	12.896	1316.921	1004.962
117.235	12.847	1316.312	1004.109
118.249	12.924	1314.810	1003.342
119.264	12.870	1313.467	1001.899
120.279	12.788	1312.847	1000.838
121.293	12.799	1311.561	999.837
122.308	12.896	1309.748	998.954
123.322	12.843	1308.940	997.928
124.337	12.771	1308.235	996.867
125.352	12.875	1307.236	996.650
126.366	12.813	1306.169	995.370
127.381	12.840	1305.088	994.620
128.395	12.785	1304.091	993.443
129.410	12.894	1302.688	992.942
130.424	12.918	1302.471	992.833
131.439	12.893	1301.336	991.733
132.454	12.886	1300.858	991.238
133.468	12.905	1299.658	990.348
134.483	12.939	1298.756	989.779
135.497	12.961	1297.847	989.130
136.512	13.040	1296.313	988.345
137.527	12.983	1294.846	986.802
138.541	13.041	1293.316	985.892
139.556	12.982	1292.329	984.702
140.570	13.013	1291.285	984.005
141.585	13.147	1289.706	983.510
142.600	13.040	1289.030	982.269
143.614	13.099	1288.037	981.781
144.629	13.122	1286.862	980.935
145.643	13.134	1285.581	979.943
146.658	13.060	1284.645	978.701
147.673	13.045	1282.518	976.907
148.687	13.001	1281.493	975.780
149.702	13.016	1280.164	974.771
150.716	13.041	1278.681	973.703
151.731	12.939	1277.862	972.390
152.746	13.040	1276.387	971.774
153.760	12.968	1275.733	970.771
154.775	13.036	1274.461	970.116
155.789	13.139	1273.305	969.753
156.804	13.109	1271.800	968.345
157.819	13.153	1270.734	967.704
158.833	13.163	1269.811	966.975
159.848	13.233	1268.929	966.628
160.862	13.178	1267.917	965.453
161.877	13.084	1267.058	964.164
162.892	13.045	1265.831	962.914
163.906	13.037	1264.992	962.145
164.921	13.148	1263.396	961.491
165.935	13.114	1263.066	960.960
166.950	13.084	1262.419	960.205
167.964	13.066	1261.475	959.299
168.979	13.167	1260.526	959.080
169.994	13.207	1260.040	958.860
171.008	13.296	1258.909	958.428
172.023	13.220	1258.132	957.308
173.037	13.258	1257.580	957.028
174.052	13.225	1256.593	955.996
175.067	13.267	1255.376	955.233
176.081	13.236	1254.560	954.346
177.096	13.216	1253.412	953.271
178.110	13.197	1252.235	952.183
179.125	13.132	1251.249	950.974
180.140	13.324	1249.655	950.788
181.154	13.234	1248.924	949.627
182.169	13.272	1247.347	948.562
183.183	13.337	1245.979	947.809
184.198	13.366	1244.881	947.059
185.213	13.360	1243.775	946.100
186.227	13.373	1243.320	945.744
187.242	13.408	1242.012	944.862
188.256	13.557	1240.757	944.678
189.271	13.425	1239.795	943.107
190.286	13.370	1238.987	942.097
191.300	13.355	1237.539	940.828
192.315	13.201	1236.950	939.417
193.329	13.318	1235.976	939.261
194.344	13.182	1235.555	938.085
195.359	13.333	1234.932	938.387
196.373	13.383	1234.519	938.272
197.388	13.532	1233.973	938.623
198.402	13.628	1233.366	938.621
199.417	13.610	1232.859	938.047
200.432	13.598	1231.939	937.196
201.446	13.712	1231.173	937.175
202.461	13.708	1230.015	936.189
203.475	13.617	1229.564	935.248
204.490	13.762	1227.522	934.432
205.504	13.663	1226.216	932.795
206.519	13.707	1225.046	932.069
207.534	13.628	1224.070	930.805
208.548	13.664	1223.429	930.433
209.563	13.696	1222.432	929.773
210.577	13.803	1221.114	929.286
211.592	13.758	1220.862	928.763
212.607	13.794	1219.571	927.902
213.621	13.783	1218.905	927.252
214.636	13.810	1217.714	926.415
215.650	13.840	1216.718	925.740
216.665	13.836	1215.799	924.938
217.680	13.906	1215.041	924.669
218.694	13.938	1213.954	923.938
219.709	13.890	1213.325	923.112
220.723	13.898	1212.607	922.523
221.738	13.967	1211.460	921.953
222.753	13.818	1211.160	920.820
223.767	13.966	1210.672	921.187
224.782	14.005	1209.788	920.650
225.796	13.918	1209.203	919.638
226.811	13.985	1208.305	919.243
227.826	13.955	1207.816	918.624
228.840	14.005	1206.870	918.102
229.855	13.945	1206.383	917.321
230.869	14.021	1205.203	916.759
231.884	13.950	1204.486	915.745
232.899	13.865	1204.019	914.835
233.913	13.999	1202.672	914.473
234.928	13.930	1202.022	913.518
235.942	13.868	1201.375	912.602
236.957	13.974	1200.702	912.595
237.972	13.979	1199.793	911.850
238.986	13.914	1199.171	910.939
240.001	14.043	1198.172	910.807
241.015	13.971	1197.373	909.725
242.030	14.018	1196.610	909.319
243.045	14.059	1196.027	909.019
244.059	14.068	1194.801	908.060
245.074	14.061	1194.591	907.783
246.088	14.188	1193.633	907.666
247.103	14.219	1192.198	906.665
248.117	14.223	1192.127	906.548
249.132	14.331	1191.068	906.249
250.147	14.359	1190.432	905.842
251.161	14.487	1189.428	905.691
252.176	14.400	1189.191	904.958
253.190	14.552	1188.123	904.892
254.205	14.529	1187.909	904.522
255.220	14.463	1187.179	903.529
256.234	14.531	1186.412	903.231
257.249	14.510	1186.084	902.792
258.263	14.594	1184.886	902.254
259.278	14.590	1184.507	901.862
260.293	14.563	1183.808	901.106
261.307	14.616	1183.122	900.789
262.322	14.537	1182.744	899.994
263.336	14.541	1181.974	899.350
264.351	14.697	1181.215	899.536
265.366	14.735	1180.443	899.072
266.380	14.723	1179.846	898.474
267.395	14.572	1178.928	896.885
268.409	14.594	1178.159	896.335
269.424	14.543	1177.777	895.693
270.439	14.786	1176.780	896.156
271.453	14.575	1176.083	894.419
272.468	14.644	1174.898	893.805
273.482	14.601	1174.248	893.000
274.497	14.595	1173.980	892.689
275.512	14.692	1173.136	892.487
276.526	14.770	1171.568	891.631
277.541	14.671	1171.680	891.108
278.555	14.652	1170.946	890.369
279.570	14.780	1170.371	890.536
280.585	14.876	1169.361	890.199
281.599	14.832	1168.028	888.872
282.614	14.815	1167.200	888.073
283.628	14.792	1166.068	887.010
284.643	14.813	1164.951	886.197
285.657	14.813	1164.495	885.769
286.672	14.851	1163.496	885.130
287.687	14.933	1162.485	884.716
288.701	14.832	1161.647	883.469
289.716	14.893	1160.773	883.046
290.730	14.931	1160.107	882.664
291.745	15.000	1159.956	882.836
292.760	14.905	1158.987	881.520
293.774	15.000	1158.274	881.396
294.789	15.031	1157.674	881.027
295.803	15.032	1156.801	880.289
296.818	15.012	1156.319	879.742
297.833	15.104	1155.175	879.276
298.847	14.965	1154.422	877.896
299.862	15.164	1153.444	878.118
300.876	15.067	1153.061	877.239
301.891	15.061	1152.567	876.752
302.906	15.161	1151.536	876.414
303.920	15.149	1151.006	875.870
304.935	15.225	1150.179	875.562
305.949	15.240	1149.628	875.144
306.964	15.341	1148.594	874.808
307.979	15.352	1148.332	874.588
308.993	15.294	1147.321	873.434
310.008	15.361	1146.074	872.761
311.022	15.301	1145.785	872.149
312.037	15.358	1145.045	871.807
313.052	15.251	1143.985	870.365
314.066	15.231	1142.617	869.146
315.081	15.206	1142.097	868.543
316.095	15.223	1141.541	868.131
317.110	15.250	1140.703	867.557
318.125	15.193	1139.956	866.614
319.139	15.169	1139.224	865.860
320.154	15.297	1138.338	865.768
321.168	15.293	1137.815	865.273
322.183	15.331	1137.182	864.911
323.197	15.287	1136.914	864.405
324.212	15.241	1136.471	863.754
325.227	15.300	1135.907	863.556
326.241	15.380	1134.935	863.151
327.256	15.329	1134.000	862.099
328.270	15.297	1133.184	861.238
329.285	15.308	1132.424	860.645
330.300	15.488	1131.016	860.417
331.314	15.350	1130.267	859.065
332.329	15.313	1129.447	858.176
333.343	15.445	1128.143	857.787
334.358	15.424	1127.713	857.275
335.373	15.490	1126.864	856.890
336.387	15.428	1126.422	856.162
337.402	15.474	1125.531	855.646
338.416	15.594	1124.733	855.571
339.431	15.601	1124.301	855.203
340.446	15.625	1123.433	854.592
341.460	15.617	1122.996	854.143
342.475	15.663	1121.999	853.539
343.489	15.806	1121.086	853.496
344.504	15.699	1120.028	852.073
345.519	15.768	1119.389	851.859
346.533	15.752	1118.603	851.106
347.548	15.816	1117.824	850.762
348.562	15.892	1116.703	850.220
349.577	15.907	1115.722	849.474
350.592	15.748	1115.253	848.239
351.606	15.722	1114.158	847.198
352.621	15.766	1113.529	846.866
353.635	15.710	1113.629	846.586
354.650	15.782	1112.506	846.020
355.665	15.841	1111.385	845.386
356.679	15.758	1111.147	844.717
357.694	15.865	1110.422	844.625
358.708	15.900	1109.718	844.190
359.723	15.847	1108.916	843.239
360.738	15.860	1108.631	843.015
361.752	15.909	1107.991	842.699
362.767	15.860	1107.526	842.027
363.781	15.935	1106.916	841.863
364.796	15.912	1106.308	841.213
365.810	15.969	1105.375	840.712
366.825	16.040	1105.153	840.824
367.840	16.202	1104.198	840.830
368.854	16.120	1103.594	839.885
369.869	16.184	1103.224	839.848
370.883	16.200	1101.801	838.770
371.898	16.113	1101.458	838.001
372.913	16.148	1100.792	837.596
373.927	16.320	1100.177	837.906
374.942	16.225	1099.523	836.864
375.956	16.297	1098.520	836.381
376.971	16.327	1098.145	836.170
377.986	16.240	1097.985	835.543
379.000	16.328	1097.378	835.448
380.015	16.355	1096.792	835.061
381.029	16.271	1096.226	834.140
382.044	16.389	1095.348	833.982
383.059	16.482	1094.373	833.622
384.073	16.375	1093.637	832.460
385.088	16.343	1092.447	831.324
386.102	16.439	1091.615	831.087
387.117	16.497	1090.783	830.666
388.132	16.394	1089.758	829.306
389.146	16.399	1089.338	828.938
390.161	16.443	1088.299	828.291
391.175	16.436	1087.419	827.512
392.190	16.422	1087.106	827.133
393.205	16.385	1086.436	826.368
394.219	16.529	1085.208	826.064
395.234	16.520	1084.406	825.338
396.248	16.461	1083.583	824.350
397.263	16.454	1082.591	823.490
398.278	16.370	1081.949	822.520
399.292	16.437	1081.167	822.176
400.307	16.494	1080.447	821.837
401.321	16.439	1079.829	821.023
402.336	16.371	1079.109	820.073
403.350	16.377	1078.620	819.661
404.365	16.451	1077.829	819.344
405.380	16.444	1076.742	818.413
406.394	16.610	1075.900	818.504
407.409	16.683	1075.268	818.303
408.423	16.716	1074.620	817.895
409.438	16.611	1074.304	817.079
410.453	16.810	1073.396	817.272
411.467	16.783	1072.328	816.257
412.482	16.820	1071.548	815.771
413.496	16.896	1071.106	815.725
414.511	16.900	1070.460	815.180
415.526	16.832	1070.274	814.639
416.540	17.004	1069.580	814.868
417.555	17.067	1069.073	814.711
418.569	16.836	1068.950	813.434
419.584	17.026	1067.852	813.440
420.599	16.959	1067.610	812.861
421.613	86.581	1300.530	1378.654
422.628	80.033	1334.467	1378.791
