DTS Sentinel unit serial number:	SN413079Multiplexer serial number:	ORYXHardware model number:	OX4-SRSoftware version number:	ORYX F/W v4.00 Oryx Data Collector v3.7.2.0data status	okinstallation	princeton_trtdifferential loss correction	single-endedforward channel	channel 2reverse channel	N/Adate	2019/09/17time	10:51:35forward acquisition time	60.00reverse acquisition time	0.00gamma	496.2192k internal	0.2324k external	0.2324temperature offset calibration	0.9978default loss term (dB/km)	0.3790temperature slope calibration	1.0000multiplexer offset coefficient	1.0000multiplexer slope coefficient	1.0000fibre end	0.00T internal ref (°C)	30.20T ext. ref 1 (°C)	0.18T ext. ref 2 (°C)	25.78length (m)	temperature (°C)	Stokes	anti-Stokes-747.200	-136.251	0.035	-0.004
-746.185	117.668	0.260	0.323
-745.171	800.000	0.024	0.087
-744.156	-44.491	-0.188	-0.095
-743.142	171.752	-0.023	0.034
-742.127	-200.000	-0.011	0.060
-741.112	-38.408	-0.177	0.095
-740.098	-171.318	0.254	0.009
-739.083	162.325	0.193	0.273
-738.069	30.051	0.101	-0.087
-737.054	7.217	-0.025	0.019
-736.039	359.684	-0.038	-0.076
-735.025	51.128	0.095	0.091
-734.010	-170.031	-0.198	0.007
-732.996	800.000	0.019	0.083
-731.981	-68.555	-0.016	0.006
-730.966	59.690	0.109	0.108
-729.952	-200.000	0.048	-0.309
-728.937	629.376	0.025	0.065
-727.923	-42.764	-0.392	-0.201
-726.908	363.349	-0.194	-0.393
-725.894	629.764	-0.032	-0.083
-724.879	2.004	-0.104	-0.076
-723.864	800.000	0.043	-0.125
-722.850	-200.000	0.012	-0.052
-721.835	-77.180	0.033	0.012
-720.821	87.277	-0.103	-0.115
-719.806	-200.000	-0.001	0.168
-718.791	39.099	0.270	-0.243
-717.777	-140.987	-0.251	-0.026
-716.762	-200.000	-0.029	0.158
-715.748	-200.000	-0.005	0.091
-714.733	-118.416	-0.219	0.039
-713.718	-200.000	0.050	0.274
-712.704	-181.311	0.086	0.002
-711.689	-138.382	-0.491	0.055
-710.675	-200.000	-0.010	0.065
-709.660	17.722	0.261	0.209
-708.645	-200.000	-0.028	-0.414
-707.631	800.000	-0.027	0.078
-706.616	495.569	-0.155	-0.360
-705.602	-78.531	0.322	0.111
-704.587	671.984	-0.058	-0.152
-703.572	-8.753	0.079	0.054
-702.558	-56.653	-0.357	0.159
-701.543	-88.283	-0.119	-0.036
-700.529	-200.000	-0.002	0.016
-699.514	-134.401	-0.185	-0.023
-698.499	-200.000	-0.005	-0.032
-697.485	177.904	-0.096	-0.142
-696.470	-200.000	0.003	-0.279
-695.456	258.454	0.148	-0.257
-694.441	567.860	0.060	0.147
-693.426	348.683	-0.124	0.246
-692.412	499.101	0.064	-0.150
-691.397	-200.000	-0.034	0.208
-690.383	-168.567	-0.234	-0.009
-689.368	800.000	-0.041	-0.132
-688.354	-200.000	0.018	0.207
-687.339	262.041	-0.089	0.155
-686.324	442.521	0.038	-0.084
-685.310	81.912	0.252	-0.275
-684.295	73.881	0.057	-0.060
-683.281	20.649	-0.182	-0.149
-682.266	-35.938	-0.132	-0.072
-681.251	800.000	-0.085	0.276
-680.237	-178.471	-0.377	-0.009
-679.222	346.313	-0.086	-0.170
-678.208	267.156	-0.032	-0.056
-677.193	158.824	-0.032	0.045
-676.178	-200.000	-0.034	0.159
-675.164	-24.616	0.073	-0.044
-674.149	40.561	0.042	0.038
-673.135	469.951	0.039	-0.088
-672.120	-143.453	-0.138	0.013
-671.105	23.885	-0.276	-0.229
-670.091	800.000	-0.079	-0.313
-669.076	-28.638	-0.222	-0.129
-668.062	-141.268	-0.263	-0.027
-667.047	-67.774	0.235	0.093
-666.032	800.000	-0.070	0.297
-665.018	-141.258	0.221	-0.023
-664.003	105.424	-0.337	0.400
-662.989	64.697	-0.136	0.138
-661.974	-195.788	-0.237	0.002
-660.959	210.536	-0.122	0.193
-659.945	295.160	0.229	0.422
-658.930	-10.744	-0.121	0.080
-657.916	-200.000	-0.080	-0.486
-656.901	298.053	0.063	-0.117
-655.886	-179.970	-0.418	-0.009
-654.872	-89.876	0.078	-0.023
-653.857	660.632	-0.010	0.027
-652.843	162.844	0.076	-0.108
-651.828	105.130	-0.264	0.313
-650.814	-64.111	-0.142	0.058
-649.799	800.000	-0.076	-0.217
-648.784	346.488	-0.057	0.112
-647.770	-123.619	-0.160	0.026
-646.755	-187.697	0.145	-0.002
-645.741	363.303	-0.071	0.143
-644.726	-200.000	0.008	0.124
-643.711	-200.000	-0.025	-0.245
-642.697	-200.000	-0.006	-0.311
-641.682	-104.790	-0.032	0.007
-640.668	-100.406	0.082	0.020
-639.653	359.256	0.088	0.176
-638.638	800.000	-0.082	0.257
-637.624	-200.000	0.001	0.067
-636.609	55.111	0.120	-0.117
-635.595	-89.305	-0.288	0.085
-634.580	725.560	-0.057	0.153
-633.565	-200.000	-0.007	0.127
-632.551	-42.637	-0.279	0.143
-631.536	-109.635	-0.299	-0.063
-630.522	460.080	-0.086	0.192
-629.507	-107.440	-0.214	-0.047
-628.492	193.289	0.049	0.075
-627.478	-49.348	0.243	0.116
-626.463	232.510	-0.256	-0.423
-625.449	113.331	0.184	-0.224
-624.434	-200.000	-0.013	-0.307
-623.419	-169.944	-0.163	0.006
-622.405	39.348	-0.329	-0.296
-621.390	-139.922	0.511	0.054
-620.376	96.144	-0.096	0.110
-619.361	-200.000	-0.015	0.092
-618.346	283.527	-0.132	0.238
-617.332	-46.889	-0.052	0.025
-616.317	-27.758	-0.055	-0.032
-615.303	0.876	0.118	-0.085
-614.288	131.478	-0.072	0.093
-613.273	464.249	0.148	0.332
-612.259	-200.000	0.100	-0.471
-611.244	8.676	-0.133	-0.101
-610.230	119.745	0.059	0.074
-609.215	-38.599	0.139	-0.074
-608.201	-200.000	0.015	0.184
-607.186	-200.000	0.017	-0.189
-606.171	168.090	0.255	0.365
-605.157	-200.000	0.010	0.049
-604.142	27.586	0.108	-0.091
-603.128	-84.838	-0.438	-0.138
-602.113	324.643	0.081	0.156
-601.098	335.788	-0.105	-0.205
-600.084	-8.981	0.383	-0.257
-599.069	-200.000	0.020	-0.100
-598.055	-200.000	-0.012	-0.191
-597.040	38.318	-0.049	-0.044
-596.025	-200.000	0.025	-0.271
-595.011	-200.000	-0.024	-0.226
-593.996	800.000	0.059	-0.169
-592.982	181.065	-0.077	-0.114
-591.967	-102.121	0.066	0.016
-590.952	-200.000	0.008	-0.164
-589.938	-96.851	-0.225	0.059
-588.923	-95.079	0.118	-0.032
-587.909	557.894	-0.088	0.212
-586.894	800.000	-0.029	0.110
-585.879	286.677	0.054	-0.099
-584.865	-54.420	-0.111	-0.050
-583.850	-16.728	-0.533	0.338
-582.836	101.452	0.319	0.372
-581.821	116.592	-0.019	0.024
-580.806	-9.371	-0.310	-0.208
-579.792	-102.898	0.136	0.032
-578.777	-28.350	0.098	0.057
-577.763	-121.228	-0.103	0.017
-576.748	164.006	0.126	-0.178
-575.733	-123.181	0.323	-0.052
-574.719	-146.401	-0.224	-0.020
-573.704	-13.644	-0.295	-0.191
-572.690	114.717	0.048	0.059
-571.675	800.000	-0.066	0.236
-570.661	-200.000	-0.018	0.307
-569.646	-62.584	-0.158	-0.066
-568.631	-82.935	0.212	0.068
-567.617	-53.361	0.286	-0.131
-566.602	-102.170	-0.217	-0.052
-565.588	223.073	0.170	-0.275
-564.573	800.000	-0.039	-0.154
-563.558	-84.390	0.039	0.012
-562.544	7.114	-0.080	0.060
-561.529	73.905	-0.329	-0.346
-560.515	-111.316	-0.508	-0.104
-559.500	-158.468	0.100	0.006
-558.485	-114.542	0.209	-0.040
-557.471	-147.163	0.172	0.015
-556.456	652.413	0.132	0.340
-555.442	65.153	-0.148	0.150
-554.427	800.000	0.158	0.556
-553.412	-98.642	-0.060	0.015
-552.398	148.498	-0.373	-0.504
-551.383	43.209	0.223	-0.204
-550.369	-14.660	0.245	0.158
-549.354	-90.634	0.337	0.097
-548.339	25.215	0.166	-0.138
-547.325	-24.546	0.171	-0.102
-546.310	-7.608	0.077	-0.052
-545.296	7.089	0.076	0.057
-544.281	-200.000	0.003	0.087
-543.266	800.000	0.130	-0.365
-542.252	800.000	-0.048	-0.152
-541.237	231.817	-0.177	0.291
-540.223	74.227	0.128	-0.134
-539.208	800.000	0.079	-0.318
-538.193	18.609	-0.056	-0.045
-537.179	258.538	0.032	-0.055
-536.164	495.055	0.102	-0.235
-535.150	-200.000	0.000	0.067
-534.135	213.717	-0.077	0.121
-533.121	21.006	0.185	0.150
-532.106	149.623	-0.160	0.217
-531.091	164.195	0.337	-0.476
-530.077	14.462	0.113	-0.088
-529.062	800.000	-0.058	0.176
-528.048	156.351	0.111	-0.153
-527.033	251.412	0.094	-0.161
-526.018	-71.439	-0.104	0.039
-525.004	-118.999	0.035	0.006
-523.989	272.857	-0.047	0.082
-522.975	-26.840	-0.334	-0.195
-521.960	148.717	-0.057	0.078
-520.945	-200.000	0.003	0.016
-519.931	689.726	0.090	-0.237
-518.916	168.549	-0.190	-0.272
-517.902	91.246	0.259	-0.291
-516.887	800.000	-0.081	-0.250
-515.872	-28.943	-0.172	-0.099
-514.858	163.028	-0.191	0.268
-513.843	30.405	-0.198	0.169
-512.829	-59.533	-0.199	-0.086
-511.814	9.031	-0.220	-0.166
-510.799	410.244	0.092	-0.195
-509.785	408.700	0.201	-0.426
-508.770	-200.000	0.025	-0.415
-507.756	42.353	-0.180	0.163
-506.741	-66.096	-0.128	-0.051
-505.726	-57.997	0.078	0.034
-504.712	800.000	0.060	-0.190
-503.697	336.743	-0.010	0.020
-502.683	-138.793	-0.385	-0.042
-501.668	472.627	0.096	-0.215
-500.653	568.576	0.068	-0.165
-499.639	-35.383	0.038	0.021
-498.624	-149.028	0.236	-0.019
-497.610	-126.411	0.238	0.035
-496.595	-200.000	-0.003	-0.036
-495.581	800.000	-0.023	-0.087
-494.566	-200.000	-0.032	0.403
-493.551	95.199	0.102	0.117
-492.537	-56.828	-0.226	0.100
-491.522	-74.995	-0.202	-0.072
-490.508	-78.829	0.107	0.036
-489.493	-200.000	0.049	0.215
-488.478	-178.783	-0.143	0.003
-487.464	129.724	0.183	-0.234
-486.449	-95.842	-0.068	-0.018
-485.435	45.143	0.076	0.070
-484.420	333.660	-0.058	-0.112
-483.405	-200.000	0.034	0.224
-482.391	449.695	0.212	0.468
-481.376	800.000	-0.156	0.491
-480.362	203.806	0.153	0.237
-479.347	152.236	0.082	-0.112
-478.332	-200.000	-0.007	-0.041
-477.318	254.656	0.028	0.047
-476.303	-27.357	-0.252	0.147
-475.289	109.343	-0.156	-0.186
-474.274	-38.600	-0.296	-0.156
-473.259	-200.000	-0.002	-0.088
-472.245	-200.000	-0.001	-0.225
-471.230	-114.988	-0.050	-0.010
-470.216	553.830	0.070	0.169
-469.201	-200.000	0.000	-0.270
-468.186	-141.586	0.075	-0.008
-467.172	-54.359	0.309	0.140
-466.157	105.387	0.168	-0.199
-465.143	-25.120	-0.259	0.153
-464.128	40.481	0.191	0.172
-463.113	-200.000	-0.011	-0.160
-462.099	-194.736	-0.303	-0.002
-461.084	-135.383	-0.244	-0.029
-460.070	-3.754	0.105	-0.073
-459.055	800.000	-0.098	-0.342
-458.040	43.449	0.154	-0.141
-457.026	240.846	-0.131	0.219
-456.011	-95.795	-0.177	0.047
-454.997	-200.000	0.017	-0.149
-453.982	102.453	0.102	-0.119
-452.968	-200.000	0.051	0.225
-451.953	320.322	0.048	-0.091
-450.938	9.607	-0.167	0.126
-449.924	-114.829	-0.081	-0.015
-448.909	320.726	-0.103	-0.196
-447.895	-47.044	0.439	-0.214
-446.880	-105.419	-0.270	-0.061
-445.865	-30.397	0.294	-0.167
-444.851	41.682	0.166	0.150
-443.836	211.945	-0.161	0.252
-442.822	-80.837	0.288	-0.095
-441.807	-132.259	0.100	0.013
-440.792	30.081	0.109	-0.093
-439.778	374.325	-0.141	0.287
-438.763	4.404	0.082	0.060
-437.749	-200.000	0.001	0.107
-436.734	-60.832	-0.373	0.158
-435.719	-99.827	-0.195	-0.049
-434.705	112.556	0.091	0.110
-433.690	-45.362	0.257	0.127
-432.676	29.017	-0.251	0.212
-431.661	-162.978	0.307	0.015
-430.646	-65.567	0.097	-0.039
-429.632	-51.590	-0.075	0.035
-428.617	316.692	-0.051	-0.097
-427.603	499.149	0.089	-0.204
-426.588	16.546	0.229	-0.180
-425.573	144.952	0.143	0.191
-424.559	335.125	-0.108	-0.208
-423.544	-200.000	-0.007	-0.059
-422.530	284.048	-0.027	-0.049
-421.515	-180.451	-0.244	0.005
-420.500	639.793	-0.068	0.172
-419.486	800.000	-0.009	-0.031
-418.471	-145.434	-0.208	0.019
-417.457	-133.887	-0.101	-0.012
-416.442	-116.688	-0.191	-0.035
-415.428	-149.155	0.108	0.009
-414.413	-20.467	0.053	-0.033
-413.398	-115.139	0.119	-0.022
-412.384	82.641	-0.038	0.041
-411.369	28.363	0.179	0.151
-410.355	-200.000	0.017	-0.107
-409.340	-34.739	-0.152	-0.083
-408.325	32.283	0.198	0.171
-407.311	-76.422	-0.328	-0.115
-406.296	-71.173	-0.053	-0.020
-405.282	-97.584	-0.107	-0.028
-404.267	-14.630	-0.070	-0.045
-403.252	-56.258	0.480	0.213
-402.238	327.056	-0.130	-0.248
-401.223	84.422	0.167	0.182
-400.209	800.000	-0.026	-0.081
-399.194	602.792	0.054	-0.135
-398.179	-124.746	0.566	-0.087
-397.165	191.618	-0.108	-0.161
-396.150	446.490	0.049	-0.108
-395.136	-200.000	0.022	-0.160
-394.121	141.262	-0.261	-0.343
-393.106	-200.000	0.026	0.183
-392.092	-120.230	-0.273	-0.046
-391.077	172.474	-0.016	-0.023
-390.063	-111.912	0.118	0.024
-389.048	-17.991	0.115	-0.072
-388.033	-200.000	0.055	0.370
-387.019	-172.816	0.210	0.007
-386.004	-129.230	0.419	-0.058
-384.990	-0.909	-0.167	0.118
-383.975	-156.873	-0.035	-0.002
-382.960	-74.897	0.395	-0.141
-381.946	-119.401	-0.204	0.035
-380.931	800.000	-0.078	-0.247
-379.917	-200.000	0.059	0.480
-378.902	-31.078	0.116	-0.065
-377.888	-159.728	0.436	-0.024
-376.873	-200.000	0.001	0.206
-375.858	800.000	0.095	-0.307
-374.844	-159.789	0.466	-0.026
-373.829	-4.586	0.322	-0.221
-372.815	24.567	-0.196	0.161
-371.800	-113.932	-0.261	-0.050
-370.785	-59.632	0.111	0.047
-369.771	28.740	0.102	-0.086
-368.756	-150.321	0.081	0.006
-367.742	-200.000	0.001	0.201
-366.727	800.000	-0.096	0.404
-365.712	-200.000	-0.018	0.108
-364.698	-22.543	-0.084	0.050
-363.683	-200.000	-0.024	-0.122
-362.669	101.098	0.174	-0.202
-361.654	192.897	-0.157	-0.236
-360.639	18.883	-0.172	-0.137
-359.625	180.889	-0.164	-0.239
-358.610	304.075	-0.053	-0.097
-357.596	52.861	0.025	0.024
-356.581	-62.642	-0.162	-0.067
-355.566	33.049	0.053	0.045
-354.552	419.020	0.032	0.067
-353.537	-200.000	-0.049	0.271
-352.523	245.479	-0.069	-0.116
-351.508	225.515	-0.057	0.092
-350.493	800.000	-0.098	0.310
-349.479	-200.000	-0.027	-0.211
-348.464	374.504	0.049	0.099
-347.450	-145.851	0.246	-0.022
-346.435	-43.597	0.106	0.053
-345.420	800.000	-0.113	0.382
-344.406	-200.000	-0.008	-0.224
-343.391	2.595	-0.223	-0.161
-342.377	-200.000	0.033	0.317
-341.362	-33.746	0.218	-0.119
-340.348	-105.249	-0.340	0.077
-339.333	202.066	0.093	0.142
-338.318	443.259	-0.072	0.156
-337.304	-200.000	0.009	-0.379
-336.289	642.383	-0.030	0.075
-335.275	723.213	-0.054	0.143
-334.260	51.197	-0.153	0.144
-333.245	3.023	-0.123	0.088
-332.231	27.589	0.032	0.026
-331.216	-200.000	0.004	-0.274
-330.202	5.194	-0.296	0.216
-329.187	72.368	0.302	0.313
-328.172	800.000	-0.043	-0.147
-327.158	-200.000	-0.004	0.021
-326.143	77.083	-0.391	0.413
-325.129	50.578	0.266	0.250
-324.114	220.473	0.094	0.150
-323.099	87.440	-0.170	0.186
-322.085	800.000	0.067	0.234
-321.070	101.791	-0.272	0.315
-320.056	-200.000	0.012	-0.208
-319.041	-153.393	-0.173	-0.012
-318.026	744.561	-0.033	-0.087
-317.012	128.315	-0.263	0.332
-315.997	200.319	0.231	0.353
-314.983	9.056	-0.134	-0.101
-313.968	-200.000	0.040	0.272
-312.953	-40.059	0.403	0.209
-311.939	613.977	0.112	0.278
-310.924	196.056	-0.259	0.392
-309.910	8.329	0.036	0.027
-308.895	7.623	0.242	0.180
-307.880	-72.534	0.454	0.166
-306.866	225.768	-0.107	-0.171
-305.851	-177.817	0.106	0.003
-304.837	-128.864	-0.273	0.038
-303.822	419.991	0.114	0.242
-302.807	-119.689	0.282	-0.048
-301.793	-150.307	-0.112	-0.009
-300.778	-52.061	-0.162	-0.075
-299.764	748.067	0.102	-0.274
-298.749	-87.236	0.243	-0.073
-297.735	5.310	-0.101	0.074
-296.720	-200.000	-0.038	-0.278
-295.705	2.666	-0.276	-0.199
-294.691	-200.000	0.009	-0.187
-293.676	-200.000	-0.001	-0.062
-292.662	168.846	-0.211	0.299
-291.647	-113.057	-0.132	-0.026
-290.632	800.000	0.032	-0.137
-289.618	-200.000	-0.026	0.375
-288.603	-61.611	-0.116	-0.048
-287.589	224.838	-0.093	0.149
-286.574	-200.000	0.065	0.368
-285.559	94.726	-0.155	-0.175
-284.545	-41.292	0.201	-0.103
-283.530	-200.000	-0.051	-0.282
-282.516	-151.766	0.213	0.016
-281.501	27.666	-0.217	-0.181
-280.486	-18.540	-0.212	0.131
-279.472	-200.000	-0.045	0.343
-278.457	800.000	-0.017	0.058
-277.443	-40.591	-0.341	-0.176
-276.428	800.000	0.047	0.171
-275.413	-72.562	0.215	-0.079
-274.399	-37.758	0.205	0.108
-273.384	-0.036	-0.156	-0.110
-272.370	135.062	-0.060	0.078
-271.355	190.725	-0.166	-0.248
-270.340	-52.983	-0.164	-0.075
-269.326	-145.982	-0.058	0.005
-268.311	-48.870	-0.389	0.185
-267.297	61.152	-0.094	0.092
-266.282	-200.000	0.032	0.156
-265.267	800.000	0.080	0.320
-264.253	-200.000	0.060	0.372
-263.238	-99.521	-0.171	0.043
-262.224	123.908	0.342	-0.425
-261.209	-200.000	-0.010	0.108
-260.195	-200.000	-0.039	0.281
-259.180	-2.272	-0.164	0.114
-258.165	340.057	-0.064	0.123
-257.151	800.000	0.056	0.220
-256.136	46.494	0.130	0.120
-255.122	800.000	0.075	0.242
-254.107	49.277	-0.412	0.384
-253.092	-200.000	0.044	-0.197
-252.078	-200.000	0.035	-0.190
-251.063	800.000	-0.111	-0.316
-250.049	800.000	0.113	-0.321
-249.034	-200.000	0.005	0.216
-248.019	170.129	0.041	0.058
-247.005	-96.300	0.118	0.031
-245.990	45.790	-0.159	-0.146
-244.976	10.991	-0.184	0.139
-243.961	49.742	0.109	-0.102
-242.946	117.703	0.047	-0.058
-241.932	-200.000	-0.007	0.137
-240.917	-51.756	0.136	-0.063
-239.903	-60.769	0.271	0.114
-238.888	-127.112	-0.146	0.021
-237.873	-74.990	0.442	0.157
-236.859	-13.611	-0.172	-0.110
-235.844	58.616	-0.115	0.111
-234.830	-111.922	0.347	0.069
-233.815	-200.000	0.047	0.384
-232.800	-76.093	0.091	-0.032
-231.786	426.046	-0.033	-0.071
-230.771	-6.786	0.435	-0.293
-229.757	-200.000	0.055	0.259
-228.742	82.456	0.088	-0.095
-227.727	-106.858	-0.026	-0.006
-226.713	545.896	0.050	0.118
-225.698	11.115	-0.189	-0.143
-224.684	262.665	0.100	-0.172
-223.669	-60.345	0.196	-0.083
-222.655	-137.932	-0.144	0.016
-221.640	-83.003	-0.204	0.065
-220.625	109.249	-0.175	0.207
-219.611	-200.000	-0.036	0.192
-218.596	-135.760	0.290	0.034
-217.582	-8.763	0.132	0.087
-216.567	-200.000	-0.032	-0.219
-215.552	-75.072	0.411	-0.145
-214.538	-200.000	0.000	0.177
-213.523	-30.383	0.142	-0.080
-212.509	-108.968	-0.174	0.037
-211.494	800.000	-0.072	0.209
-210.479	-46.903	0.005	-0.002
-209.465	251.813	0.222	-0.374
-208.450	-49.903	0.248	-0.117
-207.436	652.431	-0.167	-0.423
-206.421	-47.431	-0.351	0.169
-205.406	-116.245	0.113	-0.021
-204.392	496.314	0.141	-0.321
-203.377	82.206	-0.104	0.111
-202.363	316.347	0.097	0.180
-201.348	-115.952	-0.373	0.069
-200.333	452.166	-0.034	0.075
-199.319	113.874	-0.086	-0.104
-198.304	52.605	0.132	0.125
-197.290	49.105	0.274	0.255
-196.275	-121.380	0.278	0.046
-195.260	-6.572	-0.269	0.181
-194.246	736.977	0.115	0.306
-193.231	271.730	0.180	0.314
-192.217	-16.309	0.179	-0.112
-191.202	6.590	-0.113	-0.083
-190.187	-20.808	0.237	-0.143
-189.173	-200.000	0.029	-0.257
-188.158	-200.000	0.026	0.531
-187.144	192.889	-0.128	0.191
-186.129	-200.000	-0.013	0.183
-185.114	-200.000	-0.002	-0.479
-184.100	-107.895	-0.161	-0.035
-183.085	220.970	0.083	0.132
-182.071	75.546	-0.090	-0.093
-181.056	96.510	-0.151	-0.171
-180.042	800.000	-0.025	-0.088
-179.027	-150.577	0.056	-0.004
-178.012	-138.758	-0.303	0.033
-176.998	525.939	0.122	-0.284
-175.983	-28.632	-0.192	-0.109
-174.969	89.283	-0.204	-0.225
-173.954	208.767	-0.085	0.132
-172.939	-124.570	0.374	0.057
-171.925	86.646	-0.033	-0.036
-170.910	15.681	-0.042	0.032
-169.896	66.392	0.141	-0.142
-168.881	800.000	0.085	-0.266
-167.866	273.506	0.141	-0.246
-166.852	-38.512	0.222	0.116
-165.837	597.495	-0.156	-0.381
-164.823	39.701	0.126	0.111
-163.808	-44.260	-0.057	0.028
-162.793	-200.000	-0.011	0.210
-161.779	-120.905	-0.171	0.028
-160.764	-200.000	-0.002	-0.217
-159.750	-30.707	-0.465	-0.260
-158.735	-150.051	-0.266	-0.020
-157.720	66.776	0.140	0.140
-156.706	77.903	-0.115	-0.121
-155.691	-132.271	0.044	0.006
-154.677	-40.086	0.246	-0.127
-153.662	212.240	-0.060	-0.093
-152.647	-187.968	0.204	0.003
-151.633	-1.449	0.250	-0.174
-150.618	363.401	-0.052	-0.102
-149.604	-26.199	-0.080	-0.046
-148.589	685.724	0.170	0.439
-147.574	207.658	0.138	0.213
-146.560	343.337	0.098	0.190
-145.545	11.377	0.150	0.114
-144.531	116.945	0.093	-0.113
-143.516	68.154	0.307	0.310
-142.502	397.372	0.065	0.135
-141.487	-137.811	0.342	-0.038
-140.472	266.075	0.090	-0.155
-139.458	36.983	-0.365	0.318
-138.443	445.030	0.023	-0.049
-137.429	-0.182	-0.142	-0.099
-136.414	-200.000	0.042	0.183
-135.399	76.198	-0.044	-0.046
-134.385	49.975	-0.123	-0.114
-133.370	2.261	-0.140	0.100
-132.356	148.490	0.341	0.453
-131.341	-200.000	-0.005	-0.095
-130.326	800.000	-0.015	-0.042
-129.312	-149.459	0.114	-0.009
-128.297	-72.621	0.520	0.189
-127.283	-60.613	-0.034	0.014
-126.268	659.269	0.132	0.335
-125.253	245.655	0.033	-0.054
-124.239	-37.590	0.083	0.044
-123.224	-70.807	0.229	0.085
-122.210	-129.969	-0.099	-0.013
-121.195	133.718	-0.170	-0.217
-120.180	58.315	0.040	0.039
-119.166	-62.370	0.086	-0.035
-118.151	-200.000	0.050	0.363
-117.137	-89.430	0.127	-0.037
-116.122	-200.000	0.028	0.154
-115.107	-26.705	-0.143	0.082
-114.093	-200.000	0.041	0.365
-113.078	-197.429	-0.120	-0.001
-112.064	800.000	-0.081	0.247
-111.049	-200.000	0.005	0.423
-110.034	-123.177	-0.180	-0.028
-109.020	-126.756	0.511	0.074
-108.005	-126.509	-0.163	-0.024
-106.991	-200.000	0.004	-0.206
-105.976	800.000	0.023	0.071
-104.962	97.756	-0.139	-0.157
-103.947	-98.415	0.026	0.007
-102.932	800.000	-0.059	0.192
-101.918	800.000	0.071	0.241
-100.903	800.000	0.092	0.254
-99.889	4.189	0.342	-0.247
-98.874	121.400	-0.202	0.247
-97.859	305.845	-0.067	0.122
-96.845	-45.335	-0.375	-0.183
-95.830	-200.000	-0.022	-0.350
-94.816	-200.000	0.049	-0.296
-93.801	-124.884	-0.091	0.014
-92.786	800.000	0.068	-0.252
-91.772	-89.529	0.307	0.089
-90.757	784.613	0.133	0.360
-89.743	-149.953	0.194	-0.015
-88.728	-200.000	-0.021	-0.210
-87.713	141.871	0.099	0.130
-86.699	-200.000	0.013	-0.169
-85.684	-200.000	0.020	-0.368
-84.670	-18.934	0.226	-0.138
-83.655	-90.401	0.198	0.056
-82.640	-199.851	-0.331	0.002
-81.626	380.207	-0.155	-0.313
-80.611	-200.000	0.023	-0.140
-79.597	160.010	0.291	-0.400
-78.582	33.697	0.167	0.143
-77.567	101.111	0.272	0.311
-76.553	800.000	0.039	-0.132
-75.538	-125.040	-0.084	-0.013
-74.524	-107.148	0.214	-0.046
-73.509	20.517	-0.090	-0.071
-72.494	-200.000	-0.013	-0.096
-71.480	-200.000	0.027	-0.330
-70.465	800.000	0.070	0.201
-69.451	256.777	0.092	-0.155
-68.436	208.485	0.077	-0.118
-67.422	-73.394	0.150	-0.054
-66.407	-200.000	0.053	0.229
-65.392	-200.000	0.023	0.245
-64.378	411.531	0.077	0.161
-63.363	340.306	0.043	0.083
-62.349	800.000	0.036	0.143
-61.334	136.583	-0.881	-1.131
-60.319	288.873	0.289	0.515
-59.305	800.000	-0.228	-0.865
-58.290	270.747	0.671	1.161
-57.276	124.707	1.134	1.403
-56.261	-200.000	102.534	569.085
-55.246	463.443	1451.752	3187.410
-54.232	148.378	2648.547	3514.457
-53.217	101.491	2301.973	2636.028
-52.203	39.219	1915.012	1683.954
-51.188	33.319	1702.160	1451.644
-50.173	30.730	1658.826	1395.250
-49.159	49.119	1709.287	1578.030
-48.144	49.766	1725.614	1597.963
-47.130	33.015	1684.800	1434.301
-46.115	30.299	1670.728	1401.786
-45.100	30.127	1665.888	1396.372
-44.086	30.107	1663.209	1393.919
-43.071	30.126	1660.459	1391.700
-42.057	30.044	1658.506	1389.391
-41.042	30.110	1655.945	1387.689
-40.027	30.137	1654.181	1386.359
-39.013	30.064	1652.570	1384.404
-37.998	29.988	1650.857	1382.345
-36.984	30.115	1649.567	1382.160
-35.969	30.211	1647.974	1381.483
-34.954	30.326	1646.351	1380.925
-33.940	30.226	1644.901	1378.913
-32.925	30.210	1643.046	1377.181
-31.911	30.214	1641.173	1375.585
-30.896	30.196	1639.223	1373.768
-29.881	30.117	1637.651	1371.811
-28.867	30.229	1635.886	1371.102
-27.852	30.288	1633.967	1369.874
-26.838	30.141	1633.710	1368.519
-25.823	30.238	1631.423	1367.265
-24.809	30.291	1630.433	1366.774
-23.794	30.243	1628.834	1365.023
-22.779	30.246	1627.022	1363.479
-21.765	30.223	1625.550	1362.016
-20.750	30.165	1624.346	1360.529
-19.736	30.294	1622.440	1359.827
-18.721	30.290	1621.105	1358.621
-17.706	30.183	1620.189	1357.016
-16.692	30.243	1618.389	1355.897
-15.677	30.268	1617.236	1355.058
-14.663	30.192	1616.028	1353.438
-13.648	30.168	1614.785	1352.165
-12.633	30.156	1612.781	1350.350
-11.619	30.281	1610.918	1349.646
-10.604	30.181	1609.994	1348.087
-9.590	30.207	1608.295	1346.799
-8.575	30.297	1606.999	1346.319
-7.560	30.243	1605.812	1344.874
-6.546	30.238	1605.122	1344.210
-5.531	30.175	1603.976	1342.744
-4.517	30.217	1602.923	1342.110
-3.502	30.206	1601.436	1340.733
-2.487	30.220	1599.937	1339.528
-1.473	30.034	1588.378	1328.458
-0.458	27.381	1569.099	1293.462
0.556	22.211	1569.735	1261.764
1.571	19.694	1593.747	1262.592
2.586	19.277	1606.899	1269.820
3.600	17.598	1554.052	1215.976
4.615	9.879	1443.478	1077.995
5.629	1.972	1378.006	978.443
6.644	0.287	1370.174	962.044
7.659	0.222	1368.574	960.422
8.673	0.181	1367.566	959.368
9.688	0.041	1366.159	957.404
10.702	-0.028	1362.798	954.527
11.717	3.723	1369.045	982.714
12.731	12.198	1382.381	1046.443
13.746	17.273	1388.396	1083.326
14.761	17.236	1386.758	1081.719
15.775	16.325	1384.490	1074.061
16.790	15.179	1382.100	1064.831
17.804	14.370	1379.832	1057.859
18.819	14.164	1378.603	1055.512
19.834	13.904	1376.729	1052.338
20.848	13.631	1375.375	1049.484
21.863	13.377	1374.190	1046.881
22.877	13.215	1373.294	1045.075
23.892	13.201	1372.045	1043.946
24.907	13.175	1371.138	1042.997
25.921	13.200	1370.601	1042.657
26.936	13.239	1369.999	1042.353
27.950	13.293	1368.519	1041.477
28.965	13.315	1367.555	1040.788
29.980	13.285	1367.218	1040.252
30.994	13.353	1366.039	1039.686
32.009	13.462	1364.579	1039.169
33.023	13.467	1363.573	1038.344
34.038	13.393	1362.591	1037.041
35.053	13.316	1361.824	1035.884
36.067	13.421	1360.164	1035.183
37.082	13.339	1359.416	1034.013
38.096	13.469	1358.400	1033.960
39.111	13.300	1358.224	1032.680
40.126	13.416	1356.652	1032.114
41.140	13.265	1356.369	1030.864
42.155	13.131	1356.337	1029.915
43.169	13.205	1355.618	1029.741
44.184	13.093	1355.854	1029.126
45.199	13.139	1355.350	1028.939
46.213	13.295	1354.184	1028.936
47.228	13.253	1353.074	1027.739
48.242	13.318	1352.150	1027.352
49.257	13.236	1350.742	1025.685
50.271	13.281	1349.384	1024.842
51.286	13.267	1348.063	1023.660
52.301	13.380	1346.451	1023.042
53.315	13.251	1346.035	1021.840
54.330	13.197	1345.089	1020.698
55.344	13.239	1343.155	1019.401
56.359	13.199	1342.277	1018.396
57.374	13.281	1341.505	1018.227
58.388	13.068	1341.098	1016.517
59.403	13.111	1340.264	1016.054
60.417	13.153	1339.522	1015.662
61.432	13.037	1338.685	1014.227
62.447	13.061	1337.536	1013.415
63.461	12.989	1336.299	1011.946
64.476	13.179	1334.770	1011.859
65.490	13.098	1333.829	1010.560
66.505	13.024	1332.565	1009.065
67.520	13.065	1330.958	1008.005
68.534	13.158	1330.492	1008.131
69.549	13.150	1328.947	1006.825
70.563	13.159	1327.920	1006.012
71.578	13.148	1326.608	1004.858
72.593	13.056	1325.969	1003.727
73.607	13.072	1324.969	1002.979
74.622	12.917	1324.883	1001.883
75.636	13.023	1323.512	1001.401
76.651	13.035	1322.691	1000.764
77.666	13.053	1321.850	1000.152
78.680	13.157	1321.474	1000.406
79.695	13.051	1320.742	999.119
80.709	13.048	1319.752	998.264
81.724	13.232	1318.582	998.407
82.739	13.230	1317.893	997.780
83.753	13.220	1316.844	996.841
84.768	13.275	1315.742	996.248
85.782	13.329	1315.173	996.055
86.797	13.297	1313.516	994.519
87.812	13.254	1312.226	993.197
88.826	13.190	1311.381	992.085
89.841	13.184	1310.286	991.131
90.855	13.339	1309.158	991.120
91.870	13.273	1308.416	990.078
92.884	13.411	1307.269	989.945
93.899	13.339	1306.806	989.078
94.914	13.415	1305.696	988.603
95.928	13.427	1305.060	988.104
96.943	13.433	1303.925	987.195
97.957	13.357	1303.521	986.347
98.972	13.291	1302.531	985.117
99.987	13.372	1301.308	984.588
101.001	13.348	1300.169	983.500
102.016	13.409	1299.047	982.923
103.030	13.432	1298.340	982.438
104.045	13.412	1297.450	981.559
105.060	13.345	1296.385	980.271
106.074	13.183	1295.528	978.574
107.089	13.155	1294.219	977.333
108.103	13.133	1292.535	975.847
109.118	13.076	1292.002	975.023
110.133	13.147	1290.158	973.961
111.147	13.250	1288.402	973.158
112.162	13.247	1287.327	972.240
113.176	13.107	1286.918	971.021
114.191	13.217	1285.912	970.823
115.206	13.260	1284.373	969.829
116.220	13.189	1283.364	968.563
117.235	13.269	1282.502	968.297
118.249	13.297	1281.424	967.562
119.264	13.225	1280.178	966.118
120.279	13.169	1279.087	964.879
121.293	13.132	1277.649	963.491
122.308	13.219	1277.051	963.462
123.322	13.220	1275.903	962.520
124.337	13.176	1274.988	961.485
125.352	13.193	1273.910	960.689
126.366	13.187	1272.444	959.464
127.381	13.176	1271.521	958.620
128.395	13.181	1270.249	957.602
129.410	13.211	1269.640	957.235
130.424	13.141	1268.842	956.139
131.439	13.280	1267.740	956.033
132.454	13.346	1266.882	955.678
133.468	13.264	1265.952	954.423
134.483	13.335	1265.256	954.219
135.497	13.395	1264.229	953.710
136.512	13.315	1263.182	952.375
137.527	13.276	1261.663	950.919
138.541	13.316	1260.329	950.058
139.556	13.375	1258.857	949.204
140.570	13.364	1257.742	948.219
141.585	13.496	1256.294	947.796
142.600	13.462	1255.659	947.038
143.614	13.428	1254.922	946.203
144.629	13.484	1253.315	945.229
145.643	13.390	1252.454	943.958
146.658	13.406	1251.338	943.128
147.673	13.404	1249.789	941.865
148.687	13.340	1248.732	940.620
149.702	13.391	1247.532	939.921
150.716	13.274	1246.046	938.057
151.731	13.322	1244.946	937.417
152.746	13.354	1243.601	936.505
153.760	13.479	1242.254	936.115
154.775	13.450	1241.503	935.300
155.789	13.430	1240.362	934.245
156.804	13.422	1239.424	933.412
157.819	13.372	1238.887	932.640
158.833	13.640	1237.143	932.756
159.848	13.644	1236.231	932.006
160.862	13.705	1235.376	931.623
161.877	13.487	1234.307	929.511
162.892	13.423	1233.231	928.261
163.906	13.435	1232.354	927.585
164.921	13.509	1231.823	927.519
165.935	13.589	1230.743	927.072
166.950	13.557	1229.743	926.057
167.964	13.513	1229.323	925.413
168.979	13.571	1228.425	924.977
169.994	13.701	1227.432	924.872
171.008	13.713	1226.650	924.268
172.023	13.707	1225.851	923.553
173.037	13.568	1225.585	922.495
174.052	13.617	1224.766	922.068
175.067	13.690	1223.573	921.496
176.081	13.590	1222.261	919.873
177.096	13.791	1221.095	920.028
178.110	13.622	1220.646	918.671
179.125	13.693	1219.414	918.054
180.140	13.726	1217.949	917.053
181.154	13.679	1217.436	916.329
182.169	13.708	1215.953	915.288
183.183	13.832	1214.404	914.728
184.198	13.775	1213.486	913.642
185.213	13.794	1212.367	912.820
186.227	13.875	1211.223	912.325
187.242	13.827	1210.596	911.508
188.256	13.834	1209.304	910.492
189.271	13.727	1208.887	909.512
190.286	13.692	1207.753	908.386
191.300	13.646	1206.613	907.197
192.315	13.721	1205.745	906.875
193.329	13.776	1205.245	906.720
194.344	13.634	1204.617	905.388
195.359	13.784	1204.063	905.712
196.373	13.883	1203.270	905.573
197.388	13.881	1202.930	905.227
198.402	13.817	1202.975	904.830
199.417	14.016	1201.616	904.813
200.432	14.127	1200.721	904.667
201.446	14.080	1200.492	904.157
202.461	14.091	1199.136	903.112
203.475	13.993	1198.668	902.152
204.490	14.047	1197.199	901.258
205.504	14.059	1195.425	899.908
206.519	14.001	1194.683	898.953
207.534	14.068	1193.530	898.370
208.548	14.037	1192.404	897.277
209.563	14.074	1191.844	896.975
210.577	14.130	1190.907	896.492
211.592	14.057	1190.098	895.410
212.607	14.157	1189.408	895.352
213.621	14.182	1188.307	894.577
214.636	14.147	1187.717	893.864
215.650	14.218	1186.492	893.245
216.665	14.275	1185.603	892.803
217.680	14.291	1184.789	892.198
218.694	14.281	1183.880	891.380
219.709	14.236	1183.270	890.603
220.723	14.315	1182.064	890.037
221.738	14.177	1181.960	889.141
222.753	14.407	1180.426	889.138
223.767	14.340	1180.047	888.417
224.782	14.368	1179.976	888.431
225.796	14.491	1179.013	888.282
226.811	14.400	1178.293	887.175
227.826	14.404	1177.705	886.679
228.840	14.372	1177.024	885.916
229.855	14.405	1176.165	885.365
230.869	14.473	1175.311	885.009
231.884	14.352	1174.772	883.880
232.899	14.353	1173.848	883.113
233.913	14.335	1172.805	882.154
234.928	14.294	1172.580	881.691
235.942	14.360	1171.662	881.271
236.957	14.386	1170.610	880.539
237.972	14.436	1169.963	880.239
238.986	14.460	1169.241	879.746
240.001	14.458	1168.641	879.204
241.015	14.417	1167.867	878.330
242.030	14.516	1166.998	878.120
243.045	14.696	1166.041	878.265
244.059	14.575	1165.471	877.122
245.074	14.556	1164.752	876.406
246.088	14.662	1163.589	876.008
247.103	14.481	1163.208	874.696
248.117	14.690	1162.414	875.117
249.132	14.749	1161.617	874.750
250.147	14.794	1161.127	874.539
251.161	14.701	1160.640	873.607
252.176	14.920	1159.184	873.578
253.190	14.852	1159.143	873.114
254.205	14.897	1158.242	872.590
255.220	14.856	1157.952	872.085
256.234	14.897	1157.087	871.570
257.249	14.957	1156.050	871.021
258.263	14.950	1155.599	870.569
259.278	14.895	1155.227	869.925
260.293	14.974	1154.416	869.647
261.307	15.088	1153.692	869.619
262.322	15.022	1153.547	869.092
263.336	15.096	1152.935	868.934
264.351	15.046	1151.837	867.769
265.366	15.113	1151.299	867.636
266.380	15.106	1150.746	867.109
267.395	15.030	1149.676	865.831
268.409	15.025	1148.917	865.158
269.424	15.069	1148.328	864.866
270.439	15.063	1147.951	864.473
271.453	15.100	1146.841	863.752
272.468	15.122	1145.579	862.838
273.482	15.034	1145.039	861.900
274.497	15.105	1145.043	862.195
275.512	15.122	1144.043	861.452
276.526	15.149	1143.297	860.951
277.541	15.135	1142.607	860.283
278.555	15.248	1141.786	860.171
279.570	15.250	1140.989	859.503
280.585	15.225	1140.324	858.799
281.599	15.182	1139.904	858.188
282.614	15.174	1138.702	857.163
283.628	15.216	1137.413	856.335
284.643	15.271	1136.231	855.651
285.657	15.194	1135.630	854.729
286.672	15.326	1134.630	854.570
287.687	15.329	1133.939	853.989
288.701	15.361	1132.897	853.296
289.716	15.316	1132.126	852.408
290.730	15.369	1131.443	852.087
291.745	15.342	1131.216	851.704
292.760	15.364	1130.540	851.232
293.774	15.492	1129.558	851.066
294.789	15.483	1129.144	850.634
295.803	15.376	1128.753	849.723
296.818	15.475	1127.744	849.388
297.833	15.420	1126.914	848.408
298.847	15.580	1125.890	848.372
299.862	15.544	1125.378	847.731
300.876	15.629	1124.652	847.537
301.891	15.578	1123.943	846.668
302.906	15.569	1123.287	846.053
303.920	15.631	1122.834	845.952
304.935	15.663	1121.734	845.209
305.949	15.709	1121.078	844.869
306.964	15.689	1120.534	844.285
307.979	15.769	1119.775	844.041
308.993	15.682	1119.316	843.184
310.008	15.738	1118.366	842.675
311.022	15.745	1117.287	841.823
312.037	15.699	1116.981	841.285
313.052	15.711	1115.684	840.293
314.066	15.699	1114.687	839.412
315.081	15.687	1114.095	838.829
316.095	15.650	1113.521	838.136
317.110	15.725	1112.626	837.763
318.125	15.709	1112.151	837.254
319.139	15.677	1111.400	836.456
320.154	15.786	1110.417	836.183
321.168	15.734	1109.584	835.223
322.183	15.692	1109.166	834.623
323.197	15.841	1108.348	834.677
324.212	15.783	1108.236	834.230
325.227	15.843	1107.780	834.109
326.241	15.969	1106.562	833.744
327.256	15.876	1106.026	832.803
328.270	15.749	1105.345	831.592
329.285	15.827	1104.160	831.010
330.300	15.799	1103.541	830.334
331.314	15.894	1102.307	829.799
332.329	15.799	1101.223	828.444
333.343	15.918	1100.516	828.424
334.358	16.002	1099.633	828.098
335.373	15.938	1099.200	827.386
336.387	15.954	1098.605	826.942
337.402	16.074	1097.553	826.664
338.416	16.063	1096.900	826.047
339.431	16.049	1096.254	825.418
340.446	16.190	1095.677	825.598
341.460	16.193	1094.629	824.750
342.475	16.145	1094.256	824.162
343.489	16.165	1093.503	823.620
344.504	16.161	1092.527	822.796
345.519	16.185	1091.330	821.935
346.533	16.277	1090.496	821.685
347.548	16.285	1089.963	821.247
348.562	16.379	1089.119	820.995
349.577	16.154	1088.646	819.474
350.592	16.322	1087.542	819.387
351.606	16.250	1086.872	818.457
352.621	16.190	1086.522	817.830
353.635	16.207	1085.494	817.066
354.650	16.259	1084.585	816.565
355.665	16.279	1084.211	816.306
356.679	16.287	1083.593	815.809
357.694	16.362	1082.833	815.525
358.708	16.357	1082.282	815.016
359.723	16.312	1081.724	814.304
360.738	16.301	1081.067	813.687
361.752	16.513	1080.377	814.116
362.767	16.426	1079.481	812.949
363.781	16.464	1079.242	812.878
364.796	16.482	1079.055	812.753
365.810	16.433	1078.542	812.060
366.825	16.524	1077.489	811.631
367.840	16.554	1077.269	811.537
368.854	16.504	1076.906	810.953
369.869	16.612	1075.907	810.648
370.883	16.662	1074.788	809.973
371.898	16.610	1074.098	809.133
372.913	16.634	1073.442	808.681
373.927	16.605	1073.123	808.229
374.942	16.694	1072.586	808.179
375.956	16.660	1072.217	807.665
376.971	16.659	1071.458	807.017
377.986	16.703	1070.827	806.679
379.000	16.813	1070.235	806.688
380.015	16.990	1069.417	806.841
381.029	16.829	1069.187	805.832
382.044	16.820	1068.786	805.417
383.059	16.889	1067.483	804.687
384.073	16.879	1066.635	803.930
385.088	16.947	1065.700	803.476
386.102	16.740	1065.269	802.100
387.117	16.738	1064.517	801.454
388.132	16.767	1063.556	800.798
389.146	16.882	1062.685	800.614
390.161	16.825	1061.577	799.438
391.175	16.877	1060.926	799.124
392.190	16.977	1060.285	799.041
393.205	16.910	1059.828	798.310
394.219	17.037	1059.103	798.293
395.234	16.904	1058.268	796.965
396.248	16.904	1056.875	795.844
397.263	16.934	1056.009	795.267
398.278	16.953	1055.470	794.875
399.292	16.998	1054.555	794.329
400.307	16.845	1054.237	793.302
401.321	16.947	1053.140	792.883
402.336	16.903	1052.683	792.262
403.350	17.011	1052.076	792.242
404.365	17.103	1050.972	791.768
405.380	16.825	1051.118	790.513
406.394	17.042	1049.948	790.572
407.409	17.120	1048.764	789.974
408.423	17.264	1048.176	790.132
409.438	17.175	1047.635	789.242
410.453	17.237	1047.018	788.996
411.467	17.172	1046.172	787.986
412.482	17.250	1045.284	787.606
413.496	17.243	1045.024	787.311
414.511	17.250	1044.733	787.054
415.526	17.438	1044.081	787.362
416.540	17.507	1043.905	787.479
417.555	17.371	1043.033	786.125
418.569	17.451	1042.395	785.943
419.584	17.412	1041.937	785.347
420.599	17.395	1041.233	784.667
421.613	102.496	1321.727	1466.483
422.628	94.081	1362.563	1466.586
