DTS Sentinel unit serial number:	SN413079Multiplexer serial number:	ORYXHardware model number:	OX4-SRSoftware version number:	ORYX F/W v4.00 Oryx Data Collector v3.7.2.0data status	okinstallation	princeton_trtdifferential loss correction	single-endedforward channel	channel 2reverse channel	N/Adate	2019/09/11time	18:13:11forward acquisition time	60.00reverse acquisition time	0.00gamma	496.2192k internal	0.2285k external	0.2285temperature offset calibration	1.0023default loss term (dB/km)	0.3790temperature slope calibration	1.0000multiplexer offset coefficient	1.0000multiplexer slope coefficient	1.0000fibre end	0.00T internal ref (°C)	44.00T ext. ref 1 (°C)	1.15T ext. ref 2 (°C)	38.81length (m)	temperature (°C)	Stokes	anti-Stokes-747.200	-47.772	-0.375	0.187
-746.185	191.247	0.151	-0.233
-745.171	-115.434	0.189	0.036
-744.156	-200.000	0.013	0.223
-743.142	74.528	-0.226	-0.244
-742.127	15.613	0.076	0.061
-741.112	-15.212	0.293	-0.193
-740.098	111.396	0.189	-0.234
-739.083	68.358	0.136	0.144
-738.069	800.000	0.038	0.157
-737.054	800.000	0.076	-0.256
-736.039	-191.128	0.113	-0.001
-735.025	-151.220	0.023	-0.002
-734.010	-135.921	0.134	0.016
-732.996	-79.110	-0.254	0.089
-731.981	342.664	-0.080	-0.160
-730.966	19.712	-0.192	-0.159
-729.952	-73.983	-0.228	-0.085
-728.937	800.000	0.072	0.231
-727.923	-0.878	-0.075	-0.054
-726.908	768.696	0.044	-0.123
-725.894	-200.000	0.002	-0.105
-724.879	-114.107	0.202	-0.040
-723.864	560.007	0.071	0.177
-722.850	11.440	0.192	0.151
-721.835	444.962	-0.062	-0.140
-720.821	-200.000	-0.034	-0.175
-719.806	-200.000	-0.019	-0.218
-718.791	-200.000	0.034	0.268
-717.777	-96.805	0.089	0.024
-716.762	-17.405	-0.067	-0.043
-715.748	-62.129	-0.259	-0.111
-714.733	-200.000	0.017	0.197
-713.718	194.762	0.256	0.399
-712.704	217.584	0.171	-0.280
-711.689	191.681	0.024	0.037
-710.675	-161.254	0.128	0.007
-709.660	777.856	0.027	-0.074
-708.645	800.000	-0.040	-0.167
-707.631	-159.207	-0.170	-0.010
-706.616	-105.899	0.233	-0.054
-705.602	124.448	-0.269	-0.347
-704.587	65.546	0.124	0.129
-703.572	-46.148	-0.330	-0.166
-702.558	-169.597	-0.223	0.008
-701.543	800.000	0.148	-0.462
-700.529	-137.848	0.316	-0.036
-699.514	29.826	-0.148	-0.130
-698.499	-0.221	0.206	-0.150
-697.485	-120.996	0.044	0.008
-696.470	-200.000	-0.024	0.227
-695.456	285.614	-0.103	0.189
-694.441	-128.658	0.258	0.037
-693.426	-5.962	0.324	-0.227
-692.412	800.000	0.090	-0.303
-691.397	800.000	0.041	-0.153
-690.383	-55.675	-0.078	0.036
-689.368	122.949	-0.082	0.105
-688.354	525.371	0.162	-0.390
-687.339	-91.105	-0.134	0.039
-686.324	800.000	-0.032	-0.107
-685.310	-200.000	0.003	0.030
-684.295	-99.056	0.104	-0.027
-683.281	-75.334	-0.197	-0.072
-682.266	17.011	-0.149	0.121
-681.251	-149.548	0.300	0.024
-680.237	144.789	-0.298	-0.407
-679.222	-85.841	0.108	0.034
-678.208	31.012	-0.145	-0.128
-677.193	118.313	0.099	-0.125
-676.178	-194.086	-0.316	-0.003
-675.164	340.868	-0.153	0.307
-674.149	509.013	-0.094	0.224
-673.135	800.000	0.061	-0.243
-672.120	200.044	0.049	-0.077
-671.105	109.137	0.044	0.053
-670.091	116.148	0.131	0.164
-669.076	-200.000	0.082	-0.391
-668.062	-83.148	0.089	0.029
-667.047	210.721	0.130	0.209
-666.032	451.408	0.059	-0.133
-665.018	-41.103	0.138	0.073
-664.003	-38.065	0.306	0.166
-662.989	241.819	-0.104	-0.178
-661.974	-200.000	0.030	0.154
-660.959	-200.000	-0.036	-0.219
-659.945	-200.000	-0.019	0.167
-658.930	-55.352	0.228	-0.105
-657.916	173.206	-0.179	0.264
-656.901	-89.426	0.168	0.051
-655.886	122.138	-0.175	-0.223
-654.872	31.942	0.016	0.014
-653.857	207.308	0.125	0.199
-652.843	374.699	-0.088	-0.183
-651.828	-200.000	0.014	-0.248
-650.814	214.238	-0.199	-0.323
-649.799	60.809	0.059	0.060
-648.784	-78.701	-0.186	-0.065
-647.770	-13.778	0.199	-0.132
-646.755	-148.470	0.250	0.021
-645.741	152.245	0.125	-0.175
-644.726	263.968	-0.187	-0.332
-643.711	-37.789	-0.462	-0.251
-642.697	509.341	-0.142	-0.337
-641.682	-27.452	0.340	-0.202
-640.668	481.695	-0.036	0.084
-639.653	-200.000	-0.026	-0.132
-638.638	-65.207	0.142	-0.059
-637.624	800.000	-0.078	-0.234
-636.609	-117.791	0.365	-0.067
-635.595	-43.463	-0.209	0.108
-634.580	-200.000	-0.008	0.078
-633.565	-200.000	-0.011	0.187
-632.551	3.192	-0.338	-0.251
-631.536	41.042	-0.162	-0.149
-630.522	-108.602	0.403	-0.089
-629.507	-34.995	0.268	0.149
-628.492	276.809	-0.072	0.130
-627.478	-200.000	-0.042	-0.249
-626.463	-200.000	0.013	0.125
-625.449	507.828	-0.065	0.154
-624.434	190.253	0.067	0.103
-623.419	-38.500	0.388	-0.210
-622.405	147.222	0.029	0.040
-621.390	-200.000	-0.031	0.228
-620.376	-105.474	0.197	0.046
-619.361	-200.000	-0.070	0.327
-618.346	-180.059	0.083	-0.002
-617.332	-66.274	-0.163	0.066
-616.317	800.000	0.066	0.201
-615.303	-101.580	-0.244	0.061
-614.288	139.088	0.058	0.078
-613.273	175.319	0.134	0.199
-612.259	189.574	-0.107	-0.164
-611.244	-89.926	-0.168	0.050
-610.230	155.130	0.097	0.136
-609.215	287.846	0.112	-0.206
-608.201	-42.240	-0.075	-0.039
-607.186	65.828	-0.056	0.058
-606.171	800.000	0.039	0.127
-605.157	-28.335	-0.096	0.057
-604.142	331.324	-0.115	-0.227
-603.128	37.526	0.199	0.180
-602.113	-40.163	-0.271	-0.144
-601.098	-53.034	-0.194	-0.091
-600.084	-60.127	0.046	0.020
-599.069	26.113	0.298	0.254
-598.055	40.574	-0.242	-0.223
-597.040	-82.850	-0.434	0.143
-596.025	-200.000	0.053	0.258
-595.011	-155.299	-0.121	-0.008
-593.996	-98.136	-0.549	0.144
-592.982	62.222	0.119	0.121
-591.967	-95.802	0.156	-0.042
-590.952	532.614	-0.140	0.339
-589.938	146.007	0.061	-0.084
-588.923	-80.103	-0.092	0.031
-587.909	-62.103	-0.206	0.088
-586.894	-119.200	-0.228	0.041
-585.879	235.177	-0.068	-0.114
-584.865	-78.225	0.415	-0.145
-583.850	166.009	0.035	0.051
-582.836	-110.151	-0.127	0.027
-581.821	-22.959	0.114	0.070
-580.806	1.419	0.148	-0.109
-579.792	-13.841	0.144	0.095
-578.777	-13.593	-0.409	-0.271
-577.763	-200.000	-0.014	-0.073
-576.748	23.545	-0.298	-0.250
-575.733	82.561	-0.179	-0.198
-574.719	193.865	-0.162	0.250
-573.704	-200.000	-0.000	0.025
-572.690	40.533	0.161	0.148
-571.675	800.000	0.050	-0.210
-570.661	29.178	0.229	0.198
-569.646	-106.725	0.132	-0.030
-568.631	-39.576	-0.208	-0.111
-567.617	-200.000	0.031	0.149
-566.602	66.768	-0.186	-0.193
-565.588	-138.977	-0.225	-0.025
-564.573	552.304	0.050	0.122
-563.558	-200.000	0.024	-0.142
-562.544	-107.201	0.031	0.007
-561.529	32.423	-0.270	0.237
-560.515	188.248	-0.187	0.285
-559.500	-77.641	0.322	-0.113
-558.485	35.539	0.266	-0.238
-557.471	-146.949	-0.251	-0.022
-556.456	-200.000	0.002	-0.259
-555.442	48.757	-0.152	0.145
-554.427	298.681	-0.167	-0.313
-553.412	-200.000	-0.025	-0.352
-552.398	118.889	-0.089	0.112
-551.383	99.050	0.087	0.103
-550.369	297.520	-0.124	0.232
-549.354	284.144	-0.090	-0.164
-548.339	-91.029	-0.216	-0.063
-547.325	-57.546	0.391	0.175
-546.310	-115.906	0.306	-0.058
-545.296	-184.610	0.180	0.003
-544.281	-200.000	0.041	-0.514
-543.266	-200.000	-0.013	-0.085
-542.252	-200.000	-0.015	0.223
-541.237	-143.485	-0.142	0.014
-540.223	79.906	0.029	0.032
-539.208	-131.380	-0.433	0.058
-538.193	-200.000	0.011	-0.255
-537.179	-78.893	0.332	0.115
-536.164	67.480	-0.177	-0.184
-535.150	-78.583	0.212	0.074
-534.135	193.678	0.088	-0.136
-533.121	-91.329	-0.150	-0.044
-532.106	-39.104	0.052	-0.028
-531.091	-200.000	-0.011	-0.111
-530.077	25.979	0.282	0.239
-529.062	-200.000	-0.030	-0.243
-528.048	45.905	0.146	0.137
-527.033	51.810	0.161	0.156
-526.018	41.119	0.156	-0.143
-525.004	-64.478	-0.196	-0.081
-523.989	-200.000	0.003	-0.304
-522.975	-22.036	-0.099	-0.061
-521.960	800.000	-0.029	0.093
-520.945	-28.595	0.216	-0.127
-519.931	379.027	0.081	0.168
-518.916	55.325	0.093	-0.092
-517.902	-200.000	-0.027	-0.177
-516.887	-52.170	-0.168	0.079
-515.872	-19.003	-0.227	0.144
-514.858	-200.000	-0.002	-0.093
-513.843	198.324	-0.241	-0.375
-512.829	-56.006	-0.172	0.078
-511.814	-200.000	-0.015	0.283
-510.799	-85.069	-0.277	0.088
-509.785	231.730	0.116	-0.194
-508.770	-200.000	0.107	-0.477
-507.756	-162.025	-0.107	0.005
-506.741	213.948	-0.158	0.254
-505.726	-52.645	-0.216	-0.102
-504.712	-65.698	-0.283	0.116
-503.697	28.617	0.240	0.206
-502.683	800.000	-0.057	-0.190
-501.668	159.812	-0.143	0.203
-500.653	-84.733	-0.202	0.065
-499.639	449.117	-0.016	-0.036
-498.624	-200.000	0.038	0.291
-497.610	107.344	-0.191	-0.231
-496.595	-200.000	0.055	-0.514
-495.581	-52.954	0.167	0.078
-494.566	-91.822	-0.109	-0.032
-493.551	800.000	-0.063	-0.270
-492.537	-127.705	-0.215	0.032
-491.522	42.594	-0.271	0.251
-490.508	800.000	0.090	0.314
-489.493	-80.291	-0.228	-0.078
-488.478	59.430	0.188	-0.189
-487.464	14.746	-0.066	-0.053
-486.449	-137.542	0.501	-0.057
-485.435	800.000	-0.055	0.211
-484.420	-183.157	0.156	0.003
-483.405	-48.692	-0.249	0.121
-482.391	1.814	0.141	-0.104
-481.376	-155.293	-0.319	0.021
-480.362	-60.982	-0.075	-0.032
-479.347	800.000	-0.079	0.242
-478.332	800.000	-0.055	0.208
-477.318	36.641	0.061	0.055
-476.303	-65.122	-0.009	-0.004
-475.289	-200.000	0.030	-0.190
-474.274	-123.437	-0.126	0.020
-473.259	-102.540	-0.315	0.077
-472.245	371.570	-0.047	-0.098
-471.230	62.030	0.230	0.233
-470.216	800.000	0.050	0.223
-469.201	-122.463	-0.212	-0.035
-468.186	27.480	-0.040	-0.034
-467.172	800.000	-0.004	0.017
-466.157	-37.280	-0.062	0.034
-465.143	-82.683	-0.290	-0.095
-464.128	-133.533	-0.319	-0.041
-463.113	15.235	0.008	0.007
-462.099	73.476	-0.108	0.114
-461.084	-200.000	-0.060	-0.303
-460.070	-166.935	-0.203	-0.008
-459.055	309.594	-0.118	-0.224
-458.040	800.000	-0.060	-0.187
-457.026	-188.698	0.202	0.003
-456.011	157.541	0.198	-0.278
-454.997	348.085	-0.066	0.132
-453.982	-60.037	0.148	-0.064
-452.968	-109.261	0.382	0.082
-451.953	-19.417	-0.162	0.102
-450.938	-92.393	-0.261	0.075
-449.924	-121.727	-0.111	-0.019
-448.909	377.222	-0.112	-0.232
-447.895	-116.101	-0.199	0.038
-446.880	-122.645	0.344	-0.057
-445.865	-8.231	0.240	0.164
-444.851	-166.996	-0.029	0.001
-443.836	-110.532	0.149	-0.031
-442.822	-41.206	0.192	0.101
-441.807	-168.847	0.101	-0.004
-440.792	-44.310	0.280	-0.143
-439.778	50.162	-0.139	0.133
-438.763	121.743	-0.159	-0.201
-437.749	-93.818	0.164	0.046
-436.734	-159.547	-0.211	0.012
-435.719	56.960	0.103	0.102
-434.705	470.839	0.152	-0.346
-433.690	71.403	-0.317	0.333
-432.676	156.497	-0.086	0.121
-431.661	189.658	0.083	-0.127
-430.646	-70.000	-0.103	-0.040
-429.632	21.206	0.061	0.050
-428.617	-121.561	0.299	-0.050
-427.603	800.000	0.072	0.214
-426.588	23.709	0.192	-0.160
-425.573	-200.000	0.042	0.264
-424.559	-13.841	0.180	0.118
-423.544	12.486	-0.212	-0.166
-422.530	-56.940	0.026	0.012
-421.515	-104.357	-0.256	0.060
-420.500	-200.000	-0.018	-0.126
-419.486	-93.551	-0.133	0.037
-418.471	13.803	-0.045	0.035
-417.457	-200.000	0.023	-0.232
-416.442	389.442	-0.132	-0.278
-415.428	800.000	-0.019	0.070
-414.413	-147.963	0.169	0.014
-413.398	-8.214	-0.091	-0.062
-412.384	800.000	0.064	0.180
-411.369	-200.000	0.017	-0.106
-410.355	-200.000	0.009	0.397
-409.340	139.528	-0.163	-0.217
-408.325	-66.214	-0.479	0.193
-407.311	-15.963	-0.100	-0.064
-406.296	32.442	-0.052	0.046
-405.282	348.365	0.053	0.106
-404.267	-66.392	0.223	0.090
-403.252	-101.120	0.213	0.053
-402.238	-183.046	0.181	0.003
-401.223	403.789	0.074	-0.158
-400.209	-86.114	0.127	-0.040
-399.194	-200.000	-0.017	0.271
-398.179	-162.863	0.472	-0.023
-397.165	-120.352	-0.180	0.031
-396.150	-105.162	0.100	-0.023
-395.136	195.563	-0.074	0.114
-394.121	-200.000	0.006	-0.165
-393.106	-68.645	0.183	0.072
-392.092	-63.434	0.149	0.062
-391.077	-191.234	0.242	0.003
-390.063	547.096	-0.066	-0.160
-389.048	-200.000	-0.031	0.216
-388.033	568.521	-0.084	0.206
-387.019	-200.000	0.011	-0.079
-386.004	-18.300	-0.124	-0.078
-384.990	138.511	-0.138	-0.184
-383.975	22.313	-0.411	-0.340
-382.960	213.042	-0.231	-0.369
-381.946	138.121	-0.258	-0.342
-380.931	539.051	0.159	0.383
-379.917	78.114	0.131	0.142
-378.902	800.000	0.131	0.484
-377.888	-88.815	-0.458	-0.138
-376.873	-45.729	-0.162	0.081
-375.858	-200.000	-0.010	-0.085
-374.844	-83.134	0.166	0.054
-373.829	-200.000	0.017	0.237
-372.815	-99.239	0.394	0.101
-371.800	-200.000	0.001	0.013
-370.785	192.056	-0.025	-0.038
-369.771	22.831	-0.263	-0.218
-368.756	322.651	-0.048	-0.092
-367.742	-10.209	-0.186	-0.125
-366.727	-200.000	0.007	0.079
-365.712	232.175	0.189	-0.314
-364.698	488.949	-0.049	-0.114
-363.683	-111.136	0.081	0.017
-362.669	-137.145	-0.334	0.039
-361.654	151.055	0.071	-0.098
-360.639	-49.730	0.321	0.154
-359.625	-200.000	0.018	0.164
-358.610	-81.262	-0.115	-0.038
-357.596	-44.611	-0.144	-0.073
-356.581	-116.387	0.328	0.061
-355.566	800.000	0.045	0.183
-354.552	88.127	-0.163	0.183
-353.537	-124.122	0.364	0.058
-352.523	-200.000	-0.012	0.171
-351.508	161.215	0.166	-0.235
-350.493	-200.000	0.063	-0.351
-349.479	-130.198	-0.379	0.052
-348.464	-200.000	0.020	-0.202
-347.450	-83.684	-0.294	0.095
-346.435	-123.833	0.288	0.046
-345.420	-66.605	0.239	0.096
-344.406	742.342	0.118	0.321
-343.391	288.527	0.235	0.430
-342.377	-158.473	0.145	-0.008
-341.362	-57.493	0.057	0.025
-340.348	288.971	-0.094	0.172
-339.333	-45.316	0.178	-0.089
-338.318	-47.570	-0.209	-0.102
-337.304	-58.915	-0.178	-0.078
-336.289	-200.000	-0.002	-0.373
-335.275	-200.000	0.015	-0.283
-334.260	-140.585	0.184	-0.019
-333.245	535.054	0.072	0.173
-332.231	-62.559	-0.169	-0.071
-331.216	-200.000	0.008	-0.049
-330.202	800.000	-0.072	-0.269
-329.187	240.601	-0.158	0.267
-328.172	650.519	0.097	0.250
-327.158	-119.067	0.342	0.061
-326.143	19.777	0.107	0.087
-325.129	166.907	-0.242	0.346
-324.114	-200.000	-0.024	-0.114
-323.099	-123.018	0.163	0.026
-322.085	-146.582	-0.213	0.019
-321.070	-18.063	0.174	0.110
-320.056	-195.023	0.097	-0.001
-319.041	261.479	0.096	-0.168
-318.026	-200.000	-0.004	-0.309
-317.012	287.678	-0.088	0.161
-315.997	72.391	0.006	-0.007
-314.983	65.027	-0.233	0.238
-313.968	322.397	0.021	0.040
-312.953	-145.685	-0.086	-0.008
-311.939	-138.665	0.399	-0.044
-310.924	68.227	0.214	0.221
-309.910	7.799	-0.255	-0.193
-308.895	40.851	0.155	0.141
-307.880	800.000	0.082	-0.358
-306.866	-32.283	-0.192	0.108
-305.851	-200.000	-0.003	-0.060
-304.837	-200.000	-0.007	-0.113
-303.822	213.350	-0.047	0.075
-302.807	173.040	-0.156	0.226
-301.793	108.051	0.135	-0.163
-300.778	-124.482	0.231	-0.036
-299.764	800.000	0.035	0.146
-298.749	-200.000	0.010	0.050
-297.735	5.904	0.355	-0.265
-296.720	-152.563	-0.090	-0.007
-295.705	20.905	0.075	-0.062
-294.691	10.493	-0.243	-0.187
-293.676	-16.699	0.056	0.036
-292.662	-109.632	0.115	-0.024
-291.647	707.438	-0.061	0.162
-290.632	96.483	0.104	0.121
-289.618	800.000	0.069	0.246
-288.603	-1.190	0.169	0.120
-287.589	92.431	0.124	0.141
-286.574	-101.515	-0.369	0.091
-285.559	-15.194	-0.125	0.081
-284.545	-44.401	0.042	0.021
-283.530	-200.000	0.005	0.108
-282.516	-34.628	0.200	-0.110
-281.501	800.000	0.014	-0.057
-280.486	800.000	0.058	0.231
-279.472	184.129	-0.046	0.069
-278.457	368.252	0.025	-0.052
-277.443	-92.360	-0.507	-0.144
-276.428	117.982	0.053	0.066
-275.413	16.992	0.104	0.083
-274.399	-108.507	-0.226	-0.049
-273.384	-200.000	0.022	0.244
-272.370	81.817	0.157	-0.171
-271.355	800.000	-0.109	-0.423
-270.340	800.000	0.049	0.145
-269.326	188.890	-0.199	0.301
-268.311	-154.506	0.187	0.013
-267.297	110.060	-0.276	0.334
-266.282	-66.227	0.123	0.049
-265.267	800.000	0.052	-0.194
-264.253	-200.000	-0.005	0.239
-263.238	-133.372	0.110	-0.014
-262.224	800.000	0.019	-0.074
-261.209	12.689	0.061	0.048
-260.195	-62.405	0.236	0.099
-259.180	190.333	-0.224	-0.338
-258.165	-38.603	-0.098	-0.052
-257.151	-23.786	0.078	-0.047
-256.136	-200.000	-0.111	0.500
-255.122	-200.000	0.054	0.280
-254.107	143.153	-0.075	-0.100
-253.092	162.290	-0.082	-0.116
-252.078	3.450	-0.267	0.196
-251.063	93.507	-0.185	0.211
-250.049	-52.852	0.194	-0.090
-249.034	-200.000	-0.046	0.256
-248.019	-38.788	0.052	0.028
-247.005	694.921	0.064	-0.170
-245.990	323.863	-0.086	-0.165
-244.976	800.000	0.034	-0.121
-243.961	-127.843	0.435	-0.063
-242.946	-94.436	-0.225	-0.062
-241.932	133.564	-0.116	-0.151
-240.917	800.000	0.043	-0.135
-239.903	-200.000	0.012	0.159
-238.888	800.000	-0.013	-0.054
-237.873	47.599	-0.155	0.145
-236.859	-105.335	-0.153	-0.035
-235.844	21.228	-0.225	0.184
-234.830	9.882	0.145	0.111
-233.815	71.274	0.238	-0.249
-232.800	-200.000	0.047	0.403
-231.786	-200.000	0.006	-0.091
-230.771	-72.721	0.274	-0.101
-229.757	-41.128	0.087	-0.045
-228.742	219.108	0.075	-0.121
-227.727	-106.957	-0.260	-0.058
-226.713	-123.464	0.295	-0.047
-225.698	651.817	-0.031	0.079
-224.684	-200.000	-0.020	0.171
-223.669	-149.621	0.129	0.010
-222.655	86.706	-0.168	0.187
-221.640	-162.618	0.150	0.007
-220.625	-94.919	0.359	0.098
-219.611	42.619	0.169	0.155
-218.596	522.915	-0.067	-0.158
-217.582	-91.561	0.348	-0.100
-216.567	-200.000	0.000	-0.041
-215.552	207.782	-0.064	-0.101
-214.538	51.000	0.079	0.075
-213.523	526.526	0.065	-0.155
-212.509	-1.952	0.112	-0.079
-211.494	-177.833	-0.313	0.008
-210.479	285.587	-0.216	0.391
-209.465	-156.306	0.202	-0.013
-208.450	359.819	0.044	-0.089
-207.436	0.398	-0.153	0.110
-206.421	-200.000	0.015	0.451
-205.406	800.000	-0.058	0.216
-204.392	294.703	0.058	0.106
-203.377	-4.850	0.127	0.088
-202.363	-62.620	0.168	0.070
-201.348	-156.350	-0.137	0.009
-200.333	-200.000	0.006	0.057
-199.319	535.534	-0.161	-0.384
-198.304	-22.495	0.401	-0.244
-197.290	-173.854	0.189	0.006
-196.275	229.134	0.077	0.127
-195.260	-20.135	0.319	0.198
-194.246	785.760	0.030	0.083
-193.231	-200.000	-0.023	0.251
-192.217	12.373	-0.086	0.066
-191.202	-133.043	0.057	0.007
-190.187	62.147	-0.333	-0.334
-189.173	-31.795	0.345	-0.194
-188.158	12.384	-0.003	-0.002
-187.144	376.420	-0.207	-0.425
-186.129	102.660	0.150	-0.176
-185.114	-6.358	0.217	-0.149
-184.100	-200.000	-0.021	0.171
-183.085	-128.073	-0.245	0.035
-182.071	-195.648	-0.426	0.003
-181.056	-200.000	-0.017	0.244
-180.042	-12.530	0.177	0.116
-179.027	347.841	-0.145	0.287
-178.012	31.637	0.286	-0.247
-176.998	-129.036	0.411	0.058
-175.983	148.037	-0.136	0.184
-174.969	723.160	-0.176	0.471
-173.954	69.887	0.355	0.368
-172.939	15.967	0.422	-0.334
-171.925	-26.102	-0.121	0.072
-170.910	-137.511	0.027	-0.003
-169.896	159.593	-0.160	-0.224
-168.881	-200.000	-0.011	-0.278
-167.866	13.482	-0.132	-0.103
-166.852	156.179	-0.120	-0.166
-165.837	-123.405	0.120	0.019
-164.823	-132.579	0.090	-0.012
-163.808	145.523	0.022	-0.030
-162.793	-200.000	0.049	-0.222
-161.779	800.000	0.125	-0.410
-160.764	-89.092	0.273	-0.081
-159.750	92.307	-0.132	0.149
-158.735	-4.665	0.415	-0.287
-157.720	-64.850	0.255	-0.104
-156.706	800.000	-0.037	-0.141
-155.691	-200.000	-0.001	-0.056
-154.677	-141.187	-0.078	-0.008
-153.662	-83.352	0.252	-0.081
-152.647	561.661	-0.112	0.272
-151.633	-40.859	-0.236	-0.123
-150.618	315.022	0.063	0.119
-149.604	-100.130	0.071	-0.018
-148.589	320.475	-0.054	0.103
-147.574	-65.120	-0.222	0.090
-146.560	49.880	-0.185	0.175
-145.545	-144.595	0.168	-0.016
-144.531	49.885	0.061	0.058
-143.516	154.969	0.124	-0.171
-142.502	-122.519	-0.133	-0.022
-141.487	770.894	0.018	-0.049
-140.472	371.598	-0.044	-0.090
-139.458	-200.000	-0.008	-0.182
-138.443	239.350	-0.095	-0.158
-137.429	-138.366	-0.165	0.018
-136.414	84.191	-0.128	0.140
-135.399	-42.710	-0.050	0.025
-134.385	800.000	0.146	0.520
-133.370	-17.718	0.173	0.109
-132.356	-200.000	0.020	0.195
-131.341	-150.017	0.200	-0.016
-130.326	150.959	-0.198	0.270
-129.312	-155.695	-0.430	-0.028
-128.297	-200.000	-0.042	-0.269
-127.283	-114.061	-0.360	-0.070
-126.268	98.521	0.218	0.252
-125.253	-200.000	-0.049	-0.247
-124.239	286.233	-0.135	-0.244
-123.224	211.978	-0.109	-0.172
-122.210	-33.674	0.247	0.136
-121.195	-200.000	0.015	-0.159
-120.180	-10.665	0.126	0.084
-119.166	172.043	0.237	0.342
-118.151	800.000	0.023	0.073
-117.137	83.352	0.142	-0.155
-116.122	-129.647	-0.114	-0.016
-115.107	-116.401	-0.264	-0.049
-114.093	380.261	0.078	-0.161
-113.078	-200.000	0.024	0.227
-112.064	659.293	-0.107	0.276
-111.049	-18.157	0.201	-0.126
-110.034	294.063	0.094	0.171
-109.020	-200.000	0.017	-0.092
-108.005	-12.389	-0.227	0.149
-106.991	-166.008	0.292	-0.012
-105.976	7.241	-0.080	-0.060
-104.962	424.452	-0.139	0.299
-103.947	-12.485	0.271	0.177
-102.932	108.510	0.068	0.081
-101.918	-83.380	-0.285	0.091
-100.903	800.000	0.043	0.140
-99.889	85.046	-0.178	-0.195
-98.874	-3.108	-0.050	-0.035
-97.859	-200.000	0.020	-0.214
-96.845	152.691	-0.124	-0.170
-95.830	139.020	0.323	-0.425
-94.816	-94.280	-0.202	-0.055
-93.801	-200.000	0.032	-0.533
-92.786	-48.515	-0.101	-0.049
-91.772	75.158	-0.052	-0.055
-90.757	-200.000	0.052	-0.325
-89.743	58.727	0.011	-0.011
-88.728	334.219	0.110	0.213
-87.713	-106.742	0.159	-0.035
-86.699	4.401	0.107	-0.078
-85.684	154.127	0.150	-0.206
-84.670	-186.601	0.187	0.003
-83.655	-4.869	0.251	-0.173
-82.640	21.226	0.271	0.220
-81.626	131.304	0.162	-0.208
-80.611	-40.206	-0.170	0.089
-79.597	800.000	-0.059	0.205
-78.582	-200.000	0.035	-0.387
-77.567	-62.693	0.309	-0.128
-76.553	800.000	-0.053	-0.202
-75.538	-25.278	0.276	-0.164
-74.524	800.000	-0.187	-0.535
-73.509	-104.262	0.286	-0.066
-72.494	-10.094	0.207	-0.138
-71.480	139.249	-0.177	-0.233
-70.465	-80.561	-0.106	0.035
-69.451	551.256	-0.118	-0.284
-68.436	387.667	-0.045	0.093
-67.422	-200.000	0.007	0.221
-66.407	-185.722	0.257	-0.004
-65.392	-200.000	-0.007	-0.201
-64.378	-200.000	0.041	-0.203
-63.363	-200.000	0.050	0.436
-62.349	-56.877	0.286	0.126
-61.334	140.392	-0.478	-0.630
-60.319	389.312	0.080	-0.166
-59.305	600.507	-0.216	-0.535
-58.290	440.869	0.275	0.601
-57.276	766.125	0.520	1.412
-56.261	-200.000	71.157	525.770
-55.246	603.518	1269.006	3155.159
-54.232	146.043	2495.980	3345.868
-53.217	115.002	2342.076	2855.869
-52.203	53.956	1960.622	1883.207
-51.188	47.665	1748.652	1630.316
-50.173	44.571	1701.580	1562.653
-49.159	58.005	1732.007	1694.565
-48.144	64.815	1751.150	1765.746
-47.130	47.311	1715.909	1596.801
-46.115	44.008	1701.902	1558.375
-45.100	43.953	1696.994	1553.392
-44.086	43.855	1694.565	1550.359
-43.071	43.779	1692.296	1547.640
-42.057	43.811	1689.896	1545.626
-41.042	43.864	1687.816	1544.073
-40.027	43.821	1685.929	1541.957
-39.013	43.844	1683.973	1540.279
-37.998	43.860	1682.001	1538.538
-36.984	43.916	1680.378	1537.415
-35.969	44.004	1678.267	1536.092
-34.954	44.053	1677.313	1535.530
-33.940	44.013	1675.556	1533.557
-32.925	43.940	1673.532	1531.094
-31.911	43.974	1672.252	1530.117
-30.896	44.058	1669.676	1528.330
-29.881	44.029	1668.237	1526.731
-28.867	43.976	1666.573	1524.749
-27.852	43.941	1665.549	1523.489
-26.838	43.979	1664.178	1522.461
-25.823	44.035	1662.137	1520.953
-24.809	44.081	1661.210	1520.391
-23.794	44.087	1659.457	1518.770
-22.779	44.051	1657.540	1516.691
-21.765	43.931	1656.697	1514.956
-20.750	43.925	1654.689	1513.019
-19.736	44.036	1652.932	1512.181
-18.721	44.131	1651.193	1511.236
-17.706	44.031	1649.829	1509.182
-16.692	43.985	1648.440	1507.511
-15.677	43.934	1646.759	1505.533
-14.663	44.115	1644.758	1504.989
-13.648	44.041	1644.253	1503.914
-12.633	44.104	1642.325	1502.564
-11.619	44.104	1640.887	1501.182
-10.604	43.992	1639.316	1498.858
-9.590	44.011	1638.701	1498.382
-8.575	43.988	1637.543	1497.093
-7.560	44.078	1635.625	1495.943
-6.546	44.009	1634.822	1494.638
-5.531	44.017	1633.901	1493.799
-4.517	43.993	1632.249	1492.048
-3.502	44.026	1630.589	1490.716
-2.487	44.112	1629.614	1490.399
-1.473	43.937	1618.061	1478.498
-0.458	41.305	1597.615	1440.762
0.556	36.224	1594.152	1399.679
1.571	32.871	1616.484	1394.438
2.586	31.830	1630.854	1398.948
3.600	27.869	1577.561	1324.451
4.615	15.238	1457.123	1138.026
5.629	3.666	1380.592	1003.325
6.644	1.292	1369.913	980.162
7.659	1.192	1367.935	978.018
8.673	1.069	1367.530	976.843
9.688	1.057	1365.537	975.261
10.702	0.862	1362.830	971.985
11.717	4.615	1370.848	1001.834
12.731	15.536	1392.498	1088.711
13.746	23.584	1405.559	1151.264
14.761	24.866	1406.251	1160.050
15.775	24.968	1406.170	1160.536
16.790	25.076	1405.258	1160.386
17.804	25.211	1404.648	1160.647
18.819	25.303	1404.355	1160.899
19.834	25.362	1403.993	1160.881
20.848	25.310	1403.400	1159.952
21.863	25.447	1402.092	1159.653
22.877	25.427	1400.774	1158.327
23.892	25.396	1400.109	1157.475
24.907	25.298	1399.841	1156.524
25.921	25.350	1398.688	1155.803
26.936	25.350	1397.465	1154.687
27.950	25.379	1396.494	1153.971
28.965	25.367	1395.310	1152.813
29.980	25.415	1393.803	1151.773
30.994	25.372	1392.721	1150.501
32.009	25.361	1391.505	1149.323
33.023	25.407	1390.316	1148.536
34.038	25.422	1388.890	1147.356
35.053	25.331	1387.995	1145.929
36.067	25.363	1387.084	1145.279
37.082	25.338	1386.258	1144.339
38.096	25.320	1385.820	1143.759
39.111	25.371	1384.493	1142.886
40.126	25.340	1383.716	1141.947
41.140	25.348	1383.510	1141.726
42.155	25.249	1383.421	1140.924
43.169	25.261	1383.472	1140.941
44.184	25.261	1383.244	1140.651
45.199	25.416	1382.345	1140.794
46.213	25.518	1381.418	1140.578
47.228	25.431	1380.637	1139.281
48.242	25.319	1379.829	1137.801
49.257	25.262	1378.380	1136.146
50.271	25.307	1376.803	1135.031
51.286	25.367	1375.419	1134.170
52.301	25.385	1374.341	1133.294
53.315	25.292	1373.316	1131.757
54.330	25.237	1372.885	1130.959
55.344	25.409	1371.126	1130.494
56.359	25.315	1370.444	1129.238
57.374	25.256	1369.738	1128.186
58.388	25.322	1369.190	1128.050
59.403	25.293	1368.127	1126.893
60.417	25.339	1368.266	1127.197
61.432	25.349	1367.054	1126.157
62.447	25.315	1366.021	1124.993
63.461	25.325	1365.185	1124.272
64.476	25.334	1364.085	1123.319
65.490	25.330	1362.748	1122.094
66.505	25.405	1361.194	1121.187
67.520	25.337	1360.236	1119.874
68.534	25.387	1359.157	1119.197
69.549	25.357	1358.198	1118.123
70.563	25.373	1357.110	1117.226
71.578	25.384	1355.991	1116.275
72.593	25.335	1355.188	1115.211
73.607	25.367	1355.053	1115.201
74.622	25.254	1354.710	1114.116
75.636	25.348	1353.453	1113.568
76.651	25.349	1352.380	1112.594
77.666	25.330	1351.839	1111.931
78.680	25.353	1351.523	1111.716
79.695	25.329	1350.678	1110.776
80.709	25.302	1350.187	1110.105
81.724	25.280	1349.050	1108.938
82.739	25.315	1348.152	1108.318
83.753	25.264	1347.423	1107.301
84.768	25.376	1346.075	1106.785
85.782	25.318	1344.997	1105.444
86.797	25.458	1343.348	1104.856
87.812	25.319	1342.388	1103.116
88.826	25.429	1341.616	1103.054
89.841	25.439	1340.218	1101.871
90.855	25.474	1338.871	1100.880
91.870	25.471	1338.147	1100.168
92.884	25.376	1338.012	1099.381
93.899	25.469	1336.843	1098.888
94.914	25.472	1336.189	1098.274
95.928	25.362	1335.775	1097.166
96.943	25.460	1334.641	1096.731
97.957	25.389	1333.858	1095.563
98.972	25.468	1332.801	1095.075
99.987	25.366	1332.100	1093.781
101.001	25.350	1331.034	1092.710
102.016	25.499	1329.600	1092.345
103.030	25.452	1329.317	1091.729
104.045	25.410	1328.878	1091.016
105.060	25.424	1327.590	1089.951
106.074	25.376	1326.589	1088.739
107.089	25.414	1325.832	1088.250
108.103	25.392	1324.609	1087.021
109.118	25.499	1323.356	1086.542
110.133	25.505	1322.472	1085.754
111.147	25.492	1321.292	1084.611
112.162	25.611	1319.507	1083.768
113.176	25.530	1319.326	1083.034
114.191	25.481	1318.059	1081.603
115.206	25.501	1317.325	1081.027
116.220	25.466	1316.077	1079.697
117.235	25.517	1315.270	1079.245
118.249	25.555	1314.062	1078.389
119.264	25.385	1313.672	1076.953
120.279	25.509	1313.025	1077.071
121.293	25.543	1312.081	1076.405
122.308	25.553	1311.221	1075.664
123.322	25.497	1310.487	1074.632
124.337	25.493	1309.441	1073.655
125.352	25.581	1308.187	1073.052
126.366	25.527	1307.294	1071.903
127.381	25.635	1306.701	1071.967
128.395	25.600	1305.530	1070.705
129.410	25.491	1305.257	1069.739
130.424	25.499	1304.355	1068.953
131.439	25.510	1303.862	1068.515
132.454	25.508	1302.948	1067.662
133.468	25.555	1302.216	1067.248
134.483	25.580	1301.241	1066.499
135.497	25.541	1300.867	1065.870
136.512	25.599	1299.753	1065.209
137.527	25.596	1299.091	1064.552
138.541	25.586	1297.431	1063.037
139.556	25.567	1296.404	1061.987
140.570	25.608	1295.764	1061.611
141.585	25.542	1294.446	1060.052
142.600	25.696	1292.590	1059.346
143.614	25.573	1292.540	1058.488
144.629	25.510	1291.539	1057.203
145.643	25.399	1290.636	1055.719
146.658	25.440	1289.517	1054.947
147.673	25.568	1288.357	1054.657
148.687	25.473	1287.561	1053.354
149.702	25.556	1286.125	1052.571
150.716	25.510	1284.728	1051.067
151.731	25.562	1283.654	1050.401
152.746	25.522	1282.829	1049.401
153.760	25.650	1281.484	1048.953
154.775	25.535	1280.689	1047.538
155.789	25.520	1280.059	1046.842
156.804	25.472	1279.528	1046.039
157.819	25.401	1278.409	1044.619
158.833	25.471	1277.647	1044.309
159.848	25.580	1276.797	1044.153
160.862	25.652	1275.270	1043.228
161.877	25.563	1274.860	1042.288
162.892	25.569	1274.260	1041.737
163.906	25.588	1273.679	1041.278
164.921	25.665	1272.890	1040.992
165.935	25.612	1272.222	1040.045
166.950	25.566	1271.673	1039.238
167.964	25.673	1270.652	1038.929
168.979	25.638	1270.295	1038.342
169.994	25.716	1269.796	1038.294
171.008	25.640	1268.994	1037.109
172.023	25.570	1268.446	1036.166
173.037	25.544	1267.675	1035.296
174.052	25.677	1267.098	1035.495
175.067	25.557	1266.288	1034.054
176.081	25.651	1265.232	1033.641
177.096	25.598	1264.250	1032.440
178.110	25.680	1263.277	1032.023
179.125	25.673	1262.383	1031.165
180.140	25.732	1261.316	1030.539
181.154	25.627	1260.292	1029.013
182.169	25.548	1259.709	1027.993
183.183	25.596	1258.129	1026.887
184.198	25.632	1257.243	1026.276
185.213	25.605	1256.821	1025.687
186.227	25.686	1255.772	1025.203
187.242	25.692	1254.597	1024.183
188.256	25.694	1253.880	1023.523
189.271	25.692	1253.746	1023.311
190.286	25.706	1252.209	1022.045
191.300	25.730	1251.776	1021.739
192.315	25.711	1251.195	1021.065
193.329	25.675	1250.831	1020.473
194.344	25.725	1250.425	1020.336
195.359	25.766	1250.073	1020.192
196.373	25.713	1249.404	1019.254
197.388	25.626	1249.310	1018.592
198.402	25.588	1249.047	1018.071
199.417	25.716	1247.847	1017.729
200.432	25.693	1247.396	1017.140
201.446	25.715	1247.030	1016.877
202.461	25.676	1246.129	1015.831
203.475	25.740	1244.794	1015.016
204.490	25.619	1244.282	1013.827
205.504	25.802	1242.994	1013.716
206.519	25.796	1242.532	1013.215
207.534	25.736	1241.734	1012.137
208.548	25.789	1240.566	1011.392
209.563	25.718	1239.934	1010.390
210.577	25.707	1238.803	1009.319
211.592	25.769	1238.403	1009.250
212.607	25.843	1237.429	1008.781
213.621	25.871	1236.616	1008.188
214.636	25.838	1235.847	1007.287
215.650	25.917	1234.807	1006.792
216.665	25.800	1234.013	1005.402
217.680	25.786	1232.993	1004.406
218.694	25.906	1232.415	1004.515
219.709	25.879	1231.103	1003.203
220.723	25.987	1230.785	1003.459
221.738	25.790	1230.202	1001.799
222.753	25.720	1229.735	1000.942
223.767	25.872	1229.040	1001.129
224.782	25.914	1228.487	1000.822
225.796	25.863	1227.798	999.888
226.811	25.984	1226.879	999.726
227.826	25.971	1226.749	999.460
228.840	25.973	1226.290	999.008
229.855	25.856	1225.804	997.872
230.869	25.949	1224.722	997.421
231.884	25.840	1224.147	996.258
232.899	26.008	1222.839	996.039
233.913	25.987	1222.401	995.478
234.928	26.005	1222.143	995.277
235.942	25.981	1221.746	994.732
236.957	26.013	1220.920	994.147
237.972	26.073	1219.781	993.462
238.986	25.980	1219.332	992.496
240.001	26.149	1218.787	992.896
241.015	26.035	1217.948	991.500
242.030	26.071	1217.459	991.208
243.045	26.052	1216.666	990.373
244.059	26.085	1215.859	989.809
245.074	26.080	1215.126	989.100
246.088	26.155	1214.038	988.537
247.103	26.010	1213.712	987.389
248.117	26.173	1212.191	986.957
249.132	26.171	1211.946	986.658
250.147	26.172	1211.188	985.956
251.161	26.218	1210.446	985.516
252.176	26.174	1209.833	984.692
253.190	26.067	1209.487	983.740
254.205	26.255	1208.116	983.563
255.220	26.273	1207.445	983.024
256.234	26.242	1207.490	982.807
257.249	26.334	1206.851	982.697
258.263	26.145	1206.578	981.363
259.278	26.203	1205.906	981.044
260.293	26.248	1205.001	980.464
261.307	26.315	1204.809	980.588
262.322	26.277	1203.949	979.594
263.336	26.264	1203.366	978.961
264.351	26.147	1202.929	977.888
265.366	26.230	1201.904	977.414
266.380	26.284	1201.086	976.957
267.395	26.236	1200.884	976.449
268.409	26.262	1199.860	975.665
269.424	26.247	1199.775	975.430
270.439	26.346	1199.077	975.312
271.453	26.336	1198.522	974.718
272.468	26.267	1197.259	973.234
273.482	26.296	1196.623	972.786
274.497	26.433	1196.352	973.218
275.512	26.347	1196.351	972.668
276.526	26.208	1195.680	971.289
277.541	26.269	1194.573	970.633
278.555	26.391	1193.620	970.428
279.570	26.408	1193.243	970.124
280.585	26.324	1192.600	969.067
281.599	26.468	1190.975	968.433
282.614	26.371	1190.571	967.495
283.628	26.414	1189.761	966.987
284.643	26.444	1188.600	966.118
285.657	26.366	1188.228	965.309
286.672	26.371	1187.382	964.567
287.687	26.452	1186.556	964.239
288.701	26.492	1185.789	963.745
289.716	26.459	1185.361	963.134
290.730	26.447	1184.724	962.468
291.745	26.567	1183.805	962.273
292.760	26.562	1182.992	961.503
293.774	26.547	1182.654	961.064
294.789	26.573	1182.379	960.894
295.803	26.560	1181.532	960.049
296.818	26.608	1180.880	959.691
297.833	26.446	1180.412	958.365
298.847	26.607	1179.526	958.413
299.862	26.561	1178.935	957.606
300.876	26.551	1177.928	956.652
301.891	26.567	1177.372	956.198
302.906	26.656	1176.619	955.975
303.920	26.577	1176.121	955.065
304.935	26.694	1175.280	954.916
305.949	26.740	1174.417	954.373
306.964	26.677	1174.081	953.683
307.979	26.695	1173.704	953.388
308.993	26.641	1172.991	952.439
310.008	26.574	1172.308	951.449
311.022	26.678	1171.457	951.218
312.037	26.762	1170.469	950.773
313.052	26.745	1169.503	949.818
314.066	26.691	1168.731	948.824
315.081	26.705	1168.536	948.656
316.095	26.606	1167.648	947.331
317.110	26.688	1167.259	947.359
318.125	26.767	1166.645	947.189
319.139	26.751	1165.788	946.331
320.154	26.703	1165.240	945.549
321.168	26.724	1164.801	945.219
322.183	26.710	1164.380	944.719
323.197	26.783	1163.507	944.309
324.212	26.787	1162.861	943.722
325.227	26.790	1162.674	943.501
326.241	26.882	1161.612	943.034
327.256	26.759	1161.316	942.071
328.270	26.876	1160.049	941.567
329.285	26.787	1160.112	941.072
330.300	26.803	1158.743	939.964
331.314	26.820	1157.938	939.318
332.329	26.874	1156.931	938.697
333.343	26.810	1156.389	937.841
334.358	26.930	1155.390	937.566
335.373	26.972	1154.867	937.277
336.387	26.993	1154.161	936.729
337.402	27.053	1153.444	936.376
338.416	27.000	1152.932	935.604
339.431	26.972	1152.169	934.756
340.446	26.940	1151.718	934.143
341.460	27.010	1151.168	933.974
342.475	27.022	1150.596	933.487
343.489	27.016	1149.538	932.516
344.504	27.018	1148.518	931.616
345.519	27.014	1147.442	930.644
346.533	27.165	1146.995	930.971
347.548	27.059	1146.481	929.931
348.562	27.124	1145.630	929.490
349.577	27.093	1144.809	928.583
350.592	27.154	1143.850	928.032
351.606	26.991	1143.748	927.036
352.621	27.005	1143.302	926.666
353.635	27.111	1142.265	926.282
354.650	27.023	1142.177	925.681
355.665	27.070	1140.979	924.868
356.679	27.321	1139.805	925.108
357.694	27.208	1139.422	924.142
358.708	27.066	1139.493	923.395
359.723	27.170	1138.465	923.009
360.738	27.122	1137.728	922.086
361.752	27.182	1137.188	921.874
362.767	27.262	1136.743	921.836
363.781	27.260	1136.043	921.174
364.796	27.228	1135.901	920.819
365.810	27.308	1135.218	920.587
366.825	27.276	1134.390	919.670
367.840	27.411	1133.703	919.717
368.854	27.426	1132.880	919.041
369.869	27.351	1132.452	918.236
370.883	27.395	1131.748	917.806
371.898	27.385	1131.189	917.219
372.913	27.183	1130.749	915.766
373.927	27.250	1129.962	915.382
374.942	27.394	1129.379	915.553
375.956	27.358	1129.036	915.014
376.971	27.401	1128.321	914.573
377.986	27.414	1127.932	914.239
379.000	27.426	1127.254	913.670
380.015	27.463	1126.729	913.347
381.029	27.470	1125.876	912.613
382.044	27.534	1125.505	912.549
383.059	27.474	1124.724	911.533
384.073	27.492	1124.238	911.151
385.088	27.515	1123.147	910.302
386.102	27.504	1122.633	909.748
387.117	27.570	1121.538	909.111
388.132	27.431	1120.765	907.710
389.146	27.456	1120.298	907.376
390.161	27.619	1119.314	907.312
391.175	27.569	1118.645	906.439
392.190	27.566	1118.054	905.865
393.205	27.586	1117.884	905.745
394.219	27.633	1116.887	905.091
395.234	27.647	1116.352	904.646
396.248	27.639	1115.191	903.586
397.263	27.672	1114.060	902.754
398.278	27.762	1113.555	902.709
399.292	27.687	1113.279	902.034
400.307	27.827	1112.325	901.877
401.321	27.814	1111.713	901.237
402.336	27.726	1111.218	900.321
403.350	27.806	1110.196	899.807
404.365	27.726	1110.099	899.254
405.380	27.836	1109.153	898.948
406.394	27.781	1108.209	897.836
407.409	27.797	1107.762	897.471
408.423	27.888	1107.072	897.282
409.438	27.896	1105.923	896.310
410.453	27.925	1105.154	895.751
411.467	27.891	1104.625	895.073
412.482	27.967	1104.164	894.995
413.496	27.866	1103.423	893.817
414.511	27.895	1102.740	893.329
415.526	27.755	1102.727	892.557
416.540	27.872	1102.415	892.795
417.555	27.943	1101.474	892.298
418.569	27.833	1101.272	891.519
419.584	27.894	1100.555	891.159
420.599	28.112	1099.765	891.504
421.613	75.958	1277.563	1297.794
422.628	71.135	1303.463	1297.887
