DTS Sentinel unit serial number:	SN413079Multiplexer serial number:	ORYXHardware model number:	OX4-SRSoftware version number:	ORYX F/W v4.00 Oryx Data Collector v3.7.2.0data status	okinstallation	princeton_trtdifferential loss correction	single-endedforward channel	channel 2reverse channel	N/Adate	2019/09/11time	20:21:11forward acquisition time	60.00reverse acquisition time	0.00gamma	496.2192k internal	0.2317k external	0.2317temperature offset calibration	1.0056default loss term (dB/km)	0.3790temperature slope calibration	1.0000multiplexer offset coefficient	1.0000multiplexer slope coefficient	1.0000fibre end	0.00T internal ref (°C)	37.94T ext. ref 1 (°C)	1.47T ext. ref 2 (°C)	31.50length (m)	temperature (°C)	Stokes	anti-Stokes-747.200	17.581	-0.059	0.048
-746.185	316.564	0.212	0.406
-745.171	-200.000	0.010	0.225
-744.156	800.000	0.078	0.241
-743.142	-39.067	-0.174	0.093
-742.127	122.565	-0.317	0.401
-741.112	-35.948	0.356	0.195
-740.098	-1.199	0.380	0.272
-739.083	-173.683	-0.124	-0.004
-738.069	-150.511	0.324	0.025
-737.054	-30.271	0.098	-0.057
-736.039	800.000	-0.042	0.179
-735.025	800.000	-0.027	-0.121
-734.010	800.000	-0.020	0.076
-732.996	42.117	-0.347	-0.319
-731.981	97.321	-0.058	-0.068
-730.966	754.481	-0.043	0.118
-729.952	48.338	0.098	0.093
-728.937	-56.561	-0.133	0.060
-727.923	-77.226	-0.325	-0.115
-726.908	-193.776	-0.370	-0.003
-725.894	-153.887	-0.020	0.001
-724.879	-28.041	0.147	-0.086
-723.864	-134.098	-0.294	-0.037
-722.850	-181.235	-0.094	0.002
-721.835	-46.053	-0.078	-0.039
-720.821	68.322	-0.189	-0.196
-719.806	-33.046	-0.281	0.158
-718.791	-132.372	-0.250	0.033
-717.777	150.269	0.020	-0.028
-716.762	-108.857	0.096	0.021
-715.748	62.295	-0.160	0.161
-714.733	-114.083	-0.283	-0.055
-713.718	-97.203	0.224	0.059
-712.704	339.594	-0.096	-0.189
-711.689	-79.143	0.460	0.158
-710.675	800.000	0.054	-0.155
-709.660	-101.601	0.033	0.008
-708.645	338.201	-0.093	-0.184
-707.631	-96.318	-0.366	0.098
-706.616	282.114	0.078	-0.141
-705.602	-134.020	0.131	0.016
-704.587	619.402	-0.048	0.122
-703.572	800.000	0.070	-0.252
-702.558	283.227	0.185	-0.336
-701.543	-25.464	-0.189	0.113
-700.529	73.207	-0.308	-0.326
-699.514	-124.311	-0.077	0.012
-698.499	800.000	0.009	-0.027
-697.485	268.435	-0.045	-0.080
-696.470	72.822	-0.060	-0.064
-695.456	-12.042	0.147	-0.097
-694.441	-139.038	0.347	-0.038
-693.426	-77.891	-0.321	0.112
-692.412	-112.348	0.327	-0.066
-691.397	-164.050	0.276	0.013
-690.383	126.080	-0.088	-0.112
-689.368	-125.464	-0.070	-0.011
-688.354	421.759	-0.209	-0.452
-687.339	800.000	0.093	0.286
-686.324	266.476	0.182	0.320
-685.310	-61.733	0.094	0.040
-684.295	-122.864	0.029	-0.005
-683.281	800.000	0.068	-0.234
-682.266	800.000	-0.049	0.162
-681.251	800.000	-0.053	0.219
-680.237	-64.868	-0.065	0.027
-679.222	800.000	0.042	-0.118
-678.208	-200.000	0.006	-0.029
-677.193	-113.136	-0.179	-0.036
-676.178	-14.953	-0.451	-0.292
-675.164	143.204	-0.097	-0.131
-674.149	-70.925	0.184	0.070
-673.135	131.145	-0.250	-0.324
-672.120	309.625	0.028	-0.053
-671.105	88.471	-0.110	0.124
-670.091	-83.966	0.090	-0.029
-669.076	-200.000	0.033	-0.323
-668.062	7.457	-0.116	-0.088
-667.047	21.486	0.097	0.079
-666.032	-200.000	0.027	-0.300
-665.018	-200.000	-0.014	-0.296
-664.003	-41.296	-0.226	0.117
-662.989	-200.000	0.044	-0.204
-661.974	-75.668	0.252	-0.090
-660.959	-77.990	0.289	0.101
-659.945	79.751	-0.098	-0.106
-658.930	-111.356	-0.109	-0.023
-657.916	20.497	0.052	-0.042
-656.901	-200.000	0.006	-0.456
-655.886	79.983	-0.131	-0.142
-654.872	299.493	0.154	-0.285
-653.857	44.813	-0.065	0.060
-652.843	-11.497	0.061	-0.040
-651.828	-73.215	0.192	-0.071
-650.814	115.989	-0.235	-0.290
-649.799	333.443	0.053	0.103
-648.784	-42.374	0.203	-0.105
-647.770	-81.372	-0.160	-0.053
-646.755	424.651	-0.146	-0.317
-645.741	138.196	0.181	-0.240
-644.726	-117.194	-0.082	0.015
-643.711	110.588	0.038	-0.047
-642.697	22.479	0.118	-0.097
-641.682	-162.141	-0.119	0.006
-640.668	-118.783	-0.314	0.056
-639.653	684.401	-0.023	0.061
-638.638	23.733	-0.154	0.128
-637.624	-66.919	-0.364	-0.145
-636.609	381.349	-0.157	-0.324
-635.595	422.477	-0.032	0.070
-634.580	433.204	-0.094	-0.205
-633.565	363.934	0.007	0.015
-632.551	-72.399	0.101	-0.038
-631.536	-124.655	0.188	0.029
-630.522	-107.507	0.056	0.012
-629.507	800.000	-0.082	-0.300
-628.492	27.382	-0.133	0.113
-627.478	190.723	0.150	0.228
-626.463	-200.000	0.092	-0.500
-625.449	53.491	-0.091	-0.088
-624.434	-53.367	-0.462	-0.213
-623.419	52.990	-0.119	-0.114
-622.405	-200.000	-0.008	-0.434
-621.390	-97.534	0.288	-0.075
-620.376	122.246	-0.051	-0.065
-619.361	30.140	-0.269	-0.232
-618.346	800.000	-0.047	0.162
-617.332	-136.610	-0.054	-0.006
-616.317	84.629	-0.250	0.276
-615.303	-200.000	-0.025	0.192
-614.288	47.244	-0.175	-0.165
-613.273	800.000	0.094	-0.287
-612.259	-200.000	-0.009	0.262
-611.244	-11.542	0.170	0.113
-610.230	-200.000	0.075	0.382
-609.215	226.560	0.139	-0.227
-608.201	458.350	-0.126	-0.281
-607.186	-63.381	0.377	-0.156
-606.171	-112.815	-0.258	0.052
-605.157	-193.797	0.187	0.002
-604.142	-57.451	-0.334	0.148
-603.128	21.456	0.101	0.083
-602.113	800.000	0.031	-0.121
-601.098	43.144	-0.255	-0.235
-600.084	-200.000	-0.049	0.249
-599.069	-125.348	0.064	0.010
-598.055	800.000	-0.041	0.150
-597.040	-113.353	-0.207	0.041
-596.025	-200.000	0.016	-0.155
-595.011	-200.000	0.009	-0.212
-593.996	-200.000	-0.008	-0.147
-592.982	118.718	0.049	0.061
-591.967	-71.039	-0.324	-0.123
-590.952	166.289	0.087	-0.124
-589.938	-200.000	-0.022	0.325
-588.923	800.000	-0.051	-0.216
-587.909	-64.521	0.261	-0.107
-586.894	494.089	0.073	-0.168
-585.879	53.464	-0.169	0.163
-584.865	31.988	0.218	0.189
-583.850	136.167	-0.077	-0.101
-582.836	37.447	0.159	0.142
-581.821	-138.995	0.419	0.046
-580.806	84.212	-0.078	-0.086
-579.792	160.371	0.280	0.394
-578.777	-132.574	0.131	0.017
-577.763	33.995	0.141	-0.123
-576.748	-30.922	0.044	-0.025
-575.733	-200.000	-0.478	0.000
-574.719	-61.388	-0.100	0.042
-573.704	-138.192	0.231	-0.026
-572.690	-17.472	0.254	0.161
-571.675	-138.510	-0.506	0.056
-570.661	-200.000	0.009	-0.304
-569.646	800.000	-0.075	-0.279
-568.631	-200.000	-0.057	0.284
-567.617	152.574	-0.126	-0.173
-566.602	-42.718	0.170	0.087
-565.588	800.000	0.060	0.209
-564.573	-70.330	-0.072	0.028
-563.558	-112.997	-0.161	0.032
-562.544	-177.080	0.140	0.004
-561.529	-86.120	-0.155	0.048
-560.515	-53.991	-0.203	0.093
-559.500	-200.000	0.049	0.302
-558.485	-200.000	-0.060	-0.478
-557.471	203.229	0.034	0.052
-556.456	-86.415	0.088	-0.027
-555.442	800.000	0.018	-0.059
-554.427	66.556	-0.263	0.268
-553.412	-153.003	-0.150	-0.011
-552.398	278.249	-0.093	-0.167
-551.383	-200.000	-0.023	-0.128
-550.369	25.793	-0.268	-0.224
-549.354	-17.483	0.051	-0.032
-548.339	357.859	-0.250	0.500
-547.325	-59.368	0.308	-0.133
-546.310	9.469	0.054	0.041
-545.296	-56.704	-0.056	-0.025
-544.281	-200.000	-0.001	-0.141
-543.266	-200.000	0.093	-0.429
-542.252	-109.720	-0.185	-0.039
-541.237	800.000	0.065	0.183
-540.223	155.713	-0.140	0.194
-539.208	87.921	-0.187	-0.208
-538.193	-104.145	0.129	0.030
-537.179	-32.273	-0.163	0.091
-536.164	-68.159	0.546	0.213
-535.150	-200.000	-0.014	0.241
-534.135	-79.525	-0.362	-0.123
-533.121	312.833	-0.077	0.145
-532.106	-200.000	0.005	-0.060
-531.091	265.672	0.168	0.295
-530.077	-30.190	0.195	-0.111
-529.062	10.092	-0.293	-0.224
-528.048	160.006	0.058	-0.081
-527.033	5.614	0.108	0.080
-526.018	-58.927	0.102	0.044
-525.004	11.968	-0.288	-0.222
-523.989	-58.924	-0.087	-0.038
-522.975	-139.065	0.285	-0.031
-521.960	-40.723	-0.103	-0.053
-520.945	-76.588	0.217	-0.077
-519.931	-31.479	-0.319	0.180
-518.916	-98.080	0.363	-0.094
-517.902	179.546	0.002	-0.003
-516.887	28.095	-0.175	0.148
-515.872	82.837	-0.205	-0.223
-514.858	-140.002	-0.179	-0.019
-513.843	-107.515	0.404	0.089
-512.829	-75.684	0.141	-0.050
-511.814	-162.908	-0.500	-0.024
-510.799	-200.000	0.002	-0.012
-509.785	-86.769	-0.203	-0.062
-508.770	-200.000	0.009	-0.303
-507.756	227.471	-0.202	-0.330
-506.741	-58.706	0.226	-0.098
-505.726	-200.000	0.025	-0.213
-504.712	-103.286	0.249	0.059
-503.697	163.649	0.110	0.155
-502.683	-94.682	-0.073	0.020
-501.668	-4.984	0.293	-0.202
-500.653	289.954	-0.099	-0.181
-499.639	-200.000	0.078	0.441
-498.624	-63.841	0.313	0.128
-497.610	-158.272	0.126	0.007
-496.595	800.000	-0.074	-0.269
-495.581	73.410	0.219	-0.230
-494.566	800.000	-0.085	-0.267
-493.551	-125.309	0.475	0.073
-492.537	-78.536	-0.204	-0.070
-491.522	-200.000	-0.014	-0.149
-490.508	412.623	-0.051	-0.108
-489.493	-175.036	-0.269	0.008
-488.478	-17.834	0.126	0.079
-487.464	-200.000	0.015	-0.162
-486.449	560.431	-0.152	-0.369
-485.435	-68.304	0.251	0.098
-484.420	653.523	-0.094	-0.241
-483.405	-150.235	0.150	-0.012
-482.391	-144.080	0.212	0.020
-481.376	-50.954	-0.203	-0.095
-480.362	-121.916	0.447	0.074
-479.347	-71.181	0.184	-0.069
-478.332	-185.568	0.374	0.006
-477.318	41.014	0.132	0.119
-476.303	-200.000	-0.001	0.251
-475.289	-12.003	-0.339	0.223
-474.274	-51.995	0.204	-0.095
-473.259	-18.361	-0.124	-0.078
-472.245	-100.344	0.076	-0.019
-471.230	-200.000	-0.025	-0.145
-470.216	-81.386	0.163	-0.054
-469.201	-4.611	0.188	0.130
-468.186	800.000	0.033	0.116
-467.172	698.949	-0.024	-0.063
-466.157	75.449	0.106	-0.112
-465.143	36.726	-0.162	-0.143
-464.128	-132.181	-0.326	-0.042
-463.113	72.993	0.048	-0.051
-462.099	-200.000	-0.039	0.175
-461.084	94.102	-0.163	-0.185
-460.070	-200.000	0.019	0.316
-459.055	-1.032	-0.326	0.231
-458.040	73.966	0.129	-0.135
-457.026	2.487	0.201	-0.145
-456.011	800.000	-0.013	0.057
-454.997	-185.750	-0.280	-0.004
-453.982	36.852	0.126	0.112
-452.968	-106.137	0.136	0.031
-451.953	516.083	-0.078	0.183
-450.938	-51.472	-0.138	-0.065
-449.924	800.000	-0.033	-0.100
-448.909	-160.104	-0.486	-0.026
-447.895	578.448	0.121	0.297
-446.880	-87.644	0.016	-0.005
-445.865	-137.686	0.199	-0.022
-444.851	-200.000	-0.216	0.001
-443.836	-200.000	0.016	-0.097
-442.822	150.282	0.217	0.295
-441.807	-117.775	-0.247	0.044
-440.792	-200.000	-0.081	0.480
-439.778	-115.617	0.165	-0.031
-438.763	708.413	0.102	0.270
-437.749	480.311	-0.055	-0.125
-436.734	-200.000	0.027	0.156
-435.719	-83.601	0.050	-0.016
-434.705	-125.951	-0.228	0.034
-433.690	-2.265	-0.221	0.155
-432.676	-143.893	-0.169	-0.016
-431.661	800.000	-0.037	0.118
-430.646	-200.000	-0.021	-0.137
-429.632	-43.321	-0.196	-0.099
-428.617	-81.044	-0.339	0.112
-427.603	-95.580	-0.133	0.036
-426.588	210.588	-0.085	-0.133
-425.573	260.227	0.084	-0.145
-424.559	81.458	-0.161	0.174
-423.544	-107.961	0.061	-0.013
-422.530	-200.000	0.016	0.174
-421.515	-114.718	-0.180	0.034
-420.500	-83.522	0.249	-0.080
-419.486	12.306	-0.169	-0.130
-418.471	-76.429	-0.071	-0.025
-417.457	-90.846	0.309	-0.089
-416.442	-200.000	0.005	0.054
-415.428	55.840	0.249	0.242
-414.413	293.874	0.114	-0.208
-413.398	381.831	0.024	-0.050
-412.384	-111.439	0.135	0.028
-411.369	123.031	-0.077	0.096
-410.355	-71.744	0.088	0.033
-409.340	-108.467	0.277	0.060
-408.325	-118.435	0.092	0.016
-407.311	800.000	-0.129	0.380
-406.296	-200.000	-0.035	0.276
-405.282	-66.336	-0.389	0.155
-404.267	-133.814	0.164	-0.020
-403.252	149.668	-0.115	0.156
-402.238	49.934	-0.222	0.209
-401.223	-47.045	0.297	0.145
-400.209	800.000	0.147	0.469
-399.194	-37.745	0.127	0.068
-398.179	-200.000	0.028	0.313
-397.165	800.000	0.099	0.377
-396.150	39.072	-0.108	0.097
-395.136	-24.730	0.073	-0.043
-394.121	416.087	-0.029	-0.062
-393.106	40.781	-0.327	0.295
-392.092	-200.000	-0.023	-0.288
-391.077	175.602	-0.114	0.165
-390.063	-130.555	0.390	0.053
-389.048	124.059	0.323	0.405
-388.033	-94.518	0.155	-0.042
-387.019	-136.841	0.091	0.010
-386.004	-164.483	-0.177	-0.008
-384.990	-96.085	0.336	0.089
-383.975	-124.502	0.093	0.014
-382.960	0.990	0.401	0.287
-381.946	-49.057	0.099	0.047
-380.931	-36.887	-0.181	0.097
-379.917	-49.868	0.104	0.050
-378.902	-200.000	-0.015	0.109
-377.888	155.322	0.069	0.095
-376.873	-174.889	-0.205	-0.006
-375.858	-26.286	-0.124	-0.073
-374.844	227.561	-0.082	-0.132
-373.829	80.573	0.076	0.082
-372.815	138.660	0.087	0.114
-371.800	-122.094	-0.339	0.055
-370.785	42.094	0.056	0.051
-369.771	169.918	-0.173	0.247
-368.756	-200.000	0.029	0.277
-367.742	-41.395	-0.100	0.051
-366.727	-116.381	-0.071	-0.013
-365.712	215.531	-0.182	0.288
-364.698	585.191	0.029	-0.071
-363.683	323.275	0.106	-0.202
-362.669	-27.090	0.211	0.123
-361.654	800.000	-0.062	-0.181
-360.639	258.742	0.082	0.142
-359.625	391.703	0.132	-0.273
-358.610	743.466	0.016	-0.043
-357.596	120.579	-0.145	0.180
-356.581	366.243	0.070	0.142
-355.566	605.167	0.092	-0.228
-354.552	-98.599	-0.097	-0.025
-353.537	-124.914	-0.235	0.036
-352.523	236.981	0.097	0.160
-351.508	-152.015	-0.447	0.032
-350.493	107.583	-0.128	0.152
-349.479	428.767	0.023	-0.050
-348.464	66.328	-0.073	0.074
-347.450	66.250	0.138	0.140
-346.435	-47.419	0.233	-0.113
-345.420	102.668	0.127	-0.148
-344.406	-24.949	-0.303	-0.179
-343.391	217.699	-0.083	0.132
-342.377	180.703	-0.129	-0.189
-341.362	111.044	-0.181	0.217
-340.348	-9.114	-0.095	-0.064
-339.333	350.080	-0.173	-0.340
-338.318	-200.000	-0.009	0.180
-337.304	-103.370	0.297	-0.070
-336.289	98.756	-0.217	0.250
-335.275	-200.000	0.020	-0.146
-334.260	405.979	-0.074	0.156
-333.245	0.557	-0.434	0.310
-332.231	-82.201	0.336	-0.109
-331.216	-200.000	-0.044	0.265
-330.202	-60.172	0.389	-0.165
-329.187	197.270	-0.136	0.207
-328.172	372.828	-0.185	-0.374
-327.158	800.000	-0.057	0.213
-326.143	184.564	0.148	0.218
-325.129	-26.762	0.081	0.047
-324.114	576.211	0.150	-0.364
-323.099	40.842	0.119	0.107
-322.085	269.445	-0.131	0.230
-321.070	61.117	-0.255	0.253
-320.056	214.302	0.053	-0.083
-319.041	-2.435	-0.386	-0.269
-318.026	29.880	0.292	0.247
-317.012	-169.678	0.406	0.015
-315.997	-34.302	0.231	-0.126
-314.983	111.149	-0.183	0.219
-313.968	-139.735	0.268	0.028
-312.953	-154.008	-0.455	0.031
-311.939	-157.648	-0.229	-0.014
-310.924	-100.203	0.224	-0.056
-309.910	-88.196	0.437	0.130
-308.895	9.732	-0.183	-0.138
-307.880	180.416	0.095	-0.139
-306.866	253.620	0.127	-0.216
-305.851	-70.056	0.111	0.042
-304.837	-200.000	-0.021	-0.186
-303.822	318.993	-0.098	-0.185
-302.807	302.495	-0.127	0.234
-301.793	-200.000	0.006	0.294
-300.778	367.628	0.014	-0.028
-299.764	-126.389	-0.543	0.080
-298.749	-50.539	-0.290	-0.136
-297.735	-68.100	0.203	-0.079
-296.720	-152.520	0.366	0.026
-295.705	-87.878	0.353	0.106
-294.691	214.685	-0.193	0.305
-293.676	505.068	0.012	0.028
-292.662	-70.950	-0.227	0.085
-291.647	141.484	0.132	0.173
-290.632	158.786	0.126	-0.174
-289.618	-133.989	-0.295	-0.036
-288.603	-68.757	0.383	0.147
-287.589	-200.000	-0.034	-0.211
-286.574	260.575	-0.182	0.313
-285.559	338.499	-0.056	-0.109
-284.545	112.620	0.351	-0.422
-283.530	800.000	-0.013	0.046
-282.516	-200.000	0.033	0.152
-281.501	-123.475	0.299	-0.047
-280.486	-200.000	0.069	-0.426
-279.472	800.000	-0.110	-0.416
-278.457	474.519	-0.074	-0.166
-277.443	-186.457	-0.336	0.005
-276.428	214.543	0.096	0.151
-275.413	-200.000	-0.066	0.497
-274.399	-200.000	-0.001	0.240
-273.384	-88.740	0.306	-0.090
-272.370	-200.000	0.026	0.267
-271.355	-113.918	-0.273	-0.053
-270.340	79.733	0.224	0.239
-269.326	88.649	0.210	0.232
-268.311	-63.674	0.127	0.052
-267.297	-38.563	-0.167	-0.088
-266.282	516.681	0.040	-0.094
-265.267	800.000	0.021	-0.073
-264.253	800.000	-0.021	-0.080
-263.238	783.721	0.061	0.166
-262.224	121.964	-0.206	0.255
-261.209	-125.478	0.237	-0.036
-260.195	-200.000	-0.036	-0.293
-259.180	-62.771	-0.633	-0.261
-258.165	747.989	0.025	-0.067
-257.151	800.000	-0.026	0.103
-256.136	-118.958	0.177	0.031
-255.122	366.662	-0.101	-0.203
-254.107	-118.223	-0.322	-0.057
-253.092	-130.197	0.277	0.037
-252.078	-55.296	0.351	-0.156
-251.063	183.251	-0.238	-0.350
-250.049	-174.425	0.154	0.004
-249.034	71.660	-0.122	0.126
-248.019	-183.009	0.422	-0.007
-247.005	-144.280	0.389	-0.036
-245.990	-57.822	-0.170	-0.074
-244.976	-22.628	0.413	-0.248
-243.961	-200.000	0.071	-0.342
-242.946	800.000	-0.076	-0.284
-241.932	160.326	0.096	-0.134
-240.917	182.829	0.207	0.304
-239.903	87.093	0.329	0.361
-238.888	-119.681	0.218	0.037
-237.873	-37.153	0.220	-0.117
-236.859	-101.465	-0.240	0.058
-235.844	464.747	-0.119	-0.264
-234.830	-200.000	-0.009	0.229
-233.815	409.842	-0.097	0.203
-232.800	564.178	-0.177	0.426
-231.786	290.545	-0.114	0.205
-230.771	-200.000	-0.015	0.125
-229.757	54.425	-0.108	0.103
-228.742	320.265	0.146	-0.276
-227.727	-200.000	0.002	0.119
-226.713	-200.000	0.006	-0.185
-225.698	-200.000	-0.084	-0.507
-224.684	-12.326	-0.101	-0.065
-223.669	-95.388	0.402	-0.107
-222.655	800.000	0.053	-0.157
-221.640	-36.505	0.116	0.062
-220.625	-200.000	0.005	-0.087
-219.611	-200.000	0.027	-0.320
-218.596	33.276	-0.126	0.109
-217.582	135.711	-0.071	0.091
-216.567	-157.616	0.347	-0.021
-215.552	-57.508	-0.075	0.033
-214.538	16.057	0.215	-0.168
-213.523	-61.829	-0.295	0.123
-212.509	800.000	-0.128	-0.521
-211.494	88.111	-0.159	-0.175
-210.479	260.005	0.069	-0.119
-209.465	-123.525	-0.302	-0.048
-208.450	478.306	0.107	-0.239
-207.436	360.200	0.160	0.317
-206.421	800.000	-0.012	0.050
-205.406	800.000	-0.015	-0.049
-204.392	272.793	0.079	-0.138
-203.377	-62.648	-0.013	0.005
-202.363	-84.001	0.157	-0.050
-201.348	-132.382	-0.392	-0.050
-200.333	176.321	-0.165	-0.237
-199.319	60.774	0.213	-0.210
-198.304	-200.000	-0.002	0.086
-197.290	-71.300	0.259	-0.096
-196.275	-148.845	0.352	0.028
-195.260	-79.708	0.304	-0.102
-194.246	42.174	0.078	-0.070
-193.231	708.157	0.026	0.068
-192.217	109.688	-0.187	0.222
-191.202	-200.000	0.003	-0.075
-190.187	57.904	0.151	0.146
-189.173	470.306	-0.100	0.223
-188.158	334.421	-0.052	0.100
-187.144	33.481	0.357	-0.308
-186.129	-163.272	-0.149	-0.007
-185.114	800.000	0.149	0.491
-184.100	-156.498	-0.706	0.044
-183.085	205.812	-0.115	-0.177
-182.071	-135.770	-0.247	-0.029
-181.056	-123.921	0.181	-0.028
-180.042	-178.865	0.348	-0.008
-179.027	-200.000	0.019	0.142
-178.012	194.572	-0.169	0.255
-176.998	-21.753	0.381	0.230
-175.983	357.180	0.139	0.275
-174.969	113.478	-0.168	-0.202
-173.954	-200.000	-0.005	0.208
-172.939	-106.923	0.308	0.067
-171.925	-25.984	-0.240	-0.140
-170.910	-131.742	0.106	0.014
-169.896	-108.605	-0.206	-0.044
-168.881	705.747	-0.050	0.131
-167.866	-35.304	-0.225	-0.121
-166.852	-193.966	0.402	-0.003
-165.837	412.389	0.230	-0.483
-164.823	-53.131	-0.422	0.192
-163.808	58.791	-0.077	-0.075
-162.793	-113.018	0.443	-0.087
-161.779	-200.000	0.014	-0.133
-160.764	-200.000	0.068	-0.514
-159.750	800.000	-0.062	-0.249
-158.735	-43.104	-0.085	-0.042
-157.720	-200.000	0.028	0.152
-156.706	-95.559	-0.269	-0.071
-155.691	-58.441	-0.260	0.112
-154.677	127.929	0.037	0.046
-153.662	-86.000	-0.138	-0.042
-152.647	-21.854	-0.118	-0.071
-151.633	323.970	0.025	0.047
-150.618	-169.791	-0.118	-0.004
-149.604	800.000	-0.073	0.283
-148.589	535.380	-0.100	0.235
-147.574	134.537	0.026	-0.033
-146.560	-200.000	0.010	-0.066
-145.545	100.518	0.051	0.059
-144.531	226.771	0.098	0.157
-143.516	800.000	0.080	0.347
-142.502	-11.756	0.013	-0.008
-141.487	-200.000	-0.010	-0.467
-140.472	328.352	-0.148	0.281
-139.458	172.572	0.088	0.126
-138.443	22.629	0.243	0.197
-137.429	-84.611	0.304	0.095
-136.414	-200.000	-0.025	-0.189
-135.399	37.640	-0.138	0.121
-134.385	-200.000	-0.012	-0.123
-133.370	76.313	0.109	-0.115
-132.356	800.000	-0.033	0.098
-131.341	-107.831	0.282	-0.061
-130.326	-178.653	0.172	-0.004
-129.312	800.000	-0.048	-0.205
-128.297	-200.000	-0.008	-0.052
-127.283	800.000	0.037	0.105
-126.268	-110.322	-0.422	0.087
-125.253	523.049	-0.079	0.183
-124.239	370.094	-0.116	-0.233
-123.224	800.000	-0.108	-0.379
-122.210	800.000	-0.072	-0.270
-121.195	93.792	0.072	0.081
-120.180	5.157	0.048	0.035
-119.166	282.342	0.033	-0.059
-118.151	369.688	0.086	0.171
-117.137	800.000	-0.081	0.278
-116.122	800.000	0.040	0.133
-115.107	-62.429	0.375	-0.154
-114.093	-174.473	0.465	0.013
-113.078	133.395	-0.244	-0.311
-112.064	45.182	0.298	0.271
-111.049	-200.000	0.004	-0.056
-110.034	800.000	-0.087	-0.259
-109.020	800.000	-0.073	0.259
-108.005	-200.000	0.005	0.185
-106.991	-25.583	-0.242	-0.141
-105.976	-39.329	-0.348	0.180
-104.962	-200.000	-0.052	0.402
-103.947	115.418	0.133	-0.160
-102.932	800.000	0.028	0.099
-101.918	-200.000	-0.019	0.111
-100.903	-5.053	-0.152	0.103
-99.889	53.622	0.191	0.181
-98.874	-82.885	-0.152	-0.048
-97.859	-112.994	0.282	-0.055
-96.845	800.000	-0.102	0.323
-95.830	-14.069	0.241	0.154
-94.816	800.000	0.073	0.296
-93.801	-77.834	0.144	0.049
-92.786	-184.024	0.137	0.002
-91.772	-94.759	0.041	0.011
-90.757	-200.000	-0.004	-0.178
-89.743	800.000	0.122	-0.432
-88.728	-47.701	0.297	-0.142
-87.713	-101.631	0.274	-0.066
-86.699	211.272	0.098	0.153
-85.684	358.912	-0.137	0.271
-84.670	41.881	-0.126	-0.113
-83.655	48.366	0.125	0.116
-82.640	99.210	0.257	-0.293
-81.626	85.987	0.156	-0.169
-80.611	-37.229	-0.098	-0.052
-79.597	89.374	-0.305	0.335
-78.582	-200.000	-0.024	-0.103
-77.567	800.000	0.053	-0.150
-76.553	-200.000	0.001	-0.428
-75.538	-200.000	0.001	0.008
-74.524	-200.000	0.009	0.163
-73.509	558.877	-0.072	-0.171
-72.494	180.001	-0.039	-0.056
-71.480	-122.437	0.101	0.016
-70.465	307.407	-0.131	0.241
-69.451	82.101	0.142	-0.152
-68.436	659.619	-0.044	0.111
-67.422	-200.000	-0.072	0.473
-66.407	-122.973	0.339	0.054
-65.392	-97.139	0.058	-0.015
-64.378	-84.114	-0.277	0.087
-63.363	-200.000	0.010	0.084
-62.349	800.000	0.119	0.387
-61.334	107.449	-0.704	-0.825
-60.319	-101.307	0.657	0.158
-59.305	-200.000	-0.071	-1.077
-58.290	81.967	0.691	0.738
-57.276	535.048	0.737	1.724
-56.261	-200.000	86.478	493.965
-55.246	489.963	1363.599	3073.426
-54.232	151.387	2582.646	3465.468
-53.217	108.369	2308.905	2715.501
-52.203	46.947	1927.976	1766.605
-51.188	41.162	1719.552	1531.241
-50.173	38.477	1674.411	1470.840
-49.159	53.313	1719.208	1623.462
-48.144	56.984	1738.127	1669.235
-47.130	40.976	1696.323	1508.908
-46.115	38.010	1681.237	1473.077
-45.100	37.858	1677.125	1468.270
-44.086	37.831	1673.958	1465.241
-43.071	37.837	1671.087	1462.710
-42.057	37.765	1668.731	1460.054
-41.042	37.847	1667.285	1459.343
-40.027	37.837	1664.937	1457.153
-39.013	37.820	1663.034	1455.306
-37.998	37.797	1661.460	1453.696
-36.984	37.827	1659.800	1452.411
-35.969	37.876	1658.360	1451.460
-34.954	38.006	1656.167	1450.452
-33.940	38.022	1654.117	1448.713
-32.925	37.955	1653.048	1447.225
-31.911	37.953	1651.208	1445.542
-30.896	37.887	1650.173	1444.086
-29.881	37.888	1648.764	1442.807
-28.867	37.939	1646.537	1441.174
-27.852	37.936	1645.570	1440.251
-26.838	37.979	1644.205	1439.318
-25.823	37.996	1642.577	1437.961
-24.809	37.976	1640.962	1436.337
-23.794	37.959	1639.590	1434.957
-22.779	38.051	1638.072	1434.249
-21.765	37.929	1636.944	1432.310
-20.750	37.966	1635.016	1430.832
-19.736	37.959	1633.756	1429.628
-18.721	37.885	1632.645	1428.054
-17.706	37.980	1630.864	1427.133
-16.692	37.962	1629.229	1425.515
-15.677	37.953	1628.052	1424.367
-14.663	38.002	1626.967	1423.711
-13.648	37.971	1625.508	1422.155
-12.633	38.024	1623.856	1421.042
-11.619	37.905	1622.418	1418.860
-10.604	37.964	1620.932	1417.934
-9.590	37.997	1619.325	1416.710
-8.575	37.884	1618.328	1414.964
-7.560	38.023	1616.658	1414.451
-6.546	37.909	1615.832	1412.851
-5.531	37.939	1614.789	1412.096
-4.517	38.007	1612.989	1410.958
-3.502	37.925	1612.464	1409.855
-2.487	38.073	1610.406	1409.061
-1.473	37.597	1598.711	1395.362
-0.458	34.548	1577.900	1355.528
0.556	30.140	1576.753	1317.709
1.571	27.375	1600.074	1317.100
2.586	26.822	1614.514	1324.830
3.600	23.799	1561.529	1259.843
4.615	13.325	1446.928	1098.098
5.629	3.498	1376.212	982.017
6.644	1.711	1365.943	963.306
7.659	1.445	1365.132	960.964
8.673	1.348	1363.701	959.260
9.688	1.357	1362.137	958.132
10.702	1.135	1358.899	954.374
11.717	4.880	1366.266	983.132
12.731	15.297	1386.491	1064.012
13.746	23.605	1400.562	1127.740
14.761	25.326	1402.801	1140.389
15.775	25.563	1402.356	1141.431
16.790	25.591	1401.898	1141.132
17.804	25.661	1401.114	1140.841
18.819	25.808	1401.279	1141.805
19.834	26.017	1400.295	1142.225
20.848	26.033	1399.546	1141.612
21.863	25.991	1398.962	1140.771
22.877	26.013	1397.939	1139.977
23.892	26.085	1396.815	1139.411
24.907	25.983	1396.227	1138.185
25.921	26.035	1395.202	1137.579
26.936	26.001	1394.289	1136.519
27.950	25.997	1393.203	1135.509
28.965	25.933	1391.601	1133.697
29.980	26.092	1390.117	1133.392
30.994	26.082	1388.765	1132.125
32.009	25.986	1388.177	1130.943
33.023	26.022	1386.857	1129.995
34.038	25.980	1385.902	1128.851
35.053	25.944	1384.893	1127.706
36.067	26.008	1383.545	1126.907
37.082	25.966	1382.828	1125.964
38.096	25.943	1381.933	1124.988
39.111	26.045	1381.012	1124.778
40.126	25.985	1380.223	1123.659
41.140	25.969	1379.734	1123.061
42.155	25.983	1379.764	1123.076
43.169	25.975	1379.626	1122.811
44.184	25.929	1379.457	1122.294
45.199	26.000	1378.894	1122.176
46.213	26.012	1378.104	1121.506
47.228	25.868	1377.061	1119.666
48.242	25.985	1376.271	1119.652
49.257	26.047	1374.508	1118.498
50.271	25.990	1372.725	1116.597
51.286	25.937	1371.883	1115.485
52.301	25.992	1370.586	1114.672
53.315	25.950	1369.675	1113.572
54.330	25.998	1369.145	1113.342
55.344	25.927	1367.783	1111.696
56.359	25.938	1366.752	1110.829
57.374	25.959	1366.027	1110.273
58.388	25.975	1365.538	1109.875
59.403	25.916	1365.037	1109.006
60.417	26.002	1364.160	1108.723
61.432	25.984	1363.815	1108.233
62.447	25.919	1363.353	1107.358
63.461	25.997	1361.916	1106.575
64.476	25.979	1360.128	1104.916
65.490	25.940	1359.674	1104.206
66.505	25.952	1358.000	1102.826
67.520	25.960	1356.696	1101.718
68.534	26.030	1355.554	1101.117
69.549	26.005	1354.567	1100.069
70.563	26.021	1353.813	1099.453
71.578	26.065	1352.529	1098.587
72.593	25.982	1352.113	1097.646
73.607	26.067	1351.155	1097.282
74.622	26.041	1350.505	1096.504
75.636	26.092	1349.385	1095.805
76.651	25.948	1349.450	1094.887
77.666	25.940	1348.600	1094.053
78.680	25.903	1348.588	1093.722
79.695	25.991	1347.695	1093.431
80.709	25.996	1346.510	1092.408
81.724	26.002	1345.496	1091.523
82.739	25.994	1344.712	1090.743
83.753	25.894	1344.171	1089.601
84.768	26.050	1342.458	1089.056
85.782	26.058	1341.145	1087.944
86.797	25.959	1340.292	1086.560
87.812	26.019	1339.470	1086.159
88.826	26.034	1338.554	1085.412
89.841	25.893	1337.514	1083.625
90.855	26.018	1336.377	1083.357
91.870	26.030	1335.384	1082.530
92.884	25.941	1335.058	1081.634
93.899	25.973	1333.932	1080.821
94.914	25.960	1333.156	1080.017
95.928	26.122	1332.115	1080.045
96.943	26.060	1331.554	1079.124
97.957	26.104	1330.501	1078.443
98.972	25.978	1329.763	1076.991
99.987	26.026	1328.845	1076.443
101.001	25.985	1328.454	1075.783
102.016	25.981	1327.340	1074.766
103.030	26.110	1326.069	1074.407
104.045	26.052	1325.383	1073.408
105.060	26.079	1324.392	1072.672
106.074	26.028	1323.178	1071.293
107.089	26.060	1322.365	1070.727
108.103	26.061	1321.604	1070.023
109.118	26.233	1320.240	1069.843
110.133	26.127	1319.186	1068.271
111.147	26.087	1318.068	1067.032
112.162	26.138	1317.038	1066.404
113.176	26.174	1315.669	1065.413
114.191	26.089	1315.243	1064.476
115.206	26.136	1313.677	1063.390
116.220	26.141	1312.660	1062.499
117.235	26.174	1312.146	1062.188
118.249	26.083	1310.957	1060.594
119.264	26.106	1310.521	1060.283
120.279	26.117	1309.703	1059.592
121.293	26.226	1308.310	1059.009
122.308	26.162	1308.073	1058.348
123.322	26.133	1307.371	1057.518
124.337	26.180	1306.124	1056.692
125.352	26.190	1305.323	1056.009
126.366	26.233	1304.679	1055.642
127.381	26.190	1303.874	1054.648
128.395	26.115	1302.635	1053.114
129.410	26.210	1301.723	1052.841
130.424	26.233	1301.192	1052.452
131.439	26.203	1300.345	1051.498
132.454	26.237	1299.211	1050.683
133.468	26.166	1298.813	1049.859
134.483	26.047	1298.817	1049.076
135.497	26.207	1298.043	1049.286
136.512	26.120	1296.971	1047.824
137.527	26.132	1295.665	1046.744
138.541	26.156	1294.180	1045.592
139.556	26.103	1293.421	1044.578
140.570	26.129	1292.025	1043.510
141.585	26.231	1290.694	1042.934
142.600	26.066	1290.402	1041.650
143.614	26.143	1289.229	1041.056
144.629	26.122	1288.437	1040.205
145.643	26.028	1287.185	1038.561
146.658	26.066	1286.029	1037.755
147.673	26.110	1284.987	1037.073
148.687	26.018	1284.564	1036.113
149.702	26.025	1282.785	1034.623
150.716	26.032	1281.699	1033.696
151.731	26.117	1280.619	1033.223
152.746	26.121	1280.010	1032.662
153.760	26.111	1278.982	1031.687
154.775	26.334	1277.289	1031.501
155.789	26.174	1276.870	1030.161
156.804	26.082	1276.347	1029.121
157.819	26.019	1275.331	1027.853
158.833	26.243	1273.967	1027.937
159.848	26.142	1274.062	1027.348
160.862	26.127	1273.099	1026.396
161.877	26.165	1272.283	1025.862
162.892	26.255	1271.174	1025.385
163.906	26.225	1270.814	1024.834
164.921	26.277	1269.751	1024.183
165.935	26.221	1269.205	1023.335
166.950	26.288	1268.377	1022.957
167.964	26.325	1267.673	1022.508
168.979	26.309	1267.451	1022.147
169.994	26.271	1266.621	1021.172
171.008	26.275	1265.833	1020.466
172.023	26.257	1265.072	1019.661
173.037	26.250	1264.588	1019.146
174.052	26.259	1263.660	1018.358
175.067	26.298	1262.975	1017.936
176.081	26.318	1262.239	1017.363
177.096	26.268	1261.350	1016.276
178.110	26.208	1260.613	1015.255
179.125	26.256	1259.791	1014.770
180.140	26.393	1258.464	1014.381
181.154	26.223	1257.822	1012.822
182.169	26.261	1256.332	1011.743
183.183	26.253	1255.038	1010.569
184.198	26.320	1254.233	1010.205
185.213	26.398	1253.035	1009.585
186.227	26.398	1252.121	1008.764
187.242	26.381	1251.522	1008.096
188.256	26.268	1250.924	1006.892
189.271	26.292	1249.892	1006.105
190.286	26.379	1249.049	1005.823
191.300	26.301	1249.066	1005.313
192.315	26.256	1248.317	1004.375
193.329	26.216	1248.224	1003.989
194.344	26.457	1247.537	1004.681
195.359	26.415	1246.826	1003.791
196.373	26.258	1246.817	1002.821
197.388	26.301	1246.196	1002.471
198.402	26.228	1245.770	1001.638
199.417	26.354	1245.108	1001.711
200.432	26.349	1244.557	1001.153
201.446	26.344	1244.256	1000.797
202.461	26.352	1243.240	999.933
203.475	26.442	1242.379	999.652
204.490	26.297	1241.707	998.219
205.504	26.225	1240.330	996.628
206.519	26.410	1239.407	996.820
207.534	26.475	1238.556	996.403
208.548	26.410	1237.779	995.330
209.563	26.316	1237.007	994.108
210.577	26.478	1236.122	994.199
211.592	26.403	1235.186	992.945
212.607	26.491	1234.502	992.787
213.621	26.388	1233.918	991.669
214.636	26.384	1233.231	991.005
215.650	26.588	1231.606	990.726
216.665	26.462	1230.903	989.384
217.680	26.538	1229.871	988.887
218.694	26.457	1229.352	987.936
219.709	26.628	1228.666	988.234
220.723	26.579	1227.815	987.191
221.738	26.408	1227.099	985.600
222.753	26.418	1226.507	985.089
223.767	26.439	1226.215	984.879
224.782	26.505	1225.372	984.479
225.796	26.566	1224.812	984.271
226.811	26.549	1224.420	983.778
227.826	26.576	1223.533	983.124
228.840	26.579	1223.159	982.751
229.855	26.530	1222.700	982.031
230.869	26.479	1221.830	980.969
231.884	26.615	1221.277	981.175
232.899	26.569	1220.525	980.235
233.913	26.620	1219.347	979.478
234.928	26.707	1219.031	979.608
235.942	26.682	1218.400	978.880
236.957	26.679	1217.795	978.293
237.972	26.690	1217.086	977.696
238.986	26.635	1216.744	977.038
240.001	26.664	1216.035	976.534
241.015	26.704	1215.299	976.074
242.030	26.743	1214.583	975.620
243.045	26.717	1213.645	974.641
244.059	26.768	1212.554	973.955
245.074	26.827	1211.981	973.723
246.088	26.741	1211.279	972.614
247.103	26.753	1210.267	971.780
248.117	26.768	1209.959	971.526
249.132	26.807	1209.189	971.031
250.147	26.785	1208.510	970.282
251.161	26.861	1207.521	969.806
252.176	26.830	1206.925	969.077
253.190	26.806	1206.488	968.513
254.205	26.835	1205.670	967.926
255.220	26.727	1205.454	967.088
256.234	26.739	1204.975	966.682
257.249	26.882	1203.681	966.322
258.263	26.856	1202.957	965.516
259.278	26.871	1202.691	965.300
260.293	26.737	1202.790	964.582
261.307	26.920	1201.218	964.205
262.322	27.005	1200.655	964.119
263.336	26.848	1200.331	962.939
264.351	26.863	1199.828	962.530
265.366	26.873	1199.370	962.130
266.380	26.865	1199.000	961.706
267.395	26.856	1197.802	960.616
268.409	26.769	1197.621	959.922
269.424	26.854	1196.966	959.763
270.439	26.937	1196.342	959.614
271.453	26.784	1195.767	958.265
272.468	26.962	1194.674	958.243
273.482	26.900	1193.967	957.263
274.497	26.931	1193.188	956.719
275.512	26.946	1192.803	956.399
276.526	26.949	1192.447	956.047
277.541	26.926	1191.631	955.188
278.555	27.025	1191.174	955.258
279.570	27.053	1190.378	954.680
280.585	26.921	1189.616	953.295
281.599	26.880	1188.934	952.445
282.614	27.000	1187.675	951.983
283.628	27.081	1186.201	951.140
284.643	27.149	1185.854	951.137
285.657	27.079	1185.175	950.140
286.672	27.086	1184.425	949.494
287.687	27.026	1183.517	948.369
288.701	26.988	1183.590	948.141
289.716	27.066	1182.174	947.331
290.730	27.195	1181.578	947.443
291.745	27.101	1181.019	946.422
292.760	27.270	1180.265	946.610
293.774	27.146	1180.074	945.732
294.789	27.082	1179.749	945.054
295.803	27.167	1179.010	944.819
296.818	27.173	1178.289	944.191
297.833	27.062	1177.559	942.944
298.847	27.238	1176.566	942.980
299.862	27.106	1175.982	941.740
300.876	27.199	1175.479	941.738
301.891	27.225	1174.989	941.398
302.906	27.325	1173.874	940.939
303.920	27.357	1173.390	940.630
304.935	27.296	1172.615	939.610
305.949	27.281	1172.215	939.134
306.964	27.256	1171.452	938.310
307.979	27.290	1170.794	937.875
308.993	27.366	1170.003	937.549
310.008	27.236	1169.481	936.375
311.022	27.368	1168.755	936.392
312.037	27.481	1167.735	936.073
313.052	27.378	1166.865	934.765
314.066	27.279	1166.325	933.740
315.081	27.281	1165.431	932.952
316.095	27.298	1165.196	932.768
317.110	27.345	1164.129	932.071
318.125	27.399	1163.970	932.139
319.139	27.283	1163.324	930.947
320.154	27.384	1162.609	930.807
321.168	27.368	1161.969	930.132
322.183	27.294	1161.626	929.397
323.197	27.364	1161.453	929.534
324.212	27.391	1160.258	928.633
325.227	27.411	1159.937	928.398
326.241	27.540	1159.089	928.293
327.256	27.536	1158.266	927.528
328.270	27.358	1157.800	926.168
329.285	27.478	1156.896	925.976
330.300	27.603	1155.352	925.290
331.314	27.440	1155.273	924.318
332.329	27.459	1154.295	923.551
333.343	27.541	1153.627	923.353
334.358	27.478	1152.817	922.299
335.373	27.541	1152.048	921.924
336.387	27.574	1151.359	921.459
337.402	27.608	1150.589	920.932
338.416	27.644	1149.979	920.542
339.431	27.563	1149.724	919.848
340.446	27.646	1148.686	919.355
341.460	27.592	1148.241	918.644
342.475	27.681	1147.556	918.467
343.489	27.775	1146.427	917.954
344.504	27.716	1145.767	917.044
345.519	27.643	1144.896	915.901
346.533	27.698	1143.862	915.269
347.548	27.627	1143.517	914.557
348.562	27.700	1142.713	914.195
349.577	27.755	1142.244	914.015
350.592	27.557	1141.415	912.281
351.606	27.629	1140.656	911.955
352.621	27.778	1139.845	911.972
353.635	27.573	1139.618	910.686
354.650	27.768	1138.769	910.899
355.665	27.721	1138.378	910.269
356.679	27.841	1137.611	910.173
357.694	27.839	1136.875	909.496
358.708	27.863	1135.844	908.708
359.723	27.749	1135.784	908.012
360.738	27.744	1135.215	907.454
361.752	27.839	1134.339	907.147
362.767	27.923	1134.032	907.239
363.781	27.806	1133.832	906.417
364.796	27.808	1132.933	905.628
365.810	27.886	1132.223	905.364
366.825	27.967	1131.564	905.159
367.840	27.960	1130.949	904.551
368.854	28.050	1130.392	904.475
369.869	27.933	1129.610	903.186
370.883	27.899	1129.176	902.591
371.898	28.060	1128.007	902.372
372.913	27.973	1127.687	901.607
373.927	28.096	1126.931	901.532
374.942	27.988	1126.732	900.761
375.956	28.070	1126.099	900.579
376.971	27.992	1126.197	900.190
377.986	27.962	1125.424	899.347
379.000	28.098	1124.427	899.139
380.015	28.096	1124.029	898.732
381.029	28.122	1123.299	898.197
382.044	28.092	1122.665	897.465
383.059	28.134	1122.087	897.129
384.073	28.125	1121.336	896.402
385.088	28.122	1120.341	895.514
386.102	28.115	1119.729	894.912
387.117	28.178	1118.998	894.555
388.132	28.076	1118.211	893.348
389.146	28.219	1117.269	893.214
390.161	28.202	1116.847	892.716
391.175	28.214	1116.257	892.224
392.190	28.233	1115.725	891.812
393.205	28.234	1114.771	890.978
394.219	28.220	1113.892	890.128
395.234	28.255	1113.355	889.789
396.248	28.238	1112.490	888.936
397.263	28.301	1111.804	888.615
398.278	28.342	1110.859	887.980
399.292	28.394	1110.466	887.837
400.307	28.262	1110.041	886.779
401.321	28.414	1109.061	886.654
402.336	28.242	1108.835	885.567
403.350	28.269	1108.193	885.103
404.365	28.377	1107.603	885.076
405.380	28.507	1106.283	884.571
406.394	28.361	1105.533	883.190
407.409	28.410	1104.922	882.857
408.423	28.434	1104.405	882.484
409.438	28.530	1103.661	882.273
410.453	28.573	1102.972	881.848
411.467	28.479	1102.128	880.647
412.482	28.444	1101.878	880.200
413.496	28.558	1101.064	880.017
414.511	28.562	1100.458	879.476
415.526	28.572	1099.948	879.038
416.540	28.504	1099.745	878.473
417.555	28.615	1098.967	878.303
418.569	28.614	1098.530	877.871
419.584	28.493	1098.409	877.117
420.599	28.625	1097.696	877.104
421.613	96.629	1311.175	1417.493
422.628	90.326	1342.268	1417.606
