DTS Sentinel unit serial number:	SN413079Multiplexer serial number:	ORYXHardware model number:	OX4-SRSoftware version number:	ORYX F/W v4.00 Oryx Data Collector v3.7.2.0data status	okinstallation	princeton_trtdifferential loss correction	single-endedforward channel	channel 2reverse channel	N/Adate	2019/09/11time	17:53:11forward acquisition time	60.00reverse acquisition time	0.00gamma	496.2192k internal	0.2284k external	0.2284temperature offset calibration	1.0021default loss term (dB/km)	0.3790temperature slope calibration	1.0000multiplexer offset coefficient	1.0000multiplexer slope coefficient	1.0000fibre end	0.00T internal ref (°C)	44.00T ext. ref 1 (°C)	1.12T ext. ref 2 (°C)	38.72length (m)	temperature (°C)	Stokes	anti-Stokes-747.200	800.000	-0.065	-0.257
-746.185	-200.000	0.094	0.436
-745.171	-55.836	0.101	0.046
-744.156	800.000	-0.003	0.013
-743.142	800.000	-0.042	0.186
-742.127	91.264	-0.184	0.212
-741.112	13.101	0.198	-0.157
-740.098	-200.000	-0.047	0.482
-739.083	800.000	0.092	-0.302
-738.069	133.818	-0.072	0.095
-737.054	-87.836	-0.146	-0.045
-736.039	422.433	-0.155	-0.341
-735.025	274.680	0.204	0.371
-734.010	800.000	0.054	-0.169
-732.996	-16.258	-0.185	-0.121
-731.981	-36.037	-0.210	-0.117
-730.966	-100.775	0.090	-0.023
-729.952	-72.234	0.295	-0.112
-728.937	98.397	0.099	-0.117
-727.923	111.833	-0.195	-0.241
-726.908	8.437	-0.207	0.160
-725.894	95.799	-0.183	-0.215
-724.879	42.996	0.291	-0.272
-723.864	116.264	-0.165	-0.207
-722.850	28.480	0.069	0.059
-721.835	-22.878	0.143	-0.088
-720.821	-88.070	-0.429	-0.132
-719.806	243.743	-0.271	-0.466
-718.791	-71.773	-0.363	-0.139
-717.777	112.581	0.051	0.063
-716.762	-65.443	0.195	0.081
-715.748	-196.335	-0.123	0.001
-714.733	154.091	-0.203	-0.285
-713.718	-200.000	0.013	-0.231
-712.704	-73.879	0.065	0.024
-711.689	-200.000	0.011	-0.241
-710.675	-76.288	-0.047	0.017
-709.660	-136.865	-0.097	-0.011
-708.645	286.955	0.076	-0.140
-707.631	173.162	0.017	0.025
-706.616	-67.474	-0.178	0.071
-705.602	15.683	-0.140	0.113
-704.587	-20.543	0.182	0.114
-703.572	368.006	-0.089	-0.185
-702.558	-200.000	-0.036	0.175
-701.543	-109.148	-0.082	-0.018
-700.529	-43.911	-0.122	-0.063
-699.514	352.829	-0.078	-0.158
-698.499	517.533	0.135	-0.324
-697.485	-2.449	0.156	0.112
-696.470	-147.781	-0.224	-0.019
-695.456	-200.000	-0.006	-0.093
-694.441	-14.223	-0.138	-0.091
-693.426	61.038	0.258	0.263
-692.412	-83.437	-0.388	-0.127
-691.397	-111.304	-0.327	-0.069
-690.383	-200.000	-0.025	0.257
-689.368	-29.739	0.196	0.115
-688.354	800.000	0.056	-0.249
-687.339	-200.000	-0.064	0.365
-686.324	490.835	0.039	-0.091
-685.310	-60.853	0.337	-0.146
-684.295	113.367	-0.144	-0.179
-683.281	57.350	-0.125	-0.125
-682.266	-200.000	-0.008	-0.073
-681.251	-200.000	-0.063	-0.286
-680.237	-131.317	-0.230	-0.031
-679.222	-39.340	0.149	0.080
-678.208	110.995	0.093	-0.115
-677.193	372.316	0.190	-0.395
-676.178	374.468	0.092	-0.191
-675.164	-200.000	-0.026	-0.218
-674.149	-133.875	0.019	0.002
-673.135	-200.000	0.007	-0.191
-672.120	-95.006	0.248	-0.069
-671.105	473.282	0.080	-0.184
-670.091	18.702	-0.112	-0.092
-669.076	800.000	-0.110	0.350
-668.062	-200.000	-0.025	-0.141
-667.047	-115.638	0.356	-0.068
-666.032	-86.938	-0.187	-0.058
-665.018	483.804	-0.114	-0.265
-664.003	-116.075	0.016	0.003
-662.989	-200.000	0.008	0.177
-661.974	656.611	-0.022	0.059
-660.959	146.931	0.207	-0.284
-659.945	263.736	-0.076	0.135
-658.930	-51.981	-0.114	0.054
-657.916	5.965	-0.131	0.099
-656.901	800.000	0.075	0.268
-655.886	-79.277	0.237	-0.082
-654.872	9.285	-0.175	-0.135
-653.857	-151.076	-0.351	0.027
-652.843	-200.000	-0.025	0.318
-651.828	623.469	-0.039	0.102
-650.814	-23.023	-0.157	-0.097
-649.799	-173.910	0.178	0.005
-648.784	-96.494	0.150	0.041
-647.770	-200.000	0.040	-0.242
-646.755	25.653	0.179	-0.153
-645.741	-200.000	0.009	0.050
-644.726	-108.500	-0.114	0.025
-643.711	428.071	-0.127	-0.281
-642.697	-200.000	-0.054	0.482
-641.682	-32.248	0.319	0.182
-640.668	-44.052	0.013	0.007
-639.653	398.425	-0.039	-0.084
-638.638	-22.261	0.033	0.020
-637.624	-106.432	-0.134	-0.031
-636.609	-124.657	0.269	0.043
-635.595	535.920	-0.027	-0.064
-634.580	-42.801	0.083	-0.043
-633.565	800.000	0.098	0.295
-632.551	182.341	-0.275	-0.415
-631.536	145.446	-0.169	0.232
-630.522	100.275	0.099	0.118
-629.507	-140.942	0.176	-0.019
-628.492	800.000	-0.031	0.123
-627.478	-62.349	-0.376	0.160
-626.463	91.449	0.173	0.199
-625.449	-56.699	0.131	-0.059
-624.434	608.831	0.130	-0.331
-623.419	396.260	0.219	0.467
-622.405	-93.154	-0.070	-0.020
-621.390	-94.385	0.118	0.033
-620.376	-4.695	0.273	-0.193
-619.361	-6.004	0.043	0.030
-618.346	-200.000	-0.040	-0.218
-617.332	279.838	0.129	0.235
-616.317	28.635	0.235	0.204
-615.303	80.484	0.020	-0.022
-614.288	-200.000	-0.026	0.178
-613.273	800.000	0.124	0.400
-612.259	-129.415	0.141	-0.020
-611.244	800.000	0.025	-0.079
-610.230	52.728	0.228	-0.223
-609.215	95.042	0.199	-0.232
-608.201	-200.000	0.024	0.306
-607.186	-36.908	-0.283	-0.155
-606.171	800.000	-0.164	-0.574
-605.157	800.000	0.009	0.030
-604.142	31.703	-0.272	-0.239
-603.128	572.758	0.136	0.337
-602.113	-200.000	-0.055	-0.354
-601.098	-143.211	0.147	0.014
-600.084	311.436	0.135	-0.258
-599.069	601.984	-0.104	-0.264
-598.055	701.396	-0.100	-0.269
-597.040	-200.000	0.037	-0.184
-596.025	54.757	-0.121	0.119
-595.011	-147.295	-0.372	-0.032
-593.996	-123.536	-0.181	0.029
-592.982	-85.359	0.049	0.016
-591.967	-200.000	-0.028	-0.343
-590.952	69.432	-0.262	-0.275
-589.938	-14.258	0.092	0.060
-588.923	226.046	-0.099	-0.164
-587.909	259.925	-0.098	0.173
-586.894	-83.311	0.121	-0.040
-585.879	-181.203	-0.126	-0.003
-584.865	-65.503	0.332	0.136
-583.850	-20.944	0.091	0.057
-582.836	-200.000	0.005	0.113
-581.821	-200.000	-0.056	0.273
-580.806	-200.000	-0.027	-0.132
-579.792	54.817	0.138	-0.136
-578.777	266.510	-0.010	0.017
-577.763	77.735	-0.213	-0.232
-576.748	-86.092	0.407	0.128
-575.733	388.786	-0.131	-0.277
-574.719	107.328	-0.057	0.069
-573.704	-155.127	-0.304	0.020
-572.690	800.000	-0.055	0.202
-571.675	800.000	0.108	-0.367
-570.661	800.000	-0.111	0.464
-569.646	-72.140	0.224	0.085
-568.631	643.664	0.062	-0.162
-567.617	-200.000	-0.028	0.218
-566.602	800.000	-0.026	-0.090
-565.588	-76.059	-0.182	-0.066
-564.573	-200.000	0.043	0.433
-563.558	674.206	-0.125	0.331
-562.544	-132.552	0.513	0.067
-561.529	-64.060	0.428	0.178
-560.515	22.330	-0.111	-0.093
-559.500	-101.946	0.074	-0.018
-558.485	800.000	0.027	-0.099
-557.471	140.207	-0.090	-0.120
-556.456	-26.599	-0.174	-0.104
-555.442	-76.192	0.323	-0.116
-554.427	212.530	0.165	-0.265
-553.412	84.103	0.026	0.028
-552.398	141.642	0.183	0.247
-551.383	-128.464	-0.164	-0.024
-550.369	-142.670	0.168	0.017
-549.354	541.131	0.140	0.341
-548.339	-144.364	-0.039	-0.004
-547.325	800.000	-0.126	-0.383
-546.310	-200.000	0.035	-0.474
-545.296	-81.754	-0.166	-0.055
-544.281	261.812	0.052	0.092
-543.266	54.672	-0.216	0.212
-542.252	12.300	-0.204	-0.160
-541.237	141.883	-0.145	0.196
-540.223	-111.392	0.286	0.059
-539.208	-200.000	0.001	0.107
-538.193	-13.418	-0.151	0.100
-537.179	490.959	-0.156	-0.364
-536.164	264.443	-0.067	-0.119
-535.150	152.928	0.134	-0.187
-534.135	800.000	0.069	-0.200
-533.121	800.000	0.102	-0.288
-532.106	135.149	0.066	0.087
-531.091	221.444	0.205	0.336
-530.077	-158.894	0.350	-0.020
-529.062	332.431	-0.124	0.244
-528.048	-200.000	0.025	0.187
-527.033	-92.111	0.227	0.065
-526.018	-53.869	-0.193	-0.090
-525.004	82.173	-0.138	0.152
-523.989	-118.305	-0.170	-0.031
-522.975	41.597	0.108	0.099
-521.960	129.993	0.032	0.041
-520.945	-200.000	-0.011	-0.114
-519.931	800.000	0.040	-0.115
-518.916	-200.000	0.014	0.211
-517.902	208.681	-0.108	0.172
-516.887	4.357	-0.075	-0.056
-515.872	-165.184	-0.251	0.011
-514.858	-63.844	-0.202	0.084
-513.843	385.470	-0.092	0.193
-512.829	-200.000	0.013	0.329
-511.814	-200.000	0.007	-0.302
-510.799	92.895	-0.090	-0.103
-509.785	-200.000	0.026	0.168
-508.770	-178.661	-0.075	0.002
-507.756	-200.000	-0.008	0.201
-506.741	-11.692	-0.316	0.211
-505.726	-139.440	-0.244	0.027
-504.712	89.573	0.111	0.126
-503.697	-60.073	-0.013	-0.005
-502.683	-200.000	-0.041	0.193
-501.668	374.423	-0.030	0.063
-500.653	800.000	-0.066	0.221
-499.639	-107.698	-0.239	-0.053
-498.624	800.000	-0.109	-0.367
-497.610	800.000	-0.035	0.151
-496.595	-24.387	-0.100	0.061
-495.581	800.000	-0.028	0.096
-494.566	267.713	-0.065	0.115
-493.551	-75.185	-0.077	-0.028
-492.537	-0.224	-0.188	-0.136
-491.522	-178.439	0.409	0.010
-490.508	140.211	0.183	-0.245
-489.493	310.291	0.132	-0.251
-488.478	80.017	0.205	-0.224
-487.464	-98.785	-0.006	-0.002
-486.449	-62.042	0.186	0.079
-485.435	-98.772	0.073	0.019
-484.420	-200.000	-0.001	-0.101
-483.405	16.348	-0.107	0.086
-482.391	-36.154	-0.163	0.090
-481.376	48.000	-0.169	-0.161
-480.362	160.383	-0.195	0.277
-479.347	-200.000	0.003	-0.040
-478.332	-91.847	0.327	-0.094
-477.318	-155.694	0.336	-0.022
-476.303	762.944	-0.085	0.235
-475.289	-83.675	-0.125	0.041
-474.274	120.792	-0.153	-0.194
-473.259	800.000	0.058	0.200
-472.245	-56.644	-0.299	-0.135
-471.230	258.907	0.085	-0.149
-470.216	-19.955	-0.259	-0.162
-469.201	364.681	-0.047	-0.096
-468.186	800.000	-0.032	-0.130
-467.172	-200.000	-0.019	-0.452
-466.157	88.373	0.182	-0.206
-465.143	-200.000	-0.447	0.002
-464.128	-159.219	0.158	0.009
-463.113	-200.000	0.024	0.231
-462.099	-104.937	0.118	0.027
-461.084	-200.000	0.061	-0.319
-460.070	-149.655	-0.195	-0.016
-459.055	-43.858	0.407	-0.208
-458.040	800.000	-0.057	0.254
-457.026	-19.467	0.175	0.110
-456.011	-200.000	-0.001	0.222
-454.997	-200.000	0.028	0.181
-453.982	222.146	0.080	0.130
-452.968	404.791	0.052	-0.111
-451.953	-179.163	0.237	-0.005
-450.938	237.290	0.085	0.143
-449.924	-24.822	0.160	-0.096
-448.909	146.674	0.053	0.073
-447.895	0.419	0.295	-0.214
-446.880	51.420	0.152	-0.147
-445.865	-124.613	0.068	-0.011
-444.851	-84.306	0.102	0.033
-443.836	800.000	0.044	0.161
-442.822	-81.490	0.097	0.033
-441.807	-81.162	-0.061	0.021
-440.792	325.123	-0.149	-0.289
-439.778	144.028	0.183	-0.248
-438.763	-80.802	0.346	-0.117
-437.749	-200.000	-0.029	-0.139
-436.734	-91.913	0.061	0.018
-435.719	153.249	0.116	-0.160
-434.705	58.273	0.131	-0.130
-433.690	44.914	-0.276	-0.258
-432.676	-200.000	-0.001	-0.482
-431.661	272.980	0.117	0.209
-430.646	32.035	0.211	0.184
-429.632	-121.886	-0.235	0.039
-428.617	-70.771	-0.160	-0.061
-427.603	340.825	0.060	0.118
-426.588	5.444	0.079	-0.059
-425.573	642.359	-0.053	-0.136
-424.559	-200.000	-0.009	-0.053
-423.544	105.395	0.192	-0.230
-422.530	512.939	0.046	-0.108
-421.515	-14.646	0.260	-0.169
-420.500	21.076	0.030	-0.024
-419.486	213.254	0.247	0.396
-418.471	800.000	0.056	0.192
-417.457	58.774	-0.153	-0.153
-416.442	-150.172	-0.169	-0.013
-415.428	-58.455	0.101	-0.044
-414.413	123.339	0.095	-0.121
-413.398	49.947	-0.078	0.075
-412.384	800.000	-0.081	-0.243
-411.369	-200.000	-0.003	0.182
-410.355	462.664	0.127	0.286
-409.340	127.840	-0.199	0.257
-408.325	36.431	0.340	-0.304
-407.311	99.657	0.160	-0.187
-406.296	-74.018	-0.303	0.111
-405.282	-171.189	-0.062	-0.002
-404.267	217.928	-0.107	-0.174
-403.252	-63.325	-0.279	0.116
-402.238	482.570	-0.091	0.209
-401.223	-176.468	0.559	0.015
-400.209	-29.411	0.107	0.062
-399.194	224.097	0.142	0.233
-398.179	-112.608	0.043	0.009
-397.165	218.583	-0.191	-0.309
-396.150	-137.163	0.462	0.053
-395.136	-162.008	-0.169	-0.009
-394.121	-89.612	-0.192	0.057
-393.106	-16.577	-0.086	0.055
-392.092	82.110	-0.085	-0.093
-391.077	361.088	-0.070	0.143
-390.063	-140.610	0.259	0.027
-389.048	40.060	0.182	-0.166
-388.033	-114.185	0.036	-0.007
-387.019	-105.870	0.285	0.065
-386.004	-23.533	-0.119	-0.072
-384.990	-30.961	0.232	0.133
-383.975	-200.000	-0.010	0.165
-382.960	800.000	-0.136	-0.462
-381.946	43.200	0.130	0.120
-380.931	104.098	-0.168	0.200
-379.917	247.446	-0.184	-0.315
-378.902	14.729	-0.278	0.220
-377.888	793.267	0.025	-0.070
-376.873	60.912	-0.244	-0.245
-375.858	-200.000	0.026	0.128
-374.844	-200.000	-0.017	-0.280
-373.829	-200.000	-0.047	0.267
-372.815	-58.631	-0.199	0.087
-371.800	-191.600	-0.150	0.002
-370.785	-200.000	0.033	-0.208
-369.771	-28.280	0.263	-0.154
-368.756	-183.071	-0.213	0.004
-367.742	-50.421	0.093	0.045
-366.727	-183.305	-0.199	0.004
-365.712	133.210	-0.144	-0.188
-364.698	-178.943	-0.427	0.010
-363.683	-200.000	-0.011	0.139
-362.669	670.858	-0.082	-0.214
-361.654	-73.999	0.307	-0.113
-360.639	111.272	0.242	0.295
-359.625	186.403	-0.164	0.247
-358.610	-200.000	-0.062	-0.327
-357.596	-104.504	-0.091	0.021
-356.581	-138.557	-0.044	-0.005
-355.566	272.999	-0.085	0.152
-354.552	-127.352	0.242	-0.036
-353.537	77.818	0.195	-0.210
-352.523	181.820	-0.048	-0.072
-351.508	118.739	0.225	0.281
-350.493	-115.669	0.287	-0.054
-349.479	-45.932	-0.241	-0.121
-348.464	12.638	0.263	0.205
-347.450	-200.000	-0.011	0.106
-346.435	136.075	-0.147	0.194
-345.420	-128.018	-0.196	0.028
-344.406	800.000	-0.072	0.272
-343.391	800.000	0.018	-0.054
-342.377	-178.559	-0.285	0.007
-341.362	-67.794	-0.093	0.037
-340.348	152.850	-0.137	-0.190
-339.333	-200.000	-0.145	0.000
-338.318	341.827	-0.088	0.174
-337.304	37.113	0.285	0.255
-336.289	-160.503	-0.310	-0.017
-335.275	45.753	-0.228	-0.213
-334.260	-76.475	-0.254	-0.090
-333.245	-37.290	-0.079	0.042
-332.231	334.578	-0.024	0.046
-331.216	-20.926	-0.049	-0.030
-330.202	170.187	-0.152	0.220
-329.187	-200.000	0.054	0.333
-328.172	-4.686	0.082	0.057
-327.158	64.864	-0.077	0.079
-326.143	17.435	-0.043	0.034
-325.129	-39.427	0.093	-0.049
-324.114	-32.696	0.371	0.209
-323.099	-129.748	-0.357	0.050
-322.085	-98.404	0.272	0.070
-321.070	-126.751	-0.161	-0.024
-320.056	800.000	0.048	0.157
-319.041	-117.149	-0.306	0.056
-318.026	-200.000	0.022	-0.142
-317.012	-140.872	0.100	0.010
-315.997	-200.000	-0.031	0.203
-314.983	-88.384	0.130	-0.039
-313.968	800.000	0.031	0.113
-312.953	-175.155	-0.619	-0.017
-311.939	54.847	0.302	0.295
-310.924	-185.809	-0.120	0.002
-309.910	195.015	-0.059	0.090
-308.895	-200.000	-0.039	0.213
-307.880	14.420	0.188	0.148
-306.866	-155.479	-0.170	-0.011
-305.851	-133.684	0.057	0.007
-304.837	23.360	-0.025	0.021
-303.822	-53.363	-0.372	-0.172
-302.807	-7.793	-0.268	0.183
-301.793	-86.020	-0.089	0.028
-300.778	-152.033	-0.169	-0.012
-299.764	-127.726	-0.114	0.017
-298.749	800.000	0.062	0.180
-297.735	-62.598	-0.044	-0.019
-296.720	-126.351	-0.093	0.014
-295.705	-200.000	-0.002	0.378
-294.691	-96.208	0.230	-0.062
-293.676	-34.673	0.204	0.113
-292.662	-200.000	-0.008	0.046
-291.647	121.521	0.107	0.135
-290.632	-200.000	-0.049	-0.245
-289.618	73.714	0.123	0.130
-288.603	-200.000	0.008	0.080
-287.589	-29.465	0.199	-0.115
-286.574	2.752	-0.221	-0.161
-285.559	215.773	-0.090	0.144
-284.545	200.196	-0.219	-0.340
-283.530	-9.310	0.216	0.145
-282.516	-200.000	0.042	-0.317
-281.501	800.000	0.138	-0.419
-280.486	235.314	0.092	-0.153
-279.472	-35.603	-0.084	0.046
-278.457	497.808	-0.063	0.146
-277.443	123.031	-0.021	0.026
-276.428	-125.790	0.194	-0.030
-275.413	567.450	0.082	0.200
-274.399	-186.377	0.155	0.002
-273.384	180.447	0.104	-0.153
-272.370	-200.000	-0.022	0.232
-271.355	-155.833	0.136	-0.009
-270.340	-0.620	0.132	-0.094
-269.326	279.215	-0.115	-0.206
-268.311	220.643	0.151	-0.244
-267.297	-60.536	-0.104	-0.044
-266.282	215.817	0.022	-0.035
-265.267	-22.674	0.320	0.195
-264.253	36.302	-0.249	-0.221
-263.238	-79.242	0.412	-0.141
-262.224	-81.449	-0.170	0.056
-261.209	70.335	0.084	0.088
-260.195	-170.005	0.115	-0.004
-259.180	58.928	0.122	0.121
-258.165	800.000	-0.108	-0.326
-257.151	-200.000	0.069	0.306
-256.136	90.113	-0.189	-0.213
-255.122	80.315	0.173	-0.188
-254.107	-200.000	0.035	0.249
-253.092	-25.706	-0.195	0.116
-252.078	-200.000	0.003	-0.095
-251.063	-38.157	-0.204	-0.109
-250.049	94.223	-0.207	0.237
-249.034	660.424	-0.044	-0.115
-248.019	800.000	-0.050	-0.141
-247.005	-195.337	0.273	0.002
-245.990	15.382	0.035	0.027
-244.976	78.918	0.024	0.026
-243.961	-61.425	-0.291	-0.123
-242.946	278.655	0.033	0.059
-241.932	-200.000	-0.001	-0.068
-240.917	596.391	0.030	0.075
-239.903	-59.678	-0.191	-0.083
-238.888	800.000	0.105	-0.372
-237.873	595.926	-0.032	-0.080
-236.859	-104.505	0.236	0.055
-235.844	127.950	-0.134	0.172
-234.830	-200.000	-0.014	-0.338
-233.815	482.366	-0.067	-0.153
-232.800	-84.561	0.109	-0.035
-231.786	324.068	0.053	-0.101
-230.771	-200.000	0.026	-0.215
-229.757	-200.000	0.016	-0.226
-228.742	-93.080	0.048	-0.014
-227.727	31.125	0.117	-0.101
-226.713	26.752	0.126	-0.106
-225.698	107.572	-0.121	-0.145
-224.684	-25.971	-0.072	-0.043
-223.669	67.434	0.095	-0.098
-222.655	571.610	0.061	-0.151
-221.640	-59.792	0.145	-0.063
-220.625	-14.907	0.224	-0.144
-219.611	229.992	-0.103	0.170
-218.596	-200.000	-0.005	0.185
-217.582	-8.864	0.280	-0.189
-216.567	-61.897	-0.105	-0.044
-215.552	11.942	-0.174	0.134
-214.538	56.409	0.172	0.168
-213.523	192.474	-0.220	0.334
-212.509	-105.911	-0.129	0.029
-211.494	-49.777	-0.072	0.034
-210.479	-132.772	-0.092	-0.012
-209.465	-119.010	-0.179	0.032
-208.450	345.268	-0.130	-0.257
-207.436	-68.904	-0.172	0.067
-206.421	-200.000	-0.002	-0.018
-205.406	-200.000	0.019	0.273
-204.392	-50.729	-0.092	0.044
-203.377	525.873	-0.132	0.312
-202.363	-134.965	-0.239	-0.029
-201.348	-51.599	-0.128	0.060
-200.333	-88.252	0.100	0.030
-199.319	-41.016	-0.287	-0.149
-198.304	15.029	0.033	-0.026
-197.290	-200.000	0.002	0.268
-196.275	91.587	0.179	-0.202
-195.260	-4.432	0.258	-0.179
-194.246	61.443	0.014	-0.014
-193.231	290.161	-0.049	0.090
-192.217	182.071	-0.223	0.331
-191.202	12.746	0.316	-0.245
-190.187	-9.415	-0.282	-0.189
-189.173	74.827	0.217	0.229
-188.158	26.737	-0.088	-0.074
-187.144	363.053	0.108	0.218
-186.129	-152.857	-0.056	0.004
-185.114	-182.442	0.258	0.005
-184.100	-84.331	-0.256	-0.081
-183.085	-200.000	-0.019	-0.210
-182.071	40.817	0.180	0.163
-181.056	250.010	-0.123	-0.209
-180.042	9.542	0.262	0.199
-179.027	-121.819	-0.143	-0.024
-178.012	-38.905	-0.412	-0.218
-176.998	-200.000	0.019	0.091
-175.983	1.951	-0.312	-0.226
-174.969	320.839	0.082	0.157
-173.954	29.101	-0.176	0.150
-172.939	-87.766	0.291	0.088
-171.925	328.452	0.162	0.313
-170.910	170.350	0.197	-0.284
-169.896	-49.772	0.155	0.074
-168.881	-200.000	-0.021	0.292
-167.866	-51.842	-0.126	0.059
-166.852	49.145	-0.138	0.131
-165.837	-154.053	-0.110	0.008
-164.823	-5.299	0.125	0.086
-163.808	-151.626	-0.264	-0.020
-162.793	154.194	-0.082	0.113
-161.779	0.276	0.139	0.099
-160.764	179.592	-0.153	-0.225
-159.750	-172.508	0.176	0.006
-158.735	74.882	-0.180	0.191
-157.720	-200.000	-0.002	0.039
-156.706	166.726	0.043	-0.061
-155.691	-107.624	-0.109	0.024
-154.677	71.636	-0.053	0.056
-153.662	71.401	-0.121	0.126
-152.647	-9.551	0.218	0.146
-151.633	-114.744	-0.143	0.027
-150.618	98.113	-0.025	-0.029
-149.604	377.037	0.129	0.264
-148.589	-70.539	0.379	0.144
-147.574	-58.176	0.267	-0.117
-146.560	-200.000	0.034	0.229
-145.545	-161.080	-0.076	0.004
-144.531	22.474	-0.108	-0.089
-143.516	800.000	0.030	0.120
-142.502	-200.000	0.022	-0.195
-141.487	-86.021	0.252	0.078
-140.472	71.299	-0.149	-0.155
-139.458	-200.000	-0.079	0.393
-138.443	-39.777	-0.284	-0.149
-137.429	84.210	0.283	-0.311
-136.414	-200.000	-0.034	0.220
-135.399	-149.435	0.259	-0.021
-134.385	-138.743	-0.271	0.030
-133.370	436.540	-0.100	-0.218
-132.356	-161.035	-0.431	-0.023
-131.341	182.596	-0.103	-0.153
-130.326	-177.179	-0.183	-0.005
-129.312	-200.000	0.017	-0.429
-128.297	23.352	-0.091	-0.075
-127.283	-151.196	-0.278	0.021
-126.268	142.576	0.172	-0.229
-125.253	18.849	0.370	-0.297
-124.239	-200.000	-0.449	0.002
-123.224	-91.332	0.175	0.050
-122.210	193.946	-0.233	-0.354
-121.195	-143.577	-0.334	-0.032
-120.180	-151.640	-0.427	0.032
-119.166	-20.727	-0.178	-0.110
-118.151	800.000	-0.031	-0.115
-117.137	-2.631	-0.078	0.055
-116.122	-72.884	0.168	-0.062
-115.107	368.055	0.072	0.147
-114.093	239.197	-0.107	0.178
-113.078	-126.295	0.266	0.040
-112.064	-64.931	0.177	0.072
-111.049	-50.915	0.237	0.112
-110.034	-86.683	0.018	0.006
-109.020	725.729	-0.073	0.196
-108.005	-63.846	0.160	-0.066
-106.991	-82.044	-0.220	0.072
-105.976	-83.710	0.142	-0.045
-104.962	-63.086	0.247	0.102
-103.947	164.835	-0.105	-0.149
-102.932	-200.000	-0.020	-0.154
-101.918	152.225	0.275	-0.376
-100.903	-110.140	0.251	0.052
-99.889	179.204	0.317	-0.464
-98.874	800.000	-0.039	-0.160
-97.859	221.277	-0.077	0.123
-96.845	5.991	-0.261	0.194
-95.830	-45.247	-0.290	0.144
-94.816	24.056	-0.112	-0.093
-93.801	-200.000	0.007	0.150
-92.786	-200.000	0.020	0.186
-91.772	-200.000	0.034	-0.289
-90.757	-34.332	0.354	-0.194
-89.743	123.100	0.124	0.155
-88.728	-161.301	-0.380	-0.020
-87.713	99.937	-0.077	-0.089
-86.699	78.561	0.065	0.069
-85.684	-197.119	-0.028	0.000
-84.670	598.649	-0.061	0.150
-83.655	132.869	0.110	0.142
-82.640	392.263	0.099	-0.206
-81.626	800.000	-0.038	0.130
-80.611	158.658	-0.085	0.118
-79.597	-101.353	0.233	-0.057
-78.582	47.919	0.215	0.201
-77.567	227.417	0.060	0.097
-76.553	-200.000	-0.061	0.316
-75.538	72.459	0.223	0.232
-74.524	11.841	0.345	0.265
-73.509	275.784	-0.084	0.149
-72.494	-200.000	-0.056	-0.276
-71.480	-200.000	-0.070	-0.383
-70.465	7.121	0.191	-0.142
-69.451	-97.327	-0.220	-0.057
-68.436	-14.768	-0.227	-0.146
-67.422	800.000	0.131	-0.417
-66.407	-9.185	-0.175	0.117
-65.392	165.645	-0.040	-0.057
-64.378	546.933	0.117	0.281
-63.363	-0.666	0.238	0.169
-62.349	67.508	0.200	0.205
-61.334	32.585	-0.760	-0.657
-60.319	95.664	0.389	0.444
-59.305	-200.000	0.087	-0.528
-58.290	309.540	0.350	0.655
-57.276	596.697	0.664	1.645
-56.261	-200.000	71.118	524.395
-55.246	605.402	1268.066	3158.133
-54.232	145.885	2494.215	3343.585
-53.217	114.772	2342.512	2855.582
-52.203	53.941	1961.593	1884.901
-51.188	47.674	1748.622	1631.123
-50.173	44.488	1701.588	1562.758
-49.159	58.106	1731.947	1696.077
-48.144	64.811	1750.944	1766.338
-47.130	47.405	1715.553	1597.945
-46.115	44.056	1701.711	1559.301
-45.100	43.880	1697.471	1554.001
-44.086	43.769	1695.024	1550.847
-43.071	43.758	1692.190	1548.114
-42.057	43.878	1689.019	1546.063
-41.042	43.856	1687.895	1544.808
-40.027	43.884	1685.636	1542.893
-39.013	43.835	1683.458	1540.464
-37.998	43.820	1681.700	1538.681
-36.984	43.926	1680.408	1538.243
-35.969	44.099	1678.558	1537.798
-34.954	44.107	1676.984	1536.354
-33.940	43.981	1675.112	1533.628
-32.925	43.999	1673.280	1532.025
-31.911	43.994	1671.564	1530.356
-30.896	43.981	1669.761	1528.542
-29.881	43.964	1668.643	1527.335
-28.867	43.920	1666.995	1525.435
-27.852	43.937	1665.370	1524.013
-26.838	44.032	1663.507	1522.963
-25.823	44.011	1662.244	1521.591
-24.809	44.006	1660.630	1520.015
-23.794	43.989	1659.881	1519.136
-22.779	44.014	1658.363	1517.877
-21.765	44.053	1656.101	1516.039
-20.750	44.012	1654.048	1513.791
-19.736	44.007	1652.791	1512.543
-18.721	43.978	1651.714	1511.285
-17.706	44.038	1649.801	1509.916
-16.692	43.880	1648.570	1507.556
-15.677	43.994	1646.725	1506.656
-14.663	44.036	1645.343	1505.644
-13.648	44.130	1643.731	1504.811
-12.633	44.013	1642.744	1502.976
-11.619	44.111	1640.585	1501.667
-10.604	44.062	1639.288	1500.061
-9.590	44.090	1637.982	1499.007
-8.575	44.130	1636.528	1497.913
-7.560	44.036	1635.276	1496.016
-6.546	44.043	1634.854	1495.622
-5.531	44.048	1633.354	1494.226
-4.517	43.959	1632.223	1492.475
-3.502	44.087	1630.474	1491.760
-2.487	44.103	1629.394	1490.834
-1.473	44.109	1617.955	1480.354
-0.458	41.567	1597.583	1443.303
0.556	36.601	1594.471	1403.661
1.571	33.381	1618.287	1400.733
2.586	32.381	1632.097	1405.098
3.600	28.422	1578.232	1329.942
4.615	15.483	1457.527	1140.791
5.629	3.622	1380.443	1003.622
6.644	1.320	1369.608	980.800
7.659	1.143	1368.051	978.457
8.673	1.070	1367.204	977.293
9.688	0.957	1365.996	975.616
10.702	0.689	1363.068	971.713
11.717	4.836	1371.206	1004.215
12.731	16.063	1392.444	1092.841
13.746	23.952	1405.622	1154.501
14.761	24.911	1406.170	1161.068
15.775	24.879	1406.238	1160.819
16.790	24.986	1405.793	1161.039
17.804	25.022	1404.549	1160.146
18.819	25.285	1404.505	1161.707
19.834	25.258	1403.518	1160.616
20.848	25.271	1403.277	1160.393
21.863	25.387	1401.694	1159.733
22.877	25.320	1401.247	1158.824
23.892	25.255	1400.021	1157.293
24.907	25.271	1399.819	1157.128
25.921	25.305	1398.778	1156.384
26.936	25.282	1397.857	1155.371
27.950	25.335	1396.281	1154.308
28.965	25.290	1395.246	1153.057
29.980	25.312	1393.909	1151.991
30.994	25.266	1392.349	1150.308
32.009	25.369	1391.650	1150.288
33.023	25.232	1390.741	1148.556
34.038	25.215	1389.561	1147.374
35.053	25.276	1388.368	1146.677
36.067	25.348	1387.282	1146.138
37.082	25.361	1386.365	1145.364
38.096	25.268	1385.462	1143.921
39.111	25.293	1384.799	1143.431
40.126	25.138	1384.630	1142.204
41.140	25.244	1383.361	1141.728
42.155	25.280	1382.747	1141.353
43.169	25.294	1383.390	1141.871
44.184	25.263	1382.964	1141.223
45.199	25.274	1382.010	1140.401
46.213	25.326	1381.856	1140.508
47.228	25.340	1380.696	1139.538
48.242	25.364	1379.743	1138.799
49.257	25.364	1378.306	1137.516
50.271	25.263	1376.806	1135.539
51.286	25.361	1375.327	1134.835
52.301	25.224	1374.328	1133.043
53.315	25.333	1372.953	1132.497
54.330	25.341	1372.312	1131.921
55.344	25.306	1371.223	1130.700
56.359	25.288	1370.324	1129.746
57.374	25.234	1369.786	1128.863
58.388	25.226	1369.498	1128.474
59.403	25.223	1368.669	1127.672
60.417	25.268	1368.086	1127.376
61.432	25.239	1367.147	1126.319
62.447	25.248	1366.488	1125.734
63.461	25.303	1364.800	1124.590
64.476	25.275	1364.030	1123.682
65.490	25.293	1362.709	1122.602
66.505	25.258	1361.606	1121.379
67.520	25.229	1360.040	1119.811
68.534	25.296	1358.941	1119.221
69.549	25.340	1358.163	1118.755
70.563	25.220	1357.267	1117.172
71.578	25.335	1356.286	1116.981
72.593	25.297	1355.609	1116.089
73.607	25.268	1355.040	1115.338
74.622	25.398	1353.936	1115.141
75.636	25.261	1353.220	1113.602
76.651	25.309	1352.016	1112.811
77.666	25.307	1352.075	1112.751
78.680	25.296	1351.569	1112.163
79.695	25.314	1350.913	1111.639
80.709	25.395	1349.454	1110.842
81.724	25.392	1348.545	1109.974
82.739	25.333	1347.731	1108.843
83.753	25.273	1347.239	1107.970
84.768	25.302	1346.261	1107.245
85.782	25.324	1345.068	1106.304
86.797	25.326	1343.664	1105.063
87.812	25.435	1342.209	1104.440
88.826	25.434	1341.038	1103.373
89.841	25.415	1340.316	1102.561
90.855	25.354	1339.576	1101.480
91.870	25.403	1338.456	1100.762
92.884	25.434	1337.625	1100.172
93.899	25.335	1337.081	1099.020
94.914	25.414	1336.161	1098.652
95.928	25.389	1335.523	1097.875
96.943	25.336	1334.667	1096.751
97.957	25.414	1333.777	1096.399
98.972	25.480	1332.568	1095.713
99.987	25.354	1331.814	1094.227
101.001	25.336	1331.154	1093.477
102.016	25.448	1330.042	1093.147
103.030	25.358	1329.730	1092.250
104.045	25.384	1328.608	1091.389
105.060	25.362	1328.193	1090.818
106.074	25.356	1326.738	1089.487
107.089	25.477	1325.576	1089.171
108.103	25.410	1324.725	1087.969
109.118	25.474	1323.439	1087.208
110.133	25.488	1322.507	1086.431
111.147	25.480	1320.966	1085.017
112.162	25.498	1320.249	1084.446
113.176	25.317	1319.654	1082.764
114.191	25.382	1318.250	1081.911
115.206	25.502	1317.000	1081.513
116.220	25.376	1316.538	1080.276
117.235	25.438	1315.202	1079.457
118.249	25.487	1314.201	1078.835
119.264	25.437	1313.290	1077.690
120.279	25.516	1312.491	1077.417
121.293	25.480	1312.026	1076.724
122.308	25.493	1310.941	1075.816
123.322	25.570	1310.350	1075.698
124.337	25.488	1309.366	1074.304
125.352	25.511	1308.443	1073.587
126.366	25.471	1307.766	1072.697
127.381	25.511	1306.531	1071.829
128.395	25.475	1306.084	1071.153
129.410	25.483	1305.273	1070.437
130.424	25.438	1304.513	1069.457
131.439	25.511	1303.400	1068.883
132.454	25.506	1303.033	1068.458
133.468	25.457	1302.166	1067.358
134.483	25.510	1302.377	1067.754
135.497	25.573	1300.851	1066.779
136.512	25.619	1299.761	1066.064
137.527	25.521	1299.063	1064.816
138.541	25.569	1297.469	1063.699
139.556	25.541	1296.166	1062.374
140.570	25.502	1295.611	1061.594
141.585	25.515	1294.384	1060.569
142.600	25.624	1293.233	1060.176
143.614	25.408	1292.829	1058.480
144.629	25.502	1291.316	1057.698
145.643	25.530	1290.369	1056.997
146.658	25.477	1289.212	1055.641
147.673	25.394	1288.333	1054.342
148.687	25.372	1287.593	1053.514
149.702	25.428	1286.314	1052.704
150.716	25.526	1284.544	1051.734
151.731	25.433	1284.058	1050.699
152.746	25.468	1282.700	1049.698
153.760	25.509	1281.974	1049.250
154.775	25.447	1281.177	1048.147
155.789	25.461	1280.046	1047.210
156.804	25.450	1279.355	1046.490
157.819	25.513	1278.233	1045.841
158.833	25.500	1277.376	1044.976
159.848	25.493	1276.677	1044.267
160.862	25.480	1276.154	1043.671
161.877	25.529	1275.378	1043.231
162.892	25.515	1274.259	1042.143
163.906	25.591	1273.241	1041.659
164.921	25.564	1272.846	1041.084
165.935	25.524	1272.365	1040.368
166.950	25.609	1271.526	1040.085
167.964	25.628	1270.981	1039.653
168.979	25.509	1270.695	1038.639
169.994	25.586	1269.365	1037.905
171.008	25.566	1269.227	1037.588
172.023	25.611	1268.058	1036.796
173.037	25.548	1267.559	1035.932
174.052	25.569	1266.940	1035.457
175.067	25.597	1265.767	1034.569
176.081	25.512	1265.238	1033.558
177.096	25.552	1264.216	1032.858
178.110	25.603	1263.520	1032.493
179.125	25.564	1262.713	1031.519
180.140	25.583	1261.652	1030.671
181.154	25.506	1260.561	1029.245
182.169	25.667	1258.922	1028.737
183.183	25.590	1258.216	1027.631
184.198	25.651	1257.185	1027.046
185.213	25.623	1256.174	1025.970
186.227	25.723	1255.505	1025.900
187.242	25.714	1254.595	1025.016
188.256	25.663	1254.273	1024.369
189.271	25.611	1253.163	1023.080
190.286	25.678	1252.309	1022.671
191.300	25.701	1251.682	1022.202
192.315	25.697	1250.938	1021.479
193.329	25.693	1250.630	1021.113
194.344	25.587	1250.793	1020.554
195.359	25.736	1250.088	1020.735
196.373	25.580	1249.662	1019.412
197.388	25.610	1248.725	1018.726
198.402	25.612	1248.637	1018.580
199.417	25.695	1248.255	1018.642
200.432	25.658	1247.554	1017.773
201.446	25.706	1247.028	1017.528
202.461	25.674	1246.049	1016.454
203.475	25.703	1245.367	1015.974
204.490	25.646	1244.307	1014.698
205.504	25.644	1243.651	1014.062
206.519	25.679	1242.512	1013.239
207.534	25.874	1241.181	1013.159
208.548	25.728	1240.566	1011.750
209.563	25.758	1239.747	1011.159
210.577	25.802	1238.967	1010.680
211.592	25.735	1238.122	1009.526
212.607	25.846	1237.554	1009.597
213.621	25.784	1236.644	1008.416
214.636	25.877	1235.616	1008.009
215.650	25.800	1234.965	1006.957
216.665	25.765	1233.752	1005.687
217.680	25.823	1233.163	1005.442
218.694	25.763	1232.699	1004.637
219.709	25.842	1231.701	1004.174
220.723	25.749	1231.046	1003.035
221.738	25.755	1230.498	1002.532
222.753	25.663	1229.680	1001.265
223.767	25.802	1228.974	1001.374
224.782	25.846	1228.942	1001.506
225.796	25.814	1227.853	1000.355
226.811	25.898	1227.122	1000.136
227.826	25.863	1226.687	999.499
228.840	25.928	1226.146	999.330
229.855	25.853	1225.439	998.246
230.869	25.876	1224.639	997.636
231.884	25.899	1223.576	996.809
232.899	25.904	1222.960	996.245
233.913	25.822	1222.860	995.626
234.928	25.889	1222.378	995.510
235.942	25.917	1221.638	994.976
236.957	26.010	1220.506	994.480
237.972	25.958	1219.943	993.646
238.986	25.954	1219.528	993.196
240.001	26.056	1218.724	993.015
241.015	26.062	1217.790	992.204
242.030	25.993	1217.361	991.386
243.045	26.046	1216.960	991.262
244.059	25.952	1215.785	989.703
245.074	26.050	1214.844	989.386
246.088	26.052	1214.207	988.788
247.103	26.104	1213.006	988.010
248.117	26.015	1212.721	987.204
249.132	26.085	1211.894	986.824
250.147	26.151	1210.950	986.329
251.161	26.179	1210.073	985.677
252.176	26.073	1209.933	984.902
253.190	26.051	1209.586	984.413
254.205	26.088	1208.610	983.729
255.220	26.211	1207.713	983.582
256.234	26.140	1207.568	982.992
257.249	26.133	1206.797	982.238
258.263	26.283	1205.669	982.049
259.278	26.247	1205.470	981.605
260.293	26.163	1205.212	980.850
261.307	26.269	1204.167	980.488
262.322	26.261	1203.594	979.893
263.336	26.159	1203.620	979.271
264.351	26.161	1202.593	978.365
265.366	26.292	1201.825	978.360
266.380	26.254	1201.510	977.811
267.395	26.250	1200.618	976.980
268.409	26.146	1200.255	976.036
269.424	26.175	1199.669	975.628
270.439	26.196	1199.114	975.201
271.453	26.143	1198.691	974.489
272.468	26.193	1197.708	973.873
273.482	26.194	1196.862	973.104
274.497	26.223	1196.623	972.977
275.512	26.400	1195.609	973.020
276.526	26.228	1195.170	971.649
277.541	26.207	1194.511	970.915
278.555	26.229	1194.275	970.755
279.570	26.332	1193.248	970.391
280.585	26.321	1192.636	969.749
281.599	26.300	1191.447	968.580
282.614	26.259	1190.688	967.657
283.628	26.249	1189.816	966.814
284.643	26.344	1188.868	966.464
285.657	26.302	1187.964	965.417
286.672	26.332	1186.958	964.675
287.687	26.423	1186.446	964.658
288.701	26.456	1185.809	964.233
289.716	26.584	1184.563	963.815
290.730	26.415	1184.561	962.832
291.745	26.484	1183.590	962.322
292.760	26.501	1183.239	962.042
293.774	26.473	1182.666	961.341
294.789	26.450	1182.333	960.862
295.803	26.548	1181.519	960.636
296.818	26.366	1180.770	958.981
297.833	26.474	1180.277	959.068
298.847	26.556	1179.306	958.628
299.862	26.618	1178.161	957.937
300.876	26.529	1177.823	957.106
301.891	26.567	1177.654	957.089
302.906	26.675	1176.641	956.752
303.920	26.548	1176.244	955.671
304.935	26.597	1175.407	955.166
305.949	26.684	1174.362	954.688
306.964	26.683	1173.989	954.295
307.979	26.611	1173.250	953.231
308.993	26.625	1172.751	952.816
310.008	26.687	1171.844	952.322
311.022	26.623	1171.551	951.665
312.037	26.643	1170.311	950.678
313.052	26.669	1169.640	950.182
314.066	26.568	1169.021	949.069
315.081	26.604	1168.477	948.730
316.095	26.679	1167.576	948.307
317.110	26.649	1166.924	947.539
318.125	26.629	1166.442	946.959
319.139	26.751	1165.466	946.717
320.154	26.802	1164.928	946.466
321.168	26.710	1164.559	945.597
322.183	26.760	1164.275	945.547
323.197	26.757	1163.527	944.839
324.212	26.632	1162.911	943.603
325.227	26.711	1162.416	943.531
326.241	26.794	1162.130	943.647
327.256	26.792	1161.024	942.658
328.270	26.694	1160.370	941.532
329.285	26.873	1159.518	941.686
330.300	26.700	1158.718	940.057
331.314	26.851	1157.929	940.115
332.329	26.902	1156.798	939.378
333.343	26.894	1156.053	938.647
334.358	26.950	1155.483	938.391
335.373	26.904	1154.843	937.549
336.387	26.856	1154.134	936.646
337.402	26.877	1153.632	936.266
338.416	26.920	1152.714	935.658
339.431	26.906	1152.279	935.151
340.446	26.944	1151.532	934.658
341.460	27.057	1150.837	934.590
342.475	27.052	1150.143	933.921
343.489	26.998	1149.689	933.190
344.504	27.120	1148.298	932.604
345.519	27.002	1147.317	931.122
346.533	27.062	1146.536	930.709
347.548	26.997	1145.880	929.765
348.562	26.973	1145.334	929.118
349.577	27.036	1144.692	928.836
350.592	26.941	1144.013	927.716
351.606	26.922	1143.252	926.919
352.621	26.999	1142.788	926.856
353.635	27.065	1142.195	926.627
354.650	27.098	1141.522	926.169
355.665	27.085	1140.497	925.189
356.679	27.131	1140.104	925.022
357.694	27.151	1139.494	924.546
358.708	27.140	1138.936	923.958
359.723	27.223	1138.042	923.571
360.738	27.153	1137.499	922.692
361.752	27.126	1137.287	922.303
362.767	27.143	1137.008	922.080
363.781	27.321	1135.658	921.808
364.796	27.295	1135.291	921.298
365.810	27.234	1134.904	920.593
366.825	27.166	1134.477	919.820
367.840	27.363	1133.715	920.116
368.854	27.313	1133.080	919.268
369.869	27.286	1132.193	918.330
370.883	27.192	1131.985	917.606
371.898	27.387	1130.698	917.465
372.913	27.247	1130.546	916.555
373.927	27.383	1129.848	916.591
374.942	27.369	1129.316	916.007
375.956	27.327	1129.099	915.539
376.971	27.369	1128.273	914.998
377.986	27.391	1127.693	914.559
379.000	27.488	1127.049	914.443
380.015	27.446	1126.741	913.899
381.029	27.474	1125.968	913.334
382.044	27.421	1125.105	912.289
383.059	27.489	1124.534	912.085
384.073	27.479	1123.926	911.462
385.088	27.407	1123.436	910.620
386.102	27.567	1122.451	910.544
387.117	27.560	1120.863	909.138
388.132	27.423	1120.370	907.978
389.146	27.432	1119.922	907.578
390.161	27.406	1119.332	906.891
391.175	27.496	1118.492	906.578
392.190	27.528	1118.001	906.257
393.205	27.503	1117.314	905.496
394.219	27.522	1116.489	904.843
395.234	27.568	1115.687	904.340
396.248	27.588	1114.922	903.737
397.263	27.659	1113.953	903.225
398.278	27.690	1113.442	902.885
399.292	27.735	1113.008	902.677
400.307	27.688	1112.480	901.937
401.321	27.647	1111.628	900.959
402.336	27.690	1111.087	900.657
403.350	27.705	1110.281	899.997
404.365	27.678	1109.829	899.417
405.380	27.704	1109.432	899.146
406.394	27.856	1108.180	898.798
407.409	27.673	1107.683	897.415
408.423	27.752	1106.961	897.138
409.438	27.834	1106.114	896.778
410.453	27.751	1105.494	895.788
411.467	27.778	1104.723	895.216
412.482	27.815	1104.244	894.931
413.496	27.841	1103.361	894.264
414.511	27.808	1102.760	893.533
415.526	27.732	1102.770	893.092
416.540	27.747	1102.299	892.704
417.555	27.782	1101.868	892.447
418.569	27.771	1101.219	891.788
419.584	27.903	1100.511	891.783
420.599	27.973	1099.872	891.524
421.613	75.366	1277.480	1295.475
422.628	70.572	1303.370	1295.626
