DTS Sentinel unit serial number:	SN413079Multiplexer serial number:	ORYXHardware model number:	OX4-SRSoftware version number:	ORYX F/W v4.00 Oryx Data Collector v3.7.2.0data status	okinstallation	princeton_trtdifferential loss correction	single-endedforward channel	channel 2reverse channel	N/Adate	2019/09/15time	11:59:35forward acquisition time	60.00reverse acquisition time	0.00gamma	496.2192k internal	0.2315k external	0.2315temperature offset calibration	1.0019default loss term (dB/km)	0.3790temperature slope calibration	1.0000multiplexer offset coefficient	1.0000multiplexer slope coefficient	1.0000fibre end	0.00T internal ref (°C)	34.42T ext. ref 1 (°C)	5.07T ext. ref 2 (°C)	30.24length (m)	temperature (°C)	Stokes	anti-Stokes-747.200	-200.000	-0.062	-0.336
-746.185	286.975	-0.132	0.241
-745.171	-23.580	-0.048	-0.029
-744.156	437.842	-0.192	0.425
-743.142	666.432	-0.036	-0.094
-742.127	-200.000	0.023	0.113
-741.112	800.000	0.058	0.223
-740.098	800.000	-0.092	0.278
-739.083	449.372	-0.260	-0.580
-738.069	-200.000	-0.025	0.118
-737.054	-200.000	0.001	0.110
-736.039	1.742	-0.146	-0.107
-735.025	288.711	-0.048	-0.089
-734.010	759.713	-0.094	-0.259
-732.996	197.312	-0.154	0.238
-731.981	75.074	-0.125	-0.134
-730.966	-53.720	-0.370	0.171
-729.952	-91.548	-0.415	0.120
-728.937	-188.217	0.230	-0.003
-727.923	-200.000	0.052	-0.253
-726.908	-74.190	-0.100	0.037
-725.894	73.658	0.185	0.196
-724.879	696.007	0.031	0.083
-723.864	-73.165	-0.131	0.048
-722.850	-84.354	-0.281	0.090
-721.835	26.520	0.386	0.327
-720.821	-36.953	-0.232	0.126
-719.806	55.137	0.082	0.081
-718.791	32.104	0.126	-0.110
-717.777	-200.000	-0.010	0.257
-716.762	-20.752	-0.243	0.151
-715.748	138.961	0.078	0.104
-714.733	57.546	0.175	-0.173
-713.718	-110.253	-0.263	0.055
-712.704	695.883	-0.005	0.012
-711.689	-93.518	-0.254	-0.071
-710.675	254.633	-0.083	0.144
-709.660	68.135	0.188	-0.195
-708.645	34.814	0.195	-0.172
-707.631	-108.266	-0.151	0.033
-706.616	263.022	-0.046	-0.080
-705.602	312.547	-0.049	0.093
-704.587	-200.000	0.070	-0.375
-703.572	149.060	0.143	-0.196
-702.558	44.718	-0.287	-0.267
-701.543	-167.398	0.311	-0.013
-700.529	479.189	-0.108	-0.247
-699.514	-113.677	0.093	0.018
-698.499	-62.251	0.224	0.095
-697.485	108.683	-0.324	-0.391
-696.470	-200.000	-0.007	-0.108
-695.456	-43.874	-0.268	-0.136
-694.441	-200.000	0.008	0.059
-693.426	-200.000	0.012	-0.138
-692.412	90.818	0.092	0.105
-691.397	-19.036	-0.138	-0.087
-690.383	111.140	-0.100	-0.121
-689.368	48.155	0.117	0.111
-688.354	-94.075	0.132	0.037
-687.339	-27.659	-0.313	0.184
-686.324	-167.644	-0.399	0.016
-685.310	-200.000	0.028	0.184
-684.295	-25.533	-0.199	-0.119
-683.281	-53.832	-0.303	0.140
-682.266	-200.000	0.063	0.285
-681.251	-52.653	0.123	0.057
-680.237	81.274	0.121	-0.132
-679.222	76.813	0.075	-0.080
-678.208	-5.964	0.157	-0.108
-677.193	-26.412	-0.272	-0.161
-676.178	495.670	-0.039	0.091
-675.164	-200.000	0.001	-0.054
-674.149	756.169	0.110	0.300
-673.135	146.634	-0.058	0.078
-672.120	543.721	0.113	-0.272
-671.105	170.469	-0.101	-0.146
-670.091	-109.343	-0.176	-0.038
-669.076	48.232	-0.114	-0.108
-668.062	95.319	-0.144	-0.165
-667.047	34.454	0.172	0.152
-666.032	766.265	0.097	-0.267
-665.018	-19.328	0.270	0.169
-664.003	-200.000	-0.000	-0.030
-662.989	-150.597	-0.114	-0.009
-661.974	475.182	-0.022	-0.051
-660.959	-122.915	-0.381	0.062
-659.945	70.200	0.252	0.263
-658.930	-132.838	-0.097	-0.013
-657.916	-83.975	-0.250	-0.080
-656.901	-116.001	0.068	0.013
-655.886	-170.915	0.155	0.005
-654.872	111.984	0.138	0.168
-653.857	154.426	-0.202	-0.280
-652.843	-29.460	-0.111	-0.064
-651.828	-200.000	0.007	-0.089
-650.814	-123.103	0.072	0.012
-649.799	-200.000	-0.053	-0.272
-648.784	-138.810	0.242	0.027
-647.770	73.461	-0.129	-0.137
-646.755	-134.008	-0.201	-0.025
-645.741	12.435	0.104	-0.081
-644.726	-200.000	-0.000	0.021
-643.711	21.699	-0.190	0.156
-642.697	279.164	0.173	-0.311
-641.682	344.470	0.087	0.171
-640.668	800.000	-0.112	0.339
-639.653	70.812	-0.065	0.068
-638.638	-38.118	-0.130	-0.070
-637.624	73.287	-0.058	-0.061
-636.609	300.081	-0.046	-0.086
-635.595	-165.575	-0.193	0.008
-634.580	1.118	0.157	-0.114
-633.565	436.843	-0.064	0.141
-632.551	-192.142	-0.087	0.001
-631.536	800.000	-0.097	-0.322
-630.522	-4.263	0.253	0.177
-629.507	-133.747	-0.223	0.028
-628.492	136.624	-0.215	-0.283
-627.478	38.549	-0.182	-0.164
-626.463	-98.531	0.086	0.022
-625.449	-200.000	-0.047	-0.221
-624.434	469.032	0.100	0.228
-623.419	-200.000	-0.019	-0.161
-622.405	100.672	-0.184	-0.215
-621.390	-164.540	-0.343	0.016
-620.376	167.744	0.184	0.263
-619.361	-107.630	0.279	0.062
-618.346	-200.000	0.025	0.248
-617.332	738.008	0.087	-0.234
-616.317	89.803	-0.151	-0.170
-615.303	-108.658	0.190	0.041
-614.288	50.248	-0.278	-0.264
-613.273	-39.738	0.140	0.074
-612.259	-133.904	0.196	-0.025
-611.244	-200.000	0.012	0.256
-610.230	-60.989	0.242	-0.103
-609.215	-136.613	0.182	-0.021
-608.201	54.208	-0.177	0.171
-607.186	-37.333	0.256	-0.138
-606.171	-200.000	-0.044	-0.272
-605.157	662.624	-0.071	0.185
-604.142	-40.392	0.424	-0.222
-603.128	-18.111	0.262	-0.165
-602.113	800.000	-0.120	0.476
-601.098	-77.390	-0.213	0.074
-600.084	376.500	-0.125	0.256
-599.069	-200.000	-0.006	0.149
-598.055	-34.680	0.102	-0.056
-597.040	72.594	-0.098	-0.103
-596.025	-61.833	-0.141	0.060
-595.011	10.972	-0.052	-0.040
-593.996	-103.497	0.160	-0.038
-592.982	-200.000	0.030	-0.309
-591.967	-200.000	0.023	-0.176
-590.952	800.000	0.013	-0.054
-589.938	106.537	-0.261	-0.311
-588.923	800.000	-0.027	0.109
-587.909	800.000	-0.031	-0.128
-586.894	-200.000	-0.011	0.358
-585.879	258.927	-0.073	-0.127
-584.865	-72.053	0.107	0.040
-583.850	159.565	0.255	0.357
-582.836	-97.071	0.147	0.039
-581.821	260.448	0.176	0.306
-580.806	-200.000	-0.002	-0.096
-579.792	-101.846	-0.219	-0.053
-578.777	-112.170	-0.072	-0.015
-577.763	14.955	-0.117	-0.092
-576.748	720.718	-0.180	-0.482
-575.733	-89.247	-0.289	-0.086
-574.719	-200.000	0.024	0.274
-573.704	-142.542	-0.372	0.037
-572.690	-200.000	-0.029	-0.269
-571.675	176.093	-0.234	-0.341
-570.661	-200.000	0.032	-0.216
-569.646	-200.000	-0.013	0.192
-568.631	-40.244	-0.254	-0.133
-567.617	-63.579	0.165	0.068
-566.602	-200.000	-0.016	-0.188
-565.588	-168.536	-0.350	0.013
-564.573	-46.116	-0.239	0.119
-563.558	710.274	-0.062	0.166
-562.544	738.899	0.098	0.263
-561.529	82.885	-0.057	-0.062
-560.515	-200.000	-0.009	0.160
-559.500	267.203	-0.090	-0.158
-558.485	379.021	-0.091	0.187
-557.471	-120.153	-0.278	0.048
-556.456	800.000	-0.024	-0.093
-555.442	-200.000	-0.038	-0.266
-554.427	-61.924	-0.368	-0.155
-553.412	40.231	0.076	0.069
-552.398	160.212	-0.117	0.164
-551.383	6.399	-0.051	0.038
-550.369	-44.395	-0.351	0.177
-549.354	-200.000	0.018	0.173
-548.339	800.000	-0.066	0.272
-547.325	-200.000	0.014	0.415
-546.310	-190.625	-0.082	-0.001
-545.296	60.512	0.244	0.243
-544.281	-74.849	-0.150	-0.054
-543.266	-36.182	-0.092	0.050
-542.252	332.063	-0.029	-0.056
-541.237	800.000	-0.093	-0.267
-540.223	-32.059	-0.063	0.035
-539.208	-3.558	-0.253	0.177
-538.193	-15.820	0.344	-0.220
-537.179	-200.000	0.060	0.272
-536.164	-37.935	0.057	0.031
-535.150	79.059	-0.153	-0.165
-534.135	-83.995	0.128	0.041
-533.121	392.109	0.103	0.214
-532.106	-200.000	0.007	-0.361
-531.091	-91.025	-0.042	0.012
-530.077	-101.633	-0.383	-0.094
-529.062	591.666	-0.090	0.223
-528.048	-40.323	-0.118	0.062
-527.033	422.084	0.047	0.101
-526.018	230.250	-0.070	-0.114
-525.004	-153.941	-0.270	0.018
-523.989	-200.000	0.006	-0.130
-522.975	556.726	0.078	0.188
-521.960	-200.000	0.005	-0.091
-520.945	13.922	0.170	-0.133
-519.931	-200.000	0.054	-0.264
-518.916	-200.000	-0.015	0.498
-517.902	-84.358	-0.086	0.027
-516.887	353.653	0.150	-0.298
-515.872	-24.462	-0.111	-0.066
-514.858	529.052	0.055	0.130
-513.843	11.806	0.124	-0.096
-512.829	-200.000	0.030	0.343
-511.814	-84.139	-0.316	0.101
-510.799	-54.490	-0.115	0.052
-509.785	800.000	0.055	-0.158
-508.770	30.022	0.084	-0.072
-507.756	381.909	-0.136	-0.281
-506.741	85.621	-0.174	-0.191
-505.726	137.261	0.160	0.210
-504.712	-82.657	0.155	-0.050
-503.697	-116.013	-0.129	-0.024
-502.683	1.311	-0.146	-0.105
-501.668	800.000	0.043	0.175
-500.653	112.125	0.177	0.214
-499.639	-200.000	-0.029	0.152
-498.624	30.847	-0.116	-0.100
-497.610	-91.921	-0.315	-0.090
-496.595	-200.000	-0.001	0.105
-495.581	171.309	0.120	-0.173
-494.566	-131.193	-0.133	0.018
-493.551	95.560	0.134	0.153
-492.537	77.598	0.060	-0.064
-491.522	-200.000	0.060	-0.267
-490.508	57.908	0.149	0.146
-489.493	-81.202	-0.260	0.086
-488.478	800.000	-0.018	-0.058
-487.464	-200.000	0.052	0.255
-486.449	165.625	0.091	-0.128
-485.435	128.457	0.092	-0.118
-484.420	800.000	-0.022	0.065
-483.405	54.276	-0.101	-0.097
-482.391	-175.958	0.286	-0.008
-481.376	130.390	0.075	0.096
-480.362	-138.078	-0.069	0.008
-479.347	-200.000	0.027	0.348
-478.332	-43.875	0.076	0.038
-477.318	230.919	-0.242	0.397
-476.303	448.944	0.107	-0.236
-475.289	545.589	-0.194	0.465
-474.274	-200.000	0.033	0.210
-473.259	800.000	0.068	0.295
-472.245	51.085	-0.076	-0.072
-471.230	42.660	-0.305	-0.278
-470.216	-200.000	0.010	-0.297
-469.201	800.000	-0.105	-0.308
-468.186	272.955	-0.109	-0.194
-467.172	-103.017	-0.062	-0.015
-466.157	-200.000	-0.024	0.318
-465.143	-88.290	0.180	-0.054
-464.128	-137.899	-0.063	-0.007
-463.113	-200.000	-0.437	0.000
-462.099	-75.048	0.028	-0.010
-461.084	104.024	-0.170	0.200
-460.070	-128.356	0.081	0.012
-459.055	-200.000	0.017	-0.175
-458.040	73.119	-0.222	0.233
-457.026	-95.068	-0.500	-0.135
-456.011	-31.324	-0.091	-0.051
-454.997	-119.346	-0.133	0.023
-453.982	-103.460	-0.305	-0.072
-452.968	183.726	0.106	0.157
-451.953	-200.000	0.039	-0.280
-450.938	-200.000	0.011	-0.169
-449.924	-56.377	0.201	0.089
-448.909	95.047	0.149	-0.170
-447.895	-0.367	0.188	-0.134
-446.880	-44.585	0.256	-0.128
-445.865	-93.359	0.223	0.062
-444.851	117.205	-0.106	-0.131
-443.836	-200.000	-0.082	-0.536
-442.822	-126.105	0.256	-0.038
-441.807	20.931	-0.366	-0.297
-440.792	379.144	-0.104	0.214
-439.778	800.000	-0.062	0.204
-438.763	-130.249	-0.040	-0.005
-437.749	-61.248	-0.296	0.125
-436.734	-70.900	-0.267	-0.101
-435.719	215.932	0.218	-0.347
-434.705	-137.377	-0.273	-0.031
-433.690	-200.000	0.006	-0.206
-432.676	269.352	0.139	0.244
-431.661	-138.414	0.134	0.015
-430.646	445.743	-0.143	0.315
-429.632	-7.583	-0.078	-0.053
-428.617	23.056	0.175	-0.144
-427.603	291.995	-0.030	-0.056
-426.588	-69.632	-0.156	-0.060
-425.573	0.780	-0.081	0.058
-424.559	338.296	0.237	0.461
-423.544	-145.918	0.370	-0.033
-422.530	-200.000	-0.005	-0.114
-421.515	-133.706	-0.129	-0.016
-420.500	-53.866	-0.009	-0.004
-419.486	-200.000	-0.004	-0.159
-418.471	-123.106	0.158	-0.025
-417.457	-101.711	-0.075	-0.018
-416.442	-94.554	-0.095	-0.026
-415.428	-200.000	-0.025	-0.174
-414.413	800.000	-0.041	0.144
-413.398	8.814	0.091	-0.068
-412.384	105.805	-0.181	-0.214
-411.369	558.801	-0.166	0.400
-410.355	30.243	-0.193	0.165
-409.340	-200.000	0.001	0.086
-408.325	-97.536	0.192	0.050
-407.311	-169.527	0.217	-0.008
-406.296	-163.636	-0.188	-0.009
-405.282	-42.486	-0.161	-0.082
-404.267	121.768	0.101	0.126
-403.252	99.049	0.104	-0.120
-402.238	21.566	0.090	0.074
-401.223	102.796	-0.140	0.164
-400.209	-52.400	-0.226	-0.104
-399.194	304.559	-0.303	-0.562
-398.179	311.845	0.119	0.222
-397.165	3.372	0.371	0.270
-396.150	159.185	-0.067	0.093
-395.136	107.720	0.026	0.031
-394.121	100.616	0.085	0.099
-393.106	-63.402	0.160	-0.066
-392.092	416.456	0.110	-0.235
-391.077	-50.949	0.359	0.169
-390.063	-11.688	0.353	0.232
-389.048	157.989	0.165	-0.229
-388.033	-144.191	0.218	0.020
-387.019	52.402	-0.264	0.252
-386.004	-145.144	0.338	-0.031
-384.990	-99.875	0.168	0.042
-383.975	-74.518	0.091	0.033
-382.960	-138.575	0.397	-0.043
-381.946	451.816	0.020	-0.045
-380.931	-59.453	0.417	0.179
-379.917	-200.000	0.044	0.450
-378.902	109.810	-0.101	-0.121
-377.888	53.351	-0.235	0.225
-376.873	196.890	-0.140	0.213
-375.858	800.000	-0.059	0.205
-374.844	800.000	-0.043	-0.130
-373.829	800.000	-0.017	-0.071
-372.815	447.271	-0.084	-0.184
-371.800	-191.004	0.213	-0.002
-370.785	-6.117	0.131	-0.089
-369.771	273.504	0.140	0.247
-368.756	445.419	-0.134	-0.293
-367.742	-200.000	0.038	-0.185
-366.727	61.019	-0.211	0.209
-365.712	-200.000	0.008	-0.105
-364.698	-100.467	-0.401	0.099
-363.683	-200.000	-0.043	0.208
-362.669	-135.024	0.252	0.030
-361.654	-152.352	0.200	-0.014
-360.639	-200.000	0.031	0.254
-359.625	-8.167	-0.309	0.208
-358.610	114.146	0.125	0.152
-357.596	-78.060	0.186	-0.064
-356.581	-200.000	0.065	-0.287
-355.566	-200.000	0.035	-0.303
-354.552	74.175	-0.291	-0.305
-353.537	-118.067	0.189	-0.034
-352.523	198.865	-0.106	0.161
-351.508	800.000	0.046	-0.184
-350.493	-94.124	-0.023	-0.006
-349.479	-200.000	-0.027	0.127
-348.464	10.951	0.168	0.128
-347.450	-110.205	-0.113	-0.023
-346.435	800.000	-0.070	0.216
-345.420	7.203	0.100	-0.075
-344.406	-200.000	0.006	-0.157
-343.391	800.000	-0.021	0.080
-342.377	283.905	-0.073	-0.131
-341.362	-95.842	0.291	-0.078
-340.348	-113.472	-0.400	0.078
-339.333	-184.853	-0.216	0.003
-338.318	24.677	0.254	-0.210
-337.304	-2.962	-0.210	0.146
-336.289	-38.965	0.035	0.018
-335.275	-95.516	-0.244	0.065
-334.260	732.959	0.023	-0.062
-333.245	-53.523	0.567	0.259
-332.231	780.547	-0.020	-0.055
-331.216	-52.938	0.161	-0.074
-330.202	-104.958	-0.159	0.036
-329.187	-101.816	-0.096	-0.023
-328.172	87.300	-0.098	-0.108
-327.158	-200.000	-0.009	-0.187
-326.143	800.000	0.047	-0.132
-325.129	232.412	-0.166	0.272
-324.114	40.492	0.100	0.090
-323.099	-142.232	0.225	-0.022
-322.085	20.995	0.195	0.158
-321.070	-136.757	0.174	0.020
-320.056	160.583	-0.110	0.153
-319.041	44.425	0.140	0.128
-318.026	-62.339	0.020	0.008
-317.012	-45.030	0.233	0.116
-315.997	-4.384	0.230	-0.159
-314.983	-109.892	0.216	0.045
-313.968	398.551	0.099	-0.206
-312.953	609.821	-0.095	0.237
-311.939	-9.288	0.069	0.046
-310.924	-12.868	0.136	0.088
-309.910	-200.000	-0.033	0.221
-308.895	-130.276	0.131	-0.018
-307.880	-9.760	0.265	0.176
-306.866	800.000	0.045	-0.171
-305.851	194.507	-0.058	0.087
-304.837	162.946	0.134	0.187
-303.822	79.626	-0.043	-0.046
-302.807	800.000	0.063	-0.183
-301.793	-74.578	-0.365	0.131
-300.778	-77.138	-0.081	-0.028
-299.764	183.336	-0.030	-0.044
-298.749	-97.977	0.136	-0.035
-297.735	7.989	0.166	-0.124
-296.720	692.484	-0.052	-0.135
-295.705	2.092	0.113	-0.081
-294.691	93.142	-0.206	-0.232
-293.676	66.931	-0.161	0.163
-292.662	-113.497	0.261	0.051
-291.647	219.970	0.147	0.234
-290.632	-15.980	0.218	-0.138
-289.618	-200.000	0.006	0.207
-288.603	-130.397	0.174	-0.023
-287.589	-153.594	0.303	-0.021
-286.574	-200.000	0.004	-0.137
-285.559	-14.791	-0.246	0.157
-284.545	-200.000	0.012	0.120
-283.530	-28.566	0.239	-0.137
-282.516	-105.660	0.204	0.046
-281.501	-200.000	-0.021	0.117
-280.486	-200.000	-0.003	-0.015
-279.472	82.454	-0.290	-0.313
-278.457	800.000	0.188	-0.537
-277.443	800.000	0.029	-0.099
-276.428	-200.000	-0.017	0.359
-275.413	800.000	-0.186	0.624
-274.399	-30.888	0.466	-0.262
-273.384	121.529	0.123	0.153
-272.370	157.317	0.153	-0.211
-271.355	91.149	-0.386	-0.431
-270.340	-89.138	0.462	0.136
-269.326	-85.935	0.197	-0.061
-268.311	6.441	-0.166	-0.123
-267.297	-60.382	0.364	-0.154
-266.282	71.572	0.118	0.122
-265.267	-29.197	0.051	-0.029
-264.253	-18.955	0.077	-0.048
-263.238	800.000	-0.067	0.256
-262.224	-38.614	-0.187	0.098
-261.209	-98.655	-0.209	0.053
-260.195	43.974	0.345	0.315
-259.180	99.244	0.094	-0.108
-258.165	431.968	-0.171	0.369
-257.151	800.000	0.075	-0.289
-256.136	-200.000	-0.047	-0.256
-255.122	-200.000	0.031	0.209
-254.107	22.793	0.108	-0.088
-253.092	-76.075	0.319	-0.112
-252.078	29.486	-0.042	-0.036
-251.063	800.000	-0.041	-0.114
-250.049	177.109	0.126	-0.182
-249.034	3.597	0.171	-0.124
-248.019	-104.157	-0.110	0.025
-247.005	-200.000	-0.021	0.141
-245.990	-130.031	-0.543	0.074
-244.976	-200.000	-0.042	-0.247
-243.961	206.119	-0.182	-0.281
-242.946	-95.128	0.116	-0.031
-241.932	-40.259	0.270	-0.140
-240.917	-200.000	-0.027	0.132
-239.903	28.465	0.209	0.176
-238.888	-148.443	0.161	-0.013
-237.873	-200.000	0.041	-0.408
-236.859	-17.865	-0.199	0.124
-235.844	16.287	-0.288	-0.226
-234.830	189.500	-0.046	0.069
-233.815	-151.325	0.322	0.024
-232.800	189.644	-0.189	-0.281
-231.786	111.928	0.077	-0.093
-230.771	-115.117	0.424	0.080
-229.757	274.005	0.139	0.245
-228.742	56.851	-0.169	-0.163
-227.727	207.593	0.091	-0.141
-226.713	-34.168	0.364	-0.199
-225.698	-95.023	0.202	-0.054
-224.684	326.783	0.087	-0.165
-223.669	-60.728	-0.175	0.074
-222.655	-109.026	-0.312	0.066
-221.640	800.000	0.110	0.333
-220.625	800.000	-0.026	0.090
-219.611	-200.000	-0.070	-0.335
-218.596	23.453	0.139	0.113
-217.582	-72.933	-0.074	0.027
-216.567	585.084	-0.109	0.266
-215.552	-39.234	-0.117	0.061
-214.538	235.358	0.092	0.151
-213.523	171.172	0.246	-0.350
-212.509	-81.034	-0.180	0.059
-211.494	90.529	0.162	0.180
-210.479	-28.754	-0.173	-0.099
-209.465	-35.318	-0.130	0.070
-208.450	-87.894	-0.229	0.068
-207.436	-44.013	0.266	-0.133
-206.421	-60.172	0.232	0.098
-205.406	164.208	-0.068	0.095
-204.392	39.494	-0.101	0.090
-203.377	-143.963	-0.135	0.013
-202.363	-200.000	0.021	-0.161
-201.348	-110.198	-0.294	0.061
-200.333	14.665	0.194	0.150
-199.319	217.300	-0.080	0.126
-198.304	-105.064	0.151	0.034
-197.290	-60.206	0.105	0.044
-196.275	-200.000	0.045	0.275
-195.260	-117.086	-0.135	-0.024
-194.246	-200.000	0.056	-0.434
-193.231	-86.514	0.212	0.065
-192.217	-48.877	-0.142	0.068
-191.202	-111.756	0.207	0.042
-190.187	-112.087	-0.111	-0.022
-189.173	-200.000	0.006	0.300
-188.158	16.509	-0.330	-0.258
-187.144	-127.504	-0.364	-0.052
-186.129	244.002	-0.057	0.094
-185.114	579.276	0.141	-0.343
-184.100	543.890	0.093	0.220
-183.085	800.000	0.041	0.147
-182.071	800.000	0.070	0.275
-181.056	241.337	-0.135	0.224
-180.042	-82.903	-0.308	-0.098
-179.027	-55.459	-0.187	-0.083
-178.012	80.781	-0.199	0.213
-176.998	710.596	0.061	0.161
-175.983	-200.000	0.051	-0.376
-174.969	123.262	-0.196	-0.243
-173.954	57.599	-0.052	-0.051
-172.939	-153.935	0.235	-0.016
-171.925	-108.041	0.476	0.102
-170.910	577.078	-0.213	0.515
-169.896	-52.019	0.114	-0.053
-168.881	-140.888	0.113	-0.012
-167.866	212.328	0.052	-0.081
-166.852	-26.062	0.225	-0.131
-165.837	19.052	0.193	0.154
-164.823	-28.211	-0.008	0.005
-163.808	-29.315	0.323	-0.183
-162.793	325.087	-0.090	-0.171
-161.779	-50.772	-0.301	-0.140
-160.764	-200.000	-0.045	0.237
-159.750	443.889	0.150	0.326
-158.735	-200.000	0.029	-0.164
-157.720	-27.878	-0.440	-0.252
-156.706	-200.000	-0.014	-0.166
-155.691	-76.280	0.276	-0.096
-154.677	-200.000	-0.034	-0.198
-153.662	-105.291	0.130	-0.029
-152.647	-106.374	-0.241	0.053
-151.633	-100.722	0.115	-0.028
-150.618	-200.000	0.029	0.130
-149.604	327.045	-0.080	-0.153
-148.589	-200.000	-0.006	0.103
-147.574	-123.409	-0.081	0.013
-146.560	189.030	0.243	-0.360
-145.545	281.206	0.021	0.036
-144.531	69.409	0.088	-0.090
-143.516	-200.000	-0.015	-0.130
-142.502	358.237	0.022	0.043
-141.487	-108.305	0.162	-0.035
-140.472	681.769	0.074	-0.191
-139.458	800.000	-0.077	-0.331
-138.443	800.000	-0.030	-0.085
-137.429	-111.714	0.156	0.031
-136.414	241.555	-0.110	-0.182
-135.399	97.790	0.189	0.215
-134.385	-123.879	0.311	-0.048
-133.370	-200.000	-0.057	-0.495
-132.356	-200.000	0.032	0.200
-131.341	184.286	0.069	-0.101
-130.326	-68.140	-0.242	0.093
-129.312	32.359	0.194	-0.165
-128.297	252.789	0.117	-0.198
-127.283	12.727	-0.150	0.115
-126.268	-200.000	-0.012	-0.118
-125.253	-27.970	-0.111	-0.064
-124.239	73.839	-0.051	-0.053
-123.224	-200.000	-0.032	0.364
-122.210	215.113	-0.226	0.354
-121.195	-200.000	0.008	0.180
-120.180	168.436	-0.050	0.070
-119.166	146.385	-0.083	0.111
-118.151	379.820	0.082	0.165
-117.137	-40.207	0.039	0.020
-116.122	28.936	0.187	-0.157
-115.107	-116.366	-0.161	0.029
-114.093	82.335	0.194	0.208
-113.078	-81.053	-0.165	-0.054
-112.064	-147.556	0.178	0.015
-111.049	-53.673	0.141	-0.064
-110.034	-165.491	0.154	-0.007
-109.020	24.299	-0.057	-0.046
-108.005	-38.362	0.195	-0.102
-106.991	-29.441	-0.311	-0.176
-105.976	0.400	-0.159	-0.112
-104.962	-119.728	0.187	0.032
-103.947	-0.562	0.219	0.153
-102.932	298.246	0.074	0.135
-101.918	800.000	-0.162	0.445
-100.903	-200.000	0.044	0.256
-99.889	606.696	-0.096	0.235
-98.874	800.000	0.031	-0.119
-97.859	-65.590	-0.110	0.043
-96.845	800.000	-0.057	0.172
-95.830	-48.976	-0.350	-0.166
-94.816	-98.871	0.241	0.061
-93.801	-47.969	0.241	-0.115
-92.786	46.459	-0.031	0.029
-91.772	-43.960	-0.290	0.144
-90.757	-95.355	0.201	-0.053
-89.743	-200.000	0.003	-0.286
-88.728	338.325	-0.019	0.037
-87.713	509.833	0.135	-0.311
-86.699	61.780	0.054	0.053
-85.684	37.410	0.164	-0.144
-84.670	266.356	-0.167	0.287
-83.655	232.568	0.088	-0.144
-82.640	-140.364	0.213	-0.022
-81.626	358.223	-0.029	0.056
-80.611	-151.379	0.076	0.006
-79.597	5.296	0.147	0.107
-78.582	-67.995	0.262	-0.101
-77.567	-79.942	0.164	0.054
-76.553	279.596	-0.092	-0.162
-75.538	-200.000	-0.064	0.385
-74.524	-123.959	0.415	-0.065
-73.509	-24.320	0.251	0.148
-72.494	330.197	0.133	0.253
-71.480	-136.114	-0.083	-0.010
-70.465	800.000	0.035	0.103
-69.451	-65.532	-0.112	0.044
-68.436	-157.060	-0.110	0.007
-67.422	-3.176	0.318	-0.219
-66.407	148.413	-0.092	0.123
-65.392	-70.754	0.213	0.079
-64.378	-155.031	0.511	-0.033
-63.363	203.076	-0.057	0.087
-62.349	279.476	-0.121	0.212
-61.334	-4.551	-0.922	-0.628
-60.319	145.677	0.195	0.258
-59.305	-200.000	0.031	-0.673
-58.290	187.323	0.813	1.196
-57.276	360.129	0.792	1.564
-56.261	-200.000	96.440	564.647
-55.246	636.954	1388.573	3479.281
-54.232	187.583	2607.105	3838.044
-53.217	114.808	2307.804	2775.817
-52.203	43.950	1920.029	1735.228
-51.188	37.650	1707.049	1494.514
-50.173	34.922	1661.941	1434.540
-49.159	51.646	1709.884	1603.489
-48.144	55.062	1727.242	1645.663
-47.130	37.375	1684.005	1472.024
-46.115	34.417	1669.269	1436.833
-45.100	34.315	1664.328	1431.760
-44.086	34.323	1661.379	1429.223
-43.071	34.318	1658.493	1426.649
-42.057	34.285	1656.380	1424.524
-41.042	34.273	1654.405	1422.679
-40.027	34.246	1652.610	1420.882
-39.013	34.290	1650.093	1418.990
-37.998	34.231	1648.843	1417.420
-36.984	34.221	1647.374	1416.022
-35.969	34.393	1646.034	1416.090
-34.954	34.496	1643.768	1414.855
-33.940	34.357	1642.398	1412.583
-32.925	34.439	1640.198	1411.244
-31.911	34.492	1638.534	1410.147
-30.896	34.385	1637.023	1408.004
-29.881	34.363	1635.661	1406.609
-28.867	34.500	1633.414	1405.631
-27.852	34.464	1631.830	1403.954
-26.838	34.396	1630.712	1402.430
-25.823	34.445	1629.037	1401.293
-24.809	34.417	1628.121	1400.247
-23.794	34.376	1626.957	1398.890
-22.779	34.424	1625.084	1397.573
-21.765	34.518	1623.339	1396.706
-20.750	34.409	1621.662	1394.412
-19.736	34.402	1620.706	1393.483
-18.721	34.453	1618.888	1392.239
-17.706	34.411	1617.554	1390.728
-16.692	34.435	1615.372	1388.975
-15.677	34.421	1614.252	1387.853
-14.663	34.468	1612.786	1386.877
-13.648	34.539	1611.155	1385.939
-12.633	34.494	1610.093	1384.641
-11.619	34.461	1608.357	1382.853
-10.604	34.478	1606.836	1381.615
-9.590	34.561	1605.136	1380.699
-8.575	34.476	1604.195	1379.223
-7.560	34.490	1603.187	1378.402
-6.546	34.470	1601.319	1376.592
-5.531	34.416	1601.081	1375.948
-4.517	34.452	1599.459	1374.758
-3.502	34.434	1598.392	1373.652
-2.487	34.551	1596.947	1373.204
-1.473	34.409	1585.294	1362.109
-0.458	31.821	1566.265	1327.407
0.556	27.192	1566.423	1294.117
1.571	24.753	1590.156	1295.954
2.586	24.191	1604.236	1303.205
3.600	21.842	1551.473	1243.598
4.615	13.673	1441.549	1101.335
5.629	6.419	1376.899	1005.674
6.644	5.265	1368.369	992.034
7.659	5.056	1366.924	989.570
8.673	5.014	1365.777	988.387
9.688	4.965	1364.233	986.874
10.702	4.960	1361.356	984.676
11.717	8.345	1368.363	1011.115
12.731	16.025	1382.557	1070.476
13.746	19.787	1387.301	1097.987
14.761	18.741	1383.739	1088.440
15.775	17.516	1381.234	1078.617
16.790	16.442	1378.650	1069.712
17.804	15.621	1375.721	1062.158
18.819	15.241	1374.780	1058.935
19.834	14.996	1373.172	1056.057
20.848	14.645	1372.150	1052.967
21.863	14.520	1370.669	1050.945
22.877	14.358	1369.632	1049.043
23.892	14.319	1368.398	1047.757
24.907	14.308	1367.816	1047.152
25.921	14.323	1367.012	1046.536
26.936	14.268	1366.666	1045.832
27.950	14.377	1365.324	1045.398
28.965	14.431	1364.449	1044.976
29.980	14.558	1363.047	1044.601
30.994	14.579	1362.407	1044.153
32.009	14.515	1361.235	1042.759
33.023	14.650	1359.363	1042.077
34.038	14.533	1358.153	1040.327
35.053	14.497	1356.728	1038.918
36.067	14.551	1355.555	1038.265
37.082	14.462	1354.604	1036.888
38.096	14.597	1353.517	1036.806
39.111	14.482	1352.753	1035.417
40.126	14.493	1351.841	1034.692
41.140	14.371	1350.942	1033.159
42.155	14.258	1350.639	1032.135
43.169	14.195	1350.454	1031.509
44.184	14.057	1350.103	1030.293
45.199	14.199	1349.858	1030.899
46.213	14.301	1349.178	1030.916
47.228	14.324	1348.515	1030.462
48.242	14.379	1347.400	1029.862
49.257	14.451	1345.361	1028.655
50.271	14.359	1343.990	1026.946
51.286	14.435	1342.738	1026.370
52.301	14.368	1341.506	1024.923
53.315	14.377	1340.272	1023.946
54.330	14.312	1339.547	1022.902
55.344	14.249	1338.262	1021.441
56.359	14.298	1337.206	1020.851
57.374	14.228	1336.396	1019.711
58.388	14.234	1335.451	1018.938
59.403	14.157	1335.074	1018.088
60.417	14.183	1334.121	1017.428
61.432	14.045	1333.802	1016.251
62.447	14.087	1332.478	1015.410
63.461	14.117	1331.086	1014.443
64.476	14.044	1330.008	1013.086
65.490	14.062	1328.965	1012.314
66.505	14.091	1327.455	1011.250
67.520	14.152	1326.439	1010.758
68.534	14.188	1324.864	1009.688
69.549	14.219	1324.499	1009.506
70.563	14.173	1323.291	1008.213
71.578	14.184	1322.167	1007.337
72.593	14.033	1321.299	1005.674
73.607	14.010	1320.360	1004.732
74.622	13.966	1319.980	1004.086
75.636	13.922	1319.497	1003.362
76.651	14.012	1318.345	1002.945
77.666	14.050	1317.642	1002.546
78.680	14.032	1317.184	1002.004
79.695	14.110	1316.927	1002.191
80.709	14.179	1315.771	1001.637
81.724	14.227	1315.122	1001.343
82.739	14.265	1314.245	1000.812
83.753	14.381	1313.025	1000.495
84.768	14.444	1312.232	1000.180
85.782	14.490	1311.171	999.556
86.797	14.478	1309.675	998.257
87.812	14.266	1308.941	996.341
88.826	14.316	1307.644	995.563
89.841	14.376	1306.639	995.071
90.855	14.391	1305.790	994.422
91.870	14.457	1304.767	993.950
92.884	14.508	1303.865	993.476
93.899	14.612	1303.164	993.478
94.914	14.472	1302.652	992.165
95.928	14.539	1301.656	991.717
96.943	14.553	1300.334	990.702
97.957	14.498	1299.808	989.888
98.972	14.405	1299.095	988.704
99.987	14.443	1297.674	987.764
101.001	14.431	1297.108	987.174
102.016	14.439	1295.670	986.037
103.030	14.515	1294.610	985.595
104.045	14.361	1293.755	983.949
105.060	14.438	1292.421	983.301
106.074	14.238	1291.302	981.182
107.089	14.276	1289.463	979.924
108.103	14.249	1288.622	979.035
109.118	14.178	1286.920	977.238
110.133	14.136	1286.026	976.227
111.147	14.162	1284.677	975.271
112.162	14.177	1283.411	974.312
113.176	14.333	1281.884	973.976
114.191	14.360	1281.465	973.732
115.206	14.245	1280.164	971.986
116.220	14.386	1278.952	971.800
117.235	14.376	1277.896	970.857
118.249	14.258	1276.905	969.327
119.264	14.273	1276.058	968.689
120.279	14.292	1274.661	967.650
121.293	14.270	1273.271	966.381
122.308	14.225	1272.805	965.682
123.322	14.316	1271.096	964.829
124.337	14.194	1270.475	963.566
125.352	14.033	1269.624	961.904
126.366	14.094	1268.612	961.406
127.381	14.056	1267.474	960.236
128.395	14.125	1266.406	959.742
129.410	14.170	1265.169	958.976
130.424	14.257	1264.358	958.780
131.439	14.294	1263.167	958.006
132.454	14.318	1262.734	957.728
133.468	14.369	1261.795	957.228
134.483	14.278	1261.019	956.028
135.497	14.258	1259.865	954.955
136.512	14.280	1258.681	954.101
137.527	14.420	1257.587	953.989
138.541	14.350	1256.064	952.348
139.556	14.393	1254.462	951.293
140.570	14.343	1254.295	950.798
141.585	14.560	1252.119	950.302
142.600	14.568	1251.196	949.561
143.614	14.525	1250.436	948.654
144.629	14.641	1249.320	948.387
145.643	14.469	1248.642	946.809
146.658	14.407	1247.501	945.508
147.673	14.434	1245.125	943.776
148.687	14.364	1244.665	942.951
149.702	14.336	1243.381	941.733
150.716	14.389	1241.668	940.655
151.731	14.315	1240.513	939.278
152.746	14.344	1239.245	938.395
153.760	14.441	1238.161	938.042
154.775	14.419	1237.520	937.350
155.789	14.529	1236.433	937.059
156.804	14.536	1235.232	936.104
157.819	14.445	1234.433	934.908
158.833	14.596	1233.283	934.801
159.848	14.558	1232.929	934.233
160.862	14.752	1231.232	933.948
161.877	14.542	1230.284	931.976
162.892	14.561	1228.977	931.008
163.906	14.482	1228.330	929.995
164.921	14.384	1227.553	928.779
165.935	14.475	1226.869	928.690
166.950	14.586	1225.600	928.263
167.964	14.555	1224.980	927.539
168.979	14.563	1224.322	927.003
169.994	14.651	1223.493	926.782
171.008	14.647	1222.516	925.936
172.023	14.699	1221.874	925.657
173.037	14.683	1221.433	925.153
174.052	14.626	1220.713	924.211
175.067	14.585	1219.202	922.758
176.081	14.579	1218.152	921.848
177.096	14.616	1217.312	921.333
178.110	14.542	1216.344	920.111
179.125	14.610	1215.160	919.509
180.140	14.514	1214.220	918.191
181.154	14.656	1212.997	917.964
182.169	14.654	1211.694	916.883
183.183	14.754	1210.547	916.487
184.198	14.876	1209.314	916.136
185.213	14.731	1208.572	914.699
186.227	14.852	1207.698	914.620
187.242	14.857	1206.527	913.678
188.256	14.882	1205.466	912.931
189.271	14.956	1204.227	912.319
190.286	14.803	1203.250	910.662
191.300	14.696	1202.308	909.286
192.315	14.561	1201.794	908.084
193.329	14.483	1201.738	907.536
194.344	14.684	1200.645	907.724
195.359	14.743	1200.129	907.571
196.373	14.872	1199.321	907.583
197.388	14.899	1199.027	907.427
198.402	15.069	1198.450	907.831
199.417	14.940	1198.652	907.201
200.432	15.014	1197.605	906.729
201.446	15.150	1196.284	906.386
202.461	15.181	1195.190	905.647
203.475	15.276	1194.366	905.452
204.490	15.139	1192.946	903.561
205.504	15.082	1191.517	902.087
206.519	15.043	1190.646	901.141
207.534	15.055	1189.610	900.343
208.548	15.130	1188.465	899.796
209.563	15.151	1187.278	898.932
210.577	15.092	1186.807	898.182
211.592	15.100	1186.266	897.734
212.607	15.151	1185.395	897.266
213.621	15.184	1184.513	896.700
214.636	15.209	1183.776	896.192
215.650	15.151	1182.640	894.943
216.665	15.259	1181.387	894.496
217.680	15.271	1180.725	893.977
218.694	15.290	1180.280	893.665
219.709	15.277	1179.489	892.918
220.723	15.336	1178.529	892.425
221.738	15.252	1178.126	891.591
222.753	15.170	1177.529	890.626
223.767	15.341	1176.612	890.763
224.782	15.394	1176.369	890.778
225.796	15.421	1175.285	890.023
226.811	15.509	1174.589	889.887
227.826	15.433	1173.782	888.790
228.840	15.434	1172.939	888.082
229.855	15.391	1172.168	887.193
230.869	15.341	1171.391	886.261
231.884	15.358	1170.595	885.669
232.899	15.418	1169.993	885.450
233.913	15.318	1169.396	884.394
234.928	15.229	1168.488	883.158
235.942	15.257	1167.753	882.674
236.957	15.288	1166.739	881.990
237.972	15.326	1166.090	881.625
238.986	15.292	1165.547	880.959
240.001	15.370	1164.799	880.725
241.015	15.420	1163.692	880.071
242.030	15.408	1162.611	879.112
243.045	15.497	1161.955	879.004
244.059	15.468	1161.223	878.221
245.074	15.485	1160.680	877.824
246.088	15.479	1160.097	877.272
247.103	15.441	1159.178	876.298
248.117	15.604	1158.260	876.379
249.132	15.728	1157.539	876.402
250.147	15.892	1157.054	876.811
251.161	15.857	1156.358	876.025
252.176	15.825	1155.997	875.509
253.190	15.814	1155.633	875.098
254.205	16.039	1154.358	875.224
255.220	16.070	1153.588	874.723
256.234	15.909	1153.781	873.958
257.249	16.051	1152.620	873.732
258.263	16.053	1152.003	873.198
259.278	16.038	1151.453	872.629
260.293	16.027	1151.016	872.164
261.307	15.989	1150.284	871.335
262.322	16.138	1149.696	871.580
263.336	16.160	1148.650	870.827
264.351	16.177	1148.443	870.681
265.366	16.153	1147.631	869.863
266.380	16.211	1146.726	869.399
267.395	16.173	1146.124	868.668
268.409	16.093	1145.295	867.551
269.424	16.038	1144.715	866.756
270.439	16.057	1144.170	866.360
271.453	16.276	1142.660	866.265
272.468	16.071	1142.107	864.719
273.482	16.022	1141.665	864.057
274.497	16.144	1141.061	864.149
275.512	16.038	1140.610	863.187
276.526	15.989	1139.719	862.186
277.541	16.182	1138.554	862.212
278.555	16.161	1138.026	861.632
279.570	16.376	1137.349	862.142
280.585	16.267	1136.674	860.995
281.599	16.360	1135.202	860.279
282.614	16.298	1134.474	859.334
283.628	16.128	1133.898	857.958
284.643	16.204	1132.971	857.566
285.657	16.254	1131.843	856.889
286.672	16.324	1131.166	856.658
287.687	16.277	1130.336	855.715
288.701	16.272	1129.436	854.933
289.716	16.455	1128.076	854.754
290.730	16.401	1127.896	854.268
291.745	16.371	1127.105	853.444
292.760	16.354	1126.700	852.973
293.774	16.349	1126.409	852.655
294.789	16.474	1125.989	852.888
295.803	16.514	1124.911	852.202
296.818	16.459	1124.252	851.349
297.833	16.440	1123.471	850.586
298.847	16.477	1122.614	850.045
299.862	16.443	1121.599	849.035
300.876	16.533	1121.124	849.051
301.891	16.595	1120.366	848.713
302.906	16.543	1120.021	848.114
303.920	16.519	1119.533	847.549
304.935	16.633	1118.782	847.476
305.949	16.682	1117.923	846.997
306.964	16.742	1117.200	846.675
307.979	16.705	1116.376	845.790
308.993	16.638	1115.740	844.901
310.008	16.674	1114.926	844.387
311.022	16.859	1113.856	844.422
312.037	16.796	1113.452	843.728
313.052	16.748	1112.290	842.534
314.066	16.669	1111.343	841.352
315.081	16.643	1110.639	840.613
316.095	16.653	1109.644	839.838
317.110	16.683	1109.153	839.539
318.125	16.648	1108.274	838.626
319.139	16.713	1107.484	838.277
320.154	16.687	1106.825	837.572
321.168	16.568	1106.637	836.769
322.183	16.699	1105.972	836.842
323.197	16.662	1105.385	836.142
324.212	16.645	1104.922	835.629
325.227	16.626	1104.301	834.992
326.241	16.670	1103.314	834.390
327.256	16.763	1102.415	834.096
328.270	16.718	1101.735	833.284
329.285	16.721	1100.859	832.561
330.300	16.708	1099.788	831.616
331.314	16.813	1098.690	831.226
332.329	16.791	1097.920	830.464
333.343	16.913	1096.925	830.232
334.358	16.929	1096.208	829.698
335.373	16.942	1095.570	829.205
336.387	16.995	1094.816	828.819
337.402	16.967	1093.925	827.933
338.416	17.001	1093.548	827.740
339.431	17.026	1092.739	827.177
340.446	17.052	1092.071	826.727
341.460	17.200	1091.544	826.972
342.475	17.179	1090.666	826.133
343.489	17.246	1089.730	825.675
344.504	17.222	1088.884	824.847
345.519	17.316	1087.977	824.543
346.533	17.292	1087.346	823.877
347.548	17.219	1086.626	822.902
348.562	17.347	1085.457	822.564
349.577	17.371	1084.595	821.955
350.592	17.144	1084.370	820.615
351.606	17.210	1083.634	820.304
352.621	17.098	1082.627	818.928
353.635	17.157	1082.105	818.744
354.650	17.130	1081.437	818.040
355.665	17.131	1080.943	817.596
356.679	17.225	1079.976	817.245
357.694	17.268	1079.494	817.013
358.708	17.392	1078.531	816.810
359.723	17.238	1078.648	816.085
360.738	17.316	1077.403	815.444
361.752	17.295	1077.150	815.083
362.767	17.339	1076.772	814.933
363.781	17.441	1075.930	814.714
364.796	17.428	1074.929	813.818
365.810	17.300	1075.269	813.392
366.825	17.616	1074.166	813.998
367.840	17.704	1073.604	813.920
368.854	17.575	1073.325	813.020
369.869	17.537	1072.663	812.265
370.883	17.710	1071.175	811.891
371.898	17.539	1070.585	810.556
372.913	17.662	1069.803	810.477
373.927	17.588	1069.613	809.910
374.942	17.617	1069.230	809.687
375.956	17.694	1068.780	809.639
376.971	17.618	1068.280	808.830
377.986	17.703	1067.519	808.584
379.000	17.795	1066.896	808.479
380.015	17.737	1066.532	807.857
381.029	17.790	1065.779	807.466
382.044	17.946	1065.054	807.582
383.059	17.928	1063.816	806.485
384.073	17.878	1063.430	805.885
385.088	17.819	1062.783	805.045
386.102	17.871	1061.926	804.572
387.117	17.813	1060.791	803.368
388.132	17.725	1059.913	802.219
389.146	17.874	1058.862	802.051
390.161	17.748	1058.188	800.879
391.175	17.762	1057.729	800.526
392.190	17.823	1056.912	800.121
393.205	17.855	1056.313	799.746
394.219	17.852	1055.636	799.151
395.234	17.881	1054.798	798.580
396.248	17.835	1053.709	797.471
397.263	17.743	1052.586	796.122
398.278	17.768	1052.314	795.960
399.292	17.863	1051.018	795.353
400.307	17.709	1050.797	794.396
401.321	17.753	1050.238	794.111
402.336	17.767	1049.606	793.629
403.350	17.691	1049.055	792.789
404.365	17.866	1048.066	792.784
405.380	17.914	1047.230	792.300
406.394	17.960	1046.598	791.969
407.409	17.995	1045.735	791.405
408.423	17.969	1045.284	790.873
409.438	18.176	1044.599	791.244
410.453	18.135	1044.136	790.635
411.467	18.158	1043.335	790.065
412.482	18.145	1042.897	789.601
413.496	18.270	1041.759	789.249
414.511	18.244	1041.312	788.719
415.526	18.360	1040.524	788.584
416.540	18.326	1040.609	788.425
417.555	18.334	1039.875	787.833
418.569	18.402	1039.284	787.628
419.584	18.275	1038.916	786.699
420.599	18.307	1038.946	786.798
421.613	147.876	1400.185	1790.471
422.628	135.149	1452.826	1790.614
