DTS Sentinel unit serial number:	SN413079Multiplexer serial number:	ORYXHardware model number:	OX4-SRSoftware version number:	ORYX F/W v4.00 Oryx Data Collector v3.7.2.0data status	okinstallation	princeton_trtdifferential loss correction	single-endedforward channel	channel 2reverse channel	N/Adate	2019/09/11time	02:49:10forward acquisition time	60.00reverse acquisition time	0.00gamma	496.2192k internal	0.2331k external	0.2331temperature offset calibration	0.9942default loss term (dB/km)	0.3790temperature slope calibration	1.0000multiplexer offset coefficient	1.0000multiplexer slope coefficient	1.0000fibre end	0.00T internal ref (°C)	29.25T ext. ref 1 (°C)	-0.29T ext. ref 2 (°C)	23.41length (m)	temperature (°C)	Stokes	anti-Stokes-747.200	800.000	0.091	-0.340
-746.185	-200.000	-0.015	0.177
-745.171	-122.906	0.186	0.030
-744.156	787.819	-0.067	0.185
-743.142	13.137	-0.097	0.076
-742.127	-113.452	-0.182	-0.036
-741.112	-200.000	-0.035	-0.271
-740.098	-200.000	-0.035	0.409
-739.083	8.128	-0.234	0.177
-738.069	-122.720	0.229	0.037
-737.054	124.659	-0.153	-0.194
-736.039	-35.834	0.107	-0.058
-735.025	155.321	-0.092	0.127
-734.010	-156.100	-0.244	0.016
-732.996	-133.769	-0.147	0.018
-731.981	-151.949	-0.245	-0.018
-730.966	-118.706	0.250	-0.044
-729.952	800.000	-0.037	0.103
-728.937	41.528	-0.318	-0.290
-727.923	800.000	0.045	-0.197
-726.908	92.891	0.146	-0.166
-725.894	800.000	0.101	-0.319
-724.879	-200.000	-0.012	-0.281
-723.864	-115.082	0.173	-0.033
-722.850	-99.414	-0.441	0.112
-721.835	116.414	0.028	-0.034
-720.821	331.353	0.175	-0.340
-719.806	-118.576	-0.231	0.041
-718.791	-115.051	-0.445	-0.085
-717.777	-64.289	-0.217	0.089
-716.762	-97.712	-0.259	0.067
-715.748	-50.972	0.099	-0.047
-714.733	-2.722	-0.160	-0.112
-713.718	-55.486	-0.332	0.150
-712.704	-5.471	0.288	-0.199
-711.689	-200.000	0.006	-0.205
-710.675	14.145	0.287	0.225
-709.660	800.000	-0.121	0.387
-708.645	-123.396	-0.053	-0.008
-707.631	7.662	0.148	-0.111
-706.616	78.520	-0.201	0.216
-705.602	-4.248	-0.176	-0.123
-704.587	-48.877	0.100	-0.048
-703.572	-106.372	-0.137	-0.031
-702.558	54.520	0.077	0.075
-701.543	-5.483	0.037	-0.025
-700.529	29.968	0.127	-0.109
-699.514	-67.711	-0.132	0.052
-698.499	-126.244	0.193	-0.029
-697.485	119.175	-0.185	0.230
-696.470	339.726	-0.202	0.396
-695.456	-119.078	0.195	0.034
-694.441	-119.610	0.311	0.054
-693.426	-17.639	-0.057	0.036
-692.412	52.009	-0.135	0.130
-691.397	416.177	-0.160	0.343
-690.383	800.000	0.051	0.141
-689.368	-9.202	-0.253	0.170
-688.354	181.225	-0.080	0.118
-687.339	668.424	0.056	0.145
-686.324	39.336	0.270	-0.243
-685.310	513.588	-0.109	-0.255
-684.295	-62.322	-0.069	0.029
-683.281	-200.000	-0.031	0.258
-682.266	-200.000	-0.326	0.001
-681.251	800.000	0.040	-0.156
-680.237	-155.240	-0.261	0.017
-679.222	-28.158	-0.033	-0.019
-678.208	55.094	-0.320	-0.310
-677.193	-200.000	0.009	0.078
-676.178	-200.000	-0.070	-0.375
-675.164	-4.157	0.067	0.047
-674.149	-14.247	0.181	0.117
-673.135	-159.101	0.113	-0.006
-672.120	58.219	-0.132	0.130
-671.105	-200.000	0.031	0.219
-670.091	30.887	-0.023	-0.020
-669.076	800.000	-0.093	-0.318
-668.062	-196.543	-0.350	-0.002
-667.047	-58.782	-0.318	-0.138
-666.032	122.753	0.198	-0.249
-665.018	-200.000	-0.003	-0.131
-664.003	718.429	0.128	0.341
-662.989	405.608	0.166	-0.351
-661.974	6.580	-0.195	-0.145
-660.959	15.989	-0.159	-0.126
-659.945	50.328	0.107	0.101
-658.930	50.189	-0.286	-0.271
-657.916	-112.693	-0.137	0.027
-656.901	38.585	0.229	-0.205
-655.886	-200.000	-0.033	0.174
-654.872	800.000	-0.045	-0.191
-653.857	-200.000	-0.005	0.039
-652.843	170.509	-0.076	0.109
-651.828	401.975	-0.136	-0.286
-650.814	540.300	0.019	-0.045
-649.799	-108.101	-0.114	0.025
-648.784	-61.218	0.285	-0.120
-647.770	-17.077	0.098	-0.062
-646.755	-183.716	0.255	-0.004
-645.741	446.404	0.067	-0.149
-644.726	246.051	-0.036	-0.061
-643.711	800.000	-0.037	-0.143
-642.697	-56.829	-0.239	0.106
-641.682	17.146	-0.325	0.258
-640.668	-13.739	-0.368	-0.239
-639.653	-22.916	0.316	-0.191
-638.638	-3.180	0.142	0.099
-637.624	-11.319	0.022	0.015
-636.609	30.109	-0.097	0.083
-635.595	148.752	-0.068	0.092
-634.580	159.188	0.063	-0.088
-633.565	29.003	-0.129	-0.110
-632.551	-128.889	-0.343	0.048
-631.536	-32.018	0.146	0.082
-630.522	650.231	-0.035	-0.091
-629.507	-200.000	0.013	-0.060
-628.492	-200.000	-0.001	0.052
-627.478	800.000	0.110	0.306
-626.463	-154.927	-0.372	0.025
-625.449	-200.000	0.022	-0.298
-624.434	-4.171	0.116	0.080
-623.419	-26.053	0.412	-0.243
-622.405	-3.651	0.132	-0.092
-621.390	-200.000	-0.028	0.135
-620.376	208.071	-0.028	-0.045
-619.361	135.882	0.131	-0.171
-618.346	-113.236	-0.358	0.071
-617.332	800.000	0.075	0.230
-616.317	800.000	0.021	-0.062
-615.303	-21.988	-0.110	-0.067
-614.288	-140.494	0.182	0.019
-613.273	-112.642	-0.150	0.030
-612.259	-6.173	-0.231	0.158
-611.244	800.000	0.022	0.072
-610.230	-6.305	-0.229	0.157
-609.215	800.000	0.071	-0.240
-608.201	-90.832	-0.212	-0.061
-607.186	14.806	-0.294	0.230
-606.171	431.452	0.079	0.172
-605.157	317.306	-0.111	0.210
-604.142	229.840	-0.207	-0.338
-603.128	-200.000	-0.038	0.222
-602.113	800.000	-0.083	0.301
-601.098	-28.690	0.210	0.121
-600.084	558.522	-0.147	0.355
-599.069	584.392	0.092	0.227
-598.055	142.953	0.102	0.136
-597.040	800.000	-0.065	0.191
-596.025	-63.619	0.259	-0.106
-595.011	76.348	-0.105	-0.111
-593.996	-200.000	0.038	0.296
-592.982	-115.832	-0.424	-0.079
-591.967	42.040	-0.072	-0.065
-590.952	-46.168	-0.213	0.105
-589.938	84.445	-0.194	-0.212
-588.923	699.821	-0.092	-0.243
-587.909	282.113	-0.226	0.405
-586.894	138.839	-0.195	0.256
-585.879	800.000	0.076	0.290
-584.865	87.363	0.177	-0.196
-583.850	121.154	0.029	-0.036
-582.836	334.697	-0.021	0.041
-581.821	337.423	0.076	0.148
-580.806	-44.831	0.137	0.069
-579.792	-200.000	-0.024	-0.227
-578.777	50.641	-0.248	-0.235
-577.763	-84.295	0.236	-0.075
-576.748	283.328	-0.122	-0.220
-575.733	304.532	0.020	-0.038
-574.719	-5.531	-0.135	-0.093
-573.704	-200.000	-0.002	-0.384
-572.690	269.211	0.168	0.295
-571.675	-34.213	0.121	0.067
-570.661	234.856	-0.096	-0.158
-569.646	-200.000	-0.037	-0.414
-568.631	-24.445	-0.090	0.054
-567.617	-99.837	0.348	-0.087
-566.602	344.146	0.086	-0.169
-565.588	83.113	-0.149	-0.163
-564.573	6.844	-0.231	-0.172
-563.558	800.000	-0.023	0.094
-562.544	-27.723	0.138	-0.080
-561.529	800.000	-0.026	0.077
-560.515	-200.000	-0.026	-0.139
-559.500	-200.000	-0.017	0.109
-558.485	800.000	0.068	-0.248
-557.471	99.834	0.075	0.087
-556.456	587.234	-0.112	0.275
-555.442	155.891	0.169	-0.233
-554.427	-200.000	-0.217	-0.001
-553.412	188.273	0.084	-0.125
-552.398	800.000	-0.071	-0.257
-551.383	-200.000	0.006	-0.110
-550.369	194.015	0.064	-0.097
-549.354	-184.723	0.180	-0.003
-548.339	-11.477	-0.364	-0.239
-547.325	-107.094	-0.276	0.061
-546.310	-59.524	-0.057	0.024
-545.296	-200.000	0.054	-0.264
-544.281	-20.748	-0.135	0.082
-543.266	140.087	0.083	0.109
-542.252	-125.170	0.049	0.008
-541.237	111.086	-0.015	-0.018
-540.223	800.000	0.049	0.176
-539.208	53.352	0.133	0.127
-538.193	180.358	0.195	-0.286
-537.179	271.582	-0.239	-0.421
-536.164	43.068	-0.139	-0.126
-535.150	800.000	0.055	-0.198
-534.135	72.638	-0.141	-0.147
-533.121	-36.174	-0.070	-0.038
-532.106	87.729	0.033	-0.036
-531.091	364.981	0.080	-0.161
-530.077	108.697	-0.252	0.301
-529.062	-200.000	0.017	-0.111
-528.048	195.776	0.060	0.092
-527.033	-96.923	-0.235	0.061
-526.018	-141.449	0.344	0.035
-525.004	468.180	0.085	0.190
-523.989	-200.000	0.034	-0.421
-522.975	134.956	0.107	0.139
-521.960	73.143	-0.286	-0.299
-520.945	-111.808	-0.132	0.027
-519.931	87.513	-0.138	-0.153
-518.916	19.623	0.193	-0.155
-517.902	-137.727	-0.222	-0.025
-516.887	800.000	-0.080	0.245
-515.872	800.000	0.078	-0.292
-514.858	-200.000	-0.033	-0.370
-513.843	134.622	0.130	-0.168
-512.829	800.000	-0.103	-0.347
-511.814	130.863	0.070	-0.090
-510.799	-200.000	-0.021	0.179
-509.785	800.000	0.041	-0.152
-508.770	-7.033	0.161	-0.109
-507.756	-89.328	0.247	-0.073
-506.741	276.246	0.094	0.167
-505.726	-56.139	-0.149	-0.066
-504.712	37.486	-0.007	-0.006
-503.697	800.000	-0.099	-0.404
-502.683	1.047	0.268	-0.192
-501.668	-200.000	-0.006	-0.339
-500.653	50.589	0.214	-0.202
-499.639	95.886	-0.241	-0.275
-498.624	800.000	-0.108	0.313
-497.610	-200.000	-0.036	0.208
-496.595	13.070	-0.149	0.115
-495.581	-43.913	0.240	-0.120
-494.566	27.303	-0.292	-0.244
-493.551	-18.294	-0.109	-0.068
-492.537	57.618	0.148	-0.144
-491.522	121.537	0.092	0.114
-490.508	178.597	0.137	-0.199
-489.493	-2.981	-0.256	-0.178
-488.478	169.169	-0.130	0.185
-487.464	-78.561	0.076	0.026
-486.449	59.684	-0.205	0.201
-485.435	-111.942	-0.250	0.050
-484.420	-67.927	-0.102	0.040
-483.405	190.572	0.041	0.061
-482.391	431.659	-0.118	0.255
-481.376	-125.602	-0.044	-0.007
-480.362	1.272	-0.231	0.165
-479.347	43.875	-0.204	0.186
-478.332	-200.000	0.025	-0.235
-477.318	77.532	-0.036	0.038
-476.303	-165.674	0.094	-0.004
-475.289	800.000	-0.040	0.143
-474.274	648.770	0.124	0.317
-473.259	461.847	0.069	-0.153
-472.245	-200.000	0.006	-0.264
-471.230	-200.000	-0.061	0.340
-470.216	-74.744	0.067	-0.024
-469.201	-167.521	0.332	0.013
-468.186	225.434	-0.167	0.270
-467.172	61.131	-0.481	-0.476
-466.157	-112.243	-0.203	0.041
-465.143	321.638	-0.139	0.262
-464.128	-94.377	-0.219	0.059
-463.113	191.324	-0.080	0.121
-462.099	-38.321	0.086	-0.046
-461.084	165.052	0.098	0.137
-460.070	-200.000	0.018	-0.161
-459.055	-39.972	-0.171	-0.089
-458.040	-76.624	-0.382	-0.133
-457.026	-66.527	0.195	0.077
-456.011	800.000	0.020	0.056
-454.997	111.486	0.084	-0.101
-453.982	220.724	0.091	0.145
-452.968	10.152	-0.196	0.149
-451.953	-50.348	-0.191	0.090
-450.938	284.849	-0.130	0.233
-449.924	174.375	-0.060	-0.087
-448.909	-82.834	0.106	0.034
-447.895	599.302	-0.084	-0.208
-446.880	-200.000	-0.028	-0.256
-445.865	-200.000	-0.005	-0.321
-444.851	1.709	0.108	-0.077
-443.836	800.000	0.049	0.156
-442.822	77.069	-0.194	-0.205
-441.807	155.726	0.173	0.237
-440.792	395.143	-0.102	-0.211
-439.778	148.591	-0.112	-0.150
-438.763	-82.020	-0.295	0.096
-437.749	-200.000	0.033	0.235
-436.734	194.442	0.165	0.249
-435.719	44.353	0.167	-0.152
-434.705	-200.000	0.064	0.374
-433.690	9.542	-0.045	-0.034
-432.676	-200.000	0.002	-0.527
-431.661	800.000	0.087	-0.255
-430.646	-200.000	0.034	-0.156
-429.632	-141.958	0.237	0.024
-428.617	-200.000	-0.021	0.096
-427.603	335.276	0.156	-0.301
-426.588	-129.726	0.092	-0.013
-425.573	800.000	-0.087	0.270
-424.559	-77.723	0.337	-0.116
-423.544	469.791	0.058	-0.130
-422.530	-200.000	-0.005	-0.281
-421.515	-200.000	0.058	-0.310
-420.500	443.445	0.073	-0.159
-419.486	-65.443	-0.339	0.135
-418.471	800.000	-0.021	0.067
-417.457	-25.131	-0.087	-0.052
-416.442	25.787	0.068	-0.056
-415.428	335.169	0.084	-0.161
-414.413	-200.000	-0.017	0.096
-413.398	-72.918	0.388	-0.142
-412.384	44.475	-0.103	-0.094
-411.369	114.193	0.172	-0.208
-410.355	800.000	0.120	-0.332
-409.340	411.183	0.036	-0.076
-408.325	114.132	0.140	0.170
-407.311	-200.000	0.006	-0.156
-406.296	29.610	-0.020	-0.017
-405.282	506.116	0.040	-0.093
-404.267	570.329	0.055	-0.132
-403.252	153.285	0.094	0.128
-402.238	37.832	0.300	-0.264
-401.223	-70.645	-0.364	0.137
-400.209	177.088	0.134	0.193
-399.194	175.707	0.059	-0.085
-398.179	168.461	0.155	0.219
-397.165	-200.000	0.008	0.531
-396.150	-162.447	-0.145	0.007
-395.136	235.170	0.147	-0.241
-394.121	-200.000	-0.020	-0.120
-393.106	-29.808	-0.093	0.053
-392.092	131.406	-0.156	-0.199
-391.077	8.399	-0.175	0.130
-390.063	-119.810	0.197	0.034
-389.048	-165.950	-0.128	0.005
-388.033	129.298	-0.078	0.099
-387.019	-109.831	0.393	0.082
-386.004	-34.283	0.254	-0.139
-384.990	-200.000	-0.002	-0.025
-383.975	338.631	-0.068	-0.131
-382.960	38.136	-0.349	0.309
-381.946	-86.409	0.137	-0.042
-380.931	15.257	-0.167	0.130
-379.917	-23.075	-0.057	0.034
-378.902	-31.658	0.147	0.082
-377.888	154.528	-0.057	-0.078
-376.873	137.932	-0.180	-0.233
-375.858	-138.419	0.108	-0.012
-374.844	381.912	-0.111	-0.227
-373.829	9.766	-0.180	0.135
-372.815	201.634	-0.121	0.185
-371.800	488.513	0.032	0.072
-370.785	-112.256	-0.219	0.044
-369.771	-30.185	0.233	0.131
-368.756	-200.000	-0.045	0.220
-367.742	275.007	-0.056	-0.098
-366.727	-13.328	-0.002	0.001
-365.712	-34.769	0.264	-0.143
-364.698	-43.616	0.264	-0.132
-363.683	-53.775	0.202	0.092
-362.669	380.547	0.014	-0.029
-361.654	-175.397	-0.503	-0.014
-360.639	-200.000	-0.030	0.152
-359.625	576.979	-0.088	0.212
-358.610	-200.000	0.042	0.205
-357.596	133.959	-0.115	-0.148
-356.581	20.551	-0.299	0.240
-355.566	-200.000	0.032	0.387
-354.552	-157.053	-0.097	0.006
-353.537	-114.738	0.125	-0.024
-352.523	-200.000	0.272	0.001
-351.508	70.106	0.169	-0.173
-350.493	-200.000	-0.056	0.260
-349.479	-76.366	-0.120	0.042
-348.464	6.353	-0.538	-0.396
-347.450	-58.454	0.206	0.089
-346.435	800.000	-0.102	-0.428
-345.420	-200.000	0.015	-0.289
-344.406	-100.910	-0.207	-0.050
-343.391	357.627	-0.077	0.152
-342.377	-32.817	0.030	-0.017
-341.362	-64.384	0.115	-0.046
-340.348	-129.232	-0.239	0.033
-339.333	-200.000	0.026	0.280
-338.318	-175.361	-0.144	-0.004
-337.304	-200.000	-0.043	0.476
-336.289	-75.768	0.140	-0.049
-335.275	-200.000	0.020	0.163
-334.260	-39.711	0.058	0.030
-333.245	-90.162	0.064	-0.019
-332.231	57.891	-0.176	0.170
-331.216	-200.000	-0.009	0.278
-330.202	-200.000	-0.027	0.223
-329.187	264.543	0.076	0.131
-328.172	504.892	-0.059	0.134
-327.158	-126.319	0.162	0.024
-326.143	-49.702	-0.359	-0.169
-325.129	-160.055	-0.360	-0.019
-324.114	-200.000	0.025	0.129
-323.099	257.500	0.123	0.210
-322.085	5.932	0.170	0.124
-321.070	-20.127	0.085	0.052
-320.056	131.562	-0.078	0.099
-319.041	-153.457	0.242	-0.017
-318.026	-62.943	-0.147	-0.060
-317.012	800.000	-0.069	-0.202
-315.997	-200.000	-0.028	-0.392
-314.983	18.610	0.042	0.034
-313.968	-125.009	0.049	-0.007
-312.953	-200.000	0.111	-0.000
-311.939	2.968	0.164	-0.118
-310.924	-110.079	0.180	-0.037
-309.910	88.401	-0.285	-0.313
-308.895	-200.000	0.017	-0.289
-307.880	800.000	0.056	-0.190
-306.866	-75.165	0.474	0.168
-305.851	86.810	0.330	-0.360
-304.837	172.009	-0.095	0.136
-303.822	-200.000	-0.030	0.173
-302.807	4.827	0.360	-0.262
-301.793	-97.343	0.146	-0.038
-300.778	-200.000	-0.183	-0.000
-299.764	-56.262	-0.094	-0.041
-298.749	59.993	0.160	-0.157
-297.735	-200.000	-0.015	0.325
-296.720	155.340	-0.133	0.181
-295.705	-104.642	-0.238	-0.054
-294.691	-200.000	-0.005	-0.148
-293.676	-49.009	-0.089	0.042
-292.662	155.734	-0.272	0.370
-291.647	-200.000	-0.039	0.357
-290.632	-26.074	0.263	0.153
-289.618	139.336	0.071	-0.092
-288.603	50.846	-0.053	0.049
-287.589	-200.000	-0.040	0.188
-286.574	-108.508	0.221	0.047
-285.559	8.375	0.393	-0.292
-284.545	-42.237	-0.124	0.063
-283.530	-85.659	0.113	-0.035
-282.516	-89.239	0.348	0.101
-281.501	13.565	-0.265	0.203
-280.486	82.203	-0.154	-0.165
-279.472	524.635	-0.082	0.192
-278.457	32.997	0.186	-0.160
-277.443	310.743	0.086	-0.160
-276.428	-30.975	0.172	0.096
-275.413	-177.752	0.114	-0.003
-274.399	13.828	0.185	0.142
-273.384	318.752	-0.119	0.222
-272.370	-100.952	-0.173	0.042
-271.355	323.249	0.074	-0.139
-270.340	215.656	-0.156	0.245
-269.326	-139.577	0.316	-0.033
-268.311	-200.000	-0.018	-0.179
-267.297	-65.880	-0.029	0.011
-266.282	-125.281	0.134	-0.020
-265.267	727.454	0.035	-0.091
-264.253	-54.889	0.152	-0.068
-263.238	800.000	-0.040	0.144
-262.224	800.000	0.090	-0.310
-261.209	115.040	0.070	-0.084
-260.195	-133.750	-0.149	0.018
-259.180	-200.000	-0.109	0.503
-258.165	-200.000	0.020	0.386
-257.151	59.704	0.008	0.008
-256.136	166.699	0.144	0.202
-255.122	-122.801	-0.250	0.040
-254.107	-200.000	-0.003	-0.180
-253.092	96.125	0.090	-0.102
-252.078	800.000	0.067	0.206
-251.063	44.414	0.250	0.227
-250.049	-33.355	0.092	0.050
-249.034	-200.000	-0.038	-0.202
-248.019	-200.000	-0.131	0.000
-247.005	-200.000	-0.000	-0.114
-245.990	404.167	-0.032	-0.066
-244.976	-53.544	-0.182	0.082
-243.961	-148.048	-0.105	0.009
-242.946	161.986	0.125	-0.173
-241.932	-150.231	-0.233	0.018
-240.917	-200.000	-0.005	0.315
-239.903	-80.149	0.188	0.062
-238.888	-137.709	-0.092	0.010
-237.873	-200.000	0.019	0.140
-236.859	-0.948	-0.071	0.050
-235.844	800.000	-0.151	0.427
-234.830	-200.000	-0.088	0.455
-233.815	53.046	-0.081	-0.077
-232.800	-200.000	-0.033	-0.221
-231.786	-200.000	-0.004	0.138
-230.771	-145.858	-0.299	0.026
-229.757	-200.000	0.016	0.089
-228.742	148.166	0.120	0.160
-227.727	290.301	-0.156	-0.279
-226.713	800.000	0.059	-0.175
-225.698	364.518	-0.155	-0.309
-224.684	-80.574	0.363	0.119
-223.669	-6.728	0.284	0.191
-222.655	-200.000	0.021	-0.238
-221.640	60.494	-0.135	0.132
-220.625	-77.943	0.337	-0.115
-219.611	-137.817	0.169	-0.019
-218.596	19.552	0.243	-0.193
-217.582	29.450	0.069	0.058
-216.567	26.458	-0.271	-0.223
-215.552	110.335	0.328	0.389
-214.538	-46.674	-0.057	-0.028
-213.523	-200.000	0.032	0.338
-212.509	-13.919	0.245	-0.156
-211.494	-166.641	-0.221	-0.009
-210.479	-200.000	-0.148	-0.662
-209.465	800.000	-0.061	-0.253
-208.450	106.731	-0.048	-0.056
-207.436	-142.868	0.183	0.018
-206.421	-16.552	-0.122	0.076
-205.406	-11.042	-0.229	0.149
-204.392	133.941	0.055	-0.071
-203.377	-120.312	0.118	-0.020
-202.363	-91.904	0.487	0.136
-201.348	389.658	0.063	-0.129
-200.333	95.601	0.137	-0.154
-199.319	-124.479	-0.350	-0.054
-198.304	76.386	0.184	-0.192
-197.290	-139.280	-0.557	0.059
-196.275	270.655	0.140	0.242
-195.260	-130.206	-0.280	0.038
-194.246	718.896	-0.091	0.239
-193.231	48.774	0.136	0.125
-192.217	-44.582	0.500	0.246
-191.202	-200.000	-0.027	0.174
-190.187	166.412	-0.073	-0.101
-189.173	-97.894	-0.108	0.028
-188.158	-200.000	-0.045	0.232
-187.144	748.018	0.106	-0.281
-186.129	-85.379	0.163	0.050
-185.114	103.689	-0.164	0.189
-184.100	195.838	0.099	0.148
-183.085	-200.000	0.011	0.112
-182.071	-66.678	-0.284	0.111
-181.056	-80.325	-0.120	0.040
-180.042	646.463	0.066	-0.167
-179.027	41.168	0.299	-0.266
-178.012	199.019	0.037	0.055
-176.998	800.000	0.103	0.320
-175.983	-200.000	0.000	0.202
-174.969	401.632	-0.176	0.364
-173.954	41.493	-0.175	0.156
-172.939	-135.290	0.150	0.018
-171.925	-9.400	0.298	0.196
-170.910	544.412	0.149	0.351
-169.896	-200.000	-0.007	0.048
-168.881	-166.915	0.320	0.013
-167.866	-39.897	-0.109	0.056
-166.852	-87.773	-0.181	-0.054
-165.837	800.000	0.043	-0.172
-164.823	-155.920	0.149	0.009
-163.808	176.914	0.291	0.417
-162.793	-200.000	0.022	-0.146
-161.779	-135.639	0.309	-0.036
-160.764	239.318	0.147	-0.241
-159.750	-111.830	0.164	0.033
-158.735	-200.000	0.024	0.105
-157.720	48.507	0.254	0.234
-156.706	156.876	0.140	-0.190
-155.691	-109.128	0.428	-0.089
-154.677	472.241	0.089	0.197
-153.662	800.000	0.064	-0.187
-152.647	-77.941	-0.267	0.090
-151.633	92.166	0.138	0.153
-150.618	-39.599	-0.137	-0.071
-149.604	-5.434	0.269	-0.181
-148.589	800.000	-0.057	0.170
-147.574	223.208	-0.109	-0.173
-146.560	404.061	-0.193	-0.400
-145.545	-13.240	0.097	0.062
-144.531	-62.382	-0.327	0.134
-143.516	85.211	-0.095	0.103
-142.502	-200.000	0.054	0.259
-141.487	285.464	0.095	0.168
-140.472	-200.000	0.028	-0.326
-139.458	76.177	0.180	-0.188
-138.443	-122.732	0.054	-0.009
-137.429	-24.895	-0.122	-0.071
-136.414	-200.000	0.001	-0.139
-135.399	237.612	-0.088	-0.144
-134.385	-125.261	-0.263	-0.040
-133.370	33.504	-0.180	-0.154
-132.356	800.000	-0.090	0.270
-131.341	-80.993	-0.247	0.080
-130.326	-143.310	-0.508	0.048
-129.312	-200.000	-0.008	0.114
-128.297	66.497	0.203	-0.203
-127.283	-44.424	-0.137	-0.067
-126.268	-200.000	-0.023	-0.261
-125.253	-58.777	-0.383	0.163
-124.239	800.000	0.076	0.320
-123.224	-164.324	-0.206	0.009
-122.210	800.000	-0.043	0.135
-121.195	800.000	-0.047	-0.145
-120.180	57.884	-0.048	-0.046
-119.166	48.250	-0.028	-0.026
-118.151	-200.000	-0.041	-0.257
-117.137	-15.472	0.295	-0.185
-116.122	-200.000	-0.023	-0.187
-115.107	-69.570	0.323	0.121
-114.093	123.895	-0.038	0.047
-113.078	-200.000	-0.002	0.246
-112.064	-200.000	0.005	0.064
-111.049	133.290	-0.105	0.133
-110.034	-137.789	-0.363	0.040
-109.020	61.271	0.290	-0.283
-108.005	88.502	0.166	-0.181
-106.991	-57.258	-0.163	-0.070
-105.976	-69.521	-0.384	0.145
-104.962	-10.542	-0.056	-0.036
-103.947	287.988	0.019	-0.033
-102.932	364.047	-0.077	-0.152
-101.918	-179.290	0.212	0.005
-100.903	8.065	0.096	-0.070
-99.889	800.000	0.045	-0.155
-98.874	91.072	0.101	0.111
-97.859	-24.767	-0.147	0.086
-96.845	29.813	0.010	-0.008
-95.830	56.416	0.076	0.072
-94.816	-26.929	-0.191	0.110
-93.801	222.545	0.143	-0.226
-92.786	123.580	-0.211	-0.260
-91.772	800.000	0.025	-0.078
-90.757	-40.113	-0.101	0.052
-89.743	-166.633	0.313	-0.013
-88.728	-138.620	0.217	-0.023
-87.713	367.928	-0.042	-0.083
-86.699	-61.093	0.304	-0.126
-85.684	-107.204	0.252	0.054
-84.670	425.311	-0.013	0.027
-83.655	-145.345	0.193	0.017
-82.640	686.635	0.021	-0.053
-81.626	-200.000	-0.012	-0.072
-80.611	-200.000	-0.064	0.338
-79.597	-200.000	-0.030	0.277
-78.582	-200.000	0.018	-0.120
-77.567	-112.941	-0.152	0.030
-76.553	67.168	0.245	0.245
-75.538	-200.000	0.009	-0.249
-74.524	639.857	-0.100	-0.249
-73.509	-200.000	-0.035	-0.288
-72.494	-168.811	0.039	0.001
-71.480	23.567	-0.093	0.075
-70.465	-78.402	0.194	0.065
-69.451	800.000	-0.114	0.325
-68.436	-50.346	0.296	0.137
-67.422	97.418	-0.051	0.058
-66.407	-200.000	0.009	-0.055
-65.392	529.037	0.162	-0.375
-64.378	5.502	0.247	-0.179
-63.363	-75.620	-0.141	-0.049
-62.349	487.733	0.117	-0.261
-61.334	-1.154	-1.220	-0.845
-60.319	9.711	0.606	0.450
-59.305	-200.000	-0.147	-0.993
-58.290	214.766	0.784	1.218
-57.276	800.000	0.587	1.633
-56.261	-200.000	105.959	617.233
-55.246	514.175	1511.251	3454.479
-54.232	174.718	2712.991	3846.053
-53.217	104.419	2300.153	2652.870
-52.203	38.518	1904.320	1663.389
-51.188	32.474	1690.007	1430.378
-50.173	29.732	1647.267	1373.807
-49.159	48.875	1700.885	1563.566
-48.144	49.081	1715.903	1578.866
-47.130	32.005	1673.110	1412.329
-46.115	29.372	1658.779	1380.496
-45.100	29.202	1653.791	1375.024
-44.086	29.256	1650.801	1372.883
-43.071	29.151	1648.196	1369.884
-42.057	29.100	1645.801	1367.459
-41.042	29.170	1643.896	1366.341
-40.027	29.159	1642.334	1364.903
-39.013	29.088	1640.247	1362.594
-37.998	29.062	1638.980	1361.291
-36.984	29.202	1637.063	1360.684
-35.969	29.281	1635.897	1360.244
-34.954	29.296	1634.203	1358.892
-33.940	29.260	1632.462	1357.125
-32.925	29.209	1630.690	1355.218
-31.911	29.169	1628.498	1353.048
-30.896	29.215	1627.042	1352.125
-29.881	29.249	1625.483	1351.029
-28.867	29.226	1624.220	1349.752
-27.852	29.268	1622.434	1348.524
-26.838	29.182	1621.324	1346.915
-25.823	29.373	1619.055	1346.374
-24.809	29.298	1618.264	1345.115
-23.794	29.282	1616.903	1343.811
-22.779	29.299	1615.572	1342.778
-21.765	29.226	1613.682	1340.624
-20.750	29.225	1611.951	1339.123
-19.736	29.200	1611.407	1338.436
-18.721	29.266	1609.138	1336.979
-17.706	29.241	1607.498	1335.381
-16.692	29.262	1606.302	1334.487
-15.677	29.360	1604.904	1333.981
-14.663	29.266	1603.961	1332.468
-13.648	29.296	1602.641	1331.536
-12.633	29.301	1600.675	1329.886
-11.619	29.234	1599.263	1328.173
-10.604	29.221	1598.161	1327.116
-9.590	29.309	1596.564	1326.368
-8.575	29.374	1595.327	1325.754
-7.560	29.375	1594.189	1324.760
-6.546	29.350	1592.963	1323.512
-5.531	29.286	1591.988	1322.193
-4.517	29.280	1591.022	1321.292
-3.502	29.297	1589.474	1320.075
-2.487	29.320	1588.048	1319.005
-1.473	29.016	1576.543	1307.239
-0.458	26.287	1557.283	1272.034
0.556	20.742	1557.931	1242.462
1.571	18.518	1583.064	1246.241
2.586	18.350	1596.865	1255.766
3.600	16.512	1544.414	1201.363
4.615	8.831	1434.475	1064.877
5.629	1.252	1370.706	969.179
6.644	-0.138	1362.354	954.360
7.659	-0.308	1361.551	952.631
8.673	-0.386	1360.634	951.415
9.688	-0.318	1358.314	950.138
10.702	-0.555	1355.479	946.570
11.717	2.996	1362.366	973.829
12.731	12.304	1379.321	1045.354
13.746	19.524	1392.131	1101.189
14.761	21.478	1394.402	1115.360
15.775	21.728	1394.170	1116.673
16.790	21.778	1393.870	1116.648
17.804	21.815	1393.160	1116.216
18.819	22.024	1393.330	1117.588
19.834	22.164	1392.074	1117.369
20.848	22.132	1391.812	1116.855
21.863	22.144	1390.945	1116.139
22.877	22.214	1389.696	1115.484
23.892	22.252	1389.019	1115.083
24.907	22.194	1387.812	1113.644
25.921	22.180	1387.200	1112.970
26.936	22.192	1385.941	1111.933
27.950	22.270	1385.126	1111.674
28.965	22.174	1384.011	1110.077
29.980	22.272	1382.670	1109.517
30.994	22.127	1381.985	1107.957
32.009	22.176	1380.858	1107.266
33.023	22.200	1379.493	1106.225
34.038	22.255	1378.171	1105.413
35.053	22.267	1377.126	1104.552
36.067	22.178	1376.170	1103.131
37.082	22.287	1375.415	1103.111
38.096	22.153	1374.690	1101.588
39.111	22.165	1373.867	1100.906
40.126	22.265	1373.300	1100.980
41.140	22.228	1372.423	1099.948
42.155	22.218	1372.177	1099.594
43.169	22.278	1372.031	1099.755
44.184	22.221	1371.382	1098.779
45.199	22.122	1371.766	1098.374
46.213	22.133	1370.831	1097.595
47.228	22.230	1369.565	1097.087
48.242	22.142	1368.642	1095.708
49.257	22.221	1366.944	1094.737
50.271	22.266	1365.606	1093.850
51.286	22.260	1364.327	1092.693
52.301	22.196	1362.816	1090.988
53.315	22.209	1362.264	1090.531
54.330	22.201	1361.605	1089.858
55.344	22.119	1360.225	1088.146
56.359	22.200	1358.978	1087.556
57.374	22.208	1358.412	1087.057
58.388	22.302	1357.625	1086.909
59.403	22.238	1357.561	1086.371
60.417	22.174	1356.777	1085.247
61.432	22.187	1356.138	1084.724
62.447	22.162	1355.103	1083.646
63.461	22.223	1354.106	1083.126
64.476	22.217	1352.969	1082.088
65.490	22.219	1351.952	1081.187
66.505	22.130	1350.370	1079.283
67.520	22.255	1349.220	1079.032
68.534	22.266	1348.255	1078.237
69.549	22.237	1347.294	1077.194
70.563	22.269	1346.204	1076.423
71.578	22.301	1345.182	1075.706
72.593	22.235	1344.554	1074.706
73.607	22.263	1343.946	1074.292
74.622	22.277	1343.080	1073.589
75.636	22.262	1342.221	1072.718
76.651	22.323	1341.527	1072.442
77.666	22.191	1341.497	1071.515
78.680	22.121	1341.159	1070.728
79.695	22.249	1339.548	1070.124
80.709	22.277	1338.595	1069.439
81.724	22.220	1338.227	1068.702
82.739	22.366	1336.697	1068.275
83.753	22.189	1336.156	1066.669
84.768	22.260	1334.697	1065.842
85.782	22.276	1333.527	1064.913
86.797	22.212	1332.676	1063.748
87.812	22.269	1331.367	1062.959
88.826	22.238	1330.667	1062.114
89.841	22.257	1329.721	1061.383
90.855	22.385	1328.444	1061.043
91.870	22.268	1327.933	1059.835
92.884	22.345	1326.673	1059.195
93.899	22.248	1326.234	1058.172
94.914	22.401	1325.168	1058.143
95.928	22.299	1324.812	1057.152
96.943	22.355	1323.504	1056.355
97.957	22.395	1322.720	1055.874
98.972	22.371	1321.820	1054.919
99.987	22.280	1320.907	1053.549
101.001	22.297	1319.783	1052.665
102.016	22.186	1319.099	1051.359
103.030	22.200	1318.373	1050.775
104.045	22.265	1317.661	1050.498
105.060	22.392	1316.138	1049.948
106.074	22.381	1315.260	1049.091
107.089	22.327	1314.342	1047.945
108.103	22.292	1313.133	1046.682
109.118	22.396	1312.158	1046.431
110.133	22.385	1310.760	1045.156
111.147	22.339	1309.738	1043.973
112.162	22.327	1308.815	1043.078
113.176	22.374	1307.339	1042.086
114.191	22.375	1306.440	1041.285
115.206	22.333	1305.510	1040.204
116.220	22.269	1304.479	1038.911
117.235	22.332	1303.267	1038.224
118.249	22.334	1302.399	1037.452
119.264	22.419	1301.542	1037.178
120.279	22.363	1300.980	1036.308
121.293	22.466	1299.661	1035.773
122.308	22.438	1299.248	1035.188
123.322	22.414	1298.482	1034.344
124.337	22.368	1297.703	1033.366
125.352	22.492	1296.393	1032.959
126.366	22.493	1295.389	1032.071
127.381	22.449	1294.398	1030.931
128.395	22.330	1294.176	1029.966
129.410	22.417	1292.893	1029.363
130.424	22.564	1291.589	1029.093
131.439	22.427	1291.773	1028.351
132.454	22.349	1290.810	1027.038
133.468	22.480	1289.640	1026.779
134.483	22.330	1289.424	1025.639
135.497	22.419	1288.257	1025.139
136.512	22.422	1287.182	1024.213
137.527	22.339	1286.331	1022.961
138.541	22.327	1284.974	1021.723
139.556	22.395	1283.266	1020.670
140.570	22.255	1283.545	1019.989
141.585	22.399	1281.442	1019.057
142.600	22.350	1280.756	1018.140
143.614	22.373	1279.852	1017.463
144.629	22.367	1278.909	1016.589
145.643	22.210	1277.616	1014.564
146.658	22.361	1276.899	1014.779
147.673	22.406	1275.568	1013.889
148.687	22.338	1274.892	1012.874
149.702	22.299	1273.552	1011.494
150.716	22.309	1272.492	1010.619
151.731	22.345	1271.591	1010.020
152.746	22.354	1270.801	1009.358
153.760	22.361	1269.503	1008.274
154.775	22.484	1268.366	1007.984
155.789	22.415	1267.401	1006.737
156.804	22.448	1266.270	1005.937
157.819	22.407	1265.458	1004.972
158.833	22.420	1264.632	1004.296
159.848	22.532	1263.849	1004.229
160.862	22.448	1263.498	1003.379
161.877	22.462	1262.362	1002.471
162.892	22.529	1261.540	1002.108
163.906	22.532	1260.952	1001.568
164.921	22.507	1260.575	1001.041
165.935	22.525	1259.160	999.931
166.950	22.493	1258.773	999.354
167.964	22.592	1258.032	999.235
168.979	22.596	1257.494	998.743
169.994	22.625	1256.640	998.140
171.008	22.511	1256.236	997.085
172.023	22.446	1255.466	996.022
173.037	22.517	1254.675	995.707
174.052	22.551	1254.226	995.452
175.067	22.571	1252.956	994.468
176.081	22.531	1252.633	993.900
177.096	22.551	1251.469	993.001
178.110	22.531	1250.770	992.247
179.125	22.565	1249.056	990.989
180.140	22.594	1248.551	990.665
181.154	22.528	1247.372	989.270
182.169	22.514	1246.179	988.155
183.183	22.545	1245.268	987.520
184.198	22.568	1244.615	987.048
185.213	22.637	1243.361	986.352
186.227	22.641	1242.310	985.453
187.242	22.590	1241.914	984.764
188.256	22.614	1240.758	983.897
189.271	22.644	1239.757	983.183
190.286	22.722	1239.064	982.978
191.300	22.641	1238.320	981.852
192.315	22.629	1237.642	981.162
193.329	22.690	1237.427	981.242
194.344	22.620	1237.206	980.589
195.359	22.633	1236.498	980.013
196.373	22.658	1235.989	979.661
197.388	22.488	1235.796	978.479
198.402	22.684	1235.126	978.950
199.417	22.631	1235.034	978.495
200.432	22.619	1234.801	978.158
201.446	22.605	1233.936	977.307
202.461	22.624	1232.942	976.544
203.475	22.609	1232.287	975.852
204.490	22.683	1230.762	974.966
205.504	22.693	1229.915	974.266
206.519	22.808	1228.969	974.064
207.534	22.725	1228.455	973.112
208.548	22.626	1227.458	971.694
209.563	22.633	1226.566	970.940
210.577	22.767	1225.729	970.928
211.592	22.665	1225.144	969.815
212.607	22.725	1224.586	969.617
213.621	22.835	1223.401	969.202
214.636	22.780	1222.665	968.227
215.650	22.754	1221.357	966.964
216.665	22.675	1221.179	966.307
217.680	22.634	1220.303	965.305
218.694	22.753	1219.145	964.952
219.709	22.772	1218.594	964.536
220.723	22.892	1217.783	964.459
221.738	22.750	1217.296	963.218
222.753	22.807	1215.921	962.354
223.767	22.639	1216.166	961.545
224.782	22.791	1215.451	961.726
225.796	22.837	1214.794	961.368
226.811	22.770	1214.243	960.484
227.826	22.765	1213.842	960.053
228.840	22.828	1213.291	959.875
229.855	22.829	1212.335	959.038
230.869	22.932	1211.461	958.822
231.884	22.807	1211.073	957.752
232.899	22.733	1210.477	956.797
233.913	22.867	1209.536	956.692
234.928	22.978	1209.044	956.818
235.942	22.914	1208.610	956.048
236.957	22.909	1207.681	955.200
237.972	22.964	1206.843	954.751
238.986	22.889	1206.577	954.051
240.001	22.912	1205.309	953.086
241.015	22.995	1205.041	953.238
242.030	23.017	1204.141	952.560
243.045	23.058	1203.001	951.793
244.059	23.146	1202.266	951.605
245.074	23.043	1201.810	950.602
246.088	23.026	1201.486	950.172
247.103	23.003	1200.076	948.850
248.117	22.991	1199.619	948.340
249.132	23.035	1198.767	947.819
250.147	23.110	1197.862	947.418
251.161	23.209	1197.062	947.234
252.176	23.115	1196.857	946.485
253.190	23.186	1195.763	945.913
254.205	23.099	1195.711	945.324
255.220	23.120	1194.872	944.693
256.234	23.183	1194.247	944.447
257.249	23.143	1193.337	943.434
258.263	23.231	1192.603	943.240
259.278	23.066	1192.659	942.320
260.293	23.165	1191.816	942.099
261.307	23.109	1191.399	941.386
262.322	23.121	1190.874	940.951
263.336	23.118	1190.182	940.305
264.351	23.196	1189.907	940.422
265.366	23.126	1189.254	939.446
266.380	23.083	1188.567	938.593
267.395	23.067	1187.813	937.831
268.409	23.089	1186.865	937.116
269.424	23.121	1186.738	937.103
270.439	23.140	1186.236	936.724
271.453	23.221	1185.331	936.355
272.468	23.166	1184.657	935.450
273.482	23.238	1183.423	934.770
274.497	23.258	1183.201	934.622
275.512	23.295	1182.903	934.496
276.526	23.261	1182.232	933.706
277.541	23.207	1181.552	932.801
278.555	23.293	1180.686	932.486
279.570	23.230	1180.241	931.720
280.585	23.163	1179.233	930.493
281.599	23.222	1178.263	929.951
282.614	23.319	1177.215	929.550
283.628	23.287	1176.536	928.766
284.643	23.306	1175.760	928.168
285.657	23.328	1174.962	927.575
286.672	23.171	1174.103	925.991
287.687	23.363	1172.946	926.000
288.701	23.410	1172.533	925.837
289.716	23.478	1171.714	925.466
290.730	23.311	1171.390	924.259
291.745	23.463	1170.547	924.299
292.760	23.490	1169.763	923.741
293.774	23.391	1169.427	922.881
294.789	23.402	1169.340	922.785
295.803	23.469	1168.280	922.219
296.818	23.430	1168.032	921.736
297.833	23.433	1167.185	921.004
298.847	23.557	1166.053	920.673
299.862	23.422	1165.373	919.354
300.876	23.437	1164.845	918.932
301.891	23.580	1163.850	918.807
302.906	23.422	1163.960	917.994
303.920	23.605	1162.991	918.096
304.935	23.506	1162.860	917.396
305.949	23.559	1162.063	916.961
306.964	23.498	1161.489	916.115
307.979	23.539	1160.915	915.793
308.993	23.478	1160.228	914.856
310.008	23.607	1159.301	914.704
311.022	23.593	1158.441	913.875
312.037	23.668	1157.251	913.239
313.052	23.555	1156.815	912.234
314.066	23.548	1156.271	911.690
315.081	23.558	1155.747	911.245
316.095	23.675	1154.711	910.949
317.110	23.666	1154.020	910.278
318.125	23.803	1153.143	910.205
319.139	23.647	1152.535	908.848
320.154	23.581	1152.537	908.432
321.168	23.649	1151.725	908.059
322.183	23.682	1150.956	907.544
323.197	23.741	1150.105	907.089
324.212	23.694	1149.978	906.670
325.227	23.819	1149.281	906.679
326.241	23.714	1149.124	905.938
327.256	23.615	1148.404	904.786
328.270	23.723	1147.045	904.185
329.285	23.678	1146.493	903.441
330.300	23.747	1145.958	903.293
331.314	23.793	1144.710	902.460
332.329	23.715	1144.236	901.610
333.343	23.871	1143.441	901.698
334.358	23.845	1142.561	900.792
335.373	23.848	1141.974	900.265
336.387	23.811	1141.420	899.561
337.402	23.962	1140.638	899.628
338.416	23.889	1139.862	898.568
339.431	23.866	1139.274	897.907
340.446	23.916	1138.905	897.789
341.460	23.860	1138.231	896.895
342.475	24.014	1136.792	896.460
343.489	24.017	1136.389	896.075
344.504	23.973	1135.041	894.714
345.519	23.888	1134.724	893.958
346.533	23.996	1134.044	893.887
347.548	24.040	1132.772	893.026
348.562	23.970	1132.332	892.249
349.577	23.889	1132.147	891.614
350.592	23.923	1131.184	890.950
351.606	23.870	1130.408	889.996
352.621	23.945	1129.843	889.843
353.635	24.006	1129.323	889.664
354.650	24.040	1128.474	889.085
355.665	24.127	1127.832	888.936
356.679	24.111	1127.045	888.156
357.694	24.142	1126.590	887.875
358.708	24.089	1126.298	887.298
359.723	24.098	1125.305	886.484
360.738	24.042	1124.821	885.747
361.752	24.116	1124.372	885.683
362.767	24.064	1124.124	885.152
363.781	24.268	1123.105	885.284
364.796	24.141	1122.641	884.206
365.810	24.169	1121.979	883.745
366.825	24.103	1121.649	883.080
367.840	24.256	1121.034	883.277
368.854	24.354	1119.949	882.831
369.869	24.261	1119.431	881.884
370.883	24.293	1118.628	881.330
371.898	24.357	1118.176	881.210
372.913	24.209	1117.684	880.017
373.927	24.311	1117.255	880.105
374.942	24.233	1116.535	879.076
375.956	24.379	1116.112	879.381
376.971	24.296	1115.596	878.489
377.986	24.308	1115.198	878.160
379.000	24.342	1114.159	877.428
380.015	24.322	1113.823	876.990
381.029	24.347	1113.236	876.570
382.044	24.251	1112.703	875.604
383.059	24.386	1112.009	875.644
384.073	24.225	1111.547	874.412
385.088	24.412	1110.197	874.189
386.102	24.471	1109.129	873.559
387.117	24.427	1108.763	872.976
388.132	24.334	1107.886	871.756
389.146	24.388	1107.090	871.316
390.161	24.437	1106.778	871.232
391.175	24.426	1106.019	870.505
392.190	24.469	1105.462	870.200
393.205	24.436	1104.915	869.528
394.219	24.379	1104.110	868.540
395.234	24.685	1103.079	869.140
396.248	24.555	1101.956	867.549
397.263	24.534	1101.123	866.713
398.278	24.582	1100.904	866.698
399.292	24.699	1100.109	866.562
400.307	24.620	1099.381	865.530
401.321	24.635	1099.315	865.474
402.336	24.477	1098.347	863.870
403.350	24.739	1097.208	864.163
404.365	24.688	1096.503	863.288
405.380	24.595	1096.205	862.528
406.394	24.676	1095.467	862.259
407.409	24.682	1094.706	861.615
408.423	24.707	1094.118	861.196
409.438	24.735	1093.222	860.548
410.453	24.864	1092.261	860.337
411.467	24.713	1092.060	859.377
412.482	24.800	1091.172	859.019
413.496	24.777	1090.581	858.366
414.511	24.601	1090.225	857.169
415.526	24.718	1089.689	857.229
416.540	24.682	1089.292	856.667
417.555	24.697	1088.579	856.103
418.569	24.733	1088.318	855.994
419.584	24.781	1087.891	855.815
420.599	24.797	1087.369	855.403
421.613	148.743	1402.635	1799.684
422.628	137.546	1448.558	1799.790
