DTS Sentinel unit serial number:	SN413079Multiplexer serial number:	ORYXHardware model number:	OX4-SRSoftware version number:	ORYX F/W v4.00 Oryx Data Collector v3.7.2.0data status	okinstallation	princeton_trtdifferential loss correction	single-endedforward channel	channel 2reverse channel	N/Adate	2019/09/12time	05:21:11forward acquisition time	60.00reverse acquisition time	0.00gamma	496.2192k internal	0.2325k external	0.2325temperature offset calibration	1.0069default loss term (dB/km)	0.3790temperature slope calibration	1.0000multiplexer offset coefficient	1.0000multiplexer slope coefficient	1.0000fibre end	0.00T internal ref (°C)	31.87T ext. ref 1 (°C)	1.63T ext. ref 2 (°C)	27.33length (m)	temperature (°C)	Stokes	anti-Stokes-747.200	-200.000	-0.011	-0.191
-746.185	778.772	0.148	-0.408
-745.171	800.000	0.050	0.147
-744.156	-15.343	-0.255	-0.165
-743.142	203.085	0.132	-0.206
-742.127	-130.128	-0.319	0.044
-741.112	-200.000	0.002	-0.073
-740.098	-33.627	-0.214	0.119
-739.083	30.913	-0.029	-0.025
-738.069	-149.822	-0.178	0.014
-737.054	1.715	-0.278	-0.202
-736.039	-18.566	-0.024	0.015
-735.025	800.000	0.017	-0.065
-734.010	-123.329	0.145	0.023
-732.996	-15.061	-0.278	-0.180
-731.981	52.526	0.128	-0.123
-730.966	-200.000	-0.015	-0.074
-729.952	-184.877	-0.175	0.003
-728.937	-33.805	0.265	0.147
-727.923	-103.560	-0.021	-0.005
-726.908	736.322	0.054	-0.146
-725.894	-200.000	0.033	-0.612
-724.879	90.032	-0.154	-0.174
-723.864	121.845	0.124	0.156
-722.850	142.172	0.126	-0.168
-721.835	159.945	-0.108	-0.151
-720.821	-149.899	-0.112	0.009
-719.806	-200.000	0.048	-0.501
-718.791	800.000	0.024	-0.089
-717.777	320.315	-0.163	-0.313
-716.762	800.000	0.064	-0.213
-715.748	-113.725	-0.069	-0.014
-714.733	212.212	0.159	0.253
-713.718	246.882	0.135	-0.230
-712.704	-49.554	-0.172	0.082
-711.689	-200.000	0.020	0.090
-710.675	-200.000	-0.061	-0.294
-709.660	49.583	0.212	0.202
-708.645	-200.000	-0.019	-0.119
-707.631	164.131	0.211	-0.299
-706.616	51.191	0.122	-0.117
-705.602	-200.000	-0.001	-0.060
-704.587	190.330	-0.147	-0.222
-703.572	-104.488	-0.332	0.077
-702.558	52.282	0.187	0.180
-701.543	-72.556	0.220	-0.082
-700.529	800.000	0.022	0.092
-699.514	-141.671	-0.163	-0.016
-698.499	96.980	0.225	0.260
-697.485	-73.816	0.345	-0.126
-696.470	451.091	-0.139	-0.310
-695.456	82.309	0.119	-0.130
-694.441	-101.857	-0.182	0.044
-693.426	-98.938	0.154	-0.039
-692.412	123.131	0.257	-0.324
-691.397	-46.462	0.225	0.111
-690.383	-136.030	-0.175	0.021
-689.368	-200.000	-0.007	0.140
-688.354	-179.103	0.162	-0.004
-687.339	46.229	0.146	-0.136
-686.324	186.011	-0.073	-0.109
-685.310	289.278	0.092	-0.168
-684.295	-200.000	0.007	-0.314
-683.281	-125.122	0.382	-0.059
-682.266	59.872	-0.213	0.212
-681.251	-39.681	0.100	0.053
-680.237	-4.193	-0.389	-0.271
-679.222	-95.767	-0.084	-0.023
-678.208	-82.660	-0.120	0.039
-677.193	-135.844	-0.341	-0.041
-676.178	-31.439	0.081	-0.046
-675.164	-200.000	-0.004	-0.058
-674.149	800.000	-0.151	-0.543
-673.135	-103.800	0.392	-0.092
-672.120	246.268	-0.080	0.136
-671.105	72.814	-0.109	0.114
-670.091	684.642	0.110	-0.290
-669.076	-70.715	-0.123	-0.047
-668.062	-118.833	-0.409	0.072
-667.047	-200.000	0.013	-0.075
-666.032	-63.386	-0.162	0.067
-665.018	-200.000	-0.018	0.147
-664.003	-70.421	0.598	0.228
-662.989	-52.783	-0.211	0.098
-661.974	46.332	-0.199	-0.185
-660.959	-70.081	0.086	0.033
-659.945	127.811	0.180	-0.230
-658.930	142.406	-0.125	0.166
-657.916	-131.050	0.083	0.011
-656.901	800.000	0.043	0.147
-655.886	-9.967	-0.298	-0.199
-654.872	-200.000	-0.015	0.222
-653.857	-59.626	-0.281	0.121
-652.843	-109.477	0.315	0.067
-651.828	-200.000	0.017	-0.076
-650.814	-123.717	0.309	0.049
-649.799	-200.000	0.083	0.495
-648.784	200.089	-0.099	0.153
-647.770	111.654	-0.157	-0.191
-646.755	-103.825	-0.276	-0.065
-645.741	46.195	-0.189	0.176
-644.726	-200.000	-0.008	-0.131
-643.711	-200.000	-0.025	-0.268
-642.697	-200.000	-0.062	-0.297
-641.682	800.000	-0.137	0.428
-640.668	-200.000	0.010	0.285
-639.653	12.474	-0.276	0.214
-638.638	-200.000	0.018	0.200
-637.624	-113.503	-0.197	-0.039
-636.609	15.514	0.090	0.071
-635.595	126.110	-0.143	-0.181
-634.580	-200.000	0.006	0.061
-633.565	-178.988	-0.280	-0.006
-632.551	800.000	-0.063	-0.183
-631.536	-200.000	0.015	0.305
-630.522	267.317	-0.150	-0.263
-629.507	779.564	-0.057	-0.157
-628.492	9.946	-0.103	0.078
-627.478	90.930	-0.167	0.188
-626.463	11.022	0.169	-0.129
-625.449	-63.054	0.055	-0.023
-624.434	-75.825	0.056	0.020
-623.419	-85.524	0.149	0.047
-622.405	-200.000	0.010	0.074
-621.390	396.908	-0.096	0.201
-620.376	39.516	0.525	-0.472
-619.361	-117.855	-0.068	0.012
-618.346	-22.085	0.287	-0.175
-617.332	-11.538	0.134	-0.089
-616.317	-157.496	-0.350	-0.021
-615.303	-0.640	-0.096	-0.068
-614.288	-200.000	0.032	-0.237
-613.273	-108.767	-0.110	-0.024
-612.259	-200.000	0.003	0.070
-611.244	212.540	-0.119	0.188
-610.230	45.816	-0.105	-0.097
-609.215	-200.000	0.003	-0.206
-608.201	-200.000	-0.018	-0.148
-607.186	334.041	0.026	-0.050
-606.171	-200.000	-0.002	-0.008
-605.157	-23.286	-0.178	-0.107
-604.142	-200.000	-0.023	-0.219
-603.128	-200.000	0.000	-0.304
-602.113	587.214	-0.088	-0.217
-601.098	-39.674	0.171	-0.090
-600.084	800.000	0.028	0.101
-599.069	427.836	0.096	0.209
-598.055	-63.306	-0.201	0.083
-597.040	800.000	-0.110	-0.410
-596.025	463.063	-0.080	0.180
-595.011	800.000	-0.065	0.183
-593.996	-55.786	0.159	-0.071
-592.982	-21.208	-0.283	0.174
-591.967	26.699	-0.124	0.104
-590.952	-20.881	0.252	-0.155
-589.938	162.227	0.188	0.264
-588.923	-200.000	0.052	0.346
-587.909	-200.000	0.024	0.242
-586.894	230.696	-0.098	0.160
-585.879	430.108	0.079	0.172
-584.865	178.884	0.089	0.130
-583.850	103.550	0.146	-0.172
-582.836	472.640	-0.112	0.252
-581.821	-200.000	0.000	-0.199
-580.806	-41.343	0.155	-0.080
-579.792	119.206	-0.014	-0.018
-578.777	-200.000	-0.040	-0.270
-577.763	218.008	0.016	-0.025
-576.748	158.170	-0.254	0.353
-575.733	567.803	0.087	0.212
-574.719	237.085	-0.136	-0.226
-573.704	183.006	-0.064	-0.094
-572.690	69.365	0.231	-0.238
-571.675	-119.294	-0.284	0.050
-570.661	257.238	0.155	-0.268
-569.646	-31.595	-0.271	-0.153
-568.631	-87.175	0.270	0.082
-567.617	-39.113	-0.069	0.036
-566.602	4.042	-0.104	-0.076
-565.588	-23.902	0.369	0.222
-564.573	505.325	0.005	-0.012
-563.558	800.000	0.093	-0.352
-562.544	-1.584	0.259	-0.183
-561.529	-162.598	0.347	-0.017
-560.515	54.654	-0.059	-0.057
-559.500	104.012	-0.140	-0.165
-558.485	-200.000	0.063	-0.360
-557.471	357.085	0.109	-0.217
-556.456	-36.705	-0.257	-0.138
-555.442	-200.000	0.012	0.142
-554.427	800.000	0.134	-0.436
-553.412	551.180	-0.110	0.264
-552.398	800.000	-0.048	0.205
-551.383	-200.000	-0.019	0.137
-550.369	-200.000	-0.024	0.221
-549.354	-77.086	0.229	-0.080
-548.339	-77.430	0.101	-0.035
-547.325	574.833	0.053	-0.130
-546.310	56.278	-0.097	0.094
-545.296	16.606	0.080	0.063
-544.281	-200.000	0.035	0.187
-543.266	-200.000	0.052	0.235
-542.252	388.407	0.012	0.024
-541.237	102.876	-0.170	0.199
-540.223	242.041	-0.091	0.153
-539.208	-32.392	-0.202	0.113
-538.193	217.987	0.138	0.221
-537.179	-120.055	0.234	0.040
-536.164	-114.931	-0.014	0.003
-535.150	-118.001	-0.152	-0.027
-534.135	-54.963	0.222	-0.100
-533.121	-107.686	-0.288	-0.063
-532.106	55.730	0.140	0.136
-531.091	800.000	-0.057	0.162
-530.077	-200.000	-0.072	0.419
-529.062	-68.867	0.106	0.041
-528.048	86.885	-0.122	0.135
-527.033	800.000	0.089	0.272
-526.018	-63.930	-0.156	0.064
-525.004	-200.000	0.013	0.195
-523.989	-156.753	0.246	0.015
-522.975	146.555	-0.062	-0.083
-521.960	62.454	-0.121	0.121
-520.945	800.000	-0.045	-0.144
-519.931	-27.110	0.079	0.046
-518.916	-195.186	0.214	0.002
-517.902	628.723	0.025	0.063
-516.887	123.915	-0.091	-0.115
-515.872	128.553	0.060	0.077
-514.858	-90.926	0.177	0.051
-513.843	56.049	-0.314	-0.304
-512.829	-145.540	0.286	0.026
-511.814	124.424	0.084	0.105
-510.799	-58.331	-0.265	0.115
-509.785	-200.000	-0.004	0.048
-508.770	490.972	0.016	-0.036
-507.756	-25.253	-0.288	0.170
-506.741	174.465	-0.023	0.033
-505.726	-53.019	-0.095	-0.044
-504.712	-88.815	-0.033	-0.010
-503.697	162.776	0.186	-0.261
-502.683	-174.708	0.240	0.007
-501.668	22.871	0.201	-0.164
-500.653	-200.000	-0.004	-0.033
-499.639	61.643	0.145	-0.144
-498.624	-74.669	-0.162	-0.058
-497.610	150.335	0.125	0.169
-496.595	417.039	-0.027	-0.058
-495.581	-0.702	0.282	-0.200
-494.566	97.222	-0.193	0.222
-493.551	195.105	0.182	0.276
-492.537	84.729	-0.059	-0.064
-491.522	-137.995	0.224	0.025
-490.508	-43.073	0.329	0.167
-489.493	800.000	-0.084	-0.337
-488.478	204.985	-0.029	-0.045
-487.464	-29.799	0.152	0.087
-486.449	800.000	-0.058	-0.245
-485.435	305.815	0.101	0.188
-484.420	91.716	0.126	0.142
-483.405	144.602	0.264	0.352
-482.391	-200.000	0.008	-0.239
-481.376	-149.707	-0.350	0.028
-480.362	-200.000	0.026	-0.305
-479.347	-37.599	0.336	0.179
-478.332	-132.922	-0.081	-0.010
-477.318	800.000	-0.059	-0.229
-476.303	109.805	0.248	-0.296
-475.289	2.053	0.148	-0.107
-474.274	741.358	0.151	0.404
-473.259	3.044	-0.206	-0.149
-472.245	800.000	-0.013	-0.051
-471.230	86.643	-0.207	-0.228
-470.216	-66.045	-0.173	0.069
-469.201	-200.000	0.007	0.215
-468.186	697.758	-0.049	-0.128
-467.172	81.982	-0.064	0.070
-466.157	-96.716	-0.264	-0.069
-465.143	-15.302	-0.138	-0.088
-464.128	46.306	-0.136	-0.126
-463.113	-70.475	0.418	-0.158
-462.099	-200.000	0.047	0.362
-461.084	-51.349	-0.177	0.083
-460.070	301.723	-0.045	0.082
-459.055	41.422	0.240	-0.217
-458.040	137.373	0.106	-0.138
-457.026	-200.000	0.001	-0.260
-456.011	18.333	0.189	0.150
-454.997	41.807	0.146	-0.132
-453.982	-58.926	-0.218	-0.094
-452.968	224.723	-0.053	0.086
-451.953	-13.732	-0.201	-0.130
-450.938	299.279	0.051	-0.094
-449.924	-200.000	0.081	-0.528
-448.909	800.000	-0.165	-0.552
-447.895	-78.316	-0.147	-0.050
-446.880	-131.281	0.151	0.020
-445.865	-77.813	-0.216	0.074
-444.851	-75.104	0.032	0.011
-443.836	-200.000	-0.009	0.215
-442.822	-121.510	0.124	-0.021
-441.807	21.175	0.101	-0.082
-440.792	-47.503	0.147	-0.071
-439.778	-200.000	0.021	-0.099
-438.763	259.064	-0.070	-0.120
-437.749	-2.692	-0.234	-0.163
-436.734	321.339	-0.167	-0.318
-435.719	-137.782	0.384	-0.043
-434.705	-51.382	-0.224	0.105
-433.690	108.142	-0.129	-0.154
-432.676	32.404	0.121	0.104
-431.661	-194.867	-0.325	0.003
-430.646	-128.960	0.318	0.044
-429.632	107.430	-0.088	0.104
-428.617	30.409	-0.344	-0.293
-427.603	-130.505	-0.249	0.034
-426.588	18.987	-0.065	0.052
-425.573	-14.422	-0.246	0.158
-424.559	746.271	-0.053	-0.143
-423.544	-200.000	-0.105	0.477
-422.530	-193.134	-0.275	0.002
-421.515	341.771	-0.187	-0.364
-420.500	-108.513	0.146	-0.031
-419.486	-89.048	-0.135	0.040
-418.471	42.369	0.211	-0.191
-417.457	-91.287	-0.367	-0.105
-416.442	800.000	0.040	-0.134
-415.428	800.000	-0.029	-0.095
-414.413	-127.396	0.175	-0.025
-413.398	-73.822	0.218	-0.079
-412.384	7.112	-0.224	-0.166
-411.369	48.853	-0.057	0.053
-410.355	-200.000	-0.023	0.260
-409.340	279.267	0.079	0.140
-408.325	-106.998	0.238	0.052
-407.311	-19.221	-0.161	0.100
-406.296	295.026	-0.060	0.109
-405.282	-20.430	0.387	-0.237
-404.267	11.420	0.205	-0.156
-403.252	800.000	0.046	-0.162
-402.238	347.467	0.203	0.398
-401.223	61.339	-0.226	0.223
-400.209	-73.158	-0.322	-0.117
-399.194	368.429	0.102	0.204
-398.179	93.184	-0.201	0.227
-397.165	72.036	0.094	0.098
-396.150	-105.730	0.294	0.066
-395.136	-38.336	0.241	0.127
-394.121	-152.340	-0.135	0.010
-393.106	36.621	0.279	-0.245
-392.092	-167.292	-0.223	0.009
-391.077	-200.000	-0.003	-0.115
-390.063	252.790	-0.040	0.067
-389.048	-118.812	0.173	-0.030
-388.033	-200.000	0.041	0.509
-387.019	-200.000	-0.054	0.324
-386.004	-200.000	-0.004	0.109
-384.990	-133.017	0.122	0.015
-383.975	-200.000	0.011	0.139
-382.960	-197.409	-0.075	-0.000
-381.946	-200.000	-0.027	-0.268
-380.931	-30.324	-0.224	-0.127
-379.917	-5.587	-0.302	-0.206
-378.902	-108.596	-0.291	-0.062
-377.888	274.361	-0.149	-0.262
-376.873	457.379	-0.028	0.061
-375.858	-200.000	-0.038	-0.247
-374.844	-31.981	-0.285	0.159
-373.829	800.000	-0.066	-0.270
-372.815	-165.050	-0.053	0.002
-371.800	-64.044	0.358	0.145
-370.785	-200.000	-0.038	0.212
-369.771	-200.000	0.003	-0.492
-368.756	16.043	0.251	-0.196
-367.742	-123.893	-0.115	0.018
-366.727	-120.474	0.354	-0.060
-365.712	800.000	0.023	0.076
-364.698	268.991	0.177	-0.309
-363.683	38.896	-0.205	0.182
-362.669	-200.000	-0.013	0.336
-361.654	-62.392	0.169	0.070
-360.639	-103.721	0.215	0.050
-359.625	-200.000	0.004	0.107
-358.610	273.117	0.088	-0.155
-357.596	186.723	0.061	-0.091
-356.581	-143.352	-0.396	0.038
-355.566	263.382	0.083	-0.143
-354.552	69.583	-0.120	0.123
-353.537	-200.000	-0.012	0.345
-352.523	109.061	-0.303	-0.360
-351.508	-97.130	0.181	0.047
-350.493	-154.554	0.177	0.012
-349.479	-200.000	-0.023	0.252
-348.464	800.000	0.038	0.142
-347.450	-117.514	0.121	-0.022
-346.435	55.131	-0.055	-0.053
-345.420	-109.601	0.268	-0.056
-344.406	-200.000	0.046	0.234
-343.391	381.250	-0.097	-0.198
-342.377	553.642	0.092	0.220
-341.362	-200.000	0.024	-0.152
-340.348	122.239	0.099	0.122
-339.333	-1.158	-0.036	0.025
-338.318	-200.000	0.027	0.391
-337.304	-91.588	-0.323	-0.091
-336.289	418.132	0.052	-0.110
-335.275	274.342	-0.008	0.014
-334.260	20.320	-0.203	-0.163
-333.245	-200.000	0.016	-0.079
-332.231	-118.646	-0.165	0.029
-331.216	-61.745	0.247	0.103
-330.202	367.879	-0.131	0.262
-329.187	-200.000	-0.055	0.313
-328.172	553.492	-0.066	0.157
-327.158	-200.000	0.004	0.058
-326.143	207.327	0.142	-0.221
-325.129	800.000	-0.072	-0.250
-324.114	-44.986	0.144	0.071
-323.099	28.191	0.245	-0.205
-322.085	800.000	-0.123	-0.390
-321.070	-92.545	-0.110	0.031
-320.056	-200.000	0.003	-0.248
-319.041	800.000	-0.104	-0.298
-318.026	27.146	-0.009	0.007
-317.012	-200.000	-0.005	0.134
-315.997	-113.412	-0.353	-0.069
-314.983	542.287	-0.105	-0.247
-313.968	-25.022	0.199	-0.117
-312.953	800.000	0.034	0.134
-311.939	-84.736	0.298	0.093
-310.924	-166.160	0.167	0.007
-309.910	133.255	0.196	0.252
-308.895	34.098	0.249	0.215
-307.880	276.247	0.100	-0.177
-306.866	800.000	-0.090	-0.368
-305.851	800.000	0.069	-0.236
-304.837	800.000	0.042	0.170
-303.822	-200.000	0.024	0.107
-302.807	331.975	-0.191	0.365
-301.793	-131.274	0.139	-0.018
-300.778	-56.260	0.072	0.032
-299.764	224.529	-0.082	0.132
-298.749	5.947	-0.204	0.150
-297.735	175.359	0.047	-0.068
-296.720	-200.000	-0.022	-0.119
-295.705	800.000	0.055	0.180
-294.691	232.414	0.194	-0.316
-293.676	-93.496	-0.082	-0.022
-292.662	109.273	0.161	0.191
-291.647	-102.754	-0.204	-0.048
-290.632	-200.000	0.004	0.052
-289.618	394.620	-0.050	0.103
-288.603	-75.315	0.040	0.014
-287.589	-200.000	-0.006	0.143
-286.574	-18.654	-0.191	0.118
-285.559	25.227	-0.221	0.182
-284.545	-200.000	0.007	0.219
-283.530	709.155	0.099	0.260
-282.516	-200.000	-0.030	0.229
-281.501	140.723	-0.073	0.096
-280.486	-119.690	0.240	0.041
-279.472	-87.828	-0.321	-0.096
-278.457	-200.000	-0.012	-0.318
-277.443	-47.126	0.211	-0.102
-276.428	-53.530	0.064	-0.029
-275.413	6.699	-0.158	0.116
-274.399	-120.955	0.445	-0.074
-273.384	-126.230	0.184	0.027
-272.370	180.164	-0.140	0.203
-271.355	14.649	-0.213	0.165
-270.340	-54.025	-0.092	-0.041
-269.326	-40.926	-0.136	-0.070
-268.311	-108.583	-0.274	0.058
-267.297	-200.000	-0.041	0.347
-266.282	-200.000	-0.018	-0.202
-265.267	-148.476	0.047	0.004
-264.253	-72.236	0.278	0.102
-263.238	23.863	-0.122	-0.099
-262.224	-200.000	0.213	-0.001
-261.209	166.245	-0.042	0.058
-260.195	-90.244	0.285	-0.082
-259.180	-63.409	-0.343	-0.140
-258.165	138.166	0.189	0.245
-257.151	-200.000	-0.000	0.155
-256.136	9.160	-0.067	-0.050
-255.122	-100.278	0.094	0.023
-254.107	438.612	0.074	-0.160
-253.092	-166.400	0.276	-0.011
-252.078	536.536	0.051	-0.120
-251.063	14.995	0.176	0.137
-250.049	-11.046	0.036	-0.023
-249.034	-77.491	-0.292	0.100
-248.019	83.820	-0.255	0.275
-247.005	-121.450	0.312	0.051
-245.990	-80.554	-0.299	0.098
-244.976	-200.000	0.018	-0.198
-243.961	-61.598	0.448	-0.186
-242.946	115.829	-0.244	-0.296
-241.932	-200.000	0.031	0.213
-240.917	731.569	-0.034	-0.089
-239.903	-200.000	0.031	-0.399
-238.888	-104.330	-0.092	-0.021
-237.873	-79.668	-0.303	0.101
-236.859	27.751	-0.116	0.096
-235.844	-200.000	-0.046	0.228
-234.830	-200.000	0.006	-0.189
-233.815	-120.682	0.207	-0.035
-232.800	-200.000	-0.025	-0.116
-231.786	-12.987	-0.124	-0.080
-230.771	-200.000	-0.018	-0.123
-229.757	-200.000	-0.015	-0.223
-228.742	195.110	0.066	0.099
-227.727	-61.480	-0.241	-0.100
-226.713	-55.751	0.239	-0.106
-225.698	-36.903	-0.201	-0.107
-224.684	800.000	0.074	-0.281
-223.669	800.000	-0.034	0.142
-222.655	-72.620	0.259	0.095
-221.640	-200.000	0.010	0.079
-220.625	-124.978	-0.066	-0.010
-219.611	264.002	0.024	-0.041
-218.596	72.830	-0.154	-0.159
-217.582	-23.662	0.096	0.057
-216.567	281.426	0.128	-0.226
-215.552	-0.981	0.167	-0.116
-214.538	227.748	-0.177	0.284
-213.523	-200.000	0.024	-0.113
-212.509	3.150	0.245	-0.176
-211.494	-167.208	0.302	0.012
-210.479	-200.000	0.066	-0.376
-209.465	-200.000	-0.029	-0.155
-208.450	-135.429	0.247	-0.029
-207.436	7.796	-0.150	-0.111
-206.421	597.600	0.110	-0.269
-205.406	315.105	0.195	0.364
-204.392	171.407	0.113	0.161
-203.377	-200.000	0.015	-0.082
-202.363	-36.826	0.196	0.104
-201.348	21.050	-0.219	0.176
-200.333	-70.421	-0.155	0.058
-199.319	771.157	0.098	0.264
-198.304	180.969	-0.186	0.270
-197.290	140.796	0.057	0.074
-196.275	419.916	-0.066	-0.141
-195.260	127.723	0.168	0.211
-194.246	35.576	0.062	0.054
-193.231	15.523	-0.215	-0.167
-192.217	115.356	-0.059	-0.071
-191.202	-74.678	0.094	-0.033
-190.187	-70.275	0.383	-0.144
-189.173	-200.000	-0.005	0.187
-188.158	426.328	0.067	-0.143
-187.144	-95.252	-0.401	-0.107
-186.129	95.444	-0.209	0.236
-185.114	-116.606	0.218	0.040
-184.100	-131.924	-0.156	-0.020
-183.085	-200.000	0.023	-0.184
-182.071	-140.607	-0.225	-0.023
-181.056	44.608	0.103	0.094
-180.042	244.959	0.118	0.196
-179.027	-106.247	-0.365	-0.081
-178.012	338.632	-0.145	0.279
-176.998	274.108	-0.147	-0.257
-175.983	-200.000	-0.043	-0.279
-174.969	251.780	0.043	0.073
-173.954	644.704	0.061	-0.153
-172.939	-41.391	-0.121	-0.061
-171.925	-68.590	0.089	-0.034
-170.910	-105.601	0.168	0.038
-169.896	768.144	0.010	-0.026
-168.881	-170.410	-0.260	0.009
-167.866	-7.856	0.166	0.111
-166.852	-200.000	0.024	-0.179
-165.837	6.991	0.088	0.064
-164.823	800.000	-0.074	0.312
-163.808	-80.829	0.331	0.108
-162.793	800.000	-0.042	0.156
-161.779	86.713	-0.062	0.068
-160.764	-153.029	-0.414	-0.029
-159.750	-162.173	0.301	-0.015
-158.735	216.483	-0.012	-0.019
-157.720	-65.985	0.211	0.083
-156.706	800.000	0.055	0.149
-155.691	-3.814	-0.086	0.059
-154.677	110.901	0.081	-0.096
-153.662	-26.498	0.092	0.053
-152.647	109.507	-0.193	0.228
-151.633	-200.000	0.029	0.316
-150.618	704.970	-0.068	-0.176
-149.604	797.213	0.046	0.125
-148.589	-107.934	0.418	-0.090
-147.574	-200.000	0.065	-0.377
-146.560	192.487	-0.104	-0.154
-145.545	-87.052	-0.118	0.035
-144.531	157.355	-0.155	-0.212
-143.516	-117.180	-0.297	-0.053
-142.502	-131.390	0.060	-0.008
-141.487	-97.649	-0.140	0.036
-140.472	-200.000	0.069	-0.382
-139.458	53.375	0.241	-0.228
-138.443	-123.964	-0.066	0.010
-137.429	-129.864	-0.242	0.033
-136.414	-200.000	0.014	0.226
-135.399	83.501	-0.151	-0.163
-134.385	189.392	0.136	0.200
-133.370	-90.369	-0.067	0.019
-132.356	-156.383	0.165	0.010
-131.341	-200.000	0.010	-0.084
-130.326	-121.266	-0.279	-0.046
-129.312	53.803	0.036	-0.034
-128.297	167.031	0.083	-0.116
-127.283	107.387	0.291	-0.341
-126.268	-106.016	-0.447	-0.099
-125.253	-104.993	-0.237	0.053
-124.239	-200.000	-0.001	-0.111
-123.224	-52.083	-0.396	0.181
-122.210	-155.333	-0.293	0.019
-121.195	22.362	0.275	-0.222
-120.180	118.162	0.057	-0.070
-119.166	-122.398	-0.088	-0.014
-118.151	-144.503	0.128	-0.012
-117.137	34.458	0.267	0.229
-116.122	800.000	0.021	-0.063
-115.107	-158.707	0.184	-0.010
-114.093	-200.000	0.017	-0.125
-113.078	-6.783	0.218	0.146
-112.064	-115.449	-0.229	0.043
-111.049	800.000	0.015	-0.052
-110.034	-66.946	0.129	0.050
-109.020	-129.709	0.120	0.016
-108.005	107.671	-0.297	-0.348
-106.991	11.577	-0.218	-0.165
-105.976	339.619	0.065	0.124
-104.962	23.212	-0.041	-0.033
-103.947	-104.706	0.383	0.087
-102.932	-108.166	-0.031	-0.007
-101.918	14.300	0.140	-0.108
-100.903	609.152	0.100	-0.245
-99.889	-72.573	0.231	0.084
-98.874	-200.000	0.077	0.337
-97.859	50.916	0.343	0.320
-96.845	-99.662	0.031	0.008
-95.830	-86.346	0.051	0.015
-94.816	-200.000	-0.035	-0.198
-93.801	-63.931	0.211	-0.085
-92.786	66.607	-0.111	-0.111
-91.772	-6.183	0.031	-0.021
-90.757	34.346	-0.181	-0.155
-89.743	77.826	0.120	-0.126
-88.728	75.269	0.075	0.078
-87.713	664.529	0.074	0.189
-86.699	500.759	0.030	0.067
-85.684	115.571	0.108	0.129
-84.670	-200.000	-0.019	-0.339
-83.655	-107.463	-0.586	0.126
-82.640	-39.310	-0.243	-0.125
-81.626	-58.521	0.234	0.100
-80.611	53.041	-0.102	-0.096
-79.597	269.824	0.066	-0.114
-78.582	12.060	0.212	-0.161
-77.567	-200.000	-0.021	-0.116
-76.553	800.000	0.039	-0.145
-75.538	171.394	0.133	-0.188
-74.524	-163.482	-0.057	0.003
-73.509	-48.253	0.134	-0.063
-72.494	-39.039	0.098	0.051
-71.480	-85.969	-0.318	-0.097
-70.465	-71.377	-0.258	0.095
-69.451	572.517	-0.089	0.214
-68.436	603.729	-0.024	0.058
-67.422	800.000	0.019	-0.076
-66.407	-97.113	0.163	0.042
-65.392	674.904	-0.123	-0.312
-64.378	-123.213	0.237	0.037
-63.363	-111.053	0.129	0.026
-62.349	-103.619	-0.211	0.049
-61.334	52.318	-0.924	-0.865
-60.319	800.000	0.070	0.243
-59.305	331.699	-0.557	-1.056
-58.290	445.499	0.443	0.956
-57.276	800.000	0.424	1.401
-56.261	-200.000	95.965	597.275
-55.246	565.274	1368.021	3257.331
-54.232	161.128	2555.681	3507.972
-53.217	106.332	2266.746	2638.035
-52.203	41.235	1894.745	1681.988
-51.188	35.126	1684.661	1449.385
-50.173	32.498	1640.465	1391.905
-49.159	50.095	1687.098	1563.685
-48.144	51.632	1703.412	1590.255
-47.130	34.777	1664.333	1429.052
-46.115	31.959	1650.086	1395.836
-45.100	31.915	1644.640	1390.844
-44.086	31.780	1642.460	1387.948
-43.071	31.728	1639.818	1385.273
-42.057	31.766	1637.045	1383.159
-41.042	31.816	1635.626	1382.274
-40.027	31.725	1633.675	1379.898
-39.013	31.756	1631.643	1378.358
-37.998	31.686	1630.128	1376.505
-36.984	31.760	1628.599	1375.704
-35.969	31.772	1627.334	1374.669
-34.954	32.003	1624.796	1374.166
-33.940	31.856	1623.505	1371.943
-32.925	31.936	1621.753	1370.992
-31.911	31.838	1620.256	1368.955
-30.896	31.855	1618.496	1367.536
-29.881	31.849	1617.058	1366.223
-28.867	31.797	1615.310	1364.316
-27.852	31.957	1613.433	1363.841
-26.838	31.922	1612.135	1362.437
-25.823	31.819	1611.044	1360.712
-24.809	31.917	1609.604	1360.155
-23.794	31.885	1608.168	1358.653
-22.779	31.943	1606.312	1357.451
-21.765	31.839	1605.209	1355.715
-20.750	31.874	1603.544	1354.502
-19.736	31.847	1602.243	1353.159
-18.721	31.953	1600.378	1352.294
-17.706	31.851	1599.570	1350.821
-16.692	31.943	1597.579	1349.746
-15.677	31.991	1595.706	1348.456
-14.663	31.927	1594.662	1347.062
-13.648	31.925	1593.412	1345.937
-12.633	31.944	1591.834	1344.689
-11.619	31.870	1590.489	1342.969
-10.604	31.848	1589.011	1341.506
-9.590	31.927	1587.478	1340.730
-8.575	31.974	1585.869	1339.650
-7.560	31.918	1585.262	1338.683
-6.546	31.910	1584.095	1337.591
-5.531	31.913	1583.190	1336.793
-4.517	31.912	1581.628	1335.414
-3.502	31.836	1580.646	1333.988
-2.487	31.956	1579.219	1333.587
-1.473	31.632	1567.350	1321.223
-0.458	29.193	1547.980	1287.818
0.556	25.917	1549.403	1259.296
1.571	23.832	1573.076	1263.618
2.586	23.401	1586.750	1271.402
3.600	20.499	1531.879	1207.193
4.615	11.004	1419.972	1057.477
5.629	2.967	1355.726	959.513
6.644	1.738	1347.798	946.186
7.659	1.689	1345.952	944.497
8.673	1.634	1345.009	943.412
9.688	1.469	1343.477	941.235
10.702	1.244	1340.311	937.539
11.717	4.863	1346.764	964.410
12.731	14.828	1365.995	1040.411
13.746	23.459	1381.273	1106.043
14.761	25.835	1384.268	1123.174
15.775	26.128	1384.348	1124.966
16.790	26.343	1383.448	1125.474
17.804	26.370	1382.806	1125.020
18.819	26.660	1382.519	1126.493
19.834	26.740	1381.993	1126.461
20.848	26.747	1381.276	1125.825
21.863	26.742	1380.742	1125.258
22.877	26.763	1379.537	1124.303
23.892	26.810	1378.923	1123.996
24.907	26.748	1378.060	1122.810
25.921	26.699	1377.184	1121.693
26.936	26.711	1375.680	1120.441
27.950	26.743	1374.769	1119.801
28.965	26.891	1372.952	1119.130
29.980	26.742	1372.617	1117.840
30.994	26.715	1371.387	1116.572
32.009	26.837	1370.058	1116.146
33.023	26.834	1368.848	1115.041
34.038	26.684	1368.098	1113.412
35.053	26.710	1367.144	1112.698
36.067	26.752	1366.422	1112.267
37.082	26.837	1365.115	1111.626
38.096	26.734	1364.186	1110.141
39.111	26.789	1363.039	1109.447
40.126	26.775	1362.923	1109.165
41.140	26.732	1362.359	1108.348
42.155	26.731	1362.118	1108.046
43.169	26.773	1361.931	1108.054
44.184	26.804	1361.211	1107.558
45.199	26.741	1361.234	1107.092
46.213	26.741	1360.626	1106.502
47.228	26.843	1359.788	1106.346
48.242	26.774	1358.505	1104.785
49.257	26.790	1357.133	1103.665
50.271	26.819	1355.855	1102.707
51.286	26.746	1354.663	1101.197
52.301	26.745	1353.356	1100.031
53.315	26.695	1352.374	1098.828
54.330	26.657	1351.879	1098.104
55.344	26.781	1350.441	1097.588
56.359	26.767	1349.521	1096.655
57.374	26.834	1348.488	1096.126
58.388	26.776	1348.331	1095.552
59.403	26.824	1347.667	1095.202
60.417	26.748	1347.018	1094.122
61.432	26.723	1346.323	1093.306
62.447	26.749	1345.688	1092.855
63.461	26.712	1344.089	1091.237
64.476	26.735	1343.361	1090.688
65.490	26.759	1342.277	1089.851
66.505	26.837	1340.521	1088.799
67.520	26.765	1339.698	1087.602
68.534	26.751	1338.933	1086.799
69.549	26.872	1337.651	1086.387
70.563	26.847	1336.824	1085.474
71.578	26.829	1335.878	1084.499
72.593	26.763	1334.972	1083.274
73.607	26.837	1334.236	1083.024
74.622	26.821	1333.834	1082.506
75.636	26.769	1333.189	1081.579
76.651	26.762	1332.509	1080.884
77.666	26.832	1331.839	1080.668
78.680	26.796	1331.263	1079.887
79.695	26.777	1330.234	1078.846
80.709	26.748	1329.640	1078.095
81.724	26.735	1328.609	1077.084
82.739	26.803	1327.659	1076.627
83.753	26.792	1326.837	1075.800
84.768	26.732	1326.222	1074.851
85.782	26.730	1324.897	1073.667
86.797	26.829	1324.012	1073.440
87.812	26.711	1322.703	1071.589
88.826	26.796	1321.569	1071.074
89.841	26.806	1320.817	1070.430
90.855	26.843	1319.088	1069.154
91.870	26.821	1318.906	1068.781
92.884	26.816	1317.976	1067.900
93.899	26.796	1317.562	1067.356
94.914	26.897	1316.700	1067.157
95.928	26.906	1315.568	1066.197
96.943	26.859	1315.026	1065.387
97.957	26.890	1314.228	1064.827
98.972	26.977	1313.144	1064.370
99.987	26.811	1312.582	1062.842
101.001	26.855	1311.580	1062.196
102.016	26.785	1310.911	1061.152
103.030	26.899	1309.787	1060.811
104.045	26.942	1308.358	1059.816
105.060	26.940	1308.061	1059.470
106.074	26.895	1306.922	1058.187
107.089	26.979	1305.638	1057.546
108.103	26.894	1304.986	1056.428
109.118	26.969	1303.619	1055.662
110.133	26.922	1302.723	1054.574
111.147	26.933	1301.414	1053.486
112.162	26.893	1300.582	1052.483
113.176	26.984	1299.361	1051.930
114.191	26.930	1298.631	1050.937
115.206	26.973	1297.264	1049.983
116.220	26.969	1296.625	1049.351
117.235	27.003	1295.443	1048.499
118.249	26.929	1294.764	1047.427
119.264	26.911	1294.019	1046.628
120.279	26.984	1293.014	1046.144
121.293	26.975	1292.628	1045.690
122.308	26.944	1291.781	1044.733
123.322	26.984	1291.093	1044.311
124.337	26.974	1290.281	1043.508
125.352	26.963	1289.422	1042.657
126.366	27.052	1288.625	1042.429
127.381	27.033	1287.727	1041.499
128.395	27.060	1286.524	1040.592
129.410	27.065	1285.531	1039.724
130.424	26.945	1285.427	1038.863
131.439	26.958	1284.599	1038.173
132.454	26.895	1283.755	1037.042
133.468	26.932	1283.074	1036.610
134.483	26.925	1282.571	1036.074
135.497	26.994	1281.304	1035.348
136.512	27.020	1280.337	1034.628
137.527	27.018	1279.249	1033.644
138.541	26.978	1278.179	1032.459
139.556	27.054	1276.851	1031.728
140.570	26.877	1276.146	1030.064
141.585	26.899	1275.258	1029.381
142.600	26.973	1273.945	1028.649
143.614	27.003	1273.497	1028.366
144.629	26.946	1272.226	1026.928
145.643	26.838	1271.443	1025.593
146.658	26.909	1270.399	1025.059
147.673	26.950	1269.367	1024.370
148.687	26.980	1268.501	1023.746
149.702	26.935	1267.420	1022.529
150.716	26.844	1266.586	1021.256
151.731	26.948	1265.415	1020.806
152.746	26.917	1264.682	1019.948
153.760	26.996	1263.288	1019.177
154.775	26.960	1262.452	1018.211
155.789	27.077	1261.325	1017.872
156.804	27.021	1260.359	1016.687
157.819	26.926	1259.797	1015.610
158.833	26.997	1258.839	1015.143
159.848	27.057	1258.209	1014.881
160.862	26.957	1257.525	1013.681
161.877	27.064	1256.725	1013.543
162.892	27.019	1255.903	1012.541
163.906	27.103	1255.074	1012.253
164.921	27.091	1254.408	1011.557
165.935	27.059	1253.545	1010.596
166.950	27.109	1252.957	1010.310
167.964	27.130	1252.524	1009.989
168.979	27.127	1251.846	1009.337
169.994	27.049	1251.397	1008.452
171.008	27.067	1250.861	1008.027
172.023	27.045	1250.045	1007.162
173.037	27.151	1248.872	1006.715
174.052	26.989	1248.960	1005.801
175.067	27.074	1247.556	1005.048
176.081	27.085	1246.719	1004.344
177.096	27.000	1246.549	1003.651
178.110	27.218	1245.083	1003.584
179.125	27.215	1244.440	1002.962
180.140	27.130	1243.612	1001.739
181.154	27.178	1242.290	1000.846
182.169	27.111	1241.244	999.545
183.183	27.092	1240.558	998.803
184.198	27.185	1239.129	998.076
185.213	27.168	1238.066	997.039
186.227	27.234	1237.120	996.546
187.242	27.154	1236.672	995.659
188.256	27.215	1235.886	995.273
189.271	27.212	1234.692	994.206
190.286	27.181	1234.361	993.683
191.300	27.118	1233.807	992.808
192.315	27.175	1232.976	992.360
193.329	27.158	1233.152	992.320
194.344	27.206	1232.058	991.613
195.359	27.200	1232.039	991.479
196.373	27.194	1231.256	990.730
197.388	27.120	1231.146	990.150
198.402	27.229	1230.728	990.317
199.417	27.222	1229.898	989.527
200.432	27.204	1229.275	988.837
201.446	27.274	1228.779	988.733
202.461	27.217	1228.224	987.887
203.475	27.320	1227.240	987.572
204.490	27.275	1226.280	986.464
205.504	27.216	1225.099	985.109
206.519	27.188	1224.693	984.541
207.534	27.289	1223.491	984.035
208.548	27.226	1222.502	982.813
209.563	27.227	1221.973	982.308
210.577	27.209	1221.279	981.563
211.592	27.343	1220.437	981.524
212.607	27.254	1219.982	980.590
213.621	27.384	1218.596	980.091
214.636	27.222	1218.344	978.930
215.650	27.307	1217.297	978.456
216.665	27.188	1216.387	977.002
217.680	27.252	1215.683	976.694
218.694	27.293	1214.782	976.104
219.709	27.367	1213.998	975.781
220.723	27.371	1213.550	975.356
221.738	27.278	1212.926	974.272
222.753	27.307	1211.769	973.411
223.767	27.430	1210.953	973.328
224.782	27.438	1211.099	973.399
225.796	27.410	1210.694	972.837
226.811	27.365	1209.990	971.950
227.826	27.413	1209.053	971.365
228.840	27.417	1208.814	971.107
229.855	27.439	1208.038	970.518
230.869	27.420	1207.199	969.653
231.884	27.482	1206.420	969.272
232.899	27.481	1205.916	968.775
233.913	27.389	1205.435	967.814
234.928	27.506	1204.905	967.925
235.942	27.432	1204.494	967.118
236.957	27.396	1203.514	966.057
237.972	27.392	1202.632	965.238
238.986	27.496	1201.978	965.182
240.001	27.631	1201.108	965.112
241.015	27.550	1200.845	964.386
242.030	27.626	1200.160	964.154
243.045	27.631	1199.333	963.428
244.059	27.608	1198.495	962.547
245.074	27.613	1197.566	961.745
246.088	27.589	1197.454	961.443
247.103	27.669	1195.824	960.472
248.117	27.591	1195.314	959.562
249.132	27.513	1194.822	958.676
250.147	27.624	1194.061	958.562
251.161	27.706	1193.177	958.199
252.176	27.644	1192.538	957.275
253.190	27.689	1191.951	956.954
254.205	27.646	1191.214	956.054
255.220	27.626	1190.905	955.618
256.234	27.654	1190.450	955.315
257.249	27.742	1189.917	955.259
258.263	27.686	1189.222	954.327
259.278	27.792	1188.427	954.157
260.293	27.792	1187.952	953.692
261.307	27.776	1187.695	953.318
262.322	27.773	1186.926	952.603
263.336	27.721	1186.028	951.524
264.351	27.643	1185.959	950.979
265.366	27.728	1185.305	950.811
266.380	27.803	1184.195	950.228
267.395	27.786	1183.557	949.544
268.409	27.718	1182.846	948.534
269.424	27.717	1182.468	948.143
270.439	27.683	1182.381	947.814
271.453	27.715	1181.375	947.091
272.468	27.718	1180.225	946.098
273.482	27.665	1179.749	945.359
274.497	27.777	1179.790	945.890
275.512	27.759	1179.351	945.357
276.526	27.836	1178.098	944.669
277.541	27.836	1177.350	943.988
278.555	27.824	1177.056	943.607
279.570	27.864	1176.264	943.094
280.585	27.822	1175.536	942.210
281.599	27.845	1174.534	941.440
282.614	27.850	1173.732	940.743
283.628	27.871	1172.859	940.065
284.643	27.899	1172.327	939.700
285.657	27.920	1171.201	938.822
286.672	27.926	1170.001	937.808
287.687	27.999	1169.584	937.767
288.701	27.989	1169.286	937.395
289.716	27.937	1168.402	936.337
290.730	28.013	1167.437	935.867
291.745	27.869	1167.112	934.785
292.760	28.104	1166.384	935.323
293.774	27.956	1166.019	934.192
294.789	27.983	1165.635	933.941
295.803	27.950	1164.994	933.178
296.818	27.962	1164.383	932.664
297.833	28.071	1163.450	932.393
298.847	28.073	1162.680	931.699
299.862	28.037	1161.861	930.779
300.876	28.079	1161.355	930.503
301.891	28.045	1161.171	930.104
302.906	28.118	1160.096	929.529
303.920	28.185	1159.216	929.083
304.935	28.180	1158.897	928.719
305.949	28.003	1158.582	927.486
306.964	28.171	1157.891	927.704
307.979	28.080	1157.156	926.571
308.993	28.234	1156.532	926.769
310.008	28.175	1155.280	925.387
311.022	28.237	1154.895	925.310
312.037	28.268	1154.091	924.742
313.052	28.260	1152.993	923.739
314.066	28.213	1152.534	923.048
315.081	28.210	1151.621	922.222
316.095	28.275	1150.778	921.791
317.110	28.241	1150.340	921.190
318.125	28.307	1149.633	920.876
319.139	28.258	1149.275	920.260
320.154	28.103	1149.186	919.328
321.168	28.155	1148.212	918.729
322.183	28.292	1147.448	918.724
323.197	28.183	1147.259	917.944
324.212	28.251	1146.665	917.729
325.227	28.310	1146.178	917.553
326.241	28.289	1145.686	916.972
327.256	28.344	1144.768	916.431
328.270	28.323	1143.761	915.442
329.285	28.184	1143.486	914.444
330.300	28.383	1142.459	914.536
331.314	28.355	1141.613	913.638
332.329	28.443	1140.772	913.323
333.343	28.448	1140.045	912.686
334.358	28.434	1139.522	912.116
335.373	28.416	1138.931	911.473
336.387	28.581	1137.866	911.360
337.402	28.586	1136.842	910.482
338.416	28.491	1136.980	910.043
339.431	28.480	1136.154	909.246
340.446	28.542	1135.427	908.887
341.460	28.483	1135.057	908.220
342.475	28.467	1134.366	907.510
343.489	28.503	1133.205	906.675
344.504	28.483	1132.449	905.892
345.519	28.599	1131.584	905.692
346.533	28.505	1131.155	904.809
347.548	28.587	1130.271	904.425
348.562	28.544	1129.499	903.513
349.577	28.521	1128.741	902.712
350.592	28.601	1127.728	902.219
351.606	28.441	1127.614	901.259
352.621	28.547	1126.797	901.047
353.635	28.651	1125.986	900.833
354.650	28.602	1125.774	900.339
355.665	28.675	1124.795	899.833
356.679	28.702	1124.293	899.487
357.694	28.683	1123.560	898.728
358.708	28.672	1123.263	898.357
359.723	28.676	1122.476	897.668
360.738	28.683	1122.156	897.365
361.752	28.735	1121.163	896.749
362.767	28.834	1120.733	896.805
363.781	28.693	1120.284	895.679
364.796	28.689	1119.779	895.176
365.810	28.762	1119.246	895.030
366.825	28.888	1118.470	894.942
367.840	28.876	1117.928	894.373
368.854	29.005	1117.359	894.462
369.869	28.838	1116.495	892.883
370.883	28.936	1115.564	892.532
371.898	28.877	1115.179	891.861
372.913	28.864	1114.691	891.328
373.927	28.826	1114.195	890.668
374.942	28.875	1113.691	890.424
375.956	28.939	1112.989	890.095
376.971	28.844	1113.165	889.698
377.986	28.927	1112.262	889.297
379.000	28.982	1111.675	889.015
380.015	29.030	1110.963	888.597
381.029	28.967	1110.104	887.529
382.044	28.977	1109.715	887.189
383.059	28.898	1109.308	886.401
384.073	29.109	1108.491	886.689
385.088	29.141	1107.375	885.869
386.102	28.989	1106.788	884.590
387.117	29.038	1105.958	884.086
388.132	29.112	1105.225	883.778
389.146	28.967	1104.641	882.534
390.161	29.135	1103.921	882.687
391.175	29.152	1103.317	882.207
392.190	29.033	1102.889	881.215
393.205	29.125	1102.008	880.878
394.219	29.068	1101.379	880.021
395.234	29.160	1100.671	879.817
396.248	29.124	1099.916	878.967
397.263	29.146	1098.769	878.076
398.278	29.225	1098.140	877.872
399.292	29.271	1097.800	877.744
400.307	29.208	1097.494	877.120
401.321	29.196	1096.723	876.370
402.336	29.116	1095.916	875.264
403.350	29.133	1095.310	874.783
404.365	29.265	1094.695	874.842
405.380	29.298	1094.004	874.369
406.394	29.308	1093.058	873.586
407.409	29.310	1092.239	872.860
408.423	29.354	1091.954	872.765
409.438	29.344	1091.153	872.001
410.453	29.351	1090.578	871.497
411.467	29.365	1089.489	870.617
412.482	29.414	1088.911	870.306
413.496	29.321	1088.386	869.375
414.511	29.290	1087.880	868.744
415.526	29.389	1087.694	868.988
416.540	29.513	1086.576	868.597
417.555	29.540	1086.142	868.302
418.569	29.436	1085.766	867.437
419.584	29.588	1085.278	867.684
420.599	29.533	1085.155	867.250
421.613	103.709	1323.117	1459.993
422.628	96.494	1357.763	1460.077
