DTS Sentinel unit serial number:	SN413079Multiplexer serial number:	ORYXHardware model number:	OX4-SRSoftware version number:	ORYX F/W v4.00 Oryx Data Collector v3.7.2.0data status	okinstallation	princeton_trtdifferential loss correction	single-endedforward channel	channel 2reverse channel	N/Adate	2019/09/19time	11:19:35forward acquisition time	60.00reverse acquisition time	0.00gamma	496.2192k internal	0.2341k external	0.2341temperature offset calibration	1.0011default loss term (dB/km)	0.3790temperature slope calibration	1.0000multiplexer offset coefficient	1.0000multiplexer slope coefficient	1.0000fibre end	0.00T internal ref (°C)	25.19T ext. ref 1 (°C)	0.78T ext. ref 2 (°C)	20.82length (m)	temperature (°C)	Stokes	anti-Stokes-747.200	-28.113	-0.343	0.199
-746.185	-200.000	0.014	0.065
-745.171	-31.690	0.272	-0.153
-744.156	87.036	-0.198	0.219
-743.142	-200.000	-0.010	-0.149
-742.127	-117.466	-0.230	-0.042
-741.112	-144.235	-0.255	-0.024
-740.098	103.524	-0.071	0.084
-739.083	-119.992	-0.110	0.019
-738.069	-115.682	-0.062	-0.012
-737.054	-129.662	-0.128	0.018
-736.039	800.000	-0.012	0.041
-735.025	178.894	0.192	0.281
-734.010	649.327	-0.220	-0.563
-732.996	101.193	0.234	-0.273
-731.981	-109.868	-0.214	0.045
-730.966	672.965	-0.012	-0.032
-729.952	84.074	-0.270	0.295
-728.937	380.950	0.068	-0.140
-727.923	-27.965	-0.166	0.097
-726.908	-48.417	-0.130	-0.063
-725.894	-52.677	-0.403	-0.186
-724.879	-131.089	-0.293	0.039
-723.864	-71.086	0.242	0.091
-722.850	-136.220	0.478	0.056
-721.835	36.928	-0.108	0.096
-720.821	-200.000	0.044	-0.254
-719.806	260.847	0.108	-0.187
-718.791	-96.871	-0.308	0.081
-717.777	800.000	-0.072	-0.236
-716.762	800.000	0.039	-0.141
-715.748	-64.583	-0.136	0.055
-714.733	-138.692	0.194	0.021
-713.718	46.618	-0.186	0.172
-712.704	-37.850	-0.098	0.052
-711.689	-200.000	0.005	-0.049
-710.675	-97.098	-0.194	0.051
-709.660	800.000	-0.104	0.400
-708.645	-200.000	0.000	-0.193
-707.631	800.000	-0.007	-0.021
-706.616	7.075	0.018	-0.014
-705.602	-200.000	0.036	-0.270
-704.587	-200.000	-0.045	-0.227
-703.572	-67.692	-0.348	-0.136
-702.558	-200.000	0.020	-0.331
-701.543	-114.092	-0.054	0.011
-700.529	514.371	-0.118	0.275
-699.514	-200.000	0.022	-0.168
-698.499	-8.041	0.254	0.172
-697.485	-44.457	-0.089	-0.045
-696.470	-200.000	0.072	0.315
-695.456	-102.366	-0.265	0.064
-694.441	78.753	0.230	-0.246
-693.426	-161.715	-0.104	0.005
-692.412	107.855	-0.103	-0.122
-691.397	800.000	0.022	-0.074
-690.383	161.971	-0.201	-0.282
-689.368	227.717	0.068	-0.110
-688.354	-186.832	0.270	0.004
-687.339	-200.000	-0.007	-0.045
-686.324	49.312	-0.048	-0.045
-685.310	-180.406	0.257	-0.005
-684.295	-153.109	-0.259	0.018
-683.281	-88.964	-0.403	0.119
-682.266	-200.000	0.010	-0.123
-681.251	159.406	0.041	-0.057
-680.237	129.094	-0.122	0.155
-679.222	-200.000	0.013	0.068
-678.208	800.000	0.072	0.222
-677.193	-102.197	-0.056	0.013
-676.178	346.737	0.179	0.352
-675.164	11.687	0.153	0.118
-674.149	-33.853	-0.248	-0.136
-673.135	101.475	-0.146	-0.170
-672.120	-200.000	0.024	0.146
-671.105	367.184	-0.044	0.089
-670.091	-68.443	-0.163	0.063
-669.076	108.048	0.117	0.139
-668.062	217.935	-0.028	0.045
-667.047	-200.000	0.011	-0.116
-666.032	577.963	-0.054	-0.132
-665.018	326.997	0.078	0.148
-664.003	-97.335	0.243	0.063
-662.989	255.359	-0.174	-0.298
-661.974	800.000	0.064	0.243
-660.959	-3.582	0.400	-0.278
-659.945	-179.445	0.281	-0.006
-658.930	95.271	0.138	-0.157
-657.916	-91.519	-0.050	-0.014
-656.901	-200.000	0.006	-0.074
-655.886	78.059	-0.146	0.156
-654.872	396.075	0.123	0.257
-653.857	-104.464	0.251	-0.058
-652.843	82.787	0.224	-0.244
-651.828	-200.000	0.020	-0.344
-650.814	272.711	-0.204	-0.360
-649.799	-200.000	-0.044	-0.307
-648.784	102.980	-0.059	0.069
-647.770	800.000	-0.021	-0.068
-646.755	-155.256	-0.264	0.017
-645.741	-72.354	-0.302	-0.112
-644.726	-134.101	-0.154	0.019
-643.711	-83.143	-0.117	0.037
-642.697	66.577	0.013	0.013
-641.682	-86.079	0.031	0.010
-640.668	47.687	-0.185	-0.172
-639.653	800.000	-0.034	-0.149
-638.638	129.345	-0.118	-0.150
-637.624	-112.304	-0.328	-0.066
-636.609	-3.325	-0.068	-0.047
-635.595	-200.000	-0.024	0.392
-634.580	-142.116	0.337	0.033
-633.565	-45.863	-0.133	0.066
-632.551	637.608	0.085	-0.215
-631.536	-77.707	-0.132	-0.046
-630.522	800.000	-0.018	-0.065
-629.507	754.484	-0.100	0.269
-628.492	104.154	-0.132	-0.155
-627.478	114.122	-0.016	0.019
-626.463	130.679	-0.126	-0.161
-625.449	-200.000	0.014	-0.113
-624.434	800.000	-0.038	0.110
-623.419	-56.468	0.199	0.088
-622.405	-12.843	0.369	-0.240
-621.390	-64.331	-0.208	0.085
-620.376	-200.000	0.007	0.053
-619.361	-126.216	0.309	0.046
-618.346	29.330	0.250	0.212
-617.332	800.000	-0.118	-0.367
-616.317	-68.192	-0.308	0.120
-615.303	133.573	0.206	0.266
-614.288	-200.000	0.047	-0.264
-613.273	129.984	0.029	-0.037
-612.259	-144.258	-0.065	0.006
-611.244	-49.077	-0.234	0.111
-610.230	63.127	-0.040	-0.040
-609.215	-200.000	-0.111	0.539
-608.201	-57.840	0.002	0.001
-607.186	-200.000	0.010	0.169
-606.171	169.100	-0.075	-0.107
-605.157	-32.948	0.126	-0.070
-604.142	108.243	0.162	-0.192
-603.128	84.821	0.080	0.087
-602.113	-55.652	0.184	-0.082
-601.098	97.706	0.150	-0.172
-600.084	-157.317	-0.281	0.017
-599.069	-22.349	-0.062	-0.037
-598.055	12.309	-0.320	-0.246
-597.040	-73.606	0.243	-0.088
-596.025	157.821	0.011	-0.015
-595.011	-141.023	-0.413	-0.042
-593.996	-43.466	-0.305	0.154
-592.982	800.000	0.038	0.105
-591.967	-67.362	-0.328	0.128
-590.952	386.932	0.171	-0.352
-589.938	-89.207	-0.124	-0.036
-588.923	-80.505	0.198	0.066
-587.909	48.175	-0.131	0.122
-586.894	55.603	0.234	-0.225
-585.879	-86.711	0.303	0.092
-584.865	260.078	0.144	-0.248
-583.850	1.200	-0.117	0.084
-582.836	745.739	0.101	-0.272
-581.821	64.415	-0.070	0.070
-580.806	800.000	-0.062	-0.226
-579.792	65.688	0.156	0.157
-578.777	121.657	-0.179	-0.222
-577.763	37.065	0.151	0.133
-576.748	-81.341	0.115	0.038
-575.733	-200.000	-0.005	-0.078
-574.719	221.592	0.110	-0.175
-573.704	800.000	0.053	0.209
-572.690	-174.547	0.320	0.009
-571.675	-94.627	-0.106	0.029
-570.661	92.278	-0.193	-0.216
-569.646	-129.839	0.022	-0.003
-568.631	-157.528	-0.141	-0.008
-567.617	-95.544	0.241	-0.064
-566.602	-87.253	-0.281	0.085
-565.588	168.351	-0.233	0.330
-564.573	123.176	0.117	-0.146
-563.558	-79.717	-0.119	-0.040
-562.544	-61.790	-0.194	0.081
-561.529	-165.565	0.154	-0.007
-560.515	76.632	-0.101	-0.106
-559.500	-200.000	-0.024	-0.200
-558.485	763.948	0.089	-0.240
-557.471	-51.191	0.074	-0.034
-556.456	-74.612	0.066	0.024
-555.442	-111.920	0.205	-0.041
-554.427	-200.000	0.026	0.206
-553.412	195.828	-0.198	-0.299
-552.398	800.000	0.038	0.145
-551.383	800.000	-0.062	0.255
-550.369	-138.502	-0.149	-0.016
-549.354	18.484	-0.084	-0.067
-548.339	-200.000	-0.022	0.198
-547.325	-63.996	-0.098	0.040
-546.310	639.651	-0.085	0.216
-545.296	34.955	0.118	-0.102
-544.281	94.757	0.173	-0.195
-543.266	-42.237	0.068	-0.035
-542.252	-65.412	-0.105	0.042
-541.237	-59.546	-0.269	-0.115
-540.223	106.082	0.151	-0.178
-539.208	-153.869	-0.279	-0.019
-538.193	255.900	0.015	-0.025
-537.179	160.047	-0.214	0.297
-536.164	-92.279	0.231	0.065
-535.150	800.000	-0.032	0.101
-534.135	626.324	0.075	-0.189
-533.121	-82.414	-0.103	0.033
-532.106	-122.787	-0.190	0.030
-531.091	-200.000	-0.014	-0.479
-530.077	129.203	0.140	-0.178
-529.062	-72.082	-0.049	-0.018
-528.048	-68.800	-0.069	-0.026
-527.033	290.395	-0.167	0.301
-526.018	-123.398	-0.230	-0.036
-525.004	122.685	0.199	0.247
-523.989	446.382	-0.079	-0.173
-522.975	-88.317	-0.251	0.074
-521.960	-200.000	-0.008	-0.124
-520.945	-24.041	0.262	-0.156
-519.931	185.728	-0.197	-0.291
-518.916	434.041	-0.114	-0.246
-517.902	253.440	-0.157	0.266
-516.887	800.000	-0.097	0.362
-515.872	-157.009	-0.196	0.012
-514.858	528.631	0.076	0.178
-513.843	138.710	-0.100	-0.131
-512.829	6.025	0.114	-0.084
-511.814	-200.000	0.012	-0.108
-510.799	-69.710	-0.293	-0.111
-509.785	-200.000	-0.050	-0.338
-508.770	-63.636	0.172	-0.070
-507.756	-200.000	-0.032	0.363
-506.741	81.302	-0.135	-0.145
-505.726	149.118	0.093	0.126
-504.712	-26.975	-0.137	0.080
-503.697	-0.559	-0.123	0.087
-502.683	-200.000	0.002	0.140
-501.668	-200.000	-0.047	-0.360
-500.653	2.490	0.181	0.130
-499.639	-200.000	0.021	-0.144
-498.624	-4.464	0.093	0.064
-497.610	-137.855	-0.331	-0.037
-496.595	311.833	-0.096	0.178
-495.581	423.008	0.157	0.336
-494.566	44.046	0.154	-0.140
-493.551	242.201	0.027	-0.045
-492.537	-64.532	-0.113	-0.045
-491.522	-200.000	0.004	-0.145
-490.508	-5.012	-0.187	0.128
-489.493	255.369	0.080	-0.136
-488.478	-67.148	0.434	-0.170
-487.464	-200.000	-0.057	0.340
-486.449	225.316	0.112	-0.180
-485.435	-121.899	-0.126	0.021
-484.420	800.000	0.054	0.167
-483.405	541.108	-0.040	0.095
-482.391	-200.000	-0.004	0.266
-481.376	3.228	-0.169	-0.122
-480.362	31.130	-0.317	0.270
-479.347	800.000	0.046	0.171
-478.332	-200.000	-0.004	0.357
-477.318	-200.000	-0.022	0.306
-476.303	800.000	0.039	0.112
-475.289	-31.463	-0.108	0.060
-474.274	-59.096	0.273	-0.117
-473.259	-133.877	0.223	-0.028
-472.245	-200.000	-0.005	-0.155
-471.230	-168.228	0.253	0.010
-470.216	-200.000	0.022	0.156
-469.201	29.442	-0.102	-0.086
-468.186	172.491	-0.098	-0.140
-467.172	-48.418	-0.385	-0.184
-466.157	212.219	-0.083	-0.129
-465.143	0.345	0.269	0.191
-464.128	-200.000	0.022	-0.095
-463.113	210.029	-0.063	-0.098
-462.099	-193.866	-0.001	0.000
-461.084	-57.526	0.285	0.124
-460.070	-81.389	0.072	0.023
-459.055	800.000	-0.027	-0.086
-458.040	800.000	0.067	0.184
-457.026	800.000	-0.136	-0.454
-456.011	-91.837	0.196	-0.055
-454.997	-200.000	0.000	-0.040
-453.982	-200.000	0.003	-0.142
-452.968	-76.208	-0.253	-0.088
-451.953	-129.520	0.329	-0.045
-450.938	-83.835	0.296	-0.093
-449.924	-171.997	0.143	0.005
-448.909	-92.374	0.363	-0.101
-447.895	-29.932	-0.080	0.045
-446.880	-200.000	0.009	0.205
-445.865	-152.197	-0.635	-0.046
-444.851	-8.664	0.408	0.271
-443.836	-53.986	0.037	-0.017
-442.822	-33.299	-0.452	-0.248
-441.807	-31.070	-0.135	-0.075
-440.792	223.099	-0.041	0.066
-439.778	800.000	0.052	-0.160
-438.763	-49.614	0.137	-0.065
-437.749	16.817	0.177	-0.139
-436.734	558.277	0.098	-0.235
-435.719	-20.286	0.388	-0.237
-434.705	-105.269	0.130	-0.029
-433.690	-11.295	0.216	0.141
-432.676	587.108	0.086	-0.209
-431.661	-79.523	-0.256	-0.086
-430.646	3.113	0.381	-0.274
-429.632	-200.000	-0.028	-0.130
-428.617	194.568	-0.112	-0.168
-427.603	147.630	-0.271	-0.361
-426.588	-200.000	-0.008	-0.104
-425.573	800.000	-0.054	-0.156
-424.559	-130.519	0.130	0.017
-423.544	115.005	0.187	0.225
-422.530	-200.000	-0.017	0.145
-421.515	175.596	-0.066	-0.095
-420.500	71.656	-0.181	-0.186
-419.486	-68.949	-0.109	0.042
-418.471	-96.748	0.208	0.054
-417.457	-200.000	0.001	-0.235
-416.442	-93.994	0.115	0.031
-415.428	321.863	0.044	0.082
-414.413	-169.765	0.205	0.007
-413.398	800.000	-0.108	0.305
-412.384	-9.768	-0.269	0.177
-411.369	800.000	-0.031	0.106
-410.355	-80.780	0.255	-0.084
-409.340	800.000	0.079	-0.246
-408.325	-86.797	-0.221	-0.067
-407.311	-200.000	0.000	-0.171
-406.296	800.000	0.040	-0.122
-405.282	668.118	-0.091	0.232
-404.267	761.173	-0.069	-0.186
-403.252	800.000	-0.007	-0.023
-402.238	-31.625	-0.229	0.127
-401.223	-67.023	-0.238	-0.093
-400.209	-104.581	-0.346	0.079
-399.194	800.000	0.114	-0.344
-398.179	-73.471	-0.146	-0.053
-397.165	533.544	0.070	0.164
-396.150	150.390	0.055	0.074
-395.136	-43.145	-0.210	0.105
-394.121	-200.000	0.028	-0.213
-393.106	-109.198	0.203	-0.043
-392.092	-200.000	0.002	0.084
-391.077	-200.000	0.110	-0.000
-390.063	37.895	-0.320	-0.282
-389.048	-200.000	-0.069	0.392
-388.033	0.389	0.175	-0.123
-387.019	11.412	0.112	0.085
-386.004	129.331	-0.181	-0.229
-384.990	-200.000	-0.011	-0.333
-383.975	-104.304	0.111	0.025
-382.960	383.055	-0.073	0.149
-381.946	-200.000	0.017	0.093
-380.931	-25.756	0.086	0.050
-379.917	-70.205	0.544	0.204
-378.902	626.503	0.038	-0.095
-377.888	-200.000	0.000	-0.131
-376.873	-58.991	0.048	0.021
-375.858	-24.318	0.114	-0.067
-374.844	-200.000	-0.006	-0.339
-373.829	354.422	-0.131	0.257
-372.815	-200.000	0.019	-0.099
-371.800	800.000	-0.028	-0.090
-370.785	73.204	-0.282	-0.291
-369.771	-200.000	-0.039	-0.256
-368.756	-200.000	0.020	-0.151
-367.742	66.502	0.088	0.089
-366.727	-48.475	-0.369	0.175
-365.712	-96.173	0.304	-0.080
-364.698	69.849	0.173	-0.176
-363.683	800.000	-0.022	-0.082
-362.669	800.000	0.110	0.318
-361.654	-50.430	0.263	-0.122
-360.639	22.038	-0.145	-0.117
-359.625	162.676	0.074	0.103
-358.610	-106.264	-0.194	0.043
-357.596	-111.698	-0.229	-0.046
-356.581	86.082	-0.104	-0.113
-355.566	80.163	-0.083	-0.088
-354.552	457.662	0.079	0.173
-353.537	222.976	-0.138	0.219
-352.523	-114.520	-0.211	-0.040
-351.508	-72.474	-0.188	-0.069
-350.493	800.000	0.011	-0.037
-349.479	800.000	0.011	-0.040
-348.464	-200.000	-0.033	-0.246
-347.450	-149.508	-0.377	-0.029
-346.435	-118.403	-0.195	0.034
-345.420	-200.000	-0.000	-0.101
-344.406	-85.277	0.127	-0.039
-343.391	450.849	0.094	0.205
-342.377	-200.000	-0.042	-0.386
-341.362	404.367	-0.158	0.329
-340.348	-26.252	0.226	0.131
-339.333	-72.426	-0.209	0.076
-338.318	145.473	-0.013	-0.018
-337.304	337.483	0.138	0.265
-336.289	-31.180	0.343	0.191
-335.275	-75.290	-0.176	0.062
-334.260	-200.000	0.222	0.001
-333.245	-67.459	0.288	-0.111
-332.231	-65.587	-0.349	-0.138
-331.216	-200.000	-0.111	0.533
-330.202	212.079	0.027	0.043
-329.187	800.000	-0.099	0.359
-328.172	137.522	-0.182	0.235
-327.158	241.489	0.075	-0.124
-326.143	-200.000	-0.029	0.390
-325.129	-79.202	-0.205	-0.068
-324.114	297.956	0.149	0.269
-323.099	-44.635	-0.100	0.049
-322.085	-118.443	0.283	-0.049
-321.070	-142.197	0.209	0.020
-320.056	-75.976	-0.237	-0.083
-319.041	-26.782	-0.212	0.122
-318.026	115.533	0.066	0.080
-317.012	147.953	-0.173	-0.230
-315.997	800.000	0.014	0.057
-314.983	-168.445	-0.245	0.009
-313.968	308.278	0.129	0.237
-312.953	-5.220	-0.031	-0.021
-311.939	206.704	-0.059	-0.090
-310.924	332.308	0.077	-0.146
-309.910	6.217	-0.122	-0.089
-308.895	-200.000	-0.051	0.238
-307.880	273.013	-0.153	0.266
-306.866	107.786	0.131	-0.154
-305.851	167.617	0.162	0.226
-304.837	24.503	-0.057	-0.047
-303.822	219.351	0.094	0.147
-302.807	0.281	0.132	0.093
-301.793	-117.182	0.222	-0.040
-300.778	-200.000	0.029	-0.139
-299.764	800.000	-0.015	0.058
-298.749	157.584	-0.189	0.258
-297.735	-123.225	0.143	-0.023
-296.720	-200.000	-0.008	-0.065
-295.705	199.680	-0.048	-0.072
-294.691	-88.074	0.089	0.026
-293.676	44.432	-0.067	-0.061
-292.662	42.809	0.191	0.172
-291.647	-200.000	0.062	-0.440
-290.632	-56.656	-0.143	0.062
-289.618	59.523	-0.149	-0.144
-288.603	-200.000	0.030	0.232
-287.589	-155.094	0.085	-0.005
-286.574	327.959	-0.168	0.318
-285.559	4.127	0.120	-0.087
-284.545	7.734	0.236	0.174
-283.530	-143.782	0.256	0.024
-282.516	254.738	-0.026	0.043
-281.501	161.871	-0.236	0.325
-280.486	748.082	0.068	0.181
-279.472	-47.569	-0.183	0.088
-278.457	98.582	-0.078	-0.088
-277.443	379.251	0.150	0.302
-276.428	-38.280	-0.369	-0.192
-275.413	38.346	0.122	-0.107
-274.399	-27.904	-0.153	0.087
-273.384	-56.109	0.372	0.163
-272.370	1.345	0.057	-0.040
-271.355	-34.308	0.248	-0.134
-270.340	-46.990	0.088	0.042
-269.326	-51.270	0.345	-0.159
-268.311	223.993	0.156	0.248
-267.297	39.009	-0.115	-0.101
-266.282	-200.000	-0.095	-0.524
-265.267	-123.150	0.224	-0.035
-264.253	547.815	-0.106	0.250
-263.238	-97.525	-0.161	-0.041
-262.224	-71.161	-0.042	0.015
-261.209	-39.609	-0.243	0.125
-260.195	186.280	-0.077	0.113
-259.180	207.507	0.045	0.069
-258.165	282.871	0.082	0.145
-257.151	287.090	-0.048	0.086
-256.136	419.048	-0.055	-0.116
-255.122	428.820	0.152	0.322
-254.107	-103.128	0.055	-0.013
-253.092	-200.000	-0.023	-0.283
-252.078	-92.381	0.211	-0.058
-251.063	227.279	-0.018	0.029
-250.049	18.085	-0.146	-0.114
-249.034	-25.580	-0.228	-0.133
-248.019	800.000	0.029	0.118
-247.005	0.075	0.242	-0.170
-245.990	226.805	0.073	0.116
-244.976	29.039	0.144	-0.120
-243.961	800.000	0.112	-0.348
-242.946	316.198	-0.104	-0.194
-241.932	-162.217	0.228	0.011
-240.917	-200.000	0.060	0.328
-239.903	-200.000	0.000	0.022
-238.888	800.000	-0.083	0.336
-237.873	159.424	-0.203	0.278
-236.859	313.727	0.282	0.522
-235.844	-200.000	-0.055	0.239
-234.830	-108.099	0.201	-0.043
-233.815	-133.852	-0.211	-0.026
-232.800	22.727	0.394	0.317
-231.786	-163.183	-0.306	0.014
-230.771	-69.431	-0.279	-0.105
-229.757	37.213	0.077	0.067
-228.742	-200.000	-0.027	-0.196
-227.727	-65.745	0.243	-0.095
-226.713	-70.167	0.246	-0.092
-225.698	-22.984	0.262	0.155
-224.684	76.622	-0.209	0.218
-223.669	-115.952	0.309	-0.057
-222.655	-30.087	-0.237	0.132
-221.640	-200.000	-0.027	0.220
-220.625	-8.764	-0.067	0.044
-219.611	459.063	0.077	-0.168
-218.596	756.223	0.020	-0.053
-217.582	-32.808	0.103	0.056
-216.567	-87.007	0.207	0.062
-215.552	28.408	0.118	0.098
-214.538	156.614	-0.116	-0.157
-213.523	-200.000	-0.031	0.308
-212.509	103.961	0.140	0.162
-211.494	312.745	-0.212	-0.392
-210.479	-66.021	-0.124	0.048
-209.465	104.235	0.064	0.073
-208.450	70.305	0.120	-0.122
-207.436	-158.167	0.264	0.015
-206.421	-200.000	0.032	-0.225
-205.406	-154.910	-0.038	0.002
-204.392	-200.000	-0.050	0.347
-203.377	-200.000	0.018	-0.097
-202.363	-40.596	0.341	-0.173
-201.348	112.186	0.122	0.145
-200.333	800.000	0.058	0.178
-199.319	-94.394	0.364	0.097
-198.304	55.242	-0.189	0.179
-197.290	690.268	-0.093	0.240
-196.275	104.945	-0.100	0.115
-195.260	300.617	-0.091	-0.165
-194.246	463.026	0.029	0.064
-193.231	214.563	-0.120	-0.187
-192.217	-200.000	-0.001	-0.231
-191.202	196.408	0.145	0.217
-190.187	-46.046	0.159	-0.077
-189.173	-200.000	-0.072	-0.501
-188.158	1.089	0.191	-0.134
-187.144	34.796	0.066	0.057
-186.129	36.443	0.204	-0.176
-185.114	-71.556	0.216	0.079
-184.100	-126.126	0.082	0.012
-183.085	-54.226	-0.183	-0.081
-182.071	98.242	0.175	0.197
-181.056	-9.502	0.113	0.074
-180.042	800.000	-0.035	-0.104
-179.027	-200.000	-0.014	-0.262
-178.012	800.000	-0.021	-0.075
-176.998	249.603	-0.042	0.070
-175.983	-71.200	-0.179	-0.066
-174.969	-200.000	0.002	-0.127
-173.954	254.622	0.037	-0.062
-172.939	244.899	-0.183	0.302
-171.925	-200.000	-0.016	-0.112
-170.910	-164.664	0.079	-0.003
-169.896	161.508	0.242	-0.331
-168.881	220.557	0.170	0.266
-167.866	800.000	-0.013	-0.039
-166.852	-50.520	0.280	-0.130
-165.837	68.694	0.223	0.225
-164.823	52.462	0.249	0.233
-163.808	106.198	0.170	0.198
-162.793	-74.004	0.226	-0.080
-161.779	-85.152	-0.426	-0.131
-160.764	-200.000	-0.064	0.361
-159.750	67.849	-0.151	-0.151
-158.735	11.588	0.129	0.097
-157.720	76.641	0.043	0.045
-156.706	-121.269	0.028	0.005
-155.691	800.000	-0.052	-0.182
-154.677	-200.000	0.013	0.067
-153.662	282.629	-0.108	0.190
-152.647	99.516	-0.223	0.253
-151.633	-165.872	-0.194	-0.008
-150.618	800.000	0.059	-0.184
-149.604	163.826	0.086	0.118
-148.589	-200.000	0.022	-0.379
-147.574	-200.000	0.028	0.139
-146.560	6.388	-0.137	-0.099
-145.545	46.315	0.044	0.040
-144.531	764.279	-0.129	-0.344
-143.516	245.802	0.097	-0.160
-142.502	-0.151	-0.210	0.146
-141.487	-136.418	0.362	0.041
-140.472	739.518	0.084	-0.221
-139.458	-35.436	0.252	0.134
-138.443	-94.232	0.251	0.067
-137.429	800.000	0.062	-0.231
-136.414	-84.256	-0.299	0.093
-135.399	260.788	-0.126	0.212
-134.385	375.589	0.016	-0.033
-133.370	-124.833	-0.155	0.023
-132.356	360.754	-0.073	0.142
-131.341	-200.000	-0.054	-0.235
-130.326	21.388	-0.265	-0.211
-129.312	38.585	-0.065	0.056
-128.297	-19.865	-0.208	-0.126
-127.283	800.000	0.074	-0.219
-126.268	-82.426	-0.202	-0.064
-125.253	-129.147	0.223	-0.030
-124.239	-77.061	-0.245	0.084
-123.224	-174.405	0.274	0.008
-122.210	-90.666	-0.309	-0.087
-121.195	800.000	-0.089	-0.335
-120.180	-39.822	0.147	0.075
-119.166	-128.179	-0.116	0.016
-118.151	91.645	0.099	-0.109
-117.137	-123.456	0.344	-0.054
-116.122	-53.486	0.098	0.044
-115.107	70.853	-0.066	-0.067
-114.093	800.000	-0.061	0.183
-113.078	44.222	-0.099	0.089
-112.064	800.000	0.031	-0.106
-111.049	-73.199	0.506	0.181
-110.034	-101.178	0.176	0.042
-109.020	-178.162	-0.385	0.009
-108.005	-51.946	0.184	-0.084
-106.991	800.000	-0.028	0.097
-105.976	800.000	0.008	0.025
-104.962	335.402	0.128	0.242
-103.947	447.293	-0.019	-0.041
-102.932	399.055	-0.007	0.014
-101.918	-94.972	0.167	0.044
-100.903	35.879	-0.304	0.261
-99.889	97.643	0.362	-0.406
-98.874	-200.000	0.220	-0.000
-97.859	-200.000	-0.022	0.109
-96.845	-160.383	0.443	-0.023
-95.830	217.238	-0.075	-0.117
-94.816	-66.063	0.167	-0.065
-93.801	800.000	-0.107	0.373
-92.786	-13.865	0.284	0.179
-91.772	68.280	-0.105	-0.105
-90.757	-20.857	0.151	-0.090
-89.743	-200.000	0.045	-0.356
-88.728	-103.471	-0.090	-0.021
-87.713	800.000	0.019	0.051
-86.699	-8.026	0.252	-0.166
-85.684	309.289	0.074	-0.136
-84.670	-12.423	-0.244	0.155
-83.655	-140.946	-0.407	0.041
-82.640	800.000	0.078	0.276
-81.626	343.502	-0.075	0.143
-80.611	55.280	0.261	-0.246
-79.597	70.568	-0.141	-0.142
-78.582	303.193	-0.072	0.130
-77.567	800.000	0.012	0.040
-76.553	-151.336	-0.157	-0.011
-75.538	-23.029	0.225	0.132
-74.524	3.577	0.101	-0.072
-73.509	570.501	-0.075	0.179
-72.494	-146.129	-0.303	0.026
-71.480	800.000	-0.076	-0.268
-70.465	-200.000	0.014	0.119
-69.451	-151.068	0.116	0.009
-68.436	-76.021	0.372	-0.128
-67.422	50.021	-0.172	-0.158
-66.407	261.602	-0.082	-0.139
-65.392	492.700	-0.071	-0.159
-64.378	114.773	0.177	-0.210
-63.363	16.463	-0.092	0.071
-62.349	-200.000	0.008	0.299
-61.334	9.559	-1.262	-0.933
-60.319	-20.015	0.774	0.466
-59.305	800.000	-0.373	-1.244
-58.290	157.808	1.228	1.660
-57.276	800.000	0.505	1.727
-56.261	-200.000	120.599	618.847
-55.246	387.373	1578.601	3183.726
-54.232	138.150	2762.860	3534.338
-53.217	90.197	2330.427	2542.250
-52.203	34.188	1927.942	1639.722
-51.188	28.219	1718.563	1415.592
-50.173	26.028	1676.776	1364.557
-49.159	45.679	1739.859	1568.235
-48.144	44.342	1752.056	1568.851
-47.130	27.824	1705.899	1401.900
-46.115	25.336	1691.302	1370.883
-45.100	25.099	1686.570	1365.184
-44.086	25.005	1684.033	1362.367
-43.071	25.070	1680.956	1360.314
-42.057	25.051	1678.720	1358.302
-41.042	25.111	1676.698	1357.072
-40.027	24.970	1675.364	1354.871
-39.013	25.097	1672.334	1353.323
-37.998	25.045	1670.720	1351.574
-36.984	25.093	1669.672	1351.030
-35.969	25.220	1668.149	1350.705
-34.954	25.162	1666.553	1348.920
-33.940	25.130	1665.111	1347.459
-32.925	25.173	1663.083	1346.089
-31.911	25.256	1661.464	1345.343
-30.896	25.195	1659.564	1343.298
-29.881	25.113	1658.419	1341.706
-28.867	25.150	1656.653	1340.501
-27.852	25.150	1655.228	1339.293
-26.838	25.127	1653.769	1337.885
-25.823	25.191	1652.652	1337.405
-24.809	25.278	1651.015	1336.675
-23.794	25.228	1649.683	1335.173
-22.779	25.276	1648.328	1334.381
-21.765	25.236	1646.485	1332.537
-20.750	25.184	1645.303	1331.147
-19.736	25.193	1644.254	1330.312
-18.721	25.236	1642.580	1329.221
-17.706	25.204	1640.925	1327.594
-16.692	25.178	1639.274	1326.014
-15.677	25.257	1638.035	1325.540
-14.663	25.217	1636.557	1323.999
-13.648	25.254	1635.280	1323.182
-12.633	25.261	1633.510	1321.753
-11.619	25.213	1632.146	1320.237
-10.604	25.228	1630.185	1318.713
-9.590	25.314	1629.062	1318.384
-8.575	25.164	1628.277	1316.598
-7.560	25.123	1626.856	1315.090
-6.546	25.214	1625.498	1314.609
-5.531	25.240	1624.774	1314.164
-4.517	25.145	1623.562	1312.432
-3.502	25.251	1622.366	1312.192
-2.487	25.253	1620.724	1310.825
-1.473	24.990	1609.136	1299.495
-0.458	22.530	1589.171	1265.670
0.556	17.790	1591.134	1233.527
1.571	15.475	1615.277	1235.123
2.586	15.132	1627.397	1241.734
3.600	13.965	1573.863	1192.413
4.615	7.996	1464.190	1069.256
5.629	1.883	1403.850	985.667
6.644	0.761	1396.280	973.046
7.659	0.789	1394.964	972.223
8.673	0.759	1394.104	971.343
9.688	0.812	1391.753	969.959
10.702	0.557	1388.540	966.005
11.717	3.396	1392.953	987.192
12.731	10.435	1403.088	1039.570
13.746	15.640	1410.929	1078.779
14.761	17.090	1412.661	1089.323
15.775	16.749	1410.232	1085.168
16.790	15.553	1408.328	1075.951
17.804	14.862	1405.611	1069.356
18.819	14.462	1404.763	1066.061
19.834	14.229	1402.783	1062.974
20.848	14.067	1401.634	1060.979
21.863	13.671	1400.664	1057.623
22.877	13.544	1399.333	1055.715
23.892	13.491	1397.893	1054.197
24.907	13.585	1396.897	1053.955
25.921	13.505	1396.417	1052.989
26.936	13.482	1395.514	1052.071
27.950	13.614	1394.403	1051.977
28.965	13.594	1393.673	1051.207
29.980	13.659	1392.429	1050.588
30.994	13.588	1391.715	1049.506
32.009	13.758	1390.373	1049.478
33.023	13.740	1389.634	1048.712
34.038	13.744	1387.828	1047.282
35.053	13.669	1387.028	1046.114
36.067	13.804	1385.553	1045.754
37.082	13.639	1384.980	1044.194
38.096	13.636	1384.648	1043.830
39.111	13.716	1383.265	1043.199
40.126	13.617	1382.901	1042.211
41.140	13.626	1381.968	1041.469
42.155	13.589	1381.608	1040.873
43.169	13.611	1381.408	1040.773
44.184	13.558	1380.744	1039.842
45.199	13.585	1380.181	1039.498
46.213	13.566	1379.946	1039.109
47.228	13.702	1378.633	1038.882
48.242	13.639	1377.559	1037.588
49.257	13.631	1376.047	1036.305
50.271	13.684	1374.954	1035.723
51.286	13.597	1373.131	1033.713
52.301	13.627	1372.020	1032.971
53.315	13.542	1371.086	1031.651
54.330	13.535	1369.907	1030.628
55.344	13.545	1368.857	1029.808
56.359	13.593	1367.457	1028.959
57.374	13.611	1366.515	1028.276
58.388	13.547	1366.082	1027.460
59.403	13.409	1365.618	1026.164
60.417	13.480	1365.380	1026.333
61.432	13.505	1363.576	1025.042
62.447	13.447	1362.738	1023.961
63.461	13.534	1361.425	1023.423
64.476	13.398	1361.011	1022.182
65.490	13.554	1358.954	1021.510
66.505	13.459	1357.683	1019.879
67.520	13.421	1356.262	1018.487
68.534	13.476	1355.432	1018.114
69.549	13.434	1354.251	1016.879
70.563	13.507	1353.140	1016.399
71.578	13.467	1351.891	1015.124
72.593	13.446	1351.049	1014.275
73.607	13.284	1350.567	1012.830
74.622	13.323	1349.667	1012.309
75.636	13.310	1349.188	1011.776
76.651	13.411	1347.435	1010.993
77.666	13.378	1347.483	1010.734
78.680	13.428	1346.636	1010.319
79.695	13.412	1346.051	1009.689
80.709	13.467	1345.132	1009.247
81.724	13.479	1344.377	1008.667
82.739	13.597	1343.341	1008.513
83.753	13.528	1342.536	1007.403
84.768	13.645	1341.129	1006.967
85.782	13.689	1339.775	1006.129
86.797	13.594	1338.678	1004.643
87.812	13.573	1337.265	1003.364
88.826	13.593	1336.388	1002.737
89.841	13.546	1335.414	1001.637
90.855	13.612	1334.457	1001.226
91.870	13.706	1333.278	1000.821
92.884	13.699	1332.186	999.868
93.899	13.648	1331.938	999.292
94.914	13.737	1330.579	998.716
95.928	13.653	1330.199	997.839
96.943	13.717	1329.086	997.301
97.957	13.642	1328.123	996.038
98.972	13.713	1326.733	995.331
99.987	13.754	1326.069	994.995
101.001	13.652	1324.801	993.343
102.016	13.623	1324.037	992.510
103.030	13.645	1323.369	992.053
104.045	13.651	1322.300	991.196
105.060	13.680	1320.827	990.177
106.074	13.623	1319.416	988.695
107.089	13.643	1317.990	987.659
108.103	13.491	1316.959	985.891
109.118	13.535	1315.607	985.056
110.133	13.691	1313.837	984.566
111.147	13.534	1312.869	982.824
112.162	13.594	1311.554	982.109
113.176	13.548	1310.440	980.915
114.191	13.751	1309.157	981.069
115.206	13.606	1308.409	979.567
116.220	13.562	1306.913	978.101
117.235	13.637	1306.029	977.794
118.249	13.458	1305.249	976.069
119.264	13.593	1304.164	975.965
120.279	13.578	1302.846	974.805
121.293	13.601	1301.468	973.821
122.308	13.499	1301.071	972.839
123.322	13.546	1299.810	972.085
124.337	13.525	1298.526	970.914
125.352	13.538	1297.457	970.109
126.366	13.554	1295.887	968.943
127.381	13.556	1294.926	968.147
128.395	13.645	1293.396	967.441
129.410	13.448	1292.876	965.815
130.424	13.578	1292.173	965.960
131.439	13.641	1291.023	965.384
132.454	13.632	1289.962	964.454
133.468	13.625	1289.507	963.985
134.483	13.599	1288.687	963.140
135.497	13.641	1287.081	962.098
136.512	13.597	1285.998	960.947
137.527	13.619	1284.485	959.858
138.541	13.543	1282.904	958.152
139.556	13.616	1281.556	957.481
140.570	13.650	1280.709	956.961
141.585	13.707	1279.352	956.193
142.600	13.709	1278.323	955.347
143.614	13.744	1277.374	954.753
144.629	13.791	1276.034	953.942
145.643	13.717	1274.936	952.611
146.658	13.639	1274.073	951.434
147.673	13.708	1272.221	950.364
148.687	13.704	1271.233	949.517
149.702	13.645	1270.024	948.192
150.716	13.710	1268.429	947.287
151.731	13.719	1267.242	946.370
152.746	13.662	1266.309	945.263
153.760	13.706	1265.064	944.500
154.775	13.782	1263.495	943.681
155.789	13.802	1262.867	943.240
156.804	13.861	1261.761	942.664
157.819	13.910	1260.302	941.771
158.833	13.851	1259.382	940.663
159.848	13.912	1258.390	940.187
160.862	13.865	1257.568	939.224
161.877	13.822	1256.530	938.123
162.892	13.759	1255.422	936.858
163.906	13.696	1255.241	936.284
164.921	13.837	1253.427	935.640
165.935	13.904	1252.409	935.175
166.950	13.972	1251.621	934.887
167.964	13.895	1250.676	933.666
168.979	13.888	1250.288	933.257
169.994	13.923	1249.474	932.761
171.008	13.935	1248.527	932.041
172.023	13.938	1247.697	931.353
173.037	14.069	1246.975	931.466
174.052	13.958	1246.110	930.114
175.067	13.917	1245.134	929.074
176.081	13.928	1244.398	928.505
177.096	13.986	1243.233	927.875
178.110	14.053	1241.792	927.095
179.125	13.887	1240.897	925.419
180.140	13.971	1239.716	924.927
181.154	14.031	1238.735	924.442
182.169	14.152	1236.649	923.476
183.183	14.109	1236.039	922.701
184.198	14.096	1234.791	921.618
185.213	14.029	1234.117	920.662
186.227	14.049	1232.809	919.714
187.242	14.214	1231.184	919.334
188.256	14.216	1230.775	918.954
189.271	14.180	1229.956	918.064
190.286	14.099	1228.872	916.727
191.300	14.019	1228.332	915.805
192.315	14.026	1227.709	915.298
193.329	14.085	1226.312	914.499
194.344	14.119	1226.185	914.511
195.359	14.181	1224.976	913.868
196.373	14.169	1224.763	913.560
197.388	14.335	1223.630	913.544
198.402	14.319	1223.433	913.232
199.417	14.239	1223.199	912.539
200.432	14.280	1222.025	911.806
201.446	14.447	1221.058	911.918
202.461	14.464	1219.917	911.078
203.475	14.515	1219.337	910.842
204.490	14.365	1217.809	908.802
205.504	14.356	1216.711	907.854
206.519	14.369	1215.745	907.120
207.534	14.448	1214.368	906.443
208.548	14.304	1213.826	905.175
209.563	14.389	1212.709	904.725
210.577	14.406	1211.783	904.048
211.592	14.296	1211.324	903.028
212.607	14.524	1209.926	903.139
213.621	14.452	1208.809	901.839
214.636	14.399	1208.971	901.593
215.650	14.571	1207.471	901.324
216.665	14.582	1206.400	900.501
217.680	14.645	1205.220	899.879
218.694	14.587	1204.843	899.207
219.709	14.664	1203.706	898.692
220.723	14.653	1203.098	898.104
221.738	14.658	1202.323	897.473
222.753	14.552	1201.736	896.386
223.767	14.643	1201.180	896.377
224.782	14.691	1200.509	896.057
225.796	14.723	1199.883	895.679
226.811	14.764	1199.114	895.244
227.826	14.824	1198.170	894.785
228.840	14.638	1197.857	893.477
229.855	14.590	1197.253	892.690
230.869	14.688	1195.992	892.195
231.884	14.619	1195.496	891.374
232.899	14.626	1194.544	890.624
233.913	14.560	1194.054	889.827
234.928	14.774	1193.072	890.156
235.942	14.725	1191.947	888.978
236.957	14.691	1191.620	888.477
237.972	14.824	1190.552	888.309
238.986	14.682	1190.190	887.206
240.001	14.719	1189.058	886.476
241.015	14.789	1188.309	886.216
242.030	14.768	1187.613	885.503
243.045	14.773	1186.686	884.762
244.059	14.885	1185.868	884.667
245.074	14.838	1184.893	883.613
246.088	14.981	1184.023	883.640
247.103	14.974	1183.146	882.871
248.117	14.926	1182.703	882.210
249.132	14.946	1181.832	881.588
250.147	14.995	1181.242	881.329
251.161	15.059	1180.458	881.000
252.176	15.138	1179.491	880.618
253.190	15.092	1178.832	879.805
254.205	15.107	1178.847	879.818
255.220	15.177	1177.919	879.415
256.234	15.212	1177.238	879.014
257.249	15.137	1176.448	877.951
258.263	15.196	1175.878	877.756
259.278	15.214	1175.167	877.245
260.293	15.320	1174.472	877.201
261.307	15.291	1174.361	876.889
262.322	15.305	1173.177	875.998
263.336	15.274	1172.306	875.112
264.351	15.306	1172.056	875.011
265.366	15.371	1171.108	874.566
266.380	15.506	1170.302	874.593
267.395	15.284	1170.074	873.188
268.409	15.338	1168.852	872.480
269.424	15.317	1168.528	872.052
270.439	15.391	1167.986	871.954
271.453	15.456	1166.790	871.323
272.468	15.430	1166.024	870.536
273.482	15.353	1165.688	869.808
274.497	15.400	1165.072	869.519
275.512	15.407	1164.088	868.742
276.526	15.384	1163.337	867.983
277.541	15.443	1162.482	867.573
278.555	15.518	1162.190	867.668
279.570	15.475	1161.214	866.640
280.585	15.591	1160.152	866.372
281.599	15.572	1159.241	865.516
282.614	15.538	1158.490	864.702
283.628	15.577	1157.015	863.727
284.643	15.508	1156.420	862.850
285.657	15.590	1155.515	862.520
286.672	15.532	1154.763	861.582
287.687	15.577	1153.824	861.037
288.701	15.718	1152.670	860.825
289.716	15.794	1151.557	860.306
290.730	15.703	1151.294	859.564
291.745	15.718	1150.615	859.062
292.760	15.885	1149.815	859.241
293.774	15.797	1149.710	858.637
294.789	15.782	1149.128	858.048
295.803	15.792	1148.012	857.191
296.818	15.871	1147.313	856.993
297.833	15.872	1146.705	856.468
298.847	15.833	1146.119	855.759
299.862	15.853	1144.797	854.798
300.876	15.952	1144.037	854.658
301.891	16.021	1143.833	854.777
302.906	15.939	1142.973	853.645
303.920	15.900	1142.641	853.122
304.935	15.886	1142.153	852.614
305.949	15.980	1141.080	852.213
306.964	15.954	1140.403	851.498
307.979	16.077	1139.283	851.209
308.993	16.028	1138.983	850.659
310.008	16.062	1138.098	850.098
311.022	16.092	1137.266	849.549
312.037	16.072	1136.397	848.725
313.052	16.106	1135.166	847.902
314.066	16.042	1134.416	846.947
315.081	15.967	1133.680	845.945
316.095	15.998	1133.175	845.647
317.110	16.130	1131.976	845.340
318.125	16.063	1131.577	844.632
319.139	16.023	1130.941	843.883
320.154	16.050	1130.275	843.447
321.168	16.038	1129.781	842.940
322.183	16.117	1128.917	842.619
323.197	16.146	1128.183	842.140
324.212	16.172	1127.809	841.917
325.227	16.142	1127.119	841.175
326.241	16.113	1126.530	840.520
327.256	16.168	1125.757	840.143
328.270	16.172	1124.555	839.188
329.285	16.244	1123.044	838.347
330.300	16.175	1122.387	837.441
331.314	16.152	1121.853	836.853
332.329	16.200	1120.475	835.987
333.343	16.180	1119.899	835.387
334.358	16.231	1119.069	834.946
335.373	16.335	1118.184	834.722
336.387	16.213	1118.124	834.001
337.402	16.311	1117.200	833.724
338.416	16.362	1116.263	833.201
339.431	16.284	1115.616	832.260
340.446	16.360	1115.046	832.139
341.460	16.418	1114.341	831.824
342.475	16.453	1113.211	831.077
343.489	16.509	1112.612	830.832
344.504	16.438	1111.717	829.739
345.519	16.430	1110.915	829.033
346.533	16.494	1110.249	828.773
347.548	16.750	1109.068	829.073
348.562	16.539	1108.393	827.460
349.577	16.574	1107.685	827.031
350.592	16.561	1107.024	826.400
351.606	16.457	1106.228	825.225
352.621	16.537	1105.448	824.962
353.635	16.466	1105.058	824.249
354.650	16.607	1104.053	824.114
355.665	16.575	1103.466	823.446
356.679	16.539	1102.970	822.828
357.694	16.657	1102.370	822.883
358.708	16.755	1101.748	822.823
359.723	16.668	1101.103	821.845
360.738	16.801	1100.504	821.973
361.752	16.636	1099.898	820.647
362.767	16.747	1099.024	820.460
363.781	16.784	1098.327	820.044
364.796	16.783	1097.916	819.660
365.810	16.825	1097.646	819.589
366.825	16.659	1096.917	818.170
367.840	16.888	1095.976	818.504
368.854	16.971	1095.504	818.479
369.869	16.913	1094.682	817.513
370.883	16.894	1093.491	816.460
371.898	16.854	1093.172	815.953
372.913	16.884	1092.788	815.740
373.927	16.960	1092.198	815.594
374.942	16.983	1091.343	814.991
375.956	17.009	1090.887	814.706
376.971	16.825	1090.477	813.444
377.986	16.855	1090.230	813.332
379.000	17.076	1089.177	813.532
380.015	17.139	1088.723	813.423
381.029	17.100	1088.120	812.715
382.044	17.224	1087.097	812.472
383.059	17.114	1086.525	811.446
384.073	17.205	1085.280	810.878
385.088	17.164	1084.445	809.988
386.102	17.172	1083.787	809.464
387.117	17.256	1082.530	808.853
388.132	17.189	1081.698	807.843
389.146	17.190	1080.755	807.072
390.161	17.201	1080.465	806.836
391.175	17.212	1079.607	806.176
392.190	17.224	1078.947	805.668
393.205	17.353	1078.096	805.573
394.219	17.360	1077.150	804.825
395.234	17.343	1076.273	804.019
396.248	17.201	1075.470	802.676
397.263	17.177	1074.298	801.618
398.278	17.352	1073.706	801.933
399.292	17.277	1072.694	800.750
400.307	17.384	1072.161	800.788
401.321	17.296	1071.785	800.020
402.336	17.270	1071.022	799.258
403.350	17.200	1070.315	798.330
404.365	17.226	1070.117	798.236
405.380	17.254	1069.285	797.674
406.394	17.303	1068.389	797.168
407.409	17.370	1067.255	796.564
408.423	17.524	1066.608	796.732
409.438	17.567	1065.774	796.236
410.453	17.541	1065.393	795.763
411.467	17.639	1064.390	795.399
412.482	17.448	1064.149	794.259
413.496	17.443	1063.474	793.658
414.511	17.513	1062.788	793.406
415.526	17.636	1062.229	793.489
416.540	17.613	1061.675	792.897
417.555	17.763	1060.789	792.864
418.569	17.789	1060.493	792.691
419.584	17.673	1060.135	791.818
420.599	17.648	1059.576	791.215
421.613	107.937	1329.132	1486.865
422.628	99.643	1368.382	1486.933
