DTS Sentinel unit serial number:	SN413079Multiplexer serial number:	ORYXHardware model number:	OX4-SRSoftware version number:	ORYX F/W v4.00 Oryx Data Collector v3.7.2.0data status	okinstallation	princeton_trtdifferential loss correction	single-endedforward channel	channel 2reverse channel	N/Adate	2019/09/19time	03:51:34forward acquisition time	60.00reverse acquisition time	0.00gamma	496.2192k internal	0.2352k external	0.2352temperature offset calibration	1.0012default loss term (dB/km)	0.3790temperature slope calibration	1.0000multiplexer offset coefficient	1.0000multiplexer slope coefficient	1.0000fibre end	0.00T internal ref (°C)	20.50T ext. ref 1 (°C)	0.64T ext. ref 2 (°C)	14.38length (m)	temperature (°C)	Stokes	anti-Stokes-747.200	-200.000	0.044	0.198
-746.185	-180.062	-0.455	0.010
-745.171	-96.098	-0.270	0.072
-744.156	800.000	-0.048	-0.195
-743.142	-200.000	0.011	-0.087
-742.127	800.000	-0.062	-0.260
-741.112	31.575	-0.187	-0.161
-740.098	248.354	-0.267	0.451
-739.083	140.169	-0.128	0.168
-738.069	397.028	-0.142	0.296
-737.054	13.535	-0.293	0.227
-736.039	24.050	-0.089	-0.073
-735.025	-56.580	-0.095	-0.042
-734.010	-200.000	0.036	-0.521
-732.996	-156.399	-0.236	-0.015
-731.981	-200.000	-0.026	0.235
-730.966	-200.000	0.026	0.116
-729.952	98.841	0.183	-0.211
-728.937	698.263	-0.035	-0.093
-727.923	88.142	-0.049	-0.055
-726.908	-2.542	0.243	-0.169
-725.894	-113.092	-0.241	-0.047
-724.879	-200.000	-0.018	-0.197
-723.864	-165.525	0.055	-0.002
-722.850	110.841	0.105	-0.126
-721.835	-34.876	-0.113	-0.062
-720.821	63.029	-0.170	0.170
-719.806	800.000	0.119	-0.345
-718.791	-35.490	-0.438	-0.237
-717.777	302.678	-0.122	-0.226
-716.762	-17.527	-0.196	0.123
-715.748	-157.008	-0.288	-0.018
-714.733	499.590	-0.142	-0.327
-713.718	-25.800	-0.447	-0.263
-712.704	170.173	0.189	0.269
-711.689	800.000	0.081	0.316
-710.675	-55.833	-0.414	-0.184
-709.660	103.875	-0.120	-0.141
-708.645	-200.000	-0.001	-0.123
-707.631	-142.084	0.215	0.021
-706.616	800.000	-0.034	0.142
-705.602	794.940	0.193	-0.529
-704.587	426.408	-0.123	-0.265
-703.572	-49.861	0.116	-0.055
-702.558	-117.830	-0.234	-0.042
-701.543	-51.322	-0.181	-0.085
-700.529	248.146	-0.082	0.139
-699.514	-23.089	-0.165	-0.099
-698.499	13.357	0.051	-0.039
-697.485	-200.000	0.037	-0.296
-696.470	128.705	-0.188	-0.238
-695.456	-101.684	0.266	-0.064
-694.441	-142.058	-0.080	0.008
-693.426	-200.000	0.027	-0.156
-692.412	-50.911	-0.175	-0.082
-691.397	201.182	-0.229	-0.351
-690.383	800.000	0.068	0.205
-689.368	354.887	0.070	-0.139
-688.354	-111.812	-0.051	0.010
-687.339	83.419	0.178	-0.193
-686.324	49.038	0.120	0.112
-685.310	31.676	-0.164	0.140
-684.295	54.106	0.193	0.185
-683.281	127.473	-0.062	-0.078
-682.266	5.277	0.176	0.129
-681.251	-200.000	-0.004	0.062
-680.237	100.036	-0.264	-0.305
-679.222	164.543	0.213	-0.299
-678.208	-89.137	0.103	-0.030
-677.193	-47.164	-0.146	-0.071
-676.178	667.495	0.038	0.098
-675.164	214.116	-0.208	0.328
-674.149	-73.814	0.126	-0.046
-673.135	-159.876	-0.033	-0.002
-672.120	800.000	-0.041	0.162
-671.105	-200.000	-0.003	0.263
-670.091	32.078	-0.160	-0.137
-669.076	193.674	-0.067	-0.101
-668.062	-148.834	0.123	0.010
-667.047	-200.000	0.027	-0.123
-666.032	18.459	-0.150	0.119
-665.018	206.280	0.079	0.122
-664.003	171.656	-0.171	0.245
-662.989	-118.423	0.328	0.058
-661.974	6.810	0.197	0.146
-660.959	-95.059	-0.266	-0.071
-659.945	-132.845	-0.065	-0.008
-658.930	-200.000	0.041	0.492
-657.916	58.050	-0.093	0.090
-656.901	476.529	-0.082	-0.184
-655.886	46.151	-0.050	0.046
-654.872	-200.000	0.036	-0.173
-653.857	-32.709	-0.279	0.154
-652.843	47.195	0.282	0.261
-651.828	-62.180	0.276	-0.115
-650.814	-47.888	-0.225	-0.108
-649.799	-74.203	0.269	-0.097
-648.784	-200.000	0.011	0.156
-647.770	-121.058	0.151	-0.025
-646.755	-200.000	0.025	-0.138
-645.741	270.831	0.091	-0.159
-644.726	83.743	-0.173	0.188
-643.711	-200.000	-0.013	0.150
-642.697	46.200	0.212	-0.195
-641.682	-200.000	0.008	-0.151
-640.668	-61.636	0.115	-0.048
-639.653	-105.935	0.096	-0.021
-638.638	-200.000	-0.052	-0.319
-637.624	-200.000	-0.064	-0.360
-636.609	800.000	0.046	0.187
-635.595	-46.187	-0.295	-0.144
-634.580	-116.188	0.275	-0.051
-633.565	-155.045	-0.258	-0.017
-632.551	597.643	0.068	0.167
-631.536	89.423	0.195	-0.216
-630.522	800.000	0.071	-0.212
-629.507	800.000	-0.022	0.089
-628.492	133.112	-0.087	0.111
-627.478	-200.000	-0.001	0.043
-626.463	800.000	-0.055	0.181
-625.449	72.559	-0.329	0.341
-624.434	-147.121	-0.067	-0.006
-623.419	54.935	-0.052	0.050
-622.405	48.317	-0.366	0.340
-621.390	593.868	0.061	-0.150
-620.376	-164.669	-0.196	-0.009
-619.361	-127.943	0.151	-0.022
-618.346	-71.867	-0.143	0.053
-617.332	-64.915	0.145	-0.058
-616.317	-114.828	-0.316	-0.060
-615.303	-9.278	0.091	-0.060
-614.288	-128.545	0.243	-0.034
-613.273	-72.792	0.296	-0.108
-612.259	-200.000	0.127	-0.000
-611.244	-176.318	0.107	0.003
-610.230	123.389	0.172	0.214
-609.215	-156.130	-0.159	-0.010
-608.201	-69.714	0.262	-0.100
-607.186	-69.422	0.156	-0.060
-606.171	-174.098	0.229	0.007
-605.157	-200.000	-0.032	-0.369
-604.142	77.461	0.268	-0.283
-603.128	-70.475	-0.050	-0.019
-602.113	203.586	0.152	-0.233
-601.098	17.859	-0.030	-0.024
-600.084	-100.197	-0.112	-0.028
-599.069	800.000	0.050	0.141
-598.055	-60.167	0.104	-0.044
-597.040	-149.763	-0.285	0.022
-596.025	-200.000	-0.043	-0.214
-595.011	-150.254	0.105	-0.008
-593.996	-114.981	-0.140	-0.026
-592.982	-29.210	0.234	0.133
-591.967	-71.932	0.300	-0.111
-590.952	-90.693	-0.106	-0.030
-589.938	-200.000	0.045	-0.285
-588.923	-12.469	-0.173	-0.112
-587.909	800.000	-0.060	-0.208
-586.894	-200.000	0.003	0.060
-585.879	554.075	0.103	-0.245
-584.865	25.860	-0.199	-0.165
-583.850	26.131	-0.023	-0.019
-582.836	-200.000	-0.062	-0.382
-581.821	576.950	-0.022	0.053
-580.806	-93.345	0.057	-0.016
-579.792	19.882	0.201	-0.160
-578.777	188.438	0.073	0.108
-577.763	792.016	0.131	-0.357
-576.748	69.898	-0.203	-0.208
-575.733	800.000	-0.056	0.226
-574.719	71.967	-0.381	-0.393
-573.704	-131.067	0.146	0.019
-572.690	-200.000	0.010	0.114
-571.675	-173.532	0.298	0.009
-570.661	36.616	-0.154	0.135
-569.646	-36.807	0.280	0.149
-568.631	-103.873	0.049	-0.011
-567.617	-60.442	-0.115	0.048
-566.602	-104.664	0.365	-0.083
-565.588	-200.000	-0.132	-0.000
-564.573	-200.000	0.033	0.415
-563.558	-200.000	0.092	-0.449
-562.544	540.989	-0.127	-0.299
-561.529	-200.000	0.003	0.516
-560.515	99.919	0.160	0.184
-559.500	128.819	-0.211	0.267
-558.485	554.808	-0.116	0.276
-557.471	260.398	-0.231	0.396
-556.456	62.520	-0.109	-0.107
-555.442	72.309	0.159	0.164
-554.427	-200.000	0.045	0.285
-553.412	41.689	-0.188	-0.169
-552.398	-96.367	0.151	-0.039
-551.383	-200.000	0.003	-0.392
-550.369	-70.974	-0.110	-0.041
-549.354	-40.409	-0.080	-0.041
-548.339	-78.463	-0.086	0.029
-547.325	-103.079	0.125	-0.029
-546.310	306.262	0.129	-0.238
-545.296	800.000	0.062	0.258
-544.281	98.036	0.186	-0.212
-543.266	-52.385	-0.151	0.069
-542.252	-97.680	0.049	-0.013
-541.237	-45.265	-0.241	0.118
-540.223	21.222	0.039	0.032
-539.208	0.468	-0.339	0.239
-538.193	-200.000	-0.051	0.321
-537.179	199.826	0.088	0.133
-536.164	-144.320	-0.293	0.027
-535.150	-94.263	0.221	0.060
-534.135	-73.127	-0.047	0.017
-533.121	147.001	0.146	-0.194
-532.106	-34.272	-0.199	0.108
-531.091	-77.299	0.449	-0.154
-530.077	-156.495	0.098	0.006
-529.062	-200.000	0.066	0.366
-528.048	-91.129	-0.317	-0.090
-527.033	-94.345	0.377	-0.102
-526.018	-92.864	-0.179	-0.049
-525.004	-9.476	0.149	0.098
-523.989	-200.000	0.009	0.056
-522.975	-200.000	-0.008	-0.369
-521.960	-5.654	0.324	0.220
-520.945	800.000	-0.098	0.399
-519.931	278.017	0.243	0.428
-518.916	-79.252	0.149	-0.050
-517.902	-38.807	-0.098	0.051
-516.887	-200.000	-0.031	0.315
-515.872	329.180	-0.148	0.282
-514.858	-200.000	0.008	0.275
-513.843	140.166	0.075	0.097
-512.829	800.000	-0.060	-0.225
-511.814	-59.998	-0.329	-0.139
-510.799	-41.862	0.213	-0.108
-509.785	-200.000	0.013	0.078
-508.770	-19.917	0.089	-0.054
-507.756	-200.000	0.004	-0.116
-506.741	-120.908	-0.467	-0.078
-505.726	-39.419	0.225	-0.117
-504.712	-151.007	0.075	0.006
-503.697	-9.404	-0.311	0.205
-502.683	-128.245	-0.169	0.024
-501.668	800.000	0.046	0.155
-500.653	-200.000	-0.333	-0.002
-499.639	-122.853	0.118	-0.019
-498.624	-35.255	-0.104	0.056
-497.610	67.241	0.181	0.183
-496.595	303.808	0.059	-0.108
-495.581	145.370	-0.201	0.266
-494.566	110.859	-0.182	0.217
-493.551	299.510	0.112	0.204
-492.537	-200.000	0.017	-0.135
-491.522	-15.510	-0.225	0.142
-490.508	211.649	0.121	0.189
-489.493	-33.223	0.184	0.101
-488.478	97.891	-0.152	0.172
-487.464	-40.314	0.230	-0.118
-486.449	-94.343	0.095	-0.026
-485.435	-52.055	0.217	0.099
-484.420	-70.695	-0.229	0.086
-483.405	18.494	-0.164	-0.129
-482.391	-200.000	-0.006	-0.183
-481.376	-200.000	-0.072	0.487
-480.362	800.000	0.117	-0.364
-479.347	-35.645	-0.284	0.152
-478.332	-200.000	0.029	-0.211
-477.318	-200.000	0.011	0.299
-476.303	-21.621	-0.220	-0.132
-475.289	535.798	0.114	0.267
-474.274	-107.318	-0.275	0.060
-473.259	182.081	-0.133	-0.193
-472.245	-6.629	0.204	0.137
-471.230	-133.444	-0.156	-0.019
-470.216	-200.000	0.004	0.021
-469.201	-56.324	0.290	-0.127
-468.186	-92.329	-0.322	0.089
-467.172	-83.183	-0.286	-0.091
-466.157	105.669	-0.145	-0.169
-465.143	-158.083	0.340	0.020
-464.128	57.156	0.315	0.303
-463.113	481.604	-0.071	-0.159
-462.099	507.575	-0.049	-0.112
-461.084	47.507	0.130	-0.119
-460.070	-89.072	0.071	-0.021
-459.055	5.423	0.135	-0.099
-458.040	-93.605	0.157	0.043
-457.026	-200.000	0.021	0.180
-456.011	60.072	0.111	-0.108
-454.997	-200.000	0.008	-0.108
-453.982	-200.000	0.062	0.315
-452.968	-175.282	0.401	-0.011
-451.953	-17.488	0.155	0.096
-450.938	-151.800	0.343	-0.025
-449.924	87.933	-0.242	0.265
-448.909	352.336	-0.106	0.206
-447.895	-200.000	-0.040	-0.187
-446.880	800.000	-0.066	-0.260
-445.865	-200.000	0.031	-0.257
-444.851	-200.000	0.005	0.272
-443.836	-15.516	-0.184	0.116
-442.822	-200.000	0.007	0.032
-441.807	-109.303	-0.063	-0.013
-440.792	-51.059	-0.417	-0.193
-439.778	-5.866	0.222	0.149
-438.763	-132.359	-0.409	0.052
-437.749	800.000	-0.035	0.128
-436.734	-134.272	0.313	0.038
-435.719	-143.957	0.323	0.030
-434.705	231.873	0.122	-0.197
-433.690	-44.798	0.076	-0.037
-432.676	396.983	0.055	-0.113
-431.661	-25.167	-0.385	0.224
-430.646	33.014	-0.135	0.115
-429.632	23.645	0.010	0.008
-428.617	412.972	-0.210	0.439
-427.603	-132.195	-0.394	-0.050
-426.588	543.225	0.038	0.089
-425.573	-200.000	-0.001	0.097
-424.559	800.000	0.121	-0.331
-423.544	-16.802	0.233	0.145
-422.530	67.164	0.131	-0.132
-421.515	178.360	0.088	0.126
-420.500	-200.000	-0.002	0.199
-419.486	-76.563	0.389	0.134
-418.471	134.189	-0.112	-0.143
-417.457	-7.514	-0.276	-0.184
-416.442	80.793	0.237	-0.251
-415.428	48.914	0.074	-0.069
-414.413	-41.492	-0.221	-0.112
-413.398	-133.989	-0.230	-0.028
-412.384	-143.116	0.126	0.012
-411.369	477.972	0.115	0.256
-410.355	490.751	0.058	0.130
-409.340	25.479	-0.156	0.128
-408.325	-160.463	-0.112	0.006
-407.311	-200.000	0.013	-0.320
-406.296	-65.817	0.231	-0.091
-405.282	-112.440	-0.180	-0.035
-404.267	-152.304	-0.223	0.016
-403.252	141.957	0.224	-0.293
-402.238	-103.614	-0.079	0.018
-401.223	-200.000	0.011	0.251
-400.209	-114.220	-0.250	-0.048
-399.194	327.226	0.123	0.233
-398.179	800.000	0.066	-0.193
-397.165	-191.987	-0.205	-0.002
-396.150	380.891	-0.129	0.260
-395.136	-70.701	-0.257	-0.095
-394.121	-55.388	-0.155	-0.069
-393.106	-81.852	-0.125	-0.040
-392.092	-26.451	-0.017	-0.010
-391.077	-200.000	0.015	0.194
-390.063	-126.136	0.354	-0.052
-389.048	-200.000	-0.074	-0.370
-388.033	-113.782	0.287	-0.055
-387.019	-200.000	0.003	0.106
-386.004	346.548	0.054	0.105
-384.990	173.208	-0.153	0.217
-383.975	-40.015	-0.089	-0.046
-382.960	250.735	0.150	0.251
-381.946	-119.889	-0.228	-0.039
-380.931	521.530	0.082	-0.189
-379.917	40.725	0.220	0.195
-378.902	-153.549	-0.199	-0.014
-377.888	800.000	0.057	-0.163
-376.873	39.429	-0.205	-0.180
-375.858	106.526	-0.267	-0.311
-374.844	159.290	0.101	0.138
-373.829	-19.646	-0.450	-0.274
-372.815	242.411	-0.082	-0.135
-371.800	-117.477	0.192	-0.034
-370.785	-200.000	0.008	0.197
-369.771	800.000	-0.059	0.195
-368.756	413.124	0.112	0.234
-367.742	36.910	-0.118	0.103
-366.727	-37.930	0.262	0.137
-365.712	800.000	0.031	-0.097
-364.698	695.725	0.041	0.106
-363.683	139.795	-0.157	0.203
-362.669	-91.733	0.083	-0.023
-361.654	-137.700	0.366	-0.040
-360.639	24.871	0.263	-0.214
-359.625	-6.763	-0.169	-0.113
-358.610	-200.000	-0.039	-0.229
-357.596	-200.000	0.020	-0.120
-356.581	-93.595	-0.317	0.086
-355.566	800.000	0.014	0.045
-354.552	-11.335	-0.100	0.065
-353.537	-131.119	-0.174	0.023
-352.523	172.124	0.023	-0.032
-351.508	-86.256	-0.300	-0.091
-350.493	176.277	-0.225	0.321
-349.479	-120.652	0.046	-0.008
-348.464	-200.000	-0.036	-0.260
-347.450	-89.527	-0.080	0.023
-346.435	67.855	-0.257	0.258
-345.420	-200.000	-0.040	-0.260
-344.406	93.391	0.108	-0.120
-343.391	100.111	0.261	-0.297
-342.377	-81.138	-0.329	-0.107
-341.362	199.913	-0.085	-0.128
-340.348	-38.950	-0.146	-0.076
-339.333	-200.000	-0.014	-0.097
-338.318	110.045	-0.027	0.032
-337.304	-200.000	0.023	-0.114
-336.289	256.417	0.189	-0.319
-335.275	-32.720	-0.203	0.111
-334.260	-101.811	-0.201	0.048
-333.245	-14.355	0.178	-0.112
-332.231	278.375	-0.196	-0.343
-331.216	-200.000	0.179	0.001
-330.202	-50.044	-0.372	0.173
-329.187	606.787	0.120	-0.294
-328.172	-23.439	-0.214	-0.126
-327.158	800.000	0.041	-0.173
-326.143	-49.851	0.238	-0.111
-325.129	60.066	-0.247	0.239
-324.114	12.765	0.307	0.233
-323.099	800.000	0.042	-0.157
-322.085	-129.531	0.153	0.021
-321.070	27.949	0.050	0.041
-320.056	0.877	0.128	-0.090
-319.041	41.896	-0.028	0.025
-318.026	-121.305	0.182	0.030
-317.012	-156.974	0.063	-0.004
-315.997	-131.362	-0.469	-0.061
-314.983	-148.030	0.107	0.009
-313.968	-200.000	-0.020	-0.108
-312.953	-23.900	0.227	-0.133
-311.939	149.244	0.215	0.285
-310.924	19.045	0.185	0.145
-309.910	-104.573	0.231	0.052
-308.895	184.604	-0.177	-0.257
-307.880	-97.237	-0.111	0.028
-306.866	-162.988	0.336	0.016
-305.851	-60.594	-0.149	0.062
-304.837	454.071	-0.187	0.407
-303.822	-200.000	-0.051	-0.254
-302.807	-93.761	0.205	-0.055
-301.793	234.669	-0.070	0.113
-300.778	185.524	-0.116	-0.169
-299.764	-200.000	0.080	-0.401
-298.749	425.477	0.121	0.255
-297.735	-88.423	-0.413	0.121
-296.720	-16.307	0.113	0.071
-295.705	432.496	0.078	-0.166
-294.691	75.635	-0.060	-0.062
-293.676	-200.000	-0.025	0.133
-292.662	-48.459	0.232	0.109
-291.647	412.957	-0.187	-0.389
-290.632	-69.519	0.064	-0.024
-289.618	-59.451	0.297	-0.125
-288.603	-117.059	0.124	0.022
-287.589	0.858	0.131	-0.092
-286.574	60.799	0.181	0.176
-285.559	800.000	0.020	0.074
-284.545	29.434	-0.048	-0.040
-283.530	-200.000	0.053	-0.324
-282.516	-200.000	0.031	0.187
-281.501	-101.032	0.293	0.070
-280.486	315.768	-0.146	0.270
-279.472	-200.000	-0.002	-0.223
-278.457	-200.000	-0.014	0.161
-277.443	-41.587	-0.260	0.131
-276.428	-200.000	-0.043	-0.203
-275.413	-142.825	0.168	0.016
-274.399	800.000	-0.051	-0.179
-273.384	107.213	0.311	-0.361
-272.370	-156.123	-0.188	-0.012
-271.355	-96.594	-0.317	0.082
-270.340	302.572	0.129	-0.233
-269.326	271.658	-0.152	-0.262
-268.311	-200.000	-0.007	0.178
-267.297	-96.944	-0.371	0.095
-266.282	-185.278	0.356	-0.005
-265.267	-200.000	0.011	-0.169
-264.253	-137.392	0.071	-0.008
-263.238	-98.050	-0.138	-0.035
-262.224	-200.000	-0.273	0.000
-261.209	-114.287	0.207	0.039
-260.195	-28.918	-0.224	0.126
-259.180	56.958	0.086	-0.082
-258.165	-93.056	0.122	-0.033
-257.151	116.441	-0.091	0.109
-256.136	800.000	-0.082	0.266
-255.122	50.111	-0.149	-0.138
-254.107	-106.820	0.134	0.029
-253.092	185.084	-0.109	0.158
-252.078	-200.000	0.032	-0.162
-251.063	800.000	0.044	0.120
-250.049	-51.741	-0.392	-0.178
-249.034	1.995	0.229	0.162
-248.019	211.585	-0.106	0.163
-247.005	32.345	0.081	-0.068
-245.990	-200.000	-0.058	-0.402
-244.976	148.253	0.018	0.024
-243.961	77.968	0.104	0.108
-242.946	12.303	-0.199	-0.150
-241.932	-39.659	-0.077	0.040
-240.917	134.129	0.113	0.143
-239.903	266.229	-0.156	0.266
-238.888	654.766	-0.047	0.117
-237.873	-94.906	-0.167	0.044
-236.859	36.404	0.149	0.128
-235.844	137.582	0.213	-0.273
-234.830	-48.329	0.159	-0.075
-233.815	-123.593	0.124	0.019
-232.800	-36.258	0.167	0.088
-231.786	-128.074	-0.205	-0.029
-230.771	-79.927	0.257	-0.085
-229.757	543.085	-0.056	0.131
-228.742	-119.327	0.208	0.035
-227.727	-36.905	0.254	-0.133
-226.713	105.447	0.262	0.303
-225.698	-81.841	0.411	0.131
-224.684	-98.717	0.246	0.061
-223.669	112.585	0.102	0.121
-222.655	55.293	0.137	-0.130
-221.640	97.779	0.132	0.148
-220.625	653.627	0.073	0.183
-219.611	27.264	0.213	0.174
-218.596	235.615	0.073	-0.119
-217.582	-42.556	-0.212	-0.106
-216.567	-200.000	-0.002	-0.062
-215.552	-120.939	0.344	-0.057
-214.538	-175.025	0.206	0.006
-213.523	274.925	-0.182	-0.316
-212.509	800.000	0.123	-0.394
-211.494	-39.633	0.257	0.131
-210.479	-160.101	-0.268	0.014
-209.465	4.869	0.098	0.071
-208.450	271.553	-0.160	0.275
-207.436	115.147	0.148	0.177
-206.421	38.418	0.191	0.166
-205.406	-200.000	0.028	-0.144
-204.392	-101.011	0.197	0.047
-203.377	24.571	-0.150	-0.121
-202.363	12.900	-0.159	-0.120
-201.348	-174.370	-0.378	0.011
-200.333	800.000	0.024	0.075
-199.319	125.818	-0.060	-0.074
-198.304	800.000	0.025	0.068
-197.290	-70.570	-0.351	-0.130
-196.275	100.458	0.176	-0.199
-195.260	-46.253	-0.301	-0.144
-194.246	31.024	-0.223	-0.187
-193.231	278.138	0.078	-0.135
-192.217	70.530	0.187	0.188
-191.202	109.831	0.321	-0.376
-190.187	-39.945	-0.190	0.097
-189.173	493.880	-0.019	0.042
-188.158	-144.329	-0.217	0.020
-187.144	-181.949	-0.166	0.003
-186.129	-22.427	0.181	0.107
-185.114	10.853	0.174	0.130
-184.100	-39.819	-0.232	-0.118
-183.085	-16.272	-0.505	0.313
-182.071	106.728	-0.156	0.181
-181.056	800.000	0.043	0.128
-180.042	-38.814	-0.018	-0.009
-179.027	149.703	0.191	-0.253
-178.012	-92.113	0.244	0.067
-176.998	-117.188	0.329	0.058
-175.983	-118.745	-0.106	0.018
-174.969	271.446	-0.060	-0.103
-173.954	-87.671	-0.319	-0.094
-172.939	42.864	-0.393	0.349
-171.925	-77.330	-0.127	0.043
-170.910	1.015	0.251	0.175
-169.896	321.480	-0.168	0.312
-168.881	-15.751	-0.147	0.091
-167.866	-200.000	0.004	-0.316
-166.852	-7.623	0.322	0.212
-165.837	800.000	0.092	-0.248
-164.823	-200.000	-0.022	-0.249
-163.808	116.352	-0.171	-0.205
-162.793	800.000	0.020	-0.081
-161.779	-84.228	-0.205	0.063
-160.764	800.000	-0.201	0.563
-159.750	-200.000	0.010	-0.194
-158.735	99.827	-0.083	0.094
-157.720	-200.000	0.267	0.001
-156.706	800.000	0.131	-0.389
-155.691	800.000	-0.103	0.385
-154.677	-63.511	-0.394	0.158
-153.662	643.241	0.088	-0.217
-152.647	-53.577	0.198	-0.088
-151.633	568.837	-0.124	0.295
-150.618	-75.756	0.141	-0.049
-149.604	-145.145	0.151	-0.013
-148.589	-200.000	0.008	0.148
-147.574	81.879	-0.212	0.224
-146.560	205.456	0.017	0.026
-145.545	176.033	0.160	0.226
-144.531	-157.714	0.448	-0.026
-143.516	-61.566	0.096	0.039
-142.502	427.592	0.021	-0.045
-141.487	-156.508	0.492	-0.030
-140.472	6.272	-0.075	-0.054
-139.458	152.843	0.071	0.095
-138.443	305.852	-0.096	0.173
-137.429	267.979	0.161	0.274
-136.414	-69.546	-0.195	-0.073
-135.399	-49.114	0.288	-0.134
-134.385	800.000	0.099	-0.378
-133.370	30.853	-0.117	-0.097
-132.356	-200.000	0.000	0.061
-131.341	1.151	-0.184	0.128
-130.326	263.598	0.142	-0.240
-129.312	-144.480	0.119	-0.011
-128.297	263.836	-0.082	-0.138
-127.283	31.346	-0.050	0.042
-126.268	-153.015	0.301	-0.021
-125.253	-200.000	0.050	0.228
-124.239	154.597	-0.110	0.147
-123.224	99.624	0.127	-0.143
-122.210	-200.000	0.026	-0.159
-121.195	-65.305	-0.259	-0.102
-120.180	-200.000	0.037	0.384
-119.166	-13.836	0.249	0.157
-118.151	-200.000	0.066	0.372
-117.137	301.970	-0.121	0.218
-116.122	91.220	-0.025	0.027
-115.107	85.943	-0.229	-0.246
-114.093	59.311	0.136	0.130
-113.078	-33.242	0.195	-0.105
-112.064	-25.649	0.141	0.081
-111.049	101.933	0.118	-0.134
-110.034	89.681	-0.023	-0.025
-109.020	11.760	-0.566	-0.423
-108.005	-68.156	0.040	-0.015
-106.991	104.484	0.101	0.115
-105.976	800.000	0.023	0.062
-104.962	-77.983	0.113	0.038
-103.947	52.953	0.106	-0.098
-102.932	-200.000	-0.110	-0.499
-101.918	330.877	0.106	0.198
-100.903	-200.000	-0.029	0.140
-99.889	-24.371	0.111	0.064
-98.874	-119.998	0.242	0.040
-97.859	45.662	0.206	0.185
-96.845	-200.000	-0.038	-0.299
-95.830	-168.106	-0.203	0.008
-94.816	318.249	0.124	0.229
-93.801	107.778	0.187	-0.217
-92.786	49.279	0.102	0.094
-91.772	800.000	-0.065	-0.212
-90.757	93.529	0.176	0.194
-89.743	206.824	0.112	-0.170
-88.728	800.000	-0.050	-0.208
-87.713	362.840	-0.027	0.053
-86.699	104.394	-0.157	0.180
-85.684	75.928	0.186	0.191
-84.670	443.801	-0.102	0.216
-83.655	-200.000	-0.061	-0.307
-82.640	-25.800	-0.228	0.131
-81.626	-74.671	0.328	-0.115
-80.611	-200.000	0.059	-0.457
-79.597	145.619	0.221	-0.288
-78.582	-200.000	0.033	0.267
-77.567	34.104	0.054	0.046
-76.553	342.238	0.175	-0.332
-75.538	404.810	-0.102	-0.210
-74.524	-27.809	-0.178	0.100
-73.509	-200.000	0.056	-0.321
-72.494	800.000	0.030	-0.117
-71.480	23.197	0.147	0.118
-70.465	-44.875	0.125	-0.061
-69.451	96.977	0.121	0.135
-68.436	5.333	-0.116	0.083
-67.422	548.276	0.082	0.191
-66.407	-8.448	0.360	0.235
-65.392	537.991	-0.105	-0.243
-64.378	-200.000	0.010	0.076
-63.363	-29.373	-0.178	0.099
-62.349	-112.727	-0.030	-0.006
-61.334	39.743	-1.430	-1.246
-60.319	32.289	0.815	0.683
-59.305	101.219	-1.147	-1.296
-58.290	255.444	0.893	1.486
-57.276	294.803	0.800	1.420
-56.261	-200.000	136.449	662.382
-55.246	337.726	1672.285	3157.090
-54.232	134.569	2809.469	3538.349
-53.217	80.442	2313.506	2418.351
-52.203	29.113	1912.116	1574.880
-51.188	23.307	1707.884	1362.103
-50.173	21.531	1669.335	1317.948
-49.159	43.126	1743.231	1543.919
-48.144	39.967	1751.981	1527.244
-47.130	22.998	1703.296	1355.857
-46.115	20.594	1688.087	1325.398
-45.100	20.391	1683.239	1319.995
-44.086	20.312	1680.144	1316.917
-43.071	20.418	1677.821	1315.848
-42.057	20.314	1676.027	1313.600
-41.042	20.373	1673.553	1312.058
-40.027	20.437	1671.263	1310.692
-39.013	20.345	1669.987	1308.946
-37.998	20.355	1668.765	1308.014
-36.984	20.348	1667.343	1306.795
-35.969	20.517	1665.164	1306.302
-34.954	20.510	1664.044	1305.323
-33.940	20.411	1662.268	1303.132
-32.925	20.462	1660.583	1302.144
-31.911	20.430	1658.749	1300.414
-30.896	20.350	1657.548	1298.826
-29.881	20.473	1656.229	1298.657
-28.867	20.532	1653.899	1297.222
-27.852	20.428	1652.696	1295.449
-26.838	20.502	1651.283	1294.844
-25.823	20.492	1650.129	1293.809
-24.809	20.522	1648.904	1293.021
-23.794	20.496	1647.646	1291.788
-22.779	20.599	1645.917	1291.146
-21.765	20.551	1644.419	1289.563
-20.750	20.557	1642.606	1288.139
-19.736	20.562	1641.487	1287.243
-18.721	20.588	1640.359	1286.504
-17.706	20.590	1638.557	1285.056
-16.692	20.535	1637.189	1283.520
-15.677	20.549	1635.655	1282.369
-14.663	20.615	1634.293	1281.743
-13.648	20.517	1632.895	1279.869
-12.633	20.531	1631.528	1278.853
-11.619	20.580	1629.462	1277.542
-10.604	20.532	1628.480	1276.367
-9.590	20.538	1627.041	1275.236
-8.575	20.452	1626.175	1273.871
-7.560	20.570	1625.075	1273.825
-6.546	20.634	1623.192	1272.770
-5.531	20.567	1622.496	1271.680
-4.517	20.645	1620.983	1271.018
-3.502	20.503	1620.225	1269.335
-2.487	20.663	1617.915	1268.640
-1.473	20.166	1605.931	1255.594
-0.458	17.125	1586.071	1218.234
0.556	12.547	1587.258	1186.615
1.571	10.304	1611.128	1187.914
2.586	10.228	1622.477	1195.616
3.600	9.873	1568.037	1152.857
4.615	5.763	1462.863	1048.006
5.629	1.339	1407.395	979.680
6.644	0.702	1400.707	970.849
7.659	0.680	1399.719	969.941
8.673	0.565	1398.815	968.488
9.688	0.613	1396.065	966.805
10.702	0.426	1393.078	963.456
11.717	2.488	1395.171	978.000
12.731	8.504	1404.078	1022.736
13.746	14.479	1413.434	1067.838
14.761	17.071	1416.299	1086.521
15.775	16.601	1414.590	1082.105
16.790	15.604	1411.841	1073.542
17.804	14.917	1409.676	1067.415
18.819	14.483	1408.348	1063.548
19.834	14.190	1407.693	1061.089
20.848	13.958	1406.229	1058.415
21.863	13.736	1404.592	1055.679
22.877	13.620	1403.025	1053.666
23.892	13.381	1402.615	1051.746
24.907	13.510	1401.696	1051.784
25.921	13.503	1400.976	1051.109
26.936	13.606	1399.628	1050.655
27.950	13.637	1399.037	1050.313
28.965	13.765	1397.620	1049.967
29.980	13.636	1397.137	1048.698
30.994	13.751	1395.681	1048.238
32.009	13.645	1394.982	1046.952
33.023	13.707	1393.941	1046.470
34.038	13.640	1392.813	1045.108
35.053	13.747	1391.255	1044.520
36.067	13.749	1390.142	1043.602
37.082	13.723	1389.628	1042.965
38.096	13.710	1388.486	1041.931
39.111	13.723	1387.765	1041.379
40.126	13.648	1386.949	1040.204
41.140	13.649	1386.120	1039.495
42.155	13.564	1385.938	1038.733
43.169	13.506	1385.939	1038.278
44.184	13.576	1385.420	1038.237
45.199	13.583	1384.822	1037.740
46.213	13.642	1384.401	1037.705
47.228	13.702	1382.704	1036.713
48.242	13.657	1381.722	1035.605
49.257	13.680	1380.479	1034.728
50.271	13.686	1378.840	1033.445
51.286	13.650	1377.617	1032.212
52.301	13.638	1376.068	1030.883
53.315	13.615	1375.295	1030.073
54.330	13.596	1374.307	1029.121
55.344	13.531	1373.189	1027.791
56.359	13.549	1372.269	1027.124
57.374	13.554	1370.972	1026.092
58.388	13.530	1370.427	1025.443
59.403	13.545	1369.806	1024.983
60.417	13.648	1368.893	1024.846
61.432	13.505	1368.473	1023.557
62.447	13.526	1367.032	1022.521
63.461	13.467	1365.876	1021.197
64.476	13.493	1364.931	1020.563
65.490	13.463	1363.599	1019.291
66.505	13.518	1361.494	1017.964
67.520	13.574	1360.469	1017.456
68.534	13.538	1359.680	1016.555
69.549	13.564	1358.502	1015.742
70.563	13.481	1357.448	1014.355
71.578	13.472	1356.390	1013.422
72.593	13.488	1355.245	1012.574
73.607	13.440	1354.476	1011.613
74.622	13.439	1353.371	1010.692
75.636	13.472	1352.762	1010.349
76.651	13.464	1351.620	1009.360
77.666	13.526	1351.539	1009.589
78.680	13.515	1350.670	1008.782
79.695	13.506	1349.836	1008.018
80.709	13.500	1349.237	1007.441
81.724	13.565	1348.400	1007.123
82.739	13.607	1347.381	1006.530
83.753	13.614	1346.899	1006.122
84.768	13.741	1345.178	1005.520
85.782	13.680	1344.322	1004.420
86.797	13.659	1343.242	1003.395
87.812	13.577	1341.465	1001.486
88.826	13.516	1340.903	1000.610
89.841	13.550	1339.202	999.455
90.855	13.630	1338.392	999.244
91.870	13.651	1337.812	998.852
92.884	13.694	1336.660	998.160
93.899	13.756	1335.481	997.567
94.914	13.780	1334.745	997.069
95.928	13.650	1334.241	995.824
96.943	13.765	1333.167	995.625
97.957	13.719	1332.190	994.532
98.972	13.751	1330.745	993.556
99.987	13.668	1330.392	992.705
101.001	13.773	1329.321	992.449
102.016	13.656	1328.283	990.890
103.030	13.732	1327.458	990.637
104.045	13.744	1326.591	989.978
105.060	13.716	1324.814	988.396
106.074	13.604	1323.834	986.908
107.089	13.684	1322.081	985.992
108.103	13.639	1321.027	984.850
109.118	13.625	1319.403	983.471
110.133	13.634	1318.101	982.465
111.147	13.623	1316.823	981.360
112.162	13.439	1316.022	979.589
113.176	13.736	1314.421	980.062
114.191	13.732	1313.380	979.179
115.206	13.597	1312.359	977.536
116.220	13.661	1310.922	976.752
117.235	13.664	1310.516	976.380
118.249	13.675	1309.018	975.244
119.264	13.639	1308.015	974.200
120.279	13.695	1306.533	973.338
121.293	13.627	1305.827	972.325
122.308	13.699	1304.646	971.784
123.322	13.569	1303.732	970.259
124.337	13.587	1302.786	969.569
125.352	13.560	1301.887	968.659
126.366	13.519	1300.278	967.138
127.381	13.650	1299.344	967.124
128.395	13.688	1297.939	966.213
129.410	13.627	1297.044	965.102
130.424	13.603	1296.261	964.296
131.439	13.582	1295.435	963.473
132.454	13.803	1293.740	963.413
133.468	13.708	1293.156	962.341
134.483	13.667	1292.548	961.567
135.497	13.706	1291.817	961.160
136.512	13.711	1290.134	959.854
137.527	13.722	1288.481	958.600
138.541	13.718	1286.950	957.357
139.556	13.790	1285.925	956.923
140.570	13.706	1284.822	955.537
141.585	13.800	1283.626	955.101
142.600	13.778	1282.626	954.145
143.614	13.821	1281.763	953.666
144.629	13.874	1280.490	952.937
145.643	13.901	1279.532	952.298
146.658	13.838	1277.945	950.670
147.673	13.742	1276.888	949.253
148.687	13.799	1275.659	948.577
149.702	13.822	1273.915	947.332
150.716	13.693	1272.926	945.775
151.731	13.783	1271.854	945.406
152.746	13.859	1270.340	944.629
153.760	13.885	1269.177	943.832
154.775	13.760	1267.904	942.088
155.789	13.967	1266.833	942.383
156.804	13.858	1265.659	940.810
157.819	13.845	1264.704	939.946
158.833	13.999	1263.572	939.893
159.848	14.037	1262.519	939.241
160.862	14.109	1261.284	938.644
161.877	13.982	1259.735	936.693
162.892	13.847	1259.423	935.618
163.906	13.944	1258.289	935.240
164.921	13.930	1257.928	934.808
165.935	13.973	1256.511	933.913
166.950	13.950	1256.100	933.397
167.964	13.980	1255.016	932.678
168.979	13.986	1254.418	932.187
169.994	14.003	1253.628	931.611
171.008	14.031	1252.965	931.193
172.023	14.121	1251.764	930.717
173.037	14.033	1251.128	929.672
174.052	14.146	1250.320	929.618
175.067	13.983	1249.509	928.027
176.081	14.065	1248.345	927.537
177.096	14.052	1247.462	926.726
178.110	14.023	1246.319	925.634
179.125	13.996	1244.942	924.381
180.140	14.055	1243.851	923.813
181.154	14.083	1242.573	922.942
182.169	14.099	1241.391	922.067
183.183	14.259	1239.888	921.754
184.198	14.183	1238.817	920.459
185.213	14.281	1237.548	919.976
186.227	14.354	1236.190	919.290
187.242	14.321	1235.540	918.542
188.256	14.248	1234.786	917.498
189.271	14.245	1233.912	916.751
190.286	14.267	1232.588	915.807
191.300	14.115	1231.709	914.238
192.315	14.174	1231.269	914.152
193.329	14.078	1230.489	912.966
194.344	14.204	1229.419	912.779
195.359	14.226	1229.113	912.593
196.373	14.219	1228.767	912.220
197.388	14.341	1228.449	912.571
198.402	14.376	1227.761	912.168
199.417	14.428	1226.594	911.505
200.432	14.420	1226.009	910.946
201.446	14.468	1225.292	910.598
202.461	14.598	1224.214	910.424
203.475	14.544	1223.190	909.290
204.490	14.460	1222.310	908.094
205.504	14.522	1220.508	907.012
206.519	14.479	1219.409	905.886
207.534	14.505	1218.668	905.394
208.548	14.588	1217.312	904.754
209.563	14.434	1216.975	903.591
210.577	14.470	1215.985	902.969
211.592	14.617	1214.526	902.600
212.607	14.534	1214.052	901.725
213.621	14.653	1213.048	901.541
214.636	14.541	1212.395	900.370
215.650	14.582	1211.394	899.770
216.665	14.757	1210.409	899.899
217.680	14.686	1209.613	898.845
218.694	14.711	1208.448	898.034
219.709	14.736	1207.643	897.494
220.723	14.647	1207.368	896.729
221.738	14.669	1206.458	896.092
222.753	14.726	1205.464	895.583
223.767	14.741	1204.974	895.215
224.782	14.802	1204.309	894.971
225.796	14.843	1203.767	894.709
226.811	14.786	1202.666	893.508
227.826	14.875	1201.838	893.286
228.840	14.917	1200.672	892.565
229.855	14.796	1200.533	891.737
230.869	14.883	1199.184	891.123
231.884	14.744	1198.996	890.164
232.899	14.896	1197.943	890.110
233.913	14.910	1197.270	889.606
234.928	14.879	1196.385	888.705
235.942	14.771	1195.686	887.532
236.957	14.781	1195.124	887.091
237.972	14.817	1194.297	886.590
238.986	14.935	1193.610	886.629
240.001	14.937	1193.008	886.111
241.015	14.827	1192.291	884.919
242.030	14.908	1191.438	884.633
243.045	14.996	1190.406	884.256
244.059	15.030	1189.342	883.566
245.074	14.936	1188.772	882.569
246.088	15.080	1187.668	882.431
247.103	14.998	1187.049	881.462
248.117	15.104	1186.433	881.483
249.132	15.079	1185.958	880.921
250.147	15.123	1185.150	880.475
251.161	15.142	1184.442	879.972
252.176	15.269	1183.603	879.933
253.190	15.156	1182.977	878.800
254.205	15.214	1182.486	878.658
255.220	15.257	1181.647	878.186
256.234	15.318	1180.692	877.717
257.249	15.363	1180.013	877.372
258.263	15.362	1179.655	877.018
259.278	15.471	1178.473	876.633
260.293	15.356	1178.413	875.912
261.307	15.435	1177.548	875.603
262.322	15.517	1176.879	875.457
263.336	15.493	1176.646	875.080
264.351	15.451	1176.126	874.396
265.366	15.429	1174.996	873.365
266.380	15.411	1174.844	873.079
267.395	15.491	1173.558	872.461
268.409	15.416	1172.987	871.571
269.424	15.457	1172.062	871.020
270.439	15.578	1171.636	871.254
271.453	15.458	1171.163	870.206
272.468	15.490	1169.908	869.359
273.482	15.514	1169.204	868.886
274.497	15.531	1168.633	868.469
275.512	15.680	1167.838	868.573
276.526	15.598	1166.934	867.401
277.541	15.573	1165.830	866.373
278.555	15.580	1165.659	866.204
279.570	15.703	1164.560	865.949
280.585	15.681	1163.862	865.236
281.599	15.746	1162.740	864.662
282.614	15.603	1162.108	863.379
283.628	15.742	1160.742	862.999
284.643	15.663	1160.065	862.017
285.657	15.776	1159.158	861.844
286.672	15.783	1158.117	861.030
287.687	15.635	1157.643	859.847
288.701	15.819	1156.530	859.883
289.716	15.866	1155.774	859.487
290.730	15.833	1154.727	858.460
291.745	15.818	1154.331	858.015
292.760	15.806	1153.882	857.544
293.774	15.855	1153.210	857.220
294.789	15.921	1152.234	856.752
295.803	15.779	1152.169	855.908
296.818	15.822	1151.224	855.349
297.833	15.952	1150.015	855.035
298.847	15.862	1149.337	853.997
299.862	15.941	1148.754	853.887
300.876	16.019	1147.871	853.554
301.891	16.073	1147.075	853.160
302.906	16.040	1146.743	852.666
303.920	16.065	1145.781	852.002
304.935	16.126	1145.021	851.670
305.949	16.231	1144.009	851.373
306.964	16.313	1143.227	851.131
307.979	16.133	1143.047	850.013
308.993	16.069	1142.545	849.243
310.008	16.256	1141.547	849.364
311.022	16.098	1140.680	847.851
312.037	16.272	1139.466	847.751
313.052	16.272	1138.445	846.915
314.066	16.152	1137.958	845.874
315.081	16.145	1137.281	845.263
316.095	16.038	1136.787	844.285
317.110	16.194	1135.521	844.047
318.125	16.140	1135.182	843.449
319.139	16.248	1134.266	843.236
320.154	16.242	1133.370	842.468
321.168	16.185	1132.809	841.693
322.183	16.124	1132.287	840.925
323.197	16.328	1131.641	841.388
324.212	16.376	1130.873	840.978
325.227	16.251	1130.779	840.211
326.241	16.296	1130.045	839.816
327.256	16.250	1129.437	839.063
328.270	16.250	1128.026	837.941
329.285	16.264	1127.631	837.641
330.300	16.360	1126.386	837.117
331.314	16.340	1125.396	836.208
332.329	16.301	1124.525	835.294
333.343	16.283	1123.722	834.538
334.358	16.428	1122.689	834.410
335.373	16.541	1121.645	834.119
336.387	16.605	1121.219	834.044
337.402	16.493	1120.664	833.004
338.416	16.580	1119.886	832.782
339.431	16.484	1119.634	832.050
340.446	16.509	1118.986	831.617
341.460	16.589	1117.891	831.123
342.475	16.672	1117.098	830.864
343.489	16.671	1115.788	829.814
344.504	16.764	1114.701	829.386
345.519	16.647	1114.217	828.380
346.533	16.746	1113.324	828.127
347.548	16.723	1112.671	827.453
348.562	16.780	1111.985	827.150
349.577	16.827	1111.108	826.652
350.592	16.667	1110.313	825.209
351.606	16.613	1109.934	824.593
352.621	16.697	1109.208	824.387
353.635	16.733	1108.226	823.762
354.650	16.692	1107.699	823.099
355.665	16.697	1106.954	822.493
356.679	16.814	1106.125	822.373
357.694	16.672	1106.083	821.583
358.708	16.771	1105.173	821.311
359.723	16.784	1104.311	820.664
360.738	16.812	1103.895	820.417
361.752	16.835	1103.149	819.901
362.767	16.839	1102.780	819.574
363.781	16.886	1102.301	819.372
364.796	16.893	1101.441	818.693
365.810	17.012	1100.776	818.699
366.825	16.973	1100.335	818.113
367.840	16.966	1099.780	817.592
368.854	16.989	1099.037	817.078
369.869	17.031	1098.531	816.831
370.883	17.156	1097.300	816.448
371.898	17.065	1096.759	815.536
372.913	17.061	1096.018	814.891
373.927	17.189	1095.677	815.182
374.942	17.192	1095.164	814.741
375.956	17.144	1094.440	813.903
376.971	17.222	1093.894	813.795
377.986	17.207	1092.999	812.988
379.000	17.306	1092.549	813.054
380.015	17.391	1091.759	812.801
381.029	17.179	1091.322	811.391
382.044	17.298	1090.480	811.259
383.059	17.434	1089.702	811.258
384.073	17.359	1089.141	810.412
385.088	17.406	1088.068	809.766
386.102	17.288	1087.134	808.437
387.117	17.425	1086.157	808.291
388.132	17.270	1085.214	806.781
389.146	17.208	1084.721	806.047
390.161	17.237	1084.161	805.699
391.175	17.299	1083.385	805.343
392.190	17.350	1083.026	805.248
393.205	17.377	1082.185	804.679
394.219	17.517	1080.898	804.310
395.234	17.469	1080.360	803.614
396.248	17.427	1078.911	802.267
397.263	17.519	1078.182	802.086
398.278	17.383	1077.681	801.002
399.292	17.394	1076.564	800.153
400.307	17.451	1076.113	800.018
401.321	17.388	1075.553	799.232
402.336	17.440	1075.148	799.106
403.350	17.489	1073.971	798.390
404.365	17.483	1073.433	797.893
405.380	17.511	1072.353	797.149
406.394	17.537	1072.126	797.033
407.409	17.580	1070.955	796.291
408.423	17.567	1070.356	795.716
409.438	17.613	1069.645	795.329
410.453	17.674	1068.778	794.901
411.467	17.720	1068.116	794.554
412.482	17.724	1067.730	794.213
413.496	17.701	1067.056	793.536
414.511	17.725	1066.380	793.074
415.526	17.851	1065.778	793.141
416.540	17.803	1065.466	792.613
417.555	17.782	1065.081	792.163
418.569	17.877	1064.548	792.135
419.584	17.802	1064.152	791.421
420.599	17.848	1063.434	791.031
421.613	109.958	1332.190	1493.019
422.628	101.620	1371.303	1493.070
