DTS Sentinel unit serial number:	SN413079Multiplexer serial number:	ORYXHardware model number:	OX4-SRSoftware version number:	ORYX F/W v4.00 Oryx Data Collector v3.7.2.0data status	okinstallation	princeton_trtdifferential loss correction	single-endedforward channel	channel 2reverse channel	N/Adate	2019/09/15time	00:51:35forward acquisition time	60.00reverse acquisition time	0.00gamma	496.2192k internal	0.2324k external	0.2324temperature offset calibration	1.0042default loss term (dB/km)	0.3790temperature slope calibration	1.0000multiplexer offset coefficient	1.0000multiplexer slope coefficient	1.0000fibre end	0.00T internal ref (°C)	32.05T ext. ref 1 (°C)	4.55T ext. ref 2 (°C)	27.00length (m)	temperature (°C)	Stokes	anti-Stokes-747.200	163.776	0.005	-0.007
-746.185	11.240	-0.576	0.445
-745.171	-4.986	-0.160	0.111
-744.156	800.000	-0.083	0.275
-743.142	-185.350	0.131	-0.002
-742.127	-59.639	-0.144	0.062
-741.112	24.923	0.136	0.114
-740.098	90.645	-0.153	0.173
-739.083	-1.326	0.148	0.105
-738.069	-200.000	0.004	0.236
-737.054	-63.164	-0.395	0.164
-736.039	-63.723	-0.090	0.037
-735.025	-125.199	0.436	-0.067
-734.010	162.938	-0.076	0.108
-732.996	-73.275	-0.233	-0.086
-731.981	709.573	0.078	-0.209
-730.966	-104.141	-0.142	0.033
-729.952	-99.892	0.118	0.030
-728.937	-133.606	0.181	-0.023
-727.923	108.050	-0.313	-0.376
-726.908	800.000	-0.108	0.322
-725.894	-59.787	-0.302	0.130
-724.879	-152.550	-0.235	0.017
-723.864	56.232	0.013	-0.013
-722.850	-33.416	-0.097	-0.054
-721.835	-139.856	-0.246	-0.026
-720.821	-20.176	-0.257	-0.160
-719.806	-130.763	-0.194	0.026
-718.791	-200.000	0.020	-0.177
-717.777	161.055	-0.087	-0.122
-716.762	-200.000	-0.010	-0.051
-715.748	118.914	-0.047	0.059
-714.733	-100.229	0.500	-0.125
-713.718	-175.981	-0.266	0.007
-712.704	-200.000	-0.037	0.322
-711.689	423.895	0.186	-0.403
-710.675	-200.000	0.001	0.225
-709.660	519.141	0.088	0.209
-708.645	-151.587	-0.160	0.012
-707.631	800.000	-0.112	0.316
-706.616	534.371	0.035	0.084
-705.602	-200.000	0.023	0.108
-704.587	-135.435	0.428	0.051
-703.572	112.242	0.044	-0.053
-702.558	474.824	0.134	-0.304
-701.543	-104.617	0.370	-0.086
-700.529	544.606	-0.078	0.187
-699.514	366.015	0.196	-0.398
-698.499	800.000	0.019	0.052
-697.485	-18.727	0.253	-0.159
-696.470	208.317	0.188	-0.296
-695.456	650.847	-0.066	-0.171
-694.441	248.839	-0.019	-0.033
-693.426	107.460	-0.122	0.146
-692.412	415.191	-0.172	-0.370
-691.397	75.334	0.045	0.048
-690.383	-32.438	-0.247	0.139
-689.368	-77.939	0.117	-0.041
-688.354	-200.000	-0.015	-0.106
-687.339	-92.945	-0.218	-0.061
-686.324	109.906	0.214	0.259
-685.310	-146.931	-0.068	0.006
-684.295	71.050	-0.097	0.101
-683.281	800.000	0.051	-0.175
-682.266	793.740	-0.083	-0.229
-681.251	628.166	-0.066	0.168
-680.237	-121.799	0.275	-0.046
-679.222	89.291	-0.278	-0.312
-678.208	-139.649	-0.215	0.023
-677.193	20.960	0.195	0.159
-676.178	-176.830	0.269	0.007
-675.164	-200.000	-0.017	-0.334
-674.149	-200.000	-0.033	-0.316
-673.135	-61.138	0.097	-0.041
-672.120	-200.000	0.012	-0.292
-671.105	-107.934	-0.436	0.095
-670.091	-101.155	-0.118	-0.029
-669.076	-89.802	-0.194	-0.057
-668.062	196.079	-0.172	0.263
-667.047	124.662	-0.147	0.186
-666.032	477.260	0.112	-0.256
-665.018	800.000	-0.032	0.102
-664.003	800.000	-0.089	-0.304
-662.989	-74.870	-0.149	-0.054
-661.974	306.582	-0.101	0.189
-660.959	-127.720	-0.222	0.032
-659.945	-98.603	0.227	-0.058
-658.930	168.152	-0.108	0.155
-657.916	-4.794	0.214	0.149
-656.901	-200.000	-0.015	0.383
-655.886	800.000	0.074	0.276
-654.872	-86.515	0.353	0.109
-653.857	-200.000	-0.015	0.152
-652.843	128.143	-0.269	0.344
-651.828	-200.000	-0.052	0.237
-650.814	-72.720	0.266	0.099
-649.799	100.255	0.045	-0.052
-648.784	800.000	0.099	0.391
-647.770	-200.000	0.014	0.153
-646.755	-24.086	0.230	-0.138
-645.741	49.407	-0.096	-0.091
-644.726	767.892	0.070	0.193
-643.711	-99.051	0.138	0.035
-642.697	-68.540	0.096	-0.037
-641.682	56.527	-0.044	0.043
-640.668	-93.189	-0.150	-0.042
-639.653	800.000	-0.040	-0.174
-638.638	-200.000	-0.011	0.176
-637.624	-20.506	0.146	0.090
-636.609	124.969	0.045	-0.057
-635.595	-88.050	0.189	-0.057
-634.580	-77.011	0.165	-0.058
-633.565	-200.000	-0.099	-0.515
-632.551	2.834	0.084	0.062
-631.536	-200.000	-0.031	-0.353
-630.522	98.854	-0.109	-0.127
-629.507	-43.162	0.060	0.031
-628.492	-200.000	-0.044	0.221
-627.478	-8.416	-0.181	-0.122
-626.463	35.686	0.235	0.208
-625.449	800.000	-0.034	0.147
-624.434	-1.416	-0.400	0.283
-623.419	-80.307	0.060	-0.020
-622.405	-200.000	0.023	0.139
-621.390	12.297	-0.110	0.085
-620.376	800.000	0.083	0.233
-619.361	60.691	0.230	0.229
-618.346	170.231	-0.234	-0.336
-617.332	-20.764	0.063	-0.039
-616.317	-58.558	-0.305	0.133
-615.303	104.542	-0.214	0.253
-614.288	226.463	-0.090	0.147
-613.273	150.415	0.137	0.187
-612.259	741.520	0.036	0.096
-611.244	-24.144	-0.145	0.087
-610.230	-42.308	0.165	-0.085
-609.215	-143.103	0.189	-0.018
-608.201	-75.029	-0.318	-0.114
-607.186	-61.990	-0.239	0.100
-606.171	617.343	0.101	-0.254
-605.157	-200.000	-0.004	-0.069
-604.142	17.166	-0.071	-0.056
-603.128	64.327	-0.026	-0.027
-602.113	-200.000	0.005	0.111
-601.098	-53.238	0.071	0.033
-600.084	169.158	-0.070	-0.101
-599.069	-200.000	0.036	-0.498
-598.055	58.009	0.120	0.118
-597.040	265.092	-0.151	-0.263
-596.025	-31.779	0.049	-0.027
-595.011	66.895	0.146	-0.149
-593.996	1.798	-0.138	-0.100
-592.982	800.000	0.020	-0.066
-591.967	116.259	-0.086	0.106
-590.952	-200.000	-0.319	0.000
-589.938	66.274	-0.194	0.197
-588.923	-63.455	-0.476	0.196
-587.909	26.550	-0.129	-0.109
-586.894	-200.000	-0.012	0.081
-585.879	-103.714	-0.229	0.054
-584.865	-57.792	-0.319	-0.140
-583.850	32.764	0.186	-0.162
-582.836	218.647	-0.123	0.197
-581.821	107.154	0.148	-0.176
-580.806	37.005	0.164	0.146
-579.792	-200.000	0.008	-0.142
-578.777	-200.000	0.052	-0.286
-577.763	78.119	-0.074	0.079
-576.748	578.809	-0.106	0.260
-575.733	-97.463	-0.130	0.034
-574.719	-50.320	0.255	-0.121
-573.704	800.000	0.042	0.149
-572.690	-200.000	-0.008	0.396
-571.675	800.000	-0.065	0.181
-570.661	178.930	-0.095	0.139
-569.646	800.000	0.083	-0.321
-568.631	138.043	-0.106	0.140
-567.617	-98.035	-0.311	-0.080
-566.602	501.602	-0.162	-0.374
-565.588	-41.665	0.219	0.113
-564.573	25.964	0.090	0.076
-563.558	103.296	0.283	0.333
-562.544	-200.000	-0.020	-0.183
-561.529	92.519	0.091	-0.103
-560.515	-106.804	0.277	-0.062
-559.500	168.633	0.094	-0.135
-558.485	-87.078	-0.039	0.012
-557.471	24.524	0.120	-0.099
-556.456	277.696	-0.131	-0.233
-555.442	-113.083	-0.180	0.036
-554.427	-117.608	-0.258	-0.047
-553.412	28.895	-0.209	-0.178
-552.398	318.886	-0.104	0.198
-551.383	-81.892	0.307	0.101
-550.369	-200.000	0.004	-0.052
-549.354	-84.493	-0.171	-0.054
-548.339	15.607	-0.123	-0.097
-547.325	-200.000	-0.018	0.150
-546.310	43.372	-0.144	0.132
-545.296	14.913	-0.220	0.172
-544.281	-200.000	-0.066	-0.320
-543.266	-199.249	-0.197	-0.001
-542.252	379.526	-0.081	-0.166
-541.237	-200.000	-0.053	-0.249
-540.223	68.043	-0.072	-0.073
-539.208	45.994	0.024	-0.022
-538.193	570.347	0.184	0.449
-537.179	800.000	-0.092	-0.335
-536.164	800.000	0.064	-0.248
-535.150	-12.830	0.225	-0.147
-534.135	117.878	-0.130	-0.160
-533.121	24.973	-0.190	0.158
-532.106	359.508	0.137	0.274
-531.091	401.241	-0.101	-0.211
-530.077	270.487	-0.005	-0.009
-529.062	219.567	-0.302	0.484
-528.048	-200.000	0.016	0.070
-527.033	92.515	0.173	0.195
-526.018	-7.045	0.179	0.122
-525.004	-200.000	-0.001	0.442
-523.989	107.197	-0.167	-0.198
-522.975	-171.246	-0.291	-0.010
-521.960	141.747	0.216	-0.287
-520.945	-200.000	-0.016	0.386
-519.931	-27.014	-0.269	0.157
-518.916	800.000	-0.028	0.097
-517.902	-130.791	0.371	-0.050
-516.887	800.000	-0.127	-0.354
-515.872	-200.000	0.027	0.141
-514.858	-138.500	0.170	0.019
-513.843	151.401	-0.127	0.173
-512.829	576.955	-0.112	0.273
-511.814	-164.256	0.115	-0.005
-510.799	315.850	-0.091	-0.172
-509.785	-134.822	0.126	-0.015
-508.770	125.115	0.238	0.300
-507.756	230.668	-0.078	0.127
-506.741	-13.309	-0.273	-0.177
-505.726	-110.921	0.273	-0.056
-504.712	-86.640	-0.327	-0.100
-503.697	-100.794	-0.377	0.093
-502.683	57.395	-0.365	-0.356
-501.668	282.639	-0.107	-0.192
-500.653	-68.824	-0.290	0.112
-499.639	-84.672	0.078	-0.024
-498.624	-200.000	0.004	0.075
-497.610	-200.000	0.045	0.410
-496.595	72.868	-0.121	0.126
-495.581	-47.668	0.073	0.035
-494.566	-23.461	0.588	0.353
-493.551	11.219	-0.056	-0.043
-492.537	-110.184	0.310	-0.065
-491.522	375.453	0.033	-0.067
-490.508	454.359	0.025	-0.056
-489.493	-193.348	-0.132	-0.001
-488.478	-100.475	-0.077	0.019
-487.464	800.000	0.058	0.191
-486.449	-200.000	0.001	-0.144
-485.435	107.228	0.120	-0.143
-484.420	-200.000	0.008	-0.141
-483.405	3.272	0.399	-0.290
-482.391	-61.490	0.481	0.202
-481.376	67.801	0.188	0.192
-480.362	-200.000	-0.007	-0.249
-479.347	-134.968	-0.527	-0.064
-478.332	-141.035	0.210	-0.022
-477.318	-107.760	0.229	-0.050
-476.303	-200.000	0.013	0.335
-475.289	-200.000	-0.016	0.350
-474.274	75.466	0.120	0.127
-473.259	-161.402	0.301	-0.016
-472.245	-143.575	-0.182	0.017
-471.230	800.000	0.046	-0.180
-470.216	-80.026	0.152	-0.051
-469.201	-199.683	-0.167	-0.001
-468.186	800.000	-0.055	-0.158
-467.172	33.718	0.043	-0.038
-466.157	-101.657	0.243	-0.059
-465.143	2.570	0.275	0.199
-464.128	-93.659	0.072	-0.020
-463.113	-17.393	-0.164	-0.103
-462.099	-163.055	0.252	0.012
-461.084	1.519	-0.182	-0.130
-460.070	-157.628	0.259	-0.015
-459.055	-103.729	0.339	-0.079
-458.040	160.034	-0.088	0.122
-457.026	269.162	0.128	-0.223
-456.011	800.000	-0.110	-0.340
-454.997	-200.000	0.041	-0.291
-453.982	-108.012	-0.374	-0.081
-452.968	-117.586	-0.145	0.026
-451.953	800.000	0.031	0.095
-450.938	800.000	-0.050	0.205
-449.924	189.456	-0.143	-0.213
-448.909	60.867	0.071	0.070
-447.895	-0.150	-0.145	0.103
-446.880	-190.558	-0.155	0.002
-445.865	-175.215	-0.092	-0.003
-444.851	800.000	-0.036	0.103
-443.836	-73.229	0.604	-0.221
-442.822	-200.000	-0.184	0.000
-441.807	-172.288	0.223	-0.007
-440.792	-81.201	0.179	-0.059
-439.778	-30.676	-0.202	-0.114
-438.763	-110.231	-0.202	0.042
-437.749	362.040	-0.111	0.222
-436.734	-200.000	-0.216	0.001
-435.719	-200.000	-0.023	-0.144
-434.705	800.000	0.061	0.191
-433.690	-86.431	0.317	0.097
-432.676	-123.407	0.079	-0.013
-431.661	-129.550	0.061	-0.008
-430.646	-200.000	0.008	0.101
-429.632	261.742	-0.147	-0.254
-428.617	393.740	0.043	0.089
-427.603	13.860	-0.269	0.208
-426.588	55.831	-0.264	0.255
-425.573	5.113	0.136	0.100
-424.559	225.574	-0.134	-0.216
-423.544	-95.422	-0.109	-0.029
-422.530	179.428	0.141	-0.206
-421.515	-148.307	-0.259	-0.021
-420.500	-200.000	-0.030	-0.149
-419.486	-71.633	0.092	-0.034
-418.471	-200.000	-0.020	-0.278
-417.457	-200.000	0.032	0.341
-416.442	259.625	-0.080	0.137
-415.428	-36.496	0.182	-0.098
-414.413	-27.162	0.308	0.179
-413.398	78.208	-0.126	0.134
-412.384	27.073	-0.121	-0.101
-411.369	800.000	0.040	-0.141
-410.355	-200.000	0.004	-0.020
-409.340	-11.241	0.155	0.101
-408.325	-5.975	-0.194	-0.132
-407.311	-110.520	-0.098	0.020
-406.296	-200.000	-0.003	-0.064
-405.282	47.895	-0.143	0.133
-404.267	800.000	0.083	0.301
-403.252	-149.469	0.312	0.025
-402.238	124.070	0.143	-0.179
-401.223	-43.598	-0.124	-0.062
-400.209	800.000	0.050	-0.192
-399.194	-200.000	0.004	0.069
-398.179	-53.098	-0.074	0.034
-397.165	-123.329	0.282	0.045
-396.150	314.328	-0.103	-0.193
-395.136	199.228	0.118	-0.181
-394.121	-200.000	-0.034	0.337
-393.106	452.805	0.141	0.310
-392.092	306.769	0.049	-0.092
-391.077	-142.680	0.217	-0.021
-390.063	9.045	0.100	0.075
-389.048	-165.294	-0.308	0.013
-388.033	117.642	-0.019	0.024
-387.019	-56.078	0.262	-0.116
-386.004	-64.865	-0.201	-0.081
-384.990	449.938	0.096	0.210
-383.975	255.536	-0.015	0.025
-382.960	315.857	-0.184	0.345
-381.946	35.449	-0.238	0.208
-380.931	587.499	-0.064	-0.157
-379.917	-130.100	0.231	0.031
-378.902	-200.000	0.011	-0.164
-377.888	109.860	0.191	0.228
-376.873	-200.000	-0.004	-0.123
-375.858	-200.000	0.020	-0.153
-374.844	-179.875	0.361	0.008
-373.829	-155.970	0.213	-0.013
-372.815	529.684	-0.044	-0.104
-371.800	-200.000	-0.043	0.225
-370.785	-44.166	0.262	0.131
-369.771	800.000	0.008	0.023
-368.756	-200.000	0.034	0.188
-367.742	-31.949	-0.188	0.105
-366.727	23.645	0.132	-0.108
-365.712	-7.590	0.265	-0.178
-364.698	242.328	-0.193	0.321
-363.683	-73.192	-0.188	0.069
-362.669	-130.791	-0.139	-0.019
-361.654	487.763	0.060	0.137
-360.639	-200.000	0.029	0.402
-359.625	-110.669	0.116	-0.024
-358.610	728.308	-0.053	0.142
-357.596	71.584	-0.072	-0.075
-356.581	275.440	-0.151	-0.266
-355.566	-34.045	0.099	0.054
-354.552	-200.000	0.004	-0.142
-353.537	74.624	-0.066	0.069
-352.523	94.169	0.063	0.071
-351.508	-139.593	-0.326	0.035
-350.493	104.847	-0.088	-0.103
-349.479	-200.000	-0.017	0.130
-348.464	-200.000	0.013	0.064
-347.450	800.000	-0.040	-0.115
-346.435	-62.478	0.213	-0.088
-345.420	800.000	-0.152	0.460
-344.406	-200.000	0.156	-0.001
-343.391	2.600	0.172	0.124
-342.377	-152.470	-0.164	-0.012
-341.362	134.674	0.258	-0.333
-340.348	-84.469	0.247	-0.078
-339.333	-25.400	-0.019	0.011
-338.318	-152.396	0.222	0.016
-337.304	158.021	0.173	0.238
-336.289	800.000	-0.039	-0.152
-335.275	-86.055	0.167	0.051
-334.260	-14.021	0.325	-0.208
-333.245	-103.559	0.141	0.033
-332.231	800.000	0.058	-0.223
-331.216	-38.150	-0.126	0.067
-330.202	-200.000	-0.011	-0.296
-329.187	-172.558	-0.280	0.009
-328.172	800.000	0.076	0.248
-327.158	-141.248	0.352	0.036
-326.143	-200.000	0.008	-0.067
-325.129	-200.000	0.018	-0.351
-324.114	-176.140	0.210	0.005
-323.099	-84.186	0.349	0.110
-322.085	-93.442	-0.235	-0.065
-321.070	-200.000	0.011	-0.071
-320.056	461.924	0.149	-0.329
-319.041	-34.182	0.046	0.025
-318.026	-124.071	-0.220	-0.034
-317.012	800.000	-0.017	0.072
-315.997	-167.498	0.190	0.008
-314.983	-108.478	0.152	0.033
-313.968	-151.691	-0.256	-0.019
-312.953	-80.566	0.146	-0.048
-311.939	25.816	0.160	-0.132
-310.924	-200.000	-0.041	0.182
-309.910	-156.643	-0.120	0.007
-308.895	393.847	0.080	0.166
-307.880	-200.000	-0.378	0.000
-306.866	-200.000	0.025	0.257
-305.851	-22.534	-0.323	-0.194
-304.837	329.338	0.141	-0.269
-303.822	365.745	-0.047	-0.094
-302.807	7.539	-0.300	-0.223
-301.793	-111.929	0.101	0.020
-300.778	-48.747	-0.119	-0.057
-299.764	-200.000	-0.029	0.249
-298.749	-121.329	-0.149	-0.025
-297.735	311.374	-0.151	-0.281
-296.720	309.394	-0.095	-0.177
-295.705	-144.685	0.435	-0.040
-294.691	-111.907	-0.246	-0.049
-293.676	800.000	-0.116	-0.431
-292.662	11.258	0.303	-0.230
-291.647	-200.000	-0.037	0.207
-290.632	-200.000	-0.002	0.295
-289.618	-0.694	-0.221	-0.156
-288.603	-73.960	0.326	0.117
-287.589	207.519	0.182	-0.282
-286.574	800.000	0.035	0.135
-285.559	35.238	-0.183	0.159
-284.545	12.944	0.156	0.120
-283.530	2.715	0.106	-0.077
-282.516	-64.647	0.019	-0.008
-281.501	-81.774	-0.011	-0.004
-280.486	771.809	0.075	-0.202
-279.472	135.970	-0.148	-0.191
-278.457	310.830	0.165	0.306
-277.443	-156.354	-0.189	0.012
-276.428	-89.070	-0.185	-0.054
-275.413	-96.109	0.250	0.066
-274.399	-135.589	-0.131	-0.015
-273.384	31.515	-0.061	0.052
-272.370	106.683	0.052	-0.061
-271.355	-32.077	0.214	-0.118
-270.340	161.137	-0.109	0.151
-269.326	467.423	0.109	0.243
-268.311	48.241	-0.161	-0.149
-267.297	111.561	-0.014	0.016
-266.282	244.934	-0.290	0.483
-265.267	800.000	0.053	-0.155
-264.253	315.916	0.100	-0.186
-263.238	-49.719	-0.233	0.110
-262.224	800.000	0.134	-0.401
-261.209	194.992	-0.137	-0.206
-260.195	-100.352	-0.434	0.107
-259.180	57.118	0.051	-0.050
-258.165	-70.428	0.085	0.032
-257.151	10.470	-0.138	0.104
-256.136	-176.048	0.137	0.004
-255.122	717.544	-0.054	-0.142
-254.107	-200.000	0.021	-0.137
-253.092	-40.151	-0.135	0.070
-252.078	800.000	-0.051	0.199
-251.063	540.521	-0.046	-0.107
-250.049	100.508	0.280	-0.322
-249.034	27.022	0.139	-0.115
-248.019	92.276	-0.086	-0.096
-247.005	-179.455	-0.061	0.001
-245.990	-4.311	-0.131	0.089
-244.976	-169.042	-0.173	-0.006
-243.961	635.044	-0.134	0.335
-242.946	-81.297	-0.046	0.015
-241.932	50.456	0.159	0.149
-240.917	240.994	-0.085	-0.141
-239.903	-115.592	0.168	0.031
-238.888	-200.000	-0.026	-0.135
-237.873	-200.000	-0.024	-0.206
-236.859	800.000	0.075	0.243
-235.844	-5.799	-0.325	0.221
-234.830	-112.226	0.377	-0.075
-233.815	135.923	0.116	-0.150
-232.800	-46.511	0.060	-0.029
-231.786	-127.730	0.249	0.036
-230.771	-0.109	-0.057	0.040
-229.757	121.583	-0.051	0.062
-228.742	670.661	0.037	-0.094
-227.727	-18.628	-0.115	-0.071
-226.713	-89.792	0.073	-0.021
-225.698	2.859	-0.197	-0.142
-224.684	-48.919	0.139	-0.066
-223.669	-131.662	0.326	-0.042
-222.655	-38.114	0.204	0.107
-221.640	-156.632	0.365	-0.022
-220.625	-200.000	-0.018	0.134
-219.611	-11.939	0.115	0.074
-218.596	-52.000	0.270	-0.124
-217.582	-155.640	-0.278	0.018
-216.567	-156.261	-0.057	0.004
-215.552	-95.810	0.082	-0.022
-214.538	-200.000	0.018	0.186
-213.523	218.395	0.144	0.228
-212.509	-99.845	0.179	0.044
-211.494	-98.537	-0.258	-0.065
-210.479	147.844	-0.180	-0.240
-209.465	-116.059	-0.054	-0.010
-208.450	-136.125	0.209	-0.024
-207.436	50.236	0.065	0.060
-206.421	478.948	0.111	-0.249
-205.406	-85.126	-0.406	-0.126
-204.392	20.331	-0.036	0.029
-203.377	-171.153	-0.137	-0.005
-202.363	-85.011	-0.157	-0.049
-201.348	38.165	-0.438	-0.385
-200.333	-69.955	0.210	-0.079
-199.319	-51.819	0.007	0.003
-198.304	53.071	-0.014	-0.013
-197.290	-200.000	-0.003	-0.307
-196.275	-45.885	-0.210	-0.103
-195.260	-200.000	0.010	-0.089
-194.246	-13.645	-0.138	0.088
-193.231	-99.572	0.168	0.042
-192.217	-200.000	0.035	-0.266
-191.202	-114.245	-0.298	0.057
-190.187	-69.144	0.366	-0.139
-189.173	-200.000	-0.018	-0.189
-188.158	657.468	-0.067	-0.171
-187.144	800.000	0.062	-0.221
-186.129	-50.177	0.395	-0.185
-185.114	32.604	0.102	-0.087
-184.100	-61.205	0.010	-0.004
-183.085	-29.347	0.305	0.172
-182.071	-45.627	-0.221	-0.108
-181.056	13.515	0.316	0.242
-180.042	-5.009	-0.332	0.226
-179.027	711.233	0.095	-0.247
-178.012	-64.761	-0.174	0.070
-176.998	-200.000	-0.033	0.293
-175.983	330.479	-0.090	-0.172
-174.969	-140.577	0.172	-0.018
-173.954	367.449	0.109	0.217
-172.939	26.042	0.090	0.074
-171.925	-73.902	0.187	0.067
-170.910	-76.606	-0.274	0.095
-169.896	-143.638	-0.403	0.038
-168.881	3.088	0.079	0.057
-167.866	733.635	0.091	0.240
-166.852	800.000	0.099	-0.293
-165.837	-200.000	-0.062	0.456
-164.823	800.000	0.059	-0.192
-163.808	-98.756	-0.432	0.109
-162.793	9.201	-0.107	0.080
-161.779	-87.689	-0.205	-0.061
-160.764	17.131	0.333	0.261
-159.750	169.949	0.057	-0.080
-158.735	-82.951	0.019	-0.006
-157.720	389.556	0.118	0.241
-156.706	694.444	-0.097	-0.251
-155.691	-15.455	-0.241	0.152
-154.677	303.394	-0.058	0.106
-153.662	-129.279	0.339	0.047
-152.647	37.666	-0.268	0.234
-151.633	469.954	-0.068	0.150
-150.618	397.646	0.151	-0.311
-149.604	119.269	-0.188	0.229
-148.589	208.240	-0.181	0.279
-147.574	-200.000	-0.049	-0.224
-146.560	-29.290	-0.222	0.125
-145.545	-83.896	0.263	0.082
-144.531	-7.253	0.125	0.084
-143.516	272.002	0.041	-0.072
-142.502	367.303	0.058	-0.115
-141.487	145.347	0.178	0.235
-140.472	143.295	-0.059	0.078
-139.458	108.021	-0.170	-0.200
-138.443	-80.017	0.429	-0.142
-137.429	102.100	-0.069	-0.079
-136.414	-124.360	-0.106	0.016
-135.399	-125.595	0.109	0.016
-134.385	10.367	0.181	-0.136
-133.370	-200.000	-0.009	-0.236
-132.356	800.000	0.079	0.270
-131.341	-77.637	0.332	0.113
-130.326	-158.524	0.451	0.026
-129.312	-200.000	-0.003	0.274
-128.297	699.843	0.054	0.140
-127.283	277.566	0.152	-0.267
-126.268	-88.425	-0.068	0.020
-125.253	-200.000	-0.007	0.266
-124.239	69.988	0.117	0.119
-123.224	-118.131	-0.226	-0.040
-122.210	800.000	0.014	-0.039
-121.195	353.814	-0.115	-0.226
-120.180	800.000	-0.046	0.126
-119.166	572.409	-0.028	0.067
-118.151	-139.573	0.383	0.040
-117.137	-145.515	-0.332	0.029
-116.122	-113.476	0.033	0.006
-115.107	-200.000	-0.036	0.273
-114.093	71.931	0.088	-0.090
-113.078	-158.827	-0.264	-0.015
-112.064	-110.486	-0.161	-0.033
-111.049	-91.093	0.112	0.032
-110.034	253.028	0.123	0.207
-109.020	-86.722	0.144	-0.043
-108.005	-56.906	-0.144	0.062
-106.991	123.518	0.146	-0.180
-105.976	800.000	-0.092	-0.358
-104.962	168.523	0.110	-0.154
-103.947	23.654	-0.121	-0.098
-102.932	-200.000	-0.033	0.266
-101.918	179.719	0.237	0.342
-100.903	297.944	0.089	0.161
-99.889	800.000	0.070	0.222
-98.874	110.696	-0.227	-0.268
-97.859	-69.957	0.089	-0.033
-96.845	180.502	0.120	0.173
-95.830	113.310	-0.103	0.124
-94.816	154.937	0.058	-0.078
-93.801	27.738	-0.379	-0.314
-92.786	-123.144	-0.057	0.009
-91.772	564.669	0.204	-0.486
-90.757	76.735	0.105	0.109
-89.743	539.215	-0.105	0.246
-88.728	-200.000	-0.032	-0.171
-87.713	-51.285	0.452	0.208
-86.699	-200.000	-0.058	0.294
-85.684	-72.643	-0.276	0.100
-84.670	14.196	-0.330	-0.253
-83.655	70.018	-0.147	-0.149
-82.640	-56.682	-0.310	-0.135
-81.626	375.782	0.143	0.286
-80.611	50.850	0.171	-0.159
-79.597	133.334	-0.148	-0.188
-78.582	-95.493	0.216	0.057
-77.567	-200.000	-0.041	0.296
-76.553	-200.000	0.020	-0.412
-75.538	-6.305	-0.490	0.329
-74.524	-53.585	0.145	-0.065
-73.509	12.103	-0.214	0.162
-72.494	-200.000	0.066	-0.567
-71.480	-103.895	0.162	0.037
-70.465	-28.067	0.048	0.028
-69.451	-115.046	0.055	-0.010
-68.436	-36.568	0.358	-0.190
-67.422	-200.000	-0.067	-0.345
-66.407	-1.714	-0.034	0.023
-65.392	19.947	-0.285	0.226
-64.378	207.444	-0.078	0.120
-63.363	598.540	0.075	-0.183
-62.349	22.737	0.071	-0.057
-61.334	38.944	-1.057	-0.928
-60.319	60.816	0.698	0.680
-59.305	800.000	-0.190	-0.665
-58.290	469.446	0.478	1.056
-57.276	800.000	0.533	1.675
-56.261	-200.000	95.120	593.022
-55.246	663.299	1366.912	3464.211
-54.232	199.240	2551.004	3841.367
-53.217	113.575	2268.835	2707.106
-52.203	41.644	1896.786	1687.983
-51.188	35.265	1687.420	1453.443
-50.173	32.573	1643.160	1395.355
-49.159	50.621	1688.933	1569.975
-48.144	52.298	1705.148	1597.548
-47.130	35.028	1666.422	1433.348
-46.115	32.234	1652.285	1400.357
-45.100	31.926	1647.670	1394.099
-44.086	31.932	1644.885	1391.731
-43.071	31.956	1642.275	1389.642
-42.057	31.955	1639.772	1387.462
-41.042	31.924	1637.979	1385.666
-40.027	31.983	1636.001	1384.368
-39.013	31.948	1634.170	1382.510
-37.998	31.845	1632.428	1380.223
-36.984	31.961	1631.014	1379.821
-35.969	32.028	1629.635	1379.094
-34.954	32.081	1627.982	1378.031
-33.940	32.101	1626.142	1376.562
-32.925	31.993	1624.560	1374.377
-31.911	32.014	1622.830	1373.017
-30.896	32.030	1621.097	1371.611
-29.881	32.043	1619.282	1370.115
-28.867	32.071	1617.590	1368.835
-27.852	31.980	1616.232	1366.966
-26.838	32.005	1614.484	1365.621
-25.823	31.987	1613.464	1364.567
-24.809	31.982	1612.107	1363.330
-23.794	32.098	1610.041	1362.376
-22.779	32.107	1608.988	1361.493
-21.765	31.973	1608.026	1359.649
-20.750	32.099	1605.789	1358.617
-19.736	32.025	1604.584	1357.014
-18.721	32.116	1603.159	1356.412
-17.706	32.096	1601.578	1354.871
-16.692	32.035	1599.947	1352.998
-15.677	32.124	1598.645	1352.485
-14.663	32.199	1597.085	1351.655
-13.648	32.115	1596.145	1350.198
-12.633	32.120	1594.565	1348.846
-11.619	31.989	1593.460	1346.918
-10.604	32.088	1591.433	1345.860
-9.590	32.077	1590.197	1344.681
-8.575	32.111	1588.639	1343.554
-7.560	32.175	1587.409	1342.917
-6.546	32.163	1586.690	1342.173
-5.531	32.059	1585.272	1340.179
-4.517	32.102	1584.319	1339.623
-3.502	32.055	1583.235	1338.316
-2.487	32.184	1581.148	1337.417
-1.473	31.857	1569.638	1325.321
-0.458	29.094	1550.080	1289.432
0.556	25.037	1550.678	1258.074
1.571	22.733	1573.942	1260.396
2.586	22.075	1587.012	1266.012
3.600	19.604	1533.688	1206.131
4.615	11.932	1426.035	1071.365
5.629	5.527	1364.513	984.859
6.644	4.682	1356.315	973.564
7.659	4.555	1354.728	971.552
8.673	4.487	1354.332	970.753
9.688	4.496	1352.387	969.331
10.702	4.467	1349.266	966.829
11.717	7.346	1354.964	988.799
12.731	14.679	1368.495	1044.622
13.746	19.250	1374.955	1078.126
14.761	18.906	1373.442	1074.695
15.775	17.966	1370.390	1066.346
16.790	16.902	1368.016	1057.770
17.804	16.105	1365.508	1050.770
18.819	15.674	1364.458	1047.184
19.834	15.375	1363.453	1044.465
20.848	15.152	1362.516	1042.267
21.863	15.012	1360.601	1039.836
22.877	14.816	1359.848	1037.954
23.892	14.782	1359.010	1037.009
24.907	14.814	1358.014	1036.360
25.921	14.948	1356.648	1036.055
26.936	14.859	1356.204	1035.069
27.950	14.927	1355.076	1034.541
28.965	14.967	1354.033	1033.901
29.980	15.143	1353.005	1034.110
30.994	15.143	1351.869	1033.146
32.009	15.232	1350.880	1032.848
33.023	15.147	1349.814	1031.421
34.038	15.077	1348.002	1029.516
35.053	15.031	1347.077	1028.434
36.067	15.044	1345.615	1027.310
37.082	14.982	1345.005	1026.369
38.096	15.097	1344.389	1026.512
39.111	15.123	1343.351	1025.789
40.126	14.961	1342.573	1024.116
41.140	14.838	1341.577	1022.512
42.155	14.772	1341.000	1021.578
43.169	14.743	1341.276	1021.521
44.184	14.708	1340.820	1020.871
45.199	14.759	1340.178	1020.599
46.213	14.855	1339.259	1020.396
47.228	14.883	1339.040	1020.311
48.242	15.006	1337.793	1020.019
49.257	15.008	1335.881	1018.484
50.271	14.930	1334.656	1016.985
51.286	15.023	1333.392	1016.499
52.301	14.962	1332.115	1015.063
53.315	14.857	1330.958	1013.456
54.330	14.852	1329.840	1012.487
55.344	14.745	1328.678	1010.863
56.359	14.824	1327.572	1010.407
57.374	14.793	1326.670	1009.443
58.388	14.676	1325.945	1008.098
59.403	14.683	1325.537	1007.743
60.417	14.635	1324.894	1006.874
61.432	14.692	1323.966	1006.420
62.447	14.613	1322.827	1004.992
63.461	14.628	1321.276	1003.815
64.476	14.505	1320.743	1002.581
65.490	14.580	1319.462	1001.971
66.505	14.570	1318.038	1000.740
67.520	14.557	1317.000	999.786
68.534	14.631	1315.832	999.257
69.549	14.600	1314.475	997.951
70.563	14.625	1313.639	997.375
71.578	14.549	1312.339	995.850
72.593	14.511	1311.463	994.866
73.607	14.491	1310.824	994.174
74.622	14.455	1310.300	993.476
75.636	14.528	1309.435	993.166
76.651	14.622	1308.203	992.705
77.666	14.545	1307.971	991.980
78.680	14.629	1307.763	992.235
79.695	14.648	1306.377	991.211
80.709	14.623	1306.223	990.858
81.724	14.719	1305.576	990.850
82.739	14.769	1304.576	990.299
83.753	14.839	1303.731	989.983
84.768	14.985	1302.696	989.975
85.782	15.081	1301.377	989.453
86.797	15.029	1300.082	988.073
87.812	14.915	1299.246	986.675
88.826	14.920	1297.877	985.580
89.841	14.970	1297.056	985.164
90.855	15.044	1296.280	984.924
91.870	14.979	1295.347	983.742
92.884	15.004	1294.683	983.302
93.899	15.127	1293.709	983.193
94.914	15.153	1292.844	982.603
95.928	15.153	1292.048	981.913
96.943	15.091	1291.481	981.030
97.957	15.043	1289.917	979.474
98.972	15.016	1289.146	978.642
99.987	15.095	1287.730	977.945
101.001	15.070	1286.631	976.878
102.016	14.977	1286.410	976.083
103.030	15.022	1285.451	975.528
104.045	14.925	1284.749	974.343
105.060	14.950	1283.113	973.160
106.074	14.770	1281.710	970.969
107.089	14.798	1280.290	969.967
108.103	14.646	1278.915	967.956
109.118	14.666	1277.765	967.118
110.133	14.709	1276.322	966.190
111.147	14.729	1275.025	965.239
112.162	14.633	1274.065	963.870
113.176	14.848	1272.408	963.770
114.191	14.787	1271.562	962.694
115.206	14.725	1270.835	961.700
116.220	14.664	1269.541	960.286
117.235	14.757	1268.144	959.679
118.249	14.756	1267.297	958.947
119.264	14.848	1266.210	958.566
120.279	14.756	1264.659	956.782
121.293	14.748	1263.951	956.118
122.308	14.615	1263.088	954.619
123.322	14.572	1262.070	953.516
124.337	14.606	1260.969	952.797
125.352	14.613	1259.979	952.007
126.366	14.655	1258.996	951.416
127.381	14.597	1258.025	950.269
128.395	14.693	1256.603	949.658
129.410	14.714	1256.129	949.336
130.424	14.686	1254.976	948.220
131.439	14.799	1253.958	948.008
132.454	14.842	1253.051	947.482
133.468	14.775	1252.651	946.715
134.483	14.847	1251.481	946.154
135.497	14.872	1250.487	945.463
136.512	14.817	1249.336	944.199
137.527	14.761	1248.473	943.145
138.541	14.897	1246.443	942.294
139.556	14.889	1245.363	941.350
140.570	14.927	1244.461	940.800
141.585	14.980	1242.914	939.845
142.600	15.080	1241.739	939.431
143.614	15.142	1241.058	939.182
144.629	15.085	1239.960	937.946
145.643	15.185	1238.873	937.606
146.658	15.014	1237.565	935.572
147.673	14.897	1236.401	933.958
148.687	14.907	1235.428	933.198
149.702	14.826	1233.643	931.316
150.716	14.820	1232.374	930.241
151.731	14.856	1231.231	929.496
152.746	14.871	1229.906	928.499
153.760	14.913	1229.255	928.156
154.775	15.031	1228.378	928.068
155.789	15.062	1227.271	927.321
156.804	15.125	1226.507	927.009
157.819	15.116	1225.242	925.920
158.833	15.177	1224.582	925.675
159.848	15.326	1223.658	925.718
160.862	15.321	1222.418	924.670
161.877	15.137	1221.228	922.673
162.892	14.934	1220.410	920.859
163.906	14.944	1220.085	920.586
164.921	14.941	1218.692	919.439
165.935	15.021	1217.820	919.139
166.950	15.064	1217.104	918.752
167.964	15.031	1216.547	918.068
168.979	15.105	1215.855	917.874
169.994	15.111	1215.062	917.225
171.008	15.092	1213.871	916.143
172.023	15.269	1213.327	916.618
173.037	15.151	1212.746	915.454
174.052	15.273	1211.662	915.218
175.067	15.145	1210.396	913.483
176.081	14.940	1209.743	911.795
177.096	15.174	1208.424	911.994
178.110	15.192	1207.086	911.001
179.125	15.107	1206.197	909.786
180.140	15.141	1204.874	908.894
181.154	15.226	1203.890	908.528
182.169	15.138	1203.064	907.352
183.183	15.366	1201.313	907.183
184.198	15.354	1200.062	906.093
185.213	15.317	1199.206	905.166
186.227	15.355	1198.204	904.534
187.242	15.382	1196.938	903.645
188.256	15.422	1196.306	903.300
189.271	15.517	1195.144	902.856
190.286	15.291	1194.213	900.860
191.300	15.089	1193.986	899.524
192.315	14.988	1192.999	898.158
193.329	15.128	1191.557	897.741
194.344	15.172	1191.424	897.801
195.359	15.214	1190.917	897.561
196.373	15.262	1190.663	897.550
197.388	15.342	1190.402	897.698
198.402	15.502	1189.373	897.703
199.417	15.542	1188.845	897.438
200.432	15.688	1188.190	897.641
201.446	15.721	1187.619	897.306
202.461	15.933	1186.197	897.284
203.475	15.618	1185.476	894.982
204.490	15.640	1183.983	893.889
205.504	15.501	1182.929	892.277
206.519	15.513	1182.048	891.596
207.534	15.493	1180.424	890.188
208.548	15.575	1179.270	889.676
209.563	15.532	1178.694	888.931
210.577	15.611	1177.948	888.710
211.592	15.592	1177.266	888.016
212.607	15.658	1176.758	887.905
213.621	15.717	1175.746	887.374
214.636	15.722	1174.396	886.300
215.650	15.663	1173.650	885.348
216.665	15.591	1172.949	884.361
217.680	15.845	1171.388	884.443
218.694	15.886	1171.073	884.341
219.709	15.876	1170.531	883.805
220.723	15.859	1169.682	882.994
221.738	15.904	1168.810	882.494
222.753	15.875	1168.004	881.655
223.767	15.914	1167.277	881.231
224.782	15.925	1166.739	880.804
225.796	16.020	1166.226	880.834
226.811	16.035	1165.152	880.026
227.826	15.992	1164.514	879.239
228.840	15.980	1163.919	878.651
229.855	15.930	1163.317	877.857
230.869	15.877	1162.598	876.961
231.884	15.905	1161.359	876.095
232.899	15.973	1160.357	875.614
233.913	15.804	1160.173	874.520
234.928	15.847	1159.350	874.047
235.942	15.819	1158.661	873.304
236.957	15.778	1158.010	872.527
237.972	15.852	1156.757	871.886
238.986	15.881	1156.424	871.709
240.001	15.834	1155.854	870.956
241.015	15.971	1154.758	870.765
242.030	15.980	1153.621	869.877
243.045	15.919	1153.246	869.204
244.059	15.929	1152.330	868.484
245.074	15.988	1151.664	868.210
246.088	16.019	1151.288	868.008
247.103	16.074	1150.265	867.447
248.117	16.175	1149.426	867.257
249.132	16.320	1148.697	867.371
250.147	16.376	1147.912	866.990
251.161	16.427	1147.462	866.834
252.176	16.462	1146.928	866.535
253.190	16.463	1146.566	866.189
254.205	16.486	1145.802	865.652
255.220	16.499	1145.112	865.123
256.234	16.604	1144.459	865.091
257.249	16.495	1144.034	864.135
258.263	16.502	1143.453	863.656
259.278	16.440	1142.757	862.739
260.293	16.586	1141.988	862.825
261.307	16.669	1141.184	862.562
262.322	16.598	1140.837	861.866
263.336	16.683	1140.176	861.719
264.351	16.648	1139.518	860.971
265.366	16.657	1139.146	860.660
266.380	16.783	1138.072	860.412
267.395	16.677	1137.331	859.238
268.409	16.539	1136.540	857.861
269.424	16.593	1135.736	857.454
270.439	16.646	1135.157	857.210
271.453	16.620	1134.745	856.687
272.468	16.624	1133.465	855.670
273.482	16.589	1133.079	855.126
274.497	16.521	1132.604	854.348
275.512	16.528	1131.787	853.689
276.526	16.606	1130.660	853.156
277.541	16.607	1130.354	852.854
278.555	16.666	1130.079	852.871
279.570	16.715	1129.047	852.264
280.585	16.813	1128.145	851.998
281.599	16.823	1127.351	851.376
282.614	16.798	1126.190	850.297
283.628	16.711	1125.224	849.054
284.643	16.724	1124.118	848.212
285.657	16.732	1123.513	847.718
286.672	16.811	1122.147	847.010
287.687	16.877	1121.597	846.849
288.701	16.824	1120.695	845.830
289.716	16.823	1120.239	845.406
290.730	16.814	1119.330	844.597
291.745	16.935	1118.730	844.673
292.760	16.938	1117.791	843.905
293.774	16.866	1117.743	843.434
294.789	17.000	1116.933	843.418
295.803	16.941	1116.160	842.467
296.818	17.018	1115.527	842.293
297.833	16.960	1114.638	841.263
298.847	16.814	1114.360	840.254
299.862	16.933	1113.303	839.970
300.876	17.071	1112.717	840.137
301.891	17.144	1111.978	839.868
302.906	17.066	1111.292	838.888
303.920	17.183	1110.545	838.826
304.935	17.152	1110.148	838.301
305.949	17.216	1109.593	838.125
306.964	17.313	1108.744	837.886
307.979	17.303	1107.840	837.078
308.993	17.178	1107.259	835.953
310.008	17.267	1106.381	835.650
311.022	17.326	1105.395	835.124
312.037	17.270	1104.998	834.474
313.052	17.090	1104.399	833.065
314.066	17.167	1102.830	832.184
315.081	17.024	1102.310	831.017
316.095	17.033	1101.802	830.608
317.110	17.017	1101.039	829.881
318.125	17.082	1100.257	829.533
319.139	16.981	1099.674	828.530
320.154	17.075	1098.943	828.362
321.168	17.166	1098.236	828.202
322.183	17.072	1098.047	827.528
323.197	17.144	1097.064	827.061
324.212	17.293	1096.223	827.079
325.227	17.212	1095.859	826.338
326.241	17.293	1095.357	826.282
327.256	17.257	1094.135	825.111
328.270	17.238	1093.212	824.250
329.285	17.256	1092.351	823.617
330.300	17.118	1091.814	822.470
331.314	17.336	1090.329	822.330
332.329	17.429	1089.415	822.018
333.343	17.215	1089.388	820.895
334.358	17.307	1088.143	820.326
335.373	17.463	1087.125	820.236
336.387	17.397	1087.154	819.867
337.402	17.425	1085.915	818.995
338.416	17.430	1085.360	818.530
339.431	17.511	1084.856	818.465
340.446	17.621	1084.056	818.320
341.460	17.612	1083.766	817.983
342.475	17.699	1082.991	817.747
343.489	17.703	1081.979	816.929
344.504	17.823	1080.472	816.293
345.519	17.866	1079.949	816.031
346.533	17.870	1079.452	815.598
347.548	17.756	1078.824	814.510
348.562	17.845	1078.021	814.256
349.577	17.629	1077.217	812.544
350.592	17.668	1076.093	811.814
351.606	17.550	1075.913	811.044
352.621	17.537	1075.134	810.321
353.635	17.567	1074.451	809.876
354.650	17.657	1073.581	809.579
355.665	17.762	1072.627	809.284
356.679	17.723	1072.446	808.890
357.694	17.775	1071.797	808.579
358.708	17.729	1070.918	807.625
359.723	17.772	1070.408	807.373
360.738	17.876	1070.058	807.528
361.752	17.792	1069.122	806.354
362.767	17.782	1068.143	805.497
363.781	17.834	1067.943	805.521
364.796	17.945	1067.351	805.526
365.810	17.953	1066.923	805.169
366.825	18.110	1066.083	805.205
367.840	18.163	1065.697	805.092
368.854	18.096	1065.348	804.442
369.869	18.127	1064.710	804.036
370.883	18.132	1063.462	803.046
371.898	18.206	1062.345	802.475
372.913	18.091	1061.989	801.597
373.927	18.086	1061.976	801.493
374.942	18.223	1061.132	801.426
375.956	18.248	1060.649	801.108
376.971	18.250	1060.042	800.590
377.986	18.194	1060.216	800.385
379.000	18.227	1058.972	799.531
380.015	18.247	1058.927	799.522
381.029	18.258	1058.409	799.109
382.044	18.321	1057.325	798.515
383.059	18.312	1056.825	798.022
384.073	18.234	1056.225	797.137
385.088	18.430	1054.710	796.836
386.102	18.406	1053.901	796.042
387.117	18.358	1052.547	794.726
388.132	18.264	1052.035	793.834
389.146	18.269	1051.149	793.117
390.161	18.309	1050.333	792.618
391.175	18.185	1050.234	791.896
392.190	18.371	1048.898	791.682
393.205	18.383	1048.706	791.520
394.219	18.463	1047.799	791.136
395.234	18.456	1046.624	790.148
396.248	18.405	1045.488	788.984
397.263	18.353	1045.025	788.325
398.278	18.293	1043.907	787.135
399.292	18.337	1043.490	786.953
400.307	18.168	1043.006	785.745
401.321	18.301	1042.193	785.672
402.336	18.336	1041.365	785.140
403.350	18.493	1040.577	785.195
404.365	18.360	1040.229	784.251
405.380	18.425	1039.366	783.829
406.394	18.422	1038.657	783.211
407.409	18.587	1037.889	783.317
408.423	18.660	1037.136	783.015
409.438	18.642	1036.624	782.477
410.453	18.654	1035.901	781.914
411.467	18.606	1035.540	781.354
412.482	18.750	1034.828	781.403
413.496	18.721	1034.259	780.773
414.511	18.769	1033.378	780.254
415.526	18.873	1032.950	780.338
416.540	18.894	1032.413	779.956
417.555	18.907	1031.739	779.440
418.569	18.812	1031.840	779.016
419.584	18.731	1031.415	778.258
420.599	18.883	1030.882	778.477
421.613	150.702	1400.699	1794.095
422.628	137.516	1454.558	1794.188
