DTS Sentinel unit serial number:	SN413079Multiplexer serial number:	ORYXHardware model number:	OX4-SRSoftware version number:	ORYX F/W v4.00 Oryx Data Collector v3.7.2.0data status	okinstallation	princeton_trtdifferential loss correction	single-endedforward channel	channel 2reverse channel	N/Adate	2019/09/13time	09:19:34forward acquisition time	60.00reverse acquisition time	0.00gamma	496.2192k internal	0.2328k external	0.2328temperature offset calibration	1.0194default loss term (dB/km)	0.3790temperature slope calibration	1.0000multiplexer offset coefficient	1.0000multiplexer slope coefficient	1.0000fibre end	0.00T internal ref (°C)	29.14T ext. ref 1 (°C)	4.41T ext. ref 2 (°C)	26.36length (m)	temperature (°C)	Stokes	anti-Stokes-747.200	-200.000	-0.054	-0.373
-746.185	-32.142	0.321	-0.181
-745.171	-127.636	0.052	0.008
-744.156	268.601	-0.120	0.212
-743.142	-50.156	0.277	0.132
-742.127	99.472	-0.193	0.225
-741.112	-155.802	0.352	-0.023
-740.098	-200.000	0.004	0.158
-739.083	800.000	0.067	0.249
-738.069	-139.151	-0.070	0.008
-737.054	188.231	-0.173	-0.261
-736.039	-13.386	-0.105	-0.069
-735.025	103.923	0.254	0.301
-734.010	19.003	-0.283	0.229
-732.996	-200.000	-0.015	0.238
-731.981	800.000	-0.052	0.182
-730.966	-49.095	-0.262	0.126
-729.952	-150.230	-0.230	-0.018
-728.937	-56.759	-0.214	-0.095
-727.923	-96.603	-0.065	-0.017
-726.908	445.602	0.032	-0.071
-725.894	-63.180	-0.124	0.051
-724.879	96.126	-0.115	-0.132
-723.864	-52.275	-0.367	-0.171
-722.850	-78.058	0.305	0.106
-721.835	249.630	-0.130	-0.222
-720.821	-200.000	0.000	-0.248
-719.806	92.361	-0.207	-0.235
-718.791	-117.197	-0.147	-0.027
-717.777	-82.760	0.062	-0.020
-716.762	-200.000	0.001	-0.357
-715.748	178.843	-0.058	-0.085
-714.733	-90.451	-0.195	-0.057
-713.718	271.294	0.273	-0.485
-712.704	-55.671	-0.070	-0.032
-711.689	94.046	0.167	-0.191
-710.675	6.617	-0.134	-0.100
-709.660	-47.627	-0.117	0.057
-708.645	-200.000	-0.035	0.245
-707.631	-2.497	-0.184	-0.129
-706.616	800.000	-0.028	-0.122
-705.602	232.275	-0.137	-0.226
-704.587	7.762	0.052	0.039
-703.572	126.289	0.143	-0.182
-702.558	-114.368	0.234	0.045
-701.543	-104.693	-0.154	-0.036
-700.529	-200.000	-0.039	-0.287
-699.514	537.375	-0.028	-0.066
-698.499	-99.612	0.330	-0.083
-697.485	-200.000	0.052	-0.233
-696.470	33.241	-0.164	-0.143
-695.456	432.664	0.188	-0.409
-694.441	34.544	0.202	-0.177
-693.426	-94.710	-0.093	-0.025
-692.412	693.223	0.037	-0.097
-691.397	800.000	-0.026	0.112
-690.383	-35.877	-0.259	0.141
-689.368	800.000	0.082	-0.234
-688.354	800.000	-0.034	-0.119
-687.339	-4.110	0.072	-0.050
-686.324	139.316	-0.148	-0.196
-685.310	-30.296	-0.346	-0.198
-684.295	-22.740	0.055	0.033
-683.281	-118.756	-0.581	0.103
-682.266	197.230	0.058	0.089
-681.251	196.637	0.050	0.077
-680.237	-114.078	0.200	-0.039
-679.222	-70.585	-0.144	0.055
-678.208	-200.000	0.070	0.342
-677.193	198.863	0.151	0.232
-676.178	800.000	0.079	0.310
-675.164	294.920	-0.057	0.104
-674.149	612.046	-0.065	0.164
-673.135	-123.378	0.360	0.058
-672.120	-117.789	-0.210	0.038
-671.105	800.000	-0.032	0.125
-670.091	190.170	-0.099	-0.149
-669.076	229.126	0.172	0.282
-668.062	-200.000	-0.051	0.255
-667.047	-81.044	0.235	-0.078
-666.032	427.697	-0.108	-0.234
-665.018	-200.000	-0.034	0.239
-664.003	-135.925	-0.136	0.016
-662.989	-67.658	0.331	-0.130
-661.974	-139.582	-0.146	-0.016
-660.959	-200.000	-0.211	0.001
-659.945	-200.000	0.020	0.164
-658.930	-200.000	-0.043	-0.289
-657.916	4.996	-0.306	-0.226
-656.901	800.000	0.066	0.223
-655.886	-200.000	-0.020	-0.114
-654.872	800.000	0.030	-0.100
-653.857	88.917	0.163	-0.183
-652.843	642.872	0.068	0.174
-651.828	-113.315	-0.163	-0.032
-650.814	-65.202	0.235	-0.095
-649.799	77.003	0.100	0.107
-648.784	-55.423	0.183	0.082
-647.770	800.000	0.030	-0.119
-646.755	800.000	0.015	0.053
-645.741	-112.879	0.274	0.054
-644.726	-144.100	-0.221	0.021
-643.711	69.285	-0.155	-0.160
-642.697	-128.040	-0.440	-0.063
-641.682	-5.067	-0.120	0.083
-640.668	-200.000	0.040	-0.258
-639.653	-26.556	-0.176	-0.104
-638.638	-119.855	0.118	-0.020
-637.624	-200.000	0.015	-0.183
-636.609	122.939	-0.036	0.046
-635.595	714.238	0.082	-0.217
-634.580	-67.712	-0.128	-0.050
-633.565	-31.475	-0.068	-0.038
-632.551	145.753	-0.107	0.143
-631.536	-103.797	-0.157	0.037
-630.522	-107.644	-0.191	-0.042
-629.507	-200.000	-0.001	0.124
-628.492	19.960	0.135	-0.109
-627.478	-94.204	-0.245	0.067
-626.463	-129.461	0.200	-0.028
-625.449	-200.000	-0.013	-0.376
-624.434	-83.378	-0.176	-0.056
-623.419	513.116	0.077	-0.180
-622.405	-200.000	0.051	-0.308
-621.390	48.950	-0.223	-0.210
-620.376	-8.959	0.364	-0.245
-619.361	-200.000	0.025	-0.274
-618.346	34.715	0.234	0.205
-617.332	-4.452	-0.488	0.338
-616.317	-50.592	0.286	-0.135
-615.303	-38.416	0.163	0.087
-614.288	125.709	-0.137	-0.174
-613.273	33.019	-0.164	-0.142
-612.259	97.884	0.105	-0.121
-611.244	800.000	-0.074	-0.272
-610.230	-156.087	-0.269	0.017
-609.215	-200.000	0.056	-0.360
-608.201	107.526	-0.322	-0.384
-607.186	-200.000	-0.007	-0.064
-606.171	340.455	0.095	-0.186
-605.157	800.000	-0.104	0.390
-604.142	-100.115	-0.093	0.023
-603.128	132.688	-0.113	-0.146
-602.113	800.000	0.027	0.088
-601.098	-200.000	-0.102	0.000
-600.084	26.780	0.100	-0.084
-599.069	60.172	0.361	-0.358
-598.055	-162.608	0.108	0.005
-597.040	-76.093	-0.152	0.054
-596.025	800.000	0.020	0.059
-595.011	-200.000	0.001	0.191
-593.996	684.653	0.009	-0.024
-592.982	164.671	-0.130	0.184
-591.967	194.978	-0.132	0.201
-590.952	11.254	-0.293	0.225
-589.938	-107.764	-0.163	-0.036
-588.923	-70.089	-0.203	-0.078
-587.909	-200.000	0.004	-0.082
-586.894	-200.000	0.031	-0.000
-585.879	-83.547	0.171	-0.055
-584.865	104.895	-0.137	-0.162
-583.850	800.000	-0.057	-0.229
-582.836	-97.234	-0.194	0.051
-581.821	-200.000	-0.045	0.330
-580.806	-31.302	-0.079	-0.044
-579.792	19.618	0.200	0.161
-578.777	-148.455	0.321	-0.026
-577.763	-200.000	0.018	-0.431
-576.748	800.000	-0.107	-0.405
-575.733	-128.125	0.209	-0.030
-574.719	-143.909	0.357	0.034
-573.704	-81.800	-0.288	0.094
-572.690	45.398	0.235	0.217
-571.675	-2.658	0.189	-0.132
-570.661	69.936	-0.288	-0.297
-569.646	51.911	-0.156	-0.148
-568.631	-51.816	0.237	-0.110
-567.617	-41.206	-0.419	0.216
-566.602	-76.521	0.322	0.113
-565.588	-200.000	-0.007	-0.129
-564.573	203.338	-0.007	0.011
-563.558	-190.911	-0.408	-0.004
-562.544	118.600	-0.306	-0.378
-561.529	-200.000	0.006	0.247
-560.515	-37.749	0.388	0.206
-559.500	-64.446	-0.155	-0.063
-558.485	-200.000	-0.012	0.058
-557.471	-69.760	0.215	0.082
-556.456	-200.000	-0.010	0.219
-555.442	-155.681	-0.060	0.004
-554.427	91.253	0.184	-0.207
-553.412	114.548	-0.089	-0.109
-552.398	-200.000	-0.044	0.222
-551.383	411.082	0.119	-0.253
-550.369	-2.881	0.111	-0.077
-549.354	63.602	-0.132	-0.132
-548.339	94.863	-0.233	-0.265
-547.325	435.606	0.057	-0.125
-546.310	-99.012	-0.475	-0.120
-545.296	214.459	-0.099	0.157
-544.281	63.926	-0.189	0.190
-543.266	92.996	-0.269	0.304
-542.252	-17.992	-0.105	-0.066
-541.237	-200.000	-0.023	-0.324
-540.223	-147.217	0.370	-0.032
-539.208	-74.505	0.288	0.104
-538.193	-106.261	-0.552	0.124
-537.179	647.985	0.099	0.254
-536.164	-93.631	-0.127	-0.035
-535.150	-58.478	0.120	0.052
-534.135	-141.817	-0.106	0.011
-533.121	57.927	-0.256	-0.250
-532.106	-8.151	-0.121	-0.081
-531.091	55.267	0.046	0.045
-530.077	-200.000	0.071	0.312
-529.062	800.000	-0.025	-0.073
-528.048	-78.038	-0.082	0.028
-527.033	-102.358	0.094	0.022
-526.018	-128.718	0.368	0.052
-525.004	-91.618	-0.164	0.047
-523.989	-80.182	0.206	-0.069
-522.975	800.000	0.056	0.228
-521.960	-106.127	-0.255	0.057
-520.945	687.690	0.065	0.171
-519.931	28.882	0.122	0.103
-518.916	-68.637	0.220	-0.085
-517.902	205.768	0.175	-0.271
-516.887	-200.000	0.011	0.138
-515.872	-16.760	0.260	-0.164
-514.858	29.367	0.155	0.132
-513.843	-200.000	-0.031	0.201
-512.829	762.499	-0.076	0.207
-511.814	266.965	-0.088	0.154
-510.799	-39.388	-0.390	0.204
-509.785	-138.617	0.284	0.031
-508.770	130.764	0.064	-0.082
-507.756	-22.431	0.187	0.113
-506.741	-200.000	-0.027	-0.129
-505.726	107.179	0.105	0.124
-504.712	-200.000	-0.017	-0.082
-503.697	-61.404	-0.071	0.030
-502.683	-63.988	0.174	0.071
-501.668	4.219	0.052	0.038
-500.653	-152.005	-0.163	-0.012
-499.639	-128.625	0.050	-0.007
-498.624	-193.356	-0.529	0.005
-497.610	-88.905	0.282	0.083
-496.595	-23.860	-0.115	0.069
-495.581	128.655	-0.018	-0.023
-494.566	800.000	0.040	-0.149
-493.551	-120.229	-0.165	0.028
-492.537	-158.901	-0.284	-0.016
-491.522	145.758	0.219	0.293
-490.508	-30.906	-0.299	-0.168
-489.493	-71.436	-0.281	0.105
-488.478	-160.733	0.274	-0.015
-487.464	259.956	-0.168	-0.289
-486.449	25.775	-0.053	0.044
-485.435	187.800	-0.173	-0.258
-484.420	800.000	0.003	-0.011
-483.405	56.310	0.106	0.103
-482.391	638.088	-0.031	0.079
-481.376	245.438	0.142	0.239
-480.362	509.464	0.047	0.109
-479.347	742.674	-0.037	-0.099
-478.332	125.452	-0.252	-0.317
-477.318	-76.175	0.176	-0.062
-476.303	-100.117	-0.047	0.012
-475.289	-48.312	-0.089	0.043
-474.274	-167.637	-0.490	-0.019
-473.259	334.582	-0.037	0.071
-472.245	-98.675	0.121	0.031
-471.230	101.964	0.160	0.187
-470.216	-174.641	-0.194	0.005
-469.201	800.000	-0.011	-0.034
-468.186	173.989	-0.075	0.109
-467.172	800.000	-0.026	-0.082
-466.157	-119.475	0.334	0.058
-465.143	152.616	-0.185	0.252
-464.128	61.949	0.211	0.209
-463.113	-200.000	0.003	0.348
-462.099	800.000	-0.026	-0.076
-461.084	386.758	-0.155	-0.320
-460.070	58.810	-0.182	0.179
-459.055	51.456	0.146	-0.138
-458.040	-135.526	0.320	0.038
-457.026	-155.483	-0.261	0.017
-456.011	536.880	0.156	0.370
-454.997	800.000	0.111	0.351
-453.982	-200.000	0.004	-0.098
-452.968	-35.802	-0.296	0.160
-451.953	-80.333	0.155	0.052
-450.938	8.162	0.185	0.138
-449.924	-75.632	-0.014	0.005
-448.909	287.363	0.148	-0.267
-447.895	727.318	-0.049	-0.131
-446.880	-200.000	-0.034	-0.246
-445.865	78.730	0.151	0.161
-444.851	-29.423	0.498	-0.284
-443.836	-200.000	0.004	0.067
-442.822	681.688	-0.037	-0.095
-441.807	507.633	-0.012	-0.028
-440.792	-200.000	-0.006	0.056
-439.778	-200.000	-0.015	0.098
-438.763	409.521	0.070	0.148
-437.749	254.028	-0.096	0.164
-436.734	-124.570	0.168	0.026
-435.719	87.654	0.109	-0.120
-434.705	93.047	0.163	-0.183
-433.690	-200.000	-0.021	-0.107
-432.676	164.634	-0.104	0.146
-431.661	-1.462	0.341	0.240
-430.646	52.837	-0.201	0.192
-429.632	-115.198	-0.314	0.059
-428.617	-179.005	-0.094	0.002
-427.603	-200.000	0.014	0.401
-426.588	58.159	-0.182	0.178
-425.573	-51.676	0.447	0.208
-424.559	800.000	0.075	0.219
-423.544	-53.967	0.136	-0.062
-422.530	-87.638	-0.322	0.097
-421.515	-200.000	-0.004	-0.423
-420.500	800.000	0.052	0.178
-419.486	-26.457	0.350	0.204
-418.471	-133.323	-0.117	-0.015
-417.457	150.915	-0.006	0.008
-416.442	-200.000	-0.010	0.228
-415.428	-104.275	0.087	0.020
-414.413	18.551	-0.317	0.252
-413.398	800.000	0.022	-0.090
-412.384	-200.000	-0.002	0.022
-411.369	9.816	-0.113	0.085
-410.355	784.088	-0.137	0.374
-409.340	546.502	-0.074	-0.175
-408.325	-200.000	0.037	-0.291
-407.311	-200.000	0.020	0.148
-406.296	79.660	0.129	0.138
-405.282	-102.404	0.156	0.037
-404.267	-200.000	-0.013	-0.263
-403.252	800.000	0.074	-0.282
-402.238	5.677	0.246	-0.181
-401.223	-118.736	0.244	-0.043
-400.209	46.765	0.165	0.152
-399.194	-116.457	-0.267	-0.049
-398.179	800.000	-0.130	-0.408
-397.165	-48.296	-0.148	0.071
-396.150	280.756	-0.166	0.295
-395.136	54.765	-0.186	-0.179
-394.121	214.689	0.108	-0.171
-393.106	8.844	-0.123	-0.092
-392.092	800.000	-0.095	0.326
-391.077	-37.903	0.193	0.102
-390.063	-55.272	-0.275	0.123
-389.048	122.637	0.323	-0.401
-388.033	169.297	-0.231	-0.327
-387.019	-115.524	-0.288	-0.054
-386.004	9.070	0.113	-0.085
-384.990	688.429	0.138	-0.358
-383.975	-200.000	0.055	0.396
-382.960	-173.176	0.108	0.003
-381.946	800.000	-0.056	0.166
-380.931	158.039	-0.132	0.182
-379.917	85.268	0.177	-0.193
-378.902	800.000	-0.083	-0.231
-377.888	-200.000	-0.005	-0.105
-376.873	52.086	-0.223	0.211
-375.858	-4.125	-0.086	0.059
-374.844	-10.887	0.158	0.104
-373.829	-185.538	0.248	0.004
-372.815	126.942	0.048	0.060
-371.800	335.960	0.099	-0.191
-370.785	-93.353	0.145	0.040
-369.771	-200.000	-0.003	-0.076
-368.756	48.622	-0.258	-0.240
-367.742	-7.990	0.061	-0.041
-366.727	-59.654	0.299	-0.127
-365.712	307.736	-0.090	-0.166
-364.698	497.245	0.087	-0.199
-363.683	-200.000	-0.006	-0.076
-362.669	116.465	0.178	-0.217
-361.654	-45.431	-0.294	0.145
-360.639	302.743	0.062	-0.114
-359.625	-200.000	0.006	0.160
-358.610	128.171	-0.081	-0.102
-357.596	-22.189	0.145	0.088
-356.581	95.233	-0.179	0.202
-355.566	-200.000	0.008	-0.422
-354.552	800.000	0.069	0.240
-353.537	45.479	0.082	-0.075
-352.523	-112.496	0.466	-0.092
-351.508	-200.000	-0.015	0.070
-350.493	110.610	0.072	-0.086
-349.479	-84.697	-0.121	-0.038
-348.464	-67.199	0.216	0.084
-347.450	-163.396	0.053	-0.002
-346.435	-90.826	-0.183	-0.052
-345.420	-166.486	-0.441	0.018
-344.406	282.149	-0.090	0.159
-343.391	-200.000	-0.037	-0.256
-342.377	-27.403	0.107	-0.062
-341.362	-124.902	0.059	-0.009
-340.348	-123.556	-0.566	0.089
-339.333	772.075	0.031	0.085
-338.318	-16.922	-0.188	0.118
-337.304	6.025	-0.121	-0.089
-336.289	-123.876	-0.348	0.054
-335.275	-200.000	-0.019	-0.178
-334.260	24.444	0.086	0.071
-333.245	20.488	-0.091	0.073
-332.231	-45.407	0.042	-0.021
-331.216	45.262	0.116	0.106
-330.202	-4.347	-0.125	0.086
-329.187	-132.543	-0.217	-0.028
-328.172	107.730	0.056	0.066
-327.158	800.000	-0.118	0.396
-326.143	710.270	-0.059	0.154
-325.129	-15.411	0.122	0.077
-324.114	222.573	0.157	0.250
-323.099	74.610	-0.101	-0.106
-322.085	-112.014	0.215	0.043
-321.070	39.331	0.063	-0.056
-320.056	332.116	0.051	-0.098
-319.041	800.000	-0.031	-0.102
-318.026	-47.889	0.134	-0.064
-317.012	-200.000	-0.028	-0.138
-315.997	14.117	0.119	0.092
-314.983	181.977	-0.286	0.417
-313.968	-125.494	0.407	-0.061
-312.953	800.000	0.009	-0.033
-311.939	551.292	-0.128	0.305
-310.924	-123.947	-0.203	0.032
-309.910	197.196	-0.161	0.243
-308.895	-146.240	0.215	0.019
-307.880	354.727	-0.116	-0.228
-306.866	-99.673	0.104	0.026
-305.851	-80.390	-0.416	-0.138
-304.837	626.492	-0.126	-0.315
-303.822	-124.312	0.246	-0.038
-302.807	-140.828	-0.223	0.023
-301.793	-193.640	0.054	0.000
-300.778	482.889	0.043	0.097
-299.764	62.539	0.191	0.189
-298.749	-200.000	0.090	0.559
-297.735	-167.743	0.045	-0.002
-296.720	-67.554	0.244	0.095
-295.705	-72.241	0.096	-0.035
-294.691	62.420	0.054	0.053
-293.676	33.456	-0.154	-0.132
-292.662	23.566	0.102	-0.083
-291.647	241.824	0.260	0.430
-290.632	619.556	-0.092	0.229
-289.618	800.000	-0.091	0.262
-288.603	104.633	0.141	0.164
-287.589	800.000	-0.041	0.158
-286.574	-153.105	0.235	0.016
-285.559	4.064	-0.035	-0.025
-284.545	800.000	0.058	0.225
-283.530	48.283	-0.192	0.177
-282.516	-104.108	0.330	-0.076
-281.501	-200.000	-0.043	-0.201
-280.486	-200.000	0.002	0.072
-279.472	-68.105	0.268	0.103
-278.457	-200.000	0.043	-0.194
-277.443	118.000	0.165	0.202
-276.428	-200.000	-0.002	-0.406
-275.413	-12.551	-0.011	0.007
-274.399	94.665	0.154	-0.173
-273.384	-26.122	0.441	-0.257
-272.370	-40.964	0.209	0.107
-271.355	49.241	0.052	-0.048
-270.340	800.000	-0.066	-0.211
-269.326	-2.866	0.271	0.187
-268.311	237.389	0.086	0.141
-267.297	-73.228	-0.244	-0.088
-266.282	-200.000	-0.037	-0.469
-265.267	800.000	-0.022	-0.092
-264.253	-128.433	0.135	-0.019
-263.238	315.434	-0.117	0.219
-262.224	5.741	-0.363	0.266
-261.209	44.293	0.152	-0.138
-260.195	-53.640	-0.234	-0.106
-259.180	262.093	-0.175	0.301
-258.165	800.000	0.014	-0.040
-257.151	274.887	-0.204	0.357
-256.136	250.951	0.224	0.376
-255.122	135.871	-0.166	0.214
-254.107	46.044	0.155	-0.142
-253.092	-132.850	-0.125	0.016
-252.078	-200.000	-0.022	-0.169
-251.063	-200.000	0.046	-0.202
-250.049	41.694	-0.075	-0.067
-249.034	-200.000	0.052	-0.523
-248.019	264.424	0.070	-0.121
-247.005	-11.149	0.231	-0.150
-245.990	-56.373	0.151	0.066
-244.976	266.071	-0.145	-0.250
-243.961	227.632	0.021	-0.034
-242.946	71.473	0.192	0.197
-241.932	248.180	-0.014	0.023
-240.917	-200.000	-0.010	-0.166
-239.903	-163.031	0.263	-0.013
-238.888	419.183	0.146	0.308
-237.873	113.028	0.112	-0.134
-236.859	134.027	0.164	-0.210
-235.844	-77.337	0.281	-0.096
-234.830	800.000	-0.065	0.242
-233.815	-200.000	0.008	0.074
-232.800	-97.517	-0.159	-0.041
-231.786	-89.472	-0.192	0.056
-230.771	800.000	0.057	0.180
-229.757	650.008	-0.053	-0.134
-228.742	-200.000	-0.013	0.083
-227.727	-200.000	0.027	0.323
-226.713	-178.617	-0.216	0.005
-225.698	116.251	-0.254	0.307
-224.684	296.237	0.098	-0.178
-223.669	230.298	0.046	0.075
-222.655	800.000	0.064	0.262
-221.640	-200.000	0.002	0.020
-220.625	-38.360	-0.057	-0.030
-219.611	201.243	0.137	-0.209
-218.596	149.072	-0.094	-0.125
-217.582	-100.928	-0.023	-0.006
-216.567	19.248	-0.134	-0.106
-215.552	24.234	0.200	0.163
-214.538	25.512	-0.177	-0.145
-213.523	-3.493	-0.280	0.192
-212.509	-169.774	0.187	-0.007
-211.494	-72.278	0.202	-0.074
-210.479	-200.000	-0.029	-0.137
-209.465	68.127	0.203	0.205
-208.450	21.562	0.065	0.052
-207.436	-86.118	0.084	-0.026
-206.421	-150.233	-0.155	-0.012
-205.406	748.961	-0.094	0.250
-204.392	446.452	-0.063	0.137
-203.377	159.455	0.097	0.133
-202.363	800.000	0.030	0.107
-201.348	-65.301	0.142	-0.056
-200.333	-179.156	-0.114	-0.003
-199.319	800.000	-0.098	0.305
-198.304	-200.000	0.014	-0.389
-197.290	28.864	-0.011	-0.009
-196.275	-75.535	0.339	-0.119
-195.260	-123.167	0.206	0.033
-194.246	153.776	-0.300	0.405
-193.231	245.957	0.058	-0.097
-192.217	-106.696	-0.267	-0.059
-191.202	54.200	0.232	0.221
-190.187	-200.000	0.049	0.314
-189.173	164.143	-0.022	-0.030
-188.158	232.716	0.134	-0.218
-187.144	16.693	0.166	0.129
-186.129	-200.000	-0.018	-0.137
-185.114	-46.057	0.072	-0.035
-184.100	-55.765	-0.109	0.048
-183.085	363.719	-0.192	-0.380
-182.071	289.931	-0.073	-0.131
-181.056	7.349	0.068	-0.050
-180.042	-155.864	0.415	-0.026
-179.027	-43.548	-0.122	0.061
-178.012	-15.992	-0.290	0.182
-176.998	-200.000	-0.008	-0.241
-175.983	-94.732	0.185	0.050
-174.969	-166.831	0.070	0.003
-173.954	74.039	-0.224	-0.232
-172.939	88.161	-0.106	-0.116
-171.925	-200.000	-0.066	0.360
-170.910	-106.619	0.277	0.061
-169.896	-200.000	-0.024	-0.187
-168.881	-51.536	-0.110	0.050
-167.866	800.000	0.059	-0.164
-166.852	298.908	0.028	0.051
-165.837	186.157	0.156	-0.228
-164.823	800.000	0.070	-0.196
-163.808	35.606	-0.396	0.343
-162.793	352.803	-0.113	-0.222
-161.779	-200.000	0.026	-0.373
-160.764	68.524	0.148	0.149
-159.750	39.329	0.269	-0.237
-158.735	-65.019	-0.229	-0.091
-157.720	800.000	-0.012	0.039
-156.706	212.788	0.171	-0.265
-155.691	-134.965	0.325	0.039
-154.677	45.123	-0.213	-0.193
-153.662	-134.536	0.346	-0.042
-152.647	207.691	0.013	-0.020
-151.633	-5.840	-0.109	0.074
-150.618	800.000	-0.019	-0.065
-149.604	-90.896	-0.233	0.066
-148.589	-200.000	-0.000	-0.006
-147.574	-139.051	-0.481	0.051
-146.560	-200.000	-0.003	0.470
-145.545	800.000	0.084	0.321
-144.531	581.908	-0.050	-0.121
-143.516	78.598	0.075	0.079
-142.502	800.000	0.139	0.381
-141.487	800.000	0.072	0.251
-140.472	13.934	0.168	0.129
-139.458	240.132	-0.052	0.085
-138.443	-200.000	-0.007	-0.289
-137.429	45.842	0.131	0.119
-136.414	-141.159	-0.096	-0.010
-135.399	-38.504	-0.109	0.057
-134.385	691.607	-0.070	0.180
-133.370	664.524	-0.111	0.281
-132.356	561.012	-0.055	0.131
-131.341	-200.000	-0.009	0.061
-130.326	157.113	0.136	0.185
-129.312	-182.475	0.091	0.002
-128.297	289.585	-0.107	0.192
-127.283	800.000	0.052	0.169
-126.268	-200.000	0.012	-0.203
-125.253	-200.000	0.009	-0.272
-124.239	800.000	0.015	-0.062
-123.224	800.000	-0.017	-0.063
-122.210	137.959	0.079	-0.102
-121.195	63.904	-0.110	-0.109
-120.180	146.876	-0.071	0.093
-119.166	-200.000	0.007	0.262
-118.151	-200.000	0.005	0.116
-117.137	-54.505	-0.112	0.050
-116.122	153.071	0.127	0.171
-115.107	513.932	0.127	-0.292
-114.093	-115.926	0.172	0.032
-113.078	-84.887	0.259	0.080
-112.064	227.695	0.054	0.087
-111.049	365.155	0.160	0.317
-110.034	-142.456	0.408	-0.039
-109.020	-121.147	0.287	0.047
-108.005	81.314	-0.090	0.095
-106.991	-0.996	-0.090	0.062
-105.976	-180.877	-0.166	0.003
-104.962	800.000	0.058	-0.240
-103.947	800.000	0.045	-0.123
-102.932	-200.000	0.001	-0.145
-101.918	-200.000	0.040	0.239
-100.903	618.496	0.163	0.403
-99.889	-115.285	0.298	-0.055
-98.874	-7.162	-0.179	0.119
-97.859	425.176	0.182	0.385
-96.845	800.000	0.048	-0.157
-95.830	-200.000	-0.107	-0.000
-94.816	258.011	0.063	-0.106
-93.801	-200.000	-0.020	0.159
-92.786	86.208	-0.148	0.160
-91.772	800.000	0.098	0.397
-90.757	-14.466	0.091	0.058
-89.743	-37.372	-0.147	-0.077
-88.728	45.458	0.176	-0.159
-87.713	-72.842	-0.236	0.085
-86.699	-200.000	-0.011	0.267
-85.684	-180.406	-0.035	-0.001
-84.670	-200.000	-0.006	0.074
-83.655	-200.000	-0.019	-0.111
-82.640	40.698	0.334	-0.296
-81.626	800.000	-0.021	0.086
-80.611	21.525	-0.140	0.112
-79.597	800.000	-0.028	0.080
-78.582	585.592	-0.166	0.401
-77.567	8.263	-0.252	0.186
-76.553	-200.000	0.018	-0.208
-75.538	-200.000	-0.029	0.305
-74.524	36.301	-0.101	-0.087
-73.509	-23.232	0.087	0.051
-72.494	691.533	0.049	0.127
-71.480	-117.104	0.463	0.083
-70.465	-200.000	0.042	0.254
-69.451	-76.960	0.216	0.074
-68.436	45.327	-0.320	0.290
-67.422	36.131	0.170	-0.147
-66.407	-161.150	0.333	-0.017
-65.392	-64.689	0.264	-0.105
-64.378	-200.000	0.007	0.185
-63.363	-46.178	-0.092	0.045
-62.349	-34.948	0.235	-0.126
-61.334	38.721	-0.958	-0.839
-60.319	67.840	0.506	0.508
-59.305	340.135	-0.494	-0.945
-58.290	207.768	0.980	1.500
-57.276	464.251	0.634	1.391
-56.261	-200.000	105.656	584.466
-55.246	502.748	1486.000	3369.140
-54.232	175.933	2698.923	3841.887
-53.217	103.845	2307.787	2659.322
-52.203	38.171	1913.219	1670.071
-51.188	32.381	1699.324	1439.164
-50.173	29.704	1655.834	1382.291
-49.159	48.223	1708.688	1567.585
-48.144	48.535	1724.274	1584.195
-47.130	31.886	1682.110	1420.610
-46.115	29.282	1667.395	1388.543
-45.100	29.065	1662.948	1383.151
-44.086	29.021	1659.846	1380.190
-43.071	28.941	1657.783	1377.814
-42.057	29.005	1655.060	1375.976
-41.042	28.948	1653.234	1373.978
-40.027	29.033	1650.865	1372.593
-39.013	29.018	1649.082	1370.939
-37.998	28.954	1647.325	1368.948
-36.984	29.030	1646.309	1368.615
-35.969	29.123	1644.320	1367.602
-34.954	29.188	1643.369	1367.239
-33.940	29.149	1640.976	1364.900
-32.925	29.201	1639.421	1363.943
-31.911	29.195	1637.549	1362.288
-30.896	29.149	1636.057	1360.651
-29.881	29.178	1634.274	1359.329
-28.867	28.990	1633.246	1357.031
-27.852	29.218	1630.834	1356.656
-26.838	29.165	1630.203	1355.685
-25.823	29.143	1628.885	1354.369
-24.809	29.252	1627.240	1353.753
-23.794	29.154	1626.005	1351.949
-22.779	29.227	1624.138	1350.878
-21.765	29.188	1622.578	1349.242
-20.750	29.148	1621.099	1347.669
-19.736	29.256	1619.909	1347.415
-18.721	29.209	1618.348	1345.718
-17.706	29.118	1616.590	1343.538
-16.692	29.122	1614.956	1342.155
-15.677	29.189	1613.823	1341.650
-14.663	29.222	1612.358	1340.620
-13.648	29.122	1611.346	1339.000
-12.633	29.018	1610.306	1337.328
-11.619	29.100	1608.140	1336.067
-10.604	29.147	1606.452	1334.954
-9.590	29.202	1605.008	1334.101
-8.575	29.072	1604.355	1332.563
-7.560	29.237	1602.937	1332.526
-6.546	29.123	1602.114	1330.966
-5.531	29.215	1600.746	1330.441
-4.517	29.115	1599.421	1328.560
-3.502	29.170	1598.280	1327.961
-2.487	29.176	1596.675	1326.614
-1.473	29.002	1585.962	1316.417
-0.458	26.664	1566.615	1283.762
0.556	25.399	1567.992	1253.460
1.571	23.248	1592.794	1257.907
2.586	22.480	1604.830	1261.802
3.600	19.901	1550.015	1200.728
4.615	12.228	1440.951	1066.467
5.629	5.528	1379.573	979.149
6.644	4.350	1371.654	966.110
7.659	4.356	1370.327	965.128
8.673	4.489	1369.217	965.091
9.688	4.425	1367.665	963.511
10.702	4.329	1365.193	961.087
11.717	7.479	1370.905	984.593
12.731	15.535	1384.998	1044.937
13.746	21.504	1394.182	1089.039
14.761	22.461	1395.654	1096.054
15.775	21.967	1393.151	1090.922
16.790	20.837	1391.160	1082.251
17.804	20.197	1389.070	1076.556
18.819	19.809	1387.893	1073.141
19.834	19.703	1386.780	1071.530
20.848	19.695	1385.395	1070.317
21.863	19.487	1384.275	1068.067
22.877	19.387	1383.369	1066.653
23.892	19.327	1382.058	1065.182
24.907	19.218	1381.838	1064.241
25.921	19.192	1380.914	1063.277
26.936	19.344	1379.527	1063.048
27.950	19.363	1378.774	1062.493
28.965	19.424	1377.773	1062.007
29.980	19.625	1376.808	1062.403
30.994	19.716	1375.522	1061.874
32.009	19.717	1374.815	1061.241
33.023	19.713	1373.350	1059.991
34.038	19.612	1372.049	1058.273
35.053	19.490	1370.849	1056.507
36.067	19.461	1369.946	1055.541
37.082	19.516	1368.847	1054.938
38.096	19.589	1367.982	1054.628
39.111	19.520	1367.690	1053.884
40.126	19.347	1366.456	1051.787
41.140	19.134	1364.970	1049.253
42.155	18.992	1364.672	1048.064
43.169	18.958	1364.122	1047.344
44.184	18.993	1363.768	1047.189
45.199	19.013	1363.704	1047.168
46.213	19.284	1362.974	1048.164
47.228	19.444	1362.241	1048.481
48.242	19.487	1361.419	1048.015
49.257	19.392	1360.054	1046.299
50.271	19.345	1358.547	1044.762
51.286	19.338	1357.751	1044.012
52.301	19.431	1356.140	1043.244
53.315	19.198	1355.106	1040.946
54.330	19.124	1353.809	1039.413
55.344	19.087	1352.801	1038.325
56.359	19.088	1351.580	1037.300
57.374	18.997	1350.821	1036.079
58.388	18.999	1350.149	1035.484
59.403	19.027	1349.530	1035.086
60.417	18.927	1348.746	1033.794
61.432	18.885	1347.279	1032.322
62.447	18.847	1346.480	1031.391
63.461	18.719	1345.392	1029.700
64.476	18.672	1344.230	1028.441
65.490	18.781	1343.074	1028.113
66.505	18.854	1341.343	1027.139
67.520	18.811	1340.468	1026.116
68.534	18.819	1339.324	1025.197
69.549	18.842	1338.457	1024.581
70.563	18.697	1337.400	1022.820
71.578	18.498	1336.612	1020.943
72.593	18.530	1335.497	1020.186
73.607	18.546	1334.627	1019.528
74.622	18.611	1333.520	1018.977
75.636	18.587	1333.019	1018.361
76.651	18.707	1332.511	1018.597
77.666	18.653	1332.331	1018.047
78.680	18.762	1331.666	1018.098
79.695	18.807	1331.008	1017.770
80.709	18.935	1330.538	1018.080
81.724	18.958	1329.690	1017.478
82.739	19.149	1329.020	1018.005
83.753	19.353	1328.224	1018.509
84.768	19.412	1327.442	1018.166
85.782	19.547	1326.008	1017.774
86.797	19.693	1325.276	1017.980
87.812	19.538	1323.295	1015.460
88.826	19.458	1322.681	1014.426
89.841	19.424	1321.954	1013.582
90.855	19.632	1320.817	1013.839
91.870	19.644	1320.392	1013.493
92.884	19.633	1319.097	1012.344
93.899	19.632	1319.007	1012.178
94.914	19.645	1317.803	1011.241
95.928	19.557	1317.854	1010.679
96.943	19.666	1316.173	1009.938
97.957	19.487	1315.699	1008.435
98.972	19.469	1314.168	1007.071
99.987	19.593	1313.125	1006.905
101.001	19.554	1311.945	1005.685
102.016	19.569	1311.385	1005.252
103.030	19.550	1310.579	1004.434
104.045	19.573	1309.566	1003.705
105.060	19.391	1307.912	1001.290
106.074	19.110	1306.419	998.430
107.089	18.894	1304.462	995.594
108.103	18.699	1303.735	993.820
109.118	18.665	1302.188	992.358
110.133	18.872	1300.352	992.066
111.147	18.813	1299.543	991.022
112.162	18.850	1298.790	990.573
113.176	18.957	1297.350	990.004
114.191	19.006	1296.642	989.656
115.206	19.024	1295.262	988.619
116.220	19.101	1293.600	987.708
117.235	18.984	1292.748	986.298
118.249	18.868	1292.085	985.040
119.264	18.860	1290.359	983.590
120.279	18.644	1290.012	982.001
121.293	18.767	1289.118	981.939
122.308	18.585	1287.744	979.766
123.322	18.524	1286.577	978.443
124.337	18.534	1285.452	977.558
125.352	18.571	1284.226	976.748
126.366	18.503	1283.142	975.454
127.381	18.543	1282.079	974.784
128.395	18.498	1281.283	973.840
129.410	18.590	1280.391	973.596
130.424	18.622	1279.597	973.084
131.439	18.743	1278.716	973.016
132.454	18.863	1278.251	973.256
133.468	18.950	1276.954	972.672
134.483	18.998	1276.723	972.683
135.497	19.039	1275.514	971.910
136.512	19.006	1273.911	970.415
137.527	19.072	1272.790	969.850
138.541	19.110	1271.623	969.086
139.556	19.184	1270.664	968.688
140.570	19.259	1269.695	968.283
141.585	19.312	1268.508	967.590
142.600	19.398	1267.845	967.479
143.614	19.525	1267.077	967.523
144.629	19.556	1265.776	966.617
145.643	19.515	1264.912	965.643
146.658	19.389	1262.850	963.276
147.673	19.204	1261.504	961.131
148.687	19.066	1260.693	959.663
149.702	18.954	1259.186	957.806
150.716	18.975	1257.484	956.543
151.731	19.016	1256.420	955.874
152.746	18.960	1255.388	954.697
153.760	19.117	1254.269	954.632
154.775	19.083	1253.590	953.841
155.789	19.142	1252.706	953.412
156.804	19.225	1251.876	953.155
157.819	19.296	1250.401	952.342
158.833	19.456	1250.164	952.957
159.848	19.539	1249.445	952.783
160.862	19.546	1248.099	951.715
161.877	19.288	1246.433	948.937
162.892	19.047	1245.420	946.755
163.906	19.014	1244.626	945.889
164.921	19.004	1243.606	944.973
165.935	19.177	1243.069	945.434
166.950	19.125	1242.710	944.789
167.964	19.165	1241.732	944.183
168.979	19.203	1240.896	943.673
169.994	19.124	1239.988	942.466
171.008	19.248	1239.144	942.419
172.023	19.318	1238.819	942.468
173.037	19.480	1238.328	942.900
174.052	19.411	1237.049	941.462
175.067	19.106	1235.667	938.668
176.081	19.020	1234.376	937.132
177.096	18.969	1233.955	936.454
178.110	19.147	1232.729	936.410
179.125	19.119	1231.441	935.197
180.140	19.164	1230.397	934.566
181.154	19.289	1229.522	934.493
182.169	19.530	1228.221	934.726
183.183	19.537	1227.553	934.174
184.198	19.542	1226.525	933.339
185.213	19.471	1225.595	932.166
186.227	19.538	1223.923	931.172
187.242	19.633	1223.207	931.053
188.256	19.757	1222.930	931.432
189.271	19.809	1220.962	930.130
190.286	19.545	1220.268	928.100
191.300	19.032	1218.715	924.079
192.315	19.000	1218.495	923.659
193.329	19.055	1217.823	923.367
194.344	19.151	1216.932	923.121
195.359	19.172	1216.754	923.020
196.373	19.381	1216.119	923.576
197.388	19.367	1216.632	923.809
198.402	19.663	1215.817	924.689
199.417	19.778	1215.355	924.871
200.432	19.971	1214.676	925.304
201.446	19.948	1214.267	924.787
202.461	20.154	1213.128	924.939
203.475	20.092	1211.931	923.613
204.490	19.911	1210.494	921.475
205.504	19.582	1209.317	918.747
206.519	19.545	1208.030	917.491
207.534	19.538	1206.922	916.533
208.548	19.539	1206.060	915.799
209.563	19.597	1205.747	915.790
210.577	19.527	1204.621	914.480
211.592	19.699	1203.352	914.346
212.607	19.855	1202.946	914.782
213.621	19.879	1202.298	914.338
214.636	19.782	1201.174	912.887
215.650	19.871	1200.032	912.411
216.665	19.885	1199.614	912.084
217.680	20.159	1198.754	912.794
218.694	20.068	1198.213	911.820
219.709	20.016	1197.403	910.851
220.723	20.031	1196.413	910.096
221.738	19.969	1195.891	909.293
222.753	19.925	1194.868	908.205
223.767	19.998	1193.999	907.843
224.782	20.191	1193.678	908.531
225.796	20.219	1193.471	908.443
226.811	20.140	1192.620	907.299
227.826	19.949	1191.638	905.474
228.840	19.954	1190.661	904.678
229.855	20.001	1189.560	904.007
230.869	19.942	1188.859	903.083
231.884	19.863	1188.163	902.062
232.899	19.859	1187.182	901.219
233.913	19.785	1186.482	900.221
234.928	19.642	1185.980	899.016
235.942	19.658	1184.823	898.146
236.957	19.607	1184.352	897.442
237.972	19.705	1183.456	897.192
238.986	19.772	1182.722	896.908
240.001	19.743	1182.132	896.226
241.015	19.727	1181.443	895.543
242.030	19.874	1180.862	895.786
243.045	20.000	1179.647	895.434
244.059	20.070	1179.014	895.237
245.074	20.044	1178.326	894.501
246.088	20.153	1177.482	894.346
247.103	20.228	1177.166	894.413
248.117	20.312	1176.357	894.151
249.132	20.528	1175.639	894.637
250.147	20.740	1175.031	895.187
251.161	20.933	1174.441	895.649
252.176	20.860	1173.997	894.859
253.190	20.931	1173.363	894.661
254.205	20.915	1173.360	894.497
255.220	21.072	1172.633	894.667
256.234	20.913	1172.288	893.507
257.249	20.952	1171.053	892.688
258.263	20.917	1170.449	891.971
259.278	20.802	1170.220	891.130
260.293	20.801	1169.679	890.635
261.307	20.931	1169.011	890.711
262.322	21.029	1168.113	890.446
263.336	21.040	1167.452	889.920
264.351	21.117	1166.783	889.723
265.366	21.118	1166.353	889.323
266.380	21.166	1165.519	888.853
267.395	21.155	1164.117	887.646
268.409	20.871	1163.468	885.631
269.424	20.826	1162.881	884.876
270.439	20.822	1162.439	884.443
271.453	20.935	1161.113	883.929
272.468	20.720	1160.595	882.369
273.482	20.592	1159.654	880.925
274.497	20.719	1159.215	881.158
275.512	20.606	1159.028	880.364
276.526	20.650	1157.673	879.477
277.541	20.769	1156.896	879.414
278.555	20.833	1156.086	879.043
279.570	21.078	1155.438	879.709
280.585	21.142	1155.020	879.635
281.599	21.033	1154.118	878.319
282.614	20.998	1152.549	876.873
283.628	20.916	1151.445	875.542
284.643	20.878	1150.856	874.826
285.657	20.938	1149.915	874.337
286.672	20.828	1148.927	872.957
287.687	20.983	1147.986	872.940
288.701	20.935	1147.384	872.165
289.716	20.937	1146.668	871.550
290.730	20.925	1145.899	870.830
291.745	21.053	1144.859	870.604
292.760	21.050	1144.589	870.304
293.774	20.983	1144.323	869.691
294.789	21.344	1143.817	871.028
295.803	21.202	1143.327	869.872
296.818	21.097	1141.882	868.175
297.833	20.941	1141.199	866.803
298.847	20.989	1140.324	866.299
299.862	21.035	1139.449	865.786
300.876	21.072	1139.391	865.850
301.891	21.234	1138.476	865.877
302.906	21.268	1138.297	865.834
303.920	21.271	1137.884	865.457
304.935	21.492	1137.327	866.055
305.949	21.483	1136.541	865.334
306.964	21.572	1135.617	864.991
307.979	21.499	1134.515	863.715
308.993	21.406	1133.810	862.643
310.008	21.444	1133.465	862.494
311.022	21.348	1133.242	861.773
312.037	21.455	1131.832	861.154
313.052	21.242	1130.777	859.227
314.066	21.129	1129.583	857.685
315.081	20.993	1128.664	856.246
316.095	20.955	1127.380	855.011
317.110	21.034	1126.702	854.806
318.125	20.946	1126.342	854.029
319.139	20.970	1125.609	853.512
320.154	21.011	1124.989	853.169
321.168	21.058	1124.734	853.132
322.183	21.030	1124.101	852.436
323.197	21.042	1123.600	852.041
324.212	21.161	1122.758	851.907
325.227	21.211	1122.230	851.677
326.241	21.260	1121.009	850.910
327.256	21.217	1120.402	850.165
328.270	21.043	1119.691	848.707
329.285	21.179	1118.830	848.637
330.300	21.187	1117.893	847.893
331.314	21.064	1116.712	846.323
332.329	21.102	1115.852	845.779
333.343	21.251	1115.396	846.081
334.358	21.294	1114.551	845.573
335.373	21.422	1114.011	845.712
336.387	21.377	1113.475	845.010
337.402	21.429	1112.690	844.589
338.416	21.463	1111.909	844.086
339.431	21.659	1111.282	844.480
340.446	21.807	1110.827	844.773
341.460	21.863	1110.107	844.422
342.475	21.954	1109.731	844.497
343.489	21.934	1108.596	843.464
344.504	21.965	1107.924	843.030
345.519	21.960	1107.427	842.552
346.533	22.177	1106.361	842.707
347.548	22.184	1105.299	841.855
348.562	22.069	1104.962	840.976
349.577	21.819	1103.758	838.790
350.592	21.680	1102.442	837.051
351.606	21.558	1101.747	835.867
352.621	21.525	1100.711	834.847
353.635	21.348	1100.674	833.903
354.650	21.472	1099.648	833.642
355.665	21.595	1099.194	833.808
356.679	21.631	1098.559	833.426
357.694	21.770	1097.864	833.482
358.708	21.817	1097.621	833.447
359.723	21.828	1096.930	832.906
360.738	21.864	1096.058	832.340
361.752	21.865	1095.643	831.953
362.767	21.870	1094.934	831.365
363.781	21.907	1094.651	831.255
364.796	22.029	1094.099	831.336
365.810	22.169	1093.746	831.656
366.825	22.269	1093.176	831.625
367.840	22.441	1092.692	831.997
368.854	22.514	1092.115	831.829
369.869	22.463	1091.273	830.872
370.883	22.328	1090.218	829.360
371.898	22.151	1089.602	827.981
372.913	22.241	1088.467	827.469
373.927	22.349	1088.327	827.800
374.942	22.273	1088.168	827.249
375.956	22.458	1087.215	827.321
376.971	22.154	1086.970	825.633
377.986	22.339	1086.206	825.848
379.000	22.444	1085.611	825.811
380.015	22.495	1085.301	825.742
381.029	22.571	1084.794	825.640
382.044	22.695	1083.424	825.104
383.059	22.494	1083.026	823.789
384.073	22.594	1081.751	823.213
385.088	22.630	1081.200	822.888
386.102	22.578	1080.442	821.998
387.117	22.404	1079.063	820.065
388.132	22.074	1078.355	817.915
389.146	22.148	1077.668	817.666
390.161	22.207	1076.817	817.227
391.175	22.116	1076.396	816.410
392.190	22.259	1075.623	816.417
393.205	22.486	1074.692	816.690
394.219	22.485	1074.039	816.117
395.234	22.310	1073.082	814.509
396.248	22.262	1071.696	813.159
397.263	22.187	1071.019	812.229
398.278	22.203	1069.874	811.361
399.292	22.060	1069.421	810.288
400.307	22.036	1068.362	809.303
401.321	21.982	1068.017	808.719
402.336	22.061	1067.219	808.409
403.350	21.988	1066.520	807.473
404.365	22.049	1066.148	807.400
405.380	22.252	1065.210	807.549
406.394	22.309	1064.995	807.577
407.409	22.366	1064.436	807.342
408.423	22.568	1063.369	807.390
409.438	22.684	1062.935	807.519
410.453	22.793	1062.226	807.407
411.467	22.739	1061.353	806.426
412.482	22.860	1061.301	806.865
413.496	22.850	1060.446	806.099
414.511	22.959	1059.869	806.087
415.526	23.035	1059.360	805.973
416.540	23.180	1059.023	806.307
417.555	22.998	1058.492	805.002
418.569	22.995	1057.711	804.325
419.584	22.952	1057.407	803.827
420.599	22.900	1056.783	803.045
421.613	156.760	1402.134	1795.399
422.628	144.069	1452.434	1795.480
