DTS Sentinel unit serial number:	SN413079Multiplexer serial number:	ORYXHardware model number:	OX4-SRSoftware version number:	ORYX F/W v4.00 Oryx Data Collector v3.7.2.0data status	okinstallation	princeton_trtdifferential loss correction	single-endedforward channel	channel 2reverse channel	N/Adate	2019/09/17time	06:39:34forward acquisition time	60.00reverse acquisition time	0.00gamma	496.2192k internal	0.2332k external	0.2332temperature offset calibration	0.9981default loss term (dB/km)	0.3790temperature slope calibration	1.0000multiplexer offset coefficient	1.0000multiplexer slope coefficient	1.0000fibre end	0.00T internal ref (°C)	27.94T ext. ref 1 (°C)	0.12T ext. ref 2 (°C)	21.35length (m)	temperature (°C)	Stokes	anti-Stokes-747.200	-136.393	0.120	-0.014
-746.185	800.000	-0.051	0.173
-745.171	800.000	0.014	0.044
-744.156	-200.000	-0.050	0.267
-743.142	154.697	-0.209	-0.289
-742.127	-200.000	0.057	0.306
-741.112	324.254	0.196	0.376
-740.098	6.699	0.201	0.151
-739.083	-200.000	-0.024	0.156
-738.069	-200.000	-0.044	0.238
-737.054	-95.212	-0.086	-0.023
-736.039	800.000	0.074	0.253
-735.025	-200.000	0.070	0.318
-734.010	158.457	-0.151	-0.210
-732.996	-121.876	-0.275	-0.046
-731.981	-200.000	-0.014	-0.229
-730.966	147.923	0.149	-0.202
-729.952	94.936	-0.197	-0.225
-728.937	-76.809	-0.181	-0.064
-727.923	103.422	0.199	0.235
-726.908	800.000	-0.170	-0.599
-725.894	133.856	-0.111	-0.144
-724.879	-137.193	-0.190	0.022
-723.864	800.000	0.114	-0.319
-722.850	-150.872	-0.187	-0.014
-721.835	374.759	0.063	0.130
-720.821	800.000	0.095	0.361
-719.806	-98.328	-0.187	-0.048
-718.791	124.848	0.010	0.013
-717.777	-128.691	0.187	-0.027
-716.762	282.931	-0.143	-0.258
-715.748	12.010	-0.220	-0.170
-714.733	-77.044	0.413	-0.145
-713.718	262.425	-0.096	0.167
-712.704	-200.000	0.057	0.274
-711.689	265.878	0.101	-0.178
-710.675	445.876	0.118	-0.261
-709.660	800.000	0.079	0.305
-708.645	53.351	-0.108	0.104
-707.631	-200.000	0.038	0.317
-706.616	-34.694	0.147	0.081
-705.602	9.906	0.106	-0.081
-704.587	-51.695	0.372	0.174
-703.572	800.000	0.085	-0.316
-702.558	-133.927	-0.313	-0.039
-701.543	-200.000	-0.055	-0.282
-700.529	130.821	-0.148	0.191
-699.514	46.368	-0.117	-0.109
-698.499	-118.478	-0.459	-0.082
-697.485	-200.000	0.004	0.030
-696.470	-200.000	0.001	-0.351
-695.456	-200.000	0.007	0.381
-694.441	-79.676	-0.193	0.065
-693.426	-73.792	0.084	0.031
-692.412	-23.664	-0.180	-0.109
-691.397	800.000	0.027	0.102
-690.383	-65.608	0.147	-0.059
-689.368	-200.000	-0.016	0.101
-688.354	-200.000	0.029	-0.131
-687.339	523.603	-0.100	0.235
-686.324	393.507	-0.070	0.147
-685.310	163.615	0.147	0.208
-684.295	98.447	-0.069	-0.080
-683.281	234.997	0.033	0.055
-682.266	-200.000	-0.014	-0.372
-681.251	-21.879	-0.138	0.084
-680.237	-50.385	0.249	0.118
-679.222	-141.515	0.313	0.032
-678.208	-200.000	-0.041	0.217
-677.193	800.000	0.048	0.136
-676.178	456.305	0.093	-0.206
-675.164	-174.443	0.180	0.005
-674.149	-105.527	-0.161	-0.037
-673.135	80.313	-0.200	0.216
-672.120	-20.658	0.086	-0.053
-671.105	152.641	-0.116	0.159
-670.091	49.565	-0.120	-0.113
-669.076	-102.028	-0.080	0.019
-668.062	-88.693	-0.298	-0.089
-667.047	9.470	-0.205	0.156
-666.032	800.000	-0.102	0.314
-665.018	-200.000	-0.015	0.154
-664.003	-200.000	-0.028	-0.158
-662.989	-100.258	0.304	0.076
-661.974	-200.000	0.043	0.364
-660.959	175.014	-0.007	-0.010
-659.945	-58.339	-0.278	0.121
-658.930	800.000	-0.087	-0.248
-657.916	-13.598	-0.057	-0.037
-656.901	-105.217	-0.177	-0.040
-655.886	309.529	0.022	0.041
-654.872	-97.520	0.206	0.054
-653.857	-171.345	-0.080	0.003
-652.843	-155.977	-0.373	0.024
-651.828	304.187	0.073	0.136
-650.814	62.194	0.159	0.159
-649.799	246.413	-0.177	0.299
-648.784	-18.817	-0.090	0.056
-647.770	-148.394	0.144	-0.012
-646.755	67.100	-0.232	0.237
-645.741	-156.205	-0.235	0.015
-644.726	800.000	-0.047	0.197
-643.711	800.000	-0.028	-0.093
-642.697	146.162	-0.031	-0.042
-641.682	-45.271	-0.241	-0.120
-640.668	-113.551	0.077	-0.015
-639.653	-200.000	-0.006	-0.164
-638.638	51.533	-0.184	-0.175
-637.624	-61.211	-0.577	-0.244
-636.609	-200.000	-0.028	-0.265
-635.595	484.291	0.151	-0.345
-634.580	18.129	0.179	-0.143
-633.565	36.125	-0.127	-0.112
-632.551	-100.226	-0.108	-0.027
-631.536	211.033	0.141	-0.222
-630.522	-129.589	-0.286	-0.040
-629.507	-200.000	0.008	0.115
-628.492	-9.918	-0.084	0.056
-627.478	-60.251	-0.040	-0.017
-626.463	-200.000	0.031	-0.267
-625.449	800.000	0.087	-0.342
-624.434	-144.287	-0.310	0.029
-623.419	-32.156	0.099	0.055
-622.405	-31.665	-0.283	0.159
-621.390	553.059	0.097	0.234
-620.376	-86.903	0.214	0.065
-619.361	169.924	0.141	0.202
-618.346	228.708	0.323	0.527
-617.332	792.205	0.070	0.193
-616.317	-200.000	-0.001	0.011
-615.303	111.527	0.119	0.144
-614.288	58.203	-0.112	0.110
-613.273	-200.000	-0.020	0.195
-612.259	-140.200	-0.228	-0.024
-611.244	252.023	-0.057	-0.097
-610.230	-7.291	0.186	-0.126
-609.215	800.000	-0.053	-0.158
-608.201	-59.666	-0.078	0.033
-607.186	112.418	-0.221	-0.268
-606.171	88.814	0.197	-0.219
-605.157	35.912	-0.160	-0.141
-604.142	373.009	-0.245	-0.498
-603.128	-177.733	0.288	0.007
-602.113	355.194	-0.068	-0.134
-601.098	-200.000	-0.014	-0.112
-600.084	67.238	0.089	0.091
-599.069	-200.000	0.018	-0.306
-598.055	-78.268	0.259	-0.089
-597.040	98.155	0.190	0.219
-596.025	-91.349	0.285	0.082
-595.011	-61.939	0.097	0.041
-593.996	-121.575	-0.098	-0.016
-592.982	248.226	-0.137	0.231
-591.967	-200.000	-0.050	0.331
-590.952	-32.170	0.158	-0.088
-589.938	-131.308	-0.355	-0.047
-588.923	-200.000	0.051	-0.224
-587.909	82.053	-0.320	0.347
-586.894	131.459	-0.169	0.217
-585.879	-113.081	-0.255	0.050
-584.865	423.122	0.086	0.184
-583.850	-28.341	0.392	-0.226
-582.836	160.125	-0.112	0.156
-581.821	-200.000	-0.018	0.272
-580.806	-15.037	-0.155	-0.099
-579.792	58.494	0.140	0.137
-578.777	-145.023	-0.347	-0.032
-577.763	313.415	0.134	-0.251
-576.748	108.875	-0.152	0.181
-575.733	-119.532	0.078	-0.014
-574.719	-79.618	0.048	-0.016
-573.704	800.000	-0.087	-0.250
-572.690	800.000	-0.094	-0.281
-571.675	-155.251	-0.289	0.019
-570.661	-200.000	0.002	-0.040
-569.646	-200.000	-0.081	0.421
-568.631	-200.000	0.019	0.154
-567.617	20.742	0.165	0.133
-566.602	220.941	-0.090	-0.145
-565.588	-90.865	0.249	-0.072
-564.573	-113.871	0.189	0.037
-563.558	-144.657	0.171	0.016
-562.544	-123.222	0.278	-0.044
-561.529	-200.000	-0.078	-0.416
-560.515	800.000	0.106	-0.329
-559.500	-126.563	-0.299	-0.044
-558.485	-138.255	0.205	0.023
-557.471	-200.000	0.000	0.137
-556.456	-14.109	0.167	0.108
-555.442	-200.000	-0.014	-0.104
-554.427	53.184	0.035	-0.033
-553.412	-102.926	0.228	0.054
-552.398	14.624	0.103	-0.080
-551.383	37.397	-0.148	0.131
-550.369	-200.000	-0.012	0.154
-549.354	-78.212	-0.552	0.189
-548.339	-200.000	-0.003	0.055
-547.325	74.680	0.071	-0.075
-546.310	-170.088	-0.075	-0.003
-545.296	104.040	0.189	-0.222
-544.281	-87.701	-0.347	0.105
-543.266	-78.917	0.271	0.092
-542.252	-85.019	-0.456	0.143
-541.237	215.111	-0.053	0.084
-540.223	-200.000	0.054	0.236
-539.208	81.180	-0.115	0.124
-538.193	-200.000	-0.014	0.108
-537.179	-190.070	0.187	-0.002
-536.164	179.349	-0.148	-0.215
-535.150	103.339	-0.085	0.099
-534.135	-48.919	0.341	-0.163
-533.121	-200.000	0.001	0.098
-532.106	642.740	-0.054	-0.138
-531.091	547.147	-0.016	-0.038
-530.077	189.149	-0.155	0.232
-529.062	434.534	-0.123	-0.267
-528.048	-200.000	0.039	-0.324
-527.033	-157.597	-0.251	-0.015
-526.018	-147.124	0.190	0.016
-525.004	149.825	-0.093	0.126
-523.989	-87.700	0.246	0.074
-522.975	-200.000	0.042	0.207
-521.960	71.031	0.123	-0.127
-520.945	720.603	-0.058	-0.155
-519.931	800.000	-0.056	-0.167
-518.916	-200.000	0.024	0.125
-517.902	-56.211	-0.033	-0.015
-516.887	-81.875	-0.246	0.080
-515.872	-200.000	-0.058	-0.426
-514.858	430.773	0.095	-0.205
-513.843	-65.225	0.354	-0.142
-512.829	1.993	0.205	0.147
-511.814	-147.897	-0.225	0.019
-510.799	-196.751	0.156	0.001
-509.785	-2.174	0.166	-0.116
-508.770	-20.078	-0.136	0.084
-507.756	-200.000	-0.014	0.112
-506.741	561.346	0.123	0.298
-505.726	5.607	-0.111	0.082
-504.712	-149.778	-0.178	-0.014
-503.697	800.000	0.041	-0.139
-502.683	-200.000	-0.025	-0.213
-501.668	-200.000	0.017	-0.145
-500.653	3.509	0.184	-0.134
-499.639	776.563	-0.126	0.343
-498.624	800.000	0.071	-0.260
-497.610	-103.386	0.295	0.069
-496.595	800.000	-0.104	0.366
-495.581	-85.427	-0.093	0.029
-494.566	-159.274	-0.170	0.009
-493.551	800.000	0.046	0.190
-492.537	-90.483	0.297	-0.086
-491.522	-77.609	-0.358	-0.124
-490.508	224.229	0.035	-0.057
-489.493	-200.000	0.082	0.404
-488.478	13.705	0.245	-0.190
-487.464	-200.000	0.021	-0.189
-486.449	18.503	-0.183	-0.146
-485.435	-79.531	-0.179	-0.060
-484.420	-105.468	-0.227	-0.051
-483.405	-15.760	-0.192	-0.122
-482.391	-68.967	0.121	-0.047
-481.376	324.168	-0.225	0.427
-480.362	-200.000	0.087	-0.592
-479.347	90.676	-0.114	-0.128
-478.332	-52.279	0.136	-0.063
-477.318	760.626	0.081	0.218
-476.303	650.546	0.083	0.211
-475.289	29.459	-0.051	0.043
-474.274	800.000	-0.014	-0.057
-473.259	-140.931	-0.100	0.010
-472.245	252.978	0.102	-0.172
-471.230	679.307	0.035	-0.091
-470.216	-200.000	-0.022	-0.376
-469.201	-6.192	0.161	-0.109
-468.186	-59.827	0.137	-0.058
-467.172	-107.513	-0.254	0.055
-466.157	-200.000	-0.010	-0.184
-465.143	-200.000	0.006	-0.252
-464.128	-200.000	-0.001	0.518
-463.113	-34.648	0.200	-0.109
-462.099	92.474	-0.173	0.194
-461.084	112.556	-0.210	-0.253
-460.070	316.216	0.175	0.329
-459.055	119.369	-0.178	0.219
-458.040	-30.560	-0.170	-0.096
-457.026	-53.284	0.238	-0.109
-456.011	-200.000	-0.073	0.506
-454.997	-200.000	-0.027	-0.296
-453.982	-200.000	0.030	0.162
-452.968	-190.647	-0.209	-0.002
-451.953	101.174	-0.220	-0.254
-450.938	-155.782	-0.250	0.016
-449.924	-90.251	-0.251	-0.073
-448.909	-200.000	0.024	-0.210
-447.895	187.578	-0.055	-0.081
-446.880	99.151	-0.091	-0.104
-445.865	765.615	0.071	0.193
-444.851	316.895	-0.135	0.253
-443.836	-54.703	-0.220	-0.099
-442.822	-23.789	0.359	0.214
-441.807	-162.037	0.183	0.009
-440.792	800.000	0.053	-0.194
-439.778	-200.000	0.004	-0.080
-438.763	115.894	-0.178	0.217
-437.749	-79.810	-0.244	-0.082
-436.734	-56.203	0.314	-0.139
-435.719	68.361	-0.109	0.111
-434.705	-138.496	0.185	-0.020
-433.690	-200.000	0.062	0.285
-432.676	48.153	0.331	0.308
-431.661	123.985	-0.169	0.211
-430.646	484.948	-0.058	0.132
-429.632	800.000	-0.069	-0.192
-428.617	-136.797	-0.140	-0.016
-427.603	-92.111	-0.171	0.048
-426.588	-200.000	0.019	0.086
-425.573	-160.436	-0.214	-0.011
-424.559	-32.147	-0.209	0.116
-423.544	733.905	0.100	-0.266
-422.530	88.524	0.055	-0.061
-421.515	-101.393	-0.343	0.083
-420.500	-75.846	-0.202	0.071
-419.486	800.000	0.068	0.203
-418.471	-173.405	-0.207	-0.006
-417.457	-200.000	-0.037	0.461
-416.442	15.563	0.039	0.030
-415.428	-200.000	0.005	0.069
-414.413	-94.646	-0.076	0.021
-413.398	-90.291	-0.289	0.083
-412.384	-103.013	-0.204	0.048
-411.369	800.000	0.082	0.292
-410.355	-160.845	-0.311	0.016
-409.340	21.128	0.202	-0.163
-408.325	-92.971	-0.183	-0.051
-407.311	-200.000	-0.071	-0.339
-406.296	-82.042	-0.081	0.026
-405.282	73.947	0.230	-0.239
-404.267	-200.000	-0.015	-0.183
-403.252	-83.095	0.270	0.086
-402.238	60.672	-0.145	0.143
-401.223	152.031	0.205	0.278
-400.209	-200.000	0.008	0.276
-399.194	361.537	0.052	-0.103
-398.179	-89.096	-0.220	0.065
-397.165	2.801	0.089	0.064
-396.150	-25.748	0.109	-0.064
-395.136	-200.000	0.025	-0.144
-394.121	490.667	-0.077	-0.174
-393.106	-13.107	-0.292	0.188
-392.092	0.621	-0.152	0.108
-391.077	-68.845	-0.245	-0.094
-390.063	729.043	-0.073	0.194
-389.048	90.771	0.174	0.193
-388.033	-30.599	-0.158	0.089
-387.019	800.000	-0.060	-0.231
-386.004	-152.113	0.109	-0.008
-384.990	-200.000	0.354	0.001
-383.975	-161.228	-0.207	-0.011
-382.960	-153.794	0.068	-0.005
-381.946	548.828	0.088	-0.208
-380.931	-200.000	0.045	0.197
-379.917	436.840	0.066	-0.143
-378.902	-135.871	0.370	0.043
-377.888	-70.553	0.305	0.114
-376.873	-24.326	0.156	0.092
-375.858	218.976	0.104	0.165
-374.844	-200.000	-0.013	-0.186
-373.829	-45.770	0.217	-0.106
-372.815	-61.716	-0.030	-0.012
-371.800	38.339	0.163	0.144
-370.785	2.262	-0.179	-0.128
-369.771	800.000	0.039	0.166
-368.756	-200.000	-0.001	0.278
-367.742	-116.234	-0.158	-0.029
-366.727	153.728	0.104	0.141
-365.712	-3.771	-0.164	-0.113
-364.698	122.128	-0.114	0.141
-363.683	-200.000	-0.009	0.120
-362.669	-89.236	0.176	0.052
-361.654	460.667	-0.134	0.296
-360.639	-200.000	-0.018	-0.294
-359.625	41.259	-0.197	0.176
-358.610	178.398	0.100	-0.144
-357.596	-200.000	0.014	0.136
-356.581	177.512	-0.203	-0.293
-355.566	116.053	0.107	0.130
-354.552	800.000	-0.096	-0.367
-353.537	800.000	-0.008	-0.033
-352.523	43.694	0.079	-0.072
-351.508	29.671	-0.067	0.057
-350.493	317.599	-0.094	0.176
-349.479	-200.000	-0.009	0.212
-348.464	-40.280	0.190	-0.098
-347.450	800.000	-0.024	0.068
-346.435	-81.118	0.154	0.050
-345.420	188.365	0.190	0.281
-344.406	-200.000	-0.019	0.274
-343.391	224.173	0.135	-0.216
-342.377	-106.068	0.264	-0.059
-341.362	167.906	-0.071	-0.100
-340.348	-29.379	0.147	0.083
-339.333	-128.918	0.236	0.033
-338.318	-200.000	-0.011	-0.057
-337.304	-135.997	-0.292	0.034
-336.289	26.922	-0.377	0.313
-335.275	49.019	-0.294	0.273
-334.260	-60.968	-0.017	-0.007
-333.245	-165.482	0.144	-0.006
-332.231	443.997	-0.115	-0.249
-331.216	18.841	0.062	-0.049
-330.202	-6.920	0.423	0.285
-329.187	312.467	0.160	0.297
-328.172	8.292	0.325	0.242
-327.158	32.459	-0.243	0.208
-326.143	35.438	0.107	-0.093
-325.129	-116.576	0.096	-0.017
-324.114	-91.014	-0.357	0.102
-323.099	-200.000	-0.046	0.285
-322.085	125.631	0.164	-0.205
-321.070	-110.101	-0.160	0.033
-320.056	130.041	0.204	-0.258
-319.041	-198.645	0.320	-0.002
-318.026	212.879	-0.127	-0.199
-317.012	2.640	0.325	0.233
-315.997	72.644	0.135	-0.139
-314.983	-58.052	0.107	-0.046
-313.968	800.000	0.013	0.039
-312.953	-159.479	0.264	0.015
-311.939	-126.591	-0.225	-0.033
-310.924	-105.672	0.255	0.057
-309.910	-200.000	0.022	0.216
-308.895	9.587	-0.034	-0.026
-307.880	669.912	0.052	-0.132
-306.866	108.477	0.056	-0.066
-305.851	464.678	0.037	-0.083
-304.837	-32.929	0.167	0.092
-303.822	-63.094	-0.163	0.067
-302.807	-13.002	0.056	-0.036
-301.793	73.245	0.144	0.148
-300.778	7.142	-0.077	-0.057
-299.764	-200.000	-0.007	0.129
-298.749	328.025	-0.103	-0.195
-297.735	-122.187	0.068	0.011
-296.720	-66.461	0.071	-0.028
-295.705	-59.621	-0.254	0.108
-294.691	-104.809	0.468	-0.106
-293.676	38.682	0.099	-0.087
-292.662	123.620	-0.253	-0.314
-291.647	745.797	-0.026	-0.070
-290.632	53.116	-0.221	0.209
-289.618	-173.193	0.284	0.009
-288.603	-200.000	0.042	0.192
-287.589	303.345	-0.216	-0.396
-286.574	-34.490	-0.215	-0.116
-285.559	-200.000	0.035	-0.245
-284.545	800.000	0.024	-0.079
-283.530	92.586	0.052	0.058
-282.516	-19.626	-0.063	0.039
-281.501	-86.038	-0.241	-0.074
-280.486	24.621	-0.079	-0.065
-279.472	538.865	0.186	0.438
-278.457	-54.028	0.263	-0.118
-277.443	-200.000	-0.034	-0.191
-276.428	800.000	0.050	-0.179
-275.413	800.000	-0.061	-0.174
-274.399	278.001	0.068	-0.120
-273.384	193.376	-0.020	-0.030
-272.370	-17.878	-0.244	0.151
-271.355	-200.000	0.016	-0.090
-270.340	622.684	0.050	0.125
-269.326	800.000	-0.070	0.239
-268.311	423.403	-0.085	0.181
-267.297	512.460	0.044	-0.102
-266.282	29.754	0.135	-0.114
-265.267	-198.967	0.140	-0.001
-264.253	800.000	-0.058	-0.200
-263.238	148.616	-0.157	-0.209
-262.224	-200.000	0.007	0.035
-261.209	-200.000	-0.013	0.109
-260.195	-51.696	0.036	-0.016
-259.180	-160.722	-0.079	0.004
-258.165	-7.748	0.149	-0.099
-257.151	56.314	-0.070	-0.067
-256.136	17.748	-0.097	-0.077
-255.122	-200.000	-0.014	-0.339
-254.107	-9.475	0.089	-0.058
-253.092	8.251	-0.271	0.201
-252.078	-175.117	0.384	-0.011
-251.063	14.274	0.188	-0.144
-250.049	-5.804	-0.067	0.045
-249.034	59.900	-0.211	-0.206
-248.019	800.000	0.129	-0.374
-247.005	-200.000	0.086	0.392
-245.990	30.812	-0.038	0.032
-244.976	-23.968	0.170	0.101
-243.961	-143.477	-0.335	-0.032
-242.946	-42.031	-0.263	-0.133
-241.932	-35.432	-0.111	0.060
-240.917	-174.372	0.152	-0.004
-239.903	-159.566	0.292	-0.016
-238.888	403.618	0.186	0.385
-237.873	-122.993	0.250	0.040
-236.859	-200.000	-0.022	-0.295
-235.844	155.436	-0.278	-0.378
-234.830	-53.672	0.101	-0.046
-233.815	-1.696	0.171	-0.119
-232.800	159.590	0.141	-0.193
-231.786	-82.629	-0.246	0.078
-230.771	800.000	-0.084	-0.239
-229.757	102.671	0.160	-0.184
-228.742	-32.968	0.154	0.084
-227.727	800.000	0.022	-0.071
-226.713	-12.337	0.253	-0.163
-225.698	-92.003	-0.057	-0.016
-224.684	-136.581	-0.533	0.061
-223.669	-82.756	0.263	0.084
-222.655	-0.668	0.048	0.033
-221.640	125.356	-0.256	0.318
-220.625	173.416	-0.006	-0.009
-219.611	-200.000	-0.076	-0.000
-218.596	409.327	0.055	-0.115
-217.582	-200.000	0.027	-0.153
-216.567	-97.428	-0.095	0.024
-215.552	31.652	0.197	-0.167
-214.538	29.529	0.077	0.064
-213.523	-200.000	-0.067	0.399
-212.509	65.711	0.245	-0.245
-211.494	-200.000	-0.061	0.356
-210.479	47.897	0.128	-0.118
-209.465	112.747	0.329	-0.393
-208.450	-21.662	0.075	0.045
-207.436	430.526	0.223	-0.476
-206.421	-29.256	-0.238	-0.135
-205.406	67.754	-0.046	-0.046
-204.392	-200.000	-0.046	0.269
-203.377	800.000	-0.070	-0.236
-202.363	18.817	-0.117	0.093
-201.348	800.000	-0.106	0.375
-200.333	-147.949	-0.161	-0.013
-199.319	-113.088	-0.232	-0.045
-198.304	407.725	0.068	0.141
-197.290	29.748	-0.175	0.147
-196.275	5.553	0.048	0.035
-195.260	-200.000	-0.086	-0.429
-194.246	-200.000	-0.041	0.211
-193.231	-128.377	0.503	0.070
-192.217	252.716	0.122	0.205
-191.202	64.594	-0.079	-0.078
-190.187	-200.000	-0.059	-0.373
-189.173	-126.405	-0.113	0.017
-188.158	-200.000	0.022	-0.141
-187.144	149.407	-0.059	-0.079
-186.129	310.514	0.142	-0.262
-185.114	71.816	0.176	0.180
-184.100	-200.000	0.021	0.146
-183.085	-108.704	0.129	0.027
-182.071	-34.411	-0.133	-0.072
-181.056	10.446	0.142	-0.106
-180.042	800.000	0.075	-0.245
-179.027	189.350	-0.119	-0.176
-178.012	800.000	0.067	0.248
-176.998	213.702	-0.055	0.086
-175.983	158.825	0.186	0.255
-174.969	11.504	-0.057	0.043
-173.954	104.991	0.208	0.241
-172.939	414.792	0.035	0.074
-171.925	745.381	0.020	0.052
-170.910	-200.000	-0.017	-0.221
-169.896	-200.000	-0.040	-0.304
-168.881	198.226	0.111	-0.168
-167.866	288.643	0.084	0.150
-166.852	36.689	-0.147	0.128
-165.837	21.538	0.065	-0.052
-164.823	57.322	0.265	-0.254
-163.808	-200.000	-0.010	0.050
-162.793	97.469	-0.149	-0.168
-161.779	128.924	-0.218	0.273
-160.764	800.000	0.163	0.472
-159.750	80.819	0.023	-0.024
-158.735	-117.206	0.297	0.053
-157.720	-200.000	0.008	0.258
-156.706	800.000	0.093	0.261
-155.691	-41.389	0.356	-0.180
-154.677	-59.377	0.080	-0.034
-153.662	-137.056	0.252	0.028
-152.647	228.100	0.162	0.260
-151.633	-89.264	-0.252	-0.073
-150.618	-66.786	-0.080	-0.031
-149.604	8.203	-0.245	-0.181
-148.589	-127.219	-0.180	-0.026
-147.574	21.411	0.108	-0.086
-146.560	-116.209	0.179	-0.033
-145.545	228.039	-0.185	-0.296
-144.531	143.612	-0.232	0.304
-143.516	-74.754	0.116	-0.041
-142.502	-71.516	0.249	0.091
-141.487	-113.904	0.249	-0.047
-140.472	800.000	-0.035	-0.120
-139.458	278.537	0.039	0.067
-138.443	374.343	0.157	0.315
-137.429	-200.000	-0.020	0.145
-136.414	-200.000	-0.011	-0.127
-135.399	52.578	-0.155	0.145
-134.385	-148.250	0.196	0.016
-133.370	-116.492	0.137	-0.025
-132.356	-200.000	-0.012	0.282
-131.341	64.679	-0.035	-0.035
-130.326	207.446	-0.106	0.162
-129.312	105.856	0.053	-0.062
-128.297	6.442	-0.140	0.102
-127.283	666.698	-0.116	-0.296
-126.268	-200.000	0.002	0.011
-125.253	-200.000	-0.009	0.059
-124.239	-137.036	-0.248	0.028
-123.224	-36.380	0.357	0.189
-122.210	140.118	0.079	0.103
-121.195	-200.000	-0.023	-0.143
-120.180	-200.000	0.065	0.295
-119.166	800.000	0.033	-0.101
-118.151	1.199	0.361	0.255
-117.137	-22.661	0.083	0.049
-116.122	325.407	-0.145	0.272
-115.107	-157.159	0.316	0.019
-114.093	50.698	0.040	-0.037
-113.078	127.302	0.052	0.065
-112.064	259.932	-0.115	0.195
-111.049	76.086	-0.156	0.162
-110.034	123.936	-0.128	0.157
-109.020	401.593	0.117	0.242
-108.005	800.000	0.069	-0.248
-106.991	91.351	-0.125	-0.137
-105.976	-136.855	0.363	0.041
-104.962	401.669	0.130	0.268
-103.947	800.000	0.004	-0.016
-102.932	-24.095	-0.132	0.077
-101.918	800.000	0.060	-0.174
-100.903	800.000	-0.088	0.269
-99.889	145.881	0.205	0.270
-98.874	-47.919	0.143	-0.068
-97.859	183.098	0.152	0.221
-96.845	-70.768	0.405	-0.150
-95.830	221.670	-0.080	0.126
-94.816	800.000	-0.048	0.200
-93.801	800.000	0.076	-0.295
-92.786	-84.125	0.134	0.042
-91.772	89.862	0.113	0.124
-90.757	-71.165	0.258	0.095
-89.743	-11.478	0.097	-0.063
-88.728	-200.000	-0.011	0.190
-87.713	-117.185	0.308	0.055
-86.699	398.964	0.204	0.418
-85.684	342.298	-0.014	0.027
-84.670	800.000	0.075	0.270
-83.655	128.248	0.244	0.304
-82.640	249.736	-0.212	0.352
-81.626	-85.638	0.105	0.032
-80.611	-104.207	0.144	-0.033
-79.597	-85.388	0.134	-0.041
-78.582	682.624	0.036	-0.093
-77.567	800.000	-0.050	-0.167
-76.553	-200.000	0.067	-0.412
-75.538	-200.000	-0.025	-0.204
-74.524	260.288	-0.069	-0.116
-73.509	131.634	0.176	0.222
-72.494	45.123	0.007	0.007
-71.480	3.045	0.169	0.120
-70.465	5.576	-0.162	0.117
-69.451	800.000	-0.079	0.333
-68.436	-17.817	0.050	-0.031
-67.422	72.156	0.116	0.119
-66.407	249.435	-0.080	-0.133
-65.392	718.721	0.038	0.100
-64.378	-62.679	-0.402	0.163
-63.363	43.254	-0.291	0.260
-62.349	-29.746	0.123	-0.069
-61.334	96.821	-0.914	-1.026
-60.319	458.497	0.364	0.792
-59.305	-200.000	-0.252	-1.235
-58.290	309.628	0.729	1.336
-57.276	546.630	0.702	1.646
-56.261	-200.000	112.884	646.856
-55.246	477.949	1500.073	3324.913
-54.232	147.383	2671.986	3523.287
-53.217	98.408	2285.273	2579.216
-52.203	37.040	1897.928	1644.609
-51.188	31.086	1688.344	1417.854
-50.173	28.550	1646.685	1363.985
-49.159	50.647	1700.839	1576.127
-48.144	49.454	1715.426	1580.599
-47.130	30.697	1673.867	1402.539
-46.115	28.024	1660.168	1370.987
-45.100	27.903	1654.519	1365.368
-44.086	27.757	1651.904	1362.063
-43.071	27.758	1649.121	1359.723
-42.057	27.766	1646.926	1357.922
-41.042	27.800	1645.318	1356.789
-40.027	27.813	1643.149	1355.046
-39.013	27.799	1640.717	1352.879
-37.998	27.850	1639.313	1352.045
-36.984	27.829	1638.032	1350.785
-35.969	27.903	1636.908	1350.347
-34.954	27.943	1635.176	1349.167
-33.940	27.875	1633.132	1346.924
-32.925	27.868	1631.561	1345.522
-31.911	27.876	1629.760	1344.044
-30.896	27.953	1627.963	1343.069
-29.881	27.891	1626.511	1341.367
-28.867	27.944	1624.715	1340.221
-27.852	27.915	1623.306	1338.791
-26.838	27.851	1622.250	1337.395
-25.823	27.913	1620.798	1336.599
-24.809	27.888	1619.487	1335.286
-23.794	27.985	1617.817	1334.563
-22.779	28.009	1616.428	1333.541
-21.765	27.937	1614.800	1331.620
-20.750	27.875	1613.438	1329.993
-19.736	27.974	1612.221	1329.654
-18.721	27.991	1610.643	1328.426
-17.706	28.008	1608.881	1327.045
-16.692	28.045	1607.264	1325.923
-15.677	27.981	1606.344	1324.651
-14.663	28.075	1605.309	1324.421
-13.648	28.039	1603.744	1322.818
-12.633	27.898	1602.523	1320.739
-11.619	27.966	1600.480	1319.494
-10.604	28.013	1598.780	1318.381
-9.590	27.956	1598.178	1317.424
-8.575	28.071	1596.613	1316.907
-7.560	28.037	1595.433	1315.640
-6.546	28.008	1594.729	1314.796
-5.531	27.944	1593.497	1313.269
-4.517	27.991	1592.252	1312.525
-3.502	28.024	1591.017	1311.697
-2.487	28.114	1589.032	1310.647
-1.473	27.589	1577.572	1297.408
-0.458	24.437	1557.507	1258.665
0.556	18.899	1556.999	1223.230
1.571	16.199	1580.032	1221.696
2.586	15.782	1591.936	1227.745
3.600	14.573	1540.011	1179.057
4.615	8.244	1432.948	1055.254
5.629	1.503	1371.039	966.806
6.644	0.240	1363.107	953.144
7.659	0.150	1361.618	951.449
8.673	0.084	1360.807	950.378
9.688	0.026	1359.121	948.752
10.702	-0.080	1355.620	945.559
11.717	3.185	1360.583	969.529
12.731	10.888	1372.400	1026.666
13.746	16.499	1379.998	1067.788
14.761	17.198	1380.209	1072.273
15.775	16.241	1377.932	1064.373
16.790	15.240	1375.356	1055.988
17.804	14.523	1372.394	1049.111
18.819	14.116	1371.380	1045.683
19.834	13.904	1370.171	1043.340
20.848	13.671	1369.021	1040.908
21.863	13.385	1367.615	1037.951
22.877	13.291	1366.248	1036.235
23.892	13.230	1365.523	1035.211
24.907	13.172	1364.816	1034.220
25.921	13.191	1364.005	1033.632
26.936	13.245	1363.043	1033.152
27.950	13.271	1362.176	1032.565
28.965	13.349	1361.174	1032.198
29.980	13.350	1360.075	1031.280
30.994	13.477	1358.977	1031.145
32.009	13.499	1358.066	1030.505
33.023	13.501	1356.947	1029.577
34.038	13.390	1355.948	1028.033
35.053	13.375	1354.712	1026.916
36.067	13.345	1353.521	1025.735
37.082	13.294	1353.064	1024.981
38.096	13.448	1352.033	1025.064
39.111	13.333	1351.802	1024.088
40.126	13.244	1350.744	1022.645
41.140	13.265	1349.690	1021.885
42.155	13.191	1349.549	1021.227
43.169	13.178	1349.613	1021.106
44.184	13.165	1348.821	1020.336
45.199	13.123	1348.349	1019.633
46.213	13.263	1347.567	1019.812
47.228	13.310	1346.857	1019.473
48.242	13.304	1345.748	1018.509
49.257	13.325	1344.068	1017.276
50.271	13.314	1342.465	1015.902
51.286	13.317	1341.214	1014.889
52.301	13.263	1340.300	1013.772
53.315	13.227	1339.062	1012.530
54.330	13.319	1337.744	1012.003
55.344	13.233	1336.790	1010.667
56.359	13.190	1335.733	1009.515
57.374	13.072	1335.586	1008.593
58.388	13.116	1334.361	1007.849
59.403	13.184	1333.937	1007.855
60.417	13.227	1332.883	1007.230
61.432	13.167	1332.096	1006.181
62.447	13.165	1331.289	1005.472
63.461	13.037	1330.044	1003.663
64.476	13.091	1328.981	1003.099
65.490	13.005	1327.553	1001.412
66.505	13.077	1326.347	1000.849
67.520	13.165	1324.791	1000.122
68.534	13.144	1323.606	999.013
69.549	13.202	1322.394	998.355
70.563	13.175	1321.389	997.345
71.578	13.147	1320.165	996.167
72.593	13.066	1319.367	994.988
73.607	13.056	1318.676	994.318
74.622	13.118	1317.338	993.594
75.636	13.035	1317.215	992.913
76.651	13.027	1316.559	992.286
77.666	12.993	1316.166	991.695
78.680	13.064	1315.515	991.546
79.695	13.106	1314.263	990.762
80.709	13.063	1313.964	990.194
81.724	13.114	1313.125	989.777
82.739	13.184	1312.431	989.590
83.753	13.270	1311.416	989.250
84.768	13.245	1310.437	988.272
85.782	13.325	1308.944	987.541
86.797	13.375	1307.424	986.602
87.812	13.277	1306.364	985.135
88.826	13.296	1305.314	984.368
89.841	13.175	1304.511	982.954
90.855	13.304	1303.122	982.589
91.870	13.343	1302.814	982.502
92.884	13.352	1301.821	981.718
93.899	13.414	1301.038	981.405
94.914	13.442	1299.965	980.674
95.928	13.417	1299.558	980.136
96.943	13.373	1298.817	979.228
97.957	13.300	1297.652	977.829
98.972	13.270	1296.638	976.802
99.987	13.438	1295.218	976.642
101.001	13.400	1294.479	975.770
102.016	13.282	1294.082	974.689
103.030	13.248	1293.012	973.596
104.045	13.343	1291.945	973.270
105.060	13.302	1290.679	971.986
106.074	13.272	1289.408	970.770
107.089	13.149	1287.958	968.867
108.103	13.165	1286.859	968.049
109.118	13.230	1285.375	967.231
110.133	13.173	1284.128	965.869
111.147	13.110	1283.078	964.629
112.162	13.307	1281.498	964.504
113.176	13.244	1280.879	963.586
114.191	13.288	1279.723	962.886
115.206	13.337	1278.461	962.139
116.220	13.364	1276.772	960.940
117.235	13.192	1276.136	959.378
118.249	13.244	1275.057	958.779
119.264	13.231	1273.603	957.527
120.279	13.218	1273.127	957.009
121.293	13.161	1272.524	956.142
122.308	13.188	1271.293	955.291
123.322	13.261	1269.783	954.492
124.337	13.216	1268.995	953.554
125.352	13.187	1268.034	952.579
126.366	13.122	1267.064	951.395
127.381	13.196	1265.701	950.711
128.395	13.181	1265.045	950.047
129.410	13.250	1264.142	949.686
130.424	13.191	1263.375	948.686
131.439	13.175	1262.758	948.047
132.454	13.276	1261.152	947.332
133.468	13.361	1260.049	946.909
134.483	13.259	1259.855	946.093
135.497	13.243	1258.498	944.899
136.512	13.256	1257.483	944.129
137.527	13.288	1256.158	943.232
138.541	13.303	1254.403	941.916
139.556	13.370	1252.918	941.100
140.570	13.282	1252.672	940.332
141.585	13.385	1251.218	939.742
142.600	13.443	1249.715	938.860
143.614	13.431	1248.758	937.988
144.629	13.427	1248.307	937.544
145.643	13.456	1247.095	936.713
146.658	13.431	1245.686	935.435
147.673	13.374	1244.644	934.247
148.687	13.284	1243.353	932.690
149.702	13.401	1241.639	931.976
150.716	13.306	1240.523	930.522
151.731	13.373	1239.096	929.747
152.746	13.358	1238.211	928.916
153.760	13.488	1236.698	928.425
154.775	13.587	1235.727	928.170
155.789	13.437	1234.672	926.460
156.804	13.478	1233.914	926.036
157.819	13.493	1233.542	925.758
158.833	13.597	1231.988	925.088
159.848	13.716	1230.739	924.737
160.862	13.527	1230.233	923.221
161.877	13.501	1229.055	922.108
162.892	13.550	1227.784	921.347
163.906	13.421	1227.191	920.103
164.921	13.470	1225.993	919.394
165.935	13.569	1225.438	919.447
166.950	13.537	1225.163	918.980
167.964	13.601	1223.956	918.353
168.979	13.602	1223.694	918.079
169.994	13.458	1222.734	916.482
171.008	13.590	1221.756	916.396
172.023	13.626	1221.178	916.080
173.037	13.699	1219.953	915.482
174.052	13.710	1219.204	914.902
175.067	13.670	1218.184	913.834
176.081	13.600	1217.223	912.648
177.096	13.502	1216.718	911.650
178.110	13.601	1215.190	910.968
179.125	13.696	1213.811	910.376
180.140	13.726	1212.391	909.394
181.154	13.772	1211.381	908.808
182.169	13.712	1210.040	907.394
183.183	13.898	1209.053	907.590
184.198	13.809	1207.965	906.206
185.213	13.814	1207.028	905.451
186.227	13.772	1206.339	904.621
187.242	13.904	1205.151	904.371
188.256	13.873	1204.193	903.403
189.271	13.915	1203.111	902.743
190.286	13.736	1202.049	900.894
191.300	13.713	1201.264	900.098
192.315	13.708	1200.680	899.552
193.329	13.746	1199.695	898.942
194.344	13.728	1199.251	898.435
195.359	13.790	1198.506	898.129
196.373	13.833	1198.121	897.996
197.388	13.895	1197.911	898.094
198.402	13.920	1197.445	897.800
199.417	14.049	1196.698	897.859
200.432	14.064	1195.760	897.154
201.446	14.054	1194.644	896.185
202.461	14.130	1194.271	896.234
203.475	14.126	1192.692	894.952
204.490	14.111	1191.324	893.766
205.504	14.129	1190.112	892.872
206.519	14.049	1189.362	891.802
207.534	13.999	1188.303	890.661
208.548	14.023	1187.525	890.129
209.563	14.024	1186.679	889.420
210.577	14.108	1185.613	888.987
211.592	14.116	1185.001	888.496
212.607	14.166	1183.636	887.659
213.621	14.198	1183.157	887.391
214.636	14.185	1182.013	886.387
215.650	14.254	1181.089	885.981
216.665	14.264	1180.430	885.461
217.680	14.287	1179.427	884.756
218.694	14.329	1178.686	884.343
219.709	14.386	1178.018	884.066
220.723	14.391	1177.246	883.436
221.738	14.278	1176.765	882.396
222.753	14.306	1175.806	881.752
223.767	14.310	1175.585	881.528
224.782	14.416	1174.533	881.221
225.796	14.333	1173.930	880.252
226.811	14.408	1173.555	880.288
227.826	14.409	1172.653	879.538
228.840	14.435	1171.679	878.867
229.855	14.440	1170.824	878.176
230.869	14.450	1170.127	877.629
231.884	14.434	1169.046	876.654
232.899	14.310	1168.709	875.674
233.913	14.371	1167.882	875.294
234.928	14.386	1166.945	874.596
235.942	14.376	1166.338	874.010
236.957	14.320	1165.622	873.105
237.972	14.345	1165.078	872.749
238.986	14.476	1164.460	872.894
240.001	14.394	1163.707	871.825
241.015	14.414	1162.568	871.000
242.030	14.464	1161.581	870.444
243.045	14.599	1160.465	870.231
244.059	14.546	1160.690	870.051
245.074	14.468	1159.614	868.760
246.088	14.559	1158.482	868.310
247.103	14.658	1157.359	867.904
248.117	14.640	1157.082	867.527
249.132	14.675	1156.859	867.463
250.147	14.881	1155.592	867.507
251.161	14.905	1154.853	866.998
252.176	14.872	1154.255	866.300
253.190	14.931	1153.533	865.988
254.205	14.865	1153.285	865.382
255.220	14.986	1152.827	865.588
256.234	14.892	1152.253	864.596
257.249	14.826	1151.549	863.649
258.263	14.852	1150.773	863.126
259.278	14.923	1149.986	862.826
260.293	15.034	1149.268	862.785
261.307	14.920	1149.001	861.919
262.322	15.015	1148.472	861.934
263.336	14.964	1147.505	860.870
264.351	15.143	1146.960	861.308
265.366	15.069	1146.847	860.762
266.380	15.138	1145.777	860.239
267.395	15.028	1144.754	858.830
268.409	15.036	1144.162	858.350
269.424	15.011	1143.552	857.689
270.439	15.047	1143.191	857.529
271.453	15.114	1142.105	856.979
272.468	15.164	1140.852	856.222
273.482	15.067	1140.502	855.385
274.497	15.079	1140.023	855.014
275.512	15.025	1139.311	854.124
276.526	15.193	1138.202	854.074
277.541	15.116	1137.452	853.047
278.555	15.167	1136.807	852.746
279.570	15.201	1136.485	852.600
280.585	15.239	1135.615	852.066
281.599	15.289	1134.583	851.472
282.614	15.304	1133.531	850.683
283.628	15.271	1132.216	849.456
284.643	15.220	1131.477	848.568
285.657	15.264	1131.128	848.450
286.672	15.238	1129.905	847.326
287.687	15.311	1129.295	847.164
288.701	15.360	1128.302	846.591
289.716	15.396	1127.194	845.868
290.730	15.459	1126.664	845.713
291.745	15.471	1125.931	845.148
292.760	15.403	1125.281	844.243
293.774	15.464	1124.752	844.079
294.789	15.494	1124.313	843.826
295.803	15.562	1123.379	843.392
296.818	15.541	1122.610	842.635
297.833	15.412	1122.171	841.580
298.847	15.428	1121.608	841.166
299.862	15.447	1120.654	840.471
300.876	15.537	1119.900	840.282
301.891	15.614	1119.222	840.082
302.906	15.643	1118.185	839.375
303.920	15.589	1118.120	838.984
304.935	15.701	1117.071	838.679
305.949	15.703	1116.501	838.189
306.964	15.692	1115.971	837.663
307.979	15.712	1115.108	837.037
308.993	15.661	1114.266	836.079
310.008	15.773	1113.647	836.097
311.022	15.694	1112.735	834.943
312.037	15.725	1111.558	834.145
313.052	15.757	1110.790	833.648
314.066	15.722	1109.987	832.802
315.081	15.728	1109.277	832.223
316.095	15.726	1108.427	831.503
317.110	15.729	1107.841	831.006
318.125	15.711	1107.078	830.269
319.139	15.655	1106.750	829.675
320.154	15.616	1106.127	828.943
321.168	15.646	1105.659	828.664
322.183	15.753	1104.668	828.379
323.197	15.810	1104.014	828.093
324.212	15.793	1103.470	827.529
325.227	15.742	1103.160	826.972
326.241	15.743	1102.318	826.270
327.256	15.818	1101.265	825.777
328.270	15.776	1100.272	824.754
329.285	15.814	1099.817	824.527
330.300	15.874	1098.568	823.809
331.314	15.825	1097.572	822.752
332.329	15.777	1096.865	821.916
333.343	15.973	1095.947	822.108
334.358	15.994	1095.296	821.651
335.373	15.856	1094.560	820.352
336.387	15.992	1093.704	820.300
337.402	15.914	1093.429	819.646
338.416	16.050	1092.503	819.537
339.431	16.135	1092.081	819.563
340.446	16.063	1091.079	818.389
341.460	16.081	1090.529	817.990
342.475	16.262	1089.564	818.070
343.489	16.139	1088.824	816.847
344.504	16.166	1088.212	816.448
345.519	16.237	1087.247	815.994
346.533	16.301	1086.518	815.684
347.548	16.361	1085.490	815.130
348.562	16.335	1084.764	814.389
349.577	16.245	1084.168	813.433
350.592	16.193	1083.151	812.348
351.606	16.126	1082.476	811.450
352.621	16.232	1081.739	811.336
353.635	16.232	1080.926	810.651
354.650	16.158	1080.723	810.073
355.665	16.128	1080.113	809.400
356.679	16.327	1078.706	809.226
357.694	16.352	1078.589	809.189
358.708	16.446	1077.634	808.848
359.723	16.403	1077.532	808.498
360.738	16.392	1076.755	807.789
361.752	16.361	1076.412	807.312
362.767	16.513	1075.558	807.327
363.781	16.423	1074.887	806.322
364.796	16.422	1074.412	805.889
365.810	16.488	1073.944	805.780
366.825	16.548	1073.202	805.441
367.840	16.525	1072.938	805.059
368.854	16.554	1072.641	804.903
369.869	16.509	1071.201	803.537
370.883	16.500	1070.502	802.900
371.898	16.565	1069.550	802.423
372.913	16.512	1069.292	801.907
373.927	16.563	1068.665	801.608
374.942	16.705	1068.137	801.815
375.956	16.719	1067.737	801.507
376.971	16.738	1066.944	800.932
377.986	16.745	1066.402	800.486
379.000	16.795	1065.945	800.308
380.015	16.737	1065.395	799.553
381.029	16.798	1064.752	799.287
382.044	16.942	1063.728	799.124
383.059	16.911	1063.117	798.450
384.073	16.807	1062.502	797.428
385.088	16.940	1061.044	796.889
386.102	16.869	1060.392	795.997
387.117	16.877	1059.562	795.338
388.132	16.767	1058.582	794.019
389.146	16.791	1058.122	793.715
390.161	16.828	1057.014	792.987
391.175	16.908	1056.549	792.943
392.190	16.809	1056.092	792.066
393.205	17.067	1055.131	792.480
394.219	16.844	1054.614	790.980
395.234	17.033	1053.322	790.824
396.248	17.010	1052.228	789.822
397.263	16.982	1051.418	789.016
398.278	16.897	1050.957	788.203
399.292	16.875	1050.389	787.605
400.307	16.835	1049.644	786.793
401.321	17.000	1048.604	786.711
402.336	16.885	1048.176	785.783
403.350	16.925	1047.676	785.524
404.365	16.899	1047.296	785.052
405.380	16.965	1045.951	784.280
406.394	17.076	1044.972	783.990
407.409	17.029	1044.752	783.538
408.423	17.084	1044.408	783.462
409.438	17.151	1043.299	782.871
410.453	17.203	1042.810	782.673
411.467	17.266	1042.043	782.319
412.482	17.268	1041.308	781.707
413.496	17.249	1040.538	780.971
414.511	17.240	1039.807	780.313
415.526	17.287	1039.714	780.391
416.540	17.382	1039.234	780.396
417.555	17.319	1038.482	779.474
418.569	17.488	1037.660	779.564
419.584	17.518	1037.470	779.489
420.599	17.319	1036.994	778.152
421.613	104.617	1325.050	1475.473
422.628	95.905	1366.981	1475.562
