DTS Sentinel unit serial number:	SN413079Multiplexer serial number:	ORYXHardware model number:	OX4-SRSoftware version number:	ORYX F/W v4.00 Oryx Data Collector v3.7.2.0data status	okinstallation	princeton_trtdifferential loss correction	single-endedforward channel	channel 2reverse channel	N/Adate	2019/09/14time	16:15:35forward acquisition time	60.00reverse acquisition time	0.00gamma	496.2192k internal	0.2307k external	0.2307temperature offset calibration	1.0133default loss term (dB/km)	0.3790temperature slope calibration	1.0000multiplexer offset coefficient	1.0000multiplexer slope coefficient	1.0000fibre end	0.00T internal ref (°C)	38.25T ext. ref 1 (°C)	5.08T ext. ref 2 (°C)	32.86length (m)	temperature (°C)	Stokes	anti-Stokes-747.200	800.000	-0.040	-0.119
-746.185	-200.000	-0.015	0.526
-745.171	800.000	-0.038	0.161
-744.156	0.709	0.153	-0.112
-743.142	-200.000	0.026	-0.213
-742.127	339.608	-0.158	0.313
-741.112	17.984	-0.322	-0.261
-740.098	62.707	-0.105	0.106
-739.083	296.068	-0.215	0.401
-738.069	-57.591	0.129	0.057
-737.054	189.927	0.111	-0.170
-736.039	199.072	-0.258	-0.401
-735.025	-80.014	0.396	-0.135
-734.010	-133.571	-0.335	0.043
-732.996	19.113	-0.261	-0.213
-731.981	-92.037	-0.179	0.051
-730.966	-200.000	-0.001	0.087
-729.952	40.276	0.127	-0.116
-728.937	-110.614	0.048	-0.010
-727.923	-14.582	-0.027	0.017
-726.908	0.247	-0.175	-0.127
-725.894	-200.000	-0.026	0.461
-724.879	-84.050	-0.141	0.045
-723.864	-200.000	0.032	0.179
-722.850	800.000	0.060	-0.205
-721.835	280.145	0.073	-0.133
-720.821	-39.644	0.207	0.110
-719.806	146.020	-0.089	-0.121
-718.791	158.320	-0.060	0.085
-717.777	-200.000	-0.041	0.300
-716.762	21.827	0.158	0.131
-715.748	-200.000	0.033	-0.203
-714.733	-72.716	-0.324	0.121
-713.718	-200.000	-0.036	0.272
-712.704	-200.000	-0.090	0.450
-711.689	-87.801	0.344	0.105
-710.675	-200.000	-0.013	-0.073
-709.660	27.676	-0.065	-0.055
-708.645	353.182	0.084	-0.169
-707.631	-39.724	-0.135	0.072
-706.616	-146.261	-0.229	0.020
-705.602	-200.000	-0.043	0.312
-704.587	34.128	0.201	-0.178
-703.572	120.283	0.045	-0.056
-702.558	-9.772	-0.279	0.189
-701.543	357.492	-0.095	0.192
-700.529	60.968	-0.201	-0.203
-699.514	-200.000	0.009	0.216
-698.499	-200.000	0.008	0.042
-697.485	23.393	0.070	0.059
-696.470	106.566	0.137	0.165
-695.456	-80.228	0.096	0.033
-694.441	29.744	0.060	0.052
-693.426	-128.900	-0.113	0.016
-692.412	800.000	0.075	-0.213
-691.397	2.094	0.265	0.194
-690.383	-200.000	0.054	-0.406
-689.368	-200.000	-0.042	-0.329
-688.354	800.000	0.006	0.017
-687.339	-200.000	0.010	0.149
-686.324	255.188	0.071	0.123
-685.310	-96.653	0.208	0.056
-684.295	-154.637	0.129	0.009
-683.281	42.775	0.033	0.030
-682.266	-58.523	-0.102	-0.045
-681.251	-102.201	0.473	0.115
-680.237	-200.000	-0.011	-0.103
-679.222	-200.000	0.072	0.335
-678.208	-9.794	0.124	0.083
-677.193	800.000	0.003	0.007
-676.178	800.000	-0.046	0.131
-675.164	-76.154	0.258	0.092
-674.149	55.258	0.071	-0.069
-673.135	560.954	0.032	0.077
-672.120	-76.712	-0.018	-0.007
-671.105	43.895	-0.180	0.167
-670.091	-6.437	-0.122	0.084
-669.076	48.534	0.206	-0.196
-668.062	800.000	0.060	0.183
-667.047	-173.677	-0.316	-0.010
-666.032	-4.273	-0.129	-0.090
-665.018	100.360	0.242	0.284
-664.003	-200.000	0.072	-0.354
-662.989	-200.000	-0.027	-0.395
-661.974	-21.362	0.310	-0.192
-660.959	371.607	-0.175	-0.360
-659.945	-43.251	-0.230	-0.118
-658.930	-92.849	-0.229	-0.065
-657.916	-92.638	-0.208	0.059
-656.901	-200.000	0.040	0.325
-655.886	624.586	-0.130	-0.331
-654.872	283.148	-0.204	-0.371
-653.857	43.388	0.209	0.194
-652.843	-200.000	0.015	0.071
-651.828	-67.478	0.173	-0.069
-650.814	-8.319	0.306	-0.208
-649.799	119.114	0.034	0.043
-648.784	23.225	-0.198	0.165
-647.770	313.325	-0.050	0.095
-646.755	800.000	-0.120	0.441
-645.741	55.421	0.140	0.137
-644.726	800.000	-0.012	-0.053
-643.711	164.545	-0.062	-0.088
-642.697	38.593	0.214	-0.193
-641.682	-68.244	-0.233	0.092
-640.668	-31.325	-0.286	-0.163
-639.653	-200.000	0.030	-0.190
-638.638	27.094	-0.179	0.152
-637.624	178.550	-0.098	0.145
-636.609	-42.807	-0.180	-0.092
-635.595	-87.479	-0.070	0.021
-634.580	58.758	-0.121	0.121
-633.565	-36.249	-0.362	-0.198
-632.551	160.041	0.168	-0.238
-631.536	62.969	0.069	0.070
-630.522	238.117	-0.016	0.027
-629.507	321.617	0.064	0.124
-628.492	22.096	0.165	0.136
-627.478	137.019	0.123	-0.162
-626.463	-120.670	-0.226	-0.039
-625.449	-62.148	0.238	-0.101
-624.434	135.166	0.181	-0.238
-623.419	353.131	-0.160	-0.321
-622.405	243.678	-0.101	-0.171
-621.390	747.618	0.051	-0.138
-620.376	-90.196	-0.250	0.074
-619.361	-20.534	-0.127	0.079
-618.346	-200.000	-0.002	-0.139
-617.332	-176.003	-0.173	-0.005
-616.317	-200.000	-0.020	0.221
-615.303	-200.000	-0.057	0.255
-614.288	-79.887	-0.116	-0.040
-613.273	-113.342	0.207	-0.041
-612.259	-104.078	-0.086	-0.020
-611.244	-127.798	-0.247	-0.036
-610.230	87.595	0.058	0.065
-609.215	800.000	-0.058	-0.166
-608.201	19.531	-0.140	-0.114
-607.186	54.825	-0.115	0.113
-606.171	102.321	0.220	0.260
-605.157	800.000	0.046	-0.143
-604.142	-21.505	0.142	0.087
-603.128	-126.227	0.162	0.024
-602.113	-200.000	-0.008	0.070
-601.098	-200.000	0.042	-0.201
-600.084	-43.094	-0.299	0.153
-599.069	-125.845	0.192	0.029
-598.055	-160.157	-0.155	0.009
-597.040	-168.583	-0.217	-0.008
-596.025	64.050	-0.166	-0.168
-595.011	-70.093	-0.193	0.074
-593.996	-90.495	-0.155	-0.045
-592.982	-57.576	-0.144	-0.064
-591.967	373.269	0.065	0.133
-590.952	-180.150	0.120	-0.003
-589.938	158.641	0.361	-0.507
-588.923	100.067	-0.351	-0.411
-587.909	-200.000	-0.038	-0.194
-586.894	800.000	-0.054	-0.175
-585.879	-200.000	0.008	0.126
-584.865	72.700	0.095	-0.100
-583.850	-9.510	-0.166	0.112
-582.836	-59.855	-0.403	0.174
-581.821	-183.741	0.263	0.005
-580.806	54.694	0.210	-0.205
-579.792	100.698	-0.147	-0.173
-578.777	2.546	0.131	0.096
-577.763	-29.993	0.196	-0.113
-576.748	359.322	0.039	-0.079
-575.733	46.300	0.304	0.285
-574.719	409.029	-0.012	-0.026
-573.704	-183.462	0.114	0.002
-572.690	-70.938	0.258	0.098
-571.675	-200.000	0.028	0.127
-570.661	-200.000	0.045	-0.232
-569.646	-156.694	-0.149	-0.009
-568.631	32.717	-0.194	0.170
-567.617	216.008	-0.124	0.199
-566.602	-62.476	-0.171	-0.072
-565.588	-200.000	-0.033	-0.258
-564.573	-88.442	0.124	0.037
-563.558	20.200	0.078	0.064
-562.544	-60.319	-0.184	0.079
-561.529	-146.365	0.043	-0.004
-560.515	300.267	-0.053	0.098
-559.500	-19.883	0.248	-0.155
-558.485	800.000	0.023	-0.099
-557.471	20.781	0.117	-0.095
-556.456	126.915	0.272	0.349
-555.442	-57.064	-0.083	-0.037
-554.427	-84.990	0.463	0.146
-553.412	336.802	0.111	-0.218
-552.398	-137.223	-0.399	0.046
-551.383	-200.000	-0.000	0.141
-550.369	168.349	-0.103	0.148
-549.354	800.000	0.088	0.376
-548.339	630.937	0.116	0.297
-547.325	-106.560	0.143	0.032
-546.310	-109.966	0.267	0.056
-545.296	-74.945	0.471	0.170
-544.281	-161.164	0.247	0.013
-543.266	-200.000	-0.012	-0.135
-542.252	35.114	0.205	0.181
-541.237	-19.623	-0.244	-0.152
-540.223	223.663	0.208	0.338
-539.208	30.016	0.169	0.146
-538.193	-85.321	0.363	0.114
-537.179	-158.818	-0.163	0.009
-536.164	-38.393	-0.013	-0.007
-535.150	-29.523	-0.205	0.118
-534.135	63.000	-0.349	-0.352
-533.121	-114.107	-0.321	-0.063
-532.106	800.000	-0.067	-0.282
-531.091	24.059	-0.145	-0.121
-530.077	222.531	-0.144	0.234
-529.062	113.965	0.091	0.112
-528.048	-200.000	-0.003	0.217
-527.033	-56.188	0.245	-0.110
-526.018	-171.510	-0.189	0.006
-525.004	-200.000	-0.039	0.196
-523.989	-200.000	-0.009	-0.046
-522.975	322.304	0.090	0.173
-521.960	800.000	0.086	0.257
-520.945	800.000	0.105	0.305
-519.931	497.576	-0.085	-0.198
-518.916	-200.000	-0.013	0.123
-517.902	-121.309	-0.395	-0.066
-516.887	-150.621	-0.128	0.010
-515.872	-50.773	-0.169	-0.080
-514.858	800.000	0.113	-0.380
-513.843	-200.000	-0.017	0.175
-512.829	41.974	-0.206	0.189
-511.814	-104.955	0.265	-0.061
-510.799	58.516	0.155	-0.153
-509.785	-2.256	0.072	0.051
-508.770	16.069	0.304	0.241
-507.756	17.648	0.247	-0.198
-506.741	-0.201	0.210	-0.151
-505.726	-5.611	-0.178	0.123
-504.712	655.405	-0.048	0.124
-503.697	282.466	-0.110	-0.198
-502.683	-106.390	0.021	0.005
-501.668	-24.150	-0.289	-0.174
-500.653	-58.925	-0.346	0.150
-499.639	-200.000	-0.034	-0.191
-498.624	-81.468	0.145	-0.048
-497.610	2.992	-0.226	-0.165
-496.595	800.000	-0.041	0.134
-495.581	-54.224	-0.212	-0.097
-494.566	14.841	0.251	-0.198
-493.551	-113.965	-0.142	-0.028
-492.537	139.282	0.114	0.151
-491.522	800.000	-0.033	-0.122
-490.508	3.248	-0.162	-0.119
-489.493	124.214	0.137	-0.173
-488.478	492.775	0.189	-0.435
-487.464	79.132	-0.086	0.093
-486.449	58.283	0.289	-0.285
-485.435	295.042	-0.111	0.204
-484.420	-89.927	0.142	0.042
-483.405	-200.000	0.034	-0.393
-482.391	86.524	0.071	0.078
-481.376	-200.000	0.051	0.291
-480.362	-200.000	-0.078	-0.394
-479.347	-38.165	-0.194	0.104
-478.332	-176.043	-0.209	0.006
-477.318	-200.000	-0.086	-0.599
-476.303	2.719	-0.147	0.107
-475.289	-200.000	-0.021	0.238
-474.274	-63.211	-0.168	-0.069
-473.259	-91.447	0.175	0.050
-472.245	51.556	-0.140	0.134
-471.230	-200.000	0.087	0.523
-470.216	-122.862	0.222	0.036
-469.201	-200.000	0.060	-0.329
-468.186	-67.689	0.287	0.113
-467.172	-119.415	-0.178	-0.031
-466.157	-111.167	0.161	0.033
-465.143	422.351	-0.128	-0.276
-464.128	-145.534	-0.298	-0.027
-463.113	90.705	-0.055	0.062
-462.099	340.169	0.128	0.251
-461.084	800.000	-0.076	-0.234
-460.070	-84.854	-0.375	0.118
-459.055	-70.381	0.346	-0.132
-458.040	-99.809	0.130	0.033
-457.026	-108.480	-0.218	0.047
-456.011	-90.992	0.077	0.022
-454.997	-113.540	0.297	-0.058
-453.982	-13.576	-0.211	0.137
-452.968	774.865	0.021	-0.058
-451.953	130.468	-0.157	-0.202
-450.938	-111.019	0.329	-0.068
-449.924	120.615	-0.112	0.140
-448.909	-118.503	0.169	0.030
-447.895	-200.000	0.038	0.242
-446.880	83.331	0.107	0.117
-445.865	-58.696	0.210	0.092
-444.851	455.458	-0.117	-0.261
-443.836	800.000	-0.114	-0.392
-442.822	-200.000	0.060	0.355
-441.807	800.000	0.018	0.050
-440.792	800.000	-0.016	0.055
-439.778	800.000	0.081	-0.239
-438.763	157.136	0.143	-0.199
-437.749	497.855	0.084	0.194
-436.734	-45.957	0.200	-0.099
-435.719	36.497	-0.194	0.172
-434.705	-141.644	-0.182	-0.018
-433.690	-61.465	0.138	0.058
-432.676	80.089	-0.306	0.331
-431.661	40.321	-0.017	0.016
-430.646	179.416	-0.173	0.254
-429.632	-200.000	0.017	0.300
-428.617	19.476	-0.298	-0.241
-427.603	167.005	-0.057	-0.081
-426.588	-144.783	0.063	-0.006
-425.573	-200.000	-0.032	0.217
-424.559	260.569	-0.145	-0.252
-423.544	477.948	0.066	0.151
-422.530	-172.643	0.245	-0.008
-421.515	-200.000	0.000	0.043
-420.500	-6.142	0.171	0.117
-419.486	-4.938	-0.204	0.141
-418.471	17.495	-0.245	0.195
-417.457	-200.000	-0.011	0.058
-416.442	-200.000	-0.015	-0.110
-415.428	-200.000	-0.018	-0.094
-414.413	-80.055	-0.197	-0.066
-413.398	-200.000	0.016	0.212
-412.384	43.906	0.177	-0.163
-411.369	-111.181	0.006	0.001
-410.355	17.969	-0.090	0.072
-409.340	539.437	-0.036	0.087
-408.325	126.376	-0.171	-0.218
-407.311	280.134	-0.210	-0.377
-406.296	-81.500	0.104	-0.034
-405.282	-85.149	0.309	-0.097
-404.267	-124.235	-0.460	0.072
-403.252	-107.180	-0.070	-0.016
-402.238	21.030	0.281	0.228
-401.223	766.877	0.083	-0.227
-400.209	-118.937	0.141	0.025
-399.194	18.030	0.082	-0.065
-398.179	-200.000	-0.001	-0.198
-397.165	-114.526	-0.213	-0.041
-396.150	-111.432	0.318	0.065
-395.136	-76.237	0.118	0.042
-394.121	5.423	0.089	-0.066
-393.106	-200.000	-0.061	-0.347
-392.092	-118.868	0.381	0.067
-391.077	-145.488	-0.313	0.028
-390.063	42.373	0.359	0.327
-389.048	-154.134	0.084	0.006
-388.033	-200.000	-0.188	-0.000
-387.019	-129.721	-0.034	0.005
-386.004	250.923	0.029	-0.049
-384.990	25.706	-0.051	-0.042
-383.975	17.427	-0.471	-0.375
-382.960	-93.102	-0.420	-0.117
-381.946	180.690	0.024	0.035
-380.931	-136.458	0.132	-0.015
-379.917	91.180	-0.069	0.078
-378.902	105.692	-0.114	-0.135
-377.888	310.434	-0.084	-0.157
-376.873	18.120	-0.039	0.031
-375.858	379.210	0.023	-0.048
-374.844	-105.157	-0.109	0.025
-373.829	-48.162	0.381	0.184
-372.815	-200.000	0.018	-0.152
-371.800	-125.941	-0.122	0.018
-370.785	144.307	-0.078	-0.104
-369.771	476.101	-0.056	0.126
-368.756	-112.559	-0.060	0.012
-367.742	528.425	-0.013	0.031
-366.727	134.164	-0.195	0.254
-365.712	-117.002	0.152	0.028
-364.698	-89.223	-0.212	-0.063
-363.683	-89.400	0.411	-0.121
-362.669	7.235	0.156	-0.116
-361.654	-200.000	-0.046	-0.379
-360.639	-200.000	-0.001	-0.014
-359.625	-63.834	0.321	0.132
-358.610	-111.321	0.174	0.036
-357.596	168.251	-0.092	-0.131
-356.581	451.953	-0.037	-0.083
-355.566	291.970	0.038	-0.070
-354.552	46.641	0.164	-0.152
-353.537	-128.417	-0.232	0.033
-352.523	800.000	-0.031	-0.090
-351.508	-8.374	-0.057	-0.038
-350.493	800.000	-0.177	0.500
-349.479	143.385	0.158	0.210
-348.464	746.965	-0.052	0.141
-347.450	-66.282	-0.299	-0.119
-346.435	690.683	-0.041	-0.108
-345.420	14.975	0.297	-0.233
-344.406	37.674	-0.035	-0.031
-343.391	-130.600	0.221	0.030
-342.377	182.514	0.122	0.180
-341.362	61.989	-0.418	0.417
-340.348	-200.000	0.117	0.000
-339.333	217.973	-0.067	0.107
-338.318	800.000	0.057	-0.218
-337.304	85.814	-0.127	-0.139
-336.289	-54.211	0.071	0.032
-335.275	-107.074	0.154	-0.034
-334.260	-58.015	0.224	0.098
-333.245	323.663	-0.129	0.246
-332.231	-116.231	0.388	0.072
-331.216	10.935	0.124	0.095
-330.202	307.300	-0.153	-0.286
-329.187	257.393	-0.088	0.151
-328.172	204.188	0.029	-0.045
-327.158	263.301	-0.183	-0.317
-326.143	800.000	-0.029	-0.087
-325.129	533.511	0.045	0.107
-324.114	-42.664	0.361	0.184
-323.099	-200.000	0.059	-0.380
-322.085	800.000	-0.079	-0.309
-321.070	246.519	0.045	-0.076
-320.056	50.455	0.062	-0.058
-319.041	-200.000	0.079	0.526
-318.026	-78.553	0.262	-0.090
-317.012	-19.134	0.160	0.100
-315.997	-50.495	0.127	0.060
-314.983	-37.923	0.220	-0.117
-313.968	-138.986	-0.277	0.030
-312.953	-200.000	0.002	-0.182
-311.939	89.248	0.101	-0.112
-310.924	-41.823	-0.187	0.096
-309.910	-89.507	-0.135	-0.040
-308.895	-142.828	0.296	-0.029
-307.880	-200.000	-0.015	0.081
-306.866	-200.000	-0.004	0.106
-305.851	-139.771	-0.157	-0.017
-304.837	657.253	0.091	-0.234
-303.822	-5.999	-0.132	0.090
-302.807	6.559	0.071	-0.052
-301.793	-85.758	-0.271	-0.084
-300.778	-200.000	-0.026	-0.177
-299.764	124.513	-0.090	-0.113
-298.749	24.618	-0.263	0.218
-297.735	-200.000	0.037	-0.254
-296.720	-84.523	-0.043	-0.014
-295.705	-120.421	0.115	-0.020
-294.691	-156.755	-0.251	-0.015
-293.676	-200.000	0.055	0.327
-292.662	141.924	0.108	0.142
-291.647	33.247	-0.235	0.204
-290.632	-139.749	0.602	0.064
-289.618	-141.052	0.099	-0.010
-288.603	28.782	-0.010	0.009
-287.589	-91.080	0.295	0.084
-286.574	43.967	-0.162	0.148
-285.559	-200.000	-0.063	-0.349
-284.545	53.095	0.242	0.231
-283.530	-200.000	-0.029	0.281
-282.516	8.518	-0.172	0.129
-281.501	182.139	0.071	-0.104
-280.486	-148.089	-0.038	-0.003
-279.472	45.185	0.078	0.072
-278.457	201.442	-0.192	0.294
-277.443	185.808	0.271	-0.403
-276.428	800.000	-0.022	-0.096
-275.413	800.000	-0.064	-0.217
-274.399	-21.054	-0.164	-0.100
-273.384	-129.891	0.306	-0.042
-272.370	-200.000	0.057	-0.435
-271.355	-29.810	0.206	0.117
-270.340	4.231	0.250	-0.183
-269.326	-75.236	-0.021	0.007
-268.311	67.589	0.117	0.120
-267.297	-200.000	0.010	-0.154
-266.282	453.427	0.207	0.458
-265.267	32.882	-0.179	-0.155
-264.253	24.255	0.208	-0.171
-263.238	-103.445	0.077	0.018
-262.224	259.801	0.112	0.193
-261.209	-103.017	-0.165	-0.039
-260.195	-54.640	-0.298	0.134
-259.180	-166.143	-0.205	-0.009
-258.165	800.000	-0.110	-0.395
-257.151	159.400	-0.238	0.330
-256.136	-19.315	0.290	-0.179
-255.122	800.000	-0.043	-0.165
-254.107	19.805	0.438	-0.352
-253.092	683.534	0.033	0.085
-252.078	-200.000	0.013	0.206
-251.063	-158.449	-0.073	0.004
-250.049	-19.101	-0.277	-0.172
-249.034	-99.239	-0.103	-0.026
-248.019	-138.323	0.061	-0.007
-247.005	227.514	0.178	-0.289
-245.990	-49.674	-0.141	-0.067
-244.976	364.975	0.082	-0.166
-243.961	46.639	-0.018	-0.017
-242.946	-118.251	0.103	-0.018
-241.932	100.842	0.232	0.268
-240.917	800.000	0.023	0.066
-239.903	72.831	0.193	0.201
-238.888	60.896	0.208	-0.205
-237.873	-8.580	-0.133	0.089
-236.859	451.958	0.070	0.155
-235.844	-200.000	0.075	-0.408
-234.830	-200.000	-0.006	-0.370
-233.815	-97.153	-0.083	-0.022
-232.800	-25.390	-0.244	0.144
-231.786	-136.199	0.074	-0.009
-230.771	-200.000	0.057	0.326
-229.757	-82.697	-0.572	0.185
-228.742	132.623	0.159	0.204
-227.727	-81.988	0.008	0.002
-226.713	297.463	0.115	-0.210
-225.698	361.967	0.129	0.259
-224.684	-200.000	-0.026	0.116
-223.669	702.122	0.082	0.214
-222.655	307.837	0.113	0.209
-221.640	800.000	0.075	0.259
-220.625	419.553	0.048	-0.103
-219.611	423.897	-0.106	0.226
-218.596	-3.149	0.055	-0.038
-217.582	-46.398	0.213	-0.104
-216.567	-200.000	-0.005	0.252
-215.552	122.776	0.149	-0.186
-214.538	-98.287	-0.289	0.074
-213.523	800.000	0.061	-0.246
-212.509	499.219	0.030	0.068
-211.494	-197.300	-0.160	0.001
-210.479	41.076	0.225	-0.202
-209.465	-37.829	-0.360	-0.191
-208.450	467.660	0.171	0.383
-207.436	60.868	-0.210	0.207
-206.421	-200.000	-0.015	0.148
-205.406	-48.109	-0.260	-0.125
-204.392	776.347	-0.086	0.233
-203.377	133.615	-0.133	0.171
-202.363	-56.559	-0.257	-0.113
-201.348	747.685	0.086	0.230
-200.333	-200.000	-0.017	0.096
-199.319	287.857	0.092	0.167
-198.304	-87.412	0.256	0.077
-197.290	66.332	-0.072	0.072
-196.275	-30.785	-0.098	0.055
-195.260	-200.000	0.007	-0.090
-194.246	-200.000	0.060	-0.347
-193.231	-149.709	-0.181	0.014
-192.217	-200.000	-0.024	0.135
-191.202	800.000	-0.014	0.040
-190.187	292.936	0.057	0.103
-189.173	502.119	-0.036	-0.084
-188.158	-24.697	-0.157	-0.093
-187.144	29.469	0.304	-0.257
-186.129	-142.983	0.246	-0.024
-185.114	592.669	-0.090	0.221
-184.100	800.000	0.073	-0.278
-183.085	59.786	-0.287	-0.282
-182.071	-169.069	0.210	0.008
-181.056	376.895	-0.023	0.047
-180.042	-99.756	-0.165	0.041
-179.027	800.000	0.065	0.194
-178.012	-200.000	-0.006	0.073
-176.998	-200.000	-0.021	0.195
-175.983	-121.232	-0.347	-0.058
-174.969	-4.189	0.144	-0.099
-173.954	-200.000	-0.008	-0.269
-172.939	-200.000	0.062	0.420
-171.925	800.000	0.093	0.288
-170.910	184.199	-0.190	-0.280
-169.896	50.123	-0.257	0.241
-168.881	-107.715	0.135	0.029
-167.866	492.560	-0.083	-0.188
-166.852	440.743	0.094	0.204
-165.837	133.913	0.204	-0.263
-164.823	-17.914	-0.144	-0.090
-163.808	-63.810	-0.133	-0.054
-162.793	-60.229	0.303	-0.128
-161.779	800.000	0.004	-0.012
-160.764	93.023	-0.029	0.033
-159.750	800.000	0.037	0.139
-158.735	-200.000	0.089	0.455
-157.720	79.202	0.184	0.196
-156.706	-200.000	-0.033	-0.146
-155.691	-95.446	-0.089	-0.024
-154.677	-131.942	0.211	0.027
-153.662	-153.472	-0.188	0.013
-152.647	-200.000	-0.009	-0.128
-151.633	-9.637	-0.087	-0.058
-150.618	52.131	-0.017	-0.016
-149.604	615.722	-0.132	-0.330
-148.589	-200.000	-0.010	0.136
-147.574	103.410	-0.176	-0.205
-146.560	-200.000	-0.003	0.090
-145.545	-59.033	0.021	-0.009
-144.531	-200.000	-0.022	0.127
-143.516	-112.946	0.167	-0.033
-142.502	-32.621	0.221	0.122
-141.487	-200.000	-0.015	0.343
-140.472	-51.152	-0.272	0.127
-139.458	153.401	-0.006	0.008
-138.443	-200.000	-0.095	-0.421
-137.429	436.867	-0.074	0.159
-136.414	32.935	0.264	0.227
-135.399	175.942	0.219	0.316
-134.385	800.000	0.107	0.310
-133.370	-127.214	0.173	-0.025
-132.356	-91.316	0.381	-0.108
-131.341	-47.545	-0.386	0.186
-130.326	-141.202	-0.115	0.012
-129.312	99.194	0.122	0.140
-128.297	-200.000	-0.023	-0.140
-127.283	131.053	-0.138	0.176
-126.268	-94.116	-0.019	-0.005
-125.253	800.000	0.069	-0.202
-124.239	-88.782	-0.220	-0.065
-123.224	692.600	0.110	0.286
-122.210	-86.817	0.264	-0.080
-121.195	554.595	-0.057	0.135
-120.180	-105.636	-0.103	0.023
-119.166	239.153	-0.047	0.078
-118.151	107.319	0.131	0.154
-117.137	-126.287	0.269	-0.040
-116.122	77.030	0.200	-0.211
-115.107	487.119	0.089	-0.202
-114.093	18.152	0.004	0.003
-113.078	800.000	-0.048	0.175
-112.064	800.000	-0.033	-0.095
-111.049	667.509	0.111	-0.284
-110.034	-85.885	0.229	-0.070
-109.020	430.820	0.108	0.231
-108.005	-140.335	0.331	-0.034
-106.991	-200.000	0.025	0.214
-105.976	800.000	0.045	0.141
-104.962	-163.480	-0.228	0.011
-103.947	-86.907	0.119	-0.036
-102.932	207.461	-0.080	-0.123
-101.918	800.000	-0.015	-0.061
-100.903	800.000	0.048	0.183
-99.889	-85.143	-0.225	0.070
-98.874	-200.000	-0.001	0.009
-97.859	704.079	-0.050	-0.131
-96.845	-57.268	-0.119	-0.052
-95.830	123.801	-0.106	0.132
-94.816	-21.706	-0.325	-0.196
-93.801	442.481	0.213	0.463
-92.786	4.724	0.069	0.050
-91.772	-33.496	-0.356	-0.195
-90.757	-75.788	-0.032	-0.011
-89.743	223.596	-0.136	0.218
-88.728	449.533	-0.106	0.231
-87.713	219.170	0.200	0.318
-86.699	-162.904	0.069	0.003
-85.684	25.587	0.146	-0.120
-84.670	248.209	-0.028	0.048
-83.655	51.052	0.073	0.068
-82.640	349.482	-0.110	0.214
-81.626	-200.000	0.040	0.266
-80.611	-200.000	0.060	-0.262
-79.597	303.169	0.073	-0.133
-78.582	289.369	0.173	0.310
-77.567	-170.488	-0.089	0.003
-76.553	603.620	0.116	-0.287
-75.538	-91.085	-0.069	0.020
-74.524	-64.093	-0.216	0.087
-73.509	706.494	0.066	0.172
-72.494	-86.266	0.243	-0.074
-71.480	-200.000	0.003	-0.097
-70.465	-40.862	0.279	-0.143
-69.451	-200.000	-0.026	-0.173
-68.436	-143.996	-0.165	0.015
-67.422	7.896	-0.446	0.331
-66.407	162.393	0.061	-0.084
-65.392	-130.175	0.279	-0.038
-64.378	-10.013	0.185	0.122
-63.363	-97.483	0.138	-0.036
-62.349	-200.000	-0.037	-0.178
-61.334	62.095	-0.757	-0.747
-60.319	-142.176	0.584	0.057
-59.305	-200.000	-0.202	-0.906
-58.290	800.000	0.366	1.115
-57.276	245.463	0.770	1.283
-56.261	-200.000	86.026	500.324
-55.246	539.099	1382.239	3253.850
-54.232	184.703	2605.590	3822.401
-53.217	113.958	2343.446	2819.993
-52.203	47.062	1955.691	1800.419
-51.188	41.353	1744.107	1561.032
-50.173	38.547	1698.422	1498.645
-49.159	53.193	1740.849	1649.783
-48.144	57.338	1759.463	1699.461
-47.130	41.297	1718.760	1537.677
-46.115	38.297	1704.562	1501.908
-45.100	38.257	1699.401	1496.991
-44.086	38.094	1696.678	1493.287
-43.071	38.188	1693.866	1491.469
-42.057	38.070	1691.699	1488.603
-41.042	38.067	1690.032	1487.059
-40.027	38.120	1687.969	1485.586
-39.013	38.207	1685.220	1483.767
-37.998	38.106	1684.165	1482.012
-36.984	38.125	1683.195	1481.248
-35.969	38.214	1681.835	1480.661
-34.954	38.276	1679.435	1478.961
-33.940	38.328	1677.220	1477.341
-32.925	38.240	1675.925	1475.478
-31.911	38.315	1673.721	1474.046
-30.896	38.241	1672.815	1472.633
-29.881	38.242	1670.835	1470.839
-28.867	38.256	1669.204	1469.447
-27.852	38.225	1668.168	1468.249
-26.838	38.300	1666.387	1467.182
-25.823	38.221	1665.332	1465.605
-24.809	38.340	1663.730	1465.029
-23.794	38.237	1662.480	1463.097
-22.779	38.324	1660.849	1462.257
-21.765	38.265	1659.493	1460.563
-20.750	38.256	1657.541	1458.717
-19.736	38.179	1656.493	1457.167
-18.721	38.203	1654.726	1455.732
-17.706	38.248	1652.842	1454.354
-16.692	38.230	1651.544	1453.016
-15.677	38.226	1650.410	1451.936
-14.663	38.265	1649.124	1451.034
-13.648	38.299	1647.343	1449.660
-12.633	38.337	1646.069	1448.765
-11.619	38.333	1644.217	1447.050
-10.604	38.288	1642.672	1445.297
-9.590	38.325	1641.259	1444.271
-8.575	38.315	1639.987	1443.020
-7.560	38.311	1639.149	1442.193
-6.546	38.238	1638.110	1440.684
-5.531	38.248	1636.764	1439.519
-4.517	38.340	1635.307	1438.859
-3.502	38.240	1634.206	1437.097
-2.487	38.311	1632.915	1436.423
-1.473	38.027	1620.472	1423.349
-0.458	34.971	1599.572	1382.890
0.556	31.968	1597.720	1343.721
1.571	29.123	1621.483	1342.866
2.586	28.009	1635.573	1346.219
3.600	24.412	1580.214	1274.893
4.615	14.718	1465.596	1117.747
5.629	6.460	1397.023	1012.473
6.644	5.165	1387.596	997.285
7.659	5.000	1386.096	995.065
8.673	5.026	1385.528	994.735
9.688	5.130	1383.681	993.982
10.702	4.962	1381.482	991.247
11.717	8.431	1388.051	1018.010
12.731	17.180	1403.815	1085.623
13.746	21.906	1410.833	1121.236
14.761	20.755	1408.033	1111.566
15.775	19.664	1404.482	1101.713
16.790	18.700	1401.668	1093.270
17.804	17.751	1399.748	1085.639
18.819	17.465	1398.432	1082.699
19.834	17.177	1396.893	1079.585
20.848	16.897	1395.919	1076.960
21.863	16.720	1394.505	1074.646
22.877	16.582	1393.362	1072.797
23.892	16.485	1392.708	1071.583
24.907	16.460	1391.717	1070.569
25.921	16.626	1390.865	1070.871
26.936	16.634	1389.806	1070.009
27.950	16.537	1389.129	1068.779
28.965	16.680	1387.975	1068.699
29.980	16.791	1386.600	1068.250
30.994	16.743	1385.754	1067.199
32.009	16.865	1384.449	1066.870
33.023	16.746	1383.462	1065.263
34.038	16.811	1381.635	1064.172
35.053	16.742	1380.459	1062.740
36.067	16.658	1379.492	1061.373
37.082	16.680	1378.677	1060.789
38.096	16.766	1377.459	1060.299
39.111	16.819	1376.770	1060.004
40.126	16.635	1376.089	1058.235
41.140	16.505	1375.108	1056.578
42.155	16.420	1374.441	1055.435
43.169	16.422	1374.294	1055.242
44.184	16.375	1373.811	1054.489
45.199	16.440	1373.343	1054.443
46.213	16.498	1373.027	1054.466
47.228	16.679	1371.595	1054.402
48.242	16.646	1371.156	1053.766
49.257	16.656	1369.686	1052.601
50.271	16.588	1367.721	1050.577
51.286	16.645	1366.466	1049.877
52.301	16.663	1365.171	1048.897
53.315	16.572	1363.928	1047.289
54.330	16.526	1363.228	1046.373
55.344	16.550	1362.026	1045.503
56.359	16.598	1360.529	1044.563
57.374	16.491	1360.252	1043.593
58.388	16.386	1359.484	1042.268
59.403	16.383	1358.855	1041.675
60.417	16.449	1357.896	1041.253
61.432	16.344	1357.279	1040.042
62.447	16.314	1355.947	1038.741
63.461	16.220	1354.589	1037.035
64.476	16.197	1354.018	1036.361
65.490	16.326	1352.148	1035.632
66.505	16.319	1350.358	1034.126
67.520	16.280	1349.795	1033.362
68.534	16.423	1348.572	1033.213
69.549	16.395	1347.606	1032.206
70.563	16.288	1346.367	1030.513
71.578	16.205	1345.231	1029.046
72.593	16.196	1344.276	1028.170
73.607	16.210	1343.825	1027.823
74.622	16.199	1343.076	1027.091
75.636	16.325	1342.096	1027.016
76.651	16.182	1341.747	1025.787
77.666	16.138	1341.363	1025.140
78.680	16.300	1340.797	1025.597
79.695	16.331	1339.324	1024.568
80.709	16.330	1339.479	1024.588
81.724	16.398	1338.450	1024.123
82.739	16.485	1337.726	1024.004
83.753	16.606	1336.874	1023.996
84.768	16.669	1335.976	1023.597
85.782	16.815	1334.438	1023.211
86.797	16.751	1333.083	1021.694
87.812	16.655	1332.009	1020.204
88.826	16.597	1330.747	1018.800
89.841	16.569	1330.160	1018.091
90.855	16.754	1328.763	1018.040
91.870	16.790	1328.065	1017.633
92.884	16.774	1327.084	1016.694
93.899	16.768	1326.512	1016.135
94.914	16.798	1325.729	1015.621
95.928	16.791	1325.018	1014.944
96.943	16.733	1323.985	1013.718
97.957	16.666	1322.980	1012.459
98.972	16.726	1322.012	1011.985
99.987	16.719	1321.169	1011.208
101.001	16.707	1319.629	1009.871
102.016	16.755	1318.782	1009.416
103.030	16.748	1317.881	1008.599
104.045	16.565	1317.142	1006.854
105.060	16.594	1315.778	1005.894
106.074	16.496	1314.340	1004.123
107.089	16.384	1312.598	1002.038
108.103	16.267	1311.551	1000.462
109.118	16.339	1310.391	999.912
110.133	16.372	1308.784	998.790
111.147	16.355	1307.494	997.621
112.162	16.260	1306.944	996.549
113.176	16.383	1305.343	995.969
114.191	16.471	1304.398	995.675
115.206	16.460	1303.491	994.833
116.220	16.496	1302.037	993.845
117.235	16.524	1300.625	992.846
118.249	16.461	1299.836	991.783
119.264	16.308	1299.084	990.226
120.279	16.380	1297.526	989.373
121.293	16.347	1296.364	988.202
122.308	16.376	1295.251	987.437
123.322	16.263	1294.429	986.061
124.337	16.274	1293.587	985.398
125.352	16.290	1292.298	984.422
126.366	16.210	1291.229	983.059
127.381	16.272	1290.362	982.668
128.395	16.314	1289.216	981.957
129.410	16.357	1288.013	981.201
130.424	16.336	1287.713	980.766
131.439	16.404	1286.817	980.387
132.454	16.418	1285.682	979.520
133.468	16.442	1284.891	978.972
134.483	16.508	1284.205	978.744
135.497	16.589	1282.913	978.142
136.512	16.542	1281.597	976.777
137.527	16.570	1280.519	976.033
138.541	16.598	1279.061	974.997
139.556	16.629	1277.605	973.977
140.570	16.713	1276.751	973.725
141.585	16.747	1275.608	972.962
142.600	16.774	1274.174	971.936
143.614	16.793	1273.897	971.748
144.629	16.828	1272.746	970.982
145.643	16.794	1271.460	969.722
146.658	16.692	1270.250	968.131
147.673	16.721	1268.396	966.795
148.687	16.655	1267.341	965.529
149.702	16.490	1266.037	963.512
150.716	16.409	1264.899	962.100
151.731	16.552	1263.221	961.549
152.746	16.625	1262.287	961.172
153.760	16.627	1261.279	960.329
154.775	16.689	1259.825	959.486
155.789	16.633	1259.774	959.047
156.804	16.653	1258.183	957.864
157.819	16.867	1256.844	957.969
158.833	16.899	1256.094	957.495
159.848	16.829	1255.446	956.520
160.862	16.847	1253.859	955.330
161.877	16.723	1253.293	954.113
162.892	16.668	1251.616	952.445
163.906	16.629	1251.010	951.677
164.921	16.635	1250.199	951.011
165.935	16.618	1248.651	949.652
166.950	16.801	1248.143	950.209
167.964	16.770	1247.438	949.417
168.979	16.582	1247.378	948.230
169.994	16.689	1246.134	947.801
171.008	16.670	1245.235	946.926
172.023	16.890	1244.450	947.478
173.037	16.817	1243.923	946.581
174.052	16.839	1243.024	945.938
175.067	16.702	1241.675	944.064
176.081	16.666	1240.627	942.985
177.096	16.738	1239.612	942.531
178.110	16.714	1238.832	941.720
179.125	16.726	1237.404	940.616
180.140	16.782	1236.251	939.970
181.154	16.864	1234.883	939.300
182.169	16.938	1233.484	938.559
183.183	16.855	1232.382	937.180
184.198	16.925	1231.658	936.932
185.213	16.930	1230.149	935.733
186.227	16.933	1229.398	935.091
187.242	17.076	1227.941	934.690
188.256	17.091	1226.836	933.848
189.271	17.067	1226.337	933.256
190.286	16.938	1225.278	931.659
191.300	16.749	1224.057	929.610
192.315	16.695	1223.437	928.761
193.329	16.705	1222.505	928.025
194.344	16.746	1222.242	927.970
195.359	16.784	1221.944	927.870
196.373	16.944	1221.007	927.950
197.388	17.056	1220.694	928.240
198.402	17.093	1220.584	928.281
199.417	17.206	1219.644	928.098
200.432	17.247	1219.102	927.829
201.446	17.283	1218.035	927.130
202.461	17.338	1217.217	926.728
203.475	17.349	1216.128	925.875
204.490	17.298	1214.519	924.289
205.504	17.133	1213.148	922.269
206.519	17.186	1212.282	921.817
207.534	17.210	1210.886	920.804
208.548	17.064	1209.663	919.002
209.563	17.149	1208.920	918.819
210.577	17.152	1207.989	918.044
211.592	17.314	1207.375	918.371
212.607	17.368	1206.763	918.114
213.621	17.409	1205.589	917.363
214.636	17.299	1204.864	916.136
215.650	17.330	1204.041	915.597
216.665	17.435	1202.999	915.289
217.680	17.453	1202.284	914.761
218.694	17.442	1201.632	914.126
219.709	17.416	1200.663	913.166
220.723	17.365	1200.201	912.461
221.738	17.480	1199.132	912.184
222.753	17.364	1198.447	910.962
223.767	17.456	1197.495	910.649
224.782	17.524	1197.403	910.861
225.796	17.587	1196.999	910.810
226.811	17.600	1195.629	909.755
227.826	17.693	1194.349	909.196
228.840	17.504	1194.032	907.871
229.855	17.502	1193.382	907.282
230.869	17.527	1192.233	906.464
231.884	17.413	1191.283	905.052
232.899	17.530	1190.241	904.804
233.913	17.277	1189.965	903.167
234.928	17.395	1188.910	902.915
235.942	17.292	1188.662	902.101
236.957	17.386	1187.489	901.630
237.972	17.316	1187.017	900.821
238.986	17.506	1186.211	901.136
240.001	17.440	1185.870	900.447
241.015	17.436	1184.919	899.624
242.030	17.511	1184.080	899.302
243.045	17.529	1183.361	898.774
244.059	17.654	1182.084	898.380
245.074	17.574	1181.744	897.625
246.088	17.596	1180.968	897.070
247.103	17.700	1180.126	896.896
248.117	17.712	1179.537	896.435
249.132	17.780	1178.900	896.231
250.147	17.985	1178.140	896.647
251.161	18.011	1177.658	896.338
252.176	18.060	1176.588	895.703
253.190	18.104	1175.716	895.188
254.205	18.046	1175.893	894.939
255.220	18.186	1174.983	894.898
256.234	18.204	1174.312	894.405
257.249	18.151	1173.741	893.612
258.263	18.180	1172.650	892.857
259.278	18.160	1172.221	892.346
260.293	18.237	1171.521	892.136
261.307	18.289	1170.671	891.679
262.322	18.306	1170.345	891.438
263.336	18.280	1170.149	891.078
264.351	18.270	1169.244	890.258
265.366	18.383	1168.749	890.391
266.380	18.311	1167.748	889.174
267.395	18.440	1166.542	888.844
268.409	18.129	1166.080	886.799
269.424	18.294	1165.166	886.883
270.439	18.367	1164.654	886.795
271.453	18.257	1163.816	885.505
272.468	18.211	1162.767	884.392
273.482	18.237	1161.965	883.841
274.497	18.305	1161.467	883.734
275.512	18.280	1160.944	883.129
276.526	18.305	1160.178	882.596
277.541	18.239	1159.297	881.510
278.555	18.322	1158.825	881.499
279.570	18.455	1158.039	881.506
280.585	18.432	1157.628	881.000
281.599	18.478	1156.544	880.329
282.614	18.437	1155.526	879.268
283.628	18.353	1154.444	877.937
284.643	18.399	1153.537	877.403
285.657	18.351	1152.808	876.526
286.672	18.448	1151.564	875.997
287.687	18.458	1150.585	875.230
288.701	18.353	1150.369	874.451
289.716	18.414	1149.315	873.882
290.730	18.479	1148.653	873.632
291.745	18.446	1148.544	873.303
292.760	18.536	1147.136	872.616
293.774	18.566	1146.864	872.486
294.789	18.629	1146.744	872.638
295.803	18.669	1145.705	871.972
296.818	18.613	1144.636	870.798
297.833	18.542	1143.971	869.854
298.847	18.455	1143.401	868.900
299.862	18.487	1142.711	868.463
300.876	18.431	1141.989	867.552
301.891	18.572	1141.676	867.955
302.906	18.734	1140.579	867.861
303.920	18.797	1140.005	867.663
304.935	18.898	1139.249	867.523
305.949	18.903	1138.863	867.177
306.964	18.993	1137.741	866.701
307.979	18.798	1137.158	865.196
308.993	18.889	1136.320	864.942
310.008	18.886	1135.577	864.286
311.022	18.909	1134.643	863.611
312.037	18.986	1133.748	863.240
313.052	18.844	1132.792	861.726
314.066	18.681	1131.977	860.210
315.081	18.535	1131.494	859.036
316.095	18.626	1130.393	858.581
317.110	18.725	1129.451	858.284
318.125	18.704	1128.907	857.687
319.139	18.750	1128.280	857.365
320.154	18.737	1127.608	856.716
321.168	18.760	1126.757	856.106
322.183	18.759	1126.245	855.638
323.197	18.723	1125.559	854.860
324.212	18.876	1125.268	855.324
325.227	18.734	1124.802	854.191
326.241	18.864	1123.683	853.911
327.256	18.743	1122.981	852.703
328.270	18.772	1121.981	852.011
329.285	18.785	1120.967	851.227
330.300	18.734	1120.318	850.407
331.314	18.793	1119.404	849.931
332.329	18.822	1118.161	849.056
333.343	18.836	1117.421	848.490
334.358	19.096	1116.725	849.168
335.373	19.038	1116.111	848.340
336.387	19.054	1115.297	847.725
337.402	19.044	1114.699	847.145
338.416	18.976	1114.299	846.433
339.431	19.157	1113.404	846.568
340.446	19.170	1112.899	846.170
341.460	19.229	1112.289	845.926
342.475	19.442	1110.958	845.881
343.489	19.397	1110.346	845.121
344.504	19.470	1109.295	844.602
345.519	19.508	1108.173	843.860
346.533	19.445	1107.934	843.296
347.548	19.474	1106.867	842.549
348.562	19.407	1106.415	841.802
349.577	19.351	1105.323	840.623
350.592	19.241	1104.605	839.468
351.606	19.161	1103.953	838.508
352.621	19.205	1102.933	837.872
353.635	19.171	1102.433	837.253
354.650	19.104	1101.795	836.373
355.665	19.229	1101.170	836.431
356.679	19.206	1100.709	835.893
357.694	19.375	1099.999	836.100
358.708	19.460	1099.148	835.790
359.723	19.288	1098.858	834.663
360.738	19.310	1097.960	834.016
361.752	19.473	1097.189	834.145
362.767	19.429	1096.988	833.705
363.781	19.498	1096.306	833.446
364.796	19.500	1096.161	833.269
365.810	19.581	1095.293	832.926
366.825	19.707	1094.602	832.936
367.840	19.868	1093.926	833.122
368.854	19.880	1093.306	832.637
369.869	19.806	1092.427	831.538
370.883	19.706	1091.801	830.506
371.898	19.724	1090.805	829.760
372.913	19.680	1090.220	829.033
373.927	19.816	1089.767	829.267
374.942	19.734	1089.597	828.670
375.956	19.950	1088.823	829.043
376.971	19.744	1088.199	827.509
377.986	19.909	1087.644	827.800
379.000	19.931	1087.088	827.409
380.015	20.031	1086.337	827.245
381.029	20.018	1085.975	826.831
382.044	20.039	1085.203	826.271
383.059	20.033	1084.469	825.611
384.073	19.987	1083.307	824.434
385.088	19.943	1082.604	823.618
386.102	19.847	1081.772	822.453
387.117	19.983	1080.485	822.050
388.132	19.838	1079.744	820.727
389.146	19.842	1078.923	820.048
390.161	19.809	1078.120	819.208
391.175	19.838	1077.818	819.042
392.190	19.977	1076.796	818.853
393.205	20.031	1076.105	818.510
394.219	20.094	1075.319	818.137
395.234	20.063	1074.295	817.140
396.248	20.021	1073.482	816.247
397.263	19.960	1072.705	815.298
398.278	19.820	1071.810	813.888
399.292	19.910	1070.789	813.466
400.307	19.899	1070.142	812.850
401.321	19.782	1069.776	811.947
402.336	19.893	1068.732	811.608
403.350	19.942	1067.935	811.160
404.365	19.891	1067.350	810.403
405.380	20.043	1066.470	810.373
406.394	20.076	1065.847	809.983
407.409	20.153	1065.346	809.893
408.423	20.254	1064.595	809.718
409.438	20.271	1064.020	809.288
410.453	20.323	1063.253	808.877
411.467	20.336	1062.697	808.442
412.482	20.343	1062.208	808.032
413.496	20.549	1061.365	808.280
414.511	20.477	1060.452	807.175
415.526	20.550	1060.344	807.364
416.540	20.499	1059.989	806.783
417.555	20.612	1059.336	806.738
418.569	20.589	1058.891	806.223
419.584	20.507	1058.097	805.167
420.599	20.515	1057.591	804.745
421.613	148.154	1398.243	1775.064
422.628	136.096	1447.862	1775.205
