DTS Sentinel unit serial number:	SN413079Multiplexer serial number:	ORYXHardware model number:	OX4-SRSoftware version number:	ORYX F/W v4.00 Oryx Data Collector v3.7.2.0data status	okinstallation	princeton_trtdifferential loss correction	single-endedforward channel	channel 2reverse channel	N/Adate	2019/09/12time	09:05:11forward acquisition time	60.00reverse acquisition time	0.00gamma	496.2192k internal	0.2316k external	0.2316temperature offset calibration	1.0065default loss term (dB/km)	0.3790temperature slope calibration	1.0000multiplexer offset coefficient	1.0000multiplexer slope coefficient	1.0000fibre end	0.00T internal ref (°C)	34.41T ext. ref 1 (°C)	1.78T ext. ref 2 (°C)	31.95length (m)	temperature (°C)	Stokes	anti-Stokes-747.200	-200.000	0.002	-0.036
-746.185	-200.000	-0.028	0.241
-745.171	-78.431	-0.198	-0.069
-744.156	372.000	-0.071	-0.146
-743.142	-32.976	0.140	0.079
-742.127	800.000	-0.030	0.109
-741.112	-200.000	-0.014	0.087
-740.098	-200.000	-0.090	0.402
-739.083	428.898	-0.131	-0.287
-738.069	-200.000	0.068	0.612
-737.054	-11.334	-0.254	0.169
-736.039	-200.000	0.020	-0.139
-735.025	17.039	0.116	0.093
-734.010	43.593	0.096	0.089
-732.996	-51.021	0.351	-0.167
-731.981	-200.000	-0.028	-0.403
-730.966	45.680	0.255	0.239
-729.952	-111.560	0.209	0.043
-728.937	-28.532	-0.367	0.214
-727.923	-200.000	0.024	0.458
-726.908	-121.283	0.066	-0.011
-725.894	205.500	-0.180	0.283
-724.879	-105.574	-0.252	-0.058
-723.864	-33.284	-0.229	0.128
-722.850	37.662	-0.058	-0.052
-721.835	498.801	-0.143	0.333
-720.821	135.002	-0.324	-0.427
-719.806	-76.432	-0.260	-0.093
-718.791	-149.566	0.282	-0.023
-717.777	168.273	0.065	0.094
-716.762	-77.811	-0.079	0.028
-715.748	-115.603	-0.444	0.084
-714.733	82.424	-0.194	0.213
-713.718	-45.465	-0.162	0.081
-712.704	289.323	0.064	-0.118
-711.689	-49.552	0.161	-0.078
-710.675	-171.479	-0.110	0.004
-709.660	-47.437	0.267	0.131
-708.645	-26.889	0.282	-0.167
-707.631	-139.264	0.198	-0.022
-706.616	-200.000	-0.037	0.165
-705.602	31.286	-0.466	0.405
-704.587	-200.000	-0.017	0.214
-703.572	-37.213	0.384	0.208
-702.558	-117.845	-0.172	0.031
-701.543	-22.603	0.197	-0.121
-700.529	-200.000	0.039	-0.174
-699.514	-85.398	-0.082	0.026
-698.499	800.000	-0.098	0.344
-697.485	641.154	-0.109	-0.280
-696.470	-155.531	0.296	-0.019
-695.456	194.872	-0.090	-0.138
-694.441	156.841	0.072	0.100
-693.426	800.000	0.100	0.297
-692.412	-94.176	0.236	0.065
-691.397	-151.564	0.086	-0.006
-690.383	800.000	-0.033	-0.141
-689.368	480.885	0.082	0.189
-688.354	-78.922	0.123	-0.042
-687.339	38.082	-0.069	0.062
-686.324	114.318	-0.100	-0.123
-685.310	-200.000	-0.042	0.368
-684.295	800.000	-0.056	0.204
-683.281	0.589	-0.219	-0.158
-682.266	-156.149	-0.105	-0.007
-681.251	-200.000	0.005	0.141
-680.237	-50.643	-0.287	-0.137
-679.222	-85.042	0.092	0.029
-678.208	-200.000	-0.017	-0.199
-677.193	-26.494	0.175	-0.104
-676.178	-200.000	-0.005	-0.262
-675.164	-57.008	0.197	0.088
-674.149	800.000	-0.079	-0.287
-673.135	-54.431	-0.377	0.173
-672.120	-10.187	-0.125	0.084
-671.105	65.025	0.091	-0.093
-670.091	-163.743	0.150	0.007
-669.076	-28.280	-0.167	-0.098
-668.062	-135.867	-0.376	-0.045
-667.047	-44.454	-0.257	-0.130
-666.032	-82.950	-0.075	-0.024
-665.018	33.982	0.128	0.113
-664.003	263.694	0.016	0.027
-662.989	398.430	0.095	0.201
-661.974	-20.997	0.116	0.072
-660.959	14.784	-0.259	-0.204
-659.945	-145.973	-0.294	0.026
-658.930	104.365	0.046	-0.055
-657.916	66.631	0.158	-0.162
-656.901	108.207	0.224	-0.269
-655.886	131.923	0.062	0.081
-654.872	214.937	-0.112	0.179
-653.857	-33.259	-0.203	0.113
-652.843	129.927	0.109	0.140
-651.828	800.000	-0.015	0.058
-650.814	-72.084	0.121	-0.045
-649.799	-127.669	0.249	0.036
-648.784	467.142	-0.095	-0.214
-647.770	89.184	-0.147	0.165
-646.755	-200.000	0.007	-0.113
-645.741	209.946	-0.200	0.317
-644.726	-200.000	0.002	0.030
-643.711	800.000	0.033	-0.133
-642.697	-200.000	-0.003	-0.133
-641.682	627.023	0.010	-0.027
-640.668	323.652	0.118	0.226
-639.653	130.488	-0.204	0.264
-638.638	436.885	-0.055	-0.121
-637.624	116.341	0.057	0.071
-636.609	66.674	0.071	-0.072
-635.595	-125.598	0.118	0.018
-634.580	-200.000	0.031	0.152
-633.565	-200.000	0.013	0.309
-632.551	54.750	0.152	-0.148
-631.536	-200.000	-0.028	-0.292
-630.522	17.407	-0.082	-0.065
-629.507	-56.270	0.070	0.031
-628.492	-99.909	-0.206	0.052
-627.478	-81.155	-0.238	0.079
-626.463	284.266	-0.133	-0.242
-625.449	-108.763	0.088	0.019
-624.434	-34.944	0.367	-0.202
-623.419	-50.297	0.175	-0.084
-622.405	159.157	0.124	0.174
-621.390	-63.685	0.363	-0.150
-620.376	-24.028	0.289	-0.174
-619.361	-147.846	0.184	-0.015
-618.346	54.603	-0.107	-0.104
-617.332	-75.101	-0.102	0.037
-616.317	33.254	0.044	-0.039
-615.303	287.671	-0.121	0.221
-614.288	-200.000	0.012	-0.168
-613.273	23.434	0.153	-0.127
-612.259	80.721	0.159	-0.172
-611.244	-174.310	0.082	-0.002
-610.230	-121.678	0.325	-0.054
-609.215	117.467	0.090	0.111
-608.201	-34.373	0.215	-0.119
-607.186	62.300	0.222	-0.224
-606.171	-200.000	0.026	0.276
-605.157	-28.072	-0.307	0.179
-604.142	295.617	-0.072	-0.132
-603.128	84.246	-0.321	-0.354
-602.113	2.176	-0.174	0.127
-601.098	303.805	-0.062	-0.116
-600.084	-200.000	-0.012	0.144
-599.069	321.813	-0.124	0.238
-598.055	14.096	0.099	-0.078
-597.040	800.000	-0.078	-0.218
-596.025	-153.671	0.193	-0.013
-595.011	-92.306	0.233	0.066
-593.996	-16.460	0.230	0.147
-592.982	222.863	-0.211	0.342
-591.967	96.160	-0.112	0.129
-590.952	602.261	0.051	0.126
-589.938	800.000	0.032	0.101
-588.923	39.133	-0.358	0.323
-587.909	281.386	0.114	0.206
-586.894	523.131	0.026	-0.062
-585.879	-175.049	0.128	-0.004
-584.865	-123.124	-0.278	-0.045
-583.850	-200.000	0.040	-0.180
-582.836	-88.384	-0.157	-0.047
-581.821	-200.000	0.108	0.000
-580.806	-200.000	0.028	-0.310
-579.792	-26.562	-0.174	0.103
-578.777	303.064	-0.086	-0.160
-577.763	-200.000	-0.018	0.384
-576.748	-0.657	0.151	0.108
-575.733	-111.105	-0.297	-0.061
-574.719	144.961	-0.101	-0.135
-573.704	800.000	0.050	-0.162
-572.690	-101.971	-0.274	-0.067
-571.675	77.698	-0.138	-0.148
-570.661	112.643	0.199	0.242
-569.646	-200.000	0.013	0.067
-568.631	800.000	-0.019	-0.061
-567.617	775.842	-0.078	0.213
-566.602	-40.271	0.066	-0.035
-565.588	-200.000	0.057	0.282
-564.573	45.230	-0.131	0.121
-563.558	800.000	-0.087	-0.249
-562.544	-200.000	0.104	-0.579
-561.529	435.307	-0.059	0.130
-560.515	-107.754	-0.165	0.036
-559.500	-103.438	0.143	0.034
-558.485	55.977	-0.213	-0.207
-557.471	800.000	0.043	0.173
-556.456	-14.998	-0.101	-0.065
-555.442	69.918	0.287	0.298
-554.427	-200.000	0.002	-0.047
-553.412	348.672	-0.091	0.181
-552.398	-87.306	-0.168	0.051
-551.383	800.000	-0.023	-0.065
-550.369	-88.889	0.056	0.017
-549.354	-200.000	0.044	0.216
-548.339	69.959	0.098	0.102
-547.325	-49.658	0.236	0.113
-546.310	-50.759	-0.151	0.072
-545.296	-149.708	-0.126	0.010
-544.281	20.435	0.206	-0.167
-543.266	-110.551	0.250	-0.052
-542.252	-200.000	0.007	-0.171
-541.237	-165.782	0.109	0.005
-540.223	-121.593	0.355	-0.059
-539.208	22.957	-0.273	0.225
-538.193	-110.720	0.143	0.030
-537.179	-200.000	-0.004	-0.046
-536.164	257.170	0.036	-0.062
-535.150	-59.017	-0.203	-0.088
-534.135	800.000	-0.078	-0.257
-533.121	-200.000	-0.008	0.039
-532.106	53.657	-0.094	-0.091
-531.091	-5.031	-0.104	0.072
-530.077	-61.690	0.180	-0.076
-529.062	97.062	0.110	0.126
-528.048	-87.766	0.149	-0.045
-527.033	174.008	-0.120	-0.174
-526.018	-200.000	-0.036	-0.285
-525.004	-200.000	-0.043	-0.225
-523.989	-80.852	0.164	-0.055
-522.975	-139.552	-0.151	-0.016
-521.960	800.000	0.035	-0.110
-520.945	421.299	-0.093	-0.200
-519.931	266.179	-0.122	0.214
-518.916	-22.122	-0.078	0.048
-517.902	26.702	-0.101	0.085
-516.887	-117.419	-0.439	0.080
-515.872	-200.000	0.022	-0.377
-514.858	800.000	0.065	0.198
-513.843	800.000	0.084	0.329
-512.829	-200.000	-0.091	-0.498
-511.814	-200.000	0.003	0.051
-510.799	-173.121	-0.155	-0.005
-509.785	334.049	0.173	0.336
-508.770	94.983	0.164	-0.187
-507.756	63.733	-0.061	-0.061
-506.741	161.191	-0.195	-0.273
-505.726	-30.880	0.188	-0.106
-504.712	-200.000	0.215	0.001
-503.697	-200.000	0.057	-0.268
-502.683	-39.737	-0.082	0.043
-501.668	-43.064	-0.312	0.159
-500.653	53.390	0.150	-0.145
-499.639	-173.660	-0.268	-0.008
-498.624	-138.862	0.121	0.013
-497.610	-82.993	-0.256	0.083
-496.595	-122.747	-0.125	0.020
-495.581	373.950	0.076	-0.155
-494.566	-200.000	-0.008	0.481
-493.551	-200.000	0.041	0.224
-492.537	115.661	0.132	0.162
-491.522	-200.000	-0.032	-0.142
-490.508	216.501	-0.102	-0.163
-489.493	-36.705	-0.129	-0.069
-488.478	8.532	0.240	-0.181
-487.464	-129.348	-0.055	-0.008
-486.449	-48.783	-0.092	-0.044
-485.435	-56.736	-0.199	0.088
-484.420	78.881	0.179	0.192
-483.405	154.761	0.245	0.338
-482.391	-38.337	-0.175	-0.093
-481.376	263.297	-0.002	-0.004
-480.362	45.795	-0.313	0.290
-479.347	-104.191	0.298	0.069
-478.332	192.133	-0.121	-0.184
-477.318	727.838	0.066	0.175
-476.303	26.934	-0.267	-0.224
-475.289	-63.790	0.317	-0.130
-474.274	-200.000	0.056	0.333
-473.259	-162.051	-0.053	0.003
-472.245	29.180	-0.172	-0.146
-471.230	-85.138	-0.241	0.076
-470.216	-142.408	0.232	-0.023
-469.201	274.667	0.203	0.360
-468.186	34.339	-0.070	-0.061
-467.172	-49.029	0.246	-0.118
-466.157	525.715	0.142	-0.336
-465.143	-200.000	0.012	-0.266
-464.128	-200.000	0.027	-0.326
-463.113	653.691	-0.067	-0.172
-462.099	-200.000	0.001	-0.126
-461.084	-200.000	-0.038	-0.174
-460.070	-44.496	-0.020	0.010
-459.055	-200.000	-0.005	0.274
-458.040	247.948	0.057	-0.097
-457.026	800.000	-0.035	-0.100
-456.011	-8.687	0.206	-0.138
-454.997	138.508	-0.057	0.075
-453.982	295.964	-0.132	0.243
-452.968	29.145	-0.087	0.074
-451.953	-58.422	-0.324	0.141
-450.938	-200.000	0.016	-0.125
-449.924	-200.000	-0.020	0.137
-448.909	468.359	-0.051	0.115
-447.895	23.570	0.297	0.245
-446.880	-197.098	0.095	-0.001
-445.865	58.637	0.084	-0.083
-444.851	218.600	0.225	0.360
-443.836	-116.027	-0.286	0.053
-442.822	224.830	0.121	0.196
-441.807	-70.201	-0.064	-0.024
-440.792	-200.000	0.038	-0.176
-439.778	-124.707	0.256	0.040
-438.763	-61.606	-0.092	-0.038
-437.749	-161.577	-0.208	0.011
-436.734	223.433	0.028	0.046
-435.719	800.000	0.029	-0.126
-434.705	-75.740	-0.090	-0.032
-433.690	-78.764	0.041	-0.014
-432.676	-52.183	0.096	-0.044
-431.661	-200.000	0.040	-0.178
-430.646	146.920	0.190	0.255
-429.632	800.000	-0.032	0.134
-428.617	-200.000	-0.056	0.352
-427.603	63.384	0.177	0.177
-426.588	-93.273	-0.146	0.041
-425.573	-108.360	-0.317	-0.068
-424.559	-200.000	-0.030	0.372
-423.544	-200.000	-0.001	0.127
-422.530	161.491	-0.121	-0.169
-421.515	-200.000	-0.001	0.060
-420.500	-55.922	0.484	-0.216
-419.486	69.349	-0.014	-0.014
-418.471	106.074	0.233	-0.275
-417.457	273.000	0.021	-0.037
-416.442	-93.260	-0.148	0.041
-415.428	-126.060	0.277	0.042
-414.413	-136.213	-0.315	-0.037
-413.398	-43.564	-0.235	-0.119
-412.384	371.074	-0.171	-0.347
-411.369	-173.982	0.263	-0.008
-410.355	493.098	0.060	0.139
-409.340	-200.000	-0.069	-0.372
-408.325	309.635	-0.147	0.274
-407.311	-127.128	-0.115	-0.017
-406.296	-79.200	-0.115	-0.039
-405.282	386.347	0.051	-0.105
-404.267	58.017	-0.082	-0.080
-403.252	-67.476	-0.341	0.134
-402.238	-77.505	-0.281	0.097
-401.223	120.868	-0.101	-0.126
-400.209	800.000	-0.051	0.213
-399.194	9.733	-0.217	-0.164
-398.179	-149.100	0.174	-0.014
-397.165	-200.000	0.003	-0.219
-396.150	-111.764	0.219	-0.044
-395.136	13.555	-0.300	0.233
-394.121	382.523	0.135	-0.278
-393.106	-73.937	0.128	0.046
-392.092	42.553	0.076	-0.069
-391.077	-154.359	0.405	-0.027
-390.063	800.000	0.079	0.251
-389.048	53.938	-0.163	0.156
-388.033	207.579	-0.115	-0.179
-387.019	-200.000	0.005	-0.302
-386.004	26.984	-0.331	-0.277
-384.990	122.247	0.077	0.097
-383.975	94.705	-0.125	-0.142
-382.960	20.249	-0.237	0.191
-381.946	595.516	0.025	-0.061
-380.931	-121.529	0.075	0.012
-379.917	-200.000	0.054	-0.328
-378.902	-200.000	0.012	0.369
-377.888	-7.876	-0.086	-0.058
-376.873	-129.925	0.280	-0.038
-375.858	300.303	0.199	0.366
-374.844	-200.000	-0.025	-0.217
-373.829	-12.279	0.336	0.220
-372.815	800.000	-0.097	-0.344
-371.800	-75.743	-0.248	0.088
-370.785	-4.861	0.033	0.023
-369.771	-98.989	0.252	-0.064
-368.756	121.454	-0.236	-0.294
-367.742	-200.000	0.047	-0.444
-366.727	85.547	-0.087	-0.095
-365.712	-200.000	0.112	0.000
-364.698	112.209	0.106	-0.128
-363.683	416.256	0.094	0.201
-362.669	-103.067	0.159	0.038
-361.654	518.155	-0.071	0.166
-360.639	201.262	0.093	-0.142
-359.625	-152.650	0.419	-0.030
-358.610	-192.454	-0.252	0.002
-357.596	800.000	-0.072	-0.239
-356.581	-200.000	-0.025	0.111
-355.566	50.773	0.063	-0.059
-354.552	-162.242	0.230	-0.011
-353.537	-8.905	-0.343	-0.230
-352.523	-200.000	-0.082	-0.000
-351.508	-134.842	-0.093	0.011
-350.493	-146.542	-0.262	-0.023
-349.479	-93.325	-0.208	0.057
-348.464	-177.057	-0.143	-0.004
-347.450	800.000	-0.081	0.326
-346.435	-51.605	-0.192	0.090
-345.420	-200.000	-0.024	0.118
-344.406	-99.706	-0.041	0.010
-343.391	143.406	-0.118	0.157
-342.377	96.084	0.198	0.225
-341.362	-173.214	0.254	-0.008
-340.348	-116.496	-0.273	0.050
-339.333	114.138	-0.241	-0.292
-338.318	-74.368	0.284	-0.102
-337.304	-200.000	-0.002	0.034
-336.289	-200.000	0.011	-0.057
-335.275	800.000	0.062	0.237
-334.260	58.069	-0.090	-0.088
-333.245	84.405	0.072	-0.078
-332.231	-48.075	-0.245	-0.118
-331.216	-62.015	-0.085	-0.035
-330.202	-103.676	0.053	0.012
-329.187	-142.104	0.157	0.016
-328.172	-86.477	-0.270	-0.083
-327.158	-153.757	-0.117	0.008
-326.143	800.000	-0.058	0.187
-325.129	-200.000	0.027	-0.148
-324.114	48.366	-0.123	0.115
-323.099	-40.902	-0.182	0.094
-322.085	741.002	0.033	0.090
-321.070	-19.229	-0.192	0.119
-320.056	-97.867	0.380	0.098
-319.041	709.975	-0.062	0.163
-318.026	97.181	-0.087	-0.099
-317.012	-40.006	-0.095	0.049
-315.997	-200.000	-0.062	-0.502
-314.983	119.923	0.221	0.273
-313.968	65.658	-0.138	0.139
-312.953	125.679	0.166	0.208
-311.939	259.484	0.122	-0.209
-310.924	-17.766	0.019	-0.012
-309.910	91.611	0.082	0.092
-308.895	281.716	-0.071	0.126
-307.880	-153.690	-0.295	-0.020
-306.866	800.000	-0.078	-0.218
-305.851	800.000	0.042	0.128
-304.837	800.000	-0.056	0.232
-303.822	171.093	0.167	0.238
-302.807	-26.849	-0.224	0.130
-301.793	800.000	-0.046	-0.189
-300.778	3.380	0.086	-0.062
-299.764	104.087	0.234	0.274
-298.749	-175.056	-0.220	-0.006
-297.735	800.000	0.103	-0.286
-296.720	800.000	-0.002	-0.008
-295.705	800.000	0.074	0.273
-294.691	-200.000	-0.059	-0.435
-293.676	177.731	0.240	0.348
-292.662	-200.000	0.019	-0.218
-291.647	2.141	-0.180	-0.129
-290.632	-49.338	-0.108	-0.052
-289.618	62.624	0.158	-0.157
-288.603	259.291	-0.061	-0.104
-287.589	502.712	-0.130	-0.298
-286.574	-200.000	-0.012	0.314
-285.559	-137.389	0.243	0.027
-284.545	-200.000	0.024	0.239
-283.530	-57.702	-0.287	-0.125
-282.516	-200.000	-0.005	0.178
-281.501	229.359	-0.103	0.167
-280.486	-200.000	0.000	-0.125
-279.472	-86.290	0.331	0.101
-278.457	134.115	0.189	-0.244
-277.443	-135.669	0.232	-0.027
-276.428	800.000	0.080	-0.230
-275.413	-149.041	0.295	0.024
-274.399	282.665	0.214	0.381
-273.384	-200.000	0.020	-0.309
-272.370	422.104	0.046	-0.098
-271.355	168.429	0.171	-0.243
-270.340	-57.510	-0.047	0.020
-269.326	-17.842	-0.280	-0.174
-268.311	519.541	-0.048	0.112
-267.297	24.184	-0.228	-0.187
-266.282	-77.723	0.257	-0.088
-265.267	374.879	-0.121	0.244
-264.253	-16.296	-0.119	-0.075
-263.238	-80.465	0.178	0.059
-262.224	87.403	-0.099	-0.108
-261.209	800.000	0.053	0.201
-260.195	800.000	0.029	0.105
-259.180	527.449	0.079	-0.184
-258.165	-200.000	-0.000	-0.075
-257.151	297.755	-0.067	0.123
-256.136	-137.857	-0.036	-0.004
-255.122	-142.891	0.178	0.017
-254.107	-51.344	-0.105	-0.049
-253.092	258.891	0.182	0.312
-252.078	0.721	-0.394	0.280
-251.063	36.356	0.144	0.126
-250.049	-150.671	-0.228	-0.017
-249.034	27.568	-0.171	0.143
-248.019	-94.491	0.152	-0.041
-247.005	-200.000	-0.017	-0.122
-245.990	482.178	-0.107	-0.241
-244.976	-200.000	0.041	-0.249
-243.961	36.036	0.187	-0.164
-242.946	-54.931	0.150	-0.067
-241.932	-200.000	0.423	0.001
-240.917	4.336	0.073	-0.053
-239.903	-119.854	-0.745	0.127
-238.888	800.000	0.053	0.150
-237.873	-200.000	-0.055	0.452
-236.859	-139.822	0.158	0.017
-235.844	14.124	0.078	0.061
-234.830	-43.847	-0.067	-0.034
-233.815	135.014	-0.221	-0.285
-232.800	-47.539	-0.269	0.130
-231.786	150.890	0.256	-0.346
-230.771	219.376	-0.029	0.046
-229.757	358.180	0.165	-0.328
-228.742	19.638	0.110	0.088
-227.727	-12.626	0.333	0.215
-226.713	-200.000	0.019	0.165
-225.698	-200.000	0.034	0.348
-224.684	42.093	-0.091	0.082
-223.669	389.320	-0.093	0.191
-222.655	-111.587	-0.113	-0.023
-221.640	-200.000	-0.023	-0.151
-220.625	-16.716	-0.222	-0.140
-219.611	116.420	-0.096	-0.117
-218.596	-162.767	0.097	0.005
-217.582	-40.577	-0.152	-0.078
-216.567	151.066	0.095	-0.129
-215.552	-10.413	0.353	-0.232
-214.538	-200.000	0.025	-0.174
-213.523	-136.223	-0.296	0.034
-212.509	800.000	-0.037	0.146
-211.494	-21.539	-0.163	0.098
-210.479	789.669	0.024	0.066
-209.465	29.771	0.242	-0.205
-208.450	141.146	-0.087	0.114
-207.436	-43.102	0.304	0.153
-206.421	321.126	0.173	-0.327
-205.406	510.818	0.071	0.165
-204.392	101.244	0.029	0.034
-203.377	-121.522	-0.027	-0.004
-202.363	454.894	0.108	0.238
-201.348	-200.000	0.069	0.431
-200.333	16.690	-0.110	-0.087
-199.319	-200.000	-0.015	0.157
-198.304	-66.229	0.058	0.023
-197.290	-200.000	0.083	0.365
-196.275	31.307	-0.184	0.157
-195.260	58.013	0.191	-0.185
-194.246	478.307	-0.016	-0.036
-193.231	-200.000	-0.013	-0.342
-192.217	-27.550	0.356	0.205
-191.202	-200.000	-0.024	-0.139
-190.187	-200.000	0.018	0.091
-189.173	-200.000	0.004	0.132
-188.158	-22.736	-0.304	-0.182
-187.144	-135.052	-0.227	0.027
-186.129	800.000	0.112	0.391
-185.114	-200.000	-0.025	-0.251
-184.100	-125.061	0.078	0.012
-183.085	-71.131	0.098	0.037
-182.071	405.574	0.201	0.421
-181.056	-200.000	0.002	-0.032
-180.042	-57.413	-0.134	-0.059
-179.027	-40.890	0.409	-0.210
-178.012	-74.552	-0.353	0.126
-176.998	-19.475	0.237	0.146
-175.983	800.000	-0.037	-0.152
-174.969	-97.092	-0.445	0.115
-173.954	-37.523	0.137	-0.073
-172.939	-97.678	0.112	0.029
-171.925	-33.481	-0.157	0.086
-170.910	120.212	0.255	-0.313
-169.896	21.551	-0.116	-0.093
-168.881	71.964	-0.059	0.061
-167.866	96.172	0.230	-0.261
-166.852	-200.000	-0.012	-0.056
-165.837	800.000	0.091	0.363
-164.823	800.000	0.062	0.201
-163.808	-200.000	0.067	0.314
-162.793	-157.509	0.215	-0.013
-161.779	-152.727	0.059	0.004
-160.764	-91.431	-0.248	0.070
-159.750	-52.143	-0.132	-0.061
-158.735	137.704	-0.076	-0.099
-157.720	-200.000	0.002	-0.046
-156.706	-104.328	0.041	-0.010
-155.691	-155.998	-0.354	0.022
-154.677	-200.000	0.026	-0.164
-153.662	13.628	0.102	-0.079
-152.647	114.866	0.127	-0.154
-151.633	473.931	0.037	0.084
-150.618	57.331	0.155	-0.150
-149.604	-24.884	0.284	0.167
-148.589	572.944	-0.064	-0.154
-147.574	0.867	0.359	0.254
-146.560	8.933	-0.314	0.235
-145.545	22.174	-0.182	-0.147
-144.531	-2.350	0.147	-0.102
-143.516	-58.774	0.078	0.033
-142.502	-89.627	-0.127	-0.037
-141.487	281.844	0.060	0.106
-140.472	281.651	0.124	-0.219
-139.458	-112.133	0.330	0.066
-138.443	118.805	0.259	0.316
-137.429	83.584	0.226	-0.243
-136.414	399.646	0.072	-0.149
-135.399	27.857	0.217	0.181
-134.385	26.611	0.166	-0.137
-133.370	1.867	-0.215	-0.153
-132.356	38.820	-0.123	0.109
-131.341	-200.000	0.006	0.073
-130.326	107.680	0.143	0.169
-129.312	-200.000	-0.028	0.190
-128.297	-200.000	0.000	0.192
-127.283	-37.570	-0.223	-0.117
-126.268	230.038	-0.158	0.255
-125.253	-94.042	-0.488	0.132
-124.239	427.123	-0.066	0.141
-123.224	202.770	0.149	0.228
-122.210	-4.076	-0.053	-0.036
-121.195	36.714	0.096	-0.083
-120.180	-3.521	0.291	0.200
-119.166	800.000	-0.092	0.292
-118.151	800.000	-0.132	-0.409
-117.137	-135.167	0.095	0.011
-116.122	201.850	0.093	0.142
-115.107	-95.074	-0.081	0.022
-114.093	-139.559	0.404	0.043
-113.078	-48.476	-0.221	-0.105
-112.064	-46.101	0.127	0.062
-111.049	110.451	0.137	0.163
-110.034	-39.966	0.261	-0.134
-109.020	208.989	-0.146	0.225
-108.005	27.418	-0.129	0.107
-106.991	444.214	-0.079	-0.171
-105.976	-144.138	0.263	0.024
-104.962	-189.530	0.364	-0.004
-103.947	-142.198	0.270	0.026
-102.932	-128.814	-0.177	0.025
-101.918	79.408	-0.071	-0.075
-100.903	-110.311	-0.252	-0.052
-99.889	139.575	-0.092	-0.120
-98.874	38.694	-0.065	0.057
-97.859	-200.000	0.050	0.263
-96.845	-101.060	0.325	-0.079
-95.830	-200.000	-0.037	0.175
-94.816	-135.580	0.349	-0.041
-93.801	-153.028	0.274	-0.019
-92.786	71.629	0.064	0.066
-91.772	800.000	-0.028	0.079
-90.757	72.876	-0.045	0.046
-89.743	800.000	0.012	-0.043
-88.728	-2.569	-0.300	0.207
-87.713	-48.335	0.477	0.227
-86.699	97.232	0.316	-0.358
-85.684	662.327	0.055	0.139
-84.670	-96.516	-0.203	-0.053
-83.655	-24.372	0.100	0.059
-82.640	41.503	-0.169	-0.151
-81.626	-138.832	-0.262	0.028
-80.611	800.000	0.030	0.106
-79.597	111.229	-0.118	0.140
-78.582	-158.141	0.285	-0.016
-77.567	151.376	-0.328	-0.441
-76.553	137.678	0.237	-0.306
-75.538	63.307	0.318	0.314
-74.524	-200.000	0.021	0.148
-73.509	-20.890	-0.262	0.159
-72.494	-115.310	-0.224	0.042
-71.480	-200.000	-0.048	-0.274
-70.465	-200.000	0.063	0.446
-69.451	-200.000	-0.019	0.389
-68.436	-160.296	0.154	-0.008
-67.422	57.841	0.221	0.213
-66.407	634.561	0.114	0.285
-65.392	203.736	-0.074	-0.113
-64.378	-62.761	0.433	0.177
-63.363	-112.193	0.198	0.039
-62.349	-9.232	0.230	-0.152
-61.334	59.704	-0.805	-0.783
-60.319	101.240	0.366	0.420
-59.305	-200.000	-0.094	-0.901
-58.290	225.214	0.580	0.927
-57.276	368.420	0.738	1.471
-56.261	-200.000	96.805	566.386
-55.246	545.019	1384.157	3261.257
-54.232	150.645	2606.879	3492.927
-53.217	107.537	2305.632	2705.569
-52.203	43.983	1918.154	1733.362
-51.188	37.699	1705.290	1492.962
-50.173	34.866	1660.408	1432.427
-49.159	52.240	1708.610	1606.349
-48.144	55.360	1726.589	1646.872
-47.130	37.396	1682.363	1470.363
-46.115	34.494	1666.940	1435.034
-45.100	34.300	1662.507	1429.705
-44.086	34.263	1659.639	1426.907
-43.071	34.228	1656.955	1424.276
-42.057	34.183	1655.116	1422.306
-41.042	34.323	1652.522	1421.065
-40.027	34.281	1650.843	1419.249
-39.013	34.209	1649.137	1417.189
-37.998	34.318	1646.487	1415.670
-36.984	34.329	1645.580	1414.915
-35.969	34.347	1644.578	1414.128
-34.954	34.411	1642.736	1412.964
-33.940	34.450	1640.510	1411.283
-32.925	34.459	1638.290	1409.379
-31.911	34.324	1637.191	1407.383
-30.896	34.402	1635.626	1406.557
-29.881	34.324	1634.260	1404.755
-28.867	34.480	1632.119	1404.004
-27.852	34.424	1630.537	1402.176
-26.838	34.397	1629.085	1400.671
-25.823	34.370	1628.233	1399.690
-24.809	34.523	1626.666	1399.406
-23.794	34.515	1624.948	1397.813
-22.779	34.445	1623.500	1396.000
-21.765	34.386	1622.033	1394.250
-20.750	34.428	1620.231	1392.959
-19.736	34.369	1619.130	1391.523
-18.721	34.369	1617.699	1390.235
-17.706	34.438	1615.640	1388.914
-16.692	34.422	1613.657	1387.042
-15.677	34.449	1612.886	1386.515
-14.663	34.444	1611.801	1385.495
-13.648	34.443	1610.527	1384.337
-12.633	34.456	1608.478	1382.617
-11.619	34.468	1606.970	1381.350
-10.604	34.375	1605.808	1379.623
-9.590	34.478	1604.242	1378.969
-8.575	34.529	1602.699	1377.958
-7.560	34.426	1601.699	1376.294
-6.546	34.477	1600.354	1375.456
-5.531	34.379	1599.786	1374.203
-4.517	34.398	1598.567	1373.244
-3.502	34.417	1597.185	1372.136
-2.487	34.575	1595.386	1371.675
-1.473	34.389	1584.670	1361.074
-0.458	32.280	1565.652	1329.789
0.556	29.040	1566.854	1301.336
1.571	26.777	1592.024	1305.848
2.586	26.243	1605.930	1313.255
3.600	22.776	1550.518	1243.444
4.615	12.288	1435.133	1082.050
5.629	3.436	1367.601	975.242
6.644	1.956	1358.733	959.521
7.659	1.775	1357.768	957.623
8.673	1.711	1356.200	956.026
9.688	1.669	1354.429	954.430
10.702	1.496	1351.656	951.307
11.717	5.080	1359.236	979.085
12.731	15.788	1378.693	1060.863
13.746	24.226	1393.535	1125.732
14.761	26.146	1396.411	1140.092
15.775	26.623	1395.608	1142.347
16.790	26.646	1395.333	1142.166
17.804	26.626	1395.098	1141.747
18.819	26.886	1394.689	1142.948
19.834	27.008	1393.953	1143.014
20.848	27.075	1393.429	1142.901
21.863	27.052	1392.289	1141.726
22.877	26.961	1391.194	1140.151
23.892	26.962	1390.585	1139.561
24.907	27.006	1389.966	1139.225
25.921	26.999	1389.090	1138.367
26.936	26.932	1388.018	1136.963
27.950	26.958	1386.717	1135.959
28.965	27.015	1385.732	1135.408
29.980	26.977	1384.021	1133.668
30.994	27.032	1383.118	1133.176
32.009	26.940	1382.202	1131.752
33.023	26.998	1381.192	1131.184
34.038	27.072	1379.646	1130.276
35.053	27.058	1378.659	1129.282
36.067	26.978	1377.875	1128.046
37.082	26.936	1377.366	1127.264
38.096	26.983	1376.223	1126.524
39.111	26.956	1375.329	1125.524
40.126	26.908	1374.615	1124.540
41.140	27.046	1373.971	1124.771
42.155	26.979	1373.838	1124.149
43.169	26.942	1373.725	1123.725
44.184	26.993	1373.382	1123.664
45.199	26.906	1373.293	1122.952
46.213	26.952	1372.555	1122.531
47.228	26.977	1371.361	1121.609
48.242	26.992	1370.330	1120.763
49.257	26.922	1369.418	1119.481
50.271	26.957	1367.614	1118.124
51.286	26.947	1366.344	1116.927
52.301	26.950	1365.251	1115.954
53.315	26.905	1364.396	1114.880
54.330	26.975	1363.310	1114.326
55.344	26.961	1361.911	1112.994
56.359	26.971	1361.102	1112.299
57.374	26.947	1360.664	1111.697
58.388	26.905	1359.857	1110.677
59.403	26.925	1359.507	1110.416
60.417	26.963	1358.727	1109.913
61.432	26.914	1358.103	1109.005
62.447	26.902	1357.018	1107.950
63.461	26.889	1356.150	1107.064
64.476	26.997	1355.170	1106.822
65.490	26.992	1353.898	1105.658
66.505	26.990	1352.154	1104.121
67.520	26.945	1351.661	1103.347
68.534	26.933	1350.322	1102.085
69.549	27.002	1349.130	1101.432
70.563	27.040	1348.148	1100.765
71.578	26.969	1347.401	1099.625
72.593	26.998	1346.505	1098.975
73.607	27.080	1345.867	1098.854
74.622	26.914	1345.414	1097.379
75.636	26.938	1344.858	1096.978
76.651	27.010	1343.925	1096.550
77.666	26.930	1343.747	1095.827
78.680	26.979	1342.897	1095.333
79.695	26.984	1342.194	1094.693
80.709	27.084	1341.442	1094.587
81.724	27.062	1340.652	1093.709
82.739	27.053	1339.416	1092.552
83.753	27.035	1338.348	1091.475
84.768	27.001	1337.196	1090.234
85.782	26.988	1336.944	1089.855
86.797	27.033	1335.042	1088.480
87.812	27.093	1333.958	1087.856
88.826	27.047	1333.021	1086.721
89.841	27.036	1332.378	1086.036
90.855	27.032	1331.262	1085.003
91.870	27.080	1330.288	1084.402
92.884	27.090	1329.476	1083.705
93.899	27.063	1329.009	1083.068
94.914	27.038	1327.931	1081.941
95.928	27.108	1326.891	1081.415
96.943	27.041	1326.578	1080.669
97.957	27.013	1326.288	1080.171
98.972	27.124	1325.113	1079.775
99.987	27.052	1323.874	1078.244
101.001	27.054	1322.994	1077.443
102.016	27.039	1322.415	1076.787
103.030	27.034	1321.121	1075.609
104.045	27.009	1320.625	1074.963
105.060	27.116	1319.513	1074.596
106.074	27.053	1318.830	1073.573
107.089	27.147	1317.187	1072.697
108.103	27.115	1316.382	1071.752
109.118	27.114	1315.241	1070.723
110.133	27.198	1313.989	1070.103
111.147	27.093	1313.233	1068.775
112.162	27.119	1312.029	1067.856
113.176	27.230	1310.840	1067.447
114.191	27.083	1310.160	1065.932
115.206	27.170	1309.208	1065.575
116.220	27.081	1308.102	1064.057
117.235	27.126	1307.541	1063.774
118.249	27.083	1306.201	1062.339
119.264	27.119	1305.390	1061.795
120.279	27.170	1304.531	1061.297
121.293	27.277	1303.566	1061.044
122.308	27.228	1302.829	1060.064
123.322	27.117	1302.647	1059.176
124.337	27.137	1301.678	1058.408
125.352	27.120	1300.721	1057.439
126.366	27.236	1299.546	1057.068
127.381	27.171	1298.890	1056.062
128.395	27.281	1298.150	1056.006
129.410	27.241	1297.070	1054.803
130.424	27.120	1296.834	1053.814
131.439	27.227	1295.865	1053.553
132.454	27.053	1295.349	1052.034
133.468	27.164	1294.136	1051.598
134.483	27.119	1294.122	1051.231
135.497	27.089	1293.426	1050.401
136.512	27.167	1291.944	1049.556
137.527	27.230	1290.507	1048.658
138.541	27.143	1289.405	1047.168
139.556	27.117	1288.516	1046.204
140.570	27.116	1287.818	1045.541
141.585	27.127	1286.237	1044.226
142.600	27.179	1285.541	1043.869
143.614	27.149	1284.457	1042.720
144.629	27.160	1283.461	1041.881
145.643	27.023	1282.690	1040.381
146.658	27.069	1281.648	1039.706
147.673	27.122	1280.458	1038.952
148.687	27.043	1279.779	1037.861
149.702	27.080	1278.390	1036.850
150.716	27.118	1276.985	1035.839
151.731	27.207	1275.883	1035.358
152.746	27.159	1275.573	1034.741
153.760	27.174	1274.059	1033.507
154.775	27.146	1273.116	1032.492
155.789	27.206	1272.236	1032.027
156.804	27.102	1271.441	1030.703
157.819	27.155	1271.000	1030.551
158.833	27.136	1270.406	1029.874
159.848	27.218	1269.294	1029.345
160.862	27.240	1268.397	1028.652
161.877	27.161	1267.746	1027.585
162.892	27.244	1267.117	1027.451
163.906	27.300	1266.173	1026.914
164.921	27.262	1265.715	1026.236
165.935	27.297	1264.575	1025.417
166.950	27.149	1264.698	1024.595
167.964	27.299	1263.389	1024.286
168.979	27.299	1262.936	1023.825
169.994	27.237	1262.599	1023.116
171.008	27.276	1262.016	1022.774
172.023	27.246	1261.123	1021.791
173.037	27.321	1259.886	1021.115
174.052	27.297	1259.538	1020.612
175.067	27.322	1258.589	1019.891
176.081	27.258	1257.904	1018.888
177.096	27.271	1257.380	1018.443
178.110	27.273	1256.180	1017.394
179.125	27.336	1255.224	1016.884
180.140	27.334	1254.235	1015.977
181.154	27.361	1252.886	1014.946
182.169	27.291	1251.405	1013.268
183.183	27.317	1250.609	1012.678
184.198	27.326	1250.282	1012.377
185.213	27.260	1249.326	1011.147
186.227	27.401	1248.209	1010.931
187.242	27.379	1247.571	1010.206
188.256	27.362	1246.689	1009.307
189.271	27.416	1245.567	1008.610
190.286	27.331	1245.069	1007.645
191.300	27.351	1244.480	1007.189
192.315	27.320	1244.135	1006.648
193.329	27.447	1243.494	1006.746
194.344	27.428	1242.881	1006.056
195.359	27.458	1242.430	1005.765
196.373	27.436	1242.000	1005.209
197.388	27.256	1241.575	1003.782
198.402	27.385	1241.571	1004.401
199.417	27.286	1241.082	1003.373
200.432	27.340	1240.276	1002.927
201.446	27.332	1239.807	1002.413
202.461	27.391	1238.850	1001.879
203.475	27.380	1238.204	1001.206
204.490	27.427	1236.572	1000.059
205.504	27.396	1236.106	999.422
206.519	27.500	1235.116	999.106
207.534	27.424	1234.217	997.870
208.548	27.388	1233.559	997.055
209.563	27.409	1232.586	996.292
210.577	27.331	1232.071	995.360
211.592	27.444	1230.962	994.993
212.607	27.427	1230.057	994.085
213.621	27.538	1229.577	994.213
214.636	27.542	1228.524	993.294
215.650	27.448	1228.234	992.463
216.665	27.491	1227.108	991.699
217.680	27.461	1225.828	990.414
218.694	27.579	1225.017	990.308
219.709	27.630	1224.574	990.143
220.723	27.563	1223.942	989.182
221.738	27.475	1223.050	987.894
222.753	27.516	1222.569	987.637
223.767	27.475	1221.785	986.699
224.782	27.656	1221.473	987.339
225.796	27.645	1220.783	986.634
226.811	27.587	1220.318	985.855
227.826	27.520	1220.001	985.153
228.840	27.586	1219.273	984.831
229.855	27.584	1218.490	984.100
230.869	27.571	1217.885	983.455
231.884	27.545	1217.277	982.737
232.899	27.598	1216.517	982.325
233.913	27.709	1215.376	981.913
234.928	27.648	1215.423	981.536
235.942	27.696	1214.506	980.969
236.957	27.602	1213.867	979.858
237.972	27.649	1213.250	979.523
238.986	27.607	1212.719	978.783
240.001	27.667	1212.087	978.512
241.015	27.800	1211.087	978.330
242.030	27.765	1210.335	977.448
243.045	27.637	1209.984	976.392
244.059	27.645	1208.988	975.544
245.074	27.799	1207.768	975.297
246.088	27.783	1206.809	974.353
247.103	27.819	1206.374	974.104
248.117	27.739	1205.736	973.075
249.132	27.742	1205.030	972.436
250.147	27.867	1204.158	972.315
251.161	27.820	1204.071	971.905
252.176	27.739	1203.480	970.913
253.190	27.798	1202.518	970.365
254.205	27.896	1201.518	969.994
255.220	27.792	1201.449	969.300
256.234	27.801	1200.681	968.641
257.249	27.897	1200.096	968.591
258.263	27.719	1199.956	967.452
259.278	27.861	1198.762	967.153
260.293	27.866	1198.496	966.882
261.307	27.876	1197.423	965.979
262.322	27.986	1196.980	966.118
263.336	27.890	1196.639	965.254
264.351	27.925	1195.850	964.717
265.366	27.953	1195.214	964.263
266.380	27.850	1194.947	963.419
267.395	27.791	1194.300	962.503
268.409	27.974	1193.156	962.459
269.424	27.922	1192.930	961.916
270.439	27.889	1192.352	961.192
271.453	27.943	1191.567	960.761
272.468	27.876	1191.050	959.905
273.482	27.863	1190.823	959.571
274.497	27.955	1190.069	959.358
275.512	28.047	1189.226	959.077
276.526	28.025	1188.502	958.293
277.541	27.947	1187.995	957.389
278.555	28.076	1187.127	957.283
279.570	28.059	1186.531	956.629
280.585	28.046	1185.212	955.413
281.599	27.955	1184.756	954.482
282.614	27.994	1184.055	954.041
283.628	28.128	1183.373	954.103
284.643	28.031	1182.464	952.782
285.657	28.003	1181.911	952.106
286.672	28.026	1180.502	951.004
287.687	28.172	1179.937	951.225
288.701	28.100	1179.426	950.354
289.716	28.159	1178.436	949.780
290.730	28.159	1177.689	949.095
291.745	28.167	1177.387	948.807
292.760	28.250	1176.395	948.356
293.774	28.140	1175.990	947.372
294.789	28.212	1175.524	947.285
295.803	28.219	1175.234	947.009
296.818	28.199	1174.481	946.212
297.833	28.219	1174.045	945.881
298.847	28.298	1173.414	945.695
299.862	28.174	1172.019	943.848
300.876	28.236	1171.105	943.350
301.891	28.159	1171.198	942.943
302.906	28.242	1170.363	942.614
303.920	28.254	1169.924	942.243
304.935	28.341	1169.131	941.967
305.949	28.263	1168.271	940.787
306.964	28.230	1168.118	940.412
307.979	28.159	1167.604	939.550
308.993	28.322	1166.839	939.690
310.008	28.467	1165.956	939.636
311.022	28.383	1165.135	938.465
312.037	28.366	1164.282	937.604
313.052	28.293	1163.645	936.638
314.066	28.323	1162.239	935.576
315.081	28.410	1161.755	935.545
316.095	28.292	1161.784	934.885
317.110	28.423	1161.153	934.965
318.125	28.410	1160.293	934.121
319.139	28.435	1159.077	933.185
320.154	28.390	1159.079	932.879
321.168	28.463	1158.256	932.505
322.183	28.352	1157.835	931.518
323.197	28.314	1157.204	930.733
324.212	28.305	1156.434	929.987
325.227	28.512	1155.731	930.390
326.241	28.401	1155.646	929.675
327.256	28.663	1154.287	929.825
328.270	28.479	1154.089	928.653
329.285	28.476	1153.053	927.722
330.300	28.566	1152.474	927.633
331.314	28.414	1151.770	926.214
332.329	28.560	1150.888	926.158
333.343	28.682	1150.025	925.998
334.358	28.595	1149.143	924.770
335.373	28.566	1148.646	924.138
336.387	28.725	1147.921	924.277
337.402	28.608	1147.260	923.074
338.416	28.706	1146.490	922.865
339.431	28.662	1146.080	922.233
340.446	28.734	1145.277	921.865
341.460	28.737	1144.824	921.433
342.475	28.759	1143.996	920.794
343.489	28.842	1142.795	920.165
344.504	28.592	1142.342	918.468
345.519	28.645	1141.407	917.899
346.533	28.878	1140.207	918.015
347.548	28.861	1139.865	917.573
348.562	28.799	1139.225	916.668
349.577	28.825	1138.627	916.235
350.592	28.748	1137.651	914.984
351.606	28.655	1137.510	914.326
352.621	28.746	1136.953	914.253
353.635	28.752	1136.095	913.511
354.650	28.865	1135.247	913.309
355.665	28.827	1134.575	912.500
356.679	28.846	1134.155	912.174
357.694	28.942	1133.383	911.951
358.708	28.912	1132.876	911.313
359.723	28.798	1132.542	910.400
360.738	28.769	1131.824	909.598
361.752	28.926	1131.154	909.754
362.767	28.923	1130.633	909.239
363.781	28.876	1129.989	908.409
364.796	28.955	1129.412	908.256
365.810	28.947	1129.108	907.893
366.825	28.904	1128.502	907.111
367.840	28.922	1127.738	906.505
368.854	29.057	1127.194	906.655
369.869	29.038	1126.784	906.149
370.883	29.038	1125.490	905.030
371.898	29.177	1124.615	904.926
372.913	29.035	1124.505	904.061
373.927	29.140	1123.895	904.009
374.942	29.049	1123.459	903.133
375.956	29.029	1122.951	902.546
376.971	29.036	1122.630	902.243
377.986	29.080	1122.138	901.980
379.000	29.111	1121.655	901.662
380.015	29.149	1121.014	901.258
381.029	29.199	1120.059	900.654
382.044	29.138	1119.437	899.773
383.059	29.326	1118.265	899.673
384.073	29.327	1117.724	899.162
385.088	29.156	1117.156	897.789
386.102	29.178	1116.334	897.156
387.117	29.278	1115.126	896.597
388.132	29.112	1114.692	895.359
389.146	29.151	1114.204	895.079
390.161	29.186	1113.574	894.663
391.175	29.198	1112.663	893.908
392.190	29.168	1112.265	893.363
393.205	29.271	1111.631	893.273
394.219	29.280	1110.780	892.554
395.234	29.237	1110.556	892.091
396.248	29.324	1109.296	891.417
397.263	29.406	1108.297	890.933
398.278	29.311	1108.231	890.342
399.292	29.381	1107.290	889.845
400.307	29.389	1106.627	889.271
401.321	29.389	1106.061	888.740
402.336	29.270	1105.618	887.732
403.350	29.298	1104.486	886.881
404.365	29.347	1104.152	886.768
405.380	29.409	1103.395	886.378
406.394	29.451	1102.589	885.855
407.409	29.660	1101.418	885.837
408.423	29.665	1100.749	885.244
409.438	29.508	1100.131	883.916
410.453	29.684	1099.723	884.354
411.467	29.511	1099.224	883.046
412.482	29.425	1098.793	882.212
413.496	29.541	1097.899	881.971
414.511	29.601	1096.910	881.384
415.526	29.598	1096.697	881.120
416.540	29.576	1096.233	880.566
417.555	29.618	1096.036	880.527
418.569	29.647	1095.682	880.305
419.584	29.543	1095.225	879.366
420.599	29.559	1094.355	878.662
421.613	100.301	1319.307	1444.873
422.628	93.575	1352.094	1445.000
