DTS Sentinel unit serial number:	SN413079Multiplexer serial number:	ORYXHardware model number:	OX4-SRSoftware version number:	ORYX F/W v4.00 Oryx Data Collector v3.7.2.0data status	okinstallation	princeton_trtdifferential loss correction	single-endedforward channel	channel 2reverse channel	N/Adate	2019/09/19time	07:23:35forward acquisition time	60.00reverse acquisition time	0.00gamma	496.2192k internal	0.2351k external	0.2351temperature offset calibration	1.0010default loss term (dB/km)	0.3790temperature slope calibration	1.0000multiplexer offset coefficient	1.0000multiplexer slope coefficient	1.0000fibre end	0.00T internal ref (°C)	19.16T ext. ref 1 (°C)	0.55T ext. ref 2 (°C)	13.65length (m)	temperature (°C)	Stokes	anti-Stokes-747.200	-200.000	0.026	-0.333
-746.185	26.024	0.199	0.166
-745.171	287.391	-0.137	0.247
-744.156	800.000	-0.104	0.439
-743.142	377.053	0.016	0.033
-742.127	-150.263	0.141	-0.011
-741.112	305.818	-0.116	-0.216
-740.098	-105.826	0.285	-0.064
-739.083	800.000	0.026	0.106
-738.069	-186.893	-0.165	-0.002
-737.054	64.361	-0.159	-0.160
-736.039	50.001	-0.292	0.275
-735.025	-200.000	-0.061	0.314
-734.010	800.000	0.006	0.021
-732.996	800.000	-0.079	-0.307
-731.981	-53.450	-0.401	-0.183
-730.966	-33.446	-0.146	-0.080
-729.952	71.726	-0.083	-0.086
-728.937	451.195	0.049	0.108
-727.923	-59.206	-0.199	0.086
-726.908	-124.102	0.130	0.020
-725.894	318.644	-0.051	0.097
-724.879	-20.587	0.119	0.073
-723.864	90.206	0.165	-0.184
-722.850	-76.502	-0.360	-0.126
-721.835	6.077	0.199	-0.147
-720.821	207.287	0.085	-0.132
-719.806	346.490	0.099	0.193
-718.791	0.177	-0.119	0.084
-717.777	-85.937	-0.209	0.065
-716.762	800.000	0.092	-0.359
-715.748	-132.557	-0.182	0.023
-714.733	-83.631	-0.097	-0.031
-713.718	-168.343	0.045	0.002
-712.704	-200.000	-0.002	-0.102
-711.689	-178.662	0.360	-0.008
-710.675	-200.000	-0.049	0.401
-709.660	-177.666	0.402	0.010
-708.645	-99.131	0.096	-0.024
-707.631	800.000	0.020	-0.078
-706.616	-106.529	-0.249	0.055
-705.602	-200.000	0.012	0.280
-704.587	28.153	0.338	-0.285
-703.572	294.078	-0.085	0.155
-702.558	-144.730	0.181	-0.017
-701.543	-61.641	-0.145	-0.060
-700.529	69.241	-0.142	0.145
-699.514	-127.981	0.273	0.039
-698.499	284.002	-0.106	-0.190
-697.485	-200.000	-0.000	-0.211
-696.470	-200.000	-0.009	0.240
-695.456	-180.985	0.167	0.003
-694.441	-110.234	-0.292	0.061
-693.426	-29.511	-0.214	0.122
-692.412	-24.043	-0.087	0.052
-691.397	623.640	0.059	-0.149
-690.383	-119.224	-0.139	0.024
-689.368	94.932	-0.162	-0.184
-688.354	76.907	0.112	-0.119
-687.339	396.379	0.038	0.079
-686.324	178.532	0.183	-0.266
-685.310	-4.418	-0.311	-0.214
-684.295	-50.560	0.145	-0.068
-683.281	-44.477	-0.112	0.056
-682.266	-59.045	0.463	0.199
-681.251	-35.731	0.202	-0.109
-680.237	232.216	-0.168	-0.275
-679.222	-200.000	-0.013	-0.153
-678.208	-200.000	-0.001	-0.237
-677.193	-133.178	-0.254	0.032
-676.178	-142.767	-0.160	-0.016
-675.164	-21.402	0.111	-0.067
-674.149	78.826	-0.109	0.116
-673.135	-29.677	-0.148	-0.084
-672.120	-158.273	0.161	-0.009
-671.105	-115.636	0.354	0.066
-670.091	472.959	-0.161	0.361
-669.076	-84.446	-0.387	0.122
-668.062	-48.296	0.157	-0.075
-667.047	-81.139	-0.206	0.068
-666.032	664.604	0.034	0.087
-665.018	-200.000	-0.009	-0.102
-664.003	-175.097	-0.289	-0.008
-662.989	800.000	-0.076	-0.276
-661.974	238.218	-0.129	0.214
-660.959	-80.229	-0.268	-0.089
-659.945	114.205	-0.250	-0.302
-658.930	-200.000	-0.066	0.399
-657.916	-93.967	0.439	0.120
-656.901	-200.000	-0.016	-0.123
-655.886	244.928	0.180	0.300
-654.872	95.046	-0.089	0.101
-653.857	-200.000	-0.053	0.293
-652.843	-34.575	-0.239	0.130
-651.828	-200.000	0.004	0.328
-650.814	-200.000	0.014	-0.307
-649.799	-133.844	-0.328	0.041
-648.784	79.194	0.085	0.090
-647.770	41.327	-0.124	0.112
-646.755	-200.000	0.029	0.265
-645.741	-119.590	0.208	-0.036
-644.726	-113.087	-0.324	-0.064
-643.711	-18.931	-0.052	-0.032
-642.697	114.394	0.124	0.150
-641.682	-200.000	0.003	-0.048
-640.668	79.112	0.042	-0.045
-639.653	800.000	-0.102	-0.325
-638.638	-200.000	-0.022	0.151
-637.624	-59.069	0.322	-0.138
-636.609	-87.707	0.107	-0.032
-635.595	-24.204	-0.099	-0.059
-634.580	-200.000	0.005	-0.093
-633.565	-104.979	-0.361	0.082
-632.551	-146.471	0.165	0.014
-631.536	-75.870	-0.226	0.080
-630.522	-128.578	0.113	-0.016
-629.507	-7.749	-0.171	0.115
-628.492	-116.311	-0.287	0.053
-627.478	116.745	0.067	0.081
-626.463	82.579	0.161	-0.173
-625.449	-24.828	-0.214	0.126
-624.434	12.541	-0.264	-0.202
-623.419	-200.000	-0.004	-0.361
-622.405	-32.812	-0.302	-0.167
-621.390	-200.000	-0.001	-0.141
-620.376	141.711	-0.215	0.283
-619.361	679.707	0.116	0.300
-618.346	800.000	0.028	-0.114
-617.332	-82.627	-0.192	-0.062
-616.317	-200.000	0.005	0.243
-615.303	-45.668	0.133	-0.065
-614.288	-11.366	0.060	-0.039
-613.273	-151.852	0.293	-0.021
-612.259	-144.951	-0.210	-0.019
-611.244	-118.314	-0.326	-0.058
-610.230	497.876	-0.097	0.222
-609.215	-200.000	0.085	-0.000
-608.201	332.150	-0.093	-0.177
-607.186	-152.969	-0.093	-0.006
-606.171	-152.641	0.196	-0.014
-605.157	-30.616	0.325	-0.183
-604.142	674.446	0.072	0.185
-603.128	-147.197	-0.193	0.016
-602.113	-101.115	0.097	-0.024
-601.098	800.000	-0.073	-0.249
-600.084	-29.280	0.130	0.074
-599.069	-19.282	0.142	0.088
-598.055	-61.279	-0.098	-0.041
-597.040	-4.214	-0.176	-0.121
-596.025	349.453	-0.001	-0.002
-595.011	703.367	0.079	-0.205
-593.996	-9.674	-0.163	0.108
-592.982	-134.088	-0.348	-0.043
-591.967	-118.868	0.325	-0.057
-590.952	-141.739	-0.164	-0.016
-589.938	385.152	-0.045	0.092
-588.923	-113.050	0.316	0.062
-587.909	-200.000	-0.070	0.403
-586.894	-23.585	-0.491	-0.292
-585.879	-134.123	0.255	0.031
-584.865	-137.821	-0.540	-0.060
-583.850	-44.812	0.152	-0.075
-582.836	106.412	0.138	0.163
-581.821	415.129	-0.149	-0.315
-580.806	298.273	0.176	-0.320
-579.792	-200.000	0.091	-0.615
-578.777	-0.661	0.239	0.168
-577.763	-200.000	-0.024	0.115
-576.748	-200.000	0.009	0.286
-575.733	-0.483	0.289	-0.204
-574.719	371.463	-0.060	-0.121
-573.704	-55.231	0.085	-0.038
-572.690	138.012	0.089	-0.116
-571.675	-133.448	-0.308	-0.038
-570.661	6.130	0.174	-0.128
-569.646	-200.000	-0.021	0.254
-568.631	-200.000	-0.017	-0.190
-567.617	800.000	-0.075	-0.246
-566.602	138.841	-0.090	-0.117
-565.588	505.402	0.215	0.493
-564.573	359.965	-0.028	-0.056
-563.558	-200.000	0.006	0.058
-562.544	800.000	-0.124	0.424
-561.529	-17.230	0.244	-0.152
-560.515	39.708	-0.289	-0.257
-559.500	-130.441	-0.396	0.053
-558.485	249.047	-0.108	-0.181
-557.471	2.382	-0.180	0.129
-556.456	442.217	-0.083	-0.180
-555.442	8.413	-0.236	0.176
-554.427	-200.000	0.086	0.776
-553.412	53.731	-0.229	-0.218
-552.398	-12.329	0.135	0.088
-551.383	-200.000	-0.027	0.260
-550.369	-178.428	-0.265	0.006
-549.354	-121.973	0.335	0.055
-548.339	-84.035	0.223	0.070
-547.325	-200.000	-0.007	0.276
-546.310	377.340	-0.200	-0.405
-545.296	-40.008	-0.167	0.086
-544.281	462.614	0.131	0.289
-543.266	-200.000	0.041	-0.350
-542.252	-80.323	-0.125	-0.041
-541.237	-148.610	-0.095	-0.008
-540.223	232.702	-0.172	0.279
-539.208	-100.898	-0.049	0.012
-538.193	-128.409	-0.138	-0.019
-537.179	-159.588	0.261	0.014
-536.164	27.545	-0.116	0.096
-535.150	-28.415	0.195	0.111
-534.135	592.407	0.102	0.249
-533.121	131.923	0.032	-0.040
-532.106	-151.122	0.171	-0.013
-531.091	8.492	-0.152	-0.113
-530.077	-26.280	-0.140	0.081
-529.062	800.000	0.090	0.305
-528.048	-152.032	0.193	-0.014
-527.033	35.696	-0.268	-0.233
-526.018	-200.000	0.052	0.278
-525.004	412.151	0.136	-0.286
-523.989	351.398	-0.058	-0.114
-522.975	162.927	-0.407	0.565
-521.960	-99.338	0.176	-0.044
-520.945	-34.392	0.306	0.166
-519.931	74.389	0.196	-0.204
-518.916	800.000	0.029	0.108
-517.902	101.959	-0.157	-0.181
-516.887	-64.161	0.212	-0.085
-515.872	11.198	0.181	0.137
-514.858	-151.894	-0.507	0.037
-513.843	-33.291	0.173	0.095
-512.829	-46.969	0.009	0.004
-511.814	-46.923	0.275	-0.133
-510.799	10.400	0.195	-0.147
-509.785	194.813	0.119	0.179
-508.770	800.000	0.112	-0.412
-507.756	-16.771	0.134	-0.084
-506.741	66.849	-0.191	0.192
-505.726	-49.267	-0.339	0.160
-504.712	-103.489	0.297	-0.069
-503.697	283.568	-0.139	-0.247
-502.683	-123.722	0.221	-0.035
-501.668	70.598	0.028	-0.029
-500.653	800.000	-0.035	0.099
-499.639	-156.701	-0.543	-0.033
-498.624	309.830	0.036	-0.067
-497.610	-54.273	-0.133	0.060
-496.595	-128.145	-0.064	-0.009
-495.581	55.933	-0.333	-0.319
-494.566	38.957	0.203	-0.179
-493.551	172.061	0.109	0.155
-492.537	-42.839	-0.147	0.074
-491.522	-148.674	0.260	0.021
-490.508	66.114	0.124	-0.124
-489.493	-200.000	0.045	-0.246
-488.478	-21.514	0.186	-0.112
-487.464	63.018	0.171	0.169
-486.449	800.000	0.148	0.432
-485.435	-151.137	-0.086	0.006
-484.420	205.745	-0.145	0.223
-483.405	301.711	0.053	0.096
-482.391	20.028	-0.211	0.168
-481.376	-105.478	-0.142	0.032
-480.362	721.247	0.036	0.094
-479.347	-120.638	-0.123	0.021
-478.332	17.682	-0.090	-0.070
-477.318	-161.411	-0.063	-0.003
-476.303	-139.276	-0.069	0.007
-475.289	-92.395	-0.201	0.056
-474.274	128.147	-0.043	0.054
-473.259	-200.000	0.049	0.270
-472.245	-131.377	-0.099	0.013
-471.230	328.151	0.046	0.088
-470.216	-66.983	0.435	-0.169
-469.201	-49.273	-0.052	-0.024
-468.186	-39.833	-0.147	0.076
-467.172	359.451	0.286	0.565
-466.157	-91.755	-0.063	-0.018
-465.143	600.592	-0.025	0.061
-464.128	314.064	0.070	0.129
-463.113	-48.669	-0.455	0.216
-462.099	-200.000	-0.045	-0.279
-461.084	11.707	0.124	0.094
-460.070	-29.058	-0.191	-0.108
-459.055	427.528	-0.051	-0.109
-458.040	-200.000	0.055	0.389
-457.026	521.194	0.111	-0.258
-456.011	800.000	-0.066	0.223
-454.997	9.857	-0.167	-0.125
-453.982	-200.000	-0.055	-0.291
-452.968	-4.669	0.067	-0.046
-451.953	800.000	0.099	-0.301
-450.938	800.000	-0.102	-0.428
-449.924	-200.000	-0.009	0.119
-448.909	-41.410	-0.104	-0.053
-447.895	800.000	-0.051	0.208
-446.880	-200.000	0.017	0.110
-445.865	299.668	0.053	-0.097
-444.851	34.080	-0.077	-0.066
-443.836	70.122	-0.224	-0.228
-442.822	445.542	-0.059	-0.127
-441.807	-101.588	0.097	-0.023
-440.792	332.564	0.180	0.343
-439.778	-200.000	0.006	-0.226
-438.763	800.000	-0.050	0.185
-437.749	800.000	0.044	0.122
-436.734	19.522	-0.034	0.027
-435.719	132.138	-0.044	0.056
-434.705	272.476	0.176	0.305
-433.690	-71.586	-0.269	0.099
-432.676	280.075	0.211	0.371
-431.661	-158.821	0.146	0.008
-430.646	248.272	-0.221	0.369
-429.632	251.454	0.084	0.140
-428.617	127.278	-0.234	-0.292
-427.603	-28.026	0.390	-0.223
-426.588	-200.000	-0.006	-0.049
-425.573	800.000	0.079	0.231
-424.559	-64.995	-0.128	0.051
-423.544	-138.714	-0.275	-0.030
-422.530	-200.000	0.009	-0.198
-421.515	322.417	0.016	0.031
-420.500	-50.674	0.231	0.107
-419.486	-200.000	0.042	-0.317
-418.471	-59.854	0.118	0.050
-417.457	468.936	-0.045	-0.100
-416.442	-161.210	-0.268	-0.014
-415.428	-115.232	0.346	0.065
-414.413	-79.635	-0.140	0.047
-413.398	51.259	-0.060	-0.056
-412.384	-12.069	-0.194	0.125
-411.369	49.175	0.391	-0.362
-410.355	-18.706	0.129	0.079
-409.340	281.110	-0.192	-0.339
-408.325	800.000	-0.083	-0.285
-407.311	19.666	-0.105	0.083
-406.296	9.598	0.191	0.142
-405.282	-200.000	-0.020	0.221
-404.267	31.019	-0.057	-0.048
-403.252	-78.193	0.232	-0.079
-402.238	-200.000	-0.049	-0.213
-401.223	-92.073	-0.107	-0.030
-400.209	800.000	0.044	0.141
-399.194	-113.432	-0.269	0.052
-398.179	419.284	-0.085	0.179
-397.165	2.218	-0.039	0.028
-396.150	800.000	0.098	0.285
-395.136	476.522	-0.074	-0.164
-394.121	190.764	-0.116	0.172
-393.106	-93.023	0.241	-0.066
-392.092	197.403	0.097	-0.145
-391.077	-200.000	0.054	0.336
-390.063	281.830	0.105	-0.185
-389.048	-200.000	-0.054	0.378
-388.033	-200.000	-0.003	0.125
-387.019	-52.718	-0.240	0.109
-386.004	37.203	-0.276	-0.240
-384.990	-93.200	0.239	-0.065
-383.975	800.000	-0.084	-0.295
-382.960	101.780	0.160	0.184
-381.946	800.000	-0.042	-0.180
-380.931	800.000	-0.025	0.093
-379.917	800.000	0.069	0.208
-378.902	-31.883	0.404	0.223
-377.888	-200.000	-0.041	-0.259
-376.873	44.183	-0.127	-0.114
-375.858	-200.000	0.016	0.285
-374.844	-200.000	0.023	0.321
-373.829	800.000	-0.028	0.089
-372.815	-42.888	-0.131	0.065
-371.800	800.000	-0.112	-0.326
-370.785	168.205	-0.077	-0.108
-369.771	210.119	-0.144	-0.222
-368.756	7.662	-0.157	-0.116
-367.742	-200.000	0.041	0.178
-366.727	-200.000	-0.066	0.483
-365.712	-6.068	0.115	0.077
-364.698	-160.047	0.358	-0.019
-363.683	-200.000	0.007	0.068
-362.669	800.000	-0.127	-0.536
-361.654	405.581	0.044	-0.091
-360.639	553.688	-0.098	0.231
-359.625	-2.910	0.050	-0.035
-358.610	-81.809	0.099	-0.032
-357.596	-82.599	-0.131	-0.042
-356.581	94.811	-0.068	-0.077
-355.566	-160.196	0.100	-0.005
-354.552	124.644	-0.050	-0.062
-353.537	526.962	-0.128	0.296
-352.523	31.302	-0.147	-0.124
-351.508	336.720	0.056	0.108
-350.493	-88.145	0.218	-0.064
-349.479	-200.000	-0.061	-0.445
-348.464	-25.111	-0.292	-0.170
-347.450	-154.269	0.110	0.007
-346.435	119.793	-0.113	-0.138
-345.420	-66.154	0.103	-0.040
-344.406	60.520	0.289	-0.281
-343.391	-99.314	0.215	-0.053
-342.377	143.667	0.056	0.074
-341.362	-1.938	0.028	-0.019
-340.348	800.000	-0.060	0.211
-339.333	-56.512	-0.207	-0.090
-338.318	-112.046	0.074	0.015
-337.304	-47.768	0.173	-0.082
-336.289	-99.125	-0.104	-0.026
-335.275	488.419	-0.094	-0.210
-334.260	668.647	-0.108	-0.274
-333.245	-14.546	0.380	0.240
-332.231	197.335	0.133	-0.200
-331.216	56.634	-0.113	-0.108
-330.202	289.985	0.142	0.252
-329.187	217.228	0.079	-0.124
-328.172	800.000	0.006	-0.024
-327.158	107.865	0.252	0.295
-326.143	218.906	0.133	-0.209
-325.129	749.912	0.161	-0.428
-324.114	-140.893	-0.214	-0.022
-323.099	-182.562	-0.167	0.003
-322.085	67.801	-0.236	-0.236
-321.070	100.627	0.234	0.267
-320.056	35.241	0.139	0.119
-319.041	-148.061	0.033	0.003
-318.026	-87.176	-0.050	0.015
-317.012	-200.000	0.021	-0.317
-315.997	422.880	-0.195	-0.410
-314.983	-94.246	0.226	-0.061
-313.968	9.301	0.228	-0.169
-312.953	112.827	0.298	0.355
-311.939	-21.119	-0.205	0.123
-310.924	558.172	0.087	0.207
-309.910	57.158	0.092	-0.088
-308.895	-71.383	0.503	-0.185
-307.880	-200.000	-0.034	0.250
-306.866	-55.223	0.063	0.028
-305.851	-200.000	0.006	-0.079
-304.837	188.574	-0.121	-0.177
-303.822	47.023	-0.265	-0.242
-302.807	9.102	0.176	-0.130
-301.793	-131.863	-0.180	0.023
-300.778	-65.878	-0.335	0.131
-299.764	-200.000	0.019	-0.300
-298.749	-200.000	0.008	0.277
-297.735	-137.722	0.397	-0.044
-296.720	-19.357	-0.281	0.171
-295.705	189.698	0.097	-0.143
-294.691	-74.045	-0.260	0.092
-293.676	-200.000	-0.034	0.247
-292.662	-200.000	-0.011	0.114
-291.647	-106.017	0.480	0.106
-290.632	58.635	-0.073	0.070
-289.618	-101.155	-0.187	0.045
-288.603	-47.677	0.313	0.149
-287.589	-186.573	-0.325	-0.005
-286.574	-200.000	0.040	-0.183
-285.559	171.790	-0.089	-0.125
-284.545	289.880	0.104	0.185
-283.530	-19.188	0.299	-0.182
-282.516	-200.000	0.031	-0.181
-281.501	-72.276	0.314	0.114
-280.486	265.627	-0.140	0.240
-279.472	-101.385	0.117	0.028
-278.457	38.719	-0.226	0.198
-277.443	-200.000	0.004	0.112
-276.428	800.000	0.080	-0.325
-275.413	-71.451	-0.257	0.094
-274.399	-200.000	-0.017	-0.201
-273.384	5.775	-0.251	0.182
-272.370	95.999	0.225	0.251
-271.355	140.269	-0.227	0.293
-270.340	800.000	0.027	0.099
-269.326	9.387	-0.218	0.162
-268.311	453.045	-0.012	0.025
-267.297	361.644	-0.121	0.238
-266.282	39.027	-0.176	0.154
-265.267	800.000	-0.033	-0.137
-264.253	-200.000	0.073	-0.321
-263.238	800.000	-0.124	-0.370
-262.224	-91.848	0.067	0.019
-261.209	-53.540	0.304	-0.136
-260.195	-199.270	0.223	-0.001
-259.180	498.362	-0.147	-0.331
-258.165	-73.286	0.141	0.050
-257.151	-118.030	-0.426	-0.075
-256.136	-71.649	0.078	0.029
-255.122	144.634	0.127	0.166
-254.107	163.193	0.247	0.339
-253.092	-113.965	-0.063	0.012
-252.078	210.763	-0.305	-0.470
-251.063	200.362	0.341	-0.513
-250.049	-104.043	0.216	-0.049
-249.034	323.801	-0.113	0.210
-248.019	-45.845	0.063	0.030
-247.005	-20.677	-0.324	0.194
-245.990	252.853	-0.257	0.429
-244.976	-71.328	-0.151	0.056
-243.961	-21.717	-0.199	0.118
-242.946	-200.000	0.000	0.071
-241.932	-200.000	0.008	0.068
-240.917	37.774	0.142	-0.124
-239.903	154.225	0.100	0.134
-238.888	-156.200	-0.042	-0.003
-237.873	-17.434	0.268	0.165
-236.859	-31.060	0.178	-0.098
-235.844	404.991	-0.155	0.320
-234.830	560.071	-0.062	0.146
-233.815	-162.325	0.043	0.002
-232.800	-65.143	0.245	0.097
-231.786	38.045	0.236	-0.205
-230.771	111.135	0.084	-0.098
-229.757	-5.780	0.071	0.048
-228.742	0.555	-0.435	-0.304
-227.727	-93.367	0.473	-0.128
-226.713	-200.000	0.031	0.133
-225.698	24.585	0.257	-0.208
-224.684	-125.962	-0.260	0.038
-223.669	-62.181	-0.202	0.082
-222.655	242.474	-0.118	0.194
-221.640	343.609	-0.030	0.057
-220.625	336.610	0.087	-0.166
-219.611	-30.587	0.103	0.057
-218.596	265.756	-0.103	0.177
-217.582	800.000	0.041	-0.153
-216.567	800.000	-0.053	0.186
-215.552	-106.504	0.116	0.025
-214.538	754.021	0.059	-0.156
-213.523	445.514	0.030	0.065
-212.509	800.000	-0.042	0.157
-211.494	-200.000	-0.006	-0.083
-210.479	-2.709	0.144	0.098
-209.465	-200.000	-0.046	0.269
-208.450	-1.849	0.204	-0.140
-207.436	65.468	-0.086	0.085
-206.421	-200.000	-0.025	0.206
-205.406	-126.144	0.196	-0.029
-204.392	330.244	0.094	0.178
-203.377	12.367	-0.151	0.114
-202.363	-103.208	0.319	-0.074
-201.348	800.000	0.049	-0.169
-200.333	22.659	0.168	-0.134
-199.319	377.418	-0.134	-0.268
-198.304	-200.000	-0.036	-0.174
-197.290	-155.936	-0.167	-0.010
-196.275	46.869	0.178	-0.162
-195.260	-77.677	0.222	0.075
-194.246	288.467	0.063	-0.112
-193.231	387.200	0.031	-0.062
-192.217	-200.000	-0.028	-0.141
-191.202	116.244	-0.036	-0.043
-190.187	-101.237	0.233	-0.056
-189.173	-200.000	0.003	0.030
-188.158	49.592	0.016	-0.015
-187.144	85.688	-0.104	0.112
-186.129	-87.136	-0.244	0.072
-185.114	-200.000	0.001	0.044
-184.100	800.000	0.192	0.521
-183.085	-39.468	0.159	-0.082
-182.071	7.391	-0.181	-0.132
-181.056	-5.928	0.097	-0.065
-180.042	-187.549	0.097	-0.001
-179.027	-200.000	0.046	-0.360
-178.012	-36.956	0.245	0.128
-176.998	562.184	-0.003	0.008
-175.983	-200.000	-0.029	0.161
-174.969	-190.008	-0.079	-0.001
-173.954	51.173	0.298	0.276
-172.939	-166.813	-0.063	0.003
-171.925	800.000	0.128	-0.376
-170.910	-87.294	-0.121	-0.036
-169.896	-87.579	-0.188	0.056
-168.881	123.929	0.063	-0.078
-167.866	-200.000	-0.014	-0.296
-166.852	-200.000	-0.022	-0.128
-165.837	-82.835	-0.266	-0.084
-164.823	268.665	0.225	-0.384
-163.808	-200.000	0.003	-0.040
-162.793	-153.550	0.069	0.005
-161.779	148.058	0.298	0.392
-160.764	-200.000	0.004	0.181
-159.750	-18.712	-0.280	-0.170
-158.735	-188.208	0.165	-0.002
-157.720	800.000	-0.063	0.235
-156.706	-86.895	-0.290	-0.086
-155.691	-200.000	-0.013	-0.164
-154.677	-200.000	-0.057	-0.401
-153.662	-200.000	-0.334	-0.001
-152.647	-139.957	0.237	-0.024
-151.633	-97.514	0.287	-0.073
-150.618	800.000	-0.034	0.142
-149.604	353.896	0.211	0.409
-148.589	101.829	-0.128	-0.145
-147.574	-165.760	0.368	-0.015
-146.560	-110.793	0.448	-0.090
-145.545	99.473	0.242	-0.273
-144.531	628.958	-0.146	0.359
-143.516	-167.336	0.081	0.003
-142.502	-93.544	0.113	-0.031
-141.487	89.083	0.209	0.227
-140.472	-108.060	-0.178	-0.038
-139.458	65.331	-0.067	0.066
-138.443	-121.752	0.144	-0.023
-137.429	-58.913	0.288	0.121
-136.414	12.409	0.073	0.055
-135.399	687.250	-0.053	-0.134
-134.385	-69.062	-0.351	0.132
-133.370	6.479	0.106	0.076
-132.356	-19.429	0.268	-0.162
-131.341	-18.500	0.227	-0.138
-130.326	800.000	0.112	0.408
-129.312	-88.842	0.383	-0.111
-128.297	-200.000	-0.028	-0.240
-127.283	800.000	0.091	-0.380
-126.268	-11.772	0.213	0.136
-125.253	-32.833	0.122	0.066
-124.239	71.203	0.209	-0.211
-123.224	-115.496	0.225	0.041
-122.210	800.000	0.189	-0.565
-121.195	101.317	-0.234	-0.265
-120.180	800.000	0.088	-0.242
-119.166	251.370	-0.176	0.292
-118.151	47.419	0.170	0.155
-117.137	-200.000	0.014	0.143
-116.122	-200.000	0.031	-0.463
-115.107	-41.204	0.125	-0.063
-114.093	-98.134	-0.141	-0.035
-113.078	-30.347	0.153	0.085
-112.064	-132.584	0.194	-0.024
-111.049	711.404	0.098	0.252
-110.034	-70.925	-0.412	-0.151
-109.020	-100.310	-0.101	0.024
-108.005	-89.882	-0.214	-0.061
-106.991	-136.635	-0.227	0.026
-105.976	191.296	0.213	-0.312
-104.962	-66.359	-0.370	-0.143
-103.947	-128.577	0.126	0.017
-102.932	800.000	-0.034	-0.093
-101.918	-72.623	0.346	0.124
-100.903	800.000	0.059	-0.200
-99.889	-200.000	0.050	0.283
-98.874	-200.000	-0.024	-0.170
-97.859	-65.830	0.158	-0.062
-96.845	25.990	0.256	-0.207
-95.830	6.625	-0.215	-0.156
-94.816	19.728	0.138	0.108
-93.801	-165.188	-0.028	0.001
-92.786	149.955	0.116	-0.153
-91.772	198.981	-0.158	-0.235
-90.757	-200.000	0.012	-0.322
-89.743	-138.678	-0.347	0.037
-88.728	61.890	-0.233	-0.226
-87.713	45.129	0.105	0.094
-86.699	19.059	-0.099	0.077
-85.684	89.245	-0.096	-0.104
-84.670	131.783	0.186	-0.232
-83.655	-200.000	-0.025	0.121
-82.640	-200.000	0.027	0.251
-81.626	-67.926	0.214	-0.081
-80.611	800.000	0.076	-0.291
-79.597	314.607	0.087	-0.160
-78.582	33.132	-0.203	-0.171
-77.567	-35.925	0.330	0.174
-76.553	100.594	0.083	0.094
-75.538	-105.616	-0.063	0.014
-74.524	-200.000	0.047	-0.201
-73.509	27.573	-0.242	0.198
-72.494	-200.000	0.088	0.467
-71.480	678.546	0.127	0.321
-70.465	433.394	0.150	0.316
-69.451	130.064	0.140	0.174
-68.436	-42.295	-0.140	-0.070
-67.422	-200.000	-0.045	-0.257
-66.407	44.230	0.108	-0.096
-65.392	-34.436	0.232	-0.124
-64.378	450.278	-0.027	0.059
-63.363	76.414	0.317	-0.326
-62.349	265.915	-0.100	-0.169
-61.334	154.076	-1.145	-1.526
-60.319	71.704	0.977	0.987
-59.305	363.294	-0.599	-1.170
-58.290	180.198	1.033	1.472
-57.276	221.918	0.925	1.445
-56.261	-200.000	135.782	618.520
-55.246	337.742	1644.907	3107.617
-54.232	136.114	2792.973	3536.216
-53.217	76.563	2305.819	2374.730
-52.203	27.471	1908.312	1558.793
-51.188	21.980	1703.702	1349.514
-50.173	20.234	1666.316	1306.706
-49.159	40.929	1741.179	1526.329
-48.144	37.414	1749.522	1506.400
-47.130	21.563	1701.075	1344.023
-46.115	19.235	1685.511	1313.932
-45.100	19.080	1680.847	1309.070
-44.086	19.106	1677.892	1306.916
-43.071	18.969	1675.342	1303.833
-42.057	19.047	1672.926	1302.493
-41.042	19.049	1671.447	1301.307
-40.027	19.034	1669.695	1299.774
-39.013	19.043	1667.176	1297.837
-37.998	18.973	1666.022	1296.354
-36.984	19.065	1664.430	1295.760
-35.969	19.148	1663.083	1295.285
-34.954	19.155	1661.212	1293.827
-33.940	19.079	1660.159	1292.386
-32.925	19.064	1658.242	1290.729
-31.911	19.071	1656.654	1289.496
-30.896	19.176	1655.001	1288.945
-29.881	19.111	1653.905	1287.552
-28.867	19.115	1651.870	1285.942
-27.852	19.108	1650.503	1284.779
-26.838	19.167	1649.037	1284.024
-25.823	19.127	1647.560	1282.528
-24.809	19.226	1646.272	1282.207
-23.794	19.199	1644.786	1280.802
-22.779	19.242	1643.234	1279.865
-21.765	19.159	1642.175	1278.369
-20.750	19.163	1640.087	1276.722
-19.736	19.141	1639.521	1276.066
-18.721	19.203	1637.321	1274.767
-17.706	19.276	1635.779	1274.053
-16.692	19.196	1634.760	1272.616
-15.677	19.130	1633.830	1271.357
-14.663	19.228	1632.122	1270.702
-13.648	19.213	1630.238	1269.073
-12.633	19.184	1628.964	1267.818
-11.619	19.234	1627.555	1267.038
-10.604	19.254	1625.568	1265.586
-9.590	19.206	1625.232	1264.919
-8.575	19.288	1623.485	1264.112
-7.560	19.198	1622.665	1262.766
-6.546	19.253	1621.297	1262.056
-5.531	19.142	1620.434	1260.522
-4.517	19.194	1619.703	1260.277
-3.502	19.204	1618.036	1259.010
-2.487	19.243	1616.659	1258.172
-1.473	18.847	1604.178	1245.538
-0.458	16.199	1584.417	1211.159
0.556	11.704	1586.831	1181.246
1.571	9.698	1611.405	1184.704
2.586	9.560	1623.361	1192.368
3.600	9.179	1567.811	1148.742
4.615	5.195	1463.039	1045.248
5.629	1.244	1408.018	980.355
6.644	0.668	1401.552	972.065
7.659	0.511	1400.486	970.233
8.673	0.524	1399.830	969.772
9.688	0.507	1397.205	967.760
10.702	0.254	1393.909	963.775
11.717	2.371	1395.822	978.564
12.731	8.110	1404.306	1021.273
13.746	14.314	1413.976	1068.118
14.761	16.938	1417.556	1087.578
15.775	16.571	1415.897	1083.862
16.790	15.543	1413.176	1075.106
17.804	14.778	1411.440	1068.797
18.819	14.462	1409.506	1065.216
19.834	14.318	1408.121	1063.155
20.848	13.979	1406.889	1059.972
21.863	13.734	1405.960	1057.614
22.877	13.523	1404.751	1055.270
23.892	13.551	1403.990	1054.780
24.907	13.495	1402.822	1053.453
25.921	13.455	1402.092	1052.557
26.936	13.521	1401.145	1052.176
27.950	13.628	1399.980	1051.885
28.965	13.608	1398.964	1050.901
29.980	13.689	1398.043	1050.629
30.994	13.724	1397.114	1050.060
32.009	13.761	1395.824	1049.230
33.023	13.730	1394.747	1048.134
34.038	13.673	1393.845	1047.005
35.053	13.704	1392.802	1046.324
36.067	13.702	1391.310	1045.098
37.082	13.703	1390.466	1044.374
38.096	13.722	1389.657	1043.798
39.111	13.671	1389.066	1042.940
40.126	13.668	1387.957	1041.995
41.140	13.547	1387.295	1040.646
42.155	13.608	1386.655	1040.453
43.169	13.590	1386.751	1040.321
44.184	13.509	1386.722	1039.702
45.199	13.456	1386.461	1039.079
46.213	13.556	1385.388	1038.814
47.228	13.697	1384.135	1038.663
48.242	13.580	1383.199	1037.136
49.257	13.732	1381.560	1036.766
50.271	13.704	1379.975	1035.311
51.286	13.677	1378.997	1034.319
52.301	13.654	1377.876	1033.238
53.315	13.607	1376.705	1031.977
54.330	13.547	1376.075	1031.039
55.344	13.662	1373.937	1030.065
56.359	13.545	1373.323	1028.783
57.374	13.542	1372.399	1027.985
58.388	13.499	1371.856	1027.222
59.403	13.473	1371.789	1026.914
60.417	13.501	1370.574	1026.092
61.432	13.498	1370.058	1025.592
62.447	13.496	1368.884	1024.612
63.461	13.445	1367.380	1023.078
64.476	13.334	1366.716	1021.811
65.490	13.482	1365.497	1021.718
66.505	13.508	1363.658	1020.416
67.520	13.494	1362.161	1019.120
68.534	13.479	1360.987	1018.055
69.549	13.470	1360.378	1017.454
70.563	13.423	1359.155	1016.162
71.578	13.384	1358.040	1015.000
72.593	13.399	1357.265	1014.422
73.607	13.403	1356.425	1013.727
74.622	13.303	1355.937	1012.660
75.636	13.381	1355.098	1012.423
76.651	13.346	1354.028	1011.323
77.666	13.417	1353.466	1011.244
78.680	13.479	1352.651	1010.926
79.695	13.433	1352.068	1010.119
80.709	13.479	1351.129	1009.608
81.724	13.533	1350.148	1009.114
82.739	13.602	1349.065	1008.637
83.753	13.572	1348.405	1007.873
84.768	13.607	1347.430	1007.267
85.782	13.736	1345.461	1006.490
86.797	13.638	1344.735	1005.259
87.812	13.596	1343.120	1003.709
88.826	13.602	1341.969	1002.796
89.841	13.647	1340.521	1001.900
90.855	13.625	1340.181	1001.425
91.870	13.698	1339.097	1000.966
92.884	13.700	1337.727	999.865
93.899	13.695	1337.563	999.622
94.914	13.734	1336.990	999.342
95.928	13.734	1335.516	998.152
96.943	13.696	1334.754	997.266
97.957	13.713	1333.449	996.305
98.972	13.788	1332.261	995.780
99.987	13.651	1331.621	994.390
101.001	13.641	1330.523	993.424
102.016	13.667	1329.513	992.737
103.030	13.665	1328.788	992.096
104.045	13.696	1327.886	991.522
105.060	13.689	1326.213	990.141
106.074	13.536	1325.196	988.381
107.089	13.506	1323.859	987.115
108.103	13.507	1322.711	986.180
109.118	13.615	1321.065	985.507
110.133	13.519	1320.211	984.215
111.147	13.567	1318.657	983.253
112.162	13.581	1317.411	982.317
113.176	13.719	1315.780	981.833
114.191	13.685	1315.470	981.314
115.206	13.677	1313.793	979.931
116.220	13.663	1312.760	978.990
117.235	13.703	1311.488	978.187
118.249	13.723	1310.520	977.501
119.264	13.610	1309.364	975.886
120.279	13.574	1308.205	974.725
121.293	13.586	1306.831	973.682
122.308	13.602	1306.315	973.306
123.322	13.523	1305.418	972.087
124.337	13.501	1304.477	971.174
125.352	13.596	1302.668	970.294
126.366	13.543	1301.672	969.160
127.381	13.614	1300.850	968.877
128.395	13.540	1299.509	967.361
129.410	13.539	1298.637	966.620
130.424	13.681	1297.286	966.354
131.439	13.578	1296.824	965.325
132.454	13.648	1295.561	964.710
133.468	13.677	1294.615	964.087
134.483	13.687	1293.525	963.250
135.497	13.591	1292.894	962.133
136.512	13.640	1291.316	961.159
137.527	13.649	1290.112	960.230
138.541	13.578	1288.750	958.721
139.556	13.620	1287.517	957.962
140.570	13.658	1286.794	957.560
141.585	13.775	1285.164	956.934
142.600	13.741	1284.341	956.043
143.614	13.771	1283.422	955.447
144.629	13.770	1282.038	954.328
145.643	13.766	1280.862	953.343
146.658	13.761	1279.777	952.421
147.673	13.820	1278.189	951.493
148.687	13.839	1277.224	950.803
149.702	13.744	1276.081	949.325
150.716	13.745	1274.693	948.212
151.731	13.762	1273.396	947.262
152.746	13.741	1272.620	946.478
153.760	13.789	1271.551	945.874
154.775	13.833	1270.255	945.076
155.789	13.955	1268.575	944.435
156.804	13.861	1267.922	943.333
157.819	13.871	1266.681	942.381
158.833	13.891	1265.827	941.778
159.848	13.979	1264.832	941.452
160.862	14.004	1263.786	940.735
161.877	13.924	1262.767	939.438
162.892	13.811	1262.040	938.178
163.906	13.983	1260.618	938.005
164.921	13.882	1260.183	937.031
165.935	14.028	1258.919	936.831
166.950	13.929	1258.301	935.727
167.964	13.927	1257.558	935.083
168.979	13.890	1257.278	934.582
169.994	14.013	1255.888	934.158
171.008	14.059	1255.456	934.014
172.023	14.020	1254.605	933.081
173.037	14.079	1253.533	932.532
174.052	14.020	1252.447	931.310
175.067	14.041	1251.345	930.525
176.081	14.012	1250.610	929.737
177.096	14.117	1249.307	929.272
178.110	14.077	1248.354	928.257
179.125	14.082	1247.222	927.362
180.140	14.120	1245.680	926.344
181.154	14.062	1244.592	925.132
182.169	14.061	1243.432	924.179
183.183	14.218	1242.310	924.134
184.198	14.236	1241.149	923.291
185.213	14.304	1239.929	922.679
186.227	14.216	1238.670	921.173
187.242	14.317	1237.617	920.865
188.256	14.398	1236.631	920.498
189.271	14.216	1236.081	919.001
190.286	14.268	1234.936	918.358
191.300	14.138	1234.332	917.110
192.315	14.027	1233.807	916.026
193.329	14.149	1232.677	915.776
194.344	14.133	1232.277	915.310
195.359	14.207	1232.171	915.560
196.373	14.404	1230.736	915.495
197.388	14.296	1230.202	914.423
198.402	14.280	1230.320	914.343
199.417	14.381	1229.418	914.146
200.432	14.375	1228.363	913.249
201.446	14.426	1227.674	912.935
202.461	14.498	1226.236	912.175
203.475	14.568	1225.638	912.037
204.490	14.465	1224.120	910.260
205.504	14.550	1223.014	909.824
206.519	14.478	1221.908	908.528
207.534	14.402	1220.889	907.273
208.548	14.418	1220.250	906.805
209.563	14.479	1219.526	906.521
210.577	14.542	1218.435	905.972
211.592	14.639	1217.105	905.428
212.607	14.594	1216.554	904.692
213.621	14.556	1215.815	903.858
214.636	14.490	1214.781	902.653
215.650	14.677	1213.335	902.510
216.665	14.685	1212.634	901.953
217.680	14.818	1211.527	901.769
218.694	14.747	1210.878	900.821
219.709	14.760	1210.458	900.501
220.723	14.672	1209.729	899.403
221.738	14.800	1208.659	899.216
222.753	14.718	1208.096	898.278
223.767	14.690	1207.538	897.630
224.782	14.838	1206.576	897.633
225.796	14.851	1205.904	897.125
226.811	14.936	1205.099	896.903
227.826	14.776	1204.742	895.697
228.840	14.661	1204.550	894.857
229.855	14.902	1203.059	894.963
230.869	14.855	1202.094	893.914
231.884	14.829	1201.515	893.264
232.899	14.832	1200.715	892.610
233.913	14.739	1200.466	891.846
234.928	14.767	1199.508	891.204
235.942	14.876	1198.475	890.939
236.957	14.880	1197.613	890.242
237.972	14.825	1196.951	889.376
238.986	14.863	1195.943	888.753
240.001	14.922	1195.485	888.646
241.015	14.854	1194.570	887.528
242.030	14.906	1193.785	887.140
243.045	15.010	1192.808	886.888
244.059	14.794	1193.032	885.833
245.074	14.913	1191.670	885.373
246.088	14.993	1190.880	885.131
247.103	15.003	1189.964	884.423
248.117	15.121	1189.153	884.363
249.132	15.157	1188.702	884.144
250.147	15.238	1187.438	883.550
251.161	15.156	1187.194	882.859
252.176	15.238	1186.289	882.537
253.190	15.224	1185.434	881.752
254.205	15.194	1185.302	881.416
255.220	15.322	1183.976	881.025
256.234	15.291	1183.896	880.726
257.249	15.291	1183.019	879.995
258.263	15.328	1182.389	879.641
259.278	15.444	1181.215	879.298
260.293	15.525	1180.348	879.000
261.307	15.361	1180.564	878.226
262.322	15.437	1179.826	877.996
263.336	15.363	1179.269	877.118
264.351	15.558	1178.400	877.412
265.366	15.502	1177.515	876.382
266.380	15.507	1176.594	875.647
267.395	15.407	1176.323	874.847
268.409	15.447	1175.359	874.258
269.424	15.478	1174.748	873.890
270.439	15.458	1174.435	873.475
271.453	15.636	1173.000	873.254
272.468	15.480	1172.696	872.141
273.482	15.578	1172.118	872.140
274.497	15.509	1171.458	871.216
275.512	15.619	1170.590	871.065
276.526	15.653	1169.504	870.355
277.541	15.565	1168.748	869.258
278.555	15.646	1168.233	869.218
279.570	15.580	1167.946	868.587
280.585	15.681	1166.566	868.004
281.599	15.737	1165.592	867.493
282.614	15.658	1164.919	866.509
283.628	15.683	1163.829	865.751
284.643	15.755	1162.587	865.117
285.657	15.738	1161.838	864.396
286.672	15.808	1160.883	863.969
287.687	15.676	1160.451	862.894
288.701	15.799	1159.461	862.710
289.716	15.885	1158.638	862.463
290.730	15.777	1157.855	861.251
291.745	15.789	1157.367	860.875
292.760	15.840	1156.584	860.479
293.774	15.848	1155.801	859.858
294.789	15.865	1155.340	859.525
295.803	15.963	1154.523	859.342
296.818	15.894	1153.945	858.483
297.833	15.882	1153.428	857.960
298.847	15.973	1152.676	857.790
299.862	16.005	1151.609	857.085
300.876	15.906	1150.731	855.850
301.891	16.052	1149.832	855.850
302.906	15.908	1149.438	854.751
303.920	16.114	1148.247	854.831
304.935	16.119	1147.610	854.307
305.949	16.162	1147.110	854.076
306.964	16.249	1146.370	853.891
307.979	16.164	1145.637	852.837
308.993	16.138	1145.274	852.360
310.008	16.152	1144.568	851.831
311.022	16.060	1144.295	851.087
312.037	16.252	1142.385	850.561
313.052	16.227	1141.570	849.751
314.066	16.086	1141.013	848.553
315.081	16.069	1139.897	847.561
316.095	16.187	1139.200	847.561
317.110	16.192	1138.505	846.997
318.125	16.158	1137.698	846.150
319.139	16.161	1137.064	845.621
320.154	16.118	1136.833	845.158
321.168	16.225	1135.764	844.823
322.183	16.197	1135.234	844.213
323.197	16.255	1134.385	843.796
324.212	16.182	1134.119	843.158
325.227	16.195	1133.424	842.632
326.241	16.294	1132.632	842.463
327.256	16.336	1131.829	842.003
328.270	16.217	1130.697	840.494
329.285	16.281	1130.156	840.336
330.300	16.335	1128.776	839.500
331.314	16.432	1127.707	839.113
332.329	16.305	1127.033	837.909
333.343	16.384	1126.107	837.539
334.358	16.296	1125.431	836.524
335.373	16.337	1124.865	836.233
336.387	16.430	1123.809	835.836
337.402	16.494	1122.868	835.376
338.416	16.436	1122.493	834.740
339.431	16.470	1121.806	834.323
340.446	16.485	1121.097	833.792
341.460	16.579	1120.199	833.516
342.475	16.644	1119.270	833.070
343.489	16.625	1118.413	832.265
344.504	16.737	1117.241	831.872
345.519	16.660	1116.986	831.226
346.533	16.610	1116.281	830.387
347.548	16.729	1115.171	830.067
348.562	16.674	1114.595	829.297
349.577	16.725	1113.359	828.554
350.592	16.701	1113.074	828.153
351.606	16.732	1112.343	827.685
352.621	16.701	1111.690	826.974
353.635	16.687	1110.781	826.158
354.650	16.772	1110.201	826.065
355.665	16.700	1109.657	825.240
356.679	16.696	1109.257	824.846
357.694	16.724	1108.432	824.296
358.708	16.887	1107.364	824.222
359.723	16.811	1106.899	823.433
360.738	16.841	1106.223	823.006
361.752	16.781	1106.000	822.476
362.767	16.890	1104.809	822.044
363.781	16.831	1104.706	821.611
364.796	16.904	1104.047	821.402
365.810	16.991	1103.175	821.102
366.825	16.954	1102.431	820.294
367.840	16.995	1102.047	820.134
368.854	17.120	1101.378	820.169
369.869	17.043	1100.867	819.344
370.883	17.064	1099.596	818.427
371.898	17.079	1098.733	817.782
372.913	17.049	1098.377	817.304
373.927	17.111	1098.124	817.339
374.942	17.016	1097.395	816.268
375.956	17.116	1096.815	816.243
376.971	17.050	1096.443	815.578
377.986	17.047	1096.179	815.296
379.000	17.142	1095.187	814.943
380.015	17.276	1094.144	814.735
381.029	17.316	1093.577	814.432
382.044	17.240	1093.271	813.771
383.059	17.300	1092.421	813.351
384.073	17.310	1091.312	812.501
385.088	17.414	1090.023	811.966
386.102	17.473	1089.023	811.432
387.117	17.419	1088.298	810.562
388.132	17.281	1088.002	809.612
389.146	17.241	1086.934	808.556
390.161	17.329	1086.547	808.615
391.175	17.329	1085.452	807.728
392.190	17.381	1085.061	807.614
393.205	17.388	1084.397	807.082
394.219	17.394	1083.272	806.202
395.234	17.394	1082.168	805.306
396.248	17.419	1081.371	804.759
397.263	17.316	1080.254	803.373
398.278	17.344	1079.837	803.123
399.292	17.405	1078.967	802.693
400.307	17.561	1077.869	802.540
401.321	17.382	1077.558	801.394
402.336	17.371	1077.063	800.905
403.350	17.393	1076.453	800.484
404.365	17.578	1075.138	800.304
405.380	17.574	1074.929	800.059
406.394	17.607	1073.989	799.444
407.409	17.570	1073.407	798.765
408.423	17.653	1072.263	798.231
409.438	17.623	1071.736	797.628
410.453	17.702	1071.320	797.616
411.467	17.782	1070.082	796.998
412.482	17.737	1069.818	796.523
413.496	17.752	1068.729	795.711
414.511	17.781	1068.250	795.419
415.526	17.800	1067.985	795.242
416.540	17.843	1067.804	795.234
417.555	17.778	1067.074	794.319
418.569	17.888	1066.560	794.378
419.584	17.891	1066.127	793.997
420.599	17.821	1065.517	793.147
421.613	109.347	1333.569	1492.782
422.628	101.071	1372.565	1492.843
