DTS Sentinel unit serial number:	SN413079Multiplexer serial number:	ORYXHardware model number:	OX4-SRSoftware version number:	ORYX F/W v4.00 Oryx Data Collector v3.7.2.0data status	okinstallation	princeton_trtdifferential loss correction	single-endedforward channel	channel 2reverse channel	N/Adate	2019/09/17time	21:11:35forward acquisition time	60.00reverse acquisition time	0.00gamma	496.2192k internal	0.2338k external	0.2338temperature offset calibration	0.9987default loss term (dB/km)	0.3790temperature slope calibration	1.0000multiplexer offset coefficient	1.0000multiplexer slope coefficient	1.0000fibre end	0.00T internal ref (°C)	28.03T ext. ref 1 (°C)	0.20T ext. ref 2 (°C)	19.71length (m)	temperature (°C)	Stokes	anti-Stokes-747.200	97.002	-0.187	0.215
-746.185	50.066	-0.308	0.291
-745.171	-200.000	-0.036	0.202
-744.156	167.588	-0.131	0.186
-743.142	-50.082	0.254	-0.121
-742.127	-137.230	0.125	0.014
-741.112	-101.562	0.248	-0.060
-740.098	114.350	-0.322	0.393
-739.083	14.825	-0.153	-0.120
-738.069	-75.157	-0.027	0.010
-737.054	-34.811	0.352	0.193
-736.039	-165.813	-0.273	0.012
-735.025	-25.474	0.216	-0.128
-734.010	-134.452	-0.181	-0.022
-732.996	-132.805	-0.215	-0.028
-731.981	484.306	-0.083	0.189
-730.966	-94.730	0.166	-0.045
-729.952	-200.000	-0.004	0.059
-728.937	-75.094	0.119	-0.043
-727.923	44.274	-0.342	0.314
-726.908	207.307	-0.061	-0.095
-725.894	-90.096	-0.241	-0.071
-724.879	-44.243	-0.048	0.024
-723.864	-102.901	-0.226	-0.054
-722.850	466.343	-0.206	-0.462
-721.835	82.582	-0.149	-0.162
-720.821	187.385	-0.073	-0.110
-719.806	561.191	-0.126	0.306
-718.791	-188.830	0.101	0.001
-717.777	-10.963	-0.239	-0.158
-716.762	-200.000	-0.004	-0.255
-715.748	-158.373	0.108	0.006
-714.733	-111.388	0.262	-0.054
-713.718	-200.000	0.045	0.456
-712.704	-200.000	0.062	-0.280
-711.689	30.782	0.217	-0.186
-710.675	-200.000	0.005	-0.145
-709.660	614.522	0.103	0.259
-708.645	-120.695	0.528	0.089
-707.631	127.948	0.235	0.300
-706.616	-47.034	0.302	-0.148
-705.602	-0.943	0.134	0.095
-704.587	800.000	-0.117	0.352
-703.572	-86.097	-0.120	-0.037
-702.558	-62.336	0.333	-0.139
-701.543	639.880	-0.149	0.380
-700.529	800.000	0.084	0.365
-699.514	-138.581	0.201	-0.022
-698.499	-54.949	-0.267	-0.121
-697.485	-200.000	0.077	-0.388
-696.470	800.000	0.025	0.071
-695.456	761.248	0.039	-0.105
-694.441	521.441	0.098	0.230
-693.426	-89.478	-0.324	0.095
-692.412	-200.000	-0.036	-0.335
-691.397	529.267	-0.151	-0.357
-690.383	-38.537	0.331	-0.175
-689.368	277.456	0.188	-0.335
-688.354	18.628	0.165	-0.132
-687.339	1.456	-0.258	-0.186
-686.324	-39.377	0.274	0.144
-685.310	178.837	-0.171	-0.250
-684.295	800.000	-0.032	-0.116
-683.281	236.538	0.185	-0.306
-682.266	-65.514	-0.130	-0.052
-681.251	303.329	0.178	-0.331
-680.237	-162.755	-0.050	-0.002
-679.222	1.994	0.372	0.268
-678.208	431.643	-0.066	-0.142
-677.193	271.276	-0.179	-0.316
-676.178	-108.258	0.292	0.063
-675.164	-56.869	-0.248	0.110
-674.149	-3.945	0.350	0.243
-673.135	-14.255	-0.342	-0.220
-672.120	71.649	0.063	-0.065
-671.105	800.000	0.085	-0.274
-670.091	-87.300	-0.203	-0.061
-669.076	-136.785	-0.262	-0.030
-668.062	381.987	0.136	0.279
-667.047	-137.088	0.357	0.041
-666.032	-136.032	-0.479	-0.056
-665.018	13.500	-0.171	-0.133
-664.003	17.408	0.048	0.038
-662.989	-128.140	-0.351	0.050
-661.974	3.280	0.249	0.181
-660.959	24.853	0.106	-0.088
-659.945	41.502	-0.102	-0.092
-658.930	800.000	-0.017	-0.063
-657.916	-135.839	0.358	-0.042
-656.901	-23.229	-0.262	0.158
-655.886	800.000	-0.110	-0.355
-654.872	-99.038	-0.177	0.045
-653.857	426.756	0.021	-0.044
-652.843	-40.355	0.093	-0.048
-651.828	-200.000	0.068	0.316
-650.814	-200.000	-0.012	-0.217
-649.799	31.893	-0.020	-0.017
-648.784	-134.219	0.115	-0.014
-647.770	-149.363	0.126	0.010
-646.755	800.000	-0.081	0.325
-645.741	800.000	0.087	-0.302
-644.726	-151.689	0.102	0.007
-643.711	-31.275	0.402	-0.226
-642.697	800.000	0.028	-0.083
-641.682	-91.358	0.223	0.064
-640.668	-130.067	-0.229	0.031
-639.653	-112.420	0.144	0.029
-638.638	-36.638	0.124	0.067
-637.624	800.000	0.082	0.259
-636.609	27.950	-0.132	-0.112
-635.595	-142.916	0.283	-0.027
-634.580	800.000	-0.059	-0.236
-633.565	-51.854	-0.234	-0.109
-632.551	-200.000	-0.030	0.205
-631.536	-71.432	-0.158	0.059
-630.522	-12.279	-0.280	0.183
-629.507	-23.628	-0.126	0.075
-628.492	-200.000	-0.016	-0.339
-627.478	-138.293	-0.218	-0.024
-626.463	-200.000	0.021	-0.093
-625.449	-9.274	-0.219	-0.146
-624.434	138.982	-0.065	0.086
-623.419	-145.128	-0.060	-0.005
-622.405	236.862	0.034	-0.056
-621.390	73.067	-0.360	-0.376
-620.376	-98.790	0.255	0.065
-619.361	-105.000	0.498	0.114
-618.346	-48.882	0.046	-0.022
-617.332	-200.000	-0.001	0.111
-616.317	-200.000	0.013	-0.088
-615.303	-38.497	-0.118	-0.062
-614.288	131.538	-0.183	0.235
-613.273	168.793	0.235	-0.335
-612.259	-87.506	-0.315	-0.095
-611.244	-144.259	0.018	0.002
-610.230	294.308	0.138	0.251
-609.215	-200.000	0.052	-0.421
-608.201	800.000	0.060	-0.263
-607.186	-200.000	-0.005	-0.110
-606.171	-167.936	0.172	0.007
-605.157	800.000	-0.070	0.257
-604.142	273.944	-0.090	0.159
-603.128	-200.000	0.002	-0.193
-602.113	66.133	-0.154	-0.156
-601.098	-122.764	-0.220	0.035
-600.084	12.139	0.075	-0.057
-599.069	-200.000	0.044	-0.310
-598.055	66.312	0.291	-0.295
-597.040	205.903	0.139	-0.216
-596.025	-200.000	0.021	-0.177
-595.011	76.534	-0.084	-0.089
-593.996	279.845	0.109	0.194
-592.982	2.615	0.204	0.147
-591.967	460.609	-0.062	-0.138
-590.952	800.000	0.052	-0.166
-589.938	464.661	0.055	0.123
-588.923	-100.071	0.038	0.010
-587.909	-200.000	0.054	0.287
-586.894	78.979	0.135	0.144
-585.879	800.000	0.052	0.208
-584.865	800.000	-0.047	-0.194
-583.850	-157.706	0.133	0.008
-582.836	220.002	0.141	0.225
-581.821	-61.990	0.145	0.060
-580.806	150.272	0.098	0.133
-579.792	-85.734	0.143	0.044
-578.777	-44.676	-0.121	-0.060
-577.763	-42.949	-0.093	0.047
-576.748	-70.208	-0.225	0.085
-575.733	10.238	0.049	-0.037
-574.719	-16.867	-0.280	-0.176
-573.704	-200.000	-0.013	0.357
-572.690	-119.254	-0.186	-0.032
-571.675	629.383	-0.147	-0.371
-570.661	-7.158	-0.325	-0.220
-569.646	159.410	-0.215	-0.299
-568.631	111.188	0.213	-0.255
-567.617	44.687	0.058	-0.053
-566.602	-200.000	0.007	-0.313
-565.588	68.481	-0.160	-0.164
-564.573	-200.000	-0.005	-0.049
-563.558	800.000	0.031	-0.100
-562.544	800.000	0.082	-0.282
-561.529	-100.332	-0.234	-0.058
-560.515	586.605	-0.075	-0.183
-559.500	-49.573	-0.387	-0.183
-558.485	-10.078	0.112	-0.074
-557.471	-200.000	-0.064	0.371
-556.456	-98.940	0.257	-0.065
-555.442	2.722	-0.043	-0.031
-554.427	-200.000	-0.002	-0.049
-553.412	800.000	0.043	-0.125
-552.398	32.257	0.142	-0.122
-551.383	182.630	0.052	0.076
-550.369	-48.494	-0.184	-0.088
-549.354	301.345	0.130	-0.238
-548.339	163.199	0.213	-0.298
-547.325	-33.974	-0.156	-0.086
-546.310	682.267	-0.156	-0.406
-545.296	-118.447	-0.180	-0.032
-544.281	-200.000	0.006	-0.228
-543.266	51.659	-0.075	-0.071
-542.252	611.811	-0.079	0.197
-541.237	800.000	-0.042	0.178
-540.223	192.503	-0.147	0.220
-539.208	800.000	0.068	0.191
-538.193	-24.218	-0.201	0.119
-537.179	10.912	-0.210	0.160
-536.164	-200.000	0.022	0.261
-535.150	253.416	-0.094	0.160
-534.135	66.394	-0.272	0.275
-533.121	800.000	0.040	0.156
-532.106	-200.000	0.002	0.013
-531.091	155.685	-0.158	-0.217
-530.077	-200.000	0.007	-0.120
-529.062	-27.014	-0.165	0.096
-528.048	800.000	0.069	-0.201
-527.033	-191.806	0.340	0.003
-526.018	800.000	0.096	0.277
-525.004	556.732	0.053	0.127
-523.989	301.751	0.048	-0.088
-522.975	61.031	0.023	-0.022
-521.960	186.392	0.166	0.245
-520.945	79.198	-0.213	-0.227
-519.931	202.465	-0.140	-0.215
-518.916	-69.862	-0.364	0.138
-517.902	25.274	-0.086	-0.071
-516.887	79.528	0.237	-0.253
-515.872	-22.611	-0.233	-0.140
-514.858	237.782	0.136	-0.224
-513.843	-200.000	-0.016	-0.296
-512.829	-200.000	0.002	0.252
-511.814	-47.325	0.073	-0.035
-510.799	72.902	-0.392	-0.407
-509.785	-28.331	-0.415	-0.238
-508.770	-200.000	0.014	-0.190
-507.756	-46.644	0.176	-0.086
-506.741	405.939	-0.101	0.213
-505.726	-200.000	0.013	-0.131
-504.712	-0.949	0.123	-0.087
-503.697	91.923	0.302	0.338
-502.683	-62.942	-0.264	-0.108
-501.668	187.279	-0.094	-0.139
-500.653	10.740	-0.095	-0.072
-499.639	3.316	-0.085	0.061
-498.624	586.514	0.032	-0.077
-497.610	-84.755	-0.291	-0.091
-496.595	-200.000	-0.007	0.488
-495.581	145.823	-0.032	0.042
-494.566	-121.355	-0.305	0.050
-493.551	-45.604	0.131	-0.065
-492.537	510.089	-0.045	-0.105
-491.522	-200.000	-0.028	0.532
-490.508	781.673	0.019	0.051
-489.493	158.712	0.166	0.229
-488.478	88.918	-0.253	0.280
-487.464	535.733	0.013	-0.030
-486.449	50.457	0.144	0.135
-485.435	-200.000	0.001	-0.201
-484.420	-200.000	-0.006	0.207
-483.405	800.000	-0.079	0.239
-482.391	-14.741	-0.253	-0.161
-481.376	18.340	0.121	-0.096
-480.362	-39.916	0.311	-0.161
-479.347	-67.031	0.172	-0.067
-478.332	-104.167	-0.191	-0.044
-477.318	654.439	-0.132	-0.336
-476.303	-101.566	0.086	-0.021
-475.289	-22.370	-0.169	0.101
-474.274	18.922	-0.181	0.144
-473.259	-70.908	-0.199	-0.075
-472.245	-87.820	-0.330	0.099
-471.230	306.860	0.081	0.150
-470.216	191.346	0.175	-0.262
-469.201	16.464	-0.164	-0.128
-468.186	19.440	0.166	0.133
-467.172	-200.000	0.011	0.205
-466.157	-44.530	0.310	0.154
-465.143	75.304	0.150	0.157
-464.128	-31.266	0.180	-0.100
-463.113	246.872	0.141	0.237
-462.099	721.047	0.056	0.149
-461.084	800.000	0.156	0.492
-460.070	767.766	-0.120	-0.324
-459.055	4.346	-0.166	0.121
-458.040	321.111	0.046	-0.087
-457.026	-108.072	0.291	-0.063
-456.011	-105.595	-0.338	0.076
-454.997	111.819	0.142	0.170
-453.982	-199.316	-0.158	-0.001
-452.968	-154.696	0.168	-0.011
-451.953	-200.000	0.009	-0.039
-450.938	38.294	0.148	-0.131
-449.924	-70.541	0.180	-0.068
-448.909	508.096	0.029	0.066
-447.895	-200.000	0.033	-0.166
-446.880	-27.358	-0.183	0.105
-445.865	217.953	0.102	-0.161
-444.851	800.000	-0.080	0.238
-443.836	-167.017	0.218	-0.009
-442.822	-200.000	0.014	0.259
-441.807	-106.295	-0.183	-0.041
-440.792	-200.000	-0.064	0.351
-439.778	-37.129	-0.200	-0.106
-438.763	-200.000	-0.043	0.391
-437.749	269.952	0.173	-0.301
-436.734	26.528	0.437	0.363
-435.719	-200.000	0.057	0.265
-434.705	-55.687	0.122	0.054
-433.690	-200.000	-0.008	0.325
-432.676	800.000	-0.093	0.383
-431.661	-111.128	0.208	0.042
-430.646	80.216	0.245	0.261
-429.632	717.491	0.104	-0.274
-428.617	155.808	-0.151	0.206
-427.603	800.000	-0.060	0.258
-426.588	41.238	0.220	0.197
-425.573	-121.747	0.111	-0.018
-424.559	-104.222	-0.211	-0.049
-423.544	-8.569	-0.299	0.199
-422.530	-27.352	0.380	-0.219
-421.515	-16.180	0.175	0.110
-420.500	-200.000	-0.002	0.114
-419.486	800.000	0.031	-0.125
-418.471	-26.727	-0.299	-0.173
-417.457	513.694	0.078	0.179
-416.442	392.226	-0.211	-0.435
-415.428	800.000	-0.169	-0.556
-414.413	-164.993	-0.213	0.009
-413.398	377.211	-0.062	-0.125
-412.384	-10.971	-0.269	-0.176
-411.369	-200.000	-0.005	0.155
-410.355	409.063	-0.090	0.188
-409.340	52.126	0.164	0.154
-408.325	-200.000	0.021	-0.237
-407.311	239.241	0.029	0.048
-406.296	-54.838	0.139	0.062
-405.282	-66.589	-0.076	-0.030
-404.267	-200.000	-0.001	0.113
-403.252	-200.000	0.023	0.167
-402.238	265.571	0.174	0.300
-401.223	-200.000	-0.009	-0.317
-400.209	130.327	0.225	-0.285
-399.194	83.106	0.052	-0.056
-398.179	-95.439	-0.124	-0.033
-397.165	-33.533	-0.220	0.120
-396.150	675.326	0.048	0.125
-395.136	-107.172	0.277	-0.060
-394.121	258.733	-0.096	-0.164
-393.106	-77.592	0.066	0.023
-392.092	-200.000	0.023	0.175
-391.077	291.744	0.154	-0.277
-390.063	255.035	-0.105	-0.178
-389.048	68.863	0.139	-0.141
-388.033	675.851	0.113	0.291
-387.019	744.153	0.099	0.264
-386.004	-81.625	-0.340	0.110
-384.990	-200.000	-0.003	0.170
-383.975	-200.000	-0.008	-0.200
-382.960	-200.000	0.006	-0.147
-381.946	-109.124	-0.259	0.054
-380.931	18.511	-0.113	0.090
-379.917	237.847	0.193	0.316
-378.902	-35.063	-0.219	-0.118
-377.888	-161.357	-0.082	0.004
-376.873	175.847	0.175	-0.251
-375.858	-200.000	0.009	-0.370
-374.844	-89.307	0.045	-0.013
-373.829	-86.648	-0.360	-0.109
-372.815	-123.038	-0.171	-0.027
-371.800	5.390	0.238	-0.173
-370.785	-200.000	0.004	-0.022
-369.771	-97.279	0.040	0.010
-368.756	-147.519	0.186	0.015
-367.742	220.843	-0.171	-0.271
-366.727	182.673	0.060	-0.087
-365.712	-30.525	0.027	-0.015
-364.698	54.383	0.266	-0.253
-363.683	-173.704	-0.446	-0.013
-362.669	-156.042	0.274	-0.017
-361.654	-184.706	-0.025	-0.000
-360.639	-64.031	0.130	0.052
-359.625	451.873	-0.099	0.217
-358.610	70.407	-0.084	-0.086
-357.596	-83.319	-0.107	-0.034
-356.581	-193.184	-0.329	0.003
-355.566	800.000	0.069	-0.248
-354.552	-200.000	0.008	0.194
-353.537	82.348	-0.052	0.056
-352.523	800.000	0.085	-0.243
-351.508	118.619	0.158	-0.192
-350.493	800.000	-0.087	-0.267
-349.479	800.000	-0.094	-0.283
-348.464	-73.610	0.133	0.048
-347.450	90.204	-0.092	-0.101
-346.435	-168.670	0.223	0.008
-345.420	-152.697	0.020	0.001
-344.406	-7.257	-0.155	-0.104
-343.391	-94.077	0.235	0.064
-342.377	-175.433	-0.156	0.004
-341.362	585.127	-0.056	-0.135
-340.348	208.554	-0.075	-0.115
-339.333	419.470	-0.071	-0.151
-338.318	-200.000	-0.011	-0.162
-337.304	323.428	0.115	0.217
-336.289	800.000	0.029	-0.084
-335.275	128.020	-0.234	0.294
-334.260	126.867	0.175	0.219
-333.245	53.674	-0.100	-0.095
-332.231	-200.000	-0.004	0.025
-331.216	-17.936	0.255	-0.158
-330.202	301.137	-0.100	-0.182
-329.187	82.792	-0.229	-0.246
-328.172	-200.000	-0.033	-0.179
-327.158	70.727	-0.092	0.094
-326.143	46.271	0.113	0.104
-325.129	-139.457	0.043	-0.005
-324.114	-87.353	-0.143	-0.043
-323.099	-200.000	-0.088	-0.397
-322.085	34.502	0.095	-0.082
-321.070	-14.399	0.101	-0.064
-320.056	-106.290	-0.176	-0.039
-319.041	103.894	-0.233	0.270
-318.026	-96.251	0.263	0.069
-317.012	-200.000	-0.034	0.553
-315.997	800.000	0.021	-0.091
-314.983	-75.526	0.190	-0.067
-313.968	-200.000	0.051	0.395
-312.953	513.513	-0.098	0.227
-311.939	72.264	0.150	0.154
-310.924	151.565	-0.207	-0.278
-309.910	141.016	0.114	0.148
-308.895	90.429	0.213	0.235
-307.880	-200.000	-0.007	-0.107
-306.866	-129.504	0.170	-0.023
-305.851	33.593	0.125	-0.107
-304.837	800.000	0.043	-0.155
-303.822	282.893	-0.042	0.074
-302.807	90.889	-0.052	0.058
-301.793	619.403	0.141	0.349
-300.778	117.829	-0.122	0.148
-299.764	-154.063	-0.147	-0.010
-298.749	11.625	0.039	-0.029
-297.735	-200.000	0.009	0.238
-296.720	127.612	-0.152	0.191
-295.705	-105.748	-0.220	0.049
-294.691	29.158	-0.118	-0.099
-293.676	125.372	-0.282	-0.351
-292.662	9.306	-0.052	-0.039
-291.647	36.473	-0.087	-0.076
-290.632	-98.881	-0.048	-0.012
-289.618	-172.198	-0.251	-0.008
-288.603	404.388	-0.083	0.171
-287.589	376.694	-0.031	0.062
-286.574	-200.000	0.001	0.110
-285.559	-200.000	0.014	-0.134
-284.545	145.716	0.250	0.330
-283.530	755.019	-0.076	0.202
-282.516	304.862	-0.186	0.340
-281.501	50.279	-0.068	-0.064
-280.486	38.357	0.131	-0.115
-279.472	66.347	0.180	-0.181
-278.457	-127.400	0.137	0.020
-277.443	-86.539	-0.180	-0.055
-276.428	-37.029	0.196	-0.103
-275.413	239.696	0.245	0.401
-274.399	469.582	-0.122	-0.271
-273.384	169.189	-0.282	-0.396
-272.370	-83.831	-0.253	0.080
-271.355	-104.817	0.130	0.029
-270.340	-166.818	0.156	-0.006
-269.326	-113.171	0.107	-0.021
-268.311	-200.000	0.012	-0.116
-267.297	-200.000	0.042	-0.327
-266.282	-67.227	0.349	-0.135
-265.267	74.117	-0.194	0.201
-264.253	-68.231	-0.363	-0.139
-263.238	-200.000	0.011	-0.048
-262.224	-147.850	0.262	0.022
-261.209	141.253	-0.152	0.198
-260.195	47.711	-0.238	0.219
-259.180	-47.224	-0.128	-0.062
-258.165	-121.339	0.136	0.022
-257.151	67.038	0.093	0.093
-256.136	151.242	-0.048	0.065
-255.122	414.565	0.032	-0.066
-254.107	-27.296	0.262	0.150
-253.092	121.929	0.317	0.389
-252.078	553.041	0.145	-0.343
-251.063	101.787	0.117	-0.135
-250.049	135.304	0.066	-0.085
-249.034	45.472	-0.243	0.221
-248.019	109.920	-0.253	0.299
-247.005	-11.018	0.225	0.146
-245.990	50.629	-0.080	-0.075
-244.976	66.470	0.163	-0.163
-243.961	-200.000	-0.072	0.377
-242.946	264.721	0.135	-0.232
-241.932	130.301	0.170	-0.214
-240.917	-115.980	-0.110	-0.020
-239.903	-83.723	-0.109	0.034
-238.888	275.117	0.104	-0.181
-237.873	55.854	0.098	0.094
-236.859	371.541	0.099	0.197
-235.844	335.785	-0.038	-0.072
-234.830	-183.570	0.074	0.001
-233.815	208.689	0.073	0.112
-232.800	-36.469	-0.025	-0.013
-231.786	-200.000	0.002	-0.084
-230.771	-28.877	0.191	0.108
-229.757	-200.000	0.008	0.113
-228.742	-109.675	0.019	0.004
-227.727	-200.000	0.005	0.066
-226.713	-0.114	-0.199	0.139
-225.698	131.168	0.129	0.163
-224.684	778.089	-0.119	-0.320
-223.669	-200.000	0.023	-0.113
-222.655	-109.485	0.244	0.051
-221.640	49.766	0.044	0.040
-220.625	119.542	0.094	-0.115
-219.611	-200.000	0.006	0.085
-218.596	800.000	0.153	0.446
-217.582	-101.357	0.308	0.074
-216.567	800.000	0.008	0.033
-215.552	57.726	0.024	-0.023
-214.538	-113.838	-0.269	0.051
-213.523	227.281	-0.075	-0.120
-212.509	-118.309	0.250	-0.044
-211.494	55.145	0.201	-0.191
-210.479	338.803	-0.115	-0.221
-209.465	133.709	-0.082	0.104
-208.450	-32.357	-0.389	-0.213
-207.436	-59.654	0.290	-0.122
-206.421	-7.581	-0.262	-0.174
-205.406	-8.294	-0.192	0.127
-204.392	-70.160	0.147	0.055
-203.377	56.397	0.104	0.099
-202.363	88.403	0.215	0.235
-201.348	620.132	-0.101	-0.249
-200.333	5.624	0.290	-0.211
-199.319	-50.934	-0.263	0.121
-198.304	-200.000	0.014	0.244
-197.290	-200.000	0.002	0.497
-196.275	800.000	0.098	0.270
-195.260	242.580	0.156	0.256
-194.246	-19.657	-0.255	0.155
-193.231	-200.000	-0.001	0.108
-192.217	800.000	0.071	0.243
-191.202	800.000	0.051	-0.192
-190.187	-89.185	-0.199	0.058
-189.173	-122.621	-0.248	0.039
-188.158	167.534	-0.078	-0.108
-187.144	12.593	0.299	-0.227
-186.129	55.810	0.230	-0.219
-185.114	-82.193	-0.467	0.149
-184.100	-25.114	0.268	0.156
-183.085	148.969	-0.164	0.218
-182.071	-92.576	0.133	0.037
-181.056	-55.800	0.240	0.105
-180.042	239.370	0.113	-0.184
-179.027	800.000	0.058	-0.211
-178.012	101.105	-0.158	0.180
-176.998	-3.090	-0.312	-0.213
-175.983	-35.371	0.080	0.043
-174.969	-200.000	0.006	-0.066
-173.954	25.585	0.142	0.116
-172.939	-200.000	-0.024	0.223
-171.925	-81.471	0.478	0.154
-170.910	134.787	-0.078	0.099
-169.896	-200.000	-0.000	0.032
-168.881	-22.538	-0.064	0.038
-167.866	252.639	0.025	-0.042
-166.852	-120.014	0.158	0.027
-165.837	-196.599	0.194	-0.001
-164.823	-128.106	0.256	0.036
-163.808	-200.000	0.000	-0.085
-162.793	338.995	0.055	-0.105
-161.779	15.153	0.045	-0.035
-160.764	162.068	0.083	-0.114
-159.750	-135.621	-0.436	0.051
-158.735	-200.000	0.026	-0.285
-157.720	-200.000	-0.008	0.297
-156.706	-66.800	0.331	0.128
-155.691	721.244	-0.089	0.232
-154.677	52.882	-0.042	0.039
-153.662	140.467	-0.050	0.065
-152.647	-139.987	0.292	-0.030
-151.633	-200.000	-0.010	0.084
-150.618	13.924	0.185	-0.141
-149.604	-200.000	-0.002	0.165
-148.589	474.540	0.050	-0.110
-147.574	-170.035	-0.440	-0.015
-146.560	-45.897	0.172	-0.083
-145.545	55.399	-0.192	0.182
-144.531	122.903	0.171	-0.209
-143.516	800.000	0.057	0.165
-142.502	800.000	-0.122	-0.368
-141.487	-81.393	-0.104	0.034
-140.472	800.000	-0.155	-0.435
-139.458	-24.719	0.345	0.201
-138.443	75.450	0.193	0.200
-137.429	800.000	0.090	-0.282
-136.414	-34.580	0.269	0.144
-135.399	-74.896	-0.152	-0.053
-134.385	-83.231	0.357	-0.112
-133.370	800.000	-0.089	0.272
-132.356	-200.000	-0.048	-0.422
-131.341	-200.000	-0.088	-0.480
-130.326	106.947	-0.071	-0.083
-129.312	-4.789	0.250	0.169
-128.297	-52.977	0.088	-0.040
-127.283	-82.285	-0.385	-0.123
-126.268	-200.000	-0.003	-0.071
-125.253	800.000	0.044	-0.130
-124.239	12.107	-0.006	-0.005
-123.224	-200.000	0.006	-0.230
-122.210	445.196	0.048	-0.103
-121.195	-80.595	0.185	0.060
-120.180	-107.590	0.375	-0.080
-119.166	-53.090	-0.223	0.100
-118.151	-40.897	0.223	-0.113
-117.137	-66.827	-0.274	0.106
-116.122	800.000	0.124	0.395
-115.107	57.636	0.286	0.274
-114.093	429.748	0.141	0.299
-113.078	-137.359	0.166	-0.018
-112.064	120.719	0.255	0.310
-111.049	800.000	0.197	0.545
-110.034	20.472	0.213	-0.168
-109.020	537.257	-0.091	-0.212
-108.005	-71.050	0.131	0.048
-106.991	329.405	0.057	0.108
-105.976	-122.089	-0.089	-0.014
-104.962	-1.992	0.172	0.118
-103.947	800.000	-0.015	-0.040
-102.932	85.512	-0.141	-0.152
-101.918	770.051	-0.115	0.305
-100.903	-66.435	0.048	-0.018
-99.889	-73.813	0.264	0.094
-98.874	14.132	-0.072	0.055
-97.859	-56.237	0.188	0.082
-96.845	359.794	-0.081	0.158
-95.830	-165.598	0.281	-0.012
-94.816	94.573	0.165	0.183
-93.801	-19.332	-0.269	-0.163
-92.786	-37.437	0.290	0.151
-91.772	-179.159	0.077	0.002
-90.757	-86.255	0.276	0.083
-89.743	-200.000	-0.027	-0.268
-88.728	2.642	-0.090	0.064
-87.713	-200.000	-0.033	-0.191
-86.699	-187.670	-0.074	0.001
-85.684	-30.605	-0.206	-0.114
-84.670	-200.000	0.012	-0.112
-83.655	800.000	0.129	-0.538
-82.640	-36.731	-0.208	0.109
-81.626	550.129	-0.032	0.074
-80.611	-52.435	0.242	0.109
-79.597	-105.144	-0.275	0.061
-78.582	-91.499	0.262	-0.073
-77.567	300.131	0.098	-0.177
-76.553	258.364	0.178	-0.299
-75.538	384.810	0.182	-0.366
-74.524	-128.926	-0.076	-0.010
-73.509	-127.676	-0.243	-0.034
-72.494	-200.000	0.018	0.407
-71.480	-91.361	0.234	-0.065
-70.465	103.893	-0.218	0.250
-69.451	-108.979	0.239	0.050
-68.436	-37.997	0.306	0.159
-67.422	-73.821	0.147	-0.052
-66.407	-5.715	0.199	0.133
-65.392	-99.908	0.241	-0.059
-64.378	-89.024	-0.212	0.061
-63.363	-31.455	0.233	-0.128
-62.349	-52.997	-0.377	0.169
-61.334	18.090	-1.171	-0.912
-60.319	253.830	0.275	0.458
-59.305	-200.000	-0.162	-1.019
-58.290	794.405	0.406	1.091
-57.276	182.250	0.924	1.330
-56.261	-200.000	112.384	646.620
-55.246	500.098	1476.237	3324.997
-54.232	152.495	2644.547	3526.691
-53.217	97.446	2267.708	2543.194
-52.203	36.764	1888.090	1629.059
-51.188	31.185	1684.083	1410.953
-50.173	28.703	1643.063	1358.200
-49.159	49.259	1698.568	1559.171
-48.144	48.127	1712.936	1563.791
-47.130	30.807	1671.616	1397.447
-46.115	28.173	1657.347	1365.836
-45.100	27.938	1652.654	1360.159
-44.086	27.841	1650.327	1357.473
-43.071	27.914	1647.380	1355.538
-42.057	27.833	1645.664	1353.471
-41.042	27.959	1642.983	1352.141
-40.027	27.907	1641.418	1350.416
-39.013	27.829	1639.914	1348.549
-37.998	27.834	1638.352	1347.249
-36.984	27.920	1636.950	1346.678
-35.969	27.944	1635.441	1345.561
-34.954	28.097	1633.374	1344.930
-33.940	28.049	1631.812	1343.238
-32.925	28.030	1630.080	1341.618
-31.911	27.977	1628.584	1339.950
-30.896	28.013	1627.300	1339.099
-29.881	27.973	1625.470	1337.248
-28.867	27.958	1623.651	1335.593
-27.852	28.003	1622.245	1334.709
-26.838	28.035	1620.815	1333.714
-25.823	28.069	1619.686	1332.982
-24.809	28.090	1618.574	1332.166
-23.794	28.051	1617.061	1330.585
-22.779	28.030	1615.271	1328.903
-21.765	28.074	1613.907	1328.048
-20.750	28.001	1612.299	1326.144
-19.736	28.091	1610.758	1325.477
-18.721	28.030	1609.757	1324.156
-17.706	28.071	1607.926	1322.893
-16.692	28.003	1606.638	1321.288
-15.677	28.067	1605.044	1320.387
-14.663	28.085	1603.942	1319.558
-13.648	28.105	1602.585	1318.535
-12.633	28.173	1600.805	1317.507
-11.619	28.049	1599.506	1315.497
-10.604	28.020	1597.952	1313.958
-9.590	28.194	1596.454	1313.924
-8.575	28.101	1595.764	1312.632
-7.560	28.071	1594.781	1311.558
-6.546	28.099	1593.537	1310.681
-5.531	28.171	1592.135	1309.996
-4.517	28.108	1591.071	1308.614
-3.502	28.060	1589.865	1307.232
-2.487	28.138	1587.966	1306.173
-1.473	27.470	1575.810	1291.387
-0.458	23.775	1554.941	1248.331
0.556	17.907	1554.444	1209.934
1.571	15.039	1576.003	1205.969
2.586	14.384	1587.240	1209.707
3.600	13.070	1534.468	1160.153
4.615	7.374	1429.717	1043.469
5.629	1.529	1368.483	961.800
6.644	0.352	1361.013	949.058
7.659	0.208	1360.088	947.420
8.673	0.153	1359.174	946.355
9.688	0.078	1357.385	944.554
10.702	0.015	1354.231	941.884
11.717	2.898	1357.615	962.234
12.731	9.997	1368.399	1014.501
13.746	15.724	1376.953	1056.843
14.761	17.020	1377.667	1065.440
15.775	16.261	1375.577	1058.968
16.790	15.246	1372.782	1050.362
17.804	14.505	1370.817	1044.133
18.819	14.083	1369.554	1040.433
19.834	13.836	1368.218	1037.788
20.848	13.708	1366.863	1035.866
21.863	13.332	1366.100	1032.845
22.877	13.230	1364.711	1031.070
23.892	13.164	1363.802	1029.880
24.907	13.206	1362.482	1029.053
25.921	13.244	1361.627	1028.553
26.936	13.351	1361.079	1028.715
27.950	13.215	1360.297	1027.187
28.965	13.198	1359.495	1026.384
29.980	13.411	1358.158	1026.607
30.994	13.405	1357.586	1026.044
32.009	13.436	1356.462	1025.297
33.023	13.388	1355.177	1023.942
34.038	13.336	1354.408	1022.943
35.053	13.344	1352.917	1021.780
36.067	13.341	1351.458	1020.568
37.082	13.349	1351.082	1020.246
38.096	13.356	1349.865	1019.279
39.111	13.436	1348.772	1018.855
40.126	13.309	1348.459	1017.748
41.140	13.311	1347.128	1016.660
42.155	13.205	1346.943	1015.780
43.169	13.167	1347.143	1015.608
44.184	13.195	1346.850	1015.473
45.199	13.183	1345.940	1014.621
46.213	13.280	1345.283	1014.631
47.228	13.277	1344.556	1013.977
48.242	13.288	1343.051	1012.816
49.257	13.329	1341.894	1012.109
50.271	13.249	1340.738	1010.655
51.286	13.324	1339.232	1009.887
52.301	13.289	1337.687	1008.419
53.315	13.141	1337.539	1007.315
54.330	13.216	1335.658	1006.271
55.344	13.297	1334.606	1005.882
56.359	13.207	1333.760	1004.608
57.374	13.206	1332.884	1003.849
58.388	13.142	1332.203	1002.860
59.403	13.089	1331.540	1001.955
60.417	13.141	1330.521	1001.415
61.432	13.170	1329.737	1000.911
62.447	13.158	1328.606	999.897
63.461	13.061	1327.436	998.342
64.476	13.163	1326.483	998.149
65.490	13.083	1325.669	996.967
66.505	13.161	1324.166	996.218
67.520	13.161	1322.624	994.971
68.534	13.243	1321.732	994.703
69.549	13.160	1320.209	992.973
70.563	13.239	1319.237	992.628
71.578	13.027	1318.699	990.866
72.593	13.079	1317.734	990.362
73.607	12.961	1316.828	988.888
74.622	12.948	1316.661	988.595
75.636	13.087	1315.266	988.290
76.651	13.067	1314.043	987.164
77.666	13.027	1313.772	986.636
78.680	13.088	1313.396	986.634
79.695	13.002	1312.233	985.160
80.709	13.203	1311.421	985.660
81.724	13.074	1310.741	984.294
82.739	13.185	1310.141	984.417
83.753	13.166	1308.726	983.150
84.768	13.232	1307.577	982.594
85.782	13.341	1306.238	982.150
86.797	13.354	1304.840	981.086
87.812	13.210	1303.779	979.351
88.826	13.256	1303.072	979.006
89.841	13.302	1301.750	978.200
90.855	13.314	1301.169	977.748
91.870	13.340	1300.285	977.150
92.884	13.358	1299.598	976.649
93.899	13.384	1298.101	975.596
94.914	13.386	1297.510	975.076
95.928	13.434	1296.883	974.797
96.943	13.406	1295.966	973.863
97.957	13.319	1295.235	972.712
98.972	13.349	1294.311	972.109
99.987	13.413	1292.519	971.052
101.001	13.395	1291.743	970.281
102.016	13.331	1290.658	969.003
103.030	13.424	1289.664	968.718
104.045	13.341	1289.159	967.766
105.060	13.262	1287.842	966.228
106.074	13.290	1286.163	965.046
107.089	13.220	1285.337	963.933
108.103	13.084	1284.419	962.368
109.118	13.263	1282.979	962.243
110.133	13.194	1281.640	960.754
111.147	13.151	1279.934	959.138
112.162	13.254	1278.526	958.598
113.176	13.298	1277.837	958.254
114.191	13.321	1276.742	957.479
115.206	13.283	1275.766	956.445
116.220	13.302	1274.309	955.376
117.235	13.218	1273.468	954.178
118.249	13.432	1272.258	954.421
119.264	13.231	1271.567	952.658
120.279	13.218	1270.372	951.604
121.293	13.241	1268.994	950.616
122.308	13.177	1268.130	949.520
123.322	13.257	1266.940	949.003
124.337	13.138	1266.137	947.633
125.352	13.174	1265.138	947.011
126.366	13.219	1263.813	946.193
127.381	13.095	1263.038	944.819
128.395	13.247	1261.536	944.482
129.410	13.263	1260.775	943.919
130.424	13.299	1259.554	943.127
131.439	13.255	1259.067	942.429
132.454	13.207	1257.933	941.223
133.468	13.278	1257.017	940.857
134.483	13.247	1256.293	940.056
135.497	13.311	1254.910	939.299
136.512	13.266	1253.905	938.210
137.527	13.239	1252.714	937.083
138.541	13.285	1250.991	935.969
139.556	13.284	1249.919	935.081
140.570	13.388	1248.687	934.666
141.585	13.513	1247.125	934.116
142.600	13.487	1246.002	933.046
143.614	13.449	1245.531	932.397
144.629	13.442	1245.062	931.927
145.643	13.427	1243.576	930.647
146.658	13.461	1242.128	929.670
147.673	13.430	1240.803	928.422
148.687	13.318	1239.988	927.104
149.702	13.376	1238.426	926.177
150.716	13.204	1237.328	924.315
151.731	13.264	1236.261	923.771
152.746	13.246	1235.265	922.841
153.760	13.399	1233.384	922.207
154.775	13.548	1232.133	922.022
155.789	13.481	1231.591	921.164
156.804	13.478	1230.495	920.243
157.819	13.586	1229.722	920.184
158.833	13.550	1228.715	919.147
159.848	13.593	1227.861	918.668
160.862	13.485	1226.955	917.312
161.877	13.539	1225.424	916.385
162.892	13.440	1224.655	915.182
163.906	13.363	1224.086	914.246
164.921	13.531	1222.575	913.963
165.935	13.513	1221.859	913.252
166.950	13.401	1221.907	912.585
167.964	13.590	1220.688	912.636
168.979	13.454	1220.404	911.595
169.994	13.472	1219.465	910.910
171.008	13.622	1217.803	910.414
172.023	13.645	1217.231	910.031
173.037	13.511	1216.698	908.819
174.052	13.592	1215.698	908.433
175.067	13.544	1214.709	907.352
176.081	13.496	1213.857	906.371
177.096	13.641	1212.293	905.915
178.110	13.614	1211.620	905.185
179.125	13.721	1210.034	904.506
180.140	13.686	1208.767	903.286
181.154	13.708	1207.695	902.530
182.169	13.724	1206.889	901.930
183.183	13.708	1205.504	900.732
184.198	13.750	1204.220	899.920
185.213	13.813	1203.169	899.397
186.227	13.807	1202.274	898.616
187.242	13.808	1201.393	897.882
188.256	13.886	1200.481	897.543
189.271	13.853	1199.202	896.329
190.286	13.695	1198.380	894.781
191.300	13.622	1197.588	893.720
192.315	13.645	1196.514	892.962
193.329	13.739	1196.165	893.127
194.344	13.715	1195.720	892.586
195.359	13.897	1194.646	892.686
196.373	13.792	1194.406	891.861
197.388	13.913	1193.205	891.536
198.402	13.874	1193.282	891.306
199.417	14.007	1192.261	891.180
200.432	14.092	1191.194	890.759
201.446	14.024	1190.828	890.039
202.461	14.028	1190.055	889.403
203.475	14.207	1188.522	889.137
204.490	14.128	1187.202	887.651
205.504	14.071	1186.242	886.551
206.519	14.045	1185.028	885.423
207.534	13.933	1184.396	884.276
208.548	14.059	1182.784	883.665
209.563	14.064	1182.333	883.279
210.577	14.062	1181.494	882.561
211.592	14.180	1180.576	882.424
212.607	14.186	1179.581	881.632
213.621	14.141	1179.209	881.041
214.636	14.167	1178.049	880.231
215.650	14.246	1176.463	879.386
216.665	14.103	1176.346	878.467
217.680	14.165	1175.575	878.143
218.694	14.202	1174.604	877.533
219.709	14.180	1174.409	877.193
220.723	14.367	1172.910	876.979
221.738	14.338	1172.194	876.213
222.753	14.394	1171.001	875.537
223.767	14.334	1170.549	874.807
224.782	14.344	1170.210	874.532
225.796	14.424	1169.409	874.275
226.811	14.324	1169.140	873.474
227.826	14.253	1168.451	872.506
228.840	14.448	1167.564	872.789
229.855	14.384	1166.774	871.787
230.869	14.327	1166.263	871.029
231.884	14.317	1165.713	870.489
232.899	14.328	1164.565	869.611
233.913	14.418	1163.621	869.299
234.928	14.395	1162.749	868.452
235.942	14.327	1162.493	867.830
236.957	14.281	1161.609	866.855
237.972	14.420	1160.885	866.959
238.986	14.356	1160.265	866.085
240.001	14.417	1159.441	865.713
241.015	14.385	1158.352	864.659
242.030	14.433	1157.632	864.290
243.045	14.421	1156.951	863.646
244.059	14.405	1156.418	863.089
245.074	14.559	1155.157	862.866
246.088	14.626	1154.164	862.396
247.103	14.582	1153.580	861.657
248.117	14.619	1152.926	861.282
249.132	14.664	1152.217	860.905
250.147	14.715	1151.601	860.635
251.161	14.770	1151.332	860.640
252.176	14.881	1150.065	860.187
253.190	14.893	1149.300	859.600
254.205	14.756	1149.242	858.775
255.220	14.905	1148.201	858.686
256.234	14.839	1147.703	857.902
257.249	14.888	1146.710	857.334
258.263	14.946	1146.251	857.213
259.278	14.977	1145.922	857.052
260.293	14.897	1145.480	856.232
261.307	15.040	1144.716	856.316
262.322	14.977	1143.564	855.060
263.336	15.022	1143.136	854.891
264.351	14.963	1142.625	854.134
265.366	15.138	1141.821	854.350
266.380	15.061	1141.007	853.275
267.395	15.068	1140.019	852.492
268.409	15.042	1139.297	851.749
269.424	15.090	1139.018	851.708
270.439	15.164	1138.318	851.483
271.453	15.144	1137.591	850.765
272.468	14.979	1136.955	849.377
273.482	14.993	1135.927	848.603
274.497	15.090	1135.402	848.627
275.512	15.088	1135.034	848.266
276.526	15.114	1134.505	847.929
277.541	15.084	1133.417	846.890
278.555	15.130	1132.798	846.586
279.570	15.218	1131.841	846.239
280.585	15.203	1130.925	845.402
281.599	15.336	1130.087	845.373
282.614	15.213	1129.321	844.102
283.628	15.225	1127.866	843.005
284.643	15.093	1127.202	841.770
285.657	15.211	1126.589	841.828
286.672	15.307	1125.138	841.150
287.687	15.364	1124.352	840.772
288.701	15.276	1123.578	839.680
289.716	15.310	1122.784	839.182
290.730	15.284	1122.701	838.916
291.745	15.378	1121.646	838.523
292.760	15.459	1120.909	838.306
293.774	15.437	1120.556	837.857
294.789	15.402	1120.429	837.513
295.803	15.415	1119.180	836.571
296.818	15.418	1118.294	835.848
297.833	15.509	1117.545	835.668
298.847	15.497	1116.727	834.921
299.862	15.422	1116.113	834.015
300.876	15.490	1115.625	833.913
301.891	15.525	1115.204	833.700
302.906	15.594	1114.049	833.103
303.920	15.513	1114.021	832.607
304.935	15.751	1112.672	832.704
305.949	15.623	1112.368	831.772
306.964	15.640	1111.770	831.332
307.979	15.517	1111.222	830.243
308.993	15.604	1110.036	829.711
310.008	15.693	1109.192	829.449
311.022	15.717	1108.548	829.008
312.037	15.759	1107.454	828.324
313.052	15.704	1106.596	827.339
314.066	15.622	1105.972	826.396
315.081	15.693	1105.234	826.122
316.095	15.628	1104.593	825.250
317.110	15.712	1103.741	824.952
318.125	15.707	1102.885	824.216
319.139	15.723	1101.885	823.472
320.154	15.588	1102.001	822.829
321.168	15.706	1101.137	822.687
322.183	15.758	1100.251	822.207
323.197	15.691	1099.831	821.493
324.212	15.754	1099.219	821.268
325.227	15.740	1098.948	820.924
326.241	15.768	1098.136	820.382
327.256	15.767	1096.936	819.410
328.270	15.796	1096.091	818.845
329.285	15.874	1095.375	818.619
330.300	15.809	1094.408	817.508
331.314	15.801	1093.541	816.750
332.329	15.788	1092.655	815.954
333.343	15.976	1091.798	816.153
334.358	15.934	1091.008	815.285
335.373	15.930	1090.454	814.781
336.387	15.905	1089.946	814.207
337.402	16.015	1088.566	813.634
338.416	15.959	1088.154	812.983
339.431	16.059	1087.592	812.974
340.446	16.112	1087.192	812.861
341.460	16.168	1086.202	812.315
342.475	16.190	1085.607	811.908
343.489	16.116	1084.678	810.783
344.504	16.233	1083.770	810.594
345.519	16.215	1082.939	809.818
346.533	16.185	1082.226	809.068
347.548	16.331	1081.266	808.978
348.562	16.384	1080.451	808.547
349.577	16.198	1079.800	807.100
350.592	16.229	1079.174	806.711
351.606	16.235	1078.306	806.020
352.621	16.146	1077.543	804.950
353.635	16.229	1076.554	804.536
354.650	16.240	1076.388	804.396
355.665	16.310	1075.732	804.165
356.679	16.314	1074.708	803.351
357.694	16.370	1074.183	803.153
358.708	16.337	1073.650	802.528
359.723	16.330	1073.209	802.092
360.738	16.295	1072.526	801.344
361.752	16.369	1072.090	801.299
362.767	16.367	1071.502	800.780
363.781	16.430	1070.875	800.537
364.796	16.376	1070.331	799.802
365.810	16.399	1069.642	799.328
366.825	16.538	1068.876	799.344
367.840	16.494	1068.335	798.658
368.854	16.568	1067.804	798.540
369.869	16.614	1066.887	798.001
370.883	16.552	1066.338	797.225
371.898	16.659	1065.462	797.005
372.913	16.578	1065.466	796.557
373.927	16.605	1064.839	796.142
374.942	16.637	1064.119	795.686
375.956	16.640	1063.584	795.228
376.971	16.671	1062.829	794.740
377.986	16.568	1062.342	793.822
379.000	16.746	1061.810	794.191
380.015	16.854	1060.975	793.999
381.029	16.805	1060.771	793.549
382.044	16.741	1059.952	792.567
383.059	16.806	1059.146	792.196
384.073	16.904	1058.177	791.860
385.088	16.864	1057.536	791.124
386.102	16.896	1056.446	790.387
387.117	16.758	1055.618	789.057
388.132	16.801	1054.538	788.377
389.146	16.885	1053.659	788.040
390.161	16.777	1053.214	787.136
391.175	16.744	1052.446	786.339
392.190	16.896	1051.966	786.616
393.205	16.940	1051.321	786.269
394.219	16.881	1050.510	785.318
395.234	16.970	1049.725	785.076
396.248	16.946	1048.833	784.229
397.263	16.769	1047.840	782.597
398.278	16.817	1047.189	782.263
399.292	16.885	1046.312	781.853
400.307	16.900	1045.602	781.325
401.321	16.928	1045.149	781.045
402.336	16.917	1044.705	780.595
403.350	16.871	1043.823	779.653
404.365	16.836	1043.239	778.988
405.380	17.007	1042.340	779.034
406.394	17.022	1041.416	778.340
407.409	17.056	1040.881	778.027
408.423	17.048	1040.399	777.565
409.438	17.153	1039.476	777.285
410.453	17.251	1038.746	777.119
411.467	17.334	1037.943	776.828
412.482	17.265	1037.752	776.300
413.496	17.309	1036.809	775.729
414.511	17.285	1036.022	774.963
415.526	17.437	1035.570	775.248
416.540	17.407	1035.381	774.902
417.555	17.404	1034.664	774.281
418.569	17.322	1034.139	773.447
419.584	17.424	1033.832	773.613
420.599	17.469	1033.222	773.291
421.613	106.216	1325.581	1479.072
422.628	97.321	1368.097	1479.187
