DTS Sentinel unit serial number:	SN413079Multiplexer serial number:	ORYXHardware model number:	OX4-SRSoftware version number:	ORYX F/W v4.00 Oryx Data Collector v3.7.2.0data status	okinstallation	princeton_trtdifferential loss correction	single-endedforward channel	channel 2reverse channel	N/Adate	2019/09/13time	17:39:35forward acquisition time	60.00reverse acquisition time	0.00gamma	496.2192k internal	0.2316k external	0.2316temperature offset calibration	1.0221default loss term (dB/km)	0.3790temperature slope calibration	1.0000multiplexer offset coefficient	1.0000multiplexer slope coefficient	1.0000fibre end	0.00T internal ref (°C)	35.87T ext. ref 1 (°C)	5.36T ext. ref 2 (°C)	29.49length (m)	temperature (°C)	Stokes	anti-Stokes-747.200	253.600	-0.100	0.174
-746.185	590.437	0.056	0.139
-745.171	24.163	-0.117	-0.098
-744.156	-133.584	0.044	-0.006
-743.142	-200.000	0.006	-0.205
-742.127	353.484	-0.050	0.101
-741.112	469.664	-0.108	0.245
-740.098	112.318	-0.233	0.286
-739.083	-200.000	-0.017	0.173
-738.069	96.969	-0.094	-0.109
-737.054	800.000	0.025	-0.079
-736.039	-17.837	-0.296	-0.188
-735.025	203.803	-0.115	-0.181
-734.010	-63.870	-0.048	0.020
-732.996	-33.610	-0.258	-0.145
-731.981	-200.000	0.016	-0.348
-730.966	800.000	0.029	-0.086
-729.952	-51.529	-0.191	0.090
-728.937	-88.495	0.113	0.034
-727.923	197.215	-0.103	-0.159
-726.908	321.258	-0.121	0.233
-725.894	333.235	-0.181	0.354
-724.879	-200.000	-0.055	0.382
-723.864	-75.355	-0.205	-0.074
-722.850	-200.000	-0.009	-0.074
-721.835	-147.806	0.263	-0.022
-720.821	-47.884	-0.203	-0.100
-719.806	70.087	-0.039	-0.040
-718.791	-200.000	0.043	-0.000
-717.777	-200.000	0.079	0.372
-716.762	-166.935	0.126	0.005
-715.748	-107.056	-0.209	0.047
-714.733	601.707	0.056	-0.141
-713.718	38.601	-0.034	0.030
-712.704	135.548	0.099	0.131
-711.689	-104.376	0.160	0.037
-710.675	-127.348	-0.436	0.064
-709.660	800.000	-0.125	-0.363
-708.645	238.942	0.057	-0.097
-707.631	313.799	-0.151	-0.288
-706.616	-93.393	0.158	-0.044
-705.602	-144.790	-0.042	0.004
-704.587	-92.449	-0.403	-0.115
-703.572	800.000	0.057	-0.177
-702.558	71.282	-0.249	-0.261
-701.543	218.440	-0.052	-0.084
-700.529	99.358	0.133	-0.155
-699.514	-200.000	0.015	-0.152
-698.499	800.000	0.092	-0.280
-697.485	-200.000	0.004	0.040
-696.470	74.992	0.307	0.327
-695.456	576.844	0.017	0.042
-694.441	-89.523	-0.178	-0.053
-693.426	-200.000	-0.004	0.019
-692.412	-149.580	0.011	-0.001
-691.397	-1.535	-0.189	-0.135
-690.383	151.789	0.114	0.156
-689.368	-200.000	0.013	0.155
-688.354	40.539	0.237	0.216
-687.339	153.294	0.160	-0.222
-686.324	-75.991	-0.121	0.043
-685.310	103.977	-0.135	0.160
-684.295	-16.706	0.315	-0.201
-683.281	62.242	-0.166	-0.168
-682.266	-113.584	0.188	0.037
-681.251	-36.342	-0.348	0.190
-680.237	-57.621	0.159	-0.070
-679.222	-200.000	-0.040	0.000
-678.208	-200.000	0.001	0.039
-677.193	5.605	-0.045	-0.033
-676.178	-200.000	-0.015	0.084
-675.164	84.346	-0.144	-0.159
-674.149	-35.154	-0.196	-0.108
-673.135	-200.000	0.034	-0.330
-672.120	-102.337	-0.274	-0.066
-671.105	-200.000	-0.007	-0.215
-670.091	671.177	-0.093	-0.243
-669.076	-150.982	-0.235	-0.018
-668.062	-158.806	0.257	-0.015
-667.047	488.012	0.172	0.398
-666.032	-116.088	-0.425	-0.080
-665.018	556.539	0.055	0.135
-664.003	-71.324	-0.566	0.214
-662.989	-23.359	-0.250	0.152
-661.974	30.259	0.136	-0.117
-660.959	-200.000	0.031	-0.202
-659.945	171.385	0.050	-0.072
-658.930	-200.000	0.258	0.001
-657.916	-200.000	-0.076	0.445
-656.901	-200.000	0.031	-0.280
-655.886	800.000	-0.048	-0.180
-654.872	-88.182	-0.097	-0.029
-653.857	-71.786	0.438	0.165
-652.843	224.617	-0.070	0.115
-651.828	-156.190	-0.091	0.006
-650.814	-164.965	-0.313	-0.014
-649.799	-200.000	0.049	-0.411
-648.784	131.558	0.133	-0.172
-647.770	129.091	-0.123	0.159
-646.755	-53.693	-0.311	-0.143
-645.741	-200.000	0.031	0.200
-644.726	-200.000	-0.024	-0.272
-643.711	-59.268	0.162	-0.070
-642.697	-77.325	0.121	-0.043
-641.682	-117.351	0.227	0.042
-640.668	-200.000	0.035	0.248
-639.653	648.024	0.166	-0.427
-638.638	-124.816	-0.154	0.024
-637.624	209.856	-0.206	-0.326
-636.609	-200.000	-0.066	-0.422
-635.595	-55.027	-0.150	-0.068
-634.580	-88.637	-0.327	0.098
-633.565	583.330	0.138	-0.341
-632.551	-144.784	-0.245	-0.023
-631.536	-100.884	0.206	-0.051
-630.522	-200.000	-0.036	-0.204
-629.507	-134.153	0.023	-0.003
-628.492	800.000	-0.064	-0.199
-627.478	800.000	0.070	0.255
-626.463	-121.973	0.202	-0.034
-625.449	800.000	-0.024	0.069
-624.434	594.723	-0.084	-0.209
-623.419	-187.969	-0.149	0.002
-622.405	47.204	-0.044	-0.042
-621.390	-35.000	0.131	-0.072
-620.376	-140.466	0.390	0.041
-619.361	-195.240	-0.077	-0.001
-618.346	195.254	-0.071	-0.109
-617.332	179.551	0.012	-0.018
-616.317	202.914	0.099	0.154
-615.303	164.421	-0.158	0.224
-614.288	-134.493	0.125	-0.015
-613.273	-200.000	-0.037	0.187
-612.259	-200.000	-0.000	-0.129
-611.244	-200.000	-0.039	-0.203
-610.230	-24.448	0.188	-0.113
-609.215	15.674	-0.091	-0.072
-608.201	-62.819	0.358	-0.149
-607.186	-59.091	-0.057	0.025
-606.171	219.199	0.116	-0.187
-605.157	-176.354	0.215	-0.006
-604.142	-200.000	-0.044	0.204
-603.128	381.921	-0.150	-0.311
-602.113	-89.619	0.216	-0.064
-601.098	-200.000	-0.019	-0.156
-600.084	-121.003	-0.409	-0.069
-599.069	18.699	0.306	0.247
-598.055	-139.123	0.336	-0.037
-597.040	-200.000	-0.002	-0.034
-596.025	7.959	-0.109	-0.083
-595.011	-137.586	0.136	0.015
-593.996	-200.000	-0.009	0.079
-592.982	21.315	-0.108	0.088
-591.967	-61.678	0.238	-0.100
-590.952	-200.000	0.079	-0.374
-589.938	387.644	0.075	0.156
-588.923	428.145	0.157	0.342
-587.909	-148.125	0.265	0.022
-586.894	-200.000	-0.001	0.067
-585.879	226.993	-0.105	-0.172
-584.865	-200.000	-0.007	0.041
-583.850	374.331	0.067	0.137
-582.836	-19.447	-0.369	0.230
-581.821	136.058	-0.066	0.087
-580.806	71.873	0.215	0.226
-579.792	684.724	-0.094	-0.246
-578.777	69.798	-0.051	0.053
-577.763	395.365	0.031	0.064
-576.748	-83.185	-0.492	0.159
-575.733	-30.340	-0.040	0.023
-574.719	309.804	-0.106	-0.200
-573.704	-71.189	-0.169	0.064
-572.690	-174.474	0.154	-0.004
-571.675	-200.000	-0.051	0.397
-570.661	146.174	-0.140	0.189
-569.646	-200.000	-0.049	-0.272
-568.631	468.145	0.116	-0.262
-567.617	-200.000	0.003	-0.141
-566.602	-27.050	0.144	-0.085
-565.588	-200.000	0.009	0.176
-564.573	592.783	0.053	0.132
-563.558	73.787	0.197	0.207
-562.544	-157.076	0.082	-0.005
-561.529	28.388	0.198	0.168
-560.515	116.551	0.048	0.060
-559.500	66.458	-0.117	-0.120
-558.485	50.769	0.109	-0.104
-557.471	-20.803	0.306	-0.189
-556.456	20.963	-0.135	-0.110
-555.442	-32.951	0.467	0.261
-554.427	60.270	0.167	0.166
-553.412	800.000	-0.045	0.172
-552.398	-200.000	-0.005	0.107
-551.383	536.143	0.050	-0.119
-550.369	-58.439	0.140	-0.061
-549.354	-84.643	-0.083	0.026
-548.339	-66.111	0.269	0.108
-547.325	-61.235	0.143	-0.061
-546.310	-200.000	-0.036	-0.289
-545.296	158.498	-0.076	0.106
-544.281	38.338	0.182	-0.163
-543.266	-118.580	0.306	-0.054
-542.252	212.849	-0.026	-0.042
-541.237	111.326	-0.324	-0.392
-540.223	247.708	-0.085	0.145
-539.208	-15.235	0.128	-0.082
-538.193	363.160	0.096	0.193
-537.179	-105.258	0.361	0.083
-536.164	-200.000	0.019	-0.100
-535.150	-110.008	0.248	0.052
-534.135	-78.214	0.040	-0.014
-533.121	5.902	-0.270	0.201
-532.106	185.527	0.077	-0.116
-531.091	-26.188	0.113	-0.066
-530.077	-132.112	-0.224	0.029
-529.062	-200.000	-0.104	-0.000
-528.048	-9.731	0.275	-0.184
-527.033	117.394	-0.078	0.096
-526.018	-200.000	0.069	-0.311
-525.004	-115.320	-0.294	0.056
-523.989	-200.000	0.011	0.202
-522.975	10.886	-0.271	0.208
-521.960	-200.000	-0.035	0.265
-520.945	800.000	-0.071	-0.275
-519.931	50.216	0.283	-0.268
-518.916	205.223	-0.179	0.279
-517.902	-32.839	0.370	-0.207
-516.887	69.964	0.146	0.151
-515.872	85.045	-0.156	-0.171
-514.858	-162.266	-0.137	0.007
-513.843	-63.365	-0.262	0.108
-512.829	-4.143	0.209	0.146
-511.814	-36.353	0.222	-0.120
-510.799	-200.000	0.014	-0.109
-509.785	275.480	0.114	-0.202
-508.770	-25.634	0.305	-0.181
-507.756	-24.642	0.129	0.077
-506.741	79.518	0.190	0.204
-505.726	-158.954	0.284	0.016
-504.712	14.275	-0.111	-0.087
-503.697	-200.000	0.038	-0.196
-502.683	-156.971	0.261	-0.016
-501.668	-44.803	-0.161	0.080
-500.653	-79.079	0.032	-0.011
-499.639	-163.549	-0.291	0.014
-498.624	-27.111	0.251	0.147
-497.610	-200.000	-0.014	-0.107
-496.595	179.862	-0.159	-0.234
-495.581	-26.769	0.112	-0.066
-494.566	-103.001	-0.301	0.072
-493.551	800.000	-0.030	0.090
-492.537	800.000	-0.054	-0.222
-491.522	-200.000	-0.028	-0.162
-490.508	91.609	-0.209	-0.235
-489.493	78.812	-0.152	0.163
-488.478	366.544	0.078	-0.159
-487.464	-79.386	0.153	-0.052
-486.449	169.273	0.053	-0.075
-485.435	148.494	-0.135	0.183
-484.420	800.000	-0.044	-0.185
-483.405	584.959	0.132	-0.324
-482.391	510.279	0.095	0.222
-481.376	266.528	-0.081	-0.142
-480.362	-200.000	-0.010	-0.237
-479.347	741.067	0.045	-0.120
-478.332	-77.661	0.173	-0.060
-477.318	-200.000	-0.021	-0.303
-476.303	800.000	0.114	-0.344
-475.289	301.991	-0.160	0.297
-474.274	-200.000	-0.002	-0.077
-473.259	-200.000	0.014	0.066
-472.245	58.730	-0.157	0.155
-471.230	-109.892	-0.155	0.033
-470.216	-3.317	-0.146	0.102
-469.201	-200.000	0.023	-0.195
-468.186	-77.683	0.267	-0.093
-467.172	-200.000	-0.054	0.282
-466.157	-200.000	-0.016	-0.149
-465.143	-9.075	0.104	0.070
-464.128	34.290	0.054	0.047
-463.113	258.559	0.145	0.251
-462.099	351.484	0.217	-0.430
-461.084	800.000	-0.085	-0.256
-460.070	-111.109	0.308	-0.063
-459.055	-78.870	-0.158	-0.054
-458.040	26.140	-0.135	0.113
-457.026	-200.000	-0.024	0.183
-456.011	-68.936	-0.371	0.143
-454.997	231.740	-0.040	-0.066
-453.982	233.024	0.123	0.202
-452.968	-63.648	-0.222	0.091
-451.953	446.084	-0.102	0.225
-450.938	85.291	-0.070	-0.077
-449.924	194.068	-0.041	0.062
-448.909	-144.249	-0.392	0.037
-447.895	-156.335	-0.104	0.007
-446.880	430.137	-0.094	-0.204
-445.865	-34.705	-0.221	0.121
-444.851	103.738	0.164	0.192
-443.836	109.524	0.251	-0.301
-442.822	152.225	-0.070	0.096
-441.807	301.432	0.093	-0.173
-440.792	800.000	0.049	0.187
-439.778	51.542	0.208	-0.198
-438.763	583.769	0.209	0.514
-437.749	-80.107	-0.279	-0.094
-436.734	-200.000	0.033	-0.291
-435.719	800.000	0.093	0.353
-434.705	-200.000	0.059	0.330
-433.690	-10.890	-0.115	-0.076
-432.676	156.318	-0.193	0.266
-431.661	800.000	0.063	-0.206
-430.646	31.947	-0.247	0.213
-429.632	490.186	0.107	0.245
-428.617	129.965	0.052	-0.067
-427.603	800.000	0.028	0.078
-426.588	129.590	0.154	-0.197
-425.573	-200.000	-0.057	-0.310
-424.559	265.446	0.186	-0.325
-423.544	220.290	0.132	0.212
-422.530	-43.374	-0.066	0.033
-421.515	-102.506	-0.148	0.035
-420.500	40.131	0.159	-0.143
-419.486	58.606	-0.118	0.116
-418.471	316.125	0.082	0.155
-417.457	208.298	0.062	0.096
-416.442	-114.664	-0.036	-0.007
-415.428	-200.000	0.019	-0.151
-414.413	516.695	-0.139	-0.325
-413.398	-86.046	-0.251	-0.077
-412.384	314.888	-0.049	0.092
-411.369	800.000	0.036	-0.152
-410.355	161.614	0.059	0.082
-409.340	-104.975	0.150	0.034
-408.325	-159.859	-0.441	0.024
-407.311	-123.853	0.187	0.030
-406.296	-58.592	-0.309	-0.134
-405.282	-200.000	0.006	-0.278
-404.267	358.637	0.159	-0.318
-403.252	800.000	-0.074	0.299
-402.238	-19.751	-0.244	-0.151
-401.223	-40.221	0.255	-0.133
-400.209	309.703	0.099	0.184
-399.194	800.000	0.035	-0.100
-398.179	-57.861	-0.246	-0.108
-397.165	-109.654	-0.049	-0.010
-396.150	-60.966	-0.606	-0.256
-395.136	-200.000	-0.035	0.179
-394.121	-200.000	0.056	-0.273
-393.106	-69.146	-0.342	0.131
-392.092	-45.821	0.278	-0.137
-391.077	76.366	0.132	-0.140
-390.063	154.571	-0.067	0.092
-389.048	-66.531	0.231	-0.092
-388.033	-124.373	-0.111	-0.017
-387.019	-177.884	-0.366	0.009
-386.004	-102.003	-0.176	0.042
-384.990	800.000	0.049	-0.164
-383.975	-30.404	0.378	0.214
-382.960	245.390	-0.166	0.279
-381.946	-200.000	0.018	0.089
-380.931	-169.815	0.145	0.005
-379.917	-200.000	0.011	0.073
-378.902	17.618	0.491	-0.390
-377.888	-128.227	-0.205	-0.029
-376.873	267.886	0.124	0.216
-375.858	-200.000	0.020	-0.243
-374.844	287.226	-0.123	-0.222
-373.829	800.000	-0.037	0.153
-372.815	171.922	0.036	-0.051
-371.800	-9.196	-0.165	0.110
-370.785	41.073	-0.250	-0.225
-369.771	122.687	-0.128	0.159
-368.756	-67.046	0.058	0.023
-367.742	-23.548	-0.226	0.135
-366.727	111.246	0.179	0.215
-365.712	126.347	-0.123	-0.155
-364.698	148.176	0.157	0.211
-363.683	-104.159	-0.280	-0.065
-362.669	-53.017	-0.263	-0.121
-361.654	-200.000	0.029	0.426
-360.639	198.156	0.128	0.196
-359.625	-60.726	-0.116	-0.049
-358.610	-17.195	-0.229	-0.144
-357.596	800.000	0.047	-0.147
-356.581	31.710	-0.110	-0.094
-355.566	-112.241	0.277	-0.055
-354.552	197.049	0.068	0.103
-353.537	318.538	0.128	-0.242
-352.523	52.295	-0.194	-0.185
-351.508	295.688	-0.085	-0.156
-350.493	350.799	0.092	0.181
-349.479	101.674	-0.063	0.073
-348.464	800.000	-0.120	0.347
-347.450	100.185	-0.096	0.112
-346.435	800.000	0.044	0.127
-345.420	-118.694	0.050	0.009
-344.406	-139.265	-0.261	-0.028
-343.391	-200.000	-0.049	0.285
-342.377	60.282	-0.157	0.155
-341.362	129.774	0.242	0.308
-340.348	56.580	-0.266	-0.258
-339.333	-200.000	0.003	-0.249
-338.318	286.623	0.126	0.227
-337.304	-46.650	-0.200	0.098
-336.289	800.000	0.069	-0.292
-335.275	87.398	0.125	-0.138
-334.260	-200.000	0.023	0.288
-333.245	-68.974	0.100	0.038
-332.231	-200.000	-0.035	0.224
-331.216	-200.000	-0.016	0.525
-330.202	165.682	0.142	0.200
-329.187	90.097	0.099	-0.110
-328.172	-200.000	-0.024	-0.286
-327.158	-147.754	0.316	-0.026
-326.143	261.952	-0.110	-0.190
-325.129	-200.000	-0.003	0.099
-324.114	800.000	-0.070	-0.232
-323.099	-200.000	0.050	0.372
-322.085	-149.937	0.227	-0.018
-321.070	90.599	0.170	0.190
-320.056	407.131	0.084	-0.176
-319.041	15.193	-0.218	0.170
-318.026	72.746	0.135	0.140
-317.012	-200.000	0.183	-0.001
-315.997	-56.013	-0.351	-0.156
-314.983	-45.151	0.058	0.029
-313.968	-200.000	0.025	-0.274
-312.953	800.000	0.022	0.082
-311.939	-25.899	-0.444	-0.261
-310.924	800.000	-0.046	-0.135
-309.910	-102.227	0.200	0.048
-308.895	-200.000	-0.021	-0.269
-307.880	-200.000	0.013	-0.266
-306.866	-200.000	-0.011	0.123
-305.851	-115.768	0.066	0.012
-304.837	27.913	0.243	-0.204
-303.822	-153.299	-0.278	0.019
-302.807	-200.000	0.027	-0.200
-301.793	800.000	0.092	0.383
-300.778	800.000	0.051	0.157
-299.764	-111.302	-0.171	-0.035
-298.749	-187.256	0.221	0.003
-297.735	153.202	-0.245	0.334
-296.720	-13.290	0.095	-0.061
-295.705	46.003	0.222	0.205
-294.691	-127.098	-0.239	0.035
-293.676	-200.000	-0.020	-0.347
-292.662	319.391	-0.025	-0.048
-291.647	-90.262	-0.065	-0.019
-290.632	205.027	0.139	-0.214
-289.618	-139.759	-0.140	-0.015
-288.603	104.903	0.071	0.083
-287.589	-53.635	0.107	-0.049
-286.574	336.673	0.169	-0.327
-285.559	369.230	-0.079	-0.160
-284.545	438.636	-0.100	0.216
-283.530	452.208	-0.125	0.276
-282.516	-121.812	-0.210	-0.034
-281.501	-31.724	0.261	0.145
-280.486	-144.152	0.231	-0.022
-279.472	-50.926	-0.334	0.156
-278.457	-126.801	-0.049	-0.007
-277.443	-200.000	0.009	-0.220
-276.428	-90.642	-0.407	-0.117
-275.413	-149.986	-0.239	0.019
-274.399	505.733	0.084	0.193
-273.384	31.705	-0.190	0.162
-272.370	-134.396	0.174	-0.021
-271.355	-98.597	-0.164	0.042
-270.340	-200.000	0.055	-0.348
-269.326	-130.971	-0.220	0.029
-268.311	1.749	0.006	-0.004
-267.297	427.640	0.104	-0.223
-266.282	124.798	0.157	-0.196
-265.267	-57.354	0.131	0.057
-264.253	-71.726	-0.106	0.039
-263.238	-142.472	-0.302	-0.030
-262.224	159.847	0.126	-0.174
-261.209	-194.736	-0.231	0.002
-260.195	674.515	-0.040	0.102
-259.180	415.161	0.145	-0.307
-258.165	14.574	0.066	0.051
-257.151	34.773	0.180	0.157
-256.136	-200.000	0.012	-0.329
-255.122	-17.579	-0.370	0.231
-254.107	-200.000	0.026	0.152
-253.092	-14.705	-0.056	0.036
-252.078	800.000	-0.080	0.274
-251.063	-200.000	-0.016	0.169
-250.049	-200.000	0.001	0.122
-249.034	-60.261	0.110	0.046
-248.019	800.000	0.068	-0.214
-247.005	449.642	0.116	-0.254
-245.990	-200.000	-0.049	0.286
-244.976	-99.332	0.349	0.087
-243.961	-149.871	-0.057	0.004
-242.946	-82.143	-0.068	0.022
-241.932	133.756	-0.139	0.179
-240.917	784.641	0.085	0.231
-239.903	287.999	-0.075	0.134
-238.888	800.000	0.086	-0.289
-237.873	325.855	-0.115	-0.219
-236.859	800.000	-0.048	0.157
-235.844	800.000	0.041	0.167
-234.830	-118.779	0.136	0.024
-233.815	-200.000	0.025	-0.270
-232.800	382.719	-0.059	0.120
-231.786	215.372	0.042	0.065
-230.771	-48.902	-0.171	-0.081
-229.757	-13.213	-0.118	0.076
-228.742	-11.431	-0.130	0.085
-227.727	-82.397	-0.127	-0.041
-226.713	800.000	-0.099	0.331
-225.698	47.952	-0.043	-0.040
-224.684	-19.996	0.090	0.055
-223.669	75.747	-0.185	0.194
-222.655	94.212	-0.171	0.192
-221.640	78.373	0.340	-0.361
-220.625	-15.188	-0.205	-0.130
-219.611	800.000	0.058	-0.187
-218.596	108.041	-0.044	0.052
-217.582	198.299	-0.052	-0.080
-216.567	-200.000	-0.026	0.287
-215.552	451.563	-0.129	0.282
-214.538	-200.000	0.030	0.136
-213.523	164.770	0.162	0.227
-212.509	-70.619	0.313	0.117
-211.494	-58.859	-0.133	0.057
-210.479	-200.000	-0.000	0.042
-209.465	-149.377	-0.139	0.011
-208.450	54.200	0.307	0.293
-207.436	99.395	-0.304	0.349
-206.421	-46.541	-0.033	0.016
-205.406	703.949	0.089	-0.233
-204.392	-200.000	0.009	0.099
-203.377	-93.842	-0.159	-0.043
-202.363	-100.502	0.220	0.054
-201.348	240.688	-0.024	0.041
-200.333	-68.490	-0.075	0.029
-199.319	364.063	0.076	0.152
-198.304	-63.911	-0.171	0.069
-197.290	-93.220	-0.186	-0.051
-196.275	-106.773	-0.321	-0.071
-195.260	-136.940	-0.208	0.024
-194.246	800.000	0.036	0.141
-193.231	213.540	-0.148	0.232
-192.217	114.733	0.108	-0.131
-191.202	800.000	0.030	0.108
-190.187	-95.768	0.117	-0.031
-189.173	800.000	0.063	-0.253
-188.158	337.247	-0.179	-0.345
-187.144	-105.318	-0.137	-0.031
-186.129	-200.000	-0.034	0.484
-185.114	586.356	-0.029	-0.072
-184.100	164.562	-0.082	0.114
-183.085	9.529	0.366	-0.275
-182.071	-27.442	0.094	0.054
-181.056	560.799	-0.140	0.336
-180.042	14.945	-0.241	0.187
-179.027	-125.697	0.072	-0.011
-178.012	-50.534	-0.264	-0.124
-176.998	-200.000	0.038	0.232
-175.983	117.509	-0.121	0.147
-174.969	36.548	-0.145	0.127
-173.954	-200.000	0.015	0.187
-172.939	205.608	0.034	-0.052
-171.925	800.000	0.067	-0.246
-170.910	522.786	0.105	0.244
-169.896	-134.376	0.217	0.026
-168.881	-53.163	0.212	0.096
-167.866	800.000	-0.058	-0.181
-166.852	221.301	0.069	0.110
-165.837	132.295	-0.151	0.193
-164.823	-200.000	-0.004	0.109
-163.808	-151.381	-0.231	-0.017
-162.793	-61.715	0.252	0.105
-161.779	-168.538	0.550	0.021
-160.764	409.752	0.044	-0.092
-159.750	171.643	0.152	0.216
-158.735	-96.047	0.260	0.068
-157.720	209.148	0.110	0.170
-156.706	-136.146	-0.159	0.018
-155.691	91.521	-0.018	0.020
-154.677	-200.000	-0.023	-0.173
-153.662	-170.455	0.223	-0.008
-152.647	-200.000	0.198	0.001
-151.633	260.531	0.090	-0.154
-150.618	360.954	-0.018	0.035
-149.604	-58.072	0.191	0.082
-148.589	240.323	-0.012	0.020
-147.574	-32.972	0.190	0.104
-146.560	403.055	-0.078	0.162
-145.545	9.013	-0.143	0.107
-144.531	82.024	-0.301	0.323
-143.516	15.497	-0.219	-0.170
-142.502	-100.375	0.140	0.034
-141.487	-83.333	-0.108	-0.034
-140.472	800.000	-0.029	0.125
-139.458	-71.044	-0.254	0.094
-138.443	-25.034	-0.042	-0.024
-137.429	-200.000	-0.019	0.203
-136.414	177.857	-0.222	0.321
-135.399	24.787	-0.229	0.188
-134.385	-200.000	-0.006	-0.036
-133.370	150.143	0.113	0.152
-132.356	-171.177	0.178	0.006
-131.341	-200.000	-0.007	0.103
-130.326	-125.491	-0.082	-0.012
-129.312	-124.776	-0.339	0.052
-128.297	-200.000	-0.076	-0.399
-127.283	376.367	-0.174	0.350
-126.268	254.628	-0.123	0.209
-125.253	-124.479	-0.234	-0.036
-124.239	-31.298	-0.126	0.070
-123.224	-163.378	0.252	0.012
-122.210	307.704	-0.214	-0.395
-121.195	-200.000	-0.001	0.028
-120.180	535.703	-0.130	-0.304
-119.166	-200.000	-0.068	-0.298
-118.151	19.198	0.214	0.170
-117.137	197.405	-0.233	-0.352
-116.122	-200.000	-0.018	0.144
-115.107	258.641	-0.094	-0.161
-114.093	72.149	0.245	0.252
-113.078	76.539	0.336	0.352
-112.064	579.696	-0.127	0.307
-111.049	636.860	0.075	0.187
-110.034	285.782	-0.104	0.185
-109.020	113.544	-0.023	-0.028
-108.005	569.079	-0.142	0.341
-106.991	-115.843	0.199	0.037
-105.976	-31.352	0.287	-0.159
-104.962	-49.732	0.178	0.084
-103.947	59.141	0.085	0.083
-102.932	8.546	-0.353	0.263
-101.918	-98.910	0.057	0.014
-100.903	-168.557	-0.268	0.010
-99.889	-200.000	-0.014	0.110
-98.874	-115.650	-0.198	-0.037
-97.859	126.365	0.210	-0.263
-96.845	4.906	-0.168	-0.122
-95.830	1.098	0.065	0.046
-94.816	341.263	0.082	-0.158
-93.801	-75.820	-0.542	0.190
-92.786	-93.664	-0.181	0.049
-91.772	-200.000	0.018	-0.307
-90.757	-200.000	-0.043	0.402
-89.743	-161.597	0.334	0.017
-88.728	-116.601	-0.316	-0.057
-87.713	-200.000	-0.050	0.285
-86.699	634.596	-0.067	0.167
-85.684	363.260	0.108	0.214
-84.670	-97.331	-0.277	0.071
-83.655	449.247	0.169	0.368
-82.640	-200.000	0.025	-0.340
-81.626	-64.002	-0.137	0.055
-80.611	-200.000	-0.006	0.115
-79.597	56.463	-0.222	0.213
-78.582	800.000	0.048	-0.202
-77.567	91.420	-0.053	-0.059
-76.553	177.495	0.074	-0.106
-75.538	435.874	0.052	-0.112
-74.524	20.480	-0.168	-0.134
-73.509	-200.000	-0.007	-0.202
-72.494	-200.000	-0.020	0.137
-71.480	-93.093	0.178	-0.049
-70.465	800.000	-0.082	-0.228
-69.451	67.434	-0.122	-0.123
-68.436	136.098	-0.093	-0.120
-67.422	55.216	-0.257	0.246
-66.407	58.630	0.176	-0.170
-65.392	121.902	0.055	0.068
-64.378	-190.776	0.200	0.002
-63.363	7.374	0.204	-0.151
-62.349	226.128	0.134	0.214
-61.334	45.614	-0.873	-0.795
-60.319	38.893	0.525	0.463
-59.305	800.000	-0.197	-0.820
-58.290	-200.000	0.249	1.211
-57.276	447.753	0.688	1.495
-56.261	-200.000	94.124	556.874
-55.246	627.942	1385.388	3451.501
-54.232	187.786	2605.005	3835.745
-53.217	117.858	2314.377	2810.883
-52.203	45.756	1928.567	1757.984
-51.188	39.206	1716.419	1514.315
-50.173	36.403	1671.491	1453.555
-49.159	53.431	1718.910	1625.040
-48.144	56.519	1736.398	1665.033
-47.130	38.900	1693.433	1491.475
-46.115	35.971	1678.582	1456.231
-45.100	35.903	1673.246	1451.028
-44.086	35.817	1670.939	1448.322
-43.071	35.732	1668.517	1445.527
-42.057	35.701	1666.470	1443.464
-41.042	35.708	1664.263	1441.545
-40.027	35.767	1662.240	1440.182
-39.013	35.653	1660.842	1438.056
-37.998	35.725	1658.573	1436.574
-36.984	35.747	1657.504	1435.754
-35.969	35.798	1656.485	1435.199
-34.954	35.883	1654.456	1434.016
-33.940	35.883	1652.383	1432.161
-32.925	35.925	1650.514	1430.794
-31.911	35.950	1648.962	1429.583
-30.896	35.867	1647.226	1427.400
-29.881	35.834	1645.635	1425.720
-28.867	35.828	1644.098	1424.290
-27.852	35.847	1642.961	1423.392
-26.838	35.895	1641.382	1422.322
-25.823	35.981	1639.522	1421.285
-24.809	35.905	1638.427	1419.719
-23.794	35.905	1636.895	1418.338
-22.779	35.876	1635.576	1416.923
-21.765	35.847	1633.748	1415.071
-20.750	35.831	1631.918	1413.311
-19.736	35.941	1630.537	1412.869
-18.721	35.903	1629.465	1411.602
-17.706	35.985	1627.158	1410.152
-16.692	35.861	1625.819	1408.025
-15.677	35.919	1624.873	1407.577
-14.663	35.884	1623.704	1406.253
-13.648	36.002	1621.956	1405.543
-12.633	35.929	1620.384	1403.591
-11.619	35.942	1618.812	1402.270
-10.604	35.876	1617.062	1400.217
-9.590	35.838	1616.547	1399.435
-8.575	35.957	1614.842	1398.771
-7.560	35.991	1613.193	1397.534
-6.546	35.880	1612.249	1395.858
-5.531	35.923	1611.029	1395.053
-4.517	35.878	1609.730	1393.552
-3.502	35.840	1609.469	1392.997
-2.487	35.969	1607.181	1391.891
-1.473	35.571	1595.534	1378.891
-0.458	32.189	1574.211	1336.405
0.556	30.026	1571.608	1292.274
1.571	26.646	1593.165	1285.934
2.586	25.222	1605.370	1285.476
3.600	21.508	1550.906	1215.994
4.615	13.133	1440.511	1075.052
5.629	6.456	1376.792	985.746
6.644	5.365	1368.338	972.824
7.659	5.274	1367.183	971.348
8.673	5.326	1365.822	970.618
9.688	5.496	1364.700	970.791
10.702	5.458	1362.106	968.626
11.717	7.780	1366.610	986.153
12.731	15.378	1380.365	1043.416
13.746	21.572	1390.655	1089.785
14.761	22.514	1390.815	1095.678
15.775	21.744	1388.883	1089.271
16.790	20.748	1385.759	1080.548
17.804	19.937	1383.294	1073.503
18.819	19.483	1382.333	1069.847
19.834	19.485	1381.115	1068.821
20.848	19.306	1380.167	1066.888
21.863	19.018	1378.847	1063.990
22.877	18.981	1377.894	1062.932
23.892	18.815	1377.591	1061.579
24.907	18.882	1376.017	1060.686
25.921	18.908	1375.242	1060.157
26.936	18.947	1374.311	1059.586
27.950	18.980	1373.551	1059.107
28.965	19.024	1372.811	1058.711
29.980	19.103	1371.443	1058.051
30.994	19.245	1369.935	1057.665
32.009	19.304	1368.894	1057.133
33.023	19.266	1367.611	1055.810
34.038	19.194	1366.539	1054.449
35.053	19.118	1364.894	1052.624
36.067	19.151	1363.592	1051.731
37.082	19.124	1362.618	1050.717
38.096	19.203	1362.017	1050.648
39.111	19.198	1361.453	1050.085
40.126	19.162	1360.291	1048.880
41.140	18.802	1359.399	1045.906
42.155	18.691	1358.676	1044.584
43.169	18.640	1358.870	1044.327
44.184	18.620	1358.756	1044.023
45.199	18.719	1357.632	1043.672
46.213	18.862	1357.188	1044.104
47.228	18.912	1356.716	1043.953
48.242	19.075	1355.251	1043.722
49.257	18.989	1354.088	1042.218
50.271	19.008	1352.449	1040.974
51.286	19.002	1351.452	1040.082
52.301	19.102	1349.680	1039.229
53.315	18.917	1348.767	1037.317
54.330	18.799	1347.712	1035.705
55.344	18.766	1346.092	1034.170
56.359	18.795	1345.090	1033.484
57.374	18.726	1344.247	1032.327
58.388	18.663	1343.762	1031.487
59.403	18.581	1343.023	1030.334
60.417	18.577	1342.209	1029.590
61.432	18.609	1341.579	1029.214
62.447	18.469	1340.657	1027.571
63.461	18.426	1339.363	1026.233
64.476	18.419	1338.201	1025.207
65.490	18.518	1336.955	1024.756
66.505	18.541	1335.562	1023.734
67.520	18.549	1334.331	1022.748
68.534	18.487	1333.370	1021.555
69.549	18.562	1331.932	1020.807
70.563	18.405	1331.183	1019.208
71.578	18.404	1330.148	1018.321
72.593	18.250	1329.458	1016.785
73.607	18.297	1328.377	1016.152
74.622	18.301	1327.400	1015.333
75.636	18.375	1326.766	1015.197
76.651	18.420	1326.213	1014.952
77.666	18.353	1325.795	1014.144
78.680	18.432	1325.786	1014.519
79.695	18.608	1324.648	1014.596
80.709	18.643	1323.826	1014.083
81.724	18.690	1323.474	1014.002
82.739	18.736	1322.510	1013.444
83.753	18.944	1321.634	1013.910
84.768	19.011	1320.911	1013.665
85.782	19.184	1319.584	1013.575
86.797	19.060	1318.851	1012.193
87.812	19.073	1317.339	1011.018
88.826	18.952	1316.136	1009.293
89.841	19.047	1315.097	1008.964
90.855	19.114	1314.113	1008.511
91.870	19.173	1313.268	1008.119
92.884	19.147	1312.700	1007.444
93.899	19.211	1311.873	1007.094
94.914	19.365	1310.695	1007.004
95.928	19.239	1310.034	1005.669
96.943	19.227	1309.287	1004.938
97.957	19.173	1307.747	1003.353
98.972	19.065	1307.713	1002.604
99.987	19.132	1306.254	1001.786
101.001	19.132	1305.236	1000.920
102.016	19.175	1304.188	1000.275
103.030	19.254	1303.066	999.788
104.045	19.147	1302.609	998.725
105.060	19.020	1301.014	996.679
106.074	18.712	1299.913	993.964
107.089	18.512	1298.330	991.513
108.103	18.506	1296.881	990.279
109.118	18.542	1295.952	989.693
110.133	18.541	1294.325	988.355
111.147	18.469	1292.974	986.821
112.162	18.577	1292.228	986.787
113.176	18.658	1290.415	985.780
114.191	18.599	1289.898	984.961
115.206	18.583	1288.955	984.062
116.220	18.547	1287.576	982.714
117.235	18.655	1286.656	982.543
118.249	18.621	1285.024	981.016
119.264	18.540	1284.538	980.097
120.279	18.582	1283.030	979.097
121.293	18.581	1281.909	978.149
122.308	18.306	1280.799	975.648
123.322	18.294	1280.004	974.889
124.337	18.321	1278.419	973.751
125.352	18.340	1277.450	973.036
126.366	18.393	1275.822	972.010
127.381	18.433	1274.929	971.468
128.395	18.379	1274.376	970.656
129.410	18.367	1273.845	970.099
130.424	18.623	1272.739	970.620
131.439	18.566	1272.271	969.853
132.454	18.551	1271.048	968.749
133.468	18.678	1270.595	969.038
134.483	18.714	1269.559	968.362
135.497	18.694	1268.501	967.357
136.512	18.705	1267.505	966.575
137.527	18.715	1265.743	965.201
138.541	18.819	1264.524	964.770
139.556	18.853	1263.244	963.899
140.570	18.806	1262.801	963.215
141.585	18.972	1261.362	962.958
142.600	19.133	1260.224	962.904
143.614	19.145	1259.337	962.210
144.629	19.239	1258.369	961.909
145.643	19.183	1257.524	960.865
146.658	19.004	1255.991	958.612
147.673	18.943	1254.249	956.860
148.687	18.712	1253.338	954.793
149.702	18.725	1251.713	953.547
150.716	18.688	1250.290	952.170
151.731	18.761	1248.875	951.412
152.746	18.690	1248.195	950.418
153.760	18.776	1246.807	949.755
154.775	18.868	1245.954	949.526
155.789	18.947	1244.895	949.070
156.804	18.906	1243.832	947.954
157.819	18.929	1243.042	947.391
158.833	19.075	1242.267	947.523
159.848	19.258	1241.323	947.728
160.862	19.136	1240.129	946.058
161.877	19.006	1238.636	944.121
162.892	18.738	1237.724	941.874
163.906	18.764	1236.598	941.078
164.921	18.763	1235.832	940.406
165.935	18.895	1234.966	940.386
166.950	18.850	1234.628	939.800
167.964	18.934	1233.463	939.285
168.979	18.879	1232.838	938.430
169.994	18.840	1231.817	937.354
171.008	18.842	1231.883	937.335
172.023	18.916	1231.079	937.043
173.037	19.036	1230.432	937.118
174.052	19.052	1229.158	936.156
175.067	18.912	1227.645	934.160
176.081	18.779	1226.437	932.435
177.096	18.743	1225.562	931.492
178.110	18.897	1224.460	931.409
179.125	18.785	1223.825	930.231
180.140	18.933	1222.506	929.949
181.154	18.952	1221.512	929.212
182.169	19.079	1219.964	928.641
183.183	19.124	1218.957	928.031
184.198	19.131	1218.123	927.357
185.213	19.258	1216.392	926.635
186.227	19.230	1215.505	925.727
187.242	19.221	1214.955	925.180
188.256	19.157	1214.281	924.243
189.271	19.377	1212.979	924.350
190.286	19.207	1212.027	922.631
191.300	18.830	1210.524	919.387
192.315	18.687	1209.933	918.091
193.329	18.709	1209.361	917.698
194.344	18.849	1209.151	918.200
195.359	18.828	1208.867	917.795
196.373	19.120	1207.682	918.372
197.388	19.222	1207.272	918.519
198.402	19.278	1207.500	918.912
199.417	19.302	1206.885	918.492
200.432	19.515	1206.228	919.042
201.446	19.671	1205.303	919.087
202.461	19.740	1204.380	918.668
203.475	19.762	1203.250	917.840
204.490	19.447	1202.107	915.219
205.504	19.348	1200.586	913.454
206.519	19.390	1199.375	912.673
207.534	19.161	1198.649	910.831
208.548	19.345	1197.114	910.555
209.563	19.208	1196.960	909.632
210.577	19.364	1196.198	909.797
211.592	19.391	1194.911	908.883
212.607	19.510	1194.667	909.241
213.621	19.629	1193.657	909.018
214.636	19.491	1192.625	907.427
215.650	19.611	1191.662	907.244
216.665	19.596	1190.848	906.465
217.680	19.692	1190.472	906.602
218.694	19.776	1189.655	906.343
219.709	19.737	1188.369	905.075
220.723	19.823	1187.586	904.853
221.738	19.732	1186.688	903.608
222.753	19.683	1185.857	902.644
223.767	19.696	1185.234	902.158
224.782	19.716	1185.047	902.040
225.796	19.816	1184.486	902.050
226.811	19.780	1183.854	901.301
227.826	19.671	1182.799	899.851
228.840	19.619	1181.782	898.731
229.855	19.663	1181.356	898.554
230.869	19.664	1180.553	897.869
231.884	19.594	1179.391	896.545
232.899	19.459	1178.881	895.374
233.913	19.541	1177.890	894.968
234.928	19.424	1177.393	893.906
235.942	19.541	1176.261	893.571
236.957	19.511	1175.678	892.897
237.972	19.454	1175.410	892.319
238.986	19.484	1174.493	891.698
240.001	19.470	1173.741	890.978
241.015	19.670	1172.694	891.135
242.030	19.524	1172.077	889.833
243.045	19.718	1171.228	890.108
244.059	19.746	1170.717	889.786
245.074	19.762	1170.025	889.263
246.088	19.768	1169.437	888.770
247.103	19.879	1168.403	888.476
248.117	20.003	1168.162	888.851
249.132	20.133	1167.256	888.750
250.147	20.312	1166.968	889.369
251.161	20.429	1166.289	889.368
252.176	20.359	1165.763	888.533
253.190	20.439	1164.754	888.095
254.205	20.578	1164.612	888.617
255.220	20.664	1163.882	888.422
256.234	20.574	1162.984	887.198
257.249	20.457	1162.391	886.069
258.263	20.509	1161.535	885.602
259.278	20.546	1160.864	885.203
260.293	20.539	1160.408	884.742
261.307	20.616	1160.284	884.958
262.322	20.602	1159.126	883.928
263.336	20.557	1158.746	883.332
264.351	20.723	1157.924	883.470
265.366	20.741	1157.443	883.113
266.380	20.579	1156.952	881.840
267.395	20.520	1156.112	880.822
268.409	20.426	1154.976	879.403
269.424	20.499	1154.284	879.167
270.439	20.516	1153.895	878.880
271.453	20.409	1152.945	877.540
272.468	20.310	1151.949	876.204
273.482	20.349	1151.339	875.858
274.497	20.370	1150.632	875.349
275.512	20.375	1149.911	874.748
276.526	20.313	1149.597	874.118
277.541	20.364	1148.725	873.637
278.555	20.419	1147.807	873.136
279.570	20.594	1147.069	873.376
280.585	20.694	1146.492	873.363
281.599	20.789	1145.871	873.287
282.614	20.655	1144.374	871.398
283.628	20.478	1143.352	869.658
284.643	20.536	1142.241	869.026
285.657	20.645	1141.116	868.639
286.672	20.564	1140.596	867.762
287.687	20.716	1139.431	867.556
288.701	20.656	1139.014	866.861
289.716	20.584	1138.339	865.911
290.730	20.567	1137.910	865.424
291.745	20.606	1137.046	864.883
292.760	20.685	1136.386	864.699
293.774	20.679	1135.991	864.295
294.789	20.883	1134.992	864.470
295.803	20.779	1134.570	863.554
296.818	20.629	1133.951	862.262
297.833	20.737	1132.752	861.809
298.847	20.606	1132.202	860.667
299.862	20.719	1131.187	860.378
300.876	20.703	1130.930	860.027
301.891	20.918	1129.980	860.292
302.906	20.986	1129.323	860.052
303.920	20.960	1128.951	859.562
304.935	21.121	1128.570	859.987
305.949	21.166	1128.064	859.749
306.964	21.153	1127.313	859.037
307.979	21.048	1126.263	857.643
308.993	21.013	1125.773	857.024
310.008	21.075	1124.669	856.412
311.022	21.174	1124.730	856.869
312.037	21.200	1123.347	855.867
313.052	20.941	1121.981	853.484
314.066	20.797	1121.100	852.031
315.081	20.707	1120.688	851.205
316.095	20.754	1119.530	850.480
317.110	20.752	1118.587	849.676
318.125	20.954	1117.564	849.807
319.139	20.861	1117.027	848.875
320.154	20.751	1116.912	848.175
321.168	20.745	1116.259	847.576
322.183	20.748	1115.870	847.216
323.197	20.819	1115.150	846.942
324.212	20.879	1114.529	846.686
325.227	21.016	1113.770	846.702
326.241	20.920	1113.691	846.099
327.256	20.915	1112.501	845.098
328.270	20.770	1111.601	843.634
329.285	20.882	1110.842	843.528
330.300	20.868	1109.649	842.480
331.314	20.852	1108.328	841.322
332.329	20.938	1107.657	841.154
333.343	21.082	1106.575	840.954
334.358	21.112	1106.384	840.880
335.373	21.145	1105.588	840.358
336.387	21.158	1104.539	839.548
337.402	21.245	1103.961	839.455
338.416	21.305	1103.579	839.375
339.431	21.209	1103.412	838.712
340.446	21.316	1102.611	838.545
341.460	21.666	1101.546	839.337
342.475	21.515	1100.777	837.956
343.489	21.739	1099.576	838.038
344.504	21.763	1098.709	837.419
345.519	21.701	1098.265	836.710
346.533	21.738	1097.324	836.093
347.548	21.825	1096.731	835.985
348.562	21.727	1096.208	835.042
349.577	21.584	1095.065	833.421
350.592	21.439	1093.665	831.588
351.606	21.441	1092.945	830.977
352.621	21.379	1092.272	830.099
353.635	21.226	1091.773	828.921
354.650	21.236	1091.185	828.448
355.665	21.356	1090.701	828.577
356.679	21.366	1089.978	828.001
357.694	21.428	1089.377	827.764
358.708	21.507	1089.204	827.935
359.723	21.554	1088.440	827.500
360.738	21.604	1087.548	826.984
361.752	21.444	1087.346	826.003
362.767	21.417	1086.681	825.299
363.781	21.570	1086.107	825.508
364.796	21.699	1085.384	825.497
365.810	21.758	1084.947	825.370
366.825	21.932	1084.524	825.793
367.840	22.037	1083.902	825.738
368.854	22.088	1083.124	825.315
369.869	22.050	1082.567	824.640
370.883	22.064	1081.476	823.801
371.898	21.932	1080.606	822.446
372.913	21.860	1080.203	821.729
373.927	21.895	1079.886	821.577
374.942	22.120	1079.177	822.017
375.956	22.087	1078.581	821.336
376.971	21.994	1078.062	820.434
377.986	21.951	1077.763	819.936
379.000	22.101	1077.146	820.094
380.015	22.181	1076.443	819.858
381.029	22.272	1076.023	819.889
382.044	22.218	1075.332	819.037
383.059	22.173	1074.642	818.232
384.073	22.136	1073.582	817.182
385.088	22.247	1072.562	816.849
386.102	22.216	1071.553	815.861
387.117	22.094	1070.186	814.186
388.132	21.948	1069.560	812.961
389.146	21.845	1068.598	811.678
390.161	21.902	1068.026	811.436
391.175	21.855	1067.752	810.942
392.190	22.043	1066.852	811.051
393.205	22.212	1066.273	811.322
394.219	22.155	1065.681	810.538
395.234	22.138	1064.333	809.361
396.248	22.043	1063.134	807.939
397.263	22.009	1062.361	807.123
398.278	21.947	1061.665	806.240
399.292	21.976	1061.075	805.852
400.307	21.808	1060.336	804.451
401.321	21.954	1059.263	804.232
402.336	21.860	1058.708	803.310
403.350	21.800	1058.461	802.778
404.365	21.960	1057.437	802.661
405.380	22.059	1056.479	802.318
406.394	22.096	1056.230	802.225
407.409	22.258	1055.538	802.367
408.423	22.247	1055.206	801.995
409.438	22.376	1054.637	802.077
410.453	22.426	1053.899	801.675
411.467	22.562	1052.811	801.393
412.482	22.470	1052.796	800.895
413.496	22.586	1051.802	800.594
414.511	22.702	1051.237	800.618
415.526	22.715	1051.251	800.616
416.540	22.777	1050.865	800.536
417.555	22.785	1049.811	799.696
418.569	22.647	1049.398	798.686
419.584	22.629	1048.831	798.102
420.599	22.640	1048.269	797.652
421.613	154.555	1400.736	1788.013
422.628	141.733	1452.089	1788.121
