DTS Sentinel unit serial number:	SN413079Multiplexer serial number:	ORYXHardware model number:	OX4-SRSoftware version number:	ORYX F/W v4.00 Oryx Data Collector v3.7.2.0data status	okinstallation	princeton_trtdifferential loss correction	single-endedforward channel	channel 2reverse channel	N/Adate	2019/09/17time	12:27:35forward acquisition time	60.00reverse acquisition time	0.00gamma	496.2192k internal	0.2322k external	0.2322temperature offset calibration	0.9992default loss term (dB/km)	0.3790temperature slope calibration	1.0000multiplexer offset coefficient	1.0000multiplexer slope coefficient	1.0000fibre end	0.00T internal ref (°C)	31.83T ext. ref 1 (°C)	0.43T ext. ref 2 (°C)	28.97length (m)	temperature (°C)	Stokes	anti-Stokes-747.200	166.279	0.067	-0.096
-746.185	165.365	-0.168	0.239
-745.171	169.389	-0.248	0.358
-744.156	-64.139	-0.060	-0.025
-743.142	-180.745	0.056	-0.001
-742.127	-200.000	0.081	0.502
-741.112	-200.000	-0.032	0.194
-740.098	-54.505	-0.130	-0.059
-739.083	339.099	0.190	0.374
-738.069	800.000	0.084	0.317
-737.054	-100.536	-0.388	0.097
-736.039	-200.000	-0.009	-0.225
-735.025	81.892	0.273	0.299
-734.010	800.000	-0.117	-0.415
-732.996	800.000	0.124	-0.535
-731.981	122.910	-0.175	-0.222
-730.966	41.531	-0.277	0.253
-729.952	-149.106	-0.447	-0.036
-728.937	203.624	-0.100	-0.156
-727.923	-129.402	0.431	-0.060
-726.908	67.925	-0.081	-0.083
-725.894	84.557	-0.109	-0.121
-724.879	-97.091	-0.065	0.017
-723.864	-161.477	0.233	0.012
-722.850	56.402	-0.169	-0.166
-721.835	-158.393	-0.211	-0.012
-720.821	-65.066	-0.102	0.042
-719.806	14.280	0.260	0.205
-718.791	-17.517	-0.097	-0.062
-717.777	-130.950	0.269	-0.036
-716.762	-56.344	-0.122	0.055
-715.748	7.305	0.150	0.113
-714.733	-39.200	0.276	-0.146
-713.718	-200.000	0.014	-0.153
-712.704	800.000	0.018	-0.051
-711.689	95.861	-0.124	-0.143
-710.675	-153.826	0.123	0.008
-709.660	-200.000	-0.044	0.223
-708.645	-14.721	-0.206	-0.134
-707.631	-74.222	-0.144	-0.053
-706.616	79.656	-0.166	-0.179
-705.602	465.128	0.173	-0.390
-704.587	-103.028	0.204	-0.049
-703.572	-107.926	-0.107	0.024
-702.558	215.002	-0.045	-0.072
-701.543	800.000	-0.030	0.105
-700.529	299.134	-0.084	-0.156
-699.514	76.959	-0.259	-0.278
-698.499	290.452	0.183	-0.336
-697.485	-200.000	0.018	-0.161
-696.470	-200.000	0.055	0.464
-695.456	63.888	0.168	0.171
-694.441	130.119	-0.101	-0.130
-693.426	151.258	0.202	-0.277
-692.412	-200.000	-0.039	-0.287
-691.397	14.413	-0.137	0.108
-690.383	-200.000	-0.034	-0.174
-689.368	494.900	0.126	-0.293
-688.354	27.161	0.091	0.077
-687.339	236.933	0.063	0.106
-686.324	-103.077	-0.240	-0.057
-685.310	241.139	-0.161	0.271
-684.295	247.685	-0.176	-0.300
-683.281	757.177	-0.046	-0.125
-682.266	-27.276	-0.304	-0.179
-681.251	-65.923	-0.348	0.140
-680.237	102.942	-0.145	-0.172
-679.222	7.537	-0.104	-0.078
-678.208	-79.955	-0.187	-0.063
-677.193	3.803	0.137	0.101
-676.178	401.752	0.078	0.164
-675.164	-133.592	-0.086	-0.011
-674.149	-55.487	0.169	-0.076
-673.135	800.000	-0.044	-0.153
-672.120	-18.011	-0.202	0.128
-671.105	-106.777	0.249	-0.056
-670.091	800.000	0.019	0.060
-669.076	-137.145	-0.189	-0.022
-668.062	140.240	-0.133	0.177
-667.047	147.674	-0.259	-0.352
-666.032	1.302	0.085	0.062
-665.018	562.171	-0.141	0.344
-664.003	-200.000	0.021	0.273
-662.989	-134.547	-0.073	-0.009
-661.974	-44.886	0.181	-0.091
-660.959	-8.831	-0.141	-0.095
-659.945	85.564	-0.076	-0.085
-658.930	800.000	0.038	-0.159
-657.916	6.392	-0.254	0.190
-656.901	800.000	-0.095	0.315
-655.886	236.010	-0.129	0.214
-654.872	-200.000	0.003	0.341
-653.857	-200.000	-0.085	-0.502
-652.843	-200.000	-0.000	0.231
-651.828	-200.000	0.010	0.061
-650.814	-46.400	-0.097	0.048
-649.799	-101.318	0.252	0.062
-648.784	-33.580	-0.124	-0.069
-647.770	98.616	-0.075	0.087
-646.755	698.275	0.089	0.235
-645.741	-94.526	0.451	0.124
-644.726	-200.000	0.000	-0.163
-643.711	800.000	-0.052	-0.199
-642.697	152.991	-0.036	-0.050
-641.682	-87.297	0.035	0.011
-640.668	-81.144	-0.255	0.085
-639.653	-21.815	-0.091	0.056
-638.638	-129.278	-0.181	0.025
-637.624	62.842	-0.106	-0.107
-636.609	-83.614	0.191	-0.062
-635.595	-200.000	0.007	-0.156
-634.580	800.000	-0.060	-0.173
-633.565	-69.104	-0.237	0.092
-632.551	19.431	-0.338	0.273
-631.536	-103.076	-0.176	-0.042
-630.522	-133.776	0.170	0.021
-629.507	-182.785	0.409	0.007
-628.492	-24.722	0.214	-0.128
-627.478	153.219	0.162	0.222
-626.463	263.533	0.053	0.093
-625.449	-71.329	-0.263	0.099
-624.434	800.000	0.053	0.209
-623.419	265.131	-0.020	0.035
-622.405	-11.843	-0.063	-0.041
-621.390	800.000	0.067	-0.288
-620.376	619.740	0.071	0.180
-619.361	113.518	0.081	0.098
-618.346	-101.373	0.132	-0.032
-617.332	248.857	-0.055	-0.094
-616.317	610.398	0.111	0.280
-615.303	-59.431	0.126	0.055
-614.288	28.295	-0.231	0.196
-613.273	-65.641	0.394	0.159
-612.259	-200.000	-0.042	0.193
-611.244	19.363	0.199	-0.161
-610.230	433.028	-0.081	-0.176
-609.215	-79.943	0.122	-0.041
-608.201	-10.268	0.181	0.121
-607.186	-200.000	-0.014	0.225
-606.171	-200.000	0.003	0.097
-605.157	-114.572	-0.320	0.062
-604.142	60.762	0.098	0.097
-603.128	255.303	0.067	0.115
-602.113	-63.239	-0.271	-0.112
-601.098	267.275	-0.219	-0.384
-600.084	20.149	-0.177	0.144
-599.069	132.173	-0.042	0.055
-598.055	-200.000	-0.051	0.282
-597.040	136.417	0.116	-0.152
-596.025	381.409	-0.065	0.133
-595.011	-3.146	-0.088	-0.062
-593.996	-22.453	0.433	0.263
-592.982	-156.592	-0.180	-0.011
-591.967	530.253	-0.073	0.174
-590.952	-200.000	-0.027	-0.221
-589.938	-99.825	0.283	0.071
-588.923	65.177	-0.047	-0.048
-587.909	253.177	-0.103	0.176
-586.894	800.000	-0.074	0.290
-585.879	-36.512	0.158	-0.085
-584.865	-136.526	-0.033	-0.004
-583.850	800.000	0.066	-0.225
-582.836	-74.439	-0.260	-0.094
-581.821	-25.525	0.403	-0.239
-580.806	-200.000	-0.006	-0.041
-579.792	330.677	-0.115	-0.223
-578.777	211.798	0.293	-0.464
-577.763	-145.674	0.099	0.009
-576.748	-112.488	0.231	-0.046
-575.733	158.509	-0.146	-0.203
-574.719	641.758	-0.089	-0.229
-573.704	289.523	-0.188	-0.342
-572.690	-67.907	-0.356	-0.140
-571.675	-200.000	0.018	0.117
-570.661	31.311	0.102	-0.088
-569.646	-200.000	-0.017	-0.183
-568.631	23.441	0.052	0.043
-567.617	-200.000	0.016	-0.138
-566.602	95.588	0.037	0.042
-565.588	800.000	-0.022	0.061
-564.573	450.802	0.113	0.251
-563.558	-200.000	-0.001	-0.110
-562.544	240.392	0.170	-0.284
-561.529	147.292	0.033	0.044
-560.515	-136.206	0.115	0.014
-559.500	-73.204	0.127	-0.047
-558.485	-143.786	0.224	0.021
-557.471	-200.000	-0.021	-0.387
-556.456	120.902	-0.098	0.122
-555.442	-33.851	0.302	0.167
-554.427	25.049	0.083	-0.069
-553.412	-200.000	-0.039	0.201
-552.398	148.350	0.260	0.352
-551.383	23.121	0.210	0.173
-550.369	-162.551	-0.278	-0.014
-549.354	-42.052	0.265	0.136
-548.339	-8.101	0.140	-0.095
-547.325	81.416	-0.169	-0.183
-546.310	7.855	-0.168	-0.126
-545.296	148.199	-0.075	-0.101
-544.281	-109.067	-0.185	-0.040
-543.266	23.453	-0.151	-0.124
-542.252	-48.694	0.137	-0.066
-541.237	-200.000	-0.066	-0.381
-540.223	20.740	0.119	0.096
-539.208	-155.680	-0.085	0.005
-538.193	-76.540	0.179	-0.063
-537.179	-200.000	0.020	-0.114
-536.164	46.000	-0.232	-0.215
-535.150	236.021	-0.065	0.107
-534.135	800.000	-0.114	-0.379
-533.121	428.564	-0.036	-0.077
-532.106	-100.590	-0.252	-0.062
-531.091	800.000	-0.093	-0.310
-530.077	-70.656	0.237	-0.090
-529.062	-200.000	0.002	0.324
-528.048	248.525	0.179	0.304
-527.033	49.687	-0.108	0.102
-526.018	-200.000	-0.026	-0.177
-525.004	-143.382	-0.282	-0.027
-523.989	-52.357	-0.124	0.058
-522.975	104.207	0.133	0.156
-521.960	101.994	0.173	0.202
-520.945	-64.772	-0.348	0.141
-519.931	-124.765	0.188	-0.029
-518.916	800.000	0.042	-0.155
-517.902	343.487	-0.155	-0.304
-516.887	800.000	-0.050	0.173
-515.872	800.000	-0.051	0.211
-514.858	-71.586	-0.096	0.036
-513.843	-80.473	0.264	-0.088
-512.829	-118.994	0.323	-0.057
-511.814	-148.355	-0.344	0.028
-510.799	-109.719	0.251	-0.053
-509.785	-53.116	0.299	-0.137
-508.770	-60.671	0.044	0.019
-507.756	-121.245	-0.246	-0.041
-506.741	-109.203	0.135	0.029
-505.726	-8.492	-0.201	0.135
-504.712	800.000	-0.082	0.277
-503.697	7.843	-0.149	-0.112
-502.683	21.969	-0.105	-0.085
-501.668	139.621	0.098	0.130
-500.653	213.379	-0.175	0.277
-499.639	131.549	-0.127	0.163
-498.624	800.000	-0.066	-0.207
-497.610	-200.000	0.004	0.254
-496.595	-167.822	-0.302	-0.012
-495.581	-200.000	0.038	-0.195
-494.566	347.481	-0.012	-0.023
-493.551	-151.978	0.248	-0.018
-492.537	577.543	-0.068	-0.167
-491.522	118.111	-0.063	-0.078
-490.508	25.636	-0.366	0.304
-489.493	-149.319	-0.217	-0.017
-488.478	198.703	-0.071	0.109
-487.464	-19.468	-0.200	0.124
-486.449	-200.000	0.077	0.374
-485.435	61.424	0.349	0.347
-484.420	81.272	0.092	-0.099
-483.405	-45.426	0.131	-0.065
-482.391	-195.406	-0.205	-0.002
-481.376	310.488	0.170	0.318
-480.362	267.202	0.029	-0.051
-479.347	-166.638	-0.117	-0.005
-478.332	-147.730	0.072	0.006
-477.318	75.758	-0.159	-0.168
-476.303	28.204	0.252	-0.213
-475.289	-122.194	-0.174	0.028
-474.274	-61.221	-0.176	-0.074
-473.259	33.937	0.173	-0.151
-472.245	-200.000	-0.029	0.367
-471.230	212.675	0.113	0.178
-470.216	-171.838	-0.278	-0.009
-469.201	150.251	0.207	-0.280
-468.186	-90.215	0.223	-0.065
-467.172	-78.384	0.150	0.051
-466.157	-78.006	-0.361	-0.124
-465.143	-34.833	-0.225	0.123
-464.128	120.132	0.089	0.111
-463.113	-35.031	0.216	-0.118
-462.099	800.000	-0.055	0.207
-461.084	-1.283	0.260	-0.184
-460.070	363.222	0.104	0.209
-459.055	24.231	-0.089	-0.074
-458.040	-45.445	-0.020	-0.010
-457.026	-42.457	0.116	-0.059
-456.011	-45.948	-0.158	0.078
-454.997	-122.786	0.412	0.066
-453.982	12.486	0.157	0.121
-452.968	623.003	0.131	0.331
-451.953	800.000	0.078	-0.312
-450.938	-75.022	0.085	-0.030
-449.924	70.754	0.208	0.215
-448.909	800.000	-0.063	-0.228
-447.895	35.735	-0.154	-0.135
-446.880	800.000	-0.036	0.148
-445.865	47.189	-0.371	0.345
-444.851	116.805	-0.172	0.211
-443.836	125.384	-0.046	0.058
-442.822	-200.000	-0.005	-0.189
-441.807	-34.929	-0.212	-0.116
-440.792	-34.063	-0.174	0.096
-439.778	800.000	-0.067	-0.265
-438.763	-98.161	0.109	0.028
-437.749	-200.000	-0.033	-0.175
-436.734	-200.000	-0.039	-0.387
-435.719	-200.000	-0.012	-0.139
-434.705	-147.557	-0.228	0.019
-433.690	-27.289	0.242	-0.141
-432.676	800.000	0.053	0.221
-431.661	88.871	0.217	-0.241
-430.646	628.901	0.083	-0.210
-429.632	-39.139	-0.156	-0.082
-428.617	249.585	-0.225	0.381
-427.603	800.000	-0.032	-0.087
-426.588	-8.450	-0.113	0.076
-425.573	800.000	0.065	-0.192
-424.559	48.352	-0.095	-0.089
-423.544	800.000	0.014	0.060
-422.530	-163.872	0.233	0.011
-421.515	-200.000	-0.018	-0.092
-420.500	591.382	-0.069	0.169
-419.486	-200.000	-0.028	-0.179
-418.471	450.105	-0.245	-0.539
-417.457	246.834	-0.073	0.123
-416.442	214.142	-0.118	0.186
-415.428	-200.000	0.018	-0.432
-414.413	-38.558	0.013	-0.007
-413.398	184.620	0.113	-0.167
-412.384	84.955	-0.152	-0.167
-411.369	53.623	0.114	-0.109
-410.355	763.357	0.116	-0.314
-409.340	-200.000	-0.000	0.174
-408.325	-200.000	-0.001	0.162
-407.311	473.595	-0.058	0.129
-406.296	432.926	-0.074	-0.160
-405.282	89.250	0.191	-0.212
-404.267	-42.041	-0.474	0.242
-403.252	6.361	0.324	-0.240
-402.238	178.167	0.078	0.114
-401.223	-200.000	0.042	-0.325
-400.209	280.972	-0.062	0.110
-399.194	-25.673	0.115	0.067
-398.179	-54.516	0.143	0.065
-397.165	160.979	-0.155	0.216
-396.150	-62.132	0.152	-0.063
-395.136	-11.499	0.291	-0.191
-394.121	-2.712	-0.184	-0.128
-393.106	800.000	-0.060	-0.172
-392.092	-112.386	0.175	-0.035
-391.077	-200.000	0.018	0.332
-390.063	-120.328	-0.094	0.016
-389.048	-143.140	0.186	0.018
-388.033	-200.000	-0.025	0.452
-387.019	24.548	-0.048	0.040
-386.004	-200.000	-0.009	0.204
-384.990	-160.482	-0.231	-0.012
-383.975	57.196	-0.137	0.133
-382.960	98.485	0.007	-0.008
-381.946	-15.958	-0.188	0.119
-380.931	-200.000	-0.013	-0.466
-379.917	48.458	0.119	0.111
-378.902	304.740	0.216	0.400
-377.888	-5.856	0.149	-0.101
-376.873	-85.971	0.246	0.076
-375.858	-34.229	-0.176	0.096
-374.844	800.000	0.130	-0.463
-373.829	205.732	-0.056	0.086
-372.815	-29.823	0.209	-0.119
-371.800	-200.000	-0.022	0.121
-370.785	769.882	0.108	0.292
-369.771	-200.000	-0.018	-0.209
-368.756	31.636	-0.098	0.084
-367.742	-65.124	0.442	0.178
-366.727	221.009	-0.079	-0.127
-365.712	40.476	0.070	0.063
-364.698	800.000	-0.064	-0.280
-363.683	131.718	0.048	0.062
-362.669	-107.116	0.237	-0.052
-361.654	169.897	0.164	0.234
-360.639	-200.000	0.010	0.353
-359.625	-200.000	0.010	-0.200
-358.610	800.000	0.033	0.101
-357.596	-2.404	-0.170	0.119
-356.581	-166.412	-0.179	-0.007
-355.566	-95.791	0.039	0.010
-354.552	-123.072	0.316	-0.050
-353.537	181.596	-0.171	-0.250
-352.523	-107.451	-0.090	0.020
-351.508	-27.095	-0.247	0.143
-350.493	351.134	-0.052	0.102
-349.479	800.000	-0.066	-0.249
-348.464	-116.228	0.175	-0.032
-347.450	314.307	-0.116	0.216
-346.435	378.576	0.095	-0.193
-345.420	-126.871	-0.198	-0.029
-344.406	204.579	0.057	-0.088
-343.391	-137.980	-0.056	0.006
-342.377	-8.688	-0.197	-0.132
-341.362	210.772	-0.018	0.028
-340.348	78.375	-0.108	-0.115
-339.333	20.723	0.298	0.240
-338.318	193.998	-0.131	0.198
-337.304	-131.216	-0.321	-0.042
-336.289	522.665	0.141	0.329
-335.275	-200.000	0.009	0.192
-334.260	36.759	-0.318	0.279
-333.245	-200.000	-0.039	0.337
-332.231	21.607	-0.106	0.086
-331.216	716.711	0.116	0.306
-330.202	163.054	0.068	0.094
-329.187	50.835	-0.313	-0.295
-328.172	-60.277	0.016	-0.007
-327.158	121.325	0.097	0.120
-326.143	-115.507	0.097	0.018
-325.129	-104.733	-0.213	-0.049
-324.114	337.884	-0.026	0.051
-323.099	34.705	-0.094	0.081
-322.085	224.487	-0.093	0.149
-321.070	14.895	-0.099	0.077
-320.056	213.401	-0.064	0.101
-319.041	-43.726	-0.135	0.067
-318.026	-18.512	-0.082	-0.051
-317.012	255.128	-0.163	0.278
-315.997	-12.162	0.042	-0.027
-314.983	800.000	0.061	0.213
-313.968	-31.656	0.207	0.115
-312.953	-94.126	0.081	-0.022
-311.939	488.130	0.137	0.311
-310.924	800.000	-0.014	-0.052
-309.910	340.464	0.078	-0.152
-308.895	491.079	-0.125	-0.284
-307.880	-112.432	-0.112	-0.022
-306.866	337.494	0.096	0.186
-305.851	78.740	0.314	-0.334
-304.837	-108.347	0.124	0.027
-303.822	-99.242	0.076	0.019
-302.807	184.857	-0.208	0.307
-301.793	527.066	0.066	0.155
-300.778	426.290	-0.028	-0.061
-299.764	10.543	0.106	0.080
-298.749	230.076	0.093	-0.151
-297.735	22.135	-0.068	-0.055
-296.720	-200.000	0.002	-0.118
-295.705	-116.388	-0.248	-0.046
-294.691	-200.000	-0.016	-0.134
-293.676	-95.424	0.176	0.047
-292.662	597.846	0.129	0.318
-291.647	-200.000	-0.026	0.155
-290.632	-29.198	-0.336	0.191
-289.618	82.371	0.116	0.125
-288.603	-152.594	-0.234	-0.017
-287.589	244.394	-0.087	-0.145
-286.574	11.765	-0.081	-0.062
-285.559	-61.269	-0.142	-0.060
-284.545	177.702	-0.134	0.194
-283.530	-22.031	-0.042	-0.026
-282.516	-200.000	-0.038	-0.333
-281.501	-200.000	-0.008	-0.044
-280.486	362.203	0.195	0.387
-279.472	-200.000	-0.088	-0.484
-278.457	-37.419	-0.102	-0.054
-277.443	800.000	-0.055	0.183
-276.428	-139.278	-0.067	0.007
-275.413	-200.000	-0.035	-0.163
-274.399	800.000	-0.155	0.478
-273.384	800.000	-0.090	0.269
-272.370	-200.000	-0.002	-0.161
-271.355	-96.696	-0.345	0.090
-270.340	-16.434	-0.149	-0.094
-269.326	13.313	-0.102	-0.079
-268.311	-200.000	0.013	0.129
-267.297	340.805	0.136	-0.263
-266.282	800.000	-0.023	-0.091
-265.267	-200.000	-0.017	-0.173
-264.253	800.000	-0.017	0.069
-263.238	9.034	0.152	0.114
-262.224	-105.219	0.356	-0.081
-261.209	-99.417	0.174	0.044
-260.195	9.370	-0.134	-0.100
-259.180	-69.928	0.158	-0.060
-258.165	15.120	0.086	-0.067
-257.151	-117.515	-0.527	-0.094
-256.136	-200.000	0.029	0.383
-255.122	-159.184	-0.139	-0.008
-254.107	-160.973	0.652	-0.034
-253.092	-188.901	-0.089	-0.001
-252.078	-67.762	0.166	-0.064
-251.063	11.494	0.203	0.154
-250.049	74.493	0.117	0.122
-249.034	800.000	0.065	-0.238
-248.019	-101.644	0.218	-0.052
-247.005	29.840	-0.205	0.173
-245.990	-200.000	-0.011	-0.236
-244.976	800.000	0.076	-0.312
-243.961	208.202	-0.148	-0.229
-242.946	-17.535	-0.297	-0.185
-241.932	54.925	0.170	0.163
-240.917	-20.254	0.130	-0.079
-239.903	-77.867	-0.032	-0.011
-238.888	-117.575	-0.293	-0.052
-237.873	800.000	-0.072	-0.226
-236.859	-200.000	0.025	0.197
-235.844	-200.000	0.004	-0.237
-234.830	-53.501	0.184	-0.083
-233.815	-80.380	0.086	-0.028
-232.800	362.968	-0.086	-0.171
-231.786	190.778	0.151	-0.224
-230.771	800.000	0.022	0.088
-229.757	800.000	-0.039	-0.125
-228.742	152.271	0.134	0.182
-227.727	-63.546	-0.095	-0.039
-226.713	-6.207	0.226	-0.153
-225.698	-200.000	0.017	-0.144
-224.684	83.137	0.140	-0.150
-223.669	-42.934	0.136	-0.068
-222.655	-144.135	0.355	0.033
-221.640	8.666	-0.227	0.170
-220.625	239.814	0.046	0.076
-219.611	104.674	-0.259	-0.302
-218.596	-125.231	-0.303	-0.046
-217.582	86.524	-0.080	0.087
-216.567	52.942	-0.106	0.101
-215.552	685.202	-0.054	-0.138
-214.538	244.233	0.134	0.223
-213.523	-60.742	-0.176	0.074
-212.509	-200.000	-0.012	0.062
-211.494	96.561	0.153	-0.173
-210.479	-116.297	-0.047	-0.009
-209.465	-200.000	-0.034	-0.503
-208.450	-200.000	-0.039	0.271
-207.436	55.654	-0.114	0.109
-206.421	-162.365	0.390	-0.019
-205.406	35.617	0.344	-0.299
-204.392	-200.000	0.006	0.059
-203.377	-200.000	0.024	-0.402
-202.363	155.742	0.185	0.251
-201.348	-82.853	-0.102	-0.032
-200.333	-192.333	-0.369	-0.003
-199.319	156.328	-0.059	0.080
-198.304	115.345	0.240	0.290
-197.290	-119.787	-0.415	0.071
-196.275	-69.254	-0.167	0.063
-195.260	-72.269	0.319	-0.117
-194.246	-100.421	0.453	0.111
-193.231	373.886	0.070	-0.142
-192.217	104.618	-0.139	-0.162
-191.202	257.098	0.036	-0.060
-190.187	-74.900	0.187	-0.066
-189.173	-60.706	-0.067	-0.028
-188.158	-15.183	0.146	0.093
-187.144	43.457	0.080	0.072
-186.129	-21.802	-0.164	0.099
-185.114	-200.000	0.001	-0.027
-184.100	-139.833	0.182	0.019
-183.085	-36.515	0.301	-0.160
-182.071	-118.845	-0.250	0.043
-181.056	358.725	-0.123	0.242
-180.042	-200.000	-0.047	0.240
-179.027	-72.614	0.427	-0.156
-178.012	483.241	0.088	-0.198
-176.998	800.000	0.125	0.357
-175.983	-16.221	-0.169	-0.106
-174.969	800.000	0.051	-0.159
-173.954	83.522	0.171	-0.185
-172.939	-200.000	-0.031	-0.570
-171.925	-127.114	-0.336	0.049
-170.910	-106.576	-0.349	0.077
-169.896	38.077	-0.145	-0.128
-168.881	800.000	0.090	0.385
-167.866	215.883	-0.114	0.179
-166.852	-40.611	0.032	0.016
-165.837	-200.000	0.006	-0.187
-164.823	-62.946	-0.178	-0.072
-163.808	399.760	-0.024	0.049
-162.793	-55.967	0.258	-0.114
-161.779	622.911	0.021	0.053
-160.764	-200.000	0.038	0.475
-159.750	-94.974	0.075	0.020
-158.735	-92.256	-0.174	0.048
-157.720	-4.647	-0.412	0.281
-156.706	717.240	-0.119	0.312
-155.691	-135.432	0.151	0.018
-154.677	256.085	0.063	-0.106
-153.662	128.337	0.232	-0.292
-152.647	-82.394	0.228	0.073
-151.633	239.932	-0.186	-0.306
-150.618	-200.000	0.030	-0.343
-149.604	-34.897	-0.278	-0.150
-148.589	-103.224	-0.176	-0.041
-147.574	-104.340	0.412	-0.094
-146.560	-200.000	-0.005	0.271
-145.545	-200.000	-0.010	-0.144
-144.531	81.939	0.101	0.108
-143.516	-176.462	0.266	0.007
-142.502	798.731	0.094	0.255
-141.487	800.000	-0.088	0.252
-140.472	182.377	0.190	0.276
-139.458	-96.738	-0.245	0.064
-138.443	-131.869	0.020	0.003
-137.429	-36.246	-0.341	0.182
-136.414	800.000	0.050	-0.208
-135.399	-15.184	0.213	0.134
-134.385	-46.211	0.126	0.061
-133.370	-3.971	-0.210	-0.143
-132.356	-200.000	-0.015	-0.402
-131.341	267.233	0.148	0.255
-130.326	-109.822	-0.122	-0.025
-129.312	800.000	0.078	-0.229
-128.297	-200.000	-0.008	-0.138
-127.283	800.000	-0.043	-0.178
-126.268	193.019	-0.058	-0.086
-125.253	-16.322	0.058	0.037
-124.239	162.785	0.077	-0.107
-123.224	-38.173	-0.232	0.121
-122.210	68.912	-0.105	0.107
-121.195	6.372	-0.135	-0.099
-120.180	765.718	0.093	0.249
-119.166	-57.003	-0.234	0.102
-118.151	41.440	0.375	0.335
-117.137	597.366	0.083	0.202
-116.122	-200.000	-0.086	0.395
-115.107	800.000	0.067	0.192
-114.093	290.827	0.088	0.158
-113.078	147.075	-0.122	0.162
-112.064	-17.825	0.237	0.146
-111.049	-200.000	-0.025	0.125
-110.034	-13.660	0.091	-0.058
-109.020	-82.128	0.215	-0.069
-108.005	-31.735	0.194	-0.107
-106.991	-42.704	0.452	-0.226
-105.976	-137.358	-0.264	0.030
-104.962	318.987	0.042	0.079
-103.947	193.512	0.087	0.130
-102.932	-200.000	-0.029	0.206
-101.918	115.928	-0.167	0.202
-100.903	-200.000	0.035	0.239
-99.889	191.600	-0.121	0.179
-98.874	-91.175	-0.160	-0.045
-97.859	800.000	-0.059	0.184
-96.845	-98.403	0.093	-0.023
-95.830	-147.357	0.274	0.023
-94.816	284.531	-0.256	0.453
-93.801	-123.929	0.186	0.029
-92.786	-146.937	-0.154	0.013
-91.772	74.040	0.273	-0.282
-90.757	155.177	0.191	0.259
-89.743	-200.000	0.021	0.113
-88.728	-123.296	0.267	0.042
-87.713	391.263	0.076	-0.155
-86.699	-88.717	-0.165	0.048
-85.684	-90.515	0.198	0.057
-84.670	293.711	0.032	0.058
-83.655	-45.606	0.142	-0.069
-82.640	800.000	-0.116	0.335
-81.626	-199.754	-0.233	-0.001
-80.611	-82.597	0.220	-0.070
-79.597	232.071	-0.155	0.250
-78.582	307.390	-0.064	0.118
-77.567	59.888	0.368	-0.358
-76.553	-136.386	-0.236	-0.027
-75.538	-146.271	0.229	0.020
-74.524	-38.182	0.228	-0.119
-73.509	79.096	-0.309	0.326
-72.494	-39.174	0.255	0.132
-71.480	16.185	-0.070	-0.055
-70.465	439.500	0.089	0.191
-69.451	-35.282	0.288	0.154
-68.436	-200.000	-0.029	-0.152
-67.422	-200.000	-0.005	0.250
-66.407	-68.484	-0.273	0.104
-65.392	22.913	-0.232	-0.187
-64.378	10.610	0.116	0.087
-63.363	585.315	-0.061	-0.148
-62.349	-160.924	0.306	0.016
-61.334	8.092	-0.993	-0.733
-60.319	70.143	0.308	0.312
-59.305	800.000	-0.338	-1.197
-58.290	800.000	0.261	0.869
-57.276	287.148	0.668	1.188
-56.261	-200.000	95.201	589.643
-55.246	544.152	1410.307	3311.808
-54.232	154.517	2596.915	3507.211
-53.217	105.745	2304.251	2680.113
-52.203	41.303	1921.923	1709.153
-51.188	34.949	1710.198	1472.108
-50.173	32.437	1665.977	1415.126
-49.159	50.505	1710.986	1591.203
-48.144	51.664	1727.002	1614.837
-47.130	34.733	1689.558	1452.470
-46.115	31.968	1674.993	1419.014
-45.100	31.758	1670.504	1413.572
-44.086	31.717	1667.037	1410.271
-43.071	31.803	1664.535	1408.744
-42.057	31.654	1662.295	1405.675
-41.042	31.695	1660.491	1404.400
-40.027	31.712	1658.265	1402.589
-39.013	31.707	1656.085	1400.653
-37.998	31.654	1655.133	1399.398
-36.984	31.715	1653.477	1398.400
-35.969	31.801	1651.892	1397.644
-34.954	31.881	1650.778	1397.243
-33.940	31.866	1648.333	1395.007
-32.925	31.873	1646.600	1393.533
-31.911	31.784	1645.410	1391.814
-30.896	31.900	1642.865	1390.465
-29.881	31.841	1641.814	1389.083
-28.867	31.796	1640.160	1387.296
-27.852	31.883	1638.082	1386.125
-26.838	31.860	1636.515	1384.576
-25.823	31.852	1635.899	1383.941
-24.809	31.882	1634.118	1382.595
-23.794	31.812	1632.864	1380.969
-22.779	31.833	1631.823	1380.186
-21.765	31.783	1629.787	1378.040
-20.750	31.893	1627.668	1377.002
-19.736	31.922	1626.426	1376.109
-18.721	31.888	1624.926	1374.538
-17.706	31.823	1624.048	1373.266
-16.692	31.853	1622.082	1371.768
-15.677	31.842	1621.204	1370.887
-14.663	31.922	1619.279	1369.791
-13.648	31.866	1618.119	1368.345
-12.633	31.805	1616.667	1366.617
-11.619	31.879	1614.735	1365.472
-10.604	31.759	1613.938	1363.870
-9.590	31.818	1612.549	1363.069
-8.575	31.841	1611.069	1361.932
-7.560	31.863	1609.789	1360.955
-6.546	31.821	1609.091	1360.007
-5.531	31.875	1607.334	1358.856
-4.517	31.813	1605.979	1357.210
-3.502	31.873	1605.235	1356.963
-2.487	31.892	1603.681	1355.734
-1.473	31.888	1592.079	1345.846
-0.458	29.784	1573.765	1315.362
0.556	24.989	1574.287	1284.488
1.571	22.393	1597.986	1284.791
2.586	21.758	1611.006	1290.470
3.600	19.727	1557.230	1232.817
4.615	11.104	1444.642	1086.288
5.629	2.339	1377.142	979.500
6.644	0.609	1368.255	962.078
7.659	0.416	1367.548	960.270
8.673	0.311	1366.448	958.740
9.688	0.394	1364.143	957.567
10.702	0.171	1361.299	954.070
11.717	4.089	1367.919	983.541
12.731	13.019	1381.438	1050.227
13.746	17.907	1387.770	1086.115
14.761	17.472	1386.495	1082.256
15.775	16.566	1383.480	1074.059
16.790	15.459	1380.787	1064.853
17.804	14.711	1378.203	1058.032
18.819	14.389	1377.098	1055.047
19.834	14.039	1375.645	1051.628
20.848	13.813	1374.216	1049.013
21.863	13.550	1372.844	1046.214
22.877	13.381	1371.989	1044.401
23.892	13.387	1370.567	1043.265
24.907	13.335	1370.136	1042.518
25.921	13.437	1369.096	1042.276
26.936	13.427	1368.427	1041.612
27.950	13.530	1367.473	1041.439
28.965	13.504	1366.355	1040.332
29.980	13.550	1365.342	1039.762
30.994	13.702	1364.717	1040.144
32.009	13.707	1363.298	1039.002
33.023	13.789	1362.218	1038.600
34.038	13.638	1361.146	1036.749
35.053	13.497	1360.481	1035.265
36.067	13.534	1358.975	1034.259
37.082	13.553	1358.292	1033.766
38.096	13.637	1357.417	1033.534
39.111	13.651	1356.449	1032.795
40.126	13.534	1355.541	1031.282
41.140	13.524	1354.693	1030.482
42.155	13.430	1354.445	1029.618
43.169	13.406	1354.543	1029.452
44.184	13.459	1354.039	1029.310
45.199	13.537	1353.448	1029.255
46.213	13.532	1352.858	1028.686
47.228	13.569	1352.283	1028.386
48.242	13.516	1351.281	1027.200
49.257	13.433	1349.477	1025.226
50.271	13.549	1347.753	1024.541
51.286	13.484	1346.668	1023.224
52.301	13.499	1345.554	1022.382
53.315	13.421	1344.924	1021.332
54.330	13.555	1343.460	1020.953
55.344	13.419	1342.360	1019.193
56.359	13.490	1341.160	1018.628
57.374	13.420	1340.621	1017.700
58.388	13.434	1339.459	1016.809
59.403	13.444	1339.014	1016.447
60.417	13.353	1338.506	1015.409
61.432	13.346	1337.723	1014.683
62.447	13.385	1336.137	1013.633
63.461	13.279	1335.262	1012.225
64.476	13.237	1334.710	1011.459
65.490	13.354	1333.213	1010.953
66.505	13.336	1330.827	1008.945
67.520	13.375	1330.328	1008.712
68.534	13.358	1329.113	1007.603
69.549	13.420	1327.715	1006.828
70.563	13.350	1326.689	1005.535
71.578	13.266	1325.916	1004.353
72.593	13.255	1324.569	1003.173
73.607	13.320	1323.834	1002.927
74.622	13.283	1323.292	1002.199
75.636	13.193	1322.558	1001.009
76.651	13.272	1321.509	1000.608
77.666	13.214	1320.949	999.742
78.680	13.278	1320.434	999.649
79.695	13.360	1319.515	999.364
80.709	13.378	1319.008	998.998
81.724	13.299	1317.884	997.583
82.739	13.394	1317.103	997.479
83.753	13.475	1315.996	997.037
84.768	13.492	1315.317	996.539
85.782	13.577	1313.603	995.664
86.797	13.651	1312.517	995.197
87.812	13.534	1311.347	993.514
88.826	13.465	1310.620	992.463
89.841	13.587	1309.422	992.200
90.855	13.603	1307.927	991.078
91.870	13.554	1307.588	990.438
92.884	13.549	1306.191	989.265
93.899	13.552	1305.560	988.718
94.914	13.597	1305.034	988.499
95.928	13.640	1304.213	988.043
96.943	13.575	1303.304	986.882
97.957	13.598	1302.377	986.231
98.972	13.600	1300.961	985.079
99.987	13.496	1300.380	983.934
101.001	13.467	1299.563	983.061
102.016	13.561	1298.162	982.470
103.030	13.566	1297.924	982.233
104.045	13.599	1296.539	981.294
105.060	13.535	1295.501	980.040
106.074	13.435	1294.221	978.394
107.089	13.400	1293.184	977.321
108.103	13.429	1291.510	976.138
109.118	13.412	1290.603	975.264
110.133	13.463	1288.936	974.222
111.147	13.364	1287.894	972.761
112.162	13.565	1286.564	972.855
113.176	13.480	1285.623	971.559
114.191	13.539	1284.272	970.799
115.206	13.620	1283.212	970.385
116.220	13.552	1281.883	968.897
117.235	13.494	1280.824	967.669
118.249	13.408	1280.367	966.735
119.264	13.396	1278.715	965.333
120.279	13.494	1277.526	964.919
121.293	13.438	1277.024	964.132
122.308	13.429	1276.194	963.369
123.322	13.394	1274.866	962.078
124.337	13.465	1273.688	961.514
125.352	13.359	1272.493	959.914
126.366	13.434	1271.622	959.603
127.381	13.443	1270.178	958.480
128.395	13.450	1269.311	957.783
129.410	13.398	1268.637	956.891
130.424	13.528	1267.621	956.791
131.439	13.490	1266.780	955.852
132.454	13.570	1265.243	955.067
133.468	13.508	1265.165	954.568
134.483	13.563	1263.817	953.783
135.497	13.625	1262.765	953.261
136.512	13.555	1261.539	951.849
137.527	13.529	1260.233	950.632
138.541	13.553	1258.815	949.615
139.556	13.537	1257.818	948.688
140.570	13.643	1256.621	948.304
141.585	13.623	1255.201	947.036
142.600	13.638	1253.984	946.117
143.614	13.628	1253.565	945.662
144.629	13.710	1251.987	944.854
145.643	13.717	1250.891	943.986
146.658	13.695	1249.886	943.020
147.673	13.578	1248.234	941.023
148.687	13.627	1246.769	940.115
149.702	13.648	1245.299	939.040
150.716	13.670	1244.298	938.328
151.731	13.516	1243.554	936.814
152.746	13.583	1241.856	935.828
153.760	13.608	1240.592	934.937
154.775	13.654	1239.997	934.662
155.789	13.636	1238.783	933.566
156.804	13.738	1237.777	933.297
157.819	13.827	1236.896	933.053
158.833	13.775	1235.924	931.942
159.848	13.807	1234.733	931.143
160.862	13.853	1233.503	930.390
161.877	13.715	1232.763	928.977
162.892	13.608	1231.702	927.494
163.906	13.749	1230.715	927.460
164.921	13.783	1229.839	926.904
165.935	13.666	1229.312	925.776
166.950	13.750	1228.615	925.635
167.964	13.788	1227.886	925.217
168.979	13.860	1226.695	924.636
169.994	13.835	1226.013	923.903
171.008	13.802	1225.509	923.260
172.023	13.798	1224.203	922.172
173.037	13.921	1223.406	922.170
174.052	13.897	1222.726	921.442
175.067	13.907	1221.689	920.637
176.081	13.810	1220.750	919.308
177.096	13.706	1220.060	918.136
178.110	13.894	1218.781	918.129
179.125	13.865	1217.443	916.879
180.140	13.984	1216.013	916.381
181.154	13.936	1215.027	915.288
182.169	13.957	1213.941	914.505
183.183	14.064	1212.478	913.913
184.198	13.962	1211.737	912.710
185.213	14.063	1210.239	912.056
186.227	13.995	1209.537	911.077
187.242	14.036	1208.555	910.476
188.256	14.116	1207.363	909.936
189.271	14.185	1205.942	909.166
190.286	14.048	1205.287	907.839
191.300	13.893	1204.593	906.393
192.315	13.951	1203.626	905.898
193.329	13.880	1203.598	905.412
194.344	13.937	1202.589	904.883
195.359	14.003	1202.017	904.732
196.373	14.142	1201.544	905.054
197.388	14.071	1201.454	904.516
198.402	14.168	1200.817	904.484
199.417	14.251	1199.903	904.170
200.432	14.288	1199.075	903.668
201.446	14.277	1198.030	902.740
202.461	14.310	1197.241	902.243
203.475	14.379	1196.123	901.697
204.490	14.359	1194.978	900.641
205.504	14.257	1193.947	899.233
206.519	14.275	1192.843	898.420
207.534	14.279	1191.326	897.221
208.548	14.267	1190.234	896.254
209.563	14.282	1189.680	895.841
210.577	14.364	1188.900	895.612
211.592	14.378	1187.927	894.876
212.607	14.344	1187.190	894.060
213.621	14.443	1186.281	893.826
214.636	14.404	1185.389	892.865
215.650	14.399	1184.598	892.167
216.665	14.419	1183.688	891.510
217.680	14.562	1182.588	891.366
218.694	14.519	1182.026	890.632
219.709	14.421	1181.475	889.615
220.723	14.464	1180.392	888.949
221.738	14.503	1179.636	888.511
222.753	14.515	1179.551	888.432
223.767	14.511	1178.664	887.664
224.782	14.604	1177.681	887.337
225.796	14.601	1177.751	887.300
226.811	14.685	1176.694	886.871
227.826	14.752	1175.650	886.361
228.840	14.717	1174.942	885.561
229.855	14.760	1173.999	884.999
230.869	14.643	1173.354	883.815
231.884	14.578	1172.532	882.775
232.899	14.553	1172.037	882.189
233.913	14.681	1171.269	882.213
234.928	14.662	1170.601	881.532
235.942	14.575	1169.866	880.438
236.957	14.586	1169.194	879.914
237.972	14.569	1168.303	879.074
238.986	14.643	1167.851	879.046
240.001	14.558	1167.222	878.048
241.015	14.654	1166.113	877.641
242.030	14.696	1165.206	877.100
243.045	14.733	1164.467	876.662
244.059	14.836	1163.733	876.576
245.074	14.696	1163.179	875.344
246.088	14.874	1162.116	875.398
247.103	14.777	1161.234	874.147
248.117	14.920	1160.495	874.261
249.132	15.012	1159.612	874.000
250.147	15.015	1158.815	873.337
251.161	15.003	1158.224	872.753
252.176	14.976	1157.953	872.333
253.190	14.923	1157.477	871.619
254.205	15.121	1156.278	871.670
255.220	15.122	1155.596	871.083
256.234	15.111	1154.967	870.476
257.249	15.196	1154.637	870.594
258.263	15.220	1153.915	870.095
259.278	15.142	1153.177	869.059
260.293	15.194	1152.505	868.743
261.307	15.256	1152.247	868.792
262.322	15.277	1151.281	868.099
263.336	15.363	1150.270	867.705
264.351	15.253	1150.323	867.098
265.366	15.305	1149.289	866.510
266.380	15.329	1148.510	865.971
267.395	15.281	1147.950	865.225
268.409	15.278	1147.280	864.626
269.424	15.419	1146.241	864.490
270.439	15.267	1145.833	863.327
271.453	15.309	1145.364	863.112
272.468	15.373	1144.065	862.388
273.482	15.345	1143.567	861.788
274.497	15.326	1142.982	861.177
275.512	15.253	1142.197	860.132
276.526	15.321	1141.923	860.198
277.541	15.396	1140.467	859.412
278.555	15.433	1140.073	859.224
279.570	15.379	1139.722	858.611
280.585	15.432	1138.712	858.043
281.599	15.460	1137.733	857.371
282.614	15.404	1136.905	856.389
283.628	15.503	1135.458	855.726
284.643	15.457	1134.356	854.589
285.657	15.508	1133.935	854.455
286.672	15.533	1132.764	853.625
287.687	15.551	1131.851	852.950
288.701	15.553	1130.937	852.194
289.716	15.592	1130.567	852.042
290.730	15.606	1129.949	851.570
291.745	15.693	1129.078	851.279
292.760	15.639	1128.563	850.542
293.774	15.652	1128.287	850.322
294.789	15.680	1127.451	849.761
295.803	15.709	1126.655	849.231
296.818	15.727	1126.166	848.878
297.833	15.705	1124.909	847.745
298.847	15.641	1124.311	846.899
299.862	15.700	1123.622	846.598
300.876	15.633	1123.192	845.864
301.891	15.761	1122.456	845.878
302.906	15.821	1121.527	845.405
303.920	15.817	1120.948	844.875
304.935	15.922	1120.256	844.803
305.949	16.026	1119.438	844.634
306.964	16.137	1118.465	844.383
307.979	15.941	1118.040	843.002
308.993	15.926	1117.149	842.183
310.008	15.934	1116.640	841.763
311.022	15.941	1116.206	841.399
312.037	15.991	1114.923	840.607
313.052	16.021	1114.053	840.027
314.066	16.008	1112.979	839.075
315.081	15.934	1111.763	837.716
316.095	15.954	1111.578	837.603
317.110	15.886	1110.913	836.691
318.125	15.922	1110.172	836.237
319.139	15.973	1109.406	835.841
320.154	15.915	1108.936	835.122
321.168	15.909	1108.622	834.781
322.183	15.893	1107.992	834.153
323.197	15.978	1106.780	833.588
324.212	15.999	1106.518	833.423
325.227	16.036	1106.171	833.271
326.241	15.949	1105.650	832.376
327.256	16.255	1104.104	832.648
328.270	16.043	1103.249	830.883
329.285	15.966	1102.679	830.002
330.300	16.111	1101.582	829.814
331.314	16.113	1100.581	828.996
332.329	16.150	1099.353	828.182
333.343	16.206	1098.545	827.773
334.358	16.119	1098.137	826.964
335.373	16.132	1097.770	826.681
336.387	16.153	1096.572	825.809
337.402	16.245	1095.781	825.592
338.416	16.284	1095.183	825.258
339.431	16.286	1094.536	824.705
340.446	16.364	1094.156	824.726
341.460	16.356	1093.518	824.134
342.475	16.529	1092.065	823.810
343.489	16.350	1091.758	822.632
344.504	16.463	1090.590	822.229
345.519	16.448	1090.151	821.754
346.533	16.424	1089.106	820.779
347.548	16.647	1088.042	820.983
348.562	16.545	1087.505	820.011
349.577	16.487	1086.890	819.196
350.592	16.462	1085.628	818.051
351.606	16.326	1085.569	817.274
352.621	16.481	1084.599	817.222
353.635	16.416	1083.799	816.230
354.650	16.490	1083.216	816.077
355.665	16.510	1082.694	815.711
356.679	16.543	1081.958	815.242
357.694	16.513	1081.750	814.870
358.708	16.524	1080.761	814.102
359.723	16.589	1080.184	813.910
360.738	16.503	1079.904	813.214
361.752	16.587	1079.292	813.083
362.767	16.667	1078.425	812.746
363.781	16.638	1077.927	812.157
364.796	16.652	1077.294	811.675
365.810	16.640	1076.735	811.124
366.825	16.686	1076.061	810.768
367.840	16.863	1075.509	811.127
368.854	16.836	1074.553	810.203
369.869	16.902	1073.752	809.843
370.883	16.801	1073.504	809.104
371.898	16.839	1072.564	808.504
372.913	16.802	1072.188	807.970
373.927	16.755	1072.045	807.568
374.942	16.907	1071.105	807.514
375.956	16.965	1070.421	807.202
376.971	16.950	1069.646	806.477
377.986	16.867	1069.713	806.059
379.000	16.990	1068.984	806.022
380.015	16.957	1068.283	805.268
381.029	17.043	1067.505	805.018
382.044	17.067	1066.606	804.382
383.059	17.055	1066.439	804.127
384.073	17.238	1065.316	804.073
385.088	17.120	1064.642	802.935
386.102	17.295	1063.256	802.648
387.117	17.151	1062.628	801.422
388.132	17.006	1061.831	800.066
389.146	17.068	1061.240	799.842
390.161	17.076	1060.167	798.999
391.175	17.025	1059.334	798.064
392.190	17.111	1058.686	797.907
393.205	17.168	1058.234	797.763
394.219	17.043	1057.796	796.776
395.234	17.095	1056.224	795.767
396.248	17.188	1055.350	795.472
397.263	17.100	1054.335	794.224
398.278	17.150	1053.742	793.941
399.292	17.134	1053.280	793.449
400.307	17.096	1052.686	792.753
401.321	17.127	1051.584	792.001
402.336	17.181	1051.415	792.051
403.350	17.159	1050.570	791.246
404.365	17.245	1050.089	791.213
405.380	17.288	1049.035	790.548
406.394	17.362	1048.207	790.198
407.409	17.307	1047.744	789.522
408.423	17.403	1046.980	789.325
409.438	17.354	1046.119	788.378
410.453	17.388	1045.780	788.210
411.467	17.414	1045.114	787.757
412.482	17.400	1044.097	786.856
413.496	17.528	1043.449	786.892
414.511	17.561	1042.810	786.490
415.526	17.515	1042.644	786.084
416.540	17.635	1041.944	786.043
417.555	17.646	1041.480	785.669
418.569	17.612	1040.810	784.941
419.584	17.662	1040.145	784.601
420.599	17.561	1040.202	784.110
421.613	102.143	1317.710	1459.189
422.628	93.809	1358.116	1459.314
