DTS Sentinel unit serial number:	SN413079Multiplexer serial number:	ORYXHardware model number:	OX4-SRSoftware version number:	ORYX F/W v4.00 Oryx Data Collector v3.7.2.0data status	okinstallation	princeton_trtdifferential loss correction	single-endedforward channel	channel 2reverse channel	N/Adate	2019/09/11time	00:53:10forward acquisition time	60.00reverse acquisition time	0.00gamma	496.2192k internal	0.2332k external	0.2332temperature offset calibration	0.9941default loss term (dB/km)	0.3790temperature slope calibration	1.0000multiplexer offset coefficient	1.0000multiplexer slope coefficient	1.0000fibre end	0.00T internal ref (°C)	29.19T ext. ref 1 (°C)	-0.31T ext. ref 2 (°C)	22.86length (m)	temperature (°C)	Stokes	anti-Stokes-747.200	-53.195	-0.216	-0.100
-746.185	-73.548	-0.083	-0.030
-745.171	222.554	-0.067	-0.108
-744.156	-200.000	0.021	0.135
-743.142	337.235	0.089	0.174
-742.127	-55.224	-0.317	0.143
-741.112	-49.775	0.076	0.036
-740.098	-38.030	0.194	0.104
-739.083	-200.000	0.010	-0.091
-738.069	800.000	-0.078	-0.307
-737.054	454.854	-0.153	-0.342
-736.039	800.000	0.115	0.387
-735.025	318.425	0.171	0.325
-734.010	512.442	-0.033	-0.077
-732.996	-79.067	-0.114	-0.039
-731.981	800.000	-0.032	-0.127
-730.966	318.230	-0.122	-0.233
-729.952	800.000	-0.046	-0.172
-728.937	-200.000	0.021	0.657
-727.923	-141.356	0.228	-0.023
-726.908	-45.143	-0.212	0.106
-725.894	-102.521	0.273	-0.066
-724.879	-200.000	0.020	-0.092
-723.864	-39.694	-0.142	-0.075
-722.850	-16.370	-0.226	0.144
-721.835	-2.574	-0.094	0.066
-720.821	-74.171	0.195	-0.071
-719.806	-200.000	-0.030	-0.335
-718.791	-103.942	-0.134	-0.032
-717.777	800.000	-0.052	0.227
-716.762	-104.490	0.242	0.056
-715.748	-14.380	-0.147	-0.095
-714.733	74.150	-0.032	0.033
-713.718	279.431	0.235	0.421
-712.704	601.164	-0.188	0.469
-711.689	-118.642	-0.209	-0.037
-710.675	84.537	-0.073	0.080
-709.660	-131.583	-0.073	-0.010
-708.645	-59.463	-0.284	-0.123
-707.631	800.000	0.038	-0.132
-706.616	53.435	-0.033	0.032
-705.602	-200.000	0.069	0.384
-704.587	24.601	0.347	-0.288
-703.572	31.137	-0.157	-0.135
-702.558	83.374	-0.077	-0.084
-701.543	-18.011	0.176	-0.110
-700.529	800.000	-0.101	0.286
-699.514	466.200	-0.071	-0.160
-698.499	226.745	-0.197	-0.321
-697.485	-200.000	-0.025	-0.292
-696.470	91.577	-0.042	0.048
-695.456	-47.198	-0.054	-0.026
-694.441	-4.160	-0.265	-0.184
-693.426	800.000	0.019	0.057
-692.412	45.345	-0.273	-0.253
-691.397	11.353	0.092	-0.071
-690.383	-18.319	-0.301	-0.189
-689.368	352.758	0.019	-0.038
-688.354	-57.961	-0.246	0.108
-687.339	20.347	-0.257	-0.208
-686.324	251.396	-0.165	0.281
-685.310	-200.000	-0.005	0.047
-684.295	-200.000	-0.001	-0.040
-683.281	800.000	0.111	-0.429
-682.266	11.351	0.312	-0.240
-681.251	-69.718	-0.208	0.080
-680.237	-200.000	-0.014	-0.136
-679.222	-97.277	0.213	0.056
-678.208	-96.407	-0.472	-0.125
-677.193	87.591	0.080	0.089
-676.178	-200.000	-0.064	-0.655
-675.164	-143.089	0.374	-0.036
-674.149	-70.250	0.191	-0.073
-673.135	90.463	0.089	-0.100
-672.120	-16.170	0.217	-0.138
-671.105	61.346	-0.182	-0.182
-670.091	-200.000	-0.031	-0.277
-669.076	-161.619	-0.217	-0.011
-668.062	421.148	-0.181	0.389
-667.047	800.000	-0.118	0.439
-666.032	-9.906	-0.290	-0.193
-665.018	-200.000	-0.034	-0.262
-664.003	-53.467	-0.518	-0.238
-662.989	126.460	-0.157	0.199
-661.974	-133.252	-0.120	-0.015
-660.959	-106.166	-0.218	-0.049
-659.945	800.000	0.126	-0.364
-658.930	223.233	0.202	-0.327
-657.916	-143.567	-0.193	0.018
-656.901	-200.000	-0.003	-0.025
-655.886	-111.094	0.171	-0.035
-654.872	800.000	0.085	0.372
-653.857	-200.000	0.083	0.000
-652.843	399.339	0.148	-0.312
-651.828	-55.153	-0.515	-0.232
-650.814	-52.742	-0.308	0.142
-649.799	-142.048	0.227	0.023
-648.784	-163.150	0.298	0.014
-647.770	-96.015	-0.212	0.056
-646.755	-59.960	-0.188	-0.080
-645.741	800.000	-0.019	0.061
-644.726	82.149	0.024	-0.026
-643.711	-200.000	-0.012	-0.200
-642.697	55.382	0.184	-0.179
-641.682	-56.431	-0.135	-0.060
-640.668	-200.000	-0.003	-0.311
-639.653	-200.000	0.013	-0.437
-638.638	213.948	-0.121	-0.192
-637.624	-200.000	0.081	-0.519
-636.609	188.223	0.109	-0.163
-635.595	88.817	-0.231	-0.258
-634.580	326.160	-0.116	-0.223
-633.565	63.430	0.139	-0.139
-632.551	-72.908	-0.131	-0.048
-631.536	103.925	-0.219	0.258
-630.522	-45.979	-0.238	-0.117
-629.507	123.059	0.092	-0.116
-628.492	356.687	-0.057	0.113
-627.478	800.000	0.133	-0.493
-626.463	339.217	0.049	0.096
-625.449	66.014	0.172	0.174
-624.434	351.304	0.082	-0.163
-623.419	69.140	-0.218	-0.224
-622.405	-88.970	-0.295	0.087
-621.390	78.174	-0.152	-0.162
-620.376	296.415	0.083	0.152
-619.361	-48.797	0.100	0.048
-618.346	-114.407	-0.276	-0.053
-617.332	-200.000	0.002	-0.313
-616.317	-130.809	-0.315	-0.042
-615.303	-143.264	0.135	0.013
-614.288	-95.027	-0.149	-0.040
-613.273	-200.000	-0.007	0.145
-612.259	47.813	0.140	-0.131
-611.244	-200.000	-0.004	0.089
-610.230	800.000	-0.074	-0.230
-609.215	-200.000	-0.005	-0.431
-608.201	-162.099	-0.183	0.009
-607.186	800.000	0.085	0.328
-606.171	800.000	0.056	0.170
-605.157	-16.190	0.091	0.058
-604.142	30.647	-0.148	-0.127
-603.128	-200.000	0.057	-0.257
-602.113	-200.000	0.031	0.141
-601.098	43.123	0.125	-0.114
-600.084	114.376	0.219	0.267
-599.069	46.635	0.060	0.056
-598.055	-133.245	0.330	0.042
-597.040	-200.000	0.012	-0.053
-596.025	800.000	0.088	-0.304
-595.011	-200.000	-0.040	-0.314
-593.996	-141.011	-0.234	-0.024
-592.982	88.736	-0.230	0.256
-591.967	-90.852	0.346	0.100
-590.952	800.000	-0.081	-0.250
-589.938	340.462	0.086	-0.168
-588.923	162.163	-0.445	0.624
-587.909	-126.522	-0.449	0.067
-586.894	800.000	0.043	0.165
-585.879	-200.000	0.036	-0.244
-584.865	44.742	0.131	0.120
-583.850	-200.000	0.042	-0.273
-582.836	251.110	0.157	0.267
-581.821	-200.000	-0.033	0.187
-580.806	25.550	0.213	0.177
-579.792	-200.000	0.038	0.198
-578.777	281.508	0.235	-0.421
-577.763	-85.462	0.218	0.068
-576.748	-0.538	-0.093	-0.066
-575.733	-33.371	-0.335	-0.185
-574.719	-35.913	-0.294	0.159
-573.704	-7.809	0.221	0.149
-572.690	-129.582	-0.369	0.051
-571.675	83.366	-0.150	-0.163
-570.661	16.715	0.225	0.178
-569.646	800.000	0.029	-0.092
-568.631	103.963	-0.255	-0.299
-567.617	172.272	0.129	-0.185
-566.602	452.900	-0.112	-0.247
-565.588	25.126	0.099	0.082
-564.573	-136.974	-0.415	-0.048
-563.558	-141.144	-0.051	0.005
-562.544	-200.000	0.027	0.138
-561.529	-50.154	-0.207	0.098
-560.515	-75.015	-0.272	0.097
-559.500	182.103	-0.237	-0.349
-558.485	-200.000	-0.011	0.128
-557.471	126.812	0.152	-0.192
-556.456	171.347	0.048	-0.069
-555.442	800.000	-0.029	0.125
-554.427	800.000	0.161	0.511
-553.412	-177.905	0.137	-0.003
-552.398	-40.041	0.220	-0.115
-551.383	-7.763	-0.087	-0.059
-550.369	-14.421	0.270	-0.174
-549.354	-8.799	0.203	-0.136
-548.339	-200.000	-0.030	-0.365
-547.325	-120.059	0.088	0.015
-546.310	800.000	-0.056	0.193
-545.296	-85.501	0.114	-0.035
-544.281	-140.424	0.243	-0.025
-543.266	-200.000	0.080	0.431
-542.252	23.534	-0.188	-0.154
-541.237	-73.469	0.327	0.119
-540.223	-200.000	-0.030	-0.287
-539.208	409.365	-0.049	-0.103
-538.193	-3.550	0.266	0.185
-537.179	-98.174	-0.276	0.071
-536.164	-164.105	0.127	0.006
-535.150	46.223	-0.257	0.237
-534.135	-64.512	-0.140	-0.057
-533.121	-107.818	0.272	-0.059
-532.106	191.689	-0.169	0.254
-531.091	800.000	-0.063	0.240
-530.077	-86.895	0.087	0.027
-529.062	266.666	0.041	-0.072
-528.048	-13.290	-0.353	-0.228
-527.033	-17.430	-0.111	-0.070
-526.018	800.000	-0.037	-0.103
-525.004	-138.732	-0.122	0.013
-523.989	-174.970	0.205	-0.006
-522.975	-200.000	0.003	0.166
-521.960	-54.441	-0.380	0.172
-520.945	-200.000	-0.025	0.123
-519.931	-142.093	0.149	-0.015
-518.916	-138.925	0.415	-0.045
-517.902	144.453	-0.212	-0.282
-516.887	663.729	0.066	-0.171
-515.872	276.752	-0.169	-0.299
-514.858	244.224	0.084	0.140
-513.843	-131.953	0.135	-0.018
-512.829	-108.958	0.353	0.075
-511.814	50.384	-0.298	0.281
-510.799	116.716	-0.061	-0.074
-509.785	800.000	-0.022	-0.075
-508.770	69.246	0.153	-0.157
-507.756	-200.000	0.019	0.208
-506.741	191.796	0.103	0.155
-505.726	594.037	0.121	-0.299
-504.712	-16.367	-0.214	-0.136
-503.697	-99.950	0.239	-0.060
-502.683	800.000	0.030	0.093
-501.668	21.902	0.139	-0.113
-500.653	82.047	-0.114	0.123
-499.639	29.982	-0.292	-0.248
-498.624	-101.375	0.146	-0.035
-497.610	668.520	-0.189	-0.488
-496.595	-1.141	0.204	-0.144
-495.581	326.851	0.115	-0.220
-494.566	-119.884	0.276	-0.047
-493.551	-200.000	-0.017	-0.267
-492.537	800.000	-0.032	-0.093
-491.522	-200.000	0.012	0.093
-490.508	502.439	0.125	0.288
-489.493	-200.000	-0.008	-0.052
-488.478	-182.369	0.282	-0.005
-487.464	-56.887	-0.059	-0.026
-486.449	-78.419	0.286	-0.098
-485.435	126.515	0.134	0.169
-484.420	800.000	-0.100	0.412
-483.405	31.279	-0.275	0.235
-482.391	-27.156	-0.291	-0.169
-481.376	-104.625	0.381	-0.087
-480.362	-67.010	-0.356	-0.140
-479.347	125.725	0.229	-0.288
-478.332	163.728	-0.074	0.103
-477.318	-145.405	-0.199	0.018
-476.303	183.566	0.123	-0.181
-475.289	800.000	-0.103	-0.374
-474.274	42.369	0.137	0.124
-473.259	-11.731	-0.087	0.057
-472.245	338.771	0.058	0.113
-471.230	-176.934	-0.221	0.006
-470.216	-102.560	0.380	-0.090
-469.201	-117.743	-0.142	0.025
-468.186	800.000	0.059	-0.207
-467.172	150.066	0.081	0.110
-466.157	-35.215	0.240	0.130
-465.143	546.601	-0.134	0.318
-464.128	-184.670	-0.149	-0.002
-463.113	7.118	0.255	-0.189
-462.099	122.300	-0.213	0.265
-461.084	-109.322	0.169	-0.036
-460.070	98.461	0.177	-0.203
-459.055	-15.868	-0.222	0.140
-458.040	-57.683	-0.062	-0.027
-457.026	77.568	0.228	-0.241
-456.011	52.509	-0.105	-0.100
-454.997	134.864	-0.166	0.214
-453.982	175.540	-0.144	0.207
-452.968	-107.109	0.178	-0.039
-451.953	-200.000	-0.053	0.292
-450.938	90.174	-0.062	0.069
-449.924	-200.000	0.020	-0.190
-448.909	-119.135	0.077	0.013
-447.895	-72.210	-0.241	-0.089
-446.880	-121.165	0.088	0.015
-445.865	800.000	0.085	0.285
-444.851	311.757	-0.117	-0.218
-443.836	-200.000	-0.074	0.367
-442.822	473.109	-0.159	0.356
-441.807	-116.001	0.227	-0.042
-440.792	800.000	-0.020	-0.070
-439.778	-83.766	-0.326	-0.103
-438.763	5.611	0.076	0.056
-437.749	268.501	-0.061	-0.106
-436.734	342.040	-0.090	0.174
-435.719	26.923	0.141	0.117
-434.705	11.652	-0.084	-0.064
-433.690	388.344	0.162	0.334
-432.676	-0.035	-0.176	-0.124
-431.661	-200.000	-0.105	0.566
-430.646	97.943	-0.325	0.372
-429.632	149.213	-0.206	-0.277
-428.617	-134.672	-0.241	-0.029
-427.603	-200.000	-0.025	-0.317
-426.588	-200.000	-0.037	-0.299
-425.573	-200.000	0.063	0.327
-424.559	-200.000	0.026	0.221
-423.544	504.629	-0.032	0.074
-422.530	71.852	-0.071	0.073
-421.515	194.253	-0.007	-0.010
-420.500	-84.437	-0.205	-0.064
-419.486	800.000	0.033	-0.138
-418.471	339.412	-0.145	-0.280
-417.457	130.422	0.057	-0.073
-416.442	-192.173	0.037	0.000
-415.428	800.000	0.046	0.185
-414.413	-10.578	0.318	-0.209
-413.398	324.176	-0.056	0.107
-412.384	445.116	0.071	0.154
-411.369	36.021	0.095	-0.083
-410.355	43.038	-0.176	-0.159
-409.340	-200.000	0.015	-0.339
-408.325	146.409	-0.188	0.250
-407.311	33.218	0.133	-0.115
-406.296	584.890	0.187	-0.456
-405.282	4.442	0.185	-0.135
-404.267	332.641	-0.175	0.336
-403.252	-177.070	0.299	-0.007
-402.238	381.294	-0.028	0.057
-401.223	58.970	-0.092	-0.089
-400.209	185.357	0.269	-0.396
-399.194	16.590	0.193	0.151
-398.179	-200.000	-0.012	-0.053
-397.165	-85.501	0.265	-0.082
-396.150	-92.665	0.270	0.075
-395.136	-65.633	-0.234	0.093
-394.121	-200.000	0.007	0.069
-393.106	-111.433	-0.103	-0.021
-392.092	-190.423	0.170	0.002
-391.077	-80.835	-0.278	-0.092
-390.063	-200.000	-0.017	-0.170
-389.048	-44.462	0.206	0.102
-388.033	-200.000	0.023	0.154
-387.019	-200.000	0.004	0.053
-386.004	-15.943	-0.233	0.147
-384.990	35.075	-0.216	0.187
-383.975	800.000	-0.070	-0.247
-382.960	-200.000	-0.020	-0.153
-381.946	-199.595	-0.244	0.001
-380.931	800.000	0.189	-0.538
-379.917	769.631	0.082	0.222
-378.902	-16.700	-0.055	0.035
-377.888	-184.294	0.569	-0.009
-376.873	186.489	0.214	0.315
-375.858	-68.355	-0.188	-0.072
-374.844	-200.000	-0.052	-0.283
-373.829	-23.904	-0.154	-0.091
-372.815	408.137	-0.138	0.290
-371.800	-49.977	-0.217	-0.102
-370.785	-200.000	0.003	0.106
-369.771	-20.545	0.118	-0.072
-368.756	49.182	-0.145	0.135
-367.742	-125.137	0.387	0.059
-366.727	-200.000	-0.006	-0.150
-365.712	317.771	-0.103	0.194
-364.698	-200.000	-0.016	0.071
-363.683	800.000	0.047	-0.162
-362.669	-78.286	-0.166	0.056
-361.654	550.146	-0.159	0.378
-360.639	-90.417	0.312	-0.090
-359.625	-39.945	-0.194	-0.100
-358.610	-56.494	0.116	-0.051
-357.596	-115.182	0.392	0.074
-356.581	176.749	0.189	-0.272
-355.566	-46.704	0.142	0.069
-354.552	-62.111	0.125	0.052
-353.537	391.603	-0.049	0.101
-352.523	50.841	-0.216	0.203
-351.508	229.786	0.170	-0.276
-350.493	414.980	0.051	-0.107
-349.479	24.976	-0.273	0.224
-348.464	-200.000	-0.034	0.364
-347.450	72.043	-0.149	0.153
-346.435	-150.905	0.236	-0.018
-345.420	-165.024	-0.153	0.007
-344.406	-200.000	-0.024	0.176
-343.391	-62.997	-0.184	0.075
-342.377	-200.000	-0.007	-0.217
-341.362	800.000	-0.067	-0.282
-340.348	200.228	-0.123	0.187
-339.333	68.433	-0.127	0.129
-338.318	-139.862	0.081	-0.008
-337.304	-200.000	-0.044	-0.198
-336.289	800.000	-0.059	0.244
-335.275	306.551	0.119	0.219
-334.260	135.236	-0.197	-0.253
-333.245	31.385	0.146	0.124
-332.231	-28.873	0.178	-0.101
-331.216	-200.000	-0.004	0.155
-330.202	175.909	-0.038	-0.054
-329.187	-129.202	-0.037	-0.005
-328.172	-200.000	0.025	0.177
-327.158	-21.317	0.513	-0.310
-326.143	23.045	-0.165	-0.134
-325.129	-12.618	-0.181	-0.117
-324.114	37.001	-0.176	-0.154
-323.099	-32.427	0.422	0.233
-322.085	-22.378	0.143	0.086
-321.070	45.926	-0.170	0.156
-320.056	-25.862	0.116	-0.067
-319.041	-200.000	-0.013	0.341
-318.026	340.701	0.160	-0.309
-317.012	218.381	-0.060	0.094
-315.997	800.000	-0.009	-0.031
-314.983	-200.000	0.034	0.242
-313.968	9.685	0.071	0.053
-312.953	544.277	0.060	0.141
-311.939	800.000	0.042	-0.173
-310.924	-46.664	-0.281	0.136
-309.910	8.581	0.076	-0.056
-308.895	17.407	0.251	0.197
-307.880	-96.099	0.179	0.047
-306.866	0.218	-0.229	0.161
-305.851	-200.000	0.048	-0.255
-304.837	131.440	0.129	-0.164
-303.822	-9.789	-0.140	0.092
-302.807	50.088	0.066	0.062
-301.793	-200.000	-0.034	0.331
-300.778	800.000	-0.040	0.164
-299.764	-148.817	0.133	0.011
-298.749	-25.003	0.175	-0.103
-297.735	-175.568	-0.387	0.010
-296.720	118.084	-0.254	0.309
-295.705	135.385	0.028	0.037
-294.691	-200.000	0.083	-0.388
-293.676	-97.628	-0.106	0.027
-292.662	-24.506	0.144	0.085
-291.647	-182.225	-0.257	-0.005
-290.632	565.750	-0.126	0.303
-289.618	95.612	0.208	0.235
-288.603	700.880	-0.078	-0.202
-287.589	-34.003	0.296	-0.161
-286.574	68.888	0.246	-0.250
-285.559	800.000	0.184	-0.542
-284.545	48.880	-0.121	0.112
-283.530	-200.000	0.032	0.192
-282.516	96.273	0.092	-0.104
-281.501	-200.000	-0.064	0.292
-280.486	122.768	0.115	-0.142
-279.472	537.279	-0.124	-0.292
-278.457	800.000	-0.050	0.186
-277.443	-147.239	-0.113	0.009
-276.428	-145.061	-0.067	-0.006
-275.413	153.659	0.152	0.206
-274.399	-200.000	0.032	0.173
-273.384	-2.423	-0.182	-0.126
-272.370	800.000	-0.045	-0.160
-271.355	-22.575	-0.243	-0.145
-270.340	-200.000	0.011	0.239
-269.326	-200.000	0.015	-0.204
-268.311	800.000	-0.038	0.144
-267.297	31.477	-0.136	-0.115
-266.282	-200.000	0.020	-0.236
-265.267	-148.863	-0.468	0.037
-264.253	723.445	-0.066	0.173
-263.238	-15.980	0.162	-0.101
-262.224	243.457	-0.120	0.199
-261.209	174.524	-0.221	0.316
-260.195	-82.720	0.382	0.122
-259.180	57.318	-0.376	-0.362
-258.165	-38.475	-0.188	-0.098
-257.151	427.765	-0.122	0.260
-256.136	172.163	0.102	0.145
-255.122	-158.013	0.128	0.007
-254.107	-200.000	-0.017	-0.086
-253.092	-200.000	-0.004	0.039
-252.078	20.603	0.143	0.114
-251.063	112.739	-0.126	-0.151
-250.049	-3.131	-0.136	0.093
-249.034	800.000	0.001	-0.005
-248.019	-136.228	0.525	0.061
-247.005	232.628	-0.058	0.094
-245.990	633.611	0.110	-0.275
-244.976	-200.000	0.007	-0.110
-243.961	17.292	-0.198	0.155
-242.946	153.782	0.245	-0.331
-241.932	-200.000	-0.075	0.000
-240.917	-105.484	0.312	-0.070
-239.903	556.308	-0.092	0.218
-238.888	-119.408	-0.572	0.098
-237.873	-200.000	-0.032	-0.205
-236.859	258.758	-0.052	0.088
-235.844	-176.691	-0.198	-0.005
-234.830	-200.000	0.041	0.411
-233.815	-116.952	-0.124	-0.022
-232.800	800.000	0.077	0.250
-231.786	-133.754	-0.179	0.022
-230.771	-97.661	-0.271	-0.069
-229.757	-172.952	-0.191	0.006
-228.742	-93.658	-0.131	0.036
-227.727	-200.000	0.003	0.029
-226.713	-200.000	-0.019	0.226
-225.698	-128.527	0.398	-0.056
-224.684	800.000	-0.013	0.054
-223.669	800.000	-0.091	0.363
-222.655	389.120	-0.094	0.193
-221.640	-2.873	0.093	-0.064
-220.625	-200.000	0.002	-0.026
-219.611	-95.553	0.245	0.065
-218.596	217.333	-0.101	0.159
-217.582	-200.000	0.042	0.241
-216.567	800.000	0.070	0.269
-215.552	-121.998	-0.233	0.038
-214.538	-200.000	0.036	0.162
-213.523	478.373	0.053	-0.119
-212.509	-34.167	0.027	-0.015
-211.494	800.000	-0.062	0.225
-210.479	631.400	-0.085	-0.211
-209.465	-200.000	-0.002	0.252
-208.450	397.862	-0.126	0.261
-207.436	78.542	0.412	-0.434
-206.421	100.743	0.127	-0.145
-205.406	-105.902	0.103	0.023
-204.392	-114.757	0.138	0.026
-203.377	-200.000	-0.051	0.504
-202.363	-148.859	-0.222	-0.018
-201.348	112.706	0.214	0.255
-200.333	800.000	0.117	0.395
-199.319	-16.204	-0.420	0.263
-198.304	295.985	-0.048	-0.087
-197.290	16.256	0.151	0.118
-196.275	-51.433	0.201	0.093
-195.260	-131.897	-0.225	0.029
-194.246	-200.000	-0.023	-0.195
-193.231	-27.104	-0.078	-0.045
-192.217	282.975	0.019	0.034
-191.202	30.788	0.494	0.416
-190.187	96.654	0.086	-0.097
-189.173	800.000	-0.063	-0.216
-188.158	33.866	-0.111	-0.096
-187.144	-200.000	-0.015	-0.073
-186.129	-104.398	0.350	-0.080
-185.114	69.186	-0.158	0.160
-184.100	132.079	-0.086	-0.109
-183.085	279.854	-0.096	0.169
-182.071	-200.000	0.015	-0.109
-181.056	-2.570	0.099	-0.068
-180.042	-33.850	-0.120	-0.065
-179.027	137.259	0.165	0.212
-178.012	800.000	-0.070	0.256
-176.998	31.446	-0.126	0.106
-175.983	-34.696	0.432	-0.232
-174.969	-79.896	-0.119	0.039
-173.954	313.999	-0.071	0.132
-172.939	-200.000	0.017	-0.080
-171.925	210.776	-0.225	-0.348
-170.910	-125.537	0.170	-0.025
-169.896	800.000	0.029	0.110
-168.881	-96.524	0.427	-0.111
-167.866	198.240	0.030	0.045
-166.852	143.926	0.303	-0.398
-165.837	24.574	-0.182	0.148
-164.823	-200.000	0.068	-0.472
-163.808	-53.017	-0.211	-0.095
-162.793	-200.000	-0.055	-0.270
-161.779	149.189	-0.125	-0.166
-160.764	800.000	0.042	0.134
-159.750	800.000	0.045	-0.162
-158.735	-200.000	-0.028	0.332
-157.720	-200.000	0.010	0.341
-156.706	564.066	0.071	-0.170
-155.691	-200.000	-0.000	0.217
-154.677	8.860	0.183	0.136
-153.662	130.203	0.160	-0.201
-152.647	5.389	0.223	-0.161
-151.633	800.000	0.043	0.144
-150.618	800.000	0.050	0.167
-149.604	-200.000	0.001	-0.321
-148.589	800.000	-0.043	0.136
-147.574	-200.000	-0.003	-0.070
-146.560	392.085	-0.117	-0.240
-145.545	17.656	-0.230	0.180
-144.531	-28.070	0.173	-0.099
-143.516	-42.080	0.407	0.204
-142.502	20.746	-0.205	0.163
-141.487	-121.918	-0.145	-0.023
-140.472	47.806	-0.190	-0.174
-139.458	166.642	-0.127	0.177
-138.443	-45.795	0.400	0.194
-137.429	757.997	-0.086	0.229
-136.414	800.000	-0.065	-0.271
-135.399	285.054	-0.146	-0.259
-134.385	800.000	-0.084	-0.247
-133.370	419.155	-0.106	-0.222
-132.356	-121.369	0.128	-0.021
-131.341	-74.850	0.078	-0.027
-130.326	-136.843	-0.191	-0.022
-129.312	461.854	-0.074	-0.163
-128.297	60.887	-0.063	-0.061
-127.283	-200.000	-0.045	0.209
-126.268	-200.000	-0.035	-0.160
-125.253	-115.767	0.437	-0.080
-124.239	-200.000	-0.017	-0.561
-123.224	-200.000	0.044	0.281
-122.210	-189.558	-0.253	0.003
-121.195	-200.000	-0.007	0.310
-120.180	409.263	0.042	-0.086
-119.166	55.695	0.094	-0.090
-118.151	-87.180	0.106	0.032
-117.137	-200.000	0.016	0.160
-116.122	800.000	0.050	-0.151
-115.107	-114.938	-0.143	-0.027
-114.093	54.842	-0.124	-0.117
-113.078	-104.498	0.269	0.061
-112.064	-200.000	0.079	0.388
-111.049	116.301	-0.163	-0.196
-110.034	-43.955	0.083	0.041
-109.020	287.240	0.089	-0.158
-108.005	435.607	-0.077	0.165
-106.991	305.459	0.041	0.075
-105.976	18.536	-0.181	-0.142
-104.962	-160.461	0.138	0.007
-103.947	87.756	-0.065	-0.070
-102.932	-68.730	-0.084	-0.032
-101.918	-200.000	-0.049	0.322
-100.903	-200.000	-0.011	0.204
-99.889	64.312	0.143	0.141
-98.874	800.000	-0.089	0.293
-97.859	-35.154	0.104	-0.056
-96.845	-144.236	-0.462	-0.042
-95.830	759.636	0.109	0.289
-94.816	-200.000	0.017	0.148
-93.801	-113.713	-0.180	-0.034
-92.786	-151.481	-0.261	-0.019
-91.772	28.706	0.037	-0.031
-90.757	125.723	0.193	0.239
-89.743	345.068	-0.118	-0.228
-88.728	-1.476	0.225	-0.156
-87.713	241.789	-0.151	0.247
-86.699	566.641	0.090	-0.215
-85.684	28.879	-0.316	-0.263
-84.670	-33.938	0.097	-0.053
-83.655	-134.064	0.357	0.043
-82.640	-76.191	0.115	-0.040
-81.626	-200.000	0.002	-0.178
-80.611	155.177	0.065	-0.088
-79.597	-139.187	0.100	-0.011
-78.582	28.850	0.456	-0.379
-77.567	329.579	-0.099	0.187
-76.553	426.695	0.206	0.435
-75.538	156.293	0.082	0.111
-74.524	-49.759	0.231	-0.108
-73.509	74.009	-0.058	-0.059
-72.494	684.533	0.106	0.271
-71.480	800.000	0.043	0.127
-70.465	-48.330	0.056	-0.027
-69.451	282.608	-0.116	0.203
-68.436	-101.086	-0.266	-0.064
-67.422	6.047	-0.297	-0.216
-66.407	-200.000	0.055	-0.285
-65.392	-76.993	-0.140	0.048
-64.378	-47.770	0.279	0.132
-63.363	-66.254	-0.048	-0.019
-62.349	-200.000	0.017	0.123
-61.334	39.236	-0.999	-0.876
-60.319	75.996	0.525	0.544
-59.305	590.166	-0.475	-1.147
-58.290	211.860	0.718	1.107
-57.276	743.246	0.502	1.323
-56.261	-200.000	107.101	627.952
-55.246	524.959	1513.531	3486.716
-54.232	175.053	2711.966	3844.953
-53.217	105.024	2295.041	2650.597
-52.203	38.495	1900.078	1658.274
-51.188	32.449	1686.520	1426.189
-50.173	29.859	1642.747	1369.977
-49.159	48.652	1697.680	1557.809
-48.144	48.817	1712.951	1573.005
-47.130	31.838	1670.413	1407.762
-46.115	29.263	1655.551	1375.983
-45.100	29.205	1650.676	1371.448
-44.086	29.118	1647.320	1367.960
-43.071	29.020	1645.438	1365.610
-42.057	29.024	1642.762	1363.366
-41.042	29.042	1640.779	1361.799
-40.027	29.058	1639.072	1360.446
-39.013	29.020	1636.796	1358.225
-37.998	29.070	1635.302	1357.303
-36.984	29.071	1633.831	1356.032
-35.969	29.077	1633.055	1355.378
-34.954	29.272	1630.654	1354.767
-33.940	29.179	1629.177	1352.802
-32.925	29.238	1627.090	1351.447
-31.911	29.109	1625.974	1349.523
-30.896	29.224	1623.241	1348.042
-29.881	29.147	1622.189	1346.549
-28.867	29.156	1620.681	1345.311
-27.852	29.121	1619.253	1343.818
-26.838	29.192	1617.479	1342.814
-25.823	29.206	1616.474	1342.021
-24.809	29.220	1615.092	1340.927
-23.794	29.177	1613.615	1339.332
-22.779	29.228	1611.589	1337.970
-21.765	29.213	1610.507	1336.909
-20.750	29.223	1608.667	1335.403
-19.736	29.160	1607.561	1333.975
-18.721	29.165	1605.948	1332.619
-17.706	29.241	1604.209	1331.672
-16.692	29.297	1602.531	1330.630
-15.677	29.264	1601.695	1329.642
-14.663	29.314	1600.648	1329.086
-13.648	29.204	1599.075	1326.930
-12.633	29.217	1597.657	1325.796
-11.619	29.208	1595.934	1324.252
-10.604	29.226	1594.605	1323.226
-9.590	29.208	1593.267	1321.928
-8.575	29.203	1592.068	1320.847
-7.560	29.346	1590.608	1320.610
-6.546	29.237	1589.591	1318.935
-5.531	29.175	1588.853	1317.823
-4.517	29.204	1587.719	1317.037
-3.502	29.271	1586.187	1316.191
-2.487	29.291	1584.947	1315.252
-1.473	28.980	1572.926	1303.026
-0.458	26.261	1553.573	1267.889
0.556	20.551	1554.967	1237.890
1.571	18.368	1579.792	1241.734
2.586	18.103	1593.541	1250.494
3.600	16.448	1541.407	1197.753
4.615	8.778	1431.812	1061.826
5.629	1.211	1368.288	966.547
6.644	-0.218	1359.960	951.529
7.659	-0.343	1359.152	950.088
8.673	-0.325	1357.660	949.075
9.688	-0.335	1356.023	947.783
10.702	-0.556	1352.899	944.119
11.717	2.515	1359.369	967.988
12.731	11.595	1376.814	1038.237
13.746	19.142	1389.136	1095.641
14.761	21.025	1391.996	1109.800
15.775	21.398	1391.470	1111.653
16.790	21.436	1390.916	1111.353
17.804	21.508	1390.140	1111.094
18.819	21.746	1389.734	1112.182
19.834	21.941	1389.188	1112.882
20.848	21.872	1388.492	1111.790
21.863	21.820	1388.421	1111.301
22.877	21.880	1387.201	1110.611
23.892	21.850	1386.318	1109.614
24.907	21.894	1385.150	1108.859
25.921	21.884	1384.532	1108.202
26.936	21.815	1383.511	1106.853
27.950	21.821	1382.495	1105.980
28.965	21.798	1381.435	1104.890
29.980	21.933	1379.873	1104.387
30.994	21.905	1378.286	1102.848
32.009	21.906	1377.257	1101.930
33.023	21.790	1376.661	1100.631
34.038	21.791	1375.555	1099.656
35.053	21.945	1374.348	1099.556
36.067	21.807	1373.412	1097.848
37.082	21.871	1372.477	1097.400
38.096	21.833	1371.287	1096.118
39.111	21.860	1370.988	1095.948
40.126	21.913	1369.896	1095.311
41.140	21.810	1369.866	1094.545
42.155	21.742	1369.835	1093.998
43.169	21.942	1369.309	1094.729
44.184	21.839	1368.966	1093.717
45.199	21.801	1368.710	1093.179
46.213	21.877	1368.238	1093.177
47.228	21.853	1366.628	1091.644
48.242	21.868	1365.890	1091.054
49.257	21.924	1364.400	1090.113
50.271	21.705	1363.389	1087.851
51.286	21.765	1362.082	1087.085
52.301	21.788	1360.610	1085.954
53.315	21.893	1359.349	1085.500
54.330	21.835	1358.418	1084.307
55.344	21.817	1357.652	1083.488
56.359	21.818	1356.432	1082.422
57.374	21.929	1355.653	1082.389
58.388	21.767	1355.112	1080.866
59.403	21.907	1354.464	1081.112
60.417	21.835	1354.003	1080.208
61.432	21.825	1353.198	1079.406
62.447	21.940	1352.432	1079.409
63.461	21.917	1350.840	1077.898
64.476	21.894	1350.292	1077.224
65.490	21.907	1349.083	1076.244
66.505	21.843	1347.163	1074.230
67.520	21.858	1346.074	1073.353
68.534	21.887	1345.358	1072.869
69.549	21.838	1344.753	1071.991
70.563	21.856	1343.466	1070.978
71.578	21.990	1341.947	1070.492
72.593	21.980	1341.359	1069.867
73.607	21.834	1340.985	1068.586
74.622	21.925	1339.644	1067.977
75.636	21.807	1339.673	1067.188
76.651	21.840	1338.602	1066.438
77.666	21.870	1338.256	1066.248
78.680	21.980	1336.977	1065.807
79.695	21.957	1336.211	1064.960
80.709	21.883	1335.459	1063.817
81.724	21.836	1334.979	1063.056
82.739	21.869	1333.861	1062.270
83.753	21.906	1332.937	1061.667
84.768	21.885	1331.699	1060.459
85.782	22.014	1330.079	1059.856
86.797	21.858	1329.900	1058.676
87.812	21.949	1328.460	1057.986
88.826	21.914	1327.715	1057.087
89.841	21.982	1325.908	1055.963
90.855	21.772	1325.504	1054.286
91.870	21.922	1324.558	1054.339
92.884	21.853	1324.273	1053.604
93.899	21.930	1322.792	1052.795
94.914	21.967	1321.788	1052.124
95.928	21.950	1321.199	1051.461
96.943	21.906	1320.792	1050.779
97.957	21.874	1320.376	1050.169
98.972	21.912	1318.985	1049.197
99.987	21.927	1317.953	1048.369
101.001	21.931	1316.923	1047.482
102.016	21.932	1316.143	1046.772
103.030	21.983	1315.054	1046.121
104.045	22.039	1314.090	1045.597
105.060	22.083	1312.894	1044.811
106.074	21.955	1312.238	1043.437
107.089	21.990	1310.816	1042.421
108.103	22.055	1310.147	1042.185
109.118	21.876	1309.283	1040.342
110.133	21.975	1308.282	1040.039
111.147	22.053	1306.597	1039.070
112.162	22.097	1305.222	1038.146
113.176	21.990	1304.449	1036.805
114.191	22.006	1303.798	1036.292
115.206	22.054	1302.736	1035.643
116.220	22.021	1301.149	1034.092
117.235	22.033	1300.247	1033.355
118.249	21.974	1299.521	1032.337
119.264	21.929	1298.665	1031.304
120.279	21.944	1298.018	1030.785
121.293	22.048	1297.114	1030.586
122.308	21.990	1296.196	1029.429
123.322	22.084	1295.327	1029.195
124.337	22.058	1294.243	1028.094
125.352	22.141	1293.370	1027.795
126.366	22.032	1292.263	1026.186
127.381	22.040	1291.264	1025.345
128.395	22.103	1290.420	1024.954
129.410	22.141	1289.475	1024.334
130.424	22.169	1288.654	1023.757
131.439	22.116	1288.014	1022.848
132.454	21.983	1287.054	1021.224
133.468	22.002	1286.634	1020.909
134.483	22.023	1286.373	1020.734
135.497	22.044	1284.771	1019.495
136.512	21.999	1283.867	1018.423
137.527	22.044	1282.756	1017.714
138.541	22.061	1281.070	1016.383
139.556	22.014	1279.865	1015.068
140.570	21.992	1278.944	1014.120
141.585	22.037	1277.588	1013.213
142.600	21.998	1277.166	1012.563
143.614	22.013	1276.127	1011.736
144.629	21.987	1275.313	1010.853
145.643	21.963	1273.709	1009.355
146.658	21.898	1273.088	1008.402
147.673	22.005	1272.086	1008.134
148.687	21.996	1270.876	1007.032
149.702	22.031	1269.316	1005.909
150.716	21.987	1268.761	1005.124
151.731	22.036	1267.349	1004.200
152.746	21.967	1266.817	1003.296
153.760	22.158	1265.435	1003.202
154.775	22.057	1264.810	1002.039
155.789	22.015	1263.769	1000.889
156.804	22.057	1262.862	1000.321
157.819	22.019	1262.372	999.625
158.833	22.169	1261.023	999.324
159.848	22.072	1260.596	998.348
160.862	22.088	1259.931	997.822
161.877	22.093	1258.822	996.883
162.892	22.110	1258.477	996.620
163.906	22.127	1257.153	995.580
164.921	22.061	1256.713	994.769
165.935	22.197	1255.779	994.708
166.950	22.142	1255.075	993.756
167.964	22.193	1254.500	993.498
168.979	22.086	1254.277	992.630
169.994	22.192	1253.192	992.283
171.008	22.273	1252.706	992.264
172.023	22.204	1251.904	991.152
173.037	22.125	1251.377	990.206
174.052	22.206	1249.774	989.304
175.067	22.139	1249.576	988.680
176.081	22.160	1248.413	987.790
177.096	22.153	1247.802	987.180
178.110	22.127	1247.056	986.357
179.125	22.120	1246.140	985.505
180.140	22.255	1244.459	984.848
181.154	22.147	1243.655	983.519
182.169	22.251	1242.687	983.250
183.183	22.196	1241.813	982.160
184.198	22.256	1240.581	981.433
185.213	22.247	1239.574	980.505
186.227	22.317	1239.015	980.364
187.242	22.285	1237.701	979.057
188.256	22.325	1236.645	978.359
189.271	22.329	1236.297	978.022
190.286	22.211	1235.730	976.827
191.300	22.260	1235.135	976.542
192.315	22.280	1234.583	976.135
193.329	22.247	1234.397	975.716
194.344	22.267	1233.569	975.086
195.359	22.331	1232.671	974.646
196.373	22.265	1232.584	974.124
197.388	22.210	1232.210	973.439
198.402	22.164	1231.974	972.908
199.417	22.282	1231.044	972.741
200.432	22.216	1230.446	971.819
201.446	22.265	1229.987	971.638
202.461	22.209	1229.299	970.703
203.475	22.237	1228.711	970.310
204.490	22.247	1227.173	969.061
205.504	22.245	1226.439	968.387
206.519	22.303	1225.370	967.774
207.534	22.410	1224.098	967.271
208.548	22.392	1223.569	966.668
209.563	22.356	1222.696	965.697
210.577	22.321	1222.007	964.877
211.592	22.398	1221.123	964.514
212.607	22.245	1221.222	963.668
213.621	22.402	1219.626	963.183
214.636	22.331	1219.031	962.241
215.650	22.408	1218.110	961.849
216.665	22.335	1217.062	960.537
217.680	22.346	1216.252	959.872
218.694	22.419	1215.410	959.519
219.709	22.454	1214.741	959.097
220.723	22.420	1213.939	958.194
221.738	22.362	1213.434	957.397
222.753	22.271	1212.882	956.379
223.767	22.396	1211.729	956.069
224.782	22.471	1211.961	956.574
225.796	22.576	1210.556	955.946
226.811	22.482	1210.157	955.040
227.826	22.502	1210.014	954.953
228.840	22.430	1209.432	954.017
229.855	22.441	1208.290	953.088
230.869	22.463	1207.801	952.740
231.884	22.553	1207.094	952.582
232.899	22.480	1206.112	951.329
233.913	22.524	1205.711	951.168
234.928	22.573	1205.117	950.882
235.942	22.514	1204.868	950.281
236.957	22.426	1203.551	948.683
237.972	22.447	1203.539	948.703
238.986	22.532	1202.934	948.600
240.001	22.642	1202.235	948.556
241.015	22.557	1201.103	947.123
242.030	22.620	1200.373	946.800
243.045	22.616	1199.833	946.269
244.059	22.588	1199.031	945.404
245.074	22.572	1198.100	944.502
246.088	22.652	1197.511	944.379
247.103	22.665	1196.814	943.816
248.117	22.731	1195.806	943.294
249.132	22.678	1195.024	942.310
250.147	22.670	1194.538	941.798
251.161	22.760	1193.279	941.204
252.176	22.764	1192.921	940.861
253.190	22.722	1192.268	940.037
254.205	22.775	1191.709	939.794
255.220	22.798	1191.189	939.424
256.234	22.691	1191.016	938.634
257.249	22.666	1190.412	937.944
258.263	22.681	1189.584	937.288
259.278	22.749	1189.020	937.120
260.293	22.823	1188.407	936.946
261.307	22.724	1188.117	936.109
262.322	22.763	1187.327	935.610
263.336	22.767	1186.468	934.871
264.351	22.718	1185.872	934.065
265.366	22.629	1185.399	933.134
266.380	22.760	1184.643	933.151
267.395	22.720	1183.582	932.023
268.409	22.729	1183.374	931.825
269.424	22.795	1182.682	931.543
270.439	22.861	1182.138	931.382
271.453	22.886	1181.599	931.007
272.468	22.877	1180.624	930.108
273.482	22.814	1179.808	929.052
274.497	22.832	1179.908	929.143
275.512	22.899	1179.293	928.927
276.526	23.058	1177.981	928.650
277.541	22.913	1177.808	927.668
278.555	22.991	1176.785	927.187
279.570	22.945	1176.308	926.492
280.585	23.009	1174.939	925.666
281.599	22.930	1174.026	924.452
282.614	22.937	1173.336	923.862
283.628	23.000	1172.937	923.797
284.643	22.897	1171.974	922.419
285.657	22.981	1170.785	921.839
286.672	22.936	1170.513	921.305
287.687	22.895	1169.473	920.194
288.701	22.968	1169.050	920.161
289.716	23.103	1168.081	920.018
290.730	23.029	1167.638	919.205
291.745	22.972	1167.062	918.372
292.760	23.027	1166.589	918.206
293.774	22.993	1166.089	917.551
294.789	23.058	1165.263	917.161
295.803	23.174	1164.286	916.911
296.818	23.094	1164.183	916.332
297.833	23.018	1163.314	915.177
298.847	23.091	1162.583	914.894
299.862	23.086	1161.435	913.884
300.876	23.163	1161.044	913.897
301.891	23.123	1160.714	913.348
302.906	23.126	1160.047	912.756
303.920	23.201	1159.406	912.558
304.935	23.267	1158.717	912.277
305.949	23.203	1158.192	911.455
306.964	23.225	1157.397	910.859
307.979	23.234	1156.811	910.366
308.993	23.220	1155.810	909.426
310.008	23.328	1155.042	909.291
311.022	23.318	1154.487	908.724
312.037	23.245	1153.202	907.260
313.052	23.178	1153.121	906.769
314.066	23.210	1152.347	906.247
315.081	23.258	1151.381	905.650
316.095	23.201	1151.233	905.164
317.110	23.273	1150.161	904.610
318.125	23.265	1149.518	903.982
319.139	23.340	1148.427	903.425
320.154	23.301	1148.151	902.931
321.168	23.370	1147.779	902.913
322.183	23.296	1147.374	902.133
323.197	23.383	1146.586	901.876
324.212	23.361	1145.563	900.883
325.227	23.289	1145.728	900.567
326.241	23.277	1145.277	900.073
327.256	23.311	1144.358	899.442
328.270	23.381	1143.439	898.996
329.285	23.322	1142.849	898.152
330.300	23.394	1141.850	897.652
331.314	23.371	1140.868	896.682
332.329	23.415	1140.280	896.367
333.343	23.492	1139.392	895.975
334.358	23.521	1138.402	895.264
335.373	23.551	1137.580	894.692
336.387	23.487	1137.706	894.391
337.402	23.394	1137.340	893.551
338.416	23.451	1136.341	892.975
339.431	23.521	1135.736	892.772
340.446	23.540	1134.971	892.189
341.460	23.556	1134.256	891.631
342.475	23.649	1133.499	891.419
343.489	23.556	1132.750	890.288
344.504	23.587	1131.610	889.470
345.519	23.588	1130.956	888.880
346.533	23.566	1130.163	888.070
347.548	23.535	1129.376	887.217
348.562	23.641	1128.652	887.099
349.577	23.706	1127.681	886.584
350.592	23.498	1127.023	884.948
351.606	23.602	1126.570	885.030
352.621	23.567	1126.148	884.448
353.635	23.756	1125.205	884.570
354.650	23.619	1124.636	883.362
355.665	23.682	1124.262	883.303
356.679	23.679	1123.799	882.849
357.694	23.766	1122.849	882.453
358.708	23.757	1121.974	881.643
359.723	23.675	1121.333	880.657
360.738	23.683	1121.164	880.486
361.752	23.696	1120.695	880.102
362.767	23.734	1119.961	879.637
363.781	23.817	1119.253	879.416
364.796	23.781	1118.713	878.733
365.810	23.737	1118.282	878.101
366.825	23.918	1117.360	878.194
367.840	23.751	1117.421	877.336
368.854	23.832	1116.402	876.859
369.869	23.833	1116.071	876.526
370.883	24.002	1114.748	876.245
371.898	23.947	1114.273	875.520
372.913	23.934	1113.526	874.792
373.927	23.896	1113.212	874.282
374.942	23.987	1112.620	874.186
375.956	23.964	1112.136	873.617
376.971	23.821	1111.575	872.395
377.986	23.972	1111.097	872.687
379.000	24.024	1110.331	872.261
380.015	24.035	1110.296	872.211
381.029	24.039	1109.320	871.385
382.044	24.089	1108.488	870.901
383.059	24.061	1108.175	870.438
384.073	24.004	1107.468	869.528
385.088	24.050	1106.524	868.935
386.102	23.993	1105.667	867.908
387.117	24.035	1104.903	867.436
388.132	24.046	1103.893	866.620
389.146	24.036	1103.329	866.052
390.161	24.087	1102.978	865.950
391.175	24.122	1102.186	865.420
392.190	24.015	1101.652	864.404
393.205	24.041	1100.820	863.802
394.219	24.114	1100.233	863.617
395.234	24.127	1099.205	862.796
396.248	24.231	1098.356	862.556
397.263	24.103	1097.493	861.186
398.278	24.312	1097.029	861.753
399.292	24.316	1096.159	861.016
400.307	24.176	1095.810	859.988
401.321	24.068	1095.477	859.131
402.336	24.153	1094.684	858.844
403.350	24.250	1093.607	858.389
404.365	24.210	1093.172	857.777
405.380	24.403	1092.262	857.915
406.394	24.191	1091.986	856.603
407.409	24.435	1090.707	856.695
408.423	24.386	1090.182	855.971
409.438	24.320	1089.376	854.948
410.453	24.307	1088.927	854.457
411.467	24.283	1088.187	853.688
412.482	24.423	1087.584	853.806
413.496	24.377	1086.709	852.826
414.511	24.329	1086.090	852.037
415.526	24.379	1085.983	852.112
416.540	24.292	1085.838	851.508
417.555	24.365	1084.915	851.059
418.569	24.249	1084.690	850.253
419.584	24.592	1083.790	851.108
420.599	24.489	1083.214	850.090
421.613	148.941	1401.768	1798.340
422.628	137.619	1448.162	1798.460
