DTS Sentinel unit serial number:	SN413079Multiplexer serial number:	ORYXHardware model number:	OX4-SRSoftware version number:	ORYX F/W v4.00 Oryx Data Collector v3.7.2.0data status	okinstallation	princeton_trtdifferential loss correction	single-endedforward channel	channel 2reverse channel	N/Adate	2019/09/15time	03:27:34forward acquisition time	60.00reverse acquisition time	0.00gamma	496.2192k internal	0.2326k external	0.2326temperature offset calibration	1.0033default loss term (dB/km)	0.3790temperature slope calibration	1.0000multiplexer offset coefficient	1.0000multiplexer slope coefficient	1.0000fibre end	0.00T internal ref (°C)	31.02T ext. ref 1 (°C)	4.63T ext. ref 2 (°C)	25.79length (m)	temperature (°C)	Stokes	anti-Stokes-747.200	-84.854	-0.249	-0.079
-746.185	216.688	0.232	0.373
-745.171	-144.813	0.123	-0.011
-744.156	-47.361	0.088	0.043
-743.142	-62.938	-0.198	-0.083
-742.127	343.117	-0.048	-0.096
-741.112	-200.000	-0.018	0.125
-740.098	-17.948	0.165	-0.104
-739.083	441.406	0.073	0.160
-738.069	800.000	-0.062	0.175
-737.054	11.556	-0.134	-0.103
-736.039	143.192	-0.042	-0.057
-735.025	800.000	-0.069	0.281
-734.010	-200.000	-0.032	0.158
-732.996	-200.000	0.036	-0.214
-731.981	-128.333	-0.159	-0.023
-730.966	-51.272	0.184	0.087
-729.952	83.133	0.141	-0.155
-728.937	-160.284	-0.155	-0.008
-727.923	-200.000	-0.038	0.506
-726.908	115.731	-0.035	0.043
-725.894	652.993	-0.106	0.273
-724.879	-153.551	-0.247	0.017
-723.864	800.000	-0.029	0.104
-722.850	-90.240	-0.412	-0.121
-721.835	-142.262	-0.181	0.018
-720.821	-50.242	-0.089	0.042
-719.806	213.226	0.243	0.387
-718.791	49.236	0.062	-0.059
-717.777	126.744	-0.301	0.384
-716.762	37.054	0.296	0.264
-715.748	17.002	-0.129	0.103
-714.733	-138.747	0.302	0.033
-713.718	467.296	-0.125	-0.282
-712.704	-200.000	0.038	0.241
-711.689	235.940	0.040	-0.066
-710.675	123.731	0.147	-0.186
-709.660	261.404	0.123	0.215
-708.645	550.625	0.047	-0.114
-707.631	-86.496	0.143	-0.044
-706.616	-95.609	0.363	-0.098
-705.602	130.816	-0.096	0.124
-704.587	-200.000	0.039	-0.196
-703.572	437.771	-0.111	-0.244
-702.558	10.794	0.120	0.093
-701.543	229.253	-0.041	-0.068
-700.529	-175.088	-0.292	0.008
-699.514	224.154	0.125	-0.203
-698.499	800.000	-0.026	-0.081
-697.485	570.306	0.093	0.227
-696.470	-200.000	0.003	0.066
-695.456	-132.821	0.173	-0.022
-694.441	800.000	-0.040	-0.134
-693.426	136.099	0.036	-0.047
-692.412	800.000	0.023	0.082
-691.397	-44.706	-0.283	-0.142
-690.383	-131.350	0.336	0.045
-689.368	-7.779	-0.084	0.057
-688.354	38.888	0.110	0.099
-687.339	-200.000	-0.009	-0.044
-686.324	-2.845	-0.158	-0.111
-685.310	314.691	-0.044	-0.084
-684.295	-16.482	0.095	-0.061
-683.281	-141.328	-0.239	0.024
-682.266	-159.080	-0.383	-0.022
-681.251	175.408	0.131	-0.191
-680.237	-200.000	0.001	-0.128
-679.222	-110.223	0.337	-0.071
-678.208	800.000	-0.019	-0.055
-677.193	-99.789	0.235	0.059
-676.178	-112.693	-0.178	0.036
-675.164	800.000	0.073	-0.273
-674.149	-200.000	-0.005	-0.021
-673.135	-45.052	-0.236	-0.118
-672.120	800.000	0.104	-0.343
-671.105	-3.518	-0.256	0.179
-670.091	-145.206	0.468	-0.043
-669.076	-139.547	-0.223	0.024
-668.062	-41.292	-0.170	0.088
-667.047	-33.467	0.139	-0.077
-666.032	800.000	-0.058	0.254
-665.018	253.148	-0.034	-0.059
-664.003	125.147	0.048	-0.061
-662.989	-200.000	-0.029	0.183
-661.974	90.197	0.102	-0.115
-660.959	-88.371	0.213	0.064
-659.945	-67.672	-0.211	0.083
-658.930	-107.656	-0.275	0.060
-657.916	-180.671	-0.181	0.004
-656.901	291.003	0.151	0.276
-655.886	257.547	-0.219	0.378
-654.872	-200.000	-0.011	0.091
-653.857	-74.036	-0.156	0.057
-652.843	117.754	0.287	-0.355
-651.828	-200.000	0.012	-0.093
-650.814	-200.000	0.052	-0.230
-649.799	6.179	0.175	0.131
-648.784	67.558	-0.026	-0.027
-647.770	-110.433	0.212	0.044
-646.755	30.517	0.073	0.063
-645.741	-174.902	0.094	-0.003
-644.726	255.100	-0.186	0.320
-643.711	143.306	-0.258	-0.345
-642.697	-25.395	0.084	-0.050
-641.682	-95.878	0.160	-0.043
-640.668	-118.454	-0.190	0.034
-639.653	682.315	-0.043	-0.111
-638.638	81.418	0.144	-0.157
-637.624	800.000	-0.069	-0.285
-636.609	-200.000	0.030	0.137
-635.595	-43.566	0.143	0.073
-634.580	-51.285	0.207	-0.097
-633.565	-200.000	0.006	0.132
-632.551	-107.643	0.131	-0.029
-631.536	-60.739	-0.186	0.079
-630.522	29.392	0.190	-0.162
-629.507	-34.257	-0.234	0.129
-628.492	-70.144	-0.260	0.099
-627.478	13.635	-0.131	0.102
-626.463	800.000	-0.026	0.088
-625.449	-67.493	-0.253	-0.100
-624.434	63.219	-0.155	-0.156
-623.419	37.743	-0.090	0.081
-622.405	-31.239	-0.103	0.058
-621.390	-200.000	0.004	-0.160
-620.376	-30.566	-0.090	-0.051
-619.361	18.550	-0.092	0.074
-618.346	258.481	-0.059	0.102
-617.332	-44.613	0.256	0.128
-616.317	142.112	-0.070	-0.093
-615.303	-200.000	-0.040	-0.325
-614.288	-31.819	-0.191	-0.108
-613.273	-127.043	-0.303	0.045
-612.259	-100.094	0.100	0.025
-611.244	800.000	-0.097	-0.270
-610.230	45.218	0.077	0.071
-609.215	800.000	0.029	-0.088
-608.201	-129.370	0.242	0.034
-607.186	-33.531	-0.071	0.039
-606.171	188.832	0.054	0.082
-605.157	-12.639	0.340	0.223
-604.142	-130.279	0.135	-0.018
-603.128	280.590	-0.154	0.277
-602.113	-82.557	-0.223	-0.073
-601.098	-140.286	0.362	-0.038
-600.084	225.667	-0.049	-0.080
-599.069	800.000	0.074	0.258
-598.055	-153.936	0.083	-0.006
-597.040	-200.000	-0.035	-0.394
-596.025	94.450	0.261	-0.298
-595.011	666.876	0.091	0.235
-593.996	-0.619	0.240	0.171
-592.982	105.732	-0.110	0.131
-591.967	13.189	0.022	0.017
-590.952	-59.793	0.099	-0.042
-589.938	363.743	0.103	0.207
-588.923	800.000	-0.066	-0.237
-587.909	-59.355	0.260	-0.112
-586.894	94.891	-0.073	0.083
-585.879	-45.006	0.170	-0.085
-584.865	-97.011	0.090	-0.024
-583.850	-114.674	0.198	-0.038
-582.836	699.558	-0.089	-0.235
-581.821	297.346	0.117	-0.215
-580.806	391.144	-0.148	-0.308
-579.792	641.091	0.041	-0.105
-578.777	800.000	0.037	-0.133
-577.763	100.439	0.174	-0.202
-576.748	-144.774	-0.454	-0.042
-575.733	8.808	0.141	0.106
-574.719	751.233	0.042	-0.113
-573.704	69.193	-0.125	-0.128
-572.690	136.339	0.238	-0.311
-571.675	333.698	-0.123	0.238
-570.661	-200.000	0.034	0.183
-569.646	9.811	-0.018	-0.014
-568.631	433.427	-0.129	0.280
-567.617	-70.211	-0.169	-0.064
-566.602	-36.528	0.038	-0.020
-565.588	252.219	-0.108	-0.184
-564.573	712.315	0.091	-0.242
-563.558	-0.003	-0.075	0.054
-562.544	-53.921	0.067	-0.030
-561.529	-160.017	-0.377	0.021
-560.515	97.512	0.164	-0.189
-559.500	-138.997	0.164	0.018
-558.485	-5.646	-0.088	-0.060
-557.471	-25.728	-0.232	-0.137
-556.456	-162.533	0.216	0.011
-555.442	-200.000	-0.042	0.283
-554.427	191.412	-0.162	0.244
-553.412	208.421	-0.026	-0.040
-552.398	-200.000	-0.037	-0.176
-551.383	-46.074	0.186	0.092
-550.369	-142.075	-0.140	-0.014
-549.354	192.564	0.145	0.219
-548.339	-200.000	-0.011	0.310
-547.325	-200.000	-0.017	-0.194
-546.310	800.000	0.160	-0.639
-545.296	82.238	-0.104	0.113
-544.281	116.747	-0.057	0.069
-543.266	471.966	0.095	0.215
-542.252	-200.000	0.014	-0.068
-541.237	-27.676	0.090	0.052
-540.223	540.381	-0.180	-0.429
-539.208	800.000	-0.074	0.250
-538.193	-200.000	0.004	-0.255
-537.179	587.888	-0.049	0.122
-536.164	-200.000	0.048	0.243
-535.150	530.245	0.167	0.394
-534.135	-200.000	-0.022	-0.160
-533.121	23.578	0.139	0.114
-532.106	-91.271	-0.187	-0.054
-531.091	121.168	0.061	-0.077
-530.077	517.283	-0.160	0.375
-529.062	428.272	0.099	0.214
-528.048	85.960	-0.112	0.123
-527.033	-51.791	0.102	-0.048
-526.018	593.953	-0.076	-0.187
-525.004	800.000	-0.085	0.255
-523.989	-132.249	-0.082	-0.011
-522.975	394.240	-0.020	-0.041
-521.960	-200.000	0.038	0.173
-520.945	175.945	-0.044	0.064
-519.931	-200.000	0.040	0.213
-518.916	-12.759	0.294	0.191
-517.902	-114.839	-0.235	-0.045
-516.887	102.152	-0.222	-0.260
-515.872	163.846	0.133	-0.187
-514.858	152.946	0.293	-0.400
-513.843	117.175	0.062	0.077
-512.829	-147.213	-0.240	0.020
-511.814	-17.320	-0.125	-0.079
-510.799	6.867	0.207	-0.154
-509.785	-200.000	0.011	-0.110
-508.770	-150.720	0.248	-0.019
-507.756	-200.000	-0.032	-0.224
-506.741	173.333	0.121	-0.175
-505.726	283.957	-0.033	0.059
-504.712	-200.000	0.068	-0.366
-503.697	74.994	-0.250	0.263
-502.683	-99.467	-0.075	-0.019
-501.668	423.450	0.082	0.175
-500.653	-127.434	-0.184	-0.027
-499.639	-90.322	-0.125	-0.036
-498.624	223.217	-0.158	0.255
-497.610	506.898	0.021	-0.048
-496.595	-116.235	-0.180	0.033
-495.581	61.666	-0.139	-0.138
-494.566	-183.468	0.198	-0.003
-493.551	-10.466	0.149	0.099
-492.537	380.481	-0.018	0.036
-491.522	-134.723	-0.073	-0.009
-490.508	800.000	0.075	0.291
-489.493	-43.972	0.102	-0.051
-488.478	2.009	0.123	-0.089
-487.464	194.024	-0.304	-0.459
-486.449	346.623	0.050	-0.098
-485.435	-154.985	0.203	-0.013
-484.420	-33.702	0.426	-0.234
-483.405	22.013	-0.264	-0.215
-482.391	-145.591	-0.121	0.011
-481.376	-200.000	-0.008	0.251
-480.362	-101.405	-0.205	-0.050
-479.347	-94.466	-0.425	0.116
-478.332	-200.000	0.025	-0.198
-477.318	373.274	0.070	0.143
-476.303	94.939	-0.155	0.176
-475.289	78.256	-0.160	0.171
-474.274	-200.000	0.012	0.097
-473.259	175.631	-0.126	0.182
-472.245	133.116	0.087	0.112
-471.230	800.000	-0.044	-0.139
-470.216	559.396	-0.130	0.312
-469.201	270.298	0.032	0.057
-468.186	-38.830	-0.168	0.089
-467.172	-88.791	-0.312	0.093
-466.157	800.000	-0.103	0.376
-465.143	-132.428	-0.241	-0.031
-464.128	656.593	-0.027	-0.070
-463.113	-200.000	0.024	0.288
-462.099	-199.820	0.063	-0.000
-461.084	293.028	-0.048	0.087
-460.070	260.779	0.104	0.179
-459.055	102.449	0.210	0.245
-458.040	-148.277	0.346	0.028
-457.026	-130.403	0.276	0.037
-456.011	336.132	0.023	0.045
-454.997	-128.515	-0.192	-0.027
-453.982	221.373	-0.098	-0.156
-452.968	237.078	0.087	0.144
-451.953	133.930	-0.170	-0.219
-450.938	67.665	-0.202	-0.206
-449.924	-42.553	-0.219	-0.111
-448.909	52.047	0.140	-0.133
-447.895	23.432	-0.165	0.136
-446.880	-11.443	0.221	0.145
-445.865	547.807	0.091	-0.218
-444.851	112.276	0.152	-0.183
-443.836	152.376	-0.047	0.064
-442.822	-34.482	-0.031	0.017
-441.807	-100.725	0.122	0.030
-440.792	-76.959	-0.067	0.023
-439.778	-200.000	-0.005	-0.048
-438.763	328.827	-0.181	-0.347
-437.749	80.131	-0.244	-0.262
-436.734	163.773	-0.010	0.014
-435.719	-94.082	-0.211	0.058
-434.705	-200.000	0.044	-0.267
-433.690	-200.000	-0.022	-0.371
-432.676	-200.000	-0.016	-0.085
-431.661	-134.599	0.239	0.029
-430.646	-67.965	0.121	0.047
-429.632	209.667	0.097	0.151
-428.617	-95.100	0.101	-0.027
-427.603	-69.790	-0.201	-0.077
-426.588	-200.000	0.030	0.135
-425.573	-47.051	-0.253	0.123
-424.559	98.344	-0.130	0.150
-423.544	-41.798	-0.122	0.062
-422.530	-100.945	0.127	-0.031
-421.515	226.114	-0.053	0.086
-420.500	-200.000	0.034	-0.196
-419.486	115.336	-0.155	-0.189
-418.471	128.100	0.169	-0.214
-417.457	-52.803	0.210	-0.097
-416.442	708.464	0.036	0.094
-415.428	43.630	0.243	0.221
-414.413	-49.013	-0.107	-0.051
-413.398	-121.190	-0.215	-0.036
-412.384	162.380	0.063	0.087
-411.369	-86.317	0.215	-0.066
-410.355	582.373	-0.086	0.209
-409.340	-200.000	-0.003	-0.045
-408.325	-200.000	-0.008	0.114
-407.311	-141.292	0.072	-0.007
-406.296	-152.936	-0.127	0.009
-405.282	-179.734	-0.047	0.001
-404.267	-2.440	0.150	-0.105
-403.252	-129.445	-0.231	-0.032
-402.238	166.693	0.052	-0.073
-401.223	4.537	-0.376	-0.275
-400.209	-132.439	0.246	-0.032
-399.194	-141.526	-0.251	0.025
-398.179	-200.000	0.025	-0.333
-397.165	-200.000	0.018	0.263
-396.150	-37.554	-0.136	0.072
-395.136	-200.000	0.005	-0.116
-394.121	-148.144	0.373	0.031
-393.106	-155.456	-0.014	-0.001
-392.092	98.395	-0.208	-0.239
-391.077	-141.767	0.456	0.046
-390.063	-200.000	-0.067	0.334
-389.048	-200.000	-0.047	0.272
-388.033	103.756	-0.132	-0.154
-387.019	708.599	0.065	-0.172
-386.004	-200.000	0.123	-0.001
-384.990	-200.000	0.019	0.107
-383.975	709.257	-0.122	0.321
-382.960	-123.708	0.135	0.021
-381.946	390.072	-0.145	0.299
-380.931	93.125	-0.106	-0.119
-379.917	165.333	-0.156	0.219
-378.902	-200.000	0.025	-0.128
-377.888	63.700	-0.261	-0.261
-376.873	23.151	0.263	-0.214
-375.858	-3.462	-0.257	-0.178
-374.844	-200.000	-0.040	0.000
-373.829	154.269	0.037	-0.050
-372.815	-200.000	0.037	-0.225
-371.800	592.064	0.107	0.264
-370.785	-107.377	-0.124	0.027
-369.771	-15.961	0.183	-0.116
-368.756	-62.034	0.170	0.071
-367.742	-200.000	0.014	-0.104
-366.727	-200.000	0.018	0.082
-365.712	-158.223	-0.276	-0.016
-364.698	312.679	0.184	0.343
-363.683	-155.399	-0.127	0.008
-362.669	-92.441	-0.185	-0.052
-361.654	451.251	0.080	0.176
-360.639	-43.369	0.193	0.097
-359.625	-200.000	0.025	0.112
-358.610	174.582	0.052	0.074
-357.596	-159.488	0.196	0.011
-356.581	-11.663	0.083	-0.054
-355.566	2.074	0.207	0.148
-354.552	800.000	0.060	0.217
-353.537	561.509	-0.046	0.112
-352.523	-200.000	-0.022	-0.210
-351.508	-200.000	-0.045	-0.197
-350.493	107.474	-0.129	0.153
-349.479	59.981	-0.105	-0.103
-348.464	-62.523	0.034	0.014
-347.450	-146.183	-0.093	-0.008
-346.435	-23.812	0.198	-0.118
-345.420	-69.907	0.270	-0.102
-344.406	-200.000	-0.035	-0.189
-343.391	-113.964	-0.051	-0.010
-342.377	29.831	0.292	0.247
-341.362	118.816	-0.143	0.175
-340.348	800.000	-0.069	-0.232
-339.333	-3.784	-0.207	-0.143
-338.318	-80.813	0.336	0.111
-337.304	-200.000	0.057	0.285
-336.289	-108.361	-0.227	-0.049
-335.275	-123.046	-0.345	-0.055
-334.260	34.942	0.227	-0.197
-333.245	-200.000	0.002	-0.075
-332.231	-110.840	0.140	-0.029
-331.216	800.000	-0.032	0.133
-330.202	132.825	0.215	0.275
-329.187	285.475	0.150	-0.269
-328.172	-73.533	0.249	-0.090
-327.158	800.000	-0.090	0.283
-326.143	-200.000	-0.041	-0.254
-325.129	174.283	0.131	-0.188
-324.114	-30.393	0.139	0.078
-323.099	32.115	0.333	0.285
-322.085	117.539	-0.246	0.300
-321.070	-102.437	-0.307	0.073
-320.056	-200.000	-0.023	0.207
-319.041	159.841	-0.093	-0.128
-318.026	-76.095	0.214	-0.075
-317.012	3.564	0.198	0.143
-315.997	-200.000	0.011	0.432
-314.983	-188.535	-0.302	0.004
-313.968	90.149	-0.175	-0.194
-312.953	-56.696	0.343	-0.151
-311.939	441.104	0.087	0.188
-310.924	-196.327	-0.346	-0.002
-309.910	-200.000	0.040	0.182
-308.895	-155.297	0.458	0.030
-307.880	182.502	-0.099	-0.145
-306.866	35.959	-0.169	-0.148
-305.851	-200.000	-0.362	0.001
-304.837	283.810	0.115	-0.205
-303.822	-40.600	-0.624	-0.321
-302.807	-200.000	-0.037	0.316
-301.793	-31.014	-0.164	-0.092
-300.778	-50.123	-0.103	-0.048
-299.764	789.577	-0.041	0.112
-298.749	37.085	-0.123	0.108
-297.735	69.990	0.225	-0.230
-296.720	29.077	-0.214	0.180
-295.705	800.000	0.057	0.190
-294.691	-185.239	0.378	0.006
-293.676	266.114	0.030	-0.051
-292.662	-40.984	0.132	-0.067
-291.647	196.677	0.187	-0.282
-290.632	-200.000	-0.029	0.444
-289.618	160.186	0.178	0.246
-288.603	148.826	0.102	-0.136
-287.589	-41.417	0.261	-0.133
-286.574	-115.444	-0.367	0.069
-285.559	748.208	0.080	-0.214
-284.545	-200.000	0.057	-0.374
-283.530	62.719	0.235	0.233
-282.516	-200.000	-0.021	-0.227
-281.501	-16.886	0.307	-0.193
-280.486	-200.000	0.006	0.053
-279.472	-45.476	-0.186	0.091
-278.457	148.483	-0.076	0.102
-277.443	179.291	0.155	0.224
-276.428	221.806	0.054	0.086
-275.413	91.115	0.135	0.150
-274.399	18.073	-0.066	0.052
-273.384	141.791	-0.158	-0.207
-272.370	286.715	0.079	0.141
-271.355	15.380	0.168	0.131
-270.340	-123.782	-0.316	0.049
-269.326	-13.834	0.088	0.057
-268.311	326.985	-0.159	-0.301
-267.297	429.810	0.132	0.282
-266.282	-135.903	0.054	0.006
-265.267	140.528	-0.009	-0.012
-264.253	295.212	0.154	-0.278
-263.238	178.213	-0.201	0.291
-262.224	88.252	0.009	0.010
-261.209	800.000	-0.056	-0.222
-260.195	248.538	-0.169	0.283
-259.180	-103.126	-0.099	-0.023
-258.165	170.488	-0.150	0.213
-257.151	-181.540	0.186	-0.004
-256.136	610.973	-0.105	-0.259
-255.122	-48.899	-0.088	-0.042
-254.107	-94.366	0.206	0.056
-253.092	-58.912	0.187	-0.080
-252.078	-53.767	0.150	-0.068
-251.063	-70.727	0.137	-0.051
-250.049	-117.338	0.230	0.041
-249.034	291.691	-0.076	0.137
-248.019	185.101	-0.100	0.147
-247.005	-154.616	-0.484	-0.032
-245.990	301.772	-0.097	0.177
-244.976	-108.478	0.255	-0.054
-243.961	-200.000	0.028	0.164
-242.946	-200.000	0.020	0.267
-241.932	378.241	-0.076	0.153
-240.917	-200.000	0.022	-0.159
-239.903	-72.224	0.381	0.140
-238.888	-76.109	-0.428	-0.150
-237.873	-130.626	0.126	-0.017
-236.859	-55.118	-0.222	-0.099
-235.844	-160.603	-0.303	-0.016
-234.830	-150.479	-0.264	-0.020
-233.815	-55.886	0.320	0.141
-232.800	-174.946	0.054	-0.002
-231.786	-200.000	0.009	-0.125
-230.771	-200.000	0.014	0.138
-229.757	-42.212	0.321	-0.162
-228.742	117.072	-0.107	-0.130
-227.727	14.145	-0.111	-0.086
-226.713	772.115	0.064	0.172
-225.698	800.000	0.042	0.130
-224.684	35.780	-0.405	-0.352
-223.669	311.327	0.015	0.027
-222.655	-156.481	-0.193	-0.012
-221.640	-33.668	0.240	-0.131
-220.625	-200.000	0.038	0.177
-219.611	54.428	0.030	0.029
-218.596	800.000	0.059	-0.214
-217.582	-78.789	0.099	0.033
-216.567	128.967	-0.172	-0.217
-215.552	-66.009	-0.097	-0.038
-214.538	-157.847	-0.122	-0.007
-213.523	0.146	0.125	0.088
-212.509	-121.721	-0.230	0.038
-211.494	257.828	0.044	0.075
-210.479	323.620	0.065	-0.123
-209.465	-139.706	-0.514	0.054
-208.450	-150.413	0.088	-0.007
-207.436	-105.656	0.123	-0.028
-206.421	-158.061	0.202	-0.012
-205.406	-200.000	0.040	0.290
-204.392	-59.063	-0.142	0.060
-203.377	473.011	0.154	-0.343
-202.363	-1.290	-0.431	-0.300
-201.348	-115.327	0.338	-0.063
-200.333	33.639	-0.074	-0.063
-199.319	-163.145	-0.165	-0.008
-198.304	-63.116	0.140	0.057
-197.290	-175.647	-0.028	0.001
-196.275	-200.000	0.065	-0.370
-195.260	-28.114	0.167	-0.095
-194.246	-49.892	0.160	0.075
-193.231	215.846	-0.115	0.181
-192.217	227.754	-0.053	-0.086
-191.202	-47.627	0.241	0.115
-190.187	7.812	-0.140	0.103
-189.173	-119.138	0.074	-0.013
-188.158	800.000	-0.125	0.528
-187.144	146.122	0.131	-0.173
-186.129	-141.707	-0.632	0.063
-185.114	7.332	0.183	-0.135
-184.100	539.320	-0.107	-0.252
-183.085	179.528	0.120	0.174
-182.071	108.131	-0.089	0.105
-181.056	-98.486	0.322	-0.081
-180.042	202.368	0.091	-0.138
-179.027	-38.379	0.374	0.195
-178.012	-200.000	0.037	-0.191
-176.998	-200.000	0.041	0.210
-175.983	-200.000	0.015	0.138
-174.969	-200.000	-0.008	-0.227
-173.954	9.125	-0.399	0.297
-172.939	57.167	0.412	0.397
-171.925	-200.000	0.043	0.199
-170.910	66.440	-0.060	0.060
-169.896	343.924	0.080	-0.155
-168.881	5.848	0.159	-0.116
-167.866	-59.294	0.292	-0.124
-166.852	-40.900	-0.216	-0.110
-165.837	307.751	-0.210	-0.387
-164.823	13.873	-0.272	0.208
-163.808	151.098	0.196	-0.263
-162.793	-47.374	0.195	-0.094
-161.779	20.218	-0.094	-0.075
-160.764	-131.010	0.056	-0.007
-159.750	-200.000	-0.022	-0.110
-158.735	-170.473	0.091	0.003
-157.720	28.915	-0.121	0.101
-156.706	-200.000	0.153	-0.000
-155.691	-200.000	-0.043	0.275
-154.677	48.577	0.120	0.111
-153.662	-200.000	0.017	0.212
-152.647	116.365	0.073	-0.088
-151.633	178.961	0.036	0.052
-150.618	693.850	-0.030	-0.077
-149.604	540.050	0.036	-0.085
-148.589	-47.353	0.172	-0.082
-147.574	-105.955	-0.179	0.040
-146.560	-85.695	-0.216	-0.066
-145.545	150.676	-0.107	0.144
-144.531	252.571	0.180	0.303
-143.516	-155.651	-0.254	-0.016
-142.502	172.438	0.113	0.160
-141.487	-200.000	-0.001	-0.253
-140.472	233.631	-0.126	0.205
-139.458	-200.000	0.012	-0.236
-138.443	-80.688	0.028	-0.009
-137.429	130.995	-0.130	0.165
-136.414	-82.883	0.115	0.036
-135.399	-50.191	-0.088	-0.041
-134.385	264.575	-0.161	0.276
-133.370	800.000	-0.057	0.181
-132.356	-31.291	0.079	0.044
-131.341	91.918	-0.344	0.381
-130.326	-78.349	0.074	-0.025
-129.312	-133.435	-0.055	0.007
-128.297	222.532	0.214	0.340
-127.283	-200.000	-0.016	-0.100
-126.268	187.972	0.090	0.133
-125.253	197.723	0.099	0.148
-124.239	-127.633	-0.151	0.022
-123.224	-167.365	-0.374	0.015
-122.210	48.684	0.243	0.224
-121.195	-200.000	-0.023	-0.183
-120.180	-124.268	0.097	0.015
-119.166	800.000	-0.018	-0.065
-118.151	-131.327	-0.412	0.054
-117.137	-200.000	-0.019	0.098
-116.122	331.233	-0.132	0.250
-115.107	800.000	-0.036	0.133
-114.093	227.299	-0.133	0.214
-113.078	-137.531	0.567	0.063
-112.064	-86.395	-0.026	-0.008
-111.049	9.919	0.099	-0.074
-110.034	1.494	0.451	-0.320
-109.020	-127.066	-0.148	-0.021
-108.005	800.000	-0.045	-0.157
-106.991	58.596	0.094	0.091
-105.976	-71.455	-0.335	-0.123
-104.962	21.705	-0.216	0.173
-103.947	-200.000	-0.008	-0.053
-102.932	-68.184	0.098	-0.037
-101.918	510.805	0.049	0.112
-100.903	-19.062	-0.065	-0.040
-99.889	163.769	-0.055	0.076
-98.874	116.560	0.081	0.098
-97.859	213.645	-0.052	-0.081
-96.845	-32.617	-0.138	-0.076
-95.830	-90.018	-0.256	0.073
-94.816	-23.903	0.139	-0.082
-93.801	102.643	-0.067	-0.077
-92.786	800.000	0.065	-0.185
-91.772	-46.227	-0.324	0.157
-90.757	800.000	0.052	0.143
-89.743	-200.000	0.005	-0.213
-88.728	-200.000	0.034	-0.444
-87.713	-200.000	-0.035	0.346
-86.699	-57.376	0.047	0.020
-85.684	-54.570	0.273	0.121
-84.670	-102.963	-0.378	0.088
-83.655	-95.382	0.054	-0.014
-82.640	345.931	0.094	-0.181
-81.626	670.732	0.033	-0.083
-80.611	-111.756	0.383	-0.076
-79.597	102.762	-0.177	-0.204
-78.582	-9.821	0.292	0.191
-77.567	-59.726	0.465	-0.196
-76.553	-200.000	-0.046	-0.237
-75.538	-0.242	0.210	-0.147
-74.524	187.854	0.114	-0.168
-73.509	54.534	-0.211	-0.200
-72.494	-157.476	0.359	0.021
-71.480	-200.000	0.031	0.305
-70.465	11.198	0.211	-0.159
-69.451	64.067	0.204	-0.201
-68.436	-200.000	-0.056	-0.268
-67.422	16.351	-0.222	-0.172
-66.407	-11.078	0.232	-0.151
-65.392	204.986	-0.114	0.174
-64.378	92.739	0.089	0.099
-63.363	-163.134	-0.223	0.011
-62.349	359.536	0.113	0.222
-61.334	164.853	-0.670	-0.929
-60.319	161.065	0.400	0.549
-59.305	800.000	-0.365	-1.029
-58.290	151.123	0.865	1.156
-57.276	716.219	0.604	1.575
-56.261	-200.000	100.952	604.136
-55.246	588.154	1413.373	3418.077
-54.232	190.448	2605.617	3843.906
-53.217	112.072	2275.235	2699.567
-52.203	40.533	1894.845	1675.868
-51.188	34.270	1683.965	1442.067
-50.173	31.575	1640.551	1384.919
-49.159	49.500	1690.317	1561.976
-48.144	51.222	1705.932	1589.270
-47.130	33.877	1665.620	1423.182
-46.115	31.150	1651.304	1390.607
-45.100	31.048	1646.501	1385.748
-44.086	30.887	1644.130	1382.506
-43.071	30.887	1641.591	1380.319
-42.057	30.875	1639.080	1378.059
-41.042	30.897	1637.052	1376.460
-40.027	30.939	1635.280	1375.231
-39.013	30.845	1633.371	1372.878
-37.998	30.831	1631.564	1371.198
-36.984	30.931	1630.344	1370.853
-35.969	30.912	1629.271	1369.760
-34.954	31.077	1627.111	1369.099
-33.940	31.045	1625.438	1367.406
-32.925	30.975	1623.995	1365.625
-31.911	31.016	1622.163	1364.325
-30.896	30.966	1620.599	1362.596
-29.881	30.994	1618.676	1361.127
-28.867	30.984	1616.917	1359.519
-27.852	31.040	1615.531	1358.712
-26.838	31.005	1614.269	1357.342
-25.823	30.984	1613.311	1356.329
-24.809	31.053	1611.622	1355.355
-23.794	30.979	1610.630	1353.932
-22.779	31.002	1608.515	1352.267
-21.765	31.015	1606.936	1350.981
-20.750	31.093	1605.407	1350.204
-19.736	31.054	1603.957	1348.647
-18.721	31.085	1602.371	1347.481
-17.706	31.032	1601.032	1345.921
-16.692	31.026	1599.237	1344.315
-15.677	30.954	1598.414	1343.055
-14.663	31.138	1596.690	1342.875
-13.648	31.197	1595.230	1342.020
-12.633	31.154	1593.990	1340.612
-11.619	31.151	1592.157	1338.996
-10.604	31.089	1590.873	1337.420
-9.590	31.078	1589.664	1336.270
-8.575	30.924	1589.102	1334.642
-7.560	30.979	1587.928	1333.995
-6.546	31.062	1586.516	1333.349
-5.531	31.112	1585.049	1332.422
-4.517	31.075	1584.614	1331.738
-3.502	31.044	1583.350	1330.407
-2.487	31.114	1581.562	1329.344
-1.473	30.785	1569.961	1317.217
-0.458	28.019	1551.080	1281.955
0.556	23.811	1551.511	1250.534
1.571	21.460	1575.122	1252.633
2.586	21.055	1587.817	1259.695
3.600	18.806	1534.639	1201.682
4.615	11.505	1427.899	1070.312
5.629	5.517	1366.802	986.764
6.644	4.771	1359.798	976.940
7.659	4.564	1358.244	974.435
8.673	4.555	1357.225	973.565
9.688	4.620	1355.351	972.541
10.702	4.391	1352.989	969.329
11.717	7.279	1357.904	990.842
12.731	14.310	1370.742	1044.357
13.746	18.937	1377.331	1078.374
14.761	18.776	1376.289	1076.451
15.775	17.777	1373.233	1067.718
16.790	16.694	1370.704	1058.885
17.804	15.904	1368.228	1051.949
18.819	15.516	1367.761	1049.068
19.834	15.176	1366.202	1045.662
20.848	14.929	1364.899	1043.028
21.863	14.840	1363.471	1041.291
22.877	14.530	1362.725	1038.698
23.892	14.528	1361.783	1037.879
24.907	14.540	1361.105	1037.341
25.921	14.732	1359.531	1037.246
26.936	14.669	1358.637	1036.082
27.950	14.667	1358.197	1035.641
28.965	14.794	1356.961	1035.392
29.980	14.857	1355.948	1034.922
30.994	14.943	1354.448	1034.217
32.009	15.029	1353.245	1033.733
33.023	14.862	1352.251	1031.853
34.038	14.846	1351.164	1030.832
35.053	14.751	1349.888	1029.184
36.067	14.940	1348.424	1029.139
37.082	14.805	1347.447	1027.472
38.096	14.792	1347.042	1026.992
39.111	14.853	1345.758	1026.297
40.126	14.720	1345.543	1025.229
41.140	14.689	1344.052	1023.811
42.155	14.614	1343.502	1022.843
43.169	14.422	1344.008	1021.962
44.184	14.460	1343.272	1021.545
45.199	14.521	1342.987	1021.611
46.213	14.615	1342.102	1021.419
47.228	14.696	1341.578	1021.424
48.242	14.804	1339.796	1020.636
49.257	14.662	1338.610	1018.777
50.271	14.750	1337.298	1018.225
51.286	14.824	1335.630	1017.319
52.301	14.668	1334.481	1015.404
53.315	14.703	1333.463	1014.752
54.330	14.589	1332.258	1013.054
55.344	14.576	1331.060	1011.974
56.359	14.595	1330.292	1011.414
57.374	14.542	1329.739	1010.583
58.388	14.506	1328.979	1009.698
59.403	14.492	1327.844	1008.662
60.417	14.497	1327.095	1008.037
61.432	14.410	1326.834	1007.221
62.447	14.430	1325.379	1006.148
63.461	14.355	1324.562	1004.987
64.476	14.466	1323.023	1004.396
65.490	14.276	1322.202	1002.542
66.505	14.430	1320.379	1001.998
67.520	14.397	1319.797	1001.267
68.534	14.364	1318.538	1000.026
69.549	14.421	1317.404	999.419
70.563	14.338	1316.795	998.373
71.578	14.378	1315.317	997.403
72.593	14.265	1314.058	995.682
73.607	14.319	1313.513	995.507
74.622	14.275	1312.731	994.559
75.636	14.311	1312.072	994.191
76.651	14.324	1311.478	993.727
77.666	14.265	1311.010	992.933
78.680	14.325	1310.298	992.666
79.695	14.390	1309.970	992.716
80.709	14.372	1309.483	992.154
81.724	14.540	1307.987	991.933
82.739	14.616	1307.391	991.840
83.753	14.576	1306.489	990.835
84.768	14.707	1305.439	990.725
85.782	14.796	1304.272	990.280
86.797	14.730	1303.526	989.237
87.812	14.758	1301.854	988.044
88.826	14.733	1300.843	987.043
89.841	14.771	1299.919	986.479
90.855	14.746	1299.187	985.688
91.870	14.776	1298.182	985.017
92.884	14.799	1297.079	984.227
93.899	14.859	1296.335	983.926
94.914	14.940	1295.363	983.578
95.928	14.750	1295.151	982.215
96.943	14.782	1293.967	981.419
97.957	14.752	1292.933	980.368
98.972	14.735	1291.982	979.461
99.987	14.772	1290.943	978.803
101.001	14.778	1289.790	977.879
102.016	14.880	1288.619	977.499
103.030	14.820	1288.056	976.637
104.045	14.850	1286.909	975.855
105.060	14.799	1285.703	974.561
106.074	14.645	1284.368	972.560
107.089	14.592	1283.191	971.280
108.103	14.478	1281.671	969.380
109.118	14.487	1280.488	968.452
110.133	14.453	1279.412	967.355
111.147	14.526	1278.042	966.653
112.162	14.419	1276.687	964.926
113.176	14.531	1275.883	964.882
114.191	14.587	1274.667	964.196
115.206	14.687	1273.330	963.680
116.220	14.630	1272.246	962.444
117.235	14.600	1271.080	961.304
118.249	14.533	1270.582	960.456
119.264	14.469	1269.266	959.009
120.279	14.562	1268.123	958.596
121.293	14.611	1267.215	958.104
122.308	14.472	1266.077	956.362
123.322	14.321	1265.376	954.885
124.337	14.495	1263.714	954.543
125.352	14.428	1262.645	953.263
126.366	14.486	1261.370	952.552
127.381	14.353	1260.834	951.299
128.395	14.404	1259.910	950.813
129.410	14.497	1258.467	950.166
130.424	14.470	1257.843	949.461
131.439	14.505	1256.812	948.797
132.454	14.641	1255.983	948.861
133.468	14.694	1255.029	948.357
134.483	14.691	1254.191	947.623
135.497	14.633	1253.720	946.851
136.512	14.534	1252.629	945.386
137.527	14.833	1250.151	945.122
138.541	14.692	1248.972	943.352
139.556	14.656	1248.069	942.380
140.570	14.671	1247.213	941.735
141.585	14.708	1246.427	941.270
142.600	14.780	1244.973	940.490
143.614	14.972	1243.771	940.580
144.629	14.955	1242.827	939.688
145.643	14.874	1241.988	938.514
146.658	14.804	1240.721	937.083
147.673	14.693	1239.535	935.483
148.687	14.719	1238.028	934.407
149.702	14.662	1236.805	933.084
150.716	14.650	1235.711	932.108
151.731	14.622	1234.474	930.938
152.746	14.667	1233.576	930.430
153.760	14.669	1232.233	929.342
154.775	14.773	1231.285	929.122
155.789	14.796	1230.677	928.712
156.804	14.818	1229.463	927.838
157.819	14.833	1228.453	927.071
158.833	14.921	1227.466	926.734
159.848	14.929	1227.000	926.348
160.862	14.953	1225.510	925.273
161.877	14.831	1224.500	923.750
162.892	14.748	1223.344	922.342
163.906	14.804	1222.337	921.811
164.921	14.725	1221.688	920.801
165.935	14.868	1220.321	920.476
166.950	14.822	1219.903	919.828
167.964	14.793	1219.513	919.293
168.979	14.821	1218.385	918.515
169.994	14.886	1217.712	918.282
171.008	14.913	1216.871	917.717
172.023	14.972	1215.827	917.172
173.037	14.992	1215.682	917.090
174.052	15.049	1214.227	916.223
175.067	14.910	1213.131	914.555
176.081	14.896	1211.706	913.324
177.096	14.894	1211.150	912.814
178.110	14.873	1209.954	911.715
179.125	14.933	1208.907	911.171
180.140	14.955	1207.780	910.361
181.154	15.011	1206.931	909.946
182.169	15.069	1205.134	908.827
183.183	15.019	1204.465	907.973
184.198	15.159	1202.728	907.338
185.213	15.156	1202.040	906.723
186.227	15.265	1200.728	906.246
187.242	15.181	1199.658	904.899
188.256	15.194	1199.167	904.521
189.271	15.085	1198.059	903.016
190.286	15.085	1197.318	902.379
191.300	14.991	1196.002	900.804
192.315	14.843	1195.320	899.411
193.329	14.852	1194.791	898.983
194.344	14.893	1194.422	898.844
195.359	15.124	1193.624	899.407
196.373	15.154	1193.380	899.303
197.388	15.103	1193.136	898.767
198.402	15.391	1192.539	899.781
199.417	15.370	1191.840	899.065
200.432	15.438	1190.731	898.510
201.446	15.581	1189.700	898.420
202.461	15.450	1189.342	897.368
203.475	15.450	1188.009	896.283
204.490	15.484	1186.415	895.184
205.504	15.365	1185.198	893.550
206.519	15.339	1184.597	892.880
207.534	15.337	1183.307	891.818
208.548	15.284	1182.538	890.877
209.563	15.389	1181.579	890.635
210.577	15.461	1180.557	890.166
211.592	15.512	1179.780	889.771
212.607	15.545	1178.945	889.241
213.621	15.558	1178.442	888.849
214.636	15.484	1177.476	887.651
215.650	15.562	1176.380	887.157
216.665	15.506	1175.878	886.405
217.680	15.569	1175.161	886.120
218.694	15.483	1174.309	884.947
219.709	15.638	1173.070	884.748
220.723	15.554	1172.478	883.785
221.738	15.591	1171.492	883.153
222.753	15.566	1171.181	882.711
223.767	15.678	1170.108	882.414
224.782	15.751	1169.353	882.150
225.796	15.786	1168.639	881.716
226.811	15.723	1168.223	880.992
227.826	15.646	1167.636	880.071
228.840	15.745	1166.643	879.760
229.855	15.690	1166.047	878.945
230.869	15.722	1164.806	878.100
231.884	15.686	1164.524	877.621
232.899	15.665	1163.377	876.571
233.913	15.578	1162.892	875.676
234.928	15.679	1162.099	875.524
235.942	15.685	1161.237	874.828
236.957	15.634	1160.829	874.178
237.972	15.627	1159.806	873.293
238.986	15.542	1159.472	872.525
240.001	15.649	1158.820	872.513
241.015	15.689	1157.516	871.660
242.030	15.659	1156.873	870.942
243.045	15.703	1156.520	870.831
244.059	15.863	1155.443	870.770
245.074	15.737	1154.685	869.472
246.088	15.897	1154.012	869.711
247.103	15.931	1152.945	869.004
248.117	15.832	1152.827	868.328
249.132	16.079	1152.192	869.047
250.147	16.200	1151.302	868.925
251.161	16.262	1150.085	868.247
252.176	16.273	1149.573	867.838
253.190	16.244	1149.298	867.404
254.205	16.256	1148.724	866.957
255.220	16.372	1148.323	867.176
256.234	16.321	1147.304	866.066
257.249	16.305	1146.724	865.471
258.263	16.224	1146.147	864.542
259.278	16.244	1145.456	864.045
260.293	16.279	1144.853	863.696
261.307	16.337	1144.162	863.393
262.322	16.398	1143.568	863.180
263.336	16.446	1142.668	862.672
264.351	16.485	1141.791	862.133
265.366	16.570	1141.324	862.138
266.380	16.389	1140.772	860.720
267.395	16.426	1140.055	860.293
268.409	16.326	1138.924	858.851
269.424	16.413	1138.450	858.863
270.439	16.493	1137.691	858.621
271.453	16.336	1136.986	857.216
272.468	16.400	1135.659	856.464
273.482	16.319	1135.549	855.894
274.497	16.335	1134.912	855.420
275.512	16.309	1134.376	854.806
276.526	16.489	1133.292	854.826
277.541	16.419	1132.735	853.974
278.555	16.440	1131.965	853.424
279.570	16.581	1131.312	853.567
280.585	16.599	1130.557	853.015
281.599	16.588	1129.713	852.248
282.614	16.683	1128.133	851.459
283.628	16.639	1127.321	850.547
284.643	16.579	1126.590	849.620
285.657	16.451	1125.974	848.441
286.672	16.578	1124.899	848.188
287.687	16.597	1124.362	847.805
288.701	16.596	1123.510	847.082
289.716	16.656	1122.710	846.704
290.730	16.655	1121.862	845.985
291.745	16.665	1121.378	845.596
292.760	16.720	1120.463	845.105
293.774	16.771	1120.193	845.082
294.789	16.837	1119.108	844.518
295.803	16.671	1118.900	843.458
296.818	16.705	1118.491	843.244
297.833	16.670	1117.738	842.427
298.847	16.755	1116.498	841.840
299.862	16.748	1115.687	841.119
300.876	16.871	1115.287	841.353
301.891	16.869	1114.398	840.602
302.906	16.997	1113.604	840.562
303.920	16.997	1113.104	840.110
304.935	17.076	1112.535	839.994
305.949	16.902	1112.489	839.028
306.964	16.954	1111.634	838.562
307.979	17.022	1110.356	837.859
308.993	16.965	1109.706	837.014
310.008	17.053	1108.994	836.841
311.022	17.173	1107.764	836.426
312.037	17.084	1107.148	835.452
313.052	17.045	1106.095	834.390
314.066	17.026	1105.531	833.799
315.081	16.856	1104.539	832.143
316.095	16.907	1103.748	831.724
317.110	16.919	1103.326	831.390
318.125	16.926	1102.480	830.714
319.139	16.875	1101.828	829.898
320.154	16.936	1101.213	829.662
321.168	16.880	1100.871	829.055
322.183	17.057	1100.063	829.238
323.197	17.024	1099.693	828.723
324.212	17.068	1098.756	828.161
325.227	17.055	1098.134	827.556
326.241	17.082	1097.551	827.171
327.256	16.992	1096.844	826.129
328.270	16.986	1096.005	825.395
329.285	17.061	1095.189	825.073
330.300	17.037	1093.952	823.950
331.314	17.063	1092.885	823.201
332.329	17.040	1092.073	822.403
333.343	17.126	1091.055	821.982
334.358	17.207	1090.738	822.062
335.373	17.281	1089.818	821.651
336.387	17.234	1089.266	820.937
337.402	17.313	1088.394	820.587
338.416	17.302	1087.675	819.922
339.431	17.292	1087.586	819.732
340.446	17.394	1086.709	819.492
341.460	17.562	1085.864	819.587
342.475	17.504	1085.038	818.617
343.489	17.517	1084.142	817.928
344.504	17.678	1083.069	817.819
345.519	17.569	1082.469	816.772
346.533	17.687	1081.608	816.614
347.548	17.621	1081.008	815.775
348.562	17.664	1080.521	815.539
349.577	17.510	1079.808	814.190
350.592	17.448	1078.903	813.142
351.606	17.500	1077.740	812.444
352.621	17.425	1077.114	811.540
353.635	17.369	1077.019	811.127
354.650	17.483	1075.970	810.810
355.665	17.489	1075.288	810.255
356.679	17.563	1074.914	810.253
357.694	17.588	1074.130	809.709
358.708	17.572	1073.443	809.043
359.723	17.607	1072.761	808.622
360.738	17.678	1072.016	808.329
361.752	17.589	1071.637	807.548
362.767	17.657	1070.871	807.223
363.781	17.638	1070.325	806.649
364.796	17.672	1070.275	806.701
365.810	17.820	1069.303	806.596
366.825	17.884	1068.806	806.452
367.840	17.869	1068.134	805.805
368.854	18.027	1067.449	805.962
369.869	17.922	1066.978	805.039
370.883	17.855	1066.121	804.005
371.898	17.878	1065.264	803.393
372.913	17.953	1064.364	802.999
373.927	17.989	1064.105	802.900
374.942	18.103	1063.512	802.918
375.956	17.988	1063.171	802.049
376.971	17.971	1062.660	801.514
377.986	18.170	1061.740	801.679
379.000	18.151	1061.317	801.204
380.015	18.161	1060.957	800.907
381.029	18.165	1060.211	800.289
382.044	18.143	1059.900	799.882
383.059	18.289	1058.477	799.418
384.073	18.141	1058.135	798.399
385.088	18.146	1057.071	797.548
386.102	18.255	1056.128	797.275
387.117	18.162	1055.393	796.217
388.132	17.962	1054.598	794.616
389.146	18.078	1053.343	794.138
390.161	18.056	1052.778	793.543
391.175	18.057	1052.383	793.179
392.190	18.096	1051.599	792.695
393.205	18.214	1050.523	792.361
394.219	18.293	1049.833	792.137
395.234	18.135	1049.211	790.868
396.248	18.179	1047.941	790.042
397.263	18.056	1046.990	788.688
398.278	18.056	1046.774	788.457
399.292	18.251	1045.882	788.615
400.307	18.074	1045.064	787.112
401.321	18.113	1044.090	786.489
402.336	18.060	1044.104	786.185
403.350	18.189	1042.610	785.585
404.365	18.245	1042.180	785.447
405.380	18.234	1041.552	784.852
406.394	18.269	1040.866	784.427
407.409	18.312	1039.873	783.809
408.423	18.383	1039.380	783.691
409.438	18.396	1039.266	783.594
410.453	18.515	1038.697	783.641
411.467	18.559	1037.799	783.093
412.482	18.484	1037.315	782.320
413.496	18.604	1036.006	781.809
414.511	18.663	1035.880	781.914
415.526	18.679	1035.273	781.457
416.540	18.661	1034.841	780.983
417.555	18.706	1034.495	780.855
418.569	18.719	1033.246	779.902
419.584	18.783	1032.802	779.791
420.599	18.696	1032.959	779.446
421.613	150.767	1401.880	1796.505
422.628	137.618	1455.606	1796.595
