DTS Sentinel unit serial number:	SN413079Multiplexer serial number:	ORYXHardware model number:	OX4-SRSoftware version number:	ORYX F/W v4.00 Oryx Data Collector v3.7.2.0data status	okinstallation	princeton_trtdifferential loss correction	single-endedforward channel	channel 2reverse channel	N/Adate	2019/09/12time	09:37:11forward acquisition time	60.00reverse acquisition time	0.00gamma	496.2192k internal	0.2314k external	0.2314temperature offset calibration	1.0065default loss term (dB/km)	0.3790temperature slope calibration	1.0000multiplexer offset coefficient	1.0000multiplexer slope coefficient	1.0000fibre end	0.00T internal ref (°C)	35.69T ext. ref 1 (°C)	1.82T ext. ref 2 (°C)	32.54length (m)	temperature (°C)	Stokes	anti-Stokes-747.200	-164.284	0.197	-0.009
-746.185	172.604	-0.107	0.156
-745.171	-200.000	-0.011	0.092
-744.156	-102.641	0.158	-0.038
-743.142	227.906	-0.239	-0.394
-742.127	800.000	0.059	0.209
-741.112	800.000	0.094	0.281
-740.098	416.629	0.121	0.262
-739.083	179.011	0.138	-0.205
-738.069	-72.045	-0.342	0.129
-737.054	800.000	-0.034	0.096
-736.039	-200.000	0.088	-0.407
-735.025	30.518	-0.057	0.050
-734.010	459.671	0.045	0.101
-732.996	-19.036	-0.201	0.126
-731.981	-56.887	0.254	0.114
-730.966	-40.576	0.137	0.072
-729.952	-54.396	-0.236	-0.108
-728.937	-67.164	-0.299	-0.120
-727.923	-36.087	-0.277	0.152
-726.908	-20.681	-0.271	0.169
-725.894	38.548	-0.213	-0.192
-724.879	609.855	-0.046	0.116
-723.864	34.237	-0.136	0.120
-722.850	-200.000	0.011	0.294
-721.835	117.630	-0.016	0.020
-720.821	465.837	-0.108	-0.244
-719.806	109.236	0.038	0.046
-718.791	-200.000	-0.123	-0.637
-717.777	800.000	-0.035	-0.127
-716.762	93.197	-0.365	-0.418
-715.748	14.172	0.190	-0.150
-714.733	-55.896	-0.150	0.068
-713.718	-38.116	0.308	-0.165
-712.704	-111.571	-0.139	-0.029
-711.689	159.439	-0.083	-0.116
-710.675	-156.851	-0.135	-0.008
-709.660	-134.818	0.284	0.035
-708.645	-200.000	-0.032	-0.234
-707.631	314.672	-0.189	0.361
-706.616	-32.761	0.062	-0.035
-705.602	-114.713	0.126	0.024
-704.587	71.645	-0.211	0.222
-703.572	373.574	0.083	-0.172
-702.558	-83.740	-0.297	-0.096
-701.543	-43.313	-0.205	-0.105
-700.529	-28.997	-0.252	-0.147
-699.514	406.940	-0.030	0.064
-698.499	800.000	0.086	0.275
-697.485	-200.000	0.012	-0.146
-696.470	-200.000	0.010	-0.109
-695.456	428.210	-0.199	-0.435
-694.441	-44.842	0.109	0.055
-693.426	-35.355	0.350	-0.193
-692.412	160.213	-0.065	-0.092
-691.397	-16.687	-0.337	0.216
-690.383	194.312	-0.115	-0.176
-689.368	54.837	-0.329	-0.321
-688.354	94.884	0.158	-0.182
-687.339	-25.240	-0.288	0.172
-686.324	-32.271	0.099	-0.056
-685.310	-200.000	-0.021	0.161
-684.295	255.886	-0.219	-0.380
-683.281	-172.278	-0.195	-0.006
-682.266	800.000	0.116	-0.445
-681.251	-76.789	-0.162	-0.057
-680.237	-8.613	0.055	0.038
-679.222	145.613	0.248	-0.336
-678.208	211.784	0.183	-0.291
-677.193	800.000	0.077	0.291
-676.178	699.966	0.105	0.279
-675.164	16.914	0.192	-0.154
-674.149	179.977	-0.127	0.188
-673.135	443.717	-0.063	0.140
-672.120	-118.075	0.010	-0.002
-671.105	71.275	-0.166	-0.174
-670.091	-9.612	0.036	-0.024
-669.076	438.952	-0.107	-0.237
-668.062	-102.344	-0.357	-0.086
-667.047	508.697	0.061	-0.143
-666.032	1.797	-0.093	0.068
-665.018	751.884	0.154	0.420
-664.003	-84.657	-0.170	-0.054
-662.989	-130.642	0.050	0.007
-661.974	-13.771	0.090	-0.059
-660.959	39.898	0.111	-0.100
-659.945	-71.817	0.150	-0.057
-658.930	800.000	0.052	0.186
-657.916	-200.000	-0.047	0.349
-656.901	-200.000	0.055	-0.270
-655.886	65.353	0.174	-0.178
-654.872	-200.000	0.032	-0.264
-653.857	-171.612	-0.157	0.005
-652.843	-73.748	0.083	0.031
-651.828	0.190	-0.054	-0.039
-650.814	-116.654	0.170	0.032
-649.799	50.779	-0.065	-0.063
-648.784	79.852	0.157	-0.170
-647.770	-200.000	-0.005	-0.152
-646.755	791.139	-0.068	-0.190
-645.741	137.586	0.151	-0.199
-644.726	-150.381	-0.121	0.009
-643.711	800.000	-0.058	-0.187
-642.697	-100.100	0.024	0.006
-641.682	-62.812	-0.083	0.035
-640.668	2.249	-0.110	-0.080
-639.653	10.713	-0.232	0.179
-638.638	634.002	-0.078	-0.200
-637.624	-200.000	-0.013	-0.080
-636.609	80.011	-0.018	-0.020
-635.595	-200.000	0.019	0.171
-634.580	800.000	-0.089	0.303
-633.565	-127.721	0.094	-0.014
-632.551	-200.000	-0.042	0.217
-631.536	800.000	0.008	0.029
-630.522	-200.000	-0.037	0.335
-629.507	200.490	0.086	0.134
-628.492	-200.000	-0.022	0.158
-627.478	-200.000	-0.010	-0.105
-626.463	-75.101	-0.137	-0.049
-625.449	800.000	-0.033	-0.103
-624.434	-132.006	-0.119	0.016
-623.419	52.924	0.159	-0.153
-622.405	-200.000	-0.005	-0.186
-621.390	121.929	0.188	0.236
-620.376	-200.000	0.006	0.217
-619.361	529.271	-0.048	-0.114
-618.346	-71.480	0.219	-0.083
-617.332	-25.158	-0.129	0.077
-616.317	40.484	-0.296	0.269
-615.303	-200.000	0.002	-0.128
-614.288	4.425	0.119	0.088
-613.273	-63.511	-0.157	-0.065
-612.259	-191.942	-0.356	-0.003
-611.244	-200.000	0.007	-0.190
-610.230	-46.838	-0.037	0.018
-609.215	369.763	-0.047	0.096
-608.201	33.208	0.072	-0.063
-607.186	-125.819	0.319	-0.049
-606.171	82.877	-0.107	0.117
-605.157	144.169	-0.127	-0.171
-604.142	9.072	0.154	-0.117
-603.128	220.221	0.039	-0.063
-602.113	439.179	-0.076	-0.168
-601.098	375.176	-0.078	-0.161
-600.084	-200.000	0.039	-0.392
-599.069	180.694	-0.153	-0.226
-598.055	-13.432	-0.182	0.119
-597.040	-68.938	-0.239	-0.093
-596.025	-101.922	0.241	-0.059
-595.011	186.505	0.109	-0.164
-593.996	188.230	0.126	0.189
-592.982	-63.052	-0.411	0.171
-591.967	179.712	-0.179	0.264
-590.952	-73.188	0.159	-0.059
-589.938	106.775	0.161	0.193
-588.923	-90.413	-0.125	0.037
-587.909	-101.521	-0.131	0.032
-586.894	-200.000	-0.001	-0.148
-585.879	800.000	-0.080	-0.269
-584.865	-62.925	-0.296	0.123
-583.850	800.000	-0.034	-0.143
-582.836	196.068	-0.110	-0.168
-581.821	146.046	-0.066	-0.089
-580.806	-146.380	0.123	-0.011
-579.792	-183.420	0.071	0.001
-578.777	800.000	-0.037	0.159
-577.763	12.295	-0.269	0.209
-576.748	-200.000	0.008	-0.312
-575.733	-184.689	0.068	0.001
-574.719	800.000	-0.096	0.388
-573.704	227.389	-0.072	0.118
-572.690	800.000	-0.031	0.134
-571.675	-200.000	0.043	-0.420
-570.661	145.667	-0.141	0.191
-569.646	-131.229	0.140	-0.019
-568.631	214.828	-0.142	-0.226
-567.617	-200.000	0.018	-0.149
-566.602	800.000	0.062	0.200
-565.588	-117.600	-0.266	0.048
-564.573	800.000	0.128	0.434
-563.558	76.133	0.215	-0.229
-562.544	-96.865	0.227	-0.060
-561.529	-31.820	-0.311	0.176
-560.515	145.670	0.168	0.226
-559.500	-147.072	-0.182	0.016
-558.485	327.682	0.200	-0.386
-557.471	-80.696	0.374	-0.125
-556.456	800.000	-0.046	-0.149
-555.442	-0.579	0.129	-0.092
-554.427	-32.411	0.097	-0.055
-553.412	-200.000	-0.047	0.296
-552.398	130.860	0.255	0.329
-551.383	264.260	-0.127	0.223
-550.369	-30.642	0.075	0.043
-549.354	108.683	-0.303	-0.364
-548.339	800.000	-0.136	0.435
-547.325	92.032	-0.278	0.315
-546.310	-59.949	-0.253	0.109
-545.296	-55.293	-0.145	0.066
-544.281	-13.984	-0.038	0.025
-543.266	-95.272	-0.168	-0.045
-542.252	-121.946	-0.203	0.034
-541.237	800.000	-0.085	-0.288
-540.223	-144.947	-0.112	0.010
-539.208	4.621	-0.168	0.124
-538.193	23.476	-0.060	0.049
-537.179	-107.350	-0.362	0.080
-536.164	480.617	0.050	-0.114
-535.150	-200.000	-0.004	-0.197
-534.135	-29.208	0.211	-0.121
-533.121	106.035	0.096	-0.114
-532.106	-70.744	-0.313	-0.119
-531.091	-44.851	-0.123	-0.062
-530.077	-45.306	-0.172	0.086
-529.062	800.000	-0.070	0.247
-528.048	128.351	0.214	0.274
-527.033	-0.232	0.084	0.060
-526.018	376.203	-0.077	0.157
-525.004	99.501	-0.188	-0.219
-523.989	619.192	-0.102	-0.258
-522.975	39.977	-0.050	0.045
-521.960	-72.045	0.025	-0.009
-520.945	150.530	-0.072	-0.098
-519.931	27.393	-0.098	-0.082
-518.916	-111.049	0.116	-0.024
-517.902	561.125	-0.201	0.489
-516.887	166.267	-0.278	0.395
-515.872	-139.848	0.094	0.010
-514.858	-28.803	0.210	-0.122
-513.843	93.700	-0.088	0.101
-512.829	-135.942	0.092	0.011
-511.814	165.764	-0.005	0.007
-510.799	-49.725	-0.071	0.034
-509.785	100.912	0.287	-0.335
-508.770	-42.876	0.330	0.169
-507.756	-200.000	0.089	-0.517
-506.741	-82.003	0.229	-0.075
-505.726	800.000	0.028	0.103
-504.712	117.909	0.039	-0.048
-503.697	-18.982	-0.154	0.096
-502.683	-137.996	0.409	0.046
-501.668	-10.670	-0.120	-0.080
-500.653	-106.484	-0.371	0.083
-499.639	-167.308	0.252	-0.010
-498.624	-95.964	0.419	0.112
-497.610	800.000	0.076	0.277
-496.595	-91.487	0.246	-0.070
-495.581	262.314	0.145	-0.252
-494.566	71.520	-0.043	0.044
-493.551	476.776	0.009	0.020
-492.537	-200.000	0.005	-0.287
-491.522	11.077	-0.194	-0.149
-490.508	-200.000	-0.022	-0.262
-489.493	-76.124	-0.187	-0.066
-488.478	-108.261	-0.103	-0.022
-487.464	568.463	0.054	0.131
-486.449	800.000	0.093	-0.274
-485.435	-8.936	-0.204	0.137
-484.420	181.470	0.059	-0.087
-483.405	-157.005	-0.455	0.028
-482.391	-9.584	-0.227	0.152
-481.376	-200.000	-0.026	-0.173
-480.362	-200.000	-0.018	-0.360
-479.347	238.269	-0.363	-0.604
-478.332	-84.647	-0.294	-0.093
-477.318	800.000	0.122	0.482
-476.303	88.735	-0.170	0.189
-475.289	-24.390	0.034	-0.021
-474.274	-85.936	0.179	0.056
-473.259	415.421	0.095	0.203
-472.245	800.000	-0.032	-0.140
-471.230	334.662	-0.049	-0.096
-470.216	800.000	0.007	0.026
-469.201	-200.000	-0.016	-0.222
-468.186	-110.283	-0.508	0.106
-467.172	-83.439	-0.187	-0.060
-466.157	-100.201	-0.245	0.061
-465.143	-200.000	-0.013	-0.196
-464.128	-89.562	0.270	0.079
-463.113	706.632	0.087	-0.231
-462.099	182.634	-0.206	0.305
-461.084	313.255	-0.200	-0.376
-460.070	-200.000	-0.002	0.285
-459.055	-39.098	-0.370	-0.195
-458.040	241.432	0.120	-0.201
-457.026	183.506	0.087	0.129
-456.011	21.655	0.306	0.250
-454.997	-197.834	-0.116	-0.001
-453.982	-102.732	0.182	0.044
-452.968	343.612	-0.038	-0.075
-451.953	-200.000	-0.035	-0.481
-450.938	-2.933	0.095	0.066
-449.924	188.092	-0.024	0.036
-448.909	317.915	-0.100	-0.190
-447.895	-200.000	-0.056	-0.249
-446.880	166.671	0.175	-0.249
-445.865	-60.289	0.123	-0.052
-444.851	-118.215	-0.201	0.036
-443.836	-160.611	-0.118	-0.006
-442.822	94.856	-0.061	0.069
-441.807	151.282	-0.081	0.110
-440.792	-84.498	0.195	0.062
-439.778	30.582	-0.073	0.063
-438.763	65.377	-0.209	-0.212
-437.749	-185.639	0.200	0.003
-436.734	-30.662	0.038	-0.022
-435.719	-14.273	-0.307	-0.198
-434.705	97.980	-0.212	-0.244
-433.690	501.693	-0.128	0.297
-432.676	-200.000	0.026	-0.258
-431.661	170.930	-0.260	0.373
-430.646	-200.000	-0.066	0.406
-429.632	-170.988	-0.250	0.009
-428.617	-200.000	-0.019	-0.111
-427.603	7.627	0.126	0.094
-426.588	23.358	0.082	0.067
-425.573	-54.075	0.514	-0.234
-424.559	77.025	-0.166	-0.176
-423.544	-200.000	-0.083	-0.534
-422.530	112.528	-0.137	-0.166
-421.515	-145.157	0.117	-0.011
-420.500	-112.790	-0.195	0.039
-419.486	39.822	0.342	-0.307
-418.471	-200.000	0.004	-0.075
-417.457	-10.622	-0.136	-0.090
-416.442	-60.347	0.394	0.168
-415.428	73.095	-0.233	-0.244
-414.413	-24.644	0.147	-0.088
-413.398	-48.092	-0.117	-0.057
-412.384	110.213	-0.309	0.371
-411.369	-85.712	0.261	-0.081
-410.355	-200.000	0.018	-0.234
-409.340	209.996	0.170	0.267
-408.325	42.678	-0.083	0.075
-407.311	152.406	0.097	-0.132
-406.296	800.000	-0.065	-0.255
-405.282	79.070	-0.092	-0.099
-404.267	-119.596	0.240	-0.041
-403.252	522.594	0.112	0.263
-402.238	215.222	0.070	-0.111
-401.223	-11.473	0.309	-0.203
-400.209	236.704	-0.114	0.189
-399.194	-95.931	-0.123	0.033
-398.179	0.996	-0.129	0.093
-397.165	85.028	-0.124	-0.136
-396.150	-200.000	0.010	0.155
-395.136	-81.214	-0.152	-0.050
-394.121	108.659	0.152	-0.181
-393.106	-42.841	0.047	0.024
-392.092	68.349	-0.105	0.107
-391.077	-150.018	0.323	-0.025
-390.063	-98.149	0.094	0.024
-389.048	-118.272	0.431	0.077
-388.033	-137.007	-0.177	-0.020
-387.019	-115.418	-0.080	0.015
-386.004	262.789	0.113	-0.197
-384.990	-120.571	0.247	-0.042
-383.975	800.000	-0.059	0.243
-382.960	-63.839	0.156	0.064
-381.946	106.800	0.043	0.051
-380.931	-114.191	0.309	0.060
-379.917	-82.433	-0.191	-0.062
-378.902	-26.890	0.088	0.051
-377.888	321.174	-0.196	0.373
-376.873	-104.257	-0.290	0.067
-375.858	18.770	-0.202	0.162
-374.844	142.594	0.058	-0.077
-373.829	688.642	0.157	-0.411
-372.815	-25.813	0.209	-0.123
-371.800	103.960	0.197	-0.232
-370.785	-200.000	0.005	0.210
-369.771	800.000	-0.092	0.396
-368.756	-58.717	0.014	0.006
-367.742	800.000	0.047	0.179
-366.727	800.000	-0.088	0.249
-365.712	-48.030	-0.214	0.103
-364.698	46.000	-0.068	0.063
-363.683	-147.003	0.193	0.017
-362.669	-93.578	0.108	0.030
-361.654	-53.593	-0.117	-0.053
-360.639	-200.000	0.038	-0.396
-359.625	25.711	0.310	-0.258
-358.610	17.096	-0.161	0.128
-357.596	15.558	-0.197	0.154
-356.581	-106.538	0.288	0.064
-355.566	741.262	-0.050	-0.133
-354.552	-27.776	-0.228	-0.132
-353.537	-178.793	0.109	-0.002
-352.523	-200.000	0.023	0.122
-351.508	-18.132	0.216	-0.135
-350.493	-200.000	0.009	-0.049
-349.479	-33.891	-0.062	-0.034
-348.464	800.000	-0.062	0.246
-347.450	476.608	0.034	-0.077
-346.435	275.218	0.093	-0.164
-345.420	131.140	0.184	0.235
-344.406	800.000	-0.069	0.194
-343.391	2.670	-0.137	0.099
-342.377	42.038	0.221	0.200
-341.362	-62.500	-0.138	-0.057
-340.348	380.448	0.109	0.223
-339.333	-200.000	-0.054	0.288
-338.318	242.634	0.153	0.255
-337.304	25.664	-0.187	0.155
-336.289	-24.139	-0.201	-0.120
-335.275	39.405	-0.217	0.194
-334.260	-102.768	-0.220	-0.052
-333.245	782.071	0.075	-0.205
-332.231	-151.410	0.189	-0.014
-331.216	4.776	-0.107	-0.078
-330.202	-200.000	0.057	0.266
-329.187	-78.810	0.203	0.069
-328.172	209.914	0.118	-0.185
-327.158	24.574	0.208	-0.172
-326.143	89.936	-0.157	-0.174
-325.129	-105.027	0.171	-0.039
-324.114	204.467	0.025	0.039
-323.099	800.000	0.031	0.104
-322.085	-22.259	0.052	0.031
-321.070	-129.936	0.260	0.035
-320.056	-43.586	-0.312	0.157
-319.041	-200.000	0.000	-0.028
-318.026	259.434	0.092	-0.158
-317.012	50.741	-0.155	0.146
-315.997	301.027	-0.061	-0.113
-314.983	-102.174	0.366	0.088
-313.968	64.340	0.064	0.065
-312.953	-74.430	0.112	-0.040
-311.939	800.000	-0.036	-0.104
-310.924	39.818	-0.160	0.143
-309.910	315.877	-0.069	-0.131
-308.895	299.791	0.146	-0.269
-307.880	-163.345	0.163	0.008
-306.866	276.415	-0.162	-0.287
-305.851	-200.000	-0.018	0.140
-304.837	-113.619	0.402	0.078
-303.822	-59.112	0.068	0.029
-302.807	42.075	-0.130	0.118
-301.793	-38.662	0.009	0.005
-300.778	-200.000	0.005	0.108
-299.764	800.000	0.021	-0.084
-298.749	800.000	0.102	0.414
-297.735	96.511	-0.236	0.269
-296.720	-91.910	0.188	0.053
-295.705	9.947	0.157	0.118
-294.691	-97.684	0.133	-0.034
-293.676	473.460	-0.045	-0.101
-292.662	-38.284	0.066	-0.035
-291.647	24.493	-0.116	-0.095
-290.632	-76.408	0.089	0.031
-289.618	-200.000	-0.019	0.089
-288.603	-143.886	-0.259	-0.024
-287.589	-159.327	0.150	0.008
-286.574	-200.000	-0.029	0.147
-285.559	221.691	-0.283	0.453
-284.545	62.236	0.166	-0.165
-283.530	800.000	0.122	-0.350
-282.516	194.580	-0.072	-0.109
-281.501	560.233	0.140	-0.337
-280.486	66.162	0.300	0.303
-279.472	47.648	0.125	-0.116
-278.457	-94.383	0.178	0.048
-277.443	-128.724	0.347	-0.049
-276.428	-36.435	0.479	0.257
-275.413	-62.449	-0.154	0.064
-274.399	-200.000	0.230	-0.001
-273.384	63.318	0.283	-0.282
-272.370	-200.000	-0.025	0.375
-271.355	-74.522	-0.424	0.152
-270.340	-200.000	-0.080	-0.439
-269.326	-116.599	-0.230	0.042
-268.311	4.047	-0.160	0.116
-267.297	-0.452	0.065	0.046
-266.282	-73.144	0.308	-0.112
-265.267	-128.555	0.129	0.018
-264.253	-53.801	0.353	0.160
-263.238	727.810	0.146	-0.387
-262.224	-200.000	0.005	-0.141
-261.209	-200.000	0.035	-0.160
-260.195	800.000	-0.029	-0.089
-259.180	386.559	0.129	0.264
-258.165	169.607	0.256	0.364
-257.151	-200.000	0.017	-0.189
-256.136	-200.000	-0.005	0.328
-255.122	-105.072	0.455	-0.103
-254.107	-142.033	0.287	0.028
-253.092	-34.689	0.068	-0.037
-252.078	-140.619	-0.139	0.014
-251.063	800.000	0.049	-0.156
-250.049	800.000	0.034	-0.131
-249.034	664.027	0.124	0.317
-248.019	434.041	-0.119	-0.257
-247.005	440.198	0.144	-0.312
-245.990	704.315	0.063	-0.165
-244.976	72.783	-0.131	-0.136
-243.961	57.521	-0.153	0.149
-242.946	-94.672	0.093	-0.025
-241.932	-56.771	0.213	0.094
-240.917	437.791	0.057	0.123
-239.903	-10.247	-0.179	-0.118
-238.888	5.081	0.024	-0.018
-237.873	290.593	0.110	-0.199
-236.859	-42.722	-0.189	-0.096
-235.844	800.000	0.048	-0.142
-234.830	97.740	-0.148	0.169
-233.815	800.000	-0.041	-0.123
-232.800	329.006	-0.215	-0.411
-231.786	-200.000	0.045	0.322
-230.771	800.000	-0.087	0.344
-229.757	246.543	0.170	-0.285
-228.742	328.502	0.015	0.028
-227.727	-140.781	-0.152	0.016
-226.713	-21.439	-0.166	0.101
-225.698	-53.060	0.305	-0.139
-224.684	59.146	-0.098	0.096
-223.669	-11.591	-0.357	0.233
-222.655	148.111	0.047	0.062
-221.640	-200.000	-0.028	0.319
-220.625	-69.210	0.114	0.043
-219.611	-200.000	-0.069	-0.329
-218.596	800.000	0.060	-0.237
-217.582	800.000	0.069	-0.214
-216.567	82.284	0.250	-0.269
-215.552	46.885	-0.263	0.243
-214.538	-43.951	-0.130	0.065
-213.523	-102.783	0.272	0.064
-212.509	-73.088	0.445	0.162
-211.494	511.517	0.076	-0.176
-210.479	101.761	-0.185	0.215
-209.465	-91.679	-0.136	0.038
-208.450	-200.000	0.049	0.230
-207.436	-7.842	0.082	0.055
-206.421	66.896	0.133	0.135
-205.406	81.166	0.182	0.195
-204.392	-14.376	-0.153	0.098
-203.377	217.119	0.149	0.235
-202.363	116.023	0.076	0.093
-201.348	800.000	0.033	-0.106
-200.333	70.462	0.131	-0.134
-199.319	-13.021	0.277	0.179
-198.304	100.935	0.042	0.049
-197.290	25.739	0.157	0.130
-196.275	-74.563	-0.453	-0.162
-195.260	93.177	0.252	0.283
-194.246	122.768	0.153	0.191
-193.231	-200.000	-0.031	0.255
-192.217	541.102	-0.099	0.234
-191.202	800.000	0.059	0.191
-190.187	69.930	0.100	0.102
-189.173	-200.000	-0.005	0.045
-188.158	800.000	-0.025	-0.102
-187.144	-200.000	-0.011	-0.145
-186.129	-169.105	-0.299	0.011
-185.114	30.361	-0.062	0.052
-184.100	-200.000	-0.027	-0.418
-183.085	800.000	0.070	0.208
-182.071	800.000	-0.050	0.189
-181.056	-29.268	0.128	-0.073
-180.042	130.805	0.418	0.531
-179.027	8.454	-0.151	-0.113
-178.012	-30.460	0.099	-0.056
-176.998	-200.000	-0.032	-0.392
-175.983	-200.000	-0.011	-0.206
-174.969	94.501	-0.045	0.051
-173.954	-49.575	-0.345	-0.163
-172.939	-200.000	0.011	0.269
-171.925	15.350	0.130	0.101
-170.910	-9.543	-0.135	0.089
-169.896	43.632	-0.173	-0.157
-168.881	520.716	0.077	-0.179
-167.866	-80.452	0.157	0.052
-166.852	-200.000	-0.000	-0.138
-165.837	-200.000	-0.015	0.279
-164.823	-180.798	-0.120	0.002
-163.808	-200.000	-0.028	-0.168
-162.793	-5.716	-0.239	-0.162
-161.779	-98.964	-0.285	-0.072
-160.764	800.000	-0.026	0.106
-159.750	-113.265	0.051	-0.010
-158.735	-90.197	-0.274	0.079
-157.720	-200.000	-0.008	0.104
-156.706	307.022	0.118	-0.218
-155.691	-95.155	0.261	0.070
-154.677	29.502	-0.118	-0.099
-153.662	-200.000	-0.011	0.418
-152.647	65.894	0.077	0.077
-151.633	-200.000	0.003	-0.206
-150.618	303.476	-0.049	0.090
-149.604	-75.212	0.326	0.115
-148.589	-85.758	-0.026	-0.008
-147.574	-81.061	0.256	-0.084
-146.560	24.984	0.088	-0.073
-145.545	800.000	0.013	-0.037
-144.531	-112.696	-0.146	-0.029
-143.516	224.252	0.136	0.218
-142.502	89.867	0.188	0.208
-141.487	-200.000	0.015	0.091
-140.472	-1.678	0.132	-0.092
-139.458	-200.000	-0.008	0.145
-138.443	-200.000	0.034	-0.150
-137.429	44.965	0.078	0.071
-136.414	158.914	0.216	0.297
-135.399	-156.378	0.229	0.014
-134.385	-109.719	-0.172	-0.036
-133.370	-116.781	0.327	0.059
-132.356	-52.371	-0.205	0.094
-131.341	131.113	-0.177	0.224
-130.326	-200.000	-0.037	0.263
-129.312	-80.910	0.191	-0.063
-128.297	-143.665	-0.248	-0.023
-127.283	800.000	-0.058	0.204
-126.268	800.000	-0.093	-0.281
-125.253	-140.825	0.095	0.010
-124.239	35.722	0.167	0.145
-123.224	-79.246	0.132	0.044
-122.210	-45.380	-0.179	-0.088
-121.195	150.389	-0.089	-0.120
-120.180	499.220	-0.059	-0.134
-119.166	149.186	-0.129	-0.173
-118.151	268.612	-0.096	0.166
-117.137	70.825	0.170	0.174
-116.122	-200.000	0.027	0.274
-115.107	58.857	0.204	0.199
-114.093	223.545	-0.058	0.092
-113.078	-200.000	-0.015	0.181
-112.064	-200.000	-0.015	-0.149
-111.049	-137.277	0.196	0.022
-110.034	-145.548	0.309	-0.027
-109.020	-52.179	-0.178	-0.082
-108.005	265.814	0.049	0.084
-106.991	-200.000	0.016	-0.231
-105.976	704.383	-0.076	-0.197
-104.962	-101.683	0.109	0.026
-103.947	35.931	0.122	0.106
-102.932	-156.814	0.082	-0.005
-101.918	57.005	0.290	-0.280
-100.903	284.034	-0.085	0.151
-99.889	-91.662	-0.377	-0.106
-98.874	276.999	-0.117	0.205
-97.859	-200.000	-0.038	0.179
-96.845	-81.107	-0.302	-0.099
-95.830	416.218	0.090	-0.190
-94.816	-80.995	0.083	-0.027
-93.801	-160.298	-0.230	-0.012
-92.786	-69.020	-0.183	0.070
-91.772	-78.248	0.253	-0.086
-90.757	186.895	-0.133	-0.195
-89.743	289.453	-0.176	-0.316
-88.728	-200.000	-0.028	-0.287
-87.713	-200.000	0.187	0.000
-86.699	-7.263	0.112	0.075
-85.684	-200.000	0.029	-0.230
-84.670	103.997	0.209	-0.242
-83.655	-79.389	0.275	-0.092
-82.640	800.000	0.052	-0.199
-81.626	-20.293	-0.279	0.170
-80.611	-200.000	0.053	0.233
-79.597	800.000	0.044	0.151
-78.582	-200.000	0.015	-0.172
-77.567	800.000	-0.052	-0.156
-76.553	-200.000	-0.044	0.321
-75.538	-200.000	-0.058	-0.406
-74.524	93.343	-0.221	-0.246
-73.509	46.374	-0.182	0.167
-72.494	-5.134	0.201	-0.136
-71.480	234.919	-0.089	-0.145
-70.465	55.984	-0.115	-0.110
-69.451	-113.973	-0.190	-0.036
-68.436	248.818	0.125	-0.209
-67.422	-200.000	-0.052	0.466
-66.407	-110.058	-0.330	0.068
-65.392	-200.000	-0.103	0.455
-64.378	-136.658	0.270	0.031
-63.363	-90.845	-0.213	-0.060
-62.349	295.475	0.116	0.210
-61.334	8.833	-0.803	-0.598
-60.319	168.545	0.302	0.425
-59.305	227.001	-0.709	-1.137
-58.290	99.488	0.574	0.656
-57.276	-200.000	0.351	1.869
-56.261	-200.000	90.932	530.732
-55.246	503.152	1385.731	3161.567
-54.232	149.539	2605.554	3482.307
-53.217	106.979	2323.230	2722.448
-52.203	44.949	1933.715	1756.672
-51.188	38.924	1719.401	1515.575
-50.173	36.048	1675.219	1454.901
-49.159	51.937	1720.450	1616.035
-48.144	55.476	1738.503	1659.990
-47.130	38.755	1695.978	1493.406
-46.115	35.705	1681.343	1457.383
-45.100	35.628	1675.947	1452.064
-44.086	35.452	1673.889	1448.898
-43.071	35.465	1670.799	1446.264
-42.057	35.565	1668.578	1445.038
-41.042	35.491	1666.806	1442.886
-40.027	35.562	1665.197	1441.970
-39.013	35.579	1662.699	1439.879
-37.998	35.567	1660.909	1438.182
-36.984	35.564	1660.059	1437.367
-35.969	35.629	1658.903	1436.791
-34.954	35.683	1657.136	1435.608
-33.940	35.649	1655.618	1433.985
-32.925	35.632	1653.757	1432.186
-31.911	35.743	1651.486	1430.987
-30.896	35.692	1649.618	1428.937
-29.881	35.608	1648.090	1426.930
-28.867	35.708	1645.982	1425.789
-27.852	35.671	1645.191	1424.775
-26.838	35.659	1644.352	1423.902
-25.823	35.765	1642.198	1422.765
-24.809	35.729	1641.179	1421.564
-23.794	35.753	1639.319	1420.072
-22.779	35.650	1637.849	1417.980
-21.765	35.715	1636.028	1416.826
-20.750	35.685	1634.723	1415.417
-19.736	35.642	1633.486	1413.978
-18.721	35.740	1632.109	1413.448
-17.706	35.777	1630.031	1411.865
-16.692	35.716	1628.180	1409.755
-15.677	35.758	1627.166	1409.134
-14.663	35.743	1626.342	1408.256
-13.648	35.746	1624.445	1406.577
-12.633	35.761	1623.238	1405.584
-11.619	35.679	1621.452	1403.387
-10.604	35.770	1619.951	1402.689
-9.590	35.732	1618.671	1401.250
-8.575	35.773	1617.277	1400.292
-7.560	35.658	1616.024	1398.314
-6.546	35.787	1615.047	1398.351
-5.531	35.656	1614.036	1396.468
-4.517	35.578	1612.737	1394.722
-3.502	35.652	1611.795	1394.384
-2.487	35.748	1610.931	1394.283
-1.473	35.656	1599.501	1383.670
-0.458	33.327	1580.191	1350.324
0.556	29.979	1580.270	1319.838
1.571	27.611	1605.385	1323.526
2.586	26.958	1619.759	1330.471
3.600	23.406	1564.271	1259.588
4.615	12.614	1447.632	1094.191
5.629	3.520	1378.167	983.804
6.644	2.047	1368.962	967.810
7.659	1.819	1367.920	965.548
8.673	1.732	1367.354	964.508
9.688	1.663	1365.427	962.627
10.702	1.445	1362.212	958.901
11.717	5.130	1369.770	987.484
12.731	15.922	1390.631	1071.439
13.746	24.518	1404.548	1137.059
14.761	26.297	1406.938	1150.225
15.775	26.616	1406.627	1151.905
16.790	26.571	1406.501	1151.413
17.804	26.690	1405.883	1151.561
18.819	26.843	1405.639	1152.230
19.834	26.978	1404.590	1152.124
20.848	26.977	1404.047	1151.573
21.863	26.996	1403.226	1150.914
22.877	27.041	1401.995	1150.093
23.892	27.064	1401.297	1149.559
24.907	27.058	1400.375	1148.666
25.921	27.020	1399.608	1147.694
26.936	26.955	1398.714	1146.448
27.950	27.014	1397.908	1146.057
28.965	26.953	1396.401	1144.337
29.980	27.052	1395.026	1143.736
30.994	27.003	1393.931	1142.423
32.009	26.911	1393.004	1140.986
33.023	27.017	1392.046	1140.766
34.038	27.066	1390.390	1139.614
35.053	26.990	1389.803	1138.555
36.067	26.894	1389.185	1137.349
37.082	26.969	1387.885	1136.652
38.096	26.978	1387.062	1135.939
39.111	26.960	1386.253	1135.060
40.126	26.986	1385.406	1134.431
41.140	27.003	1385.134	1134.214
42.155	27.016	1384.717	1133.853
43.169	26.863	1385.309	1133.276
44.184	27.039	1384.360	1133.499
45.199	27.023	1383.747	1132.801
46.213	26.925	1383.617	1131.982
47.228	26.936	1382.847	1131.321
48.242	26.977	1381.313	1130.223
49.257	26.868	1380.015	1128.381
50.271	27.015	1378.305	1127.794
51.286	26.927	1377.340	1126.358
52.301	26.974	1375.675	1125.187
53.315	26.967	1375.222	1124.673
54.330	26.973	1374.387	1123.933
55.344	26.995	1372.857	1122.718
56.359	27.022	1371.705	1121.843
57.374	26.897	1371.276	1120.622
58.388	26.970	1370.402	1120.259
59.403	26.941	1370.528	1120.081
60.417	26.926	1369.810	1119.303
61.432	26.996	1368.949	1118.930
62.447	27.113	1367.672	1118.509
63.461	27.026	1366.959	1117.293
64.476	26.923	1366.185	1115.925
65.490	27.008	1364.618	1115.070
66.505	26.995	1362.999	1113.573
67.520	27.010	1362.228	1112.935
68.534	26.971	1361.226	1111.777
69.549	27.029	1360.172	1111.171
70.563	26.956	1359.426	1110.019
71.578	26.918	1358.266	1108.740
72.593	26.982	1357.540	1108.443
73.607	27.104	1356.641	1108.351
74.622	27.057	1355.492	1107.033
75.636	26.986	1355.119	1106.192
76.651	27.065	1354.348	1105.947
77.666	26.982	1354.079	1105.124
78.680	27.082	1353.050	1104.796
79.695	26.981	1352.657	1103.764
80.709	26.948	1351.752	1102.729
81.724	26.882	1351.230	1101.805
82.739	27.036	1349.731	1101.417
83.753	26.947	1349.344	1100.463
84.768	27.017	1347.827	1099.553
85.782	26.952	1346.835	1098.256
86.797	26.980	1345.800	1097.480
87.812	26.927	1344.634	1096.116
88.826	27.002	1343.248	1095.341
89.841	26.986	1342.797	1094.777
90.855	26.863	1341.895	1093.206
91.870	27.086	1340.801	1093.559
92.884	27.082	1339.848	1092.661
93.899	27.140	1339.271	1092.442
94.914	27.028	1338.191	1090.792
95.928	27.007	1337.836	1090.279
96.943	27.093	1336.865	1089.912
97.957	27.004	1336.241	1088.771
98.972	27.056	1335.107	1088.060
99.987	26.997	1334.729	1087.301
101.001	27.069	1332.975	1086.211
102.016	27.030	1332.152	1085.209
103.030	27.085	1331.613	1085.004
104.045	27.053	1330.831	1084.078
105.060	27.082	1329.505	1083.075
106.074	27.053	1329.103	1082.477
107.089	27.130	1327.542	1081.572
108.103	27.138	1326.605	1080.761
109.118	27.098	1325.769	1079.744
110.133	27.088	1324.311	1078.402
111.147	27.156	1323.569	1078.105
112.162	27.106	1322.422	1076.780
113.176	27.102	1321.148	1075.623
114.191	27.126	1320.100	1074.817
115.206	26.990	1320.130	1073.944
116.220	27.019	1318.620	1072.789
117.235	27.174	1317.298	1072.533
118.249	27.068	1316.474	1071.145
119.264	27.093	1315.724	1070.587
120.279	27.083	1314.981	1069.826
121.293	27.162	1314.184	1069.552
122.308	27.145	1313.797	1069.039
123.322	27.186	1312.827	1068.397
124.337	27.181	1312.091	1067.675
125.352	27.181	1311.056	1066.737
126.366	27.222	1310.254	1066.230
127.381	27.130	1309.531	1065.010
128.395	27.227	1308.280	1064.464
129.410	27.221	1307.687	1063.855
130.424	27.175	1307.005	1062.937
131.439	27.163	1305.906	1061.878
132.454	27.294	1305.254	1062.016
133.468	27.248	1304.713	1061.215
134.483	27.174	1304.317	1060.367
135.497	27.117	1303.555	1059.319
136.512	27.098	1302.553	1058.304
137.527	27.217	1301.360	1057.932
138.541	27.142	1300.049	1056.341
139.556	27.128	1298.871	1055.208
140.570	27.245	1297.436	1054.627
141.585	27.172	1296.432	1053.293
142.600	27.236	1295.548	1052.850
143.614	27.117	1294.725	1051.399
144.629	27.048	1293.775	1050.140
145.643	27.075	1292.815	1049.420
146.658	27.024	1291.932	1048.320
147.673	27.164	1290.634	1047.977
148.687	27.081	1289.800	1046.732
149.702	27.000	1288.976	1045.503
150.716	26.921	1287.724	1043.939
151.731	27.080	1286.243	1043.563
152.746	27.099	1285.518	1042.992
153.760	27.210	1284.100	1042.384
154.775	27.196	1283.694	1041.880
155.789	27.153	1283.099	1041.063
156.804	27.114	1281.900	1039.773
157.819	27.154	1281.127	1039.281
158.833	27.113	1280.238	1038.238
159.848	27.164	1279.602	1037.920
160.862	27.145	1278.997	1037.227
161.877	27.167	1277.998	1036.449
162.892	27.121	1277.342	1035.563
163.906	27.230	1276.420	1035.345
164.921	27.194	1275.786	1034.538
165.935	27.219	1274.968	1033.923
166.950	27.245	1274.211	1033.366
167.964	27.290	1273.614	1033.043
168.979	27.196	1273.276	1032.145
169.994	27.295	1272.679	1032.130
171.008	27.235	1271.977	1031.132
172.023	27.253	1271.256	1030.561
173.037	27.341	1270.529	1030.377
174.052	27.187	1270.032	1029.009
175.067	27.334	1268.795	1028.747
176.081	27.245	1268.674	1028.054
177.096	27.245	1267.313	1026.863
178.110	27.272	1266.425	1026.202
179.125	27.252	1265.256	1025.054
180.140	27.294	1264.402	1024.508
181.154	27.251	1263.415	1023.377
182.169	27.308	1262.230	1022.643
183.183	27.240	1261.489	1021.571
184.198	27.280	1260.289	1020.736
185.213	27.363	1259.231	1020.250
186.227	27.389	1258.304	1019.556
187.242	27.408	1257.664	1019.054
188.256	27.396	1256.612	1018.044
189.271	27.311	1256.175	1017.125
190.286	27.367	1254.944	1016.351
191.300	27.254	1255.109	1015.765
192.315	27.317	1254.375	1015.431
193.329	27.384	1253.980	1015.394
194.344	27.310	1253.812	1014.759
195.359	27.462	1252.981	1014.844
196.373	27.272	1252.579	1013.366
197.388	27.325	1251.369	1012.596
198.402	27.410	1251.407	1013.009
199.417	27.370	1251.035	1012.397
200.432	27.347	1250.408	1011.673
201.446	27.305	1249.902	1010.940
202.461	27.223	1249.305	1009.908
203.475	27.353	1248.126	1009.588
204.490	27.322	1247.182	1008.566
205.504	27.321	1246.184	1007.665
206.519	27.464	1245.274	1007.628
207.534	27.359	1244.548	1006.371
208.548	27.405	1243.519	1005.704
209.563	27.485	1242.734	1005.423
210.577	27.323	1242.181	1003.991
211.592	27.345	1241.565	1003.527
212.607	27.437	1240.792	1003.318
213.621	27.508	1239.554	1002.620
214.636	27.473	1238.778	1001.714
215.650	27.455	1237.976	1000.875
216.665	27.511	1236.896	1000.223
217.680	27.414	1236.293	999.113
218.694	27.545	1235.503	999.106
219.709	27.543	1234.942	998.552
220.723	27.527	1233.827	997.472
221.738	27.418	1233.655	996.653
222.753	27.479	1232.713	996.135
223.767	27.466	1232.330	995.664
224.782	27.525	1231.631	995.333
225.796	27.522	1231.612	995.215
226.811	27.596	1230.065	994.280
227.826	27.532	1229.825	993.648
228.840	27.603	1229.473	993.666
229.855	27.550	1228.729	992.689
230.869	27.586	1227.566	991.858
231.884	27.597	1227.171	991.510
232.899	27.528	1226.674	990.646
233.913	27.660	1225.451	990.283
234.928	27.800	1225.058	990.639
235.942	27.721	1224.586	989.740
236.957	27.656	1223.953	988.792
237.972	27.728	1222.897	988.239
238.986	27.626	1222.747	987.479
240.001	27.607	1222.501	987.091
241.015	27.660	1221.251	986.278
242.030	27.779	1220.495	986.226
243.045	27.709	1219.518	984.970
244.059	27.671	1219.094	984.333
245.074	27.725	1217.965	983.630
246.088	27.738	1217.452	983.196
247.103	27.723	1216.794	982.498
248.117	27.827	1215.493	981.917
249.132	27.742	1214.800	980.816
250.147	27.851	1214.545	981.110
251.161	27.854	1213.628	980.298
252.176	27.871	1212.878	979.697
253.190	27.857	1212.264	979.039
254.205	27.844	1211.511	978.272
255.220	27.863	1210.950	977.836
256.234	27.901	1210.458	977.554
257.249	27.816	1209.958	976.609
258.263	27.729	1209.687	975.838
259.278	27.886	1208.486	975.623
260.293	27.875	1208.291	975.320
261.307	27.825	1207.954	974.693
262.322	27.967	1206.737	974.386
263.336	27.931	1206.422	973.852
264.351	27.821	1206.112	972.928
265.366	27.928	1205.205	972.684
266.380	27.964	1204.434	972.167
267.395	27.923	1203.906	971.434
268.409	27.911	1203.198	970.715
269.424	27.855	1202.664	969.898
270.439	27.932	1202.106	969.774
271.453	27.955	1201.630	969.426
272.468	27.893	1200.631	968.204
273.482	27.951	1199.900	967.835
274.497	28.007	1199.720	967.902
275.512	27.920	1198.942	966.730
276.526	27.995	1198.033	966.308
277.541	28.076	1197.231	966.000
278.555	28.138	1196.620	965.751
279.570	27.911	1196.138	964.078
280.585	27.963	1195.341	963.623
281.599	28.048	1194.209	963.076
282.614	28.122	1193.096	962.484
283.628	28.153	1192.439	962.032
284.643	28.064	1191.883	961.026
285.657	28.069	1190.962	960.228
286.672	27.990	1190.266	959.165
287.687	28.039	1189.991	959.117
288.701	28.209	1188.822	958.982
289.716	28.190	1188.037	958.165
290.730	28.053	1187.818	957.186
291.745	28.081	1187.008	956.594
292.760	28.174	1186.660	956.713
293.774	28.174	1185.928	956.041
294.789	28.186	1185.384	955.580
295.803	28.133	1184.845	954.786
296.818	28.199	1184.091	954.434
297.833	28.233	1183.224	953.829
298.847	28.241	1182.218	952.978
299.862	28.352	1181.398	952.808
300.876	28.190	1181.217	951.734
301.891	28.261	1180.736	951.632
302.906	28.272	1179.850	950.894
303.920	28.359	1179.343	950.851
304.935	28.322	1178.710	950.063
305.949	28.230	1177.990	948.921
306.964	28.277	1177.608	948.775
307.979	28.222	1177.010	947.925
308.993	28.326	1176.220	947.745
310.008	28.422	1175.221	947.347
311.022	28.347	1174.531	946.322
312.037	28.336	1173.786	945.580
313.052	28.339	1172.908	944.804
314.066	28.236	1172.229	943.642
315.081	28.308	1171.393	943.260
316.095	28.376	1170.792	943.040
317.110	28.454	1170.071	942.780
318.125	28.537	1169.603	942.744
319.139	28.380	1169.233	941.558
320.154	28.362	1168.625	940.892
321.168	28.381	1168.250	940.600
322.183	28.337	1167.364	939.582
323.197	28.271	1167.111	938.957
324.212	28.408	1166.226	938.864
325.227	28.502	1165.620	938.774
326.241	28.596	1165.096	938.749
327.256	28.525	1164.107	937.504
328.270	28.482	1163.520	936.728
329.285	28.434	1163.041	936.017
330.300	28.466	1162.042	935.291
331.314	28.438	1161.369	934.527
332.329	28.534	1160.271	934.050
333.343	28.610	1159.481	933.717
334.358	28.617	1158.615	932.973
335.373	28.728	1158.023	932.976
336.387	28.692	1157.290	932.119
337.402	28.632	1156.906	931.427
338.416	28.560	1156.315	930.500
339.431	28.654	1155.551	930.282
340.446	28.602	1155.166	929.624
341.460	28.741	1154.248	929.509
342.475	28.702	1153.489	928.618
343.489	28.686	1152.565	927.711
344.504	28.701	1151.972	927.224
345.519	28.684	1150.970	926.250
346.533	28.714	1150.250	925.741
347.548	28.653	1149.433	924.692
348.562	28.695	1149.034	924.503
349.577	28.716	1148.141	923.808
350.592	28.592	1147.232	922.371
351.606	28.646	1146.653	922.096
352.621	28.725	1146.117	921.980
353.635	28.797	1145.385	921.674
354.650	28.732	1144.839	920.827
355.665	28.747	1144.422	920.485
356.679	28.893	1143.081	920.053
357.694	28.773	1143.101	919.390
358.708	28.805	1142.487	918.971
359.723	28.790	1141.608	918.107
360.738	28.837	1140.896	917.692
361.752	28.805	1140.570	917.187
362.767	28.868	1140.109	917.047
363.781	28.896	1139.406	916.540
364.796	28.993	1138.782	916.442
365.810	28.912	1138.549	915.770
366.825	28.966	1137.273	914.933
367.840	28.930	1137.467	914.826
368.854	29.116	1136.381	914.799
369.869	29.051	1135.779	913.910
370.883	29.019	1134.856	912.925
371.898	28.963	1134.156	912.003
372.913	28.973	1133.782	911.671
373.927	29.067	1133.097	911.505
374.942	28.997	1132.629	910.704
375.956	29.117	1132.261	910.920
376.971	29.026	1131.704	909.941
377.986	29.021	1131.228	909.455
379.000	29.166	1130.712	909.678
380.015	29.085	1130.275	908.842
381.029	29.139	1129.469	908.384
382.044	29.058	1129.067	907.578
383.059	29.205	1127.954	907.330
384.073	29.238	1127.216	906.817
385.088	29.203	1126.377	905.889
386.102	29.180	1125.645	905.106
387.117	29.265	1124.507	904.529
388.132	29.023	1124.278	903.076
389.146	29.195	1123.451	903.177
390.161	29.198	1122.811	902.596
391.175	29.302	1122.069	902.430
392.190	29.241	1121.482	901.580
393.205	29.307	1120.697	901.193
394.219	29.130	1120.099	899.765
395.234	29.333	1119.041	899.827
396.248	29.388	1118.075	899.238
397.263	29.300	1117.555	898.313
398.278	29.329	1116.921	897.864
399.292	29.336	1116.463	897.451
400.307	29.427	1115.912	897.371
401.321	29.327	1115.288	896.303
402.336	29.188	1114.621	895.012
403.350	29.362	1113.886	895.185
404.365	29.404	1113.104	894.682
405.380	29.485	1112.186	894.257
406.394	29.435	1111.603	893.467
407.409	29.382	1111.155	892.775
408.423	29.429	1110.483	892.381
409.438	29.566	1109.741	892.371
410.453	29.549	1109.065	891.662
411.467	29.546	1108.310	890.965
412.482	29.508	1107.659	890.178
413.496	29.623	1106.607	889.806
414.511	29.501	1106.234	888.842
415.526	29.520	1105.879	888.568
416.540	29.547	1105.425	888.254
417.555	29.604	1104.926	888.051
418.569	29.571	1104.468	887.443
419.584	29.445	1104.507	886.791
420.599	29.619	1103.717	886.913
421.613	98.459	1317.640	1434.299
422.628	92.106	1348.824	1434.406
