DTS Sentinel unit serial number:	SN413079Multiplexer serial number:	ORYXHardware model number:	OX4-SRSoftware version number:	ORYX F/W v4.00 Oryx Data Collector v3.7.2.0data status	okinstallation	princeton_trtdifferential loss correction	single-endedforward channel	channel 2reverse channel	N/Adate	2019/09/16time	14:35:35forward acquisition time	60.00reverse acquisition time	0.00gamma	496.2192k internal	0.2297k external	0.2297temperature offset calibration	0.9940default loss term (dB/km)	0.3790temperature slope calibration	1.0000multiplexer offset coefficient	1.0000multiplexer slope coefficient	1.0000fibre end	0.00T internal ref (°C)	41.80T ext. ref 1 (°C)	14.29T ext. ref 2 (°C)	36.23length (m)	temperature (°C)	Stokes	anti-Stokes-747.200	60.930	0.201	0.203
-746.185	486.150	-0.064	-0.150
-745.171	-200.000	0.030	0.194
-744.156	148.250	-0.295	0.406
-743.142	-43.324	0.218	0.113
-742.127	71.046	0.226	0.239
-741.112	318.850	-0.090	0.174
-740.098	324.651	0.077	-0.151
-739.083	-200.000	-0.043	-0.409
-738.069	-80.391	0.127	0.043
-737.054	-177.008	-0.552	0.014
-736.039	691.658	0.067	-0.178
-735.025	-112.396	0.300	-0.061
-734.010	218.292	-0.112	0.183
-732.996	49.703	0.097	-0.093
-731.981	-53.899	-0.272	-0.127
-730.966	446.039	0.119	0.267
-729.952	800.000	0.044	-0.149
-728.937	28.827	-0.080	-0.069
-727.923	-73.909	-0.125	0.046
-726.908	-19.680	0.280	-0.177
-725.894	-200.000	-0.045	-0.413
-724.879	-200.000	-0.017	-0.157
-723.864	-157.022	0.073	-0.005
-722.850	-30.486	0.204	0.118
-721.835	-10.137	-0.174	0.118
-720.821	-1.998	-0.030	0.021
-719.806	-107.849	-0.234	0.052
-718.791	-25.406	-0.253	0.153
-717.777	-62.364	-0.148	-0.063
-716.762	800.000	-0.010	-0.039
-715.748	-7.252	0.278	-0.192
-714.733	19.691	0.176	0.144
-713.718	-200.000	0.011	0.069
-712.704	-23.885	0.228	-0.139
-711.689	66.025	-0.154	0.160
-710.675	19.696	-0.304	-0.250
-709.660	800.000	0.047	-0.166
-708.645	-62.652	0.161	0.068
-707.631	556.124	-0.087	0.215
-706.616	23.148	-0.195	0.163
-705.602	800.000	-0.038	0.130
-704.587	234.767	0.133	0.224
-703.572	-65.414	-0.317	-0.130
-702.558	-63.408	-0.113	0.047
-701.543	-138.891	0.034	0.004
-700.529	-26.271	0.156	-0.093
-699.514	34.405	-0.258	-0.229
-698.499	-200.000	-0.065	-0.304
-697.485	-189.208	-0.302	-0.004
-696.470	407.222	-0.126	-0.272
-695.456	-60.836	0.191	0.082
-694.441	-54.415	0.429	0.198
-693.426	-147.576	-0.051	-0.004
-692.412	-200.000	0.000	-0.172
-691.397	-66.864	0.202	0.081
-690.383	292.353	-0.071	0.131
-689.368	536.475	0.141	0.340
-688.354	215.323	0.063	-0.102
-687.339	-137.586	0.277	0.032
-686.324	-200.000	-0.014	-0.161
-685.310	-38.725	0.159	-0.086
-684.295	117.227	-0.129	0.161
-683.281	-95.249	0.065	0.018
-682.266	448.261	-0.098	-0.219
-681.251	42.627	-0.048	-0.045
-680.237	49.336	-0.131	0.125
-679.222	-129.920	-0.025	-0.004
-678.208	220.345	-0.086	0.140
-677.193	-200.000	0.004	0.070
-676.178	-35.504	0.440	-0.243
-675.164	-62.350	0.295	-0.125
-674.149	148.370	-0.085	0.117
-673.135	-99.824	-0.350	0.089
-672.120	-54.293	0.256	0.118
-671.105	278.999	0.118	-0.215
-670.091	-15.954	-0.202	-0.131
-669.076	320.827	0.120	-0.232
-668.062	-29.693	-0.246	-0.143
-667.047	-200.000	0.024	0.286
-666.032	-200.000	-0.019	0.096
-665.018	90.632	-0.111	0.127
-664.003	186.745	0.097	0.147
-662.989	-44.497	-0.210	-0.107
-661.974	266.856	0.121	-0.215
-660.959	17.222	-0.083	-0.067
-659.945	136.370	0.056	-0.075
-658.930	-146.581	0.439	-0.039
-657.916	172.722	-0.251	-0.367
-656.901	800.000	0.118	-0.400
-655.886	31.220	-0.208	0.182
-654.872	323.084	0.123	-0.238
-653.857	216.615	-0.107	0.173
-652.843	-146.328	0.036	0.003
-651.828	277.991	-0.230	-0.418
-650.814	2.768	-0.157	0.116
-649.799	-38.073	-0.127	-0.069
-648.784	-42.023	-0.279	0.145
-647.770	-89.705	0.255	-0.076
-646.755	-27.267	0.191	-0.113
-645.741	-200.000	0.029	0.204
-644.726	57.204	0.118	-0.117
-643.711	-200.000	0.012	-0.237
-642.697	-94.344	-0.223	-0.062
-641.682	55.735	0.227	-0.224
-640.668	-110.107	-0.136	-0.029
-639.653	-200.000	0.021	-0.173
-638.638	-200.000	-0.032	0.238
-637.624	121.187	0.194	-0.246
-636.609	138.292	0.286	-0.381
-635.595	-77.118	-0.300	-0.106
-634.580	-57.739	-0.318	0.142
-633.565	-134.408	0.428	0.053
-632.551	65.365	-0.115	0.118
-631.536	-119.099	0.151	-0.027
-630.522	374.755	0.048	0.099
-629.507	-109.801	-0.351	-0.075
-628.492	-126.279	0.242	-0.037
-627.478	-200.000	-0.005	-0.052
-626.463	-64.414	-0.155	-0.064
-625.449	-89.790	-0.456	0.136
-624.434	800.000	-0.050	0.162
-623.419	-200.000	-0.023	0.498
-622.405	800.000	0.021	-0.079
-621.390	36.401	-0.159	-0.142
-620.376	-29.386	0.250	-0.145
-619.361	-103.450	0.504	-0.120
-618.346	-200.000	0.076	-0.342
-617.332	105.328	-0.420	0.504
-616.317	800.000	0.044	0.194
-615.303	-52.629	0.143	-0.067
-614.288	-72.323	0.058	0.022
-613.273	113.894	0.129	0.160
-612.259	248.436	-0.126	-0.216
-611.244	800.000	0.043	-0.178
-610.230	-106.444	0.274	0.062
-609.215	-81.389	0.115	-0.038
-608.201	-200.000	0.009	-0.104
-607.186	404.786	-0.050	0.107
-606.171	188.454	-0.176	0.267
-605.157	800.000	-0.059	-0.167
-604.142	254.165	-0.138	-0.240
-603.128	104.631	0.219	-0.262
-602.113	206.678	-0.105	-0.167
-601.098	-77.570	0.184	-0.065
-600.084	800.000	-0.057	-0.186
-599.069	45.464	-0.251	0.235
-598.055	526.939	-0.100	-0.239
-597.040	-200.000	-0.004	0.026
-596.025	-108.137	0.164	0.036
-595.011	-73.506	0.201	-0.075
-593.996	-200.000	-0.032	0.271
-592.982	26.169	-0.145	0.123
-591.967	-200.000	-0.031	-0.190
-590.952	-28.507	-0.284	-0.166
-589.938	6.301	0.132	-0.099
-588.923	-200.000	0.015	0.104
-587.909	-39.090	-0.167	-0.089
-586.894	373.222	-0.022	-0.046
-585.879	-83.888	-0.244	-0.079
-584.865	-200.000	0.008	-0.148
-583.850	-111.535	-0.234	-0.048
-582.836	47.587	0.166	-0.157
-581.821	800.000	0.072	-0.262
-580.806	-200.000	-0.034	-0.184
-579.792	2.976	-0.229	-0.169
-578.777	26.794	-0.135	0.115
-577.763	-153.572	0.101	-0.007
-576.748	-177.021	0.177	0.005
-575.733	-20.711	-0.209	0.130
-574.719	-200.000	0.057	0.385
-573.704	429.655	0.023	0.050
-572.690	800.000	0.078	-0.299
-571.675	-6.570	-0.103	0.071
-570.661	-92.653	0.106	0.030
-569.646	189.695	-0.174	-0.264
-568.631	-82.011	-0.225	0.075
-567.617	-78.595	0.167	0.058
-566.602	13.531	0.272	0.214
-565.588	800.000	0.087	-0.273
-564.573	87.763	-0.187	0.210
-563.558	-67.181	0.256	0.102
-562.544	-200.000	-0.010	0.135
-561.529	-200.000	0.042	0.220
-560.515	-24.167	0.107	0.065
-559.500	691.876	-0.059	0.156
-558.485	-200.000	-0.023	-0.181
-557.471	473.057	0.098	-0.223
-556.456	-132.228	-0.120	-0.016
-555.442	-14.136	0.334	-0.219
-554.427	238.641	0.173	0.291
-553.412	-126.095	-0.102	0.015
-552.398	-79.806	-0.063	0.022
-551.383	20.384	-0.173	-0.142
-550.369	-53.898	-0.419	0.194
-549.354	-31.214	0.175	-0.100
-548.339	-130.089	-0.194	0.027
-547.325	-3.216	-0.174	-0.123
-546.310	53.284	0.087	-0.084
-545.296	-81.189	-0.270	-0.090
-544.281	-200.000	-0.011	0.278
-543.266	-128.928	-0.307	-0.044
-542.252	-200.000	0.045	0.206
-541.237	-89.769	-0.256	-0.076
-540.223	36.699	0.262	0.235
-539.208	-80.483	-0.129	0.044
-538.193	-122.399	0.168	0.028
-537.179	-200.000	0.036	0.251
-536.164	-200.000	-0.005	0.180
-535.150	56.205	-0.208	0.205
-534.135	-20.640	-0.444	-0.276
-533.121	-200.000	-0.065	0.366
-532.106	-141.202	0.288	0.030
-531.091	18.932	-0.253	-0.205
-530.077	-32.566	-0.152	-0.086
-529.062	-22.074	0.298	0.183
-528.048	18.651	-0.116	0.094
-527.033	-200.000	-0.021	-0.204
-526.018	-131.882	0.135	0.018
-525.004	-57.097	-0.258	-0.115
-523.989	-200.000	0.033	0.150
-522.975	-200.000	0.049	0.260
-521.960	96.818	0.208	0.241
-520.945	800.000	0.116	0.326
-519.931	103.819	-0.015	0.018
-518.916	131.315	-0.056	0.073
-517.902	-59.798	-0.195	-0.084
-516.887	-200.000	-0.063	0.000
-515.872	587.798	0.109	0.271
-514.858	81.600	-0.197	0.216
-513.843	-70.241	-0.137	-0.053
-512.829	14.389	0.192	-0.152
-511.814	-200.000	0.005	0.223
-510.799	-200.000	-0.024	0.206
-509.785	-200.000	-0.032	-0.465
-508.770	-100.492	0.195	-0.049
-507.756	-106.523	0.121	0.027
-506.741	-65.664	0.069	-0.028
-505.726	246.837	-0.152	-0.260
-504.712	-107.544	-0.233	0.052
-503.697	-14.816	-0.202	-0.131
-502.683	800.000	-0.078	0.331
-501.668	207.240	-0.123	-0.194
-500.653	-61.313	-0.246	0.105
-499.639	-200.000	0.021	-0.172
-498.624	138.121	0.269	0.356
-497.610	-200.000	0.005	-0.043
-496.595	34.964	-0.129	0.114
-495.581	800.000	-0.055	-0.159
-494.566	502.895	-0.156	-0.365
-493.551	-0.652	0.192	-0.138
-492.537	20.270	-0.314	0.257
-491.522	4.190	-0.210	-0.155
-490.508	-158.375	0.403	-0.024
-489.493	-200.000	-0.008	-0.089
-488.478	-5.157	0.072	0.050
-487.464	-89.126	-0.222	0.066
-486.449	247.547	0.132	-0.226
-485.435	304.967	0.032	-0.060
-484.420	800.000	-0.085	0.262
-483.405	-12.215	0.188	-0.124
-482.391	-52.348	0.318	0.149
-481.376	78.621	-0.111	-0.120
-480.362	-1.757	-0.190	-0.135
-479.347	-68.210	0.021	0.008
-478.332	-200.000	0.085	-0.380
-477.318	273.695	-0.045	0.080
-476.303	-158.816	-0.176	-0.010
-475.289	114.224	0.183	-0.225
-474.274	81.361	-0.203	0.222
-473.259	800.000	0.046	0.161
-472.245	272.149	-0.058	-0.104
-471.230	-8.857	-0.008	-0.006
-470.216	800.000	-0.076	0.245
-469.201	28.037	0.159	0.135
-468.186	22.951	0.116	0.096
-467.172	-200.000	-0.083	0.426
-466.157	-92.153	-0.171	-0.049
-465.143	-200.000	-0.001	-0.077
-464.128	-59.652	0.082	0.035
-463.113	-74.289	-0.286	-0.104
-462.099	-106.506	-0.192	0.043
-461.084	-188.054	-0.155	-0.002
-460.070	91.832	-0.190	-0.216
-459.055	-6.866	0.019	-0.013
-458.040	70.250	0.244	-0.255
-457.026	148.714	0.193	0.264
-456.011	-49.786	-0.064	0.031
-454.997	-33.438	-0.091	-0.051
-453.982	-200.000	0.012	-0.263
-452.968	147.610	-0.100	0.137
-451.953	-200.000	0.012	0.176
-450.938	225.512	0.057	-0.093
-449.924	-108.465	-0.278	0.060
-448.909	-86.823	-0.200	-0.062
-447.895	3.848	0.384	0.283
-446.880	435.552	-0.044	-0.096
-445.865	-49.765	0.248	0.119
-444.851	7.254	-0.083	-0.063
-443.836	-37.274	0.120	0.065
-442.822	2.602	0.136	0.100
-441.807	-111.818	0.353	-0.072
-440.792	47.641	-0.119	-0.112
-439.778	-51.282	-0.305	-0.144
-438.763	-200.000	-0.016	-0.287
-437.749	-62.182	-0.315	0.132
-436.734	305.216	-0.091	-0.171
-435.719	333.252	-0.072	-0.139
-434.705	87.303	0.104	0.116
-433.690	-43.066	0.162	0.083
-432.676	9.404	0.164	0.125
-431.661	172.936	0.155	-0.225
-430.646	-97.515	-0.190	-0.050
-429.632	264.554	0.117	-0.205
-428.617	50.455	0.164	0.156
-427.603	30.737	0.189	0.163
-426.588	-36.799	-0.049	0.027
-425.573	144.793	0.038	0.052
-424.559	-69.143	0.079	0.031
-423.544	-200.000	-0.026	-0.247
-422.530	-60.994	-0.046	-0.020
-421.515	-200.000	0.145	0.000
-420.500	-16.002	-0.172	0.110
-419.486	-120.006	0.200	-0.035
-418.471	31.228	0.188	-0.163
-417.457	203.947	0.100	0.156
-416.442	777.418	-0.024	0.066
-415.428	-94.637	0.127	-0.035
-414.413	85.961	0.109	-0.120
-413.398	-73.055	-0.327	-0.121
-412.384	643.046	-0.144	-0.369
-411.369	-200.000	-0.016	-0.176
-410.355	58.104	0.072	0.071
-409.340	40.131	0.272	0.246
-408.325	29.948	0.107	-0.092
-407.311	-105.876	-0.410	-0.093
-406.296	800.000	-0.082	0.294
-405.282	-90.675	0.398	-0.116
-404.267	-10.218	0.414	0.277
-403.252	-200.000	-0.021	0.343
-402.238	147.297	0.112	0.152
-401.223	59.622	-0.087	-0.087
-400.209	-115.721	-0.298	-0.056
-399.194	-166.235	0.290	0.012
-398.179	-123.902	0.404	-0.064
-397.165	-24.657	-0.118	0.070
-396.150	-200.000	0.011	0.156
-395.136	110.488	0.265	-0.321
-394.121	6.760	-0.060	0.045
-393.106	17.319	-0.156	0.125
-392.092	-54.815	-0.182	-0.083
-391.077	-111.053	0.330	0.068
-390.063	-200.000	0.009	-0.054
-389.048	11.472	-0.230	0.178
-388.033	81.380	-0.211	0.230
-387.019	-200.000	0.022	-0.123
-386.004	-200.000	0.018	0.198
-384.990	196.555	0.056	0.086
-383.975	41.724	0.230	-0.210
-382.960	-157.602	0.174	-0.010
-381.946	85.293	-0.122	0.134
-380.931	-150.977	-0.226	-0.017
-379.917	-73.433	0.282	-0.104
-378.902	-73.891	0.279	-0.102
-377.888	536.678	0.051	0.122
-376.873	-69.544	0.409	0.158
-375.858	-200.000	0.385	0.000
-374.844	-190.769	0.148	-0.002
-373.829	67.213	0.068	-0.069
-372.815	232.144	0.186	0.307
-371.800	751.888	0.032	0.087
-370.785	276.474	0.059	0.105
-369.771	-40.133	0.335	0.175
-368.756	140.170	-0.067	-0.089
-367.742	-181.611	0.346	0.007
-366.727	-200.000	0.003	0.220
-365.712	-116.174	-0.154	0.029
-364.698	91.596	-0.156	0.177
-363.683	596.362	0.058	0.144
-362.669	-135.523	-0.559	0.067
-361.654	800.000	-0.147	-0.450
-360.639	292.806	0.049	0.090
-359.625	-5.751	0.327	0.225
-358.610	-200.000	-0.009	0.097
-357.596	-51.916	-0.103	0.048
-356.581	-26.666	0.096	-0.056
-355.566	800.000	0.032	0.138
-354.552	52.115	0.043	-0.041
-353.537	-130.644	-0.356	0.048
-352.523	-200.000	0.056	0.260
-351.508	800.000	-0.116	0.325
-350.493	38.075	0.238	-0.213
-349.479	-200.000	-0.004	0.243
-348.464	-108.722	0.216	-0.047
-347.450	378.443	0.064	-0.131
-346.435	-200.000	0.059	-0.366
-345.420	26.025	-0.234	-0.197
-344.406	-200.000	-0.006	0.225
-343.391	-200.000	-0.072	-0.331
-342.377	401.267	0.136	-0.287
-341.362	-155.039	-0.023	0.002
-340.348	272.808	0.088	-0.156
-339.333	-200.000	-0.048	-0.240
-338.318	80.846	0.134	-0.145
-337.304	-138.643	-0.131	0.014
-336.289	101.783	0.082	0.096
-335.275	790.979	-0.030	0.083
-334.260	-97.333	0.031	-0.008
-333.245	-200.000	0.016	-0.154
-332.231	-45.615	0.120	-0.060
-331.216	-19.498	0.082	-0.051
-330.202	-200.000	0.009	-0.078
-329.187	20.701	0.252	-0.205
-328.172	-200.000	-0.065	0.339
-327.158	92.441	-0.117	0.133
-326.143	-8.788	0.189	0.127
-325.129	89.848	0.153	0.172
-324.114	-144.185	0.201	0.019
-323.099	-173.177	0.244	-0.007
-322.085	-200.000	0.025	-0.139
-321.070	-20.516	-0.472	-0.291
-320.056	123.018	0.122	0.153
-319.041	-71.172	-0.242	0.091
-318.026	-136.609	-0.237	0.027
-317.012	-29.922	0.233	0.133
-315.997	-0.108	-0.255	0.182
-314.983	800.000	0.116	0.375
-313.968	193.355	-0.117	-0.177
-312.953	-97.685	0.509	0.132
-311.939	800.000	-0.019	0.078
-310.924	-153.055	0.272	-0.019
-309.910	800.000	-0.062	0.185
-308.895	-193.770	0.323	0.003
-307.880	500.396	-0.054	-0.126
-306.866	10.437	0.186	-0.142
-305.851	91.633	0.364	0.411
-304.837	-90.187	-0.176	0.051
-303.822	-200.000	0.017	-0.123
-302.807	200.917	-0.123	-0.189
-301.793	-200.000	0.027	0.215
-300.778	20.716	0.169	-0.138
-299.764	-105.353	0.327	-0.075
-298.749	-12.978	0.149	-0.097
-297.735	7.128	-0.405	0.303
-296.720	-128.298	0.364	0.052
-295.705	-200.000	-0.003	0.250
-294.691	135.361	0.124	0.162
-293.676	-200.000	0.151	0.001
-292.662	-157.006	-0.122	-0.007
-291.647	-200.000	0.024	-0.389
-290.632	-101.833	-0.118	-0.029
-289.618	496.246	-0.075	0.173
-288.603	-61.790	0.175	-0.073
-287.589	184.601	-0.075	-0.112
-286.574	-3.022	-0.054	0.038
-285.559	-46.191	0.221	0.109
-284.545	-102.574	0.031	0.007
-283.530	86.058	-0.079	-0.087
-282.516	-124.452	-0.338	0.053
-281.501	800.000	-0.040	0.115
-280.486	113.000	0.113	0.137
-279.472	-12.904	0.083	-0.054
-278.457	-129.007	-0.175	0.025
-277.443	-165.328	-0.490	-0.022
-276.428	715.109	0.077	0.205
-275.413	-56.289	-0.162	0.072
-274.399	-175.509	-0.138	0.004
-273.384	-34.007	-0.378	0.208
-272.370	171.015	0.055	-0.079
-271.355	-200.000	-0.028	-0.155
-270.340	231.044	0.095	-0.155
-269.326	-85.407	0.222	-0.069
-268.311	27.722	0.180	0.152
-267.297	-66.703	-0.105	0.042
-266.282	112.064	-0.109	0.132
-265.267	-44.344	0.059	-0.029
-264.253	-146.400	-0.336	-0.029
-263.238	256.598	-0.151	0.260
-262.224	800.000	0.051	0.221
-261.209	174.275	-0.127	-0.184
-260.195	67.137	0.277	-0.283
-259.180	769.090	0.078	-0.213
-258.165	38.366	0.343	0.306
-257.151	800.000	-0.029	0.103
-256.136	-102.724	-0.113	-0.027
-255.122	800.000	-0.129	0.374
-254.107	-92.180	-0.183	0.052
-253.092	524.325	0.095	0.224
-252.078	454.267	0.056	0.124
-251.063	60.839	0.208	0.206
-250.049	-122.927	0.111	0.018
-249.034	-49.067	-0.211	-0.101
-248.019	59.610	0.121	-0.120
-247.005	102.141	0.204	0.239
-245.990	-89.058	-0.058	-0.017
-244.976	10.919	-0.178	-0.136
-243.961	-97.853	-0.167	0.043
-242.946	800.000	0.055	-0.188
-241.932	-118.909	0.255	0.045
-240.917	-29.740	-0.078	0.045
-239.903	67.423	-0.035	-0.035
-238.888	-200.000	-0.002	-0.030
-237.873	-156.986	0.471	-0.029
-236.859	800.000	0.062	-0.193
-235.844	35.847	0.221	-0.194
-234.830	263.132	-0.120	-0.208
-233.815	-51.358	-0.278	-0.130
-232.800	394.698	-0.057	-0.119
-231.786	284.927	-0.112	0.202
-230.771	67.601	-0.107	0.109
-229.757	41.083	-0.194	-0.176
-228.742	-76.933	0.137	-0.048
-227.727	30.324	-0.275	0.235
-226.713	-200.000	-0.016	0.094
-225.698	389.165	0.131	0.272
-224.684	181.439	0.166	0.245
-223.669	-200.000	-0.013	0.082
-222.655	-34.808	-0.060	0.033
-221.640	235.951	-0.100	-0.165
-220.625	95.970	0.216	-0.247
-219.611	-161.123	-0.186	-0.010
-218.596	8.953	-0.050	0.037
-217.582	87.477	-0.089	-0.098
-216.567	-200.000	-0.225	0.000
-215.552	562.524	-0.061	-0.147
-214.538	251.820	0.078	0.133
-213.523	800.000	-0.073	0.273
-212.509	-170.748	0.326	-0.011
-211.494	800.000	0.030	-0.128
-210.479	166.009	0.219	0.310
-209.465	40.067	0.094	0.084
-208.450	202.327	-0.085	-0.131
-207.436	800.000	-0.052	0.145
-206.421	-25.112	-0.231	-0.137
-205.406	26.539	-0.101	-0.085
-204.392	-200.000	-0.014	0.080
-203.377	-200.000	-0.014	-0.061
-202.363	583.696	-0.118	-0.291
-201.348	-200.000	0.039	-0.191
-200.333	735.242	0.069	0.186
-199.319	385.200	-0.159	-0.328
-198.304	-104.668	0.294	0.068
-197.290	-200.000	0.045	-0.305
-196.275	800.000	0.011	-0.042
-195.260	277.553	-0.081	0.145
-194.246	51.537	0.042	0.040
-193.231	-121.840	0.257	0.042
-192.217	-136.757	0.149	0.017
-191.202	-31.122	-0.450	-0.254
-190.187	47.096	0.302	-0.281
-189.173	-200.000	-0.024	-0.153
-188.158	50.611	-0.108	-0.102
-187.144	10.112	-0.304	-0.231
-186.129	238.682	-0.168	-0.280
-185.114	-200.000	0.012	-0.320
-184.100	-40.637	-0.078	-0.040
-183.085	114.699	-0.193	0.236
-182.071	-51.129	-0.112	-0.053
-181.056	628.244	-0.114	0.287
-180.042	-200.000	0.014	-0.123
-179.027	10.109	-0.223	-0.169
-178.012	90.568	0.068	-0.076
-176.998	118.716	-0.175	-0.216
-175.983	128.896	0.124	-0.158
-174.969	-133.605	0.291	0.036
-173.954	632.334	-0.072	-0.183
-172.939	469.997	-0.033	0.073
-171.925	-1.329	0.157	0.111
-170.910	349.078	0.069	-0.135
-169.896	165.273	0.097	0.137
-168.881	-24.571	0.267	0.159
-167.866	800.000	0.053	0.159
-166.852	3.369	-0.212	-0.154
-165.837	745.092	-0.146	0.391
-164.823	232.594	-0.101	0.165
-163.808	-200.000	0.028	-0.233
-162.793	-89.133	-0.240	0.071
-161.779	-200.000	0.028	-0.157
-160.764	31.210	0.157	-0.135
-159.750	800.000	0.064	-0.190
-158.735	-104.513	-0.339	-0.078
-157.720	522.532	-0.184	-0.431
-156.706	239.570	-0.117	0.194
-155.691	-200.000	-0.049	0.276
-154.677	-102.218	-0.174	0.042
-153.662	-89.436	-0.317	-0.093
-152.647	-200.000	0.034	-0.282
-151.633	-200.000	-0.064	-0.303
-150.618	-49.331	0.208	0.099
-149.604	-83.322	0.220	-0.071
-148.589	800.000	0.083	0.292
-147.574	800.000	-0.097	0.314
-146.560	-92.550	0.129	-0.036
-145.545	390.966	0.203	-0.420
-144.531	-101.698	0.428	0.103
-143.516	-95.074	-0.207	-0.056
-142.502	-71.947	-0.061	-0.022
-141.487	77.592	0.028	0.030
-140.472	11.844	0.203	0.155
-139.458	56.383	0.136	-0.131
-138.443	-200.000	0.015	0.192
-137.429	433.489	0.054	0.117
-136.414	135.665	-0.245	0.318
-135.399	576.668	0.107	0.261
-134.385	-146.179	0.420	-0.037
-133.370	76.032	0.291	0.307
-132.356	-17.360	-0.175	0.110
-131.341	-82.921	-0.227	-0.073
-130.326	-64.294	0.156	0.063
-129.312	-107.430	0.235	0.051
-128.297	256.099	0.039	0.067
-127.283	-200.000	0.037	0.296
-126.268	-200.000	0.035	-0.155
-125.253	-180.153	-0.195	-0.004
-124.239	800.000	0.067	-0.272
-123.224	-130.343	0.090	-0.012
-122.210	-89.256	0.052	0.015
-121.195	-200.000	-0.015	-0.107
-120.180	276.209	0.201	-0.356
-119.166	21.340	-0.153	-0.124
-118.151	87.102	-0.079	0.087
-117.137	-69.132	0.100	0.038
-116.122	554.320	0.088	-0.211
-115.107	800.000	-0.128	-0.414
-114.093	143.917	0.205	0.272
-113.078	44.284	0.042	-0.038
-112.064	57.541	-0.329	0.320
-111.049	800.000	0.087	0.244
-110.034	74.281	-0.192	-0.201
-109.020	-200.000	0.029	0.170
-108.005	128.631	0.183	0.233
-106.991	-200.000	0.014	-0.260
-105.976	212.127	-0.137	0.215
-104.962	61.385	0.110	0.108
-103.947	-200.000	0.008	-0.294
-102.932	62.827	-0.067	-0.067
-101.918	-122.753	0.251	-0.040
-100.903	150.849	-0.092	0.124
-99.889	-47.452	0.291	-0.141
-98.874	14.165	0.187	0.145
-97.859	172.867	0.118	-0.169
-96.845	330.786	-0.100	0.192
-95.830	-200.000	-0.017	0.223
-94.816	178.327	0.120	0.174
-93.801	109.940	0.175	-0.210
-92.786	24.720	-0.168	0.139
-91.772	89.717	0.206	-0.228
-90.757	800.000	-0.093	-0.349
-89.743	-39.765	0.287	0.149
-88.728	128.135	0.043	-0.055
-87.713	-200.000	0.031	0.172
-86.699	-20.552	0.127	-0.077
-85.684	-114.461	-0.473	0.090
-84.670	167.539	0.100	0.142
-83.655	-72.422	0.282	0.104
-82.640	-67.018	-0.322	0.127
-81.626	73.401	0.165	0.171
-80.611	321.864	-0.099	-0.187
-79.597	-106.402	0.392	0.087
-78.582	-200.000	0.040	0.240
-77.567	800.000	0.102	0.377
-76.553	-141.685	-0.149	0.015
-75.538	483.822	-0.117	0.265
-74.524	-125.678	0.075	-0.011
-73.509	-200.000	0.020	-0.158
-72.494	-7.050	0.096	0.065
-71.480	6.603	-0.032	-0.024
-70.465	-200.000	-0.058	0.329
-69.451	-169.053	0.270	0.010
-68.436	233.783	-0.110	-0.181
-67.422	800.000	-0.104	0.425
-66.407	70.900	-0.264	-0.272
-65.392	398.311	0.129	-0.269
-64.378	4.579	0.256	0.187
-63.363	288.926	0.172	0.310
-62.349	252.278	0.246	0.417
-61.334	20.549	-0.886	-0.712
-60.319	71.046	0.189	0.195
-59.305	-200.000	-0.040	-0.694
-58.290	64.751	0.581	0.583
-57.276	370.988	0.727	1.466
-56.261	-200.000	76.820	529.970
-55.246	536.713	1326.287	3130.051
-54.232	145.304	2560.579	3406.682
-53.217	112.674	2358.651	2838.480
-52.203	51.312	1976.663	1865.103
-51.188	45.110	1767.494	1618.702
-50.173	42.273	1721.712	1554.756
-49.159	56.992	1755.889	1700.757
-48.144	62.420	1774.137	1760.658
-47.130	45.165	1738.254	1592.099
-46.115	41.903	1724.373	1554.041
-45.100	41.671	1720.234	1548.447
-44.086	41.714	1717.261	1546.043
-43.071	41.653	1714.188	1542.743
-42.057	41.641	1711.905	1540.541
-41.042	41.746	1709.598	1539.205
-40.027	41.652	1708.039	1537.019
-39.013	41.649	1705.630	1534.770
-37.998	41.593	1704.589	1533.341
-36.984	41.688	1702.800	1532.400
-35.969	41.778	1701.455	1531.816
-34.954	41.821	1699.633	1530.447
-33.940	41.814	1697.672	1528.568
-32.925	41.851	1695.853	1527.150
-31.911	41.764	1693.906	1524.673
-30.896	41.761	1692.385	1523.223
-29.881	41.832	1690.435	1521.945
-28.867	41.730	1688.525	1519.389
-27.852	41.834	1687.302	1519.019
-26.838	41.866	1685.874	1517.919
-25.823	41.849	1683.987	1516.029
-24.809	41.869	1682.901	1515.139
-23.794	41.858	1680.929	1513.221
-22.779	41.893	1679.483	1512.125
-21.765	41.845	1678.365	1510.698
-20.750	41.838	1676.284	1508.708
-19.736	41.752	1675.321	1507.136
-18.721	41.773	1673.672	1505.754
-17.706	41.848	1671.986	1504.735
-16.692	41.746	1670.425	1502.510
-15.677	41.891	1668.803	1502.076
-14.663	41.832	1667.368	1500.284
-13.648	41.882	1666.349	1499.681
-12.633	41.862	1664.478	1497.791
-11.619	41.740	1663.145	1495.616
-10.604	41.832	1661.346	1494.628
-9.590	41.810	1660.029	1493.222
-8.575	41.768	1658.656	1491.612
-7.560	41.778	1657.818	1490.870
-6.546	41.891	1656.144	1490.153
-5.531	41.811	1655.215	1488.659
-4.517	41.763	1654.016	1487.165
-3.502	41.742	1652.978	1486.015
-2.487	41.869	1650.883	1485.015
-1.473	41.593	1639.268	1472.477
-0.458	38.472	1617.603	1430.194
0.556	31.428	1614.396	1386.152
1.571	28.266	1637.729	1382.235
2.586	27.197	1651.114	1385.266
3.600	25.083	1601.960	1328.264
4.615	20.160	1495.860	1206.029
5.629	15.484	1430.660	1122.177
6.644	14.378	1421.596	1107.618
7.659	14.264	1420.267	1105.727
8.673	14.292	1418.758	1104.643
9.688	14.215	1416.968	1102.642
10.702	13.967	1414.798	1099.214
11.717	16.162	1418.560	1116.579
12.731	20.075	1425.300	1147.758
13.746	20.165	1423.139	1146.516
14.761	17.720	1417.434	1125.693
15.775	16.303	1414.087	1113.599
16.790	15.160	1411.369	1103.827
17.804	14.379	1408.406	1096.281
18.819	13.780	1407.473	1091.513
19.834	13.492	1405.541	1088.030
20.848	13.237	1404.185	1085.206
21.863	12.910	1402.978	1082.038
22.877	12.853	1401.721	1080.596
23.892	12.768	1400.649	1079.116
24.907	12.791	1400.090	1078.743
25.921	12.812	1399.217	1078.108
26.936	12.736	1398.347	1076.847
27.950	12.842	1397.180	1076.547
28.965	12.942	1396.063	1076.247
29.980	12.955	1394.866	1075.311
30.994	13.003	1393.406	1074.400
32.009	13.019	1392.686	1073.859
33.023	13.003	1391.459	1072.709
34.038	12.916	1390.049	1070.965
35.053	12.975	1388.787	1070.279
36.067	12.959	1387.917	1069.410
37.082	12.932	1386.362	1067.944
38.096	12.970	1385.279	1067.257
39.111	12.952	1384.794	1066.678
40.126	12.885	1383.771	1065.362
41.140	12.784	1382.682	1063.778
42.155	12.767	1382.491	1063.428
43.169	12.652	1382.466	1062.568
44.184	12.685	1381.934	1062.280
45.199	12.674	1381.512	1061.793
46.213	12.757	1380.911	1061.767
47.228	12.774	1380.231	1061.262
48.242	12.856	1378.805	1060.598
49.257	12.940	1376.595	1059.344
50.271	12.834	1375.904	1058.040
51.286	12.863	1374.465	1057.023
52.301	12.922	1372.764	1056.000
53.315	12.834	1371.954	1054.719
54.330	12.796	1370.915	1053.589
55.344	12.760	1369.509	1052.181
56.359	12.754	1368.314	1051.135
57.374	12.722	1367.689	1050.359
58.388	12.732	1366.435	1049.364
59.403	12.737	1366.319	1049.211
60.417	12.641	1365.780	1048.095
61.432	12.637	1364.704	1047.152
62.447	12.654	1363.468	1046.220
63.461	12.706	1362.208	1045.486
64.476	12.579	1361.606	1044.132
65.490	12.634	1360.338	1043.410
66.505	12.654	1358.769	1042.246
67.520	12.668	1357.091	1040.950
68.534	12.696	1355.987	1040.192
69.549	12.640	1355.765	1039.576
70.563	12.688	1353.956	1038.401
71.578	12.604	1352.902	1036.968
72.593	12.514	1352.196	1035.771
73.607	12.538	1351.697	1035.445
74.622	12.622	1350.266	1034.790
75.636	12.633	1349.909	1034.493
76.651	12.584	1349.432	1033.726
77.666	12.552	1348.930	1033.051
78.680	12.569	1348.615	1032.823
79.695	12.547	1347.519	1031.753
80.709	12.614	1346.519	1031.315
81.724	12.635	1346.121	1031.054
82.739	12.655	1344.921	1030.168
83.753	12.733	1344.179	1029.994
84.768	12.904	1342.516	1029.698
85.782	12.922	1341.607	1029.024
86.797	12.875	1340.462	1027.763
87.812	12.944	1338.640	1026.701
88.826	12.869	1337.781	1025.486
89.841	12.780	1336.839	1024.122
90.855	12.906	1335.728	1023.960
91.870	12.900	1335.195	1023.426
92.884	12.899	1333.943	1022.369
93.899	12.951	1333.401	1022.181
94.914	12.946	1332.313	1021.230
95.928	12.977	1331.580	1020.767
96.943	12.879	1330.595	1019.315
97.957	12.893	1329.538	1018.501
98.972	12.786	1328.588	1017.022
99.987	12.810	1327.540	1016.283
101.001	12.903	1326.264	1015.785
102.016	12.920	1325.232	1015.012
103.030	12.821	1324.575	1013.807
104.045	12.901	1323.649	1013.501
105.060	12.792	1322.474	1011.843
106.074	12.760	1321.106	1010.514
107.089	12.792	1319.339	1009.264
108.103	12.631	1318.327	1007.416
109.118	12.657	1317.018	1006.488
110.133	12.726	1315.534	1005.687
111.147	12.669	1314.236	1004.254
112.162	12.721	1312.628	1003.255
113.176	12.740	1311.872	1002.704
114.191	12.752	1310.770	1001.846
115.206	12.799	1309.916	1001.391
116.220	12.805	1307.964	999.845
117.235	12.811	1306.987	999.050
118.249	12.804	1306.049	998.202
119.264	12.783	1304.965	997.158
120.279	12.737	1304.151	996.170
121.293	12.597	1302.852	994.241
122.308	12.658	1301.832	993.745
123.322	12.642	1300.791	992.765
124.337	12.714	1299.955	992.470
125.352	12.673	1298.902	991.335
126.366	12.649	1297.686	990.171
127.381	12.776	1296.265	989.764
128.395	12.676	1295.223	988.279
129.410	12.640	1294.589	987.495
130.424	12.871	1293.486	987.948
131.439	12.801	1292.799	986.921
132.454	12.773	1291.931	985.998
133.468	12.893	1290.962	985.889
134.483	12.831	1290.183	984.840
135.497	12.876	1289.015	984.130
136.512	12.867	1287.811	983.068
137.527	12.895	1286.824	982.398
138.541	12.759	1284.910	980.038
139.556	12.955	1283.366	979.941
140.570	12.850	1282.733	978.743
141.585	12.848	1281.428	977.649
142.600	13.015	1279.874	977.370
143.614	12.965	1279.325	976.565
144.629	13.079	1278.261	976.339
145.643	13.122	1276.465	975.136
146.658	12.949	1275.522	973.309
147.673	12.932	1274.159	972.086
148.687	12.911	1272.552	970.646
149.702	12.833	1271.512	969.310
150.716	12.861	1270.057	968.280
151.731	12.887	1269.462	967.896
152.746	12.945	1267.836	966.907
153.760	12.937	1266.414	965.689
154.775	12.994	1265.395	965.163
155.789	12.974	1264.759	964.475
156.804	13.035	1263.465	963.760
157.819	12.989	1262.146	962.402
158.833	13.034	1261.430	962.031
159.848	13.105	1260.163	961.390
160.862	13.163	1259.178	960.891
161.877	13.087	1257.926	959.413
162.892	12.976	1256.835	957.847
163.906	13.024	1256.081	957.469
164.921	12.951	1255.468	956.492
165.935	12.998	1254.040	955.592
166.950	13.053	1253.289	955.254
167.964	13.027	1252.693	954.564
168.979	12.899	1251.960	953.182
169.994	13.043	1251.293	953.424
171.008	13.107	1250.367	953.001
172.023	13.163	1249.552	952.617
173.037	13.123	1248.711	951.661
174.052	13.187	1247.844	951.286
175.067	13.074	1247.007	949.914
176.081	13.070	1245.688	948.805
177.096	13.084	1244.690	948.039
178.110	13.068	1243.958	947.307
179.125	13.106	1242.075	946.008
180.140	13.080	1240.875	944.859
181.154	13.018	1239.922	943.698
182.169	13.122	1238.802	943.353
183.183	13.298	1237.153	943.018
184.198	13.263	1236.238	942.036
185.213	13.268	1235.089	941.109
186.227	13.319	1234.200	940.640
187.242	13.309	1233.150	939.694
188.256	13.364	1231.928	938.993
189.271	13.368	1231.121	938.317
190.286	13.282	1229.893	936.810
191.300	13.122	1229.199	935.295
192.315	13.178	1228.417	934.932
193.329	13.089	1228.226	934.201
194.344	13.126	1227.422	933.718
195.359	13.172	1226.509	933.203
196.373	13.181	1226.135	932.887
197.388	13.437	1225.250	933.573
198.402	13.425	1225.086	933.295
199.417	13.453	1224.576	932.982
200.432	13.616	1223.323	932.863
201.446	13.610	1222.429	932.065
202.461	13.648	1221.571	931.546
203.475	13.743	1220.016	930.810
204.490	13.554	1219.622	929.366
205.504	13.579	1218.111	928.274
206.519	13.581	1216.762	927.171
207.534	13.452	1215.940	925.740
208.548	13.573	1214.336	925.114
209.563	13.556	1214.205	924.839
210.577	13.451	1213.346	923.516
211.592	13.498	1212.495	923.047
212.607	13.509	1211.316	922.133
213.621	13.632	1210.282	921.946
214.636	13.660	1209.388	921.339
215.650	13.635	1208.542	920.474
216.665	13.790	1207.319	920.320
217.680	13.697	1206.579	919.161
218.694	13.773	1205.993	919.055
219.709	13.792	1204.929	918.269
220.723	13.791	1204.164	917.597
221.738	13.720	1203.750	916.806
222.753	13.730	1203.280	916.423
223.767	13.777	1202.269	915.833
224.782	13.779	1201.557	915.222
225.796	13.852	1200.998	915.117
226.811	13.920	1200.018	914.662
227.826	13.868	1199.399	913.826
228.840	13.725	1199.161	912.778
229.855	13.882	1197.649	912.407
230.869	13.791	1197.090	911.401
231.884	13.859	1196.225	911.035
232.899	13.857	1195.362	910.288
233.913	13.877	1194.376	909.564
234.928	13.854	1193.616	908.776
235.942	13.854	1192.832	908.103
236.957	13.873	1192.279	907.705
237.972	13.802	1191.549	906.682
238.986	13.865	1190.881	906.435
240.001	13.802	1190.163	905.464
241.015	13.915	1189.422	905.435
242.030	13.909	1188.329	904.492
243.045	14.015	1187.103	904.058
244.059	14.016	1186.442	903.475
245.074	14.079	1185.711	903.180
246.088	13.963	1185.241	902.112
247.103	14.012	1184.337	901.616
248.117	14.089	1183.604	901.395
249.132	14.160	1183.316	901.478
250.147	14.353	1182.053	901.480
251.161	14.240	1181.734	900.546
252.176	14.250	1180.733	899.759
253.190	14.264	1180.369	899.476
254.205	14.345	1179.647	899.286
255.220	14.394	1179.063	899.026
256.234	14.352	1178.204	898.063
257.249	14.386	1177.688	897.773
258.263	14.333	1177.166	897.013
259.278	14.369	1176.354	896.508
260.293	14.388	1175.745	896.065
261.307	14.473	1174.959	895.842
262.322	14.539	1174.159	895.509
263.336	14.525	1173.601	894.929
264.351	14.509	1172.898	894.229
265.366	14.516	1172.297	893.728
266.380	14.418	1171.969	892.876
267.395	14.511	1170.616	892.261
268.409	14.576	1169.898	891.981
269.424	14.496	1169.502	891.176
270.439	14.537	1168.684	890.690
271.453	14.448	1167.955	889.582
272.468	14.534	1166.894	889.156
273.482	14.490	1166.195	888.310
274.497	14.636	1165.288	888.318
275.512	14.550	1165.102	887.638
276.526	14.632	1163.765	886.976
277.541	14.433	1163.294	885.483
278.555	14.547	1162.484	885.391
279.570	14.633	1161.539	885.051
280.585	14.726	1160.860	884.944
281.599	14.764	1160.053	884.453
282.614	14.759	1158.845	883.429
283.628	14.702	1158.116	882.495
284.643	14.615	1157.125	881.200
285.657	14.676	1156.453	880.934
286.672	14.738	1154.996	880.071
287.687	14.833	1154.111	879.818
288.701	14.800	1153.427	879.049
289.716	14.707	1152.833	878.030
290.730	14.872	1151.681	877.940
291.745	14.835	1151.055	877.189
292.760	14.954	1150.363	877.208
293.774	14.895	1149.798	876.392
294.789	14.887	1149.585	876.108
295.803	14.927	1148.639	875.519
296.818	14.992	1147.882	875.206
297.833	14.779	1147.413	873.655
298.847	14.855	1146.445	873.238
299.862	14.908	1145.257	872.537
300.876	14.854	1145.131	872.077
301.891	14.866	1144.567	871.635
302.906	15.050	1143.177	871.458
303.920	14.978	1143.205	871.026
304.935	15.022	1142.019	870.275
305.949	15.066	1141.678	870.166
306.964	15.119	1141.097	869.925
307.979	15.120	1139.788	868.856
308.993	15.039	1139.444	868.093
310.008	15.143	1138.612	867.920
311.022	15.182	1137.868	867.478
312.037	15.146	1136.747	866.364
313.052	15.138	1135.764	865.494
314.066	15.076	1134.731	864.312
315.081	15.017	1134.119	863.464
316.095	15.089	1133.184	863.046
317.110	15.019	1132.606	862.169
318.125	15.047	1131.993	861.773
319.139	15.054	1131.038	861.006
320.154	15.141	1130.243	860.771
321.168	15.078	1129.958	860.151
322.183	15.089	1129.343	859.667
323.197	15.220	1128.602	859.696
324.212	15.174	1127.863	858.822
325.227	15.173	1127.177	858.218
326.241	15.204	1126.723	857.958
327.256	15.251	1125.922	857.510
328.270	15.290	1124.843	856.811
329.285	15.257	1123.991	855.920
330.300	15.343	1122.552	855.185
331.314	15.313	1121.777	854.369
332.329	15.299	1121.194	853.774
333.343	15.251	1120.275	852.759
334.358	15.454	1119.244	852.926
335.373	15.429	1118.512	852.167
336.387	15.343	1118.089	851.332
337.402	15.362	1117.397	850.826
338.416	15.407	1116.953	850.643
339.431	15.399	1116.120	849.891
340.446	15.484	1115.464	849.747
341.460	15.545	1114.751	849.439
342.475	15.608	1113.564	848.779
343.489	15.625	1112.875	848.263
344.504	15.755	1111.522	847.810
345.519	15.666	1111.031	846.912
346.533	15.714	1110.155	846.411
347.548	15.805	1109.458	846.264
348.562	15.696	1108.624	845.005
349.577	15.729	1107.825	844.486
350.592	15.694	1107.096	843.680
351.606	15.662	1106.090	842.681
352.621	15.562	1105.542	841.687
353.635	15.635	1104.923	841.507
354.650	15.685	1103.953	840.942
355.665	15.601	1103.663	840.226
356.679	15.633	1102.812	839.665
357.694	15.809	1102.385	840.143
358.708	15.830	1101.509	839.505
359.723	15.621	1101.266	838.205
360.738	15.830	1100.367	838.488
361.752	15.764	1099.769	837.630
362.767	15.732	1099.502	837.194
363.781	15.806	1098.935	837.053
364.796	15.939	1098.051	836.969
365.810	15.903	1097.094	835.986
366.825	15.922	1097.006	835.938
367.840	15.940	1096.165	835.316
368.854	16.107	1095.715	835.725
369.869	16.136	1094.558	834.911
370.883	15.859	1094.252	833.237
371.898	16.002	1093.253	833.108
372.913	15.899	1092.913	832.263
373.927	15.982	1092.145	832.016
374.942	15.950	1091.810	831.532
375.956	16.170	1090.934	831.872
376.971	16.088	1090.448	831.023
377.986	16.118	1090.435	831.088
379.000	16.160	1089.604	830.590
380.015	16.181	1088.878	830.065
381.029	16.281	1088.042	829.847
382.044	16.223	1087.352	828.963
383.059	16.221	1086.876	828.516
384.073	16.222	1086.022	827.798
385.088	16.228	1084.937	826.927
386.102	16.302	1083.622	826.215
387.117	16.227	1083.074	825.357
388.132	16.174	1082.005	824.210
389.146	16.173	1081.352	823.632
390.161	16.161	1080.768	823.057
391.175	16.110	1080.285	822.367
392.190	16.161	1079.346	821.827
393.205	16.299	1078.677	821.918
394.219	16.361	1077.522	821.267
395.234	16.437	1076.594	820.855
396.248	16.367	1075.536	819.639
397.263	16.323	1074.528	818.583
398.278	16.313	1074.094	818.130
399.292	16.293	1073.178	817.266
400.307	16.205	1072.761	816.451
401.321	16.275	1071.805	815.986
402.336	16.402	1070.751	815.724
403.350	16.385	1070.443	815.337
404.365	16.370	1070.021	814.871
405.380	16.322	1069.100	813.865
406.394	16.424	1068.589	813.894
407.409	16.496	1067.896	813.642
408.423	16.601	1067.008	813.399
409.438	16.661	1065.862	812.743
410.453	16.668	1065.277	812.258
411.467	16.600	1064.762	811.469
412.482	16.635	1063.793	810.825
413.496	16.537	1063.182	809.818
414.511	16.649	1062.928	810.090
415.526	16.795	1062.410	810.323
416.540	16.783	1061.861	809.775
417.555	16.743	1061.393	809.154
418.569	16.760	1060.653	808.600
419.584	16.736	1060.042	807.946
420.599	16.731	1059.789	807.659
421.613	83.627	1293.362	1358.574
422.628	77.133	1327.404	1358.719
