DTS Sentinel unit serial number:	SN413079Multiplexer serial number:	ORYXHardware model number:	OX4-SRSoftware version number:	ORYX F/W v4.00 Oryx Data Collector v3.7.2.0data status	okinstallation	princeton_trtdifferential loss correction	single-endedforward channel	channel 2reverse channel	N/Adate	2019/09/18time	00:23:35forward acquisition time	60.00reverse acquisition time	0.00gamma	496.2192k internal	0.2350k external	0.2350temperature offset calibration	0.9982default loss term (dB/km)	0.3790temperature slope calibration	1.0000multiplexer offset coefficient	1.0000multiplexer slope coefficient	1.0000fibre end	0.00T internal ref (°C)	23.62T ext. ref 1 (°C)	0.16T ext. ref 2 (°C)	17.28length (m)	temperature (°C)	Stokes	anti-Stokes-747.200	-111.219	0.381	0.078
-746.185	-200.000	0.066	0.293
-745.171	800.000	0.065	-0.215
-744.156	-48.323	-0.227	-0.109
-743.142	-14.455	0.316	0.203
-742.127	-77.821	0.103	-0.035
-741.112	-65.719	-0.221	0.089
-740.098	-138.226	-0.373	-0.041
-739.083	432.679	-0.061	-0.132
-738.069	800.000	0.038	0.121
-737.054	-95.104	-0.182	0.049
-736.039	800.000	-0.040	-0.169
-735.025	-200.000	-0.021	-0.157
-734.010	18.719	-0.015	0.012
-732.996	-140.228	-0.331	-0.035
-731.981	-105.732	0.175	-0.039
-730.966	-50.245	-0.206	0.097
-729.952	43.761	-0.184	0.168
-728.937	-137.690	-0.123	-0.014
-727.923	-74.770	0.176	-0.063
-726.908	76.633	-0.180	-0.190
-725.894	319.391	-0.257	-0.485
-724.879	530.483	-0.016	-0.037
-723.864	157.520	0.151	0.208
-722.850	44.686	0.049	0.045
-721.835	214.950	0.031	-0.049
-720.821	-200.000	0.003	-0.112
-719.806	-0.585	0.177	-0.125
-718.791	-99.285	-0.372	-0.094
-717.777	406.238	-0.110	-0.232
-716.762	800.000	0.092	0.329
-715.748	-40.553	0.091	-0.047
-714.733	44.481	-0.183	-0.168
-713.718	-12.108	-0.227	0.148
-712.704	800.000	0.073	-0.288
-711.689	-53.108	-0.233	-0.107
-710.675	800.000	0.044	-0.176
-709.660	800.000	0.059	0.251
-708.645	800.000	0.012	0.053
-707.631	363.155	0.072	-0.145
-706.616	34.034	-0.068	0.059
-705.602	44.346	0.410	0.375
-704.587	112.067	0.126	0.152
-703.572	281.779	-0.044	-0.079
-702.558	800.000	-0.105	-0.384
-701.543	82.025	-0.042	0.045
-700.529	-160.460	-0.335	-0.018
-699.514	-64.861	0.088	-0.036
-698.499	-200.000	-0.005	0.032
-697.485	235.176	-0.090	0.147
-696.470	-98.795	-0.422	-0.107
-695.456	-48.478	-0.256	-0.123
-694.441	-139.114	-0.137	-0.015
-693.426	51.441	0.109	0.103
-692.412	-115.892	-0.514	-0.096
-691.397	25.380	-0.145	0.120
-690.383	-154.920	-0.080	0.005
-689.368	-29.472	-0.136	0.077
-688.354	-200.000	-0.011	-0.175
-687.339	-175.179	-0.152	-0.004
-686.324	-65.913	0.312	-0.124
-685.310	47.323	-0.164	-0.152
-684.295	-103.330	-0.232	-0.054
-683.281	-75.204	0.245	0.087
-682.266	-200.000	0.017	-0.085
-681.251	-200.000	-0.015	-0.408
-680.237	-200.000	-0.003	-0.132
-679.222	-20.201	-0.165	0.101
-678.208	553.776	0.040	-0.097
-677.193	-4.084	0.089	-0.061
-676.178	190.759	-0.141	-0.211
-675.164	-10.253	0.166	0.110
-674.149	-176.622	-0.257	0.007
-673.135	-1.615	0.048	0.034
-672.120	266.743	-0.072	-0.126
-671.105	457.547	-0.128	-0.282
-670.091	139.777	-0.121	-0.158
-669.076	-66.296	-0.143	0.056
-668.062	-200.000	0.013	-0.197
-667.047	-123.500	0.023	0.004
-666.032	-200.000	-0.007	-0.223
-665.018	96.966	0.096	0.110
-664.003	-200.000	0.020	-0.437
-662.989	-90.808	-0.240	-0.069
-661.974	78.246	-0.213	-0.226
-660.959	-200.000	0.043	-0.235
-659.945	-73.464	-0.290	-0.105
-658.930	-23.034	-0.195	-0.117
-657.916	74.896	-0.145	0.152
-656.901	-121.891	-0.153	0.025
-655.886	-104.800	0.348	0.080
-654.872	51.354	-0.109	-0.103
-653.857	141.488	0.197	-0.259
-652.843	-4.528	-0.206	0.142
-651.828	-79.664	-0.119	-0.040
-650.814	-28.364	0.178	-0.102
-649.799	7.457	0.156	0.116
-648.784	-85.919	0.266	-0.082
-647.770	-105.350	-0.269	0.061
-646.755	-75.134	0.193	0.069
-645.741	-124.871	-0.161	0.025
-644.726	-200.000	-0.054	0.322
-643.711	-200.000	-0.001	0.174
-642.697	-91.385	-0.357	-0.101
-641.682	-200.000	0.008	-0.085
-640.668	800.000	-0.097	-0.288
-639.653	12.183	-0.308	-0.236
-638.638	-88.733	-0.245	-0.072
-637.624	199.980	0.084	-0.128
-636.609	101.774	0.121	0.141
-635.595	-189.361	0.277	-0.003
-634.580	-125.570	0.338	0.051
-633.565	-0.997	-0.223	-0.157
-632.551	-14.611	0.111	-0.071
-631.536	800.000	-0.127	-0.409
-630.522	-200.000	-0.010	-0.090
-629.507	-200.000	0.049	-0.281
-628.492	127.254	0.128	-0.161
-627.478	-78.621	0.176	-0.060
-626.463	-200.000	-0.005	0.163
-625.449	462.968	-0.034	0.076
-624.434	-98.913	0.137	0.035
-623.419	-111.264	0.428	0.087
-622.405	142.142	0.036	-0.047
-621.390	152.776	-0.259	-0.351
-620.376	-13.051	0.230	0.149
-619.361	800.000	-0.164	-0.511
-618.346	120.327	0.262	0.323
-617.332	89.016	0.113	0.125
-616.317	139.372	-0.114	0.149
-615.303	-59.416	-0.188	0.080
-614.288	-58.646	-0.071	0.031
-613.273	-90.280	-0.169	0.049
-612.259	800.000	0.055	-0.167
-611.244	-167.370	-0.263	-0.010
-610.230	-117.157	-0.113	-0.021
-609.215	-200.000	-0.047	-0.236
-608.201	800.000	-0.043	-0.144
-607.186	-200.000	0.039	-0.286
-606.171	-36.392	0.128	0.068
-605.157	7.381	0.161	0.120
-604.142	-200.000	-0.011	0.116
-603.128	6.540	-0.215	-0.159
-602.113	-63.426	0.217	-0.089
-601.098	230.430	0.057	0.093
-600.084	-36.467	0.156	-0.083
-599.069	117.990	0.201	-0.246
-598.055	-19.814	-0.155	0.095
-597.040	-55.344	0.074	0.033
-596.025	1.156	0.139	-0.099
-595.011	130.791	-0.264	-0.336
-593.996	-88.069	0.241	-0.072
-592.982	800.000	-0.067	0.217
-591.967	182.988	0.079	-0.116
-590.952	358.348	-0.049	-0.097
-589.938	-87.042	0.324	-0.098
-588.923	-71.881	0.178	0.066
-587.909	-131.175	-0.167	-0.022
-586.894	-110.537	-0.120	-0.025
-585.879	-93.815	0.141	-0.038
-584.865	123.136	0.078	-0.097
-583.850	-158.050	-0.180	0.010
-582.836	-80.608	0.098	0.032
-581.821	-117.211	-0.276	0.050
-580.806	114.751	-0.093	0.113
-579.792	-174.289	-0.265	-0.008
-578.777	-103.649	0.123	-0.029
-577.763	282.984	-0.112	-0.200
-576.748	-123.817	-0.103	-0.016
-575.733	-59.455	-0.162	0.069
-574.719	12.728	-0.118	-0.091
-573.704	-54.422	-0.104	0.047
-572.690	-200.000	0.014	0.210
-571.675	99.632	-0.293	-0.336
-570.661	-150.159	-0.141	0.011
-569.646	-105.835	-0.124	0.028
-568.631	-119.199	-0.077	0.013
-567.617	-200.000	0.046	0.254
-566.602	9.038	-0.368	0.275
-565.588	-200.000	0.025	-0.183
-564.573	3.025	0.099	-0.071
-563.558	-71.453	0.287	-0.107
-562.544	-183.736	-0.481	-0.008
-561.529	-200.000	-0.013	0.197
-560.515	-200.000	0.056	0.321
-559.500	800.000	-0.048	-0.150
-558.485	-174.041	0.154	0.004
-557.471	-9.356	-0.054	-0.036
-556.456	-40.371	0.092	0.047
-555.442	239.276	0.094	-0.155
-554.427	800.000	0.089	-0.343
-553.412	-69.294	-0.168	0.064
-552.398	-44.437	0.366	-0.181
-551.383	-200.000	0.003	-0.047
-550.369	-20.852	0.353	-0.214
-549.354	190.455	0.256	-0.381
-548.339	-30.589	0.127	0.071
-547.325	-200.000	-0.085	0.415
-546.310	417.512	0.177	-0.374
-545.296	-100.518	0.322	0.079
-544.281	-62.298	0.134	-0.055
-543.266	0.922	0.077	-0.054
-542.252	72.374	0.060	-0.062
-541.237	-29.191	-0.336	-0.191
-540.223	-50.154	0.238	-0.112
-539.208	-66.221	-0.175	0.069
-538.193	112.731	0.180	0.216
-537.179	800.000	0.034	0.095
-536.164	-79.893	-0.187	0.062
-535.150	423.477	-0.107	-0.227
-534.135	36.830	0.091	0.080
-533.121	-15.183	-0.119	0.075
-532.106	-55.780	0.139	-0.062
-531.091	-200.000	-0.043	0.216
-530.077	-9.724	-0.325	0.214
-529.062	-191.010	-0.211	0.002
-528.048	-61.004	-0.223	-0.093
-527.033	-200.000	-0.097	0.469
-526.018	142.727	0.080	-0.105
-525.004	-15.005	0.149	0.094
-523.989	-200.000	0.079	0.498
-522.975	-9.045	0.320	0.212
-521.960	-6.306	0.150	0.101
-520.945	-87.629	0.228	0.068
-519.931	116.790	0.194	-0.236
-518.916	-153.494	0.274	0.019
-517.902	-200.000	-0.007	-0.261
-516.887	175.039	0.093	-0.134
-515.872	382.221	-0.020	0.040
-514.858	402.425	0.087	0.180
-513.843	-15.662	0.427	0.269
-512.829	57.967	-0.252	0.244
-511.814	-31.262	-0.165	0.092
-510.799	236.815	-0.150	0.245
-509.785	-5.556	-0.169	0.115
-508.770	-200.000	0.027	-0.316
-507.756	-200.000	0.060	0.305
-506.741	283.574	-0.042	-0.074
-505.726	56.115	0.371	0.356
-504.712	-41.247	-0.152	-0.078
-503.697	97.879	-0.129	0.147
-502.683	153.561	0.210	-0.284
-501.668	271.722	0.119	0.208
-500.653	138.465	-0.214	-0.277
-499.639	-15.487	0.307	-0.194
-498.624	-71.790	0.284	0.105
-497.610	-103.614	-0.319	-0.074
-496.595	23.187	-0.116	-0.094
-495.581	-200.000	-0.001	-0.132
-494.566	-97.142	-0.204	-0.053
-493.551	-125.767	0.135	-0.020
-492.537	209.380	-0.145	-0.224
-491.522	-118.015	0.150	0.027
-490.508	219.394	0.050	0.080
-489.493	-30.590	-0.229	0.128
-488.478	-174.936	-0.143	0.004
-487.464	420.125	-0.041	0.087
-486.449	800.000	0.066	-0.208
-485.435	-102.351	-0.293	0.069
-484.420	-134.385	-0.071	0.009
-483.405	82.702	-0.166	-0.178
-482.391	-129.728	-0.091	-0.012
-481.376	46.052	0.069	0.063
-480.362	-110.183	0.217	-0.045
-479.347	-116.372	0.340	-0.062
-478.332	67.659	-0.293	0.296
-477.318	97.013	0.247	0.280
-476.303	-66.072	-0.258	0.102
-475.289	299.938	-0.078	0.143
-474.274	578.508	0.171	0.412
-473.259	155.009	0.108	-0.147
-472.245	800.000	-0.020	-0.067
-471.230	800.000	0.070	0.265
-470.216	41.243	-0.128	-0.115
-469.201	-52.543	-0.168	-0.077
-468.186	51.761	0.160	0.151
-467.172	29.949	-0.119	-0.100
-466.157	-200.000	-0.005	0.098
-465.143	-83.327	0.024	0.008
-464.128	9.190	0.375	-0.280
-463.113	201.736	0.019	0.029
-462.099	-16.532	0.073	0.046
-461.084	-44.519	0.372	0.184
-460.070	534.527	0.135	0.316
-459.055	-70.152	-0.102	-0.038
-458.040	-140.405	0.151	0.016
-457.026	-200.000	0.063	-0.410
-456.011	397.221	-0.143	-0.296
-454.997	310.292	0.112	-0.208
-453.982	67.179	-0.269	0.271
-452.968	-146.650	-0.084	0.007
-451.953	648.083	0.168	-0.424
-450.938	254.364	-0.214	-0.362
-449.924	-64.470	0.261	0.105
-448.909	104.059	-0.112	0.130
-447.895	-20.491	0.056	-0.034
-446.880	-200.000	0.014	-0.097
-445.865	6.781	0.039	0.028
-444.851	164.801	-0.147	0.205
-443.836	-86.606	-0.302	0.091
-442.822	-18.777	0.580	0.357
-441.807	-150.356	-0.196	0.015
-440.792	53.843	0.113	-0.107
-439.778	76.166	-0.141	-0.148
-438.763	-13.264	-0.042	-0.027
-437.749	-120.252	0.230	-0.039
-436.734	464.166	0.019	0.041
-435.719	-56.613	0.048	0.021
-434.705	800.000	0.106	0.314
-433.690	800.000	-0.087	0.316
-432.676	210.783	-0.125	0.194
-431.661	281.397	-0.166	-0.293
-430.646	-200.000	0.017	-0.197
-429.632	-28.924	-0.120	-0.068
-428.617	-105.956	0.235	-0.052
-427.603	-23.853	0.112	0.066
-426.588	-15.974	-0.033	-0.021
-425.573	800.000	0.070	0.223
-424.559	-200.000	0.019	0.170
-423.544	-62.415	0.246	0.101
-422.530	257.048	-0.146	0.247
-421.515	-200.000	0.001	-0.006
-420.500	269.005	-0.194	0.335
-419.486	352.714	0.172	-0.337
-418.471	85.021	0.069	0.075
-417.457	202.798	0.087	0.132
-416.442	-200.000	0.007	-0.152
-415.428	800.000	-0.034	0.115
-414.413	800.000	0.037	-0.103
-413.398	-57.471	-0.391	-0.169
-412.384	71.113	-0.078	-0.080
-411.369	800.000	-0.102	-0.304
-410.355	800.000	0.045	0.125
-409.340	319.620	-0.007	-0.012
-408.325	-113.418	-0.247	0.048
-407.311	143.267	0.190	0.249
-406.296	-23.408	-0.093	-0.055
-405.282	725.445	-0.074	-0.195
-404.267	321.912	-0.047	0.088
-403.252	-29.046	-0.150	0.085
-402.238	10.200	0.118	-0.089
-401.223	-133.130	-0.186	-0.023
-400.209	800.000	-0.140	0.385
-399.194	-57.279	0.046	-0.020
-398.179	3.474	-0.082	0.059
-397.165	26.294	-0.294	0.242
-396.150	-143.442	-0.162	-0.015
-395.136	-200.000	0.031	0.176
-394.121	-59.811	-0.243	0.102
-393.106	-176.732	-0.093	0.002
-392.092	127.646	-0.192	-0.241
-391.077	183.309	0.144	0.209
-390.063	5.170	0.196	-0.142
-389.048	-32.209	-0.205	-0.113
-388.033	375.640	0.048	-0.097
-387.019	-200.000	-0.029	-0.424
-386.004	641.210	-0.006	0.014
-384.990	-96.320	-0.601	-0.157
-383.975	111.814	0.087	-0.104
-382.960	-86.136	0.480	0.146
-381.946	74.992	0.215	0.223
-380.931	-83.786	0.289	-0.091
-379.917	-149.514	0.411	0.032
-378.902	47.132	-0.183	-0.168
-377.888	192.652	-0.079	0.117
-376.873	8.970	0.113	0.084
-375.858	-200.000	0.009	-0.242
-374.844	800.000	0.060	-0.166
-373.829	483.123	0.063	0.140
-372.815	-51.032	-0.324	-0.150
-371.800	-165.121	-0.074	-0.003
-370.785	-111.465	-0.320	0.064
-369.771	151.398	0.078	-0.105
-368.756	70.562	0.205	-0.209
-367.742	387.586	0.113	0.229
-366.727	16.164	0.133	0.103
-365.712	129.302	-0.152	0.190
-364.698	28.582	0.302	-0.251
-363.683	139.781	-0.193	-0.250
-362.669	348.128	0.086	0.166
-361.654	-101.330	-0.275	-0.066
-360.639	-200.000	-0.057	-0.279
-359.625	-200.000	-0.057	-0.607
-358.610	-27.879	-0.079	-0.045
-357.596	-11.257	0.186	-0.121
-356.581	-200.000	0.011	-0.251
-355.566	-147.697	-0.117	0.010
-354.552	39.301	-0.214	-0.188
-353.537	111.304	0.212	-0.252
-352.523	82.727	0.162	0.173
-351.508	-200.000	-0.057	0.292
-350.493	318.174	-0.128	-0.238
-349.479	0.544	-0.086	-0.060
-348.464	-200.000	0.025	-0.147
-347.450	-175.239	-0.218	-0.006
-346.435	467.118	-0.093	0.205
-345.420	-9.461	-0.289	-0.189
-344.406	137.244	-0.068	-0.088
-343.391	236.758	-0.065	-0.106
-342.377	215.392	-0.095	0.148
-341.362	6.028	0.321	-0.233
-340.348	132.419	-0.146	-0.185
-339.333	-1.524	-0.267	-0.185
-338.318	68.348	0.136	-0.137
-337.304	143.465	-0.201	-0.263
-336.289	74.755	0.112	0.116
-335.275	141.499	0.267	0.347
-334.260	10.153	0.352	0.263
-333.245	267.433	-0.097	-0.166
-332.231	800.000	0.066	0.234
-331.216	-100.442	-0.141	0.034
-330.202	-129.674	-0.204	0.028
-329.187	-200.000	0.040	-0.346
-328.172	-21.905	0.078	-0.047
-327.158	-65.600	-0.103	-0.041
-326.143	-125.444	0.237	0.035
-325.129	-45.292	-0.315	-0.153
-324.114	-46.568	0.215	-0.104
-323.099	-108.213	0.254	0.054
-322.085	252.546	-0.195	0.326
-321.070	-160.116	0.220	0.012
-320.056	-200.000	-0.008	0.488
-319.041	94.203	0.322	0.359
-318.026	800.000	0.085	-0.243
-317.012	-27.435	0.190	-0.109
-315.997	355.952	0.160	-0.312
-314.983	-113.544	-0.099	-0.019
-313.968	276.816	0.146	0.255
-312.953	-82.297	-0.118	-0.038
-311.939	800.000	-0.068	0.223
-310.924	-0.797	0.136	0.095
-309.910	-21.742	-0.440	0.263
-308.895	-31.211	0.235	-0.130
-307.880	-60.908	-0.250	0.104
-306.866	-105.203	0.205	0.046
-305.851	68.527	0.054	-0.055
-304.837	12.772	0.074	-0.056
-303.822	128.924	0.090	0.113
-302.807	-25.994	0.364	0.210
-301.793	47.541	0.187	0.171
-300.778	-200.000	-0.054	0.475
-299.764	-11.928	-0.051	-0.033
-298.749	-117.170	0.201	0.036
-297.735	-200.000	0.021	0.203
-296.720	-19.152	0.298	0.182
-295.705	-109.100	0.350	-0.073
-294.691	-133.753	-0.231	-0.028
-293.676	51.336	-0.209	-0.195
-292.662	-194.186	0.207	0.002
-291.647	800.000	0.049	-0.200
-290.632	-101.860	0.114	-0.027
-289.618	-107.286	-0.125	-0.027
-288.603	-36.858	0.248	0.131
-287.589	81.848	0.030	-0.031
-286.574	94.630	-0.104	-0.116
-285.559	-200.000	0.034	-0.268
-284.545	319.346	-0.050	-0.092
-283.530	725.766	-0.023	-0.060
-282.516	37.628	0.188	-0.164
-281.501	-162.368	0.030	0.001
-280.486	57.906	-0.313	0.300
-279.472	800.000	-0.082	0.242
-278.457	284.792	-0.177	0.313
-277.443	79.138	0.166	-0.175
-276.428	-80.586	-0.317	-0.104
-275.413	-200.000	-0.031	-0.172
-274.399	-200.000	0.009	0.191
-273.384	-29.711	0.084	0.047
-272.370	-161.007	-0.275	0.014
-271.355	-79.976	0.163	-0.054
-270.340	-97.093	-0.408	-0.105
-269.326	-161.004	-0.099	-0.005
-268.311	800.000	0.082	-0.268
-267.297	286.664	0.112	-0.199
-266.282	11.182	0.119	0.089
-265.267	-200.000	0.034	-0.156
-264.253	42.686	0.035	0.031
-263.238	-57.088	-0.155	-0.067
-262.224	-200.000	-0.015	-0.069
-261.209	12.939	0.084	-0.064
-260.195	561.323	-0.151	0.357
-259.180	-31.242	0.428	0.236
-258.165	170.798	-0.167	0.235
-257.151	40.620	-0.075	0.066
-256.136	-140.260	0.044	0.004
-255.122	316.769	0.184	0.340
-254.107	-68.109	0.097	-0.037
-253.092	94.620	0.162	0.180
-252.078	-15.524	-0.094	-0.059
-251.063	123.963	0.115	0.141
-250.049	252.747	-0.096	0.160
-249.034	-171.870	0.354	-0.011
-248.019	-170.292	-0.145	-0.005
-247.005	-82.198	0.358	-0.114
-245.990	23.590	-0.330	0.266
-244.976	36.745	0.245	-0.212
-243.961	-35.396	0.034	-0.018
-242.946	-85.679	-0.492	-0.150
-241.932	2.200	-0.170	0.121
-240.917	-0.443	-0.263	0.183
-239.903	800.000	-0.066	0.193
-238.888	206.113	-0.105	-0.160
-237.873	-51.246	0.456	-0.209
-236.859	-51.201	0.421	0.193
-235.844	-200.000	-0.052	-0.424
-234.830	-11.374	0.240	0.154
-233.815	63.089	0.081	-0.080
-232.800	-3.948	-0.114	-0.077
-231.786	-102.015	-0.189	-0.045
-230.771	167.342	0.077	-0.107
-229.757	47.791	0.068	-0.062
-228.742	800.000	-0.091	-0.338
-227.727	800.000	-0.111	0.416
-226.713	-0.183	-0.366	-0.255
-225.698	-200.000	0.035	-0.336
-224.684	-86.014	-0.220	-0.067
-223.669	-94.804	-0.147	0.039
-222.655	1.761	-0.134	-0.095
-221.640	257.605	0.038	-0.063
-220.625	-108.632	-0.243	0.051
-219.611	243.560	0.075	-0.123
-218.596	183.205	0.042	0.061
-217.582	185.604	0.109	0.159
-216.567	365.742	0.098	0.193
-215.552	-37.795	-0.252	-0.131
-214.538	-151.259	0.325	-0.024
-213.523	-61.713	0.206	-0.084
-212.509	-143.310	0.119	-0.011
-211.494	307.151	0.099	-0.181
-210.479	191.664	0.111	-0.164
-209.465	23.514	0.087	0.070
-208.450	60.088	0.263	-0.254
-207.436	30.805	0.055	-0.046
-206.421	567.729	0.068	-0.161
-205.406	-22.505	-0.134	-0.079
-204.392	199.075	-0.171	-0.256
-203.377	306.551	-0.097	0.177
-202.363	287.529	-0.031	0.055
-201.348	-200.000	-0.045	0.219
-200.333	34.716	0.206	0.176
-199.319	385.196	0.073	-0.148
-198.304	212.564	-0.176	-0.271
-197.290	-107.174	-0.180	-0.039
-196.275	800.000	-0.132	0.375
-195.260	-97.926	-0.199	-0.050
-194.246	42.438	-0.225	-0.200
-193.231	800.000	0.055	-0.183
-192.217	306.224	-0.145	0.264
-191.202	-15.615	0.168	-0.105
-190.187	211.373	0.127	-0.195
-189.173	-200.000	0.061	0.304
-188.158	108.946	-0.327	0.382
-187.144	172.466	-0.092	0.130
-186.129	39.961	0.194	0.170
-185.114	525.512	-0.155	-0.355
-184.100	116.111	-0.222	-0.265
-183.085	-65.030	0.275	0.109
-182.071	-200.000	0.034	0.228
-181.056	-200.000	-0.007	-0.273
-180.042	77.045	-0.121	0.126
-179.027	-81.063	-0.408	-0.132
-178.012	-200.000	-0.013	-0.085
-176.998	40.239	0.101	-0.089
-175.983	-200.000	-0.034	-0.150
-174.969	108.059	-0.141	0.164
-173.954	33.318	0.138	0.117
-172.939	-144.964	0.038	-0.003
-171.925	-200.000	0.023	0.349
-170.910	503.508	0.090	0.202
-169.896	43.597	-0.283	0.253
-168.881	-124.181	0.365	-0.056
-167.866	-32.508	-0.088	0.048
-166.852	412.937	0.053	0.111
-165.837	6.912	-0.364	0.265
-164.823	800.000	0.030	0.115
-163.808	-128.766	0.359	-0.049
-162.793	421.696	-0.086	0.181
-161.779	673.540	-0.148	0.375
-160.764	800.000	0.119	0.369
-159.750	-58.027	0.075	-0.032
-158.735	-146.075	-0.129	-0.011
-157.720	-94.104	-0.285	0.076
-156.706	-27.045	0.279	0.159
-155.691	-97.553	-0.471	-0.119
-154.677	-117.352	-0.301	-0.053
-153.662	-200.000	0.009	0.139
-152.647	-28.531	-0.161	0.090
-151.633	143.393	0.141	-0.183
-150.618	800.000	0.082	-0.243
-149.604	-200.000	0.011	-0.265
-148.589	237.072	-0.061	-0.099
-147.574	-177.153	0.120	0.003
-146.560	800.000	-0.063	0.223
-145.545	-102.439	0.095	0.022
-144.531	-27.014	0.182	-0.104
-143.516	342.982	0.099	0.189
-142.502	72.332	0.162	0.165
-141.487	0.270	-0.425	0.296
-140.472	800.000	0.145	-0.459
-139.458	-200.000	-0.004	-0.404
-138.443	800.000	-0.084	0.308
-137.429	-28.935	-0.023	0.013
-136.414	48.087	-0.161	0.147
-135.399	557.637	-0.105	0.247
-134.385	-200.000	-0.017	-0.129
-133.370	1.069	0.188	-0.131
-132.356	-41.953	0.236	-0.118
-131.341	-76.546	0.172	0.059
-130.326	1.544	-0.162	0.114
-129.312	-124.382	-0.188	-0.029
-128.297	479.717	0.052	-0.115
-127.283	-160.713	0.380	0.020
-126.268	-49.260	-0.127	0.059
-125.253	80.544	0.147	-0.154
-124.239	-200.000	0.013	0.410
-123.224	-146.623	0.239	-0.020
-122.210	-200.000	-0.007	-0.055
-121.195	160.153	0.177	0.240
-120.180	-30.243	-0.431	0.238
-119.166	1.509	0.176	-0.123
-118.151	-42.950	0.284	0.140
-117.137	355.968	-0.115	-0.223
-116.122	-71.351	0.414	-0.151
-115.107	-200.000	-0.007	0.073
-114.093	-66.113	-0.177	-0.069
-113.078	726.071	-0.079	0.204
-112.064	37.848	-0.227	0.197
-111.049	-24.765	0.363	0.210
-110.034	116.995	-0.071	0.085
-109.020	800.000	0.044	0.179
-108.005	-200.000	-0.001	-0.138
-106.991	0.392	0.019	0.013
-105.976	403.191	-0.153	-0.313
-104.962	46.500	0.171	0.154
-103.947	-200.000	0.037	-0.219
-102.932	-200.000	-0.020	-0.175
-101.918	-60.393	0.181	0.075
-100.903	-192.226	0.187	0.002
-99.889	-37.666	0.107	-0.056
-98.874	81.882	0.231	0.244
-97.859	-67.421	0.126	0.048
-96.845	397.930	-0.089	0.181
-95.830	-108.688	-0.209	-0.044
-94.816	-145.171	0.091	-0.008
-93.801	-54.710	0.228	-0.100
-92.786	244.573	0.091	0.149
-91.772	-17.047	-0.230	0.142
-90.757	439.839	0.088	0.187
-89.743	-200.000	0.006	-0.049
-88.728	-200.000	-0.027	0.173
-87.713	-113.324	-0.287	-0.055
-86.699	-33.034	0.159	-0.086
-85.684	-133.159	-0.272	0.034
-84.670	-129.808	-0.107	-0.014
-83.655	-28.549	0.055	0.031
-82.640	32.857	-0.118	-0.100
-81.626	-72.978	-0.060	-0.021
-80.611	74.961	0.269	0.275
-79.597	-27.711	-0.088	-0.049
-78.582	-200.000	0.007	0.251
-77.567	800.000	0.032	0.087
-76.553	-118.588	0.424	-0.073
-75.538	116.721	-0.146	0.175
-74.524	-177.603	0.052	-0.001
-73.509	-37.267	-0.407	-0.211
-72.494	8.472	0.175	-0.128
-71.480	-54.907	0.361	0.158
-70.465	-29.218	-0.234	-0.130
-69.451	-200.000	-0.043	-0.224
-68.436	157.143	-0.147	-0.198
-67.422	800.000	0.066	0.254
-66.407	800.000	-0.079	-0.258
-65.392	363.770	-0.026	-0.051
-64.378	-67.838	0.223	-0.085
-63.363	80.936	-0.126	-0.132
-62.349	242.919	0.049	0.079
-61.334	62.374	-1.087	-1.055
-60.319	8.708	0.868	0.636
-59.305	800.000	-0.464	-1.318
-58.290	243.838	0.745	1.215
-57.276	234.520	0.775	1.241
-56.261	-200.000	123.195	665.369
-55.246	444.636	1545.889	3297.393
-54.232	147.144	2703.808	3535.404
-53.217	91.943	2280.552	2494.359
-52.203	32.631	1894.993	1592.263
-51.188	26.563	1693.184	1376.653
-50.173	24.554	1653.875	1329.701
-49.159	46.442	1722.360	1552.154
-48.144	43.877	1734.749	1543.744
-47.130	26.307	1685.707	1368.416
-46.115	23.657	1671.011	1336.519
-45.100	23.540	1665.831	1331.439
-44.086	23.649	1662.975	1329.923
-43.071	23.478	1661.309	1327.255
-42.057	23.465	1659.377	1325.561
-41.042	23.523	1657.279	1324.269
-40.027	23.499	1655.235	1322.406
-39.013	23.454	1653.312	1320.481
-37.998	23.511	1651.395	1319.320
-36.984	23.547	1650.685	1318.968
-35.969	23.686	1648.800	1318.443
-34.954	23.654	1647.480	1317.100
-33.940	23.592	1645.890	1315.315
-32.925	23.590	1644.344	1314.010
-31.911	23.568	1642.486	1312.309
-30.896	23.575	1640.876	1311.025
-29.881	23.611	1639.218	1309.917
-28.867	23.572	1638.149	1308.721
-27.852	23.597	1636.161	1307.262
-26.838	23.608	1634.579	1306.032
-25.823	23.576	1633.703	1305.046
-24.809	23.652	1632.510	1304.594
-23.794	23.642	1631.585	1303.728
-22.779	23.654	1629.757	1302.305
-21.765	23.643	1627.799	1300.611
-20.750	23.584	1625.909	1298.617
-19.736	23.787	1624.278	1298.744
-18.721	23.645	1623.576	1297.094
-17.706	23.656	1621.484	1295.454
-16.692	23.591	1620.585	1294.213
-15.677	23.572	1619.237	1292.945
-14.663	23.679	1617.985	1292.670
-13.648	23.669	1616.962	1291.733
-12.633	23.789	1614.944	1290.942
-11.619	23.703	1613.668	1289.243
-10.604	23.618	1612.290	1287.475
-9.590	23.717	1610.882	1287.013
-8.575	23.758	1609.583	1286.228
-7.560	23.658	1608.393	1284.496
-6.546	23.658	1607.454	1283.696
-5.531	23.677	1606.359	1282.911
-4.517	23.670	1604.593	1281.401
-3.502	23.622	1604.160	1280.654
-2.487	23.732	1601.850	1279.556
-1.473	23.253	1590.283	1266.835
-0.458	20.315	1571.080	1230.692
0.556	15.140	1573.346	1199.564
1.571	12.890	1597.807	1201.727
2.586	12.702	1609.626	1209.128
3.600	11.801	1554.963	1161.567
4.615	6.550	1448.965	1047.481
5.629	1.327	1390.593	971.825
6.644	0.262	1383.558	960.034
7.659	0.104	1382.818	958.434
8.673	0.167	1381.847	958.075
9.688	0.118	1379.165	955.818
10.702	-0.037	1376.217	952.712
11.717	2.627	1379.799	972.018
12.731	9.401	1390.625	1022.735
13.746	15.232	1398.667	1065.739
14.761	16.821	1400.257	1076.967
15.775	16.254	1398.271	1071.746
16.790	15.158	1395.639	1062.683
17.804	14.461	1393.530	1056.568
18.819	14.023	1392.333	1052.790
19.834	13.925	1390.487	1050.681
20.848	13.573	1389.667	1047.746
21.863	13.407	1388.305	1045.577
22.877	13.307	1387.032	1043.892
23.892	13.222	1386.428	1042.808
24.907	13.116	1385.517	1041.366
25.921	13.113	1384.334	1040.363
26.936	13.162	1383.793	1040.177
27.950	13.319	1382.244	1039.903
28.965	13.391	1381.107	1039.407
29.980	13.372	1380.951	1039.080
30.994	13.327	1380.013	1038.002
32.009	13.395	1378.768	1037.402
33.023	13.395	1377.577	1036.410
34.038	13.350	1376.393	1035.147
35.053	13.382	1375.553	1034.628
36.067	13.325	1374.746	1033.568
37.082	13.321	1373.295	1032.363
38.096	13.254	1372.793	1031.476
39.111	13.309	1372.028	1031.151
40.126	13.318	1370.562	1030.014
41.140	13.212	1369.941	1028.798
42.155	13.179	1369.199	1027.944
43.169	13.147	1369.251	1027.693
44.184	13.124	1369.069	1027.325
45.199	13.113	1368.757	1026.927
46.213	13.218	1367.789	1026.764
47.228	13.291	1367.090	1026.605
48.242	13.238	1365.944	1025.324
49.257	13.281	1364.337	1024.292
50.271	13.289	1362.716	1023.035
51.286	13.311	1361.699	1022.315
52.301	13.376	1359.826	1021.221
53.315	13.343	1359.024	1020.324
54.330	13.264	1358.538	1019.378
55.344	13.322	1356.950	1018.458
56.359	13.265	1355.705	1017.080
57.374	13.267	1354.432	1016.048
58.388	13.174	1354.032	1015.086
59.403	13.182	1353.792	1014.865
60.417	13.202	1352.548	1013.967
61.432	13.248	1351.587	1013.441
62.447	13.039	1351.234	1011.802
63.461	13.088	1349.410	1010.648
64.476	12.998	1348.584	1009.388
65.490	13.106	1346.785	1008.616
66.505	13.109	1345.280	1007.416
67.520	13.188	1344.090	1006.916
68.534	13.117	1343.418	1005.893
69.549	13.219	1342.055	1005.401
70.563	13.112	1340.924	1003.815
71.578	13.071	1339.747	1002.595
72.593	13.093	1338.650	1001.819
73.607	13.063	1338.104	1001.141
74.622	12.932	1337.473	999.788
75.636	13.115	1336.220	999.871
76.651	13.091	1335.536	999.122
77.666	12.983	1335.336	998.235
78.680	12.994	1334.766	997.785
79.695	13.036	1333.792	997.225
80.709	13.099	1332.854	996.816
81.724	13.177	1331.657	996.300
82.739	13.192	1330.905	995.738
83.753	13.206	1329.940	995.013
84.768	13.298	1328.647	994.512
85.782	13.321	1327.424	993.648
86.797	13.243	1326.558	992.445
87.812	13.276	1325.110	991.471
88.826	13.264	1323.879	990.389
89.841	13.212	1323.452	989.668
90.855	13.357	1322.108	989.444
91.870	13.360	1321.312	988.780
92.884	13.237	1320.987	987.715
93.899	13.381	1319.746	987.559
94.914	13.401	1318.983	987.019
95.928	13.339	1318.115	985.914
96.943	13.277	1316.912	984.558
97.957	13.326	1315.608	983.786
98.972	13.398	1314.848	983.559
99.987	13.354	1313.878	982.483
101.001	13.370	1312.737	981.640
102.016	13.438	1311.643	981.139
103.030	13.320	1311.341	980.123
104.045	13.305	1310.264	979.147
105.060	13.427	1308.512	978.471
106.074	13.366	1307.229	977.066
107.089	13.292	1306.103	975.697
108.103	13.241	1304.873	974.391
109.118	13.262	1303.409	973.340
110.133	13.193	1302.217	971.957
111.147	13.217	1300.645	970.841
112.162	13.211	1299.431	969.813
113.176	13.213	1298.543	969.075
114.191	13.288	1297.935	968.975
115.206	13.225	1296.385	967.363
116.220	13.329	1294.853	966.742
117.235	13.139	1294.456	965.250
118.249	13.323	1292.890	965.069
119.264	13.226	1291.983	963.743
120.279	13.285	1290.683	963.030
121.293	13.348	1289.659	962.547
122.308	13.216	1289.113	961.286
123.322	13.243	1287.881	960.440
124.337	13.179	1286.717	959.115
125.352	13.171	1285.585	958.143
126.366	13.267	1284.432	957.753
127.381	13.234	1283.363	956.683
128.395	13.225	1282.392	955.822
129.410	13.220	1281.337	954.920
130.424	13.293	1280.730	954.805
131.439	13.217	1279.503	953.369
132.454	13.224	1279.057	952.989
133.468	13.283	1277.605	952.166
134.483	13.392	1276.962	952.227
135.497	13.240	1276.073	950.606
136.512	13.201	1274.912	949.433
137.527	13.200	1273.080	947.983
138.541	13.182	1271.602	946.692
139.556	13.219	1270.347	945.886
140.570	13.357	1269.368	945.864
141.585	13.406	1267.742	944.845
142.600	13.385	1267.099	944.164
143.614	13.368	1266.344	943.422
144.629	13.432	1265.593	943.142
145.643	13.499	1264.024	942.271
146.658	13.439	1262.597	940.786
147.673	13.372	1261.439	939.460
148.687	13.381	1260.235	938.530
149.702	13.329	1259.034	937.259
150.716	13.285	1257.841	936.037
151.731	13.448	1256.039	935.533
152.746	13.406	1255.374	934.716
153.760	13.511	1254.001	934.209
154.775	13.484	1253.013	933.236
155.789	13.539	1251.546	932.371
156.804	13.588	1250.378	931.693
157.819	13.568	1249.758	931.035
158.833	13.574	1248.787	930.266
159.848	13.699	1247.714	930.081
160.862	13.571	1246.766	928.575
161.877	13.574	1245.353	927.457
162.892	13.520	1244.655	926.554
163.906	13.401	1243.875	925.229
164.921	13.495	1242.900	924.946
165.935	13.635	1241.950	924.937
166.950	13.624	1241.289	924.303
167.964	13.567	1240.849	923.574
168.979	13.478	1240.281	922.574
169.994	13.514	1239.108	921.820
171.008	13.595	1238.651	921.848
172.023	13.638	1237.598	921.221
173.037	13.745	1236.395	920.841
174.052	13.691	1235.690	919.936
175.067	13.756	1234.249	919.139
176.081	13.591	1233.802	917.815
177.096	13.644	1232.426	917.000
178.110	13.653	1231.609	916.360
179.125	13.711	1230.469	915.755
180.140	13.756	1229.188	914.965
181.154	13.713	1227.914	913.700
182.169	13.705	1226.576	912.578
183.183	13.712	1225.840	911.990
184.198	13.713	1224.687	911.057
185.213	13.874	1222.954	910.573
186.227	13.926	1221.817	909.926
187.242	13.905	1221.259	909.317
188.256	13.888	1220.378	908.488
189.271	13.912	1219.304	907.738
190.286	13.788	1218.425	906.328
191.300	13.638	1218.000	905.109
192.315	13.714	1216.933	904.654
193.329	13.646	1216.318	903.743
194.344	13.660	1215.750	903.320
195.359	13.805	1215.211	903.627
196.373	13.863	1214.674	903.467
197.388	13.988	1213.755	903.381
198.402	13.959	1213.619	903.044
199.417	14.039	1212.743	902.745
200.432	14.019	1211.796	901.849
201.446	14.032	1211.536	901.648
202.461	14.146	1209.885	900.958
203.475	14.162	1208.639	900.036
204.490	14.110	1207.768	899.026
205.504	13.996	1206.131	897.113
206.519	14.059	1205.211	896.691
207.534	14.049	1204.543	896.061
208.548	14.091	1203.538	895.460
209.563	14.146	1202.487	894.896
210.577	14.118	1201.823	894.169
211.592	14.124	1200.733	893.313
212.607	14.214	1199.339	892.680
213.621	14.310	1198.483	892.479
214.636	14.158	1198.120	891.312
215.650	14.267	1196.991	890.978
216.665	14.239	1196.211	890.170
217.680	14.348	1195.653	890.257
218.694	14.311	1194.467	889.101
219.709	14.328	1193.635	888.494
220.723	14.364	1192.940	888.090
221.738	14.412	1192.025	887.585
222.753	14.337	1191.245	886.525
223.767	14.394	1190.713	886.353
224.782	14.465	1189.833	885.995
225.796	14.455	1189.450	885.579
226.811	14.455	1188.951	885.132
227.826	14.362	1188.043	883.885
228.840	14.503	1186.922	883.716
229.855	14.532	1186.391	883.399
230.869	14.425	1185.436	882.044
231.884	14.425	1184.751	881.454
232.899	14.392	1184.349	880.904
233.913	14.446	1183.151	880.220
234.928	14.412	1182.652	879.593
235.942	14.357	1182.130	878.833
236.957	14.389	1181.267	878.284
237.972	14.333	1180.191	877.114
238.986	14.354	1179.895	876.926
240.001	14.457	1178.634	876.451
241.015	14.419	1177.943	875.659
242.030	14.459	1177.240	875.269
243.045	14.534	1176.564	875.082
244.059	14.677	1175.657	875.080
245.074	14.570	1175.283	874.163
246.088	14.672	1173.831	873.542
247.103	14.541	1173.523	872.553
248.117	14.658	1172.347	872.212
249.132	14.652	1171.675	871.599
250.147	14.674	1171.441	871.465
251.161	14.850	1170.290	871.451
252.176	14.787	1169.927	870.775
253.190	14.798	1168.888	869.981
254.205	14.858	1168.238	869.731
255.220	14.819	1168.003	869.277
256.234	14.826	1167.343	868.746
257.249	14.951	1166.513	868.701
258.263	14.931	1165.664	867.887
259.278	15.019	1164.977	867.755
260.293	14.980	1164.092	866.815
261.307	15.052	1163.816	866.906
262.322	15.127	1163.217	866.774
263.336	14.977	1162.926	865.701
264.351	15.078	1162.021	865.474
265.366	15.131	1161.332	865.159
266.380	15.073	1160.724	864.332
267.395	15.191	1159.371	863.855
268.409	15.197	1158.423	863.101
269.424	15.073	1158.113	862.157
270.439	15.145	1157.943	862.322
271.453	15.258	1156.808	861.982
272.468	15.047	1155.945	860.181
273.482	15.162	1155.204	860.144
274.497	15.106	1154.175	859.016
275.512	15.121	1154.120	858.975
276.526	15.152	1153.021	858.240
277.541	15.197	1152.067	857.683
278.555	15.084	1151.745	856.788
279.570	15.297	1150.766	857.075
280.585	15.280	1149.973	856.318
281.599	15.247	1149.390	855.644
282.614	15.239	1148.561	854.911
283.628	15.207	1146.946	853.470
284.643	15.294	1146.056	853.174
285.657	15.289	1145.141	852.389
286.672	15.370	1144.475	852.234
287.687	15.353	1143.661	851.461
288.701	15.317	1142.702	850.490
289.716	15.449	1141.730	850.362
290.730	15.466	1140.909	849.761
291.745	15.412	1140.525	849.126
292.760	15.352	1139.913	848.293
293.774	15.469	1139.315	848.362
294.789	15.494	1138.983	848.168
295.803	15.518	1138.090	847.551
296.818	15.515	1137.576	847.078
297.833	15.413	1136.824	845.928
298.847	15.534	1135.635	845.578
299.862	15.470	1135.156	844.823
300.876	15.548	1134.617	844.737
301.891	15.531	1134.031	844.142
302.906	15.569	1133.204	843.643
303.920	15.695	1132.258	843.495
304.935	15.676	1132.021	843.151
305.949	15.704	1131.074	842.510
306.964	15.634	1130.822	841.898
307.979	15.725	1129.401	841.218
308.993	15.714	1128.975	840.772
310.008	15.703	1128.330	840.165
311.022	15.809	1127.173	839.755
312.037	15.814	1126.285	839.044
313.052	15.808	1125.297	838.208
314.066	15.760	1124.668	837.423
315.081	15.641	1123.692	836.033
316.095	15.800	1122.937	836.188
317.110	15.755	1122.203	835.340
318.125	15.809	1121.519	835.028
319.139	15.688	1120.794	833.813
320.154	15.673	1120.591	833.513
321.168	15.728	1119.820	833.139
322.183	15.758	1118.779	832.438
323.197	15.793	1118.627	832.425
324.212	15.753	1118.146	831.796
325.227	15.881	1117.501	831.877
326.241	15.935	1116.535	831.349
327.256	15.876	1115.450	830.175
328.270	15.690	1115.191	828.996
329.285	15.856	1113.925	828.796
330.300	15.851	1113.065	828.061
331.314	15.869	1112.131	827.378
332.329	15.975	1110.745	826.796
333.343	16.021	1109.952	826.360
334.358	16.020	1109.365	825.844
335.373	15.993	1108.711	825.149
336.387	16.054	1107.857	824.738
337.402	15.921	1107.375	823.660
338.416	16.056	1106.400	823.518
339.431	16.097	1106.055	823.390
340.446	16.009	1105.805	822.703
341.460	16.167	1104.664	822.551
342.475	16.197	1103.618	821.843
343.489	16.129	1102.878	820.892
344.504	16.215	1101.988	820.573
345.519	16.254	1100.812	819.817
346.533	16.231	1100.128	819.122
347.548	16.253	1099.354	818.578
348.562	16.436	1098.672	818.883
349.577	16.258	1098.471	817.800
350.592	16.324	1097.211	817.111
351.606	16.133	1096.790	815.799
352.621	16.234	1095.856	815.520
353.635	16.163	1094.979	814.454
354.650	16.299	1094.155	814.425
355.665	16.393	1093.471	814.297
356.679	16.420	1093.005	814.008
357.694	16.250	1092.701	812.890
358.708	16.292	1091.929	812.444
359.723	16.368	1091.055	812.089
360.738	16.491	1090.344	812.081
361.752	16.383	1089.437	810.814
362.767	16.411	1089.227	810.721
363.781	16.449	1088.838	810.542
364.796	16.554	1087.996	810.347
365.810	16.545	1087.517	809.873
366.825	16.586	1086.796	809.464
367.840	16.521	1086.578	808.918
368.854	16.666	1085.903	809.038
369.869	16.705	1084.626	808.200
370.883	16.731	1083.768	807.611
371.898	16.532	1083.198	806.166
372.913	16.608	1082.739	806.119
373.927	16.585	1082.418	805.695
374.942	16.675	1081.786	805.585
375.956	16.685	1081.369	805.250
376.971	16.723	1080.573	804.766
377.986	16.759	1080.050	804.478
379.000	16.762	1079.381	803.920
380.015	16.809	1078.993	803.785
381.029	16.849	1078.062	803.208
382.044	16.903	1077.352	802.866
383.059	16.983	1076.346	802.422
384.073	16.928	1075.928	801.777
385.088	16.895	1074.948	800.821
386.102	16.957	1074.011	800.345
387.117	16.782	1073.346	798.953
388.132	16.751	1072.336	797.984
389.146	17.000	1071.145	798.201
390.161	16.775	1070.977	796.946
391.175	16.862	1070.318	796.793
392.190	16.963	1069.370	796.492
393.205	17.002	1068.898	796.255
394.219	17.032	1067.647	795.390
395.234	16.919	1067.049	794.347
396.248	17.043	1065.517	793.716
397.263	16.903	1065.011	792.612
398.278	16.948	1064.348	792.259
399.292	17.012	1063.382	791.769
400.307	17.032	1062.923	791.451
401.321	17.015	1062.080	790.673
402.336	17.024	1061.357	790.107
403.350	16.984	1061.134	789.687
404.365	17.078	1060.323	789.451
405.380	17.057	1059.627	788.763
406.394	17.073	1058.516	787.944
407.409	17.106	1058.001	787.640
408.423	17.167	1057.085	787.172
409.438	17.245	1056.557	787.070
410.453	17.265	1055.740	786.487
411.467	17.259	1055.148	785.946
412.482	17.337	1054.381	785.668
413.496	17.369	1053.772	785.291
414.511	17.401	1053.373	785.071
415.526	17.319	1053.098	784.421
416.540	17.479	1052.736	784.817
417.555	17.293	1052.002	783.345
418.569	17.466	1051.624	783.789
419.584	17.344	1051.225	782.861
420.599	17.478	1050.442	782.825
421.613	108.068	1330.947	1488.071
422.628	99.465	1371.751	1488.157
