DTS Sentinel unit serial number:	SN413079Multiplexer serial number:	ORYXHardware model number:	OX4-SRSoftware version number:	ORYX F/W v4.00 Oryx Data Collector v3.7.2.0data status	okinstallation	princeton_trtdifferential loss correction	single-endedforward channel	channel 2reverse channel	N/Adate	2019/09/13time	07:03:34forward acquisition time	60.00reverse acquisition time	0.00gamma	496.2192k internal	0.2338k external	0.2338temperature offset calibration	1.0195default loss term (dB/km)	0.3790temperature slope calibration	1.0000multiplexer offset coefficient	1.0000multiplexer slope coefficient	1.0000fibre end	0.00T internal ref (°C)	26.00T ext. ref 1 (°C)	4.14T ext. ref 2 (°C)	21.16length (m)	temperature (°C)	Stokes	anti-Stokes-747.200	-64.589	0.289	-0.118
-746.185	46.162	-0.113	-0.105
-745.171	-23.506	0.136	0.082
-744.156	800.000	0.067	0.226
-743.142	267.741	0.125	0.219
-742.127	-59.258	-0.107	0.046
-741.112	-200.000	0.029	0.303
-740.098	541.994	0.035	-0.083
-739.083	-96.173	0.278	-0.074
-738.069	800.000	-0.098	0.429
-737.054	1.228	0.268	0.193
-736.039	19.423	-0.155	0.125
-735.025	185.554	0.124	0.185
-734.010	252.947	0.118	-0.201
-732.996	97.705	-0.062	0.072
-731.981	66.509	-0.231	-0.235
-730.966	-126.479	-0.254	0.038
-729.952	70.510	-0.179	0.186
-728.937	-113.993	0.179	-0.035
-727.923	107.167	0.052	0.062
-726.908	26.166	-0.256	-0.215
-725.894	-15.544	-0.177	-0.113
-724.879	452.060	-0.067	0.149
-723.864	244.438	-0.337	-0.568
-722.850	-39.637	0.231	0.121
-721.835	11.636	-0.089	0.069
-720.821	-200.000	-0.053	-0.263
-719.806	709.430	-0.047	0.125
-718.791	30.100	0.167	0.143
-717.777	33.661	-0.017	-0.015
-716.762	100.036	0.193	0.224
-715.748	308.199	0.016	-0.030
-714.733	-200.000	0.003	-0.041
-713.718	800.000	-0.073	-0.235
-712.704	-200.000	-0.027	-0.496
-711.689	53.621	0.177	-0.170
-710.675	-200.000	0.014	0.088
-709.660	-156.186	-0.225	-0.014
-708.645	55.256	0.111	-0.107
-707.631	-16.139	-0.112	0.071
-706.616	33.879	0.284	-0.248
-705.602	1.688	-0.259	-0.187
-704.587	276.465	-0.144	-0.257
-703.572	-200.000	-0.047	0.416
-702.558	-30.654	-0.052	-0.030
-701.543	-200.000	-0.037	-0.171
-700.529	61.351	0.110	-0.109
-699.514	-11.545	-0.106	0.070
-698.499	38.546	-0.037	-0.033
-697.485	-200.000	0.007	-0.094
-696.470	578.241	0.113	-0.277
-695.456	-84.648	-0.205	0.065
-694.441	-101.133	-0.446	-0.109
-693.426	219.464	-0.239	0.383
-692.412	-117.355	-0.126	-0.023
-691.397	-109.476	-0.113	0.024
-690.383	101.438	0.171	0.200
-689.368	101.402	0.092	-0.107
-688.354	261.660	0.148	-0.257
-687.339	37.866	-0.183	0.163
-686.324	12.590	-0.109	0.084
-685.310	-158.866	-0.301	-0.017
-684.295	136.190	-0.184	-0.240
-683.281	800.000	0.111	0.336
-682.266	-33.461	-0.328	0.181
-681.251	-200.000	0.010	-0.247
-680.237	-66.756	-0.214	-0.085
-679.222	96.983	0.181	0.207
-678.208	-51.677	-0.076	0.036
-677.193	168.912	0.076	-0.109
-676.178	800.000	-0.017	-0.069
-675.164	-106.331	0.340	-0.076
-674.149	-43.725	0.102	0.051
-673.135	98.429	-0.170	0.196
-672.120	26.111	-0.258	0.215
-671.105	125.170	-0.073	-0.092
-670.091	8.205	-0.054	0.040
-669.076	-24.327	0.108	-0.065
-668.062	241.017	0.069	0.115
-667.047	-200.000	0.041	0.243
-666.032	-200.000	0.014	-0.147
-665.018	514.367	-0.108	-0.253
-664.003	-200.000	0.024	-0.169
-662.989	-36.446	0.222	0.120
-661.974	-111.058	-0.265	0.054
-660.959	-77.155	-0.189	0.066
-659.945	-90.899	0.363	-0.104
-658.930	-145.070	-0.441	-0.040
-657.916	-68.981	-0.069	0.027
-656.901	-81.642	-0.238	0.078
-655.886	176.043	-0.197	0.286
-654.872	261.134	0.131	-0.227
-653.857	-200.000	0.021	-0.251
-652.843	-1.010	-0.096	-0.068
-651.828	-119.865	0.286	0.049
-650.814	-200.000	0.018	-0.225
-649.799	-71.519	-0.090	0.034
-648.784	27.257	0.190	-0.160
-647.770	70.709	-0.110	-0.114
-646.755	-200.000	0.046	-0.257
-645.741	-200.000	0.018	-0.152
-644.726	73.445	0.047	0.049
-643.711	-118.864	-0.080	-0.014
-642.697	-200.000	-0.049	0.249
-641.682	-200.000	-0.004	-0.191
-640.668	-200.000	-0.062	-0.370
-639.653	-147.685	-0.062	0.005
-638.638	800.000	0.086	-0.368
-637.624	-200.000	-0.026	0.216
-636.609	-13.308	0.217	0.140
-635.595	39.095	-0.117	-0.105
-634.580	-164.155	0.171	0.008
-633.565	-46.050	-0.094	-0.046
-632.551	-200.000	-0.016	-0.160
-631.536	-12.274	-0.270	0.177
-630.522	-57.293	0.143	-0.063
-629.507	19.824	-0.260	-0.209
-628.492	3.733	0.279	-0.203
-627.478	284.272	0.062	0.111
-626.463	-93.104	0.116	-0.032
-625.449	-83.860	0.146	-0.046
-624.434	84.230	-0.150	-0.163
-623.419	120.504	0.128	-0.159
-622.405	-200.000	-0.022	-0.284
-621.390	-200.000	0.049	0.219
-620.376	12.055	-0.115	-0.089
-619.361	73.192	0.006	-0.006
-618.346	-67.075	0.381	-0.150
-617.332	-200.000	-0.053	-0.287
-616.317	137.238	-0.092	0.120
-615.303	289.452	0.155	-0.281
-614.288	-109.571	0.361	0.076
-613.273	-15.260	-0.127	0.081
-612.259	-22.389	0.156	0.094
-611.244	800.000	-0.155	0.476
-610.230	4.540	-0.012	0.009
-609.215	142.172	0.126	-0.167
-608.201	413.853	-0.097	-0.206
-607.186	-200.000	-0.065	-0.325
-606.171	256.649	0.238	0.409
-605.157	309.014	0.243	-0.453
-604.142	-85.494	0.308	0.096
-603.128	0.927	-0.057	-0.041
-602.113	-99.393	0.155	-0.039
-601.098	-4.017	0.123	-0.085
-600.084	559.847	-0.074	-0.179
-599.069	-200.000	0.023	0.131
-598.055	294.934	-0.054	0.099
-597.040	499.010	0.072	0.166
-596.025	-114.438	0.158	0.030
-595.011	517.845	-0.102	-0.238
-593.996	6.590	0.128	-0.095
-592.982	-200.000	-0.004	0.031
-591.967	-11.657	-0.131	-0.086
-590.952	190.708	-0.097	-0.146
-589.938	-158.994	0.110	0.006
-588.923	-200.000	0.018	-0.270
-587.909	-181.063	-0.289	-0.006
-586.894	-176.260	-0.030	0.001
-585.879	800.000	0.076	-0.254
-584.865	107.062	-0.247	0.292
-583.850	645.529	0.052	-0.133
-582.836	-149.795	-0.344	0.027
-581.821	-72.507	-0.285	-0.105
-580.806	800.000	0.022	-0.063
-579.792	-200.000	0.050	-0.356
-578.777	289.668	0.120	0.217
-577.763	-142.033	0.151	-0.015
-576.748	-91.164	0.100	0.029
-575.733	-5.330	0.137	0.094
-574.719	-64.833	-0.116	-0.047
-573.704	800.000	0.034	0.134
-572.690	361.075	0.158	-0.315
-571.675	-200.000	0.025	-0.153
-570.661	77.162	0.077	-0.082
-569.646	-200.000	-0.031	-0.190
-568.631	800.000	-0.077	-0.310
-567.617	236.000	0.072	-0.119
-566.602	800.000	-0.014	0.057
-565.588	-76.315	0.062	-0.022
-564.573	444.775	0.022	0.048
-563.558	384.602	0.120	0.247
-562.544	-200.000	-0.031	-0.229
-561.529	-121.910	-0.222	-0.036
-560.515	-200.000	0.004	0.371
-559.500	-200.000	-0.038	-0.279
-558.485	98.294	0.186	0.214
-557.471	800.000	0.009	0.028
-556.456	99.370	-0.155	0.178
-555.442	78.702	0.226	-0.241
-554.427	-83.708	-0.135	-0.043
-553.412	432.938	0.081	-0.175
-552.398	117.268	0.176	-0.216
-551.383	143.028	-0.145	0.192
-550.369	41.864	-0.213	-0.192
-549.354	-80.661	-0.335	-0.111
-548.339	-22.345	0.280	0.169
-547.325	-97.833	-0.197	-0.051
-546.310	141.687	-0.142	0.188
-545.296	-39.783	0.240	0.125
-544.281	-200.000	0.004	0.103
-543.266	-131.419	-0.185	0.024
-542.252	-86.498	0.317	0.097
-541.237	-142.808	-0.277	0.027
-540.223	-27.713	-0.338	-0.195
-539.208	242.020	0.123	0.205
-538.193	-200.000	-0.001	0.087
-537.179	-33.166	-0.055	-0.030
-536.164	176.193	0.115	0.167
-535.150	800.000	0.068	0.258
-534.135	-200.000	0.002	0.056
-533.121	-200.000	-0.003	-0.142
-532.106	800.000	0.014	-0.039
-531.091	800.000	-0.106	-0.388
-530.077	-46.391	-0.209	-0.102
-529.062	503.874	0.033	-0.077
-528.048	101.820	-0.158	0.183
-527.033	-110.097	0.451	0.094
-526.018	-94.900	0.191	-0.051
-525.004	118.815	-0.176	-0.217
-523.989	800.000	0.140	0.425
-522.975	144.151	-0.059	0.079
-521.960	-76.450	-0.051	-0.018
-520.945	478.254	-0.031	0.071
-519.931	-122.344	-0.260	0.042
-518.916	2.124	0.139	0.100
-517.902	-122.513	-0.045	0.007
-516.887	800.000	-0.094	0.264
-515.872	-200.000	0.310	-0.000
-514.858	800.000	-0.067	-0.213
-513.843	-200.000	0.007	0.068
-512.829	-200.000	0.052	0.249
-511.814	-80.901	-0.346	0.114
-510.799	199.212	0.040	0.060
-509.785	218.831	0.071	-0.114
-508.770	-39.089	-0.296	-0.155
-507.756	62.760	0.146	0.145
-506.741	19.217	-0.177	-0.141
-505.726	352.246	-0.101	-0.199
-504.712	80.808	0.372	0.399
-503.697	-97.845	-0.125	0.032
-502.683	-128.371	0.343	-0.048
-501.668	56.464	-0.109	0.106
-500.653	800.000	-0.084	-0.353
-499.639	32.255	0.207	0.177
-498.624	478.688	-0.172	0.387
-497.610	560.616	0.083	-0.199
-496.595	211.923	-0.067	0.105
-495.581	668.242	0.137	-0.353
-494.566	-200.000	0.037	-0.200
-493.551	113.209	-0.252	-0.304
-492.537	-39.320	-0.190	0.099
-491.522	-200.000	0.010	0.104
-490.508	-200.000	0.009	-0.216
-489.493	-87.575	-0.214	-0.064
-488.478	800.000	-0.050	0.162
-487.464	143.267	0.172	-0.227
-486.449	-125.739	-0.381	-0.057
-485.435	383.999	0.011	0.023
-484.420	-200.000	-0.025	-0.205
-483.405	666.242	0.038	-0.097
-482.391	-160.984	0.069	0.004
-481.376	-200.000	-0.052	-0.249
-480.362	800.000	-0.055	0.238
-479.347	-89.649	0.114	0.033
-478.332	-123.573	-0.115	0.018
-477.318	231.310	0.142	-0.232
-476.303	533.409	-0.112	0.263
-475.289	-109.486	-0.140	-0.029
-474.274	262.745	0.166	-0.286
-473.259	151.335	-0.155	-0.209
-472.245	207.475	-0.209	-0.324
-471.230	125.693	0.155	0.195
-470.216	-123.628	-0.153	-0.024
-469.201	-89.501	-0.156	0.045
-468.186	-200.000	-0.095	-0.503
-467.172	537.864	0.136	-0.321
-466.157	88.225	0.040	0.044
-465.143	77.375	-0.235	0.248
-464.128	-200.000	-0.039	0.180
-463.113	-162.264	0.209	-0.010
-462.099	-34.030	0.114	0.062
-461.084	445.638	0.079	0.173
-460.070	168.743	0.152	0.215
-459.055	-151.827	-0.145	0.011
-458.040	-88.071	-0.194	-0.058
-457.026	501.211	0.170	0.389
-456.011	-55.094	-0.101	-0.045
-454.997	-94.116	0.209	-0.057
-453.982	-49.304	-0.296	0.140
-452.968	-66.870	-0.360	0.141
-451.953	-200.000	0.002	0.072
-450.938	56.725	0.110	0.107
-449.924	-115.308	-0.313	-0.059
-448.909	197.541	-0.032	-0.048
-447.895	741.002	0.112	-0.298
-446.880	121.410	0.207	-0.256
-445.865	-148.008	0.106	0.009
-444.851	32.411	-0.024	-0.021
-443.836	-200.000	-0.003	-0.061
-442.822	127.545	0.177	0.224
-441.807	352.262	-0.127	-0.250
-440.792	216.199	-0.165	0.261
-439.778	3.768	0.157	0.113
-438.763	61.489	-0.047	-0.046
-437.749	-74.568	-0.076	-0.027
-436.734	800.000	-0.050	-0.190
-435.719	-200.000	-0.004	-0.094
-434.705	-40.792	-0.048	0.025
-433.690	28.044	-0.137	-0.115
-432.676	-87.236	0.086	-0.026
-431.661	-44.033	-0.225	0.112
-430.646	99.442	0.218	-0.250
-429.632	-74.736	0.104	0.037
-428.617	-112.749	0.231	0.045
-427.603	-31.025	-0.210	0.117
-426.588	34.550	-0.138	-0.120
-425.573	-37.308	-0.125	0.066
-424.559	-0.837	-0.130	0.091
-423.544	-78.813	0.384	-0.130
-422.530	47.385	-0.080	-0.074
-421.515	197.746	0.039	-0.060
-420.500	-129.548	-0.399	-0.055
-419.486	52.987	-0.096	-0.091
-418.471	683.126	-0.040	0.104
-417.457	-42.055	0.267	-0.136
-416.442	-23.334	0.140	-0.083
-415.428	201.583	-0.067	-0.102
-414.413	-200.000	-0.003	0.209
-413.398	800.000	0.059	-0.228
-412.384	176.813	0.059	0.085
-411.369	-61.189	-0.308	-0.129
-410.355	275.429	0.101	0.177
-409.340	332.541	0.281	0.538
-408.325	48.099	-0.218	0.201
-407.311	-6.932	0.167	-0.112
-406.296	-200.000	0.001	0.302
-405.282	173.907	0.093	0.133
-404.267	-79.069	0.064	0.022
-403.252	341.816	-0.095	-0.184
-402.238	-32.647	-0.285	-0.157
-401.223	-22.416	0.277	0.166
-400.209	-144.077	-0.322	0.030
-399.194	-41.449	0.240	0.122
-398.179	-34.314	0.173	0.094
-397.165	448.726	0.094	0.206
-396.150	513.589	0.091	-0.210
-395.136	-133.467	-0.213	-0.027
-394.121	-113.217	0.180	0.035
-393.106	-200.000	-0.009	-0.354
-392.092	-95.573	0.425	-0.113
-391.077	140.706	-0.201	-0.263
-390.063	312.431	0.126	0.234
-389.048	800.000	-0.099	0.279
-388.033	-200.000	-0.023	0.131
-387.019	172.304	0.225	-0.321
-386.004	-58.159	-0.112	-0.048
-384.990	-33.167	0.151	-0.083
-383.975	-138.182	0.378	0.041
-382.960	-200.000	0.019	0.092
-381.946	-86.685	-0.250	-0.076
-380.931	-1.927	0.239	-0.166
-379.917	-31.492	0.050	-0.028
-378.902	128.151	-0.283	-0.356
-377.888	-18.340	0.128	-0.079
-376.873	22.705	0.175	0.142
-375.858	800.000	0.013	0.049
-374.844	-200.000	0.017	-0.088
-373.829	379.876	-0.047	-0.096
-372.815	-57.035	0.086	-0.037
-371.800	211.631	0.164	0.256
-370.785	351.709	0.071	0.139
-369.771	252.266	0.196	0.331
-368.756	-70.904	-0.317	-0.118
-367.742	-28.538	-0.355	0.202
-366.727	25.107	0.183	-0.150
-365.712	800.000	0.019	-0.077
-364.698	59.976	-0.104	0.101
-363.683	-200.000	0.052	0.266
-362.669	51.721	0.190	-0.179
-361.654	267.790	-0.048	0.084
-360.639	-19.256	-0.294	0.180
-359.625	9.257	0.247	0.185
-358.610	154.744	-0.144	-0.195
-357.596	95.668	-0.147	-0.166
-356.581	235.002	-0.162	-0.265
-355.566	155.657	-0.131	-0.178
-354.552	-200.000	0.076	0.332
-353.537	89.644	0.183	-0.202
-352.523	64.157	0.175	-0.174
-351.508	-82.198	-0.183	-0.059
-350.493	170.878	-0.351	-0.497
-349.479	-74.667	0.059	-0.021
-348.464	800.000	0.040	-0.144
-347.450	202.968	0.097	-0.147
-346.435	410.277	0.060	-0.125
-345.420	2.306	0.174	-0.124
-344.406	134.418	0.169	-0.216
-343.391	-73.081	-0.082	0.030
-342.377	-40.818	-0.061	-0.031
-341.362	-113.906	-0.307	0.059
-340.348	40.244	-0.136	0.121
-339.333	-146.256	-0.082	-0.007
-338.318	170.225	-0.172	0.243
-337.304	329.379	0.162	-0.307
-336.289	-121.940	-0.106	0.017
-335.275	-41.174	0.091	0.047
-334.260	281.255	-0.202	0.356
-333.245	-83.535	0.408	-0.129
-332.231	-23.962	0.157	0.093
-331.216	800.000	-0.070	-0.272
-330.202	156.507	0.054	0.073
-329.187	-119.137	-0.254	0.044
-328.172	-80.664	-0.340	-0.112
-327.158	-169.688	0.318	-0.011
-326.143	-168.917	-0.300	-0.011
-325.129	43.256	0.029	-0.026
-324.114	800.000	0.095	0.291
-323.099	-200.000	-0.085	0.438
-322.085	-200.000	0.003	0.317
-321.070	111.502	-0.106	0.126
-320.056	-147.532	0.263	-0.022
-319.041	-91.522	0.069	-0.020
-318.026	28.507	-0.133	0.111
-317.012	-141.744	-0.153	0.015
-315.997	-124.091	-0.377	0.058
-314.983	-65.036	0.277	0.110
-313.968	-200.000	-0.076	0.495
-312.953	95.387	-0.056	0.063
-311.939	800.000	0.044	0.167
-310.924	320.594	0.151	0.283
-309.910	-28.966	0.336	-0.190
-308.895	800.000	-0.056	0.193
-307.880	-57.560	-0.277	0.120
-306.866	-62.636	0.256	-0.105
-305.851	678.096	-0.100	-0.256
-304.837	800.000	0.053	-0.164
-303.822	-135.690	0.109	-0.013
-302.807	197.772	-0.058	-0.088
-301.793	-174.149	-0.139	-0.004
-300.778	800.000	0.033	0.126
-299.764	800.000	-0.019	-0.070
-298.749	-7.040	-0.215	-0.144
-297.735	-37.290	-0.069	-0.037
-296.720	153.498	0.154	0.208
-295.705	28.331	0.147	0.122
-294.691	-99.633	-0.078	-0.019
-293.676	262.446	0.072	0.123
-292.662	791.652	0.020	-0.054
-291.647	-16.128	-0.131	-0.082
-290.632	17.218	-0.126	0.099
-289.618	549.708	0.124	0.293
-288.603	-141.125	-0.445	0.045
-287.589	136.969	0.132	-0.170
-286.574	182.000	0.100	-0.145
-285.559	800.000	-0.098	0.280
-284.545	-80.043	-0.399	0.132
-283.530	44.485	-0.182	0.165
-282.516	-69.704	-0.179	-0.067
-281.501	47.175	0.085	0.078
-280.486	-16.065	0.108	0.068
-279.472	148.451	0.121	0.161
-278.457	343.335	-0.105	-0.203
-277.443	-36.009	0.179	0.095
-276.428	800.000	0.041	-0.154
-275.413	0.306	-0.305	-0.214
-274.399	168.915	0.193	0.271
-273.384	194.038	-0.124	0.185
-272.370	32.350	0.286	0.243
-271.355	-200.000	0.001	-0.236
-270.340	-125.495	0.457	-0.068
-269.326	123.155	0.133	0.164
-268.311	-102.239	0.285	0.067
-267.297	575.798	0.109	-0.263
-266.282	-34.766	0.141	0.076
-265.267	42.439	0.014	-0.012
-264.253	53.544	-0.273	0.258
-263.238	-101.432	0.226	0.054
-262.224	212.129	-0.047	-0.074
-261.209	-80.847	0.082	-0.027
-260.195	-132.806	-0.357	-0.045
-259.180	221.958	0.117	0.185
-258.165	4.852	-0.201	-0.145
-257.151	-200.000	-0.068	0.447
-256.136	800.000	-0.057	0.164
-255.122	-200.000	0.128	0.000
-254.107	55.554	0.175	-0.166
-253.092	16.618	-0.263	0.205
-252.078	33.021	-0.050	0.043
-251.063	-12.807	0.141	0.090
-250.049	42.403	0.232	-0.207
-249.034	-200.000	-0.048	0.291
-248.019	112.641	0.259	-0.308
-247.005	363.445	-0.025	0.049
-245.990	150.661	0.139	0.186
-244.976	-19.777	0.036	0.022
-243.961	-70.585	-0.284	-0.106
-242.946	194.485	-0.188	-0.281
-241.932	-47.039	-0.174	0.084
-240.917	-40.348	0.008	-0.004
-239.903	-40.994	-0.198	0.101
-238.888	154.182	0.144	0.194
-237.873	-23.386	-0.222	-0.131
-236.859	326.774	-0.063	-0.119
-235.844	800.000	0.009	0.027
-234.830	581.531	0.044	-0.105
-233.815	374.604	0.116	0.232
-232.800	52.818	-0.066	-0.062
-231.786	-200.000	-0.009	-0.051
-230.771	87.596	-0.220	0.239
-229.757	95.977	0.124	-0.139
-228.742	92.511	0.167	0.185
-227.727	293.134	-0.096	-0.172
-226.713	34.215	-0.139	-0.119
-225.698	270.364	-0.040	-0.070
-224.684	-103.747	-0.238	0.055
-223.669	235.909	-0.036	-0.059
-222.655	35.224	0.242	0.208
-221.640	-114.858	-0.126	-0.024
-220.625	-85.732	0.367	-0.112
-219.611	-47.177	-0.144	0.069
-218.596	-87.793	-0.407	-0.120
-217.582	800.000	-0.051	0.193
-216.567	-28.902	0.205	0.116
-215.552	-33.862	0.268	-0.145
-214.538	-14.306	0.200	0.127
-213.523	-78.525	-0.064	0.021
-212.509	728.984	0.035	-0.091
-211.494	-56.501	-0.109	-0.048
-210.479	-200.000	0.020	0.443
-209.465	405.425	0.028	0.057
-208.450	-200.000	0.030	-0.205
-207.436	-14.938	0.132	-0.083
-206.421	169.567	-0.144	0.203
-205.406	-200.000	0.034	-0.165
-204.392	51.116	-0.055	0.051
-203.377	34.675	0.003	-0.003
-202.363	-200.000	0.007	-0.043
-201.348	-77.020	0.037	-0.013
-200.333	-49.694	-0.190	0.089
-199.319	-49.615	-0.020	-0.009
-198.304	77.584	-0.132	0.138
-197.290	134.689	-0.073	-0.093
-196.275	-200.000	-0.030	-0.131
-195.260	-29.510	-0.410	0.230
-194.246	-200.000	0.001	0.205
-193.231	-70.557	0.263	0.098
-192.217	-200.000	-0.042	-0.352
-191.202	3.316	0.147	0.105
-190.187	338.955	-0.161	0.307
-189.173	-200.000	0.009	0.149
-188.158	-92.383	0.371	-0.103
-187.144	-200.000	0.055	0.247
-186.129	92.663	0.134	0.149
-185.114	800.000	-0.006	0.018
-184.100	-85.338	0.168	-0.051
-183.085	154.849	0.171	-0.230
-182.071	64.565	0.161	0.159
-181.056	554.481	0.113	-0.266
-180.042	-168.115	-0.310	-0.012
-179.027	538.285	-0.073	0.171
-178.012	-74.378	0.038	-0.013
-176.998	-111.752	-0.034	0.007
-175.983	197.224	0.115	0.173
-174.969	104.764	0.141	0.163
-173.954	84.541	0.271	0.291
-172.939	-92.954	0.035	0.010
-171.925	67.583	-0.102	-0.103
-170.910	-29.621	-0.273	-0.153
-169.896	148.293	-0.166	0.220
-168.881	-200.000	0.070	0.422
-167.866	218.718	-0.151	0.236
-166.852	-27.438	0.278	-0.159
-165.837	-87.038	0.299	-0.089
-164.823	242.048	-0.070	0.116
-163.808	65.951	-0.326	-0.325
-162.793	15.699	0.184	-0.142
-161.779	-9.389	-0.082	0.054
-160.764	-22.082	-0.185	0.110
-159.750	-200.000	-0.001	0.315
-158.735	39.603	-0.101	-0.089
-157.720	-128.670	0.116	0.016
-156.706	-85.247	0.227	-0.070
-155.691	-48.515	-0.195	0.092
-154.677	186.624	0.108	-0.158
-153.662	405.832	0.113	0.233
-152.647	-200.000	0.009	-0.063
-151.633	-117.849	0.143	-0.025
-150.618	72.758	-0.176	-0.180
-149.604	-82.777	0.057	-0.018
-148.589	47.904	-0.154	-0.141
-147.574	-19.441	0.225	-0.137
-146.560	370.527	0.158	-0.313
-145.545	-44.792	-0.211	-0.103
-144.531	-156.712	-0.118	0.007
-143.516	800.000	0.065	0.215
-142.502	-200.000	0.034	0.315
-141.487	89.275	-0.160	-0.175
-140.472	-61.679	0.051	0.021
-139.458	800.000	0.025	0.070
-138.443	-94.966	-0.163	0.043
-137.429	247.735	0.122	0.201
-136.414	-200.000	0.021	-0.117
-135.399	-90.548	-0.249	0.071
-134.385	-57.704	-0.126	-0.054
-133.370	179.800	-0.205	-0.294
-132.356	125.173	-0.092	0.113
-131.341	-126.697	-0.170	-0.025
-130.326	19.797	-0.199	0.157
-129.312	273.136	-0.047	-0.081
-128.297	-200.000	0.021	-0.199
-127.283	-85.070	-0.112	0.034
-126.268	-200.000	-0.054	0.330
-125.253	-23.052	-0.190	0.112
-124.239	64.288	-0.349	0.344
-123.224	-59.148	0.076	0.032
-122.210	376.776	0.177	0.353
-121.195	800.000	0.099	-0.295
-120.180	-94.607	-0.133	-0.035
-119.166	126.366	0.105	0.130
-118.151	-200.000	0.032	-0.302
-117.137	265.438	-0.087	0.148
-116.122	-200.000	-0.016	-0.074
-115.107	-200.000	-0.041	-0.383
-114.093	-31.901	0.238	-0.131
-113.078	97.927	0.081	0.091
-112.064	7.175	0.086	0.063
-111.049	20.655	-0.050	0.040
-110.034	261.704	-0.045	-0.076
-109.020	527.622	-0.079	0.182
-108.005	-200.000	0.079	0.481
-106.991	120.632	0.048	0.059
-105.976	-200.000	0.009	-0.049
-104.962	-54.915	0.398	0.176
-103.947	800.000	0.042	0.174
-102.932	-47.433	0.300	-0.143
-101.918	231.748	-0.038	-0.060
-100.903	-200.000	0.000	0.149
-99.889	-30.482	-0.342	-0.190
-98.874	800.000	0.086	0.265
-97.859	-139.129	-0.104	0.011
-96.845	-147.639	0.181	0.015
-95.830	-121.957	0.151	0.024
-94.816	-132.507	0.100	-0.013
-93.801	44.933	-0.216	0.194
-92.786	111.573	-0.105	0.124
-91.772	114.242	-0.121	-0.144
-90.757	9.908	-0.116	0.086
-89.743	351.123	0.109	0.211
-88.728	-200.000	0.003	-0.021
-87.713	-103.427	-0.183	-0.042
-86.699	89.954	-0.137	0.150
-85.684	-200.000	0.098	0.519
-84.670	248.579	0.039	-0.064
-83.655	109.992	-0.088	0.103
-82.640	-39.149	-0.361	0.186
-81.626	96.024	-0.106	-0.118
-80.611	564.236	-0.109	-0.258
-79.597	-68.939	0.259	-0.098
-78.582	-13.917	-0.142	0.090
-77.567	-71.924	-0.136	-0.050
-76.553	224.586	-0.162	0.256
-75.538	-4.027	-0.253	-0.172
-74.524	355.160	0.099	-0.192
-73.509	324.865	0.111	-0.208
-72.494	-13.109	0.062	-0.039
-71.480	11.577	-0.039	-0.029
-70.465	-200.000	-0.024	0.201
-69.451	205.027	0.145	0.220
-68.436	338.007	0.065	-0.123
-67.422	627.705	-0.067	0.165
-66.407	-86.097	0.317	0.096
-65.392	-122.903	0.124	0.019
-64.378	-200.000	-0.003	0.184
-63.363	-200.000	-0.046	-0.241
-62.349	-106.112	-0.249	0.055
-61.334	124.552	-0.983	-1.209
-60.319	-4.901	0.654	0.440
-59.305	-200.000	0.058	-1.243
-58.290	263.173	0.757	1.285
-57.276	422.804	0.638	1.338
-56.261	-200.000	117.835	642.796
-55.246	480.052	1557.273	3448.478
-54.232	172.565	2733.927	3842.789
-53.217	98.057	2297.744	2582.831
-52.203	35.111	1902.836	1627.917
-51.188	29.132	1697.004	1406.267
-50.173	26.693	1656.655	1354.569
-49.159	46.799	1714.300	1555.260
-48.144	45.514	1727.914	1557.780
-47.130	28.689	1684.273	1392.138
-46.115	26.091	1670.106	1360.809
-45.100	26.028	1665.162	1356.255
-44.086	25.854	1662.812	1352.981
-43.071	25.864	1660.110	1350.800
-42.057	25.858	1657.697	1348.740
-41.042	25.852	1656.024	1347.280
-40.027	25.871	1654.033	1345.750
-39.013	25.797	1652.018	1343.508
-37.998	25.839	1650.119	1342.219
-36.984	25.880	1648.872	1341.456
-35.969	25.991	1647.584	1341.182
-34.954	25.997	1646.237	1340.081
-33.940	25.983	1644.313	1338.352
-32.925	25.942	1642.674	1336.663
-31.911	25.988	1641.405	1335.919
-30.896	26.023	1639.267	1334.382
-29.881	25.995	1637.878	1332.996
-28.867	25.961	1635.936	1331.111
-27.852	26.034	1634.627	1330.532
-26.838	26.074	1633.423	1329.791
-25.823	25.982	1632.314	1328.156
-24.809	26.197	1630.359	1328.095
-23.794	26.070	1629.100	1326.088
-22.779	26.026	1627.856	1324.696
-21.765	26.081	1626.061	1323.586
-20.750	26.012	1624.239	1321.545
-19.736	26.043	1623.023	1320.728
-18.721	25.991	1621.830	1319.327
-17.706	26.078	1620.243	1318.621
-16.692	25.998	1618.641	1316.681
-15.677	26.059	1617.306	1315.988
-14.663	26.059	1615.880	1314.776
-13.648	26.107	1614.125	1313.640
-12.633	25.933	1613.284	1311.642
-11.619	25.989	1611.409	1310.473
-10.604	26.033	1609.960	1309.560
-9.590	26.062	1608.184	1308.270
-8.575	26.056	1607.155	1307.343
-7.560	26.052	1605.695	1306.072
-6.546	25.940	1605.277	1304.868
-5.531	25.970	1603.833	1303.862
-4.517	25.966	1602.678	1302.845
-3.502	26.024	1601.662	1302.384
-2.487	26.062	1599.809	1301.101
-1.473	25.707	1588.164	1289.031
-0.458	23.097	1568.830	1254.798
0.556	21.596	1570.807	1223.711
1.571	19.252	1594.308	1225.260
2.586	18.787	1606.737	1231.373
3.600	16.991	1552.431	1177.193
4.615	10.702	1445.116	1054.979
5.629	5.035	1386.021	976.349
6.644	4.087	1378.402	964.992
7.659	4.120	1377.729	964.641
8.673	4.138	1376.924	964.105
9.688	4.216	1374.908	963.094
10.702	4.106	1371.671	960.060
11.717	6.790	1376.923	980.332
12.731	14.176	1390.105	1035.762
13.746	20.616	1401.176	1084.202
14.761	22.539	1403.251	1097.703
15.775	22.124	1401.399	1093.575
16.790	21.126	1398.332	1084.887
17.804	20.293	1396.857	1078.466
18.819	20.114	1395.498	1076.210
19.834	20.086	1394.970	1075.538
20.848	20.004	1393.718	1073.968
21.863	19.796	1392.900	1071.953
22.877	19.703	1391.586	1070.272
23.892	19.620	1390.774	1069.035
24.907	19.584	1389.806	1067.974
25.921	19.588	1388.669	1067.036
26.936	19.603	1387.670	1066.266
27.950	19.641	1386.724	1065.675
28.965	19.746	1386.095	1065.744
29.980	19.965	1384.647	1065.889
30.994	20.054	1383.710	1065.619
32.009	20.015	1382.821	1064.600
33.023	20.085	1381.720	1064.089
34.038	19.934	1380.447	1062.087
35.053	19.829	1379.026	1060.256
36.067	19.817	1377.854	1059.188
37.082	19.804	1377.169	1058.489
38.096	19.859	1376.528	1058.242
39.111	19.954	1375.343	1057.816
40.126	19.775	1374.426	1055.921
41.140	19.396	1373.498	1052.801
42.155	19.331	1372.489	1051.539
43.169	19.243	1372.033	1050.563
44.184	19.209	1372.375	1050.520
45.199	19.250	1372.029	1050.417
46.213	19.458	1371.701	1051.339
47.228	19.655	1370.877	1051.812
48.242	19.808	1369.991	1051.971
49.257	19.680	1368.246	1049.761
50.271	19.733	1366.800	1048.879
51.286	19.643	1365.685	1047.384
52.301	19.625	1364.632	1046.378
53.315	19.541	1363.190	1044.670
54.330	19.434	1362.217	1043.186
55.344	19.305	1360.834	1041.254
56.359	19.401	1359.546	1040.756
57.374	19.462	1358.097	1039.924
58.388	19.209	1358.404	1038.539
59.403	19.171	1357.750	1037.722
60.417	19.239	1356.206	1036.860
61.432	19.197	1355.741	1036.155
62.447	19.056	1355.073	1034.705
63.461	19.088	1353.228	1033.401
64.476	18.933	1352.912	1032.136
65.490	18.977	1351.927	1031.557
66.505	19.165	1349.643	1030.846
67.520	19.018	1348.972	1029.368
68.534	19.003	1348.191	1028.591
69.549	19.052	1346.940	1027.833
70.563	18.969	1345.372	1026.050
71.578	18.820	1344.889	1024.706
72.593	18.812	1343.306	1023.361
73.607	18.830	1342.467	1022.737
74.622	18.839	1342.557	1022.768
75.636	18.831	1341.824	1022.072
76.651	18.856	1341.039	1021.533
77.666	18.864	1340.858	1021.351
78.680	19.015	1340.484	1021.875
79.695	19.153	1339.427	1021.799
80.709	19.153	1338.611	1021.084
81.724	19.261	1338.195	1021.317
82.739	19.378	1337.266	1021.212
83.753	19.527	1336.391	1021.331
84.768	19.835	1335.530	1022.405
85.782	19.907	1334.712	1022.117
86.797	19.881	1333.534	1020.969
87.812	19.684	1332.261	1018.743
88.826	19.748	1330.962	1018.037
89.841	19.786	1330.421	1017.755
90.855	19.829	1329.647	1017.323
91.870	20.002	1328.408	1017.302
92.884	20.035	1327.590	1016.780
93.899	19.999	1326.977	1016.009
94.914	20.014	1326.309	1015.495
95.928	20.047	1325.121	1014.691
96.943	19.950	1324.527	1013.579
97.957	19.935	1323.389	1012.531
98.972	19.947	1322.427	1011.777
99.987	19.883	1321.475	1010.583
101.001	19.886	1320.631	1009.868
102.016	19.957	1319.510	1009.335
103.030	19.937	1318.586	1008.421
104.045	19.817	1318.220	1007.353
105.060	19.754	1316.454	1005.548
106.074	19.412	1314.378	1001.890
107.089	19.136	1313.123	999.242
108.103	19.014	1311.908	997.519
109.118	19.076	1310.554	996.759
110.133	19.200	1308.864	996.105
111.147	19.087	1308.029	994.727
112.162	19.220	1306.758	994.441
113.176	19.188	1305.709	993.372
114.191	19.316	1304.880	993.389
115.206	19.367	1303.192	992.311
116.220	19.244	1302.209	990.767
117.235	19.282	1301.094	990.051
118.249	19.282	1300.213	989.292
119.264	19.039	1299.348	987.151
120.279	18.916	1298.007	985.342
121.293	18.977	1297.340	985.096
122.308	18.957	1295.392	983.413
123.322	18.838	1294.239	981.775
124.337	18.750	1293.689	980.769
125.352	18.759	1292.341	979.712
126.366	18.853	1291.333	979.394
127.381	18.875	1289.975	978.403
128.395	18.802	1289.504	977.543
129.410	18.774	1288.294	976.383
130.424	18.933	1287.994	976.971
131.439	19.072	1286.784	976.753
132.454	19.112	1286.077	976.359
133.468	19.127	1285.732	976.097
134.483	19.278	1284.836	976.187
135.497	19.109	1284.036	974.533
136.512	19.184	1282.885	973.999
137.527	19.248	1281.335	973.097
138.541	19.305	1280.035	972.344
139.556	19.400	1278.951	971.973
140.570	19.446	1278.283	971.638
141.585	19.593	1276.987	971.391
142.600	19.714	1276.081	971.297
143.614	19.877	1275.331	971.557
144.629	19.824	1274.362	970.436
145.643	19.816	1273.229	969.442
146.658	19.591	1271.934	967.107
147.673	19.447	1270.007	964.756
148.687	19.398	1269.212	963.790
149.702	19.126	1268.058	961.310
150.716	19.174	1265.990	959.924
151.731	19.212	1265.492	959.674
152.746	19.275	1264.257	959.005
153.760	19.402	1263.070	958.721
154.775	19.460	1261.792	957.990
155.789	19.478	1261.366	957.684
156.804	19.559	1259.620	956.721
157.819	19.658	1258.911	956.646
158.833	19.844	1258.161	957.023
159.848	19.967	1257.765	957.313
160.862	19.799	1256.661	955.462
161.877	19.492	1255.179	952.558
162.892	19.347	1253.752	950.592
163.906	19.133	1252.914	948.693
164.921	19.252	1252.066	948.620
165.935	19.402	1251.130	948.652
166.950	19.469	1250.803	948.690
167.964	19.534	1249.893	948.272
168.979	19.409	1248.934	946.776
169.994	19.394	1248.027	945.919
171.008	19.553	1247.097	946.005
172.023	19.616	1246.658	945.934
173.037	19.754	1246.121	946.196
174.052	19.748	1245.245	945.412
175.067	19.357	1244.137	942.354
176.081	19.264	1242.433	940.472
177.096	19.210	1242.451	940.107
178.110	19.417	1240.487	939.667
179.125	19.371	1239.836	938.839
180.140	19.444	1238.579	938.202
181.154	19.636	1237.354	938.235
182.169	19.749	1236.690	938.259
183.183	19.825	1235.393	937.605
184.198	19.852	1233.888	936.527
185.213	19.857	1233.175	935.929
186.227	20.001	1232.444	936.072
187.242	20.087	1230.980	935.341
188.256	20.109	1230.340	934.886
189.271	20.013	1229.616	933.736
190.286	19.699	1228.377	931.023
191.300	19.494	1226.491	928.411
192.315	19.231	1226.387	926.831
193.329	19.367	1225.750	927.002
194.344	19.446	1225.253	926.966
195.359	19.521	1224.412	926.654
196.373	19.626	1223.702	926.597
197.388	19.666	1223.805	926.805
198.402	19.863	1223.950	927.889
199.417	20.092	1223.118	928.407
200.432	20.135	1222.618	928.175
201.446	20.363	1222.014	928.854
202.461	20.354	1221.139	928.058
203.475	20.427	1220.124	927.595
204.490	20.058	1218.562	924.354
205.504	19.887	1217.069	922.229
206.519	19.865	1215.913	921.154
207.534	19.679	1215.003	919.393
208.548	19.863	1213.653	919.271
209.563	19.882	1212.812	918.652
210.577	19.901	1212.125	918.151
211.592	20.018	1211.506	918.224
212.607	20.178	1210.993	918.601
213.621	20.153	1210.026	917.652
214.636	19.999	1209.035	916.005
215.650	20.140	1207.929	915.829
216.665	20.181	1207.347	915.523
217.680	20.266	1206.972	915.606
218.694	20.371	1205.863	915.241
219.709	20.399	1204.627	914.367
220.723	20.230	1204.528	913.324
221.738	20.225	1203.658	912.553
222.753	20.316	1202.596	912.150
223.767	20.277	1201.944	911.367
224.782	20.450	1201.162	911.600
225.796	20.529	1200.960	911.781
226.811	20.458	1200.169	910.730
227.826	20.285	1199.451	909.196
228.840	20.178	1198.512	907.844
229.855	20.180	1198.105	907.465
230.869	20.173	1196.823	906.377
231.884	20.027	1195.996	904.912
232.899	19.999	1195.071	903.986
233.913	19.907	1194.061	902.659
234.928	19.889	1193.455	902.027
235.942	19.827	1192.654	901.019
236.957	19.893	1191.595	900.484
237.972	19.927	1190.882	900.045
238.986	19.942	1190.505	899.756
240.001	19.938	1189.769	899.098
241.015	19.914	1188.858	898.208
242.030	20.136	1188.140	898.733
243.045	20.226	1186.991	898.255
244.059	20.215	1186.708	897.902
245.074	20.160	1186.250	897.192
246.088	20.280	1185.532	897.190
247.103	20.316	1185.019	896.910
248.117	20.479	1184.140	897.007
249.132	20.721	1184.073	898.123
250.147	20.952	1183.186	898.565
251.161	21.243	1182.293	899.302
252.176	21.094	1181.815	898.096
253.190	21.214	1181.463	898.363
254.205	21.335	1180.819	898.419
255.220	21.298	1179.980	897.507
256.234	21.314	1179.426	897.090
257.249	21.318	1178.665	896.454
258.263	21.279	1177.787	895.508
259.278	21.161	1177.706	894.761
260.293	21.280	1177.120	894.843
261.307	21.415	1176.321	894.851
262.322	21.495	1175.448	894.517
263.336	21.497	1175.092	894.176
264.351	21.323	1174.742	892.940
265.366	21.478	1173.899	893.011
266.380	21.514	1173.013	892.443
267.395	21.271	1171.911	890.290
268.409	21.111	1171.263	888.901
269.424	21.081	1170.797	888.318
270.439	21.249	1170.292	888.711
271.453	21.027	1169.438	886.853
272.468	21.025	1167.592	885.365
273.482	20.989	1166.569	884.330
274.497	20.927	1166.882	884.173
275.512	20.890	1166.337	883.494
276.526	20.908	1165.120	882.586
277.541	21.061	1164.358	882.705
278.555	21.018	1163.885	882.050
279.570	21.270	1163.420	882.895
280.585	21.449	1162.469	882.997
281.599	21.336	1162.148	882.105
282.614	21.291	1160.690	880.693
283.628	21.148	1159.252	878.803
284.643	21.144	1158.101	877.836
285.657	21.037	1157.806	876.995
286.672	21.126	1156.500	876.373
287.687	21.237	1155.382	876.006
288.701	21.204	1155.211	875.637
289.716	21.156	1154.052	874.439
290.730	21.145	1153.592	873.958
291.745	21.282	1152.495	873.735
292.760	21.271	1152.529	873.629
293.774	21.262	1152.407	873.412
294.789	21.501	1151.149	873.576
295.803	21.429	1150.733	872.825
296.818	21.188	1149.836	870.864
297.833	21.063	1148.951	869.494
298.847	21.145	1148.193	869.251
299.862	21.322	1146.875	869.057
300.876	21.249	1146.760	868.527
301.891	21.477	1145.767	868.835
302.906	21.570	1145.652	869.130
303.920	21.528	1145.555	868.772
304.935	21.797	1144.455	869.197
305.949	21.875	1144.048	869.194
306.964	21.734	1143.452	867.966
307.979	21.650	1142.563	866.797
308.993	21.612	1141.464	865.702
310.008	21.701	1140.926	865.657
311.022	21.796	1140.316	865.586
312.037	21.787	1139.026	864.486
313.052	21.586	1138.142	862.748
314.066	21.449	1136.993	861.125
315.081	21.183	1135.906	858.917
316.095	21.186	1135.172	858.303
317.110	21.261	1134.510	858.093
318.125	21.215	1133.736	857.209
319.139	21.209	1133.140	856.651
320.154	21.194	1132.509	856.026
321.168	21.172	1132.072	855.509
322.183	21.217	1131.712	855.381
323.197	21.409	1130.650	855.442
324.212	21.406	1130.007	854.869
325.227	21.404	1129.717	854.563
326.241	21.406	1129.022	853.971
327.256	21.352	1128.197	853.010
328.270	21.306	1126.939	851.757
329.285	21.345	1125.936	851.112
330.300	21.370	1125.084	850.516
331.314	21.178	1124.511	849.075
332.329	21.417	1123.178	849.153
333.343	21.385	1122.269	848.237
334.358	21.674	1121.826	849.225
335.373	21.654	1121.135	848.532
336.387	21.540	1120.661	847.544
337.402	21.717	1120.354	848.096
338.416	21.870	1119.212	847.896
339.431	21.829	1119.025	847.479
340.446	21.914	1118.628	847.514
341.460	22.117	1118.132	848.045
342.475	22.206	1116.847	847.426
343.489	22.269	1116.199	847.161
344.504	22.226	1115.792	846.568
345.519	22.330	1114.406	845.943
346.533	22.429	1113.857	845.928
347.548	22.409	1113.423	845.427
348.562	22.455	1112.342	844.755
349.577	22.175	1110.962	842.289
350.592	21.923	1110.001	840.277
351.606	21.715	1109.374	838.736
352.621	21.744	1108.457	838.103
353.635	21.695	1107.786	837.288
354.650	21.679	1107.319	836.783
355.665	21.721	1106.288	836.135
356.679	21.794	1106.091	836.256
357.694	21.902	1105.506	836.255
358.708	22.025	1104.867	836.284
359.723	21.988	1104.236	835.560
360.738	22.008	1103.708	835.180
361.752	22.054	1102.940	834.742
362.767	22.065	1102.588	834.457
363.781	22.134	1101.906	834.194
364.796	22.237	1101.744	834.484
365.810	22.337	1101.291	834.544
366.825	22.566	1100.440	834.908
367.840	22.692	1100.001	835.098
368.854	22.877	1099.118	835.229
369.869	22.656	1098.974	834.002
370.883	22.434	1098.118	832.229
371.898	22.262	1097.258	830.689
372.913	22.358	1096.320	830.362
373.927	22.465	1095.766	830.370
374.942	22.617	1095.484	830.799
375.956	22.574	1094.900	830.080
376.971	22.445	1094.539	829.129
377.986	22.524	1093.763	828.838
379.000	22.849	1093.124	829.809
380.015	22.709	1092.760	828.798
381.029	22.957	1091.921	829.255
382.044	22.983	1091.149	828.714
383.059	22.711	1090.359	826.767
384.073	22.754	1089.615	826.332
385.088	22.794	1088.807	825.833
386.102	22.804	1087.991	825.187
387.117	22.618	1086.314	822.975
388.132	22.331	1085.477	820.928
389.146	22.372	1084.562	820.355
390.161	22.309	1083.970	819.544
391.175	22.467	1083.341	819.731
392.190	22.459	1082.605	819.062
393.205	22.773	1082.133	820.094
394.219	22.715	1081.104	818.974
395.234	22.473	1080.117	817.027
396.248	22.522	1078.927	816.284
397.263	22.463	1077.878	815.147
398.278	22.441	1077.271	814.513
399.292	22.404	1076.237	813.487
400.307	22.225	1075.443	811.989
401.321	22.232	1074.689	811.379
402.336	22.080	1074.964	810.815
403.350	22.273	1073.762	810.727
404.365	22.247	1073.443	810.293
405.380	22.405	1072.721	810.403
406.394	22.429	1071.843	809.779
407.409	22.601	1071.113	809.948
408.423	22.948	1070.441	810.960
409.438	22.949	1069.891	810.474
410.453	22.991	1069.617	810.389
411.467	23.022	1069.017	810.004
412.482	23.106	1067.931	809.495
413.496	23.125	1067.628	809.278
414.511	23.188	1067.396	809.320
415.526	23.246	1067.120	809.306
416.540	23.339	1066.300	809.038
417.555	23.226	1066.141	808.329
418.569	23.178	1065.299	807.401
419.584	23.256	1064.471	807.056
420.599	23.312	1063.780	806.714
421.613	158.008	1405.098	1797.343
422.628	145.419	1454.787	1797.435
