DTS Sentinel unit serial number:	SN413079Multiplexer serial number:	ORYXHardware model number:	OX4-SRSoftware version number:	ORYX F/W v4.00 Oryx Data Collector v3.7.2.0data status	okinstallation	princeton_trtdifferential loss correction	single-endedforward channel	channel 2reverse channel	N/Adate	2019/09/16time	19:07:35forward acquisition time	60.00reverse acquisition time	0.00gamma	496.2192k internal	0.2323k external	0.2323temperature offset calibration	0.9967default loss term (dB/km)	0.3790temperature slope calibration	1.0000multiplexer offset coefficient	1.0000multiplexer slope coefficient	1.0000fibre end	0.00T internal ref (°C)	35.31T ext. ref 1 (°C)	0.08T ext. ref 2 (°C)	28.49length (m)	temperature (°C)	Stokes	anti-Stokes-747.200	191.895	0.201	0.306
-746.185	-129.878	0.156	-0.022
-745.171	-200.000	-0.048	0.238
-744.156	152.494	-0.183	0.252
-743.142	350.601	0.034	-0.068
-742.127	-10.917	-0.171	0.114
-741.112	70.256	0.128	-0.134
-740.098	-149.116	-0.130	-0.011
-739.083	263.995	0.114	0.200
-738.069	171.282	-0.244	0.353
-737.054	-34.161	0.162	-0.090
-736.039	-51.053	-0.201	0.095
-735.025	-108.420	0.208	-0.045
-734.010	-200.000	-0.413	-0.002
-732.996	30.404	-0.252	-0.217
-731.981	-33.087	-0.158	0.089
-730.966	16.172	-0.211	0.168
-729.952	800.000	0.140	-0.398
-728.937	-70.734	-0.329	-0.125
-727.923	23.363	0.157	-0.131
-726.908	39.293	-0.294	-0.265
-725.894	-168.043	0.075	-0.003
-724.879	800.000	-0.017	-0.073
-723.864	800.000	0.015	0.056
-722.850	-200.000	-0.025	-0.297
-721.835	33.611	0.280	0.245
-720.821	-31.870	-0.271	0.153
-719.806	-200.000	-0.028	-0.196
-718.791	-22.398	0.161	-0.099
-717.777	-95.669	-0.378	-0.102
-716.762	-136.975	-0.120	0.014
-715.748	141.618	-0.126	-0.169
-714.733	1.823	-0.337	0.245
-713.718	280.130	0.100	0.180
-712.704	66.388	-0.264	0.271
-711.689	24.670	-0.165	-0.138
-710.675	-200.000	0.042	-0.323
-709.660	238.225	-0.164	-0.275
-708.645	-179.649	-0.598	-0.013
-707.631	-94.506	0.242	-0.067
-706.616	387.389	0.101	0.211
-705.602	-40.239	0.049	-0.026
-704.587	-200.000	-0.006	0.046
-703.572	92.755	0.178	0.203
-702.558	38.972	-0.260	-0.234
-701.543	-200.000	0.035	-0.164
-700.529	-25.187	-0.134	0.080
-699.514	800.000	-0.032	-0.113
-698.499	-169.622	-0.216	-0.008
-697.485	-132.818	0.263	0.034
-696.470	403.625	-0.097	0.205
-695.456	-12.780	0.108	-0.071
-694.441	20.335	0.293	-0.239
-693.426	-20.625	0.291	-0.180
-692.412	149.912	0.205	-0.281
-691.397	-149.942	-0.156	-0.012
-690.383	-6.472	0.413	-0.284
-689.368	181.253	0.195	-0.289
-688.354	-34.554	-0.185	0.102
-687.339	192.034	-0.156	-0.237
-686.324	33.345	-0.128	-0.112
-685.310	-28.700	0.292	0.169
-684.295	800.000	0.162	0.475
-683.281	430.584	-0.078	-0.169
-682.266	68.704	0.143	0.148
-681.251	-200.000	-0.010	0.116
-680.237	-51.117	-0.190	0.090
-679.222	-200.000	-0.030	-0.192
-678.208	-10.695	-0.102	-0.068
-677.193	313.132	0.055	-0.103
-676.178	-78.945	-0.073	0.025
-675.164	25.204	-0.084	-0.070
-674.149	214.630	-0.061	-0.098
-673.135	142.955	0.072	-0.096
-672.120	-86.823	-0.170	0.052
-671.105	281.407	-0.166	-0.299
-670.091	-200.000	0.023	0.228
-669.076	72.301	0.146	-0.153
-668.062	-37.487	-0.398	0.214
-667.047	800.000	0.097	0.418
-666.032	-200.000	-0.009	-0.288
-665.018	-40.979	0.122	0.063
-664.003	-111.123	-0.235	-0.048
-662.989	69.694	-0.219	0.228
-661.974	800.000	-0.082	-0.284
-660.959	-78.482	-0.025	0.009
-659.945	39.653	-0.036	0.032
-658.930	696.944	0.065	0.173
-657.916	-80.228	0.193	-0.065
-656.901	137.993	-0.124	-0.164
-655.886	-40.650	-0.137	0.071
-654.872	-200.000	-0.028	-0.431
-653.857	32.298	-0.173	-0.150
-652.843	800.000	-0.045	-0.127
-651.828	-1.942	0.243	0.172
-650.814	-63.298	0.309	0.128
-649.799	12.807	0.150	0.116
-648.784	-200.000	0.013	-0.092
-647.770	-89.762	0.155	-0.046
-646.755	463.818	-0.073	-0.165
-645.741	631.809	0.032	0.083
-644.726	-56.046	-0.205	-0.092
-643.711	-200.000	-0.080	-0.458
-642.697	164.631	-0.117	-0.166
-641.682	24.914	-0.153	-0.128
-640.668	-165.005	-0.123	0.006
-639.653	-142.377	0.393	-0.039
-638.638	800.000	0.097	-0.298
-637.624	-114.137	-0.064	-0.013
-636.609	178.578	0.252	0.370
-635.595	10.545	0.151	0.116
-634.580	-64.536	0.245	0.100
-633.565	-89.845	0.101	-0.030
-632.551	-200.000	0.022	0.112
-631.536	-96.010	-0.033	-0.009
-630.522	-26.714	-0.445	-0.262
-629.507	147.193	0.110	-0.149
-628.492	-200.000	-0.003	0.160
-627.478	-200.000	-0.029	-0.197
-626.463	-80.937	-0.213	0.071
-625.449	-64.859	0.132	0.054
-624.434	21.043	0.175	-0.143
-623.419	-200.000	-0.021	0.227
-622.405	54.221	-0.194	-0.188
-621.390	800.000	-0.033	0.140
-620.376	-73.634	0.218	-0.080
-619.361	-177.036	0.060	-0.002
-618.346	234.932	0.113	-0.188
-617.332	-200.000	0.047	-0.245
-616.317	287.682	0.015	0.027
-615.303	-111.886	0.238	0.048
-614.288	800.000	-0.086	-0.249
-613.273	182.253	0.153	0.227
-612.259	99.089	-0.077	0.089
-611.244	-51.500	0.165	-0.078
-610.230	75.504	0.251	0.266
-609.215	-134.268	0.342	-0.042
-608.201	16.655	-0.120	-0.095
-607.186	-45.184	0.244	-0.122
-606.171	-144.719	0.104	-0.010
-605.157	-200.000	0.022	0.253
-604.142	46.946	-0.248	0.232
-603.128	-145.545	-0.345	-0.031
-602.113	199.053	-0.217	0.334
-601.098	-200.000	0.019	-0.235
-600.084	547.207	0.053	0.126
-599.069	47.398	-0.055	-0.052
-598.055	156.430	0.124	0.171
-597.040	777.819	-0.053	-0.145
-596.025	800.000	0.112	-0.354
-595.011	749.896	-0.100	-0.272
-593.996	-22.583	0.217	-0.132
-592.982	-67.055	0.254	-0.101
-591.967	-200.000	0.036	-0.292
-590.952	-40.048	0.261	-0.137
-589.938	-37.514	-0.256	0.137
-588.923	-49.837	0.356	-0.170
-587.909	16.591	0.122	0.097
-586.894	-120.099	-0.229	0.039
-585.879	47.070	-0.215	-0.200
-584.865	23.019	0.098	0.080
-583.850	-31.601	-0.209	-0.118
-582.836	-0.444	-0.101	-0.072
-581.821	-70.392	-0.060	-0.023
-580.806	800.000	-0.052	0.198
-579.792	20.127	0.107	-0.087
-578.777	142.413	0.091	-0.122
-577.763	-162.129	0.265	-0.013
-576.748	740.481	-0.017	0.045
-575.733	800.000	0.075	-0.324
-574.719	-200.000	0.063	-0.285
-573.704	800.000	0.077	-0.260
-572.690	-133.296	0.305	-0.039
-571.675	-21.965	0.174	0.106
-570.661	362.929	-0.086	0.173
-569.646	-95.484	0.036	0.010
-568.631	353.110	0.115	-0.229
-567.617	-20.665	0.208	0.128
-566.602	800.000	-0.039	0.138
-565.588	670.872	-0.129	-0.334
-564.573	-129.661	0.223	-0.031
-563.558	47.599	-0.231	0.216
-562.544	800.000	-0.044	-0.151
-561.529	67.473	0.165	-0.169
-560.515	200.102	0.014	-0.022
-559.500	-73.942	0.554	-0.202
-558.485	-200.000	-0.005	0.196
-557.471	44.546	0.263	0.243
-556.456	-35.604	-0.055	-0.030
-555.442	94.351	0.129	-0.147
-554.427	1.586	-0.303	-0.219
-553.412	107.819	0.207	-0.248
-552.398	-105.724	-0.497	0.113
-551.383	-144.292	0.237	-0.022
-550.369	430.586	-0.199	-0.432
-549.354	101.953	-0.099	-0.116
-548.339	148.087	-0.079	-0.107
-547.325	-117.200	0.401	0.073
-546.310	21.886	-0.112	-0.091
-545.296	-125.361	-0.135	-0.021
-544.281	30.222	0.158	0.135
-543.266	-200.000	0.022	-0.186
-542.252	800.000	0.084	-0.236
-541.237	-200.000	0.006	-0.121
-540.223	78.592	-0.212	0.227
-539.208	116.785	-0.167	-0.205
-538.193	-200.000	0.018	0.249
-537.179	-200.000	-0.010	-0.175
-536.164	33.938	-0.187	-0.163
-535.150	-19.587	0.156	-0.097
-534.135	-170.723	-0.134	-0.005
-533.121	5.456	-0.126	-0.093
-532.106	-48.888	-0.077	-0.037
-531.091	-146.744	-0.127	-0.011
-530.077	47.182	-0.135	0.126
-529.062	23.485	0.123	-0.101
-528.048	18.899	-0.127	0.102
-527.033	11.438	0.289	0.222
-526.018	-35.144	-0.173	-0.095
-525.004	-200.000	-0.035	-0.200
-523.989	-10.167	0.188	0.125
-522.975	101.689	0.024	0.027
-521.960	-200.000	-0.029	-0.403
-520.945	-200.000	-0.033	-0.146
-519.931	-159.302	0.104	-0.006
-518.916	218.031	-0.074	0.118
-517.902	800.000	-0.119	-0.363
-516.887	370.407	-0.102	-0.208
-515.872	-20.268	-0.108	-0.067
-514.858	64.263	-0.159	-0.160
-513.843	-95.733	0.089	-0.024
-512.829	-87.054	0.033	-0.010
-511.814	260.389	0.040	0.070
-510.799	800.000	-0.061	-0.236
-509.785	800.000	0.037	-0.154
-508.770	112.209	-0.190	0.230
-507.756	-112.059	0.330	-0.067
-506.741	-140.705	-0.245	0.025
-505.726	-91.678	-0.053	-0.015
-504.712	-200.000	0.023	-0.188
-503.697	646.201	0.043	-0.109
-502.683	-200.000	0.062	0.293
-501.668	-153.436	-0.282	0.020
-500.653	182.638	0.081	0.119
-499.639	567.160	-0.111	0.270
-498.624	309.095	-0.117	0.218
-497.610	0.129	0.259	0.185
-496.595	176.016	-0.054	-0.078
-495.581	48.931	0.115	0.108
-494.566	132.400	0.076	0.098
-493.551	-103.236	-0.095	0.022
-492.537	-200.000	-0.023	0.207
-491.522	440.464	0.059	0.129
-490.508	-200.000	-0.004	0.214
-489.493	-111.470	-0.114	0.023
-488.478	-35.246	0.281	0.153
-487.464	-19.681	-0.271	-0.168
-486.449	274.539	-0.142	-0.252
-485.435	-108.881	-0.489	0.104
-484.420	-30.440	0.110	0.062
-483.405	50.520	0.328	0.310
-482.391	38.402	0.177	0.158
-481.376	-200.000	-0.030	0.186
-480.362	263.348	0.040	-0.070
-479.347	151.158	0.133	-0.181
-478.332	800.000	-0.020	-0.075
-477.318	800.000	0.023	0.086
-476.303	-57.681	0.154	-0.067
-475.289	-200.000	0.363	0.000
-474.274	180.675	0.083	0.121
-473.259	648.300	-0.105	-0.269
-472.245	-200.000	-0.002	0.112
-471.230	800.000	0.078	-0.271
-470.216	182.952	-0.022	0.032
-469.201	-146.263	0.211	0.019
-468.186	-131.710	-0.175	-0.023
-467.172	-86.116	-0.265	0.082
-466.157	-156.801	0.398	-0.024
-465.143	-93.267	0.116	-0.032
-464.128	-12.087	-0.142	0.093
-463.113	46.761	-0.101	-0.094
-462.099	442.703	0.031	-0.069
-461.084	88.652	0.125	0.138
-460.070	461.510	0.017	0.038
-459.055	188.401	-0.055	0.082
-458.040	-34.217	-0.182	0.100
-457.026	-158.995	-0.396	-0.022
-456.011	61.962	0.117	-0.117
-454.997	-200.000	0.007	-0.124
-453.982	-90.404	0.052	0.015
-452.968	495.530	-0.058	0.132
-451.953	72.943	0.243	0.253
-450.938	201.767	0.123	0.190
-449.924	-200.000	0.063	-0.322
-448.909	156.415	-0.207	0.286
-447.895	-18.477	-0.220	-0.137
-446.880	-14.018	0.043	-0.028
-445.865	-30.483	-0.052	0.030
-444.851	-121.029	-0.090	-0.015
-443.836	-22.503	0.153	-0.092
-442.822	631.059	0.022	0.056
-441.807	432.153	0.043	0.092
-440.792	-200.000	-0.014	-0.229
-439.778	-173.559	0.163	-0.005
-438.763	-103.180	-0.257	0.061
-437.749	-138.743	0.595	-0.065
-436.734	-200.000	0.020	0.212
-435.719	264.432	-0.075	-0.131
-434.705	-66.585	0.237	-0.094
-433.690	-5.471	0.222	-0.152
-432.676	740.677	-0.100	-0.268
-431.661	-130.651	-0.100	-0.013
-430.646	59.960	0.224	-0.221
-429.632	104.602	-0.258	0.303
-428.617	800.000	-0.106	0.344
-427.603	-56.692	-0.252	-0.111
-426.588	-130.623	0.502	-0.068
-425.573	107.628	0.056	-0.066
-424.559	-100.821	-0.205	0.050
-423.544	297.927	0.106	0.194
-422.530	-200.000	0.019	0.378
-421.515	4.385	0.183	0.134
-420.500	-170.707	-0.191	-0.007
-419.486	-200.000	-0.002	0.015
-418.471	-87.831	-0.398	0.120
-417.457	-24.158	-0.167	0.100
-416.442	-200.000	0.006	-0.155
-415.428	-62.864	-0.100	0.041
-414.413	6.109	-0.103	0.076
-413.398	518.365	-0.210	0.491
-412.384	301.596	-0.075	0.138
-411.369	312.800	0.048	0.090
-410.355	-150.779	-0.335	0.025
-409.340	12.346	0.208	-0.160
-408.325	14.095	-0.197	-0.153
-407.311	-200.000	-0.030	-0.243
-406.296	-144.919	0.403	0.037
-405.282	125.698	-0.038	0.048
-404.267	39.200	-0.149	-0.133
-403.252	-200.000	0.019	-0.267
-402.238	-100.693	-0.124	0.030
-401.223	28.961	-0.192	0.162
-400.209	447.901	-0.055	-0.121
-399.194	138.606	0.187	-0.245
-398.179	-173.308	-0.261	-0.008
-397.165	158.314	-0.135	0.186
-396.150	-40.076	-0.309	0.160
-395.136	50.412	-0.124	0.117
-394.121	-200.000	0.001	-0.030
-393.106	-103.433	0.171	0.040
-392.092	-61.496	-0.087	0.036
-391.077	275.413	0.203	0.358
-390.063	67.608	0.070	-0.072
-389.048	-114.627	-0.315	0.060
-388.033	-93.467	-0.204	-0.056
-387.019	-92.565	-0.397	0.111
-386.004	-200.000	0.019	-0.255
-384.990	-73.997	-0.173	0.063
-383.975	-118.868	0.046	-0.008
-382.960	-97.744	0.223	0.058
-381.946	-200.000	0.035	0.190
-380.931	-200.000	0.098	0.517
-379.917	696.707	0.147	0.384
-378.902	-72.986	-0.234	-0.086
-377.888	600.632	0.165	0.407
-376.873	-200.000	0.004	0.098
-375.858	-63.546	-0.327	0.134
-374.844	23.827	0.062	-0.051
-373.829	-129.407	0.369	-0.051
-372.815	320.927	-0.045	0.085
-371.800	272.394	0.245	-0.430
-370.785	800.000	0.027	-0.116
-369.771	-85.876	0.178	-0.055
-368.756	569.533	-0.061	0.147
-367.742	-88.735	0.142	0.042
-366.727	800.000	-0.033	-0.105
-365.712	-9.516	-0.099	-0.066
-364.698	800.000	-0.026	-0.074
-363.683	-42.347	0.202	0.103
-362.669	-56.061	-0.337	0.150
-361.654	161.182	0.163	0.226
-360.639	-88.371	-0.113	0.034
-359.625	-50.902	-0.349	-0.163
-358.610	52.535	-0.298	0.283
-357.596	-122.404	-0.024	0.004
-356.581	145.409	-0.106	0.141
-355.566	47.784	0.115	0.107
-354.552	-159.087	0.253	-0.014
-353.537	2.325	-0.133	0.096
-352.523	185.870	-0.091	0.135
-351.508	800.000	-0.037	0.124
-350.493	58.938	0.193	-0.189
-349.479	4.644	0.094	0.068
-348.464	-200.000	-0.050	-0.322
-347.450	82.606	0.061	0.066
-346.435	-150.336	0.195	-0.015
-345.420	-69.596	0.356	-0.136
-344.406	800.000	0.090	-0.315
-343.391	-150.636	-0.123	0.009
-342.377	-99.463	-0.406	0.102
-341.362	-74.735	-0.316	0.113
-340.348	706.879	-0.016	0.043
-339.333	105.459	0.112	-0.131
-338.318	-200.000	0.002	0.184
-337.304	517.478	-0.165	0.383
-336.289	-200.000	-0.077	0.358
-335.275	441.936	-0.140	-0.305
-334.260	162.201	0.288	-0.401
-333.245	-135.539	0.191	-0.023
-332.231	24.241	0.127	-0.104
-331.216	531.664	0.049	-0.116
-330.202	661.574	0.131	0.335
-329.187	372.293	-0.100	0.203
-328.172	-115.890	-0.165	0.031
-327.158	-60.963	-0.206	0.086
-326.143	800.000	-0.088	-0.304
-325.129	-44.225	-0.071	-0.035
-324.114	1.421	0.099	-0.071
-323.099	399.391	0.178	0.371
-322.085	162.134	0.062	-0.086
-321.070	303.163	0.030	-0.056
-320.056	-200.000	0.338	0.001
-319.041	111.012	-0.049	-0.059
-318.026	165.646	0.098	-0.138
-317.012	714.770	0.085	-0.225
-315.997	122.613	-0.147	0.183
-314.983	13.389	-0.071	0.055
-313.968	13.090	0.175	0.135
-312.953	-35.060	0.177	0.096
-311.939	151.984	0.096	-0.130
-310.924	21.807	0.106	-0.086
-309.910	8.746	-0.019	-0.014
-308.895	72.358	0.123	0.127
-307.880	-39.380	0.088	0.046
-306.866	-200.000	0.013	0.093
-305.851	647.562	0.026	-0.066
-304.837	-200.000	-0.030	0.150
-303.822	180.876	-0.083	-0.121
-302.807	-154.658	-0.180	-0.012
-301.793	-200.000	-0.078	0.360
-300.778	800.000	0.017	0.050
-299.764	-32.095	0.078	0.043
-298.749	345.206	0.056	0.109
-297.735	223.169	0.043	-0.069
-296.720	-113.766	-0.499	0.096
-295.705	-200.000	0.294	0.001
-294.691	152.721	0.089	-0.121
-293.676	-163.920	-0.086	-0.004
-292.662	17.971	-0.233	-0.184
-291.647	71.457	-0.170	0.175
-290.632	-88.916	0.200	0.059
-289.618	-200.000	-0.015	-0.113
-288.603	21.794	-0.162	0.131
-287.589	46.832	0.098	0.090
-286.574	-200.000	0.027	-0.164
-285.559	-7.288	0.327	-0.220
-284.545	-60.439	0.127	-0.054
-283.530	-200.000	-0.316	-0.000
-282.516	-200.000	-0.071	0.434
-281.501	38.793	-0.145	0.128
-280.486	-80.739	0.428	0.141
-279.472	-86.114	-0.196	-0.060
-278.457	-67.784	0.186	0.072
-277.443	354.876	-0.090	0.177
-276.428	800.000	-0.109	-0.378
-275.413	-178.560	0.194	-0.004
-274.399	-55.656	-0.224	-0.099
-273.384	-200.000	-0.028	0.142
-272.370	-42.362	0.290	0.147
-271.355	-89.073	-0.367	-0.108
-270.340	-9.888	0.252	0.166
-269.326	-19.394	-0.261	0.160
-268.311	-200.000	0.049	0.272
-267.297	-200.000	0.041	0.330
-266.282	509.292	-0.119	0.275
-265.267	-34.347	-0.207	-0.113
-264.253	441.706	-0.019	-0.042
-263.238	-200.000	-0.064	0.290
-262.224	-200.000	0.008	-0.175
-261.209	800.000	-0.077	0.262
-260.195	800.000	0.062	0.232
-259.180	800.000	-0.103	-0.418
-258.165	800.000	-0.045	0.134
-257.151	453.100	0.013	0.029
-256.136	-107.636	0.401	-0.087
-255.122	394.373	-0.064	-0.133
-254.107	112.757	0.086	0.103
-253.092	48.592	-0.198	0.184
-252.078	-200.000	-0.023	0.281
-251.063	-63.580	-0.228	-0.093
-250.049	-39.811	0.158	-0.082
-249.034	27.181	0.260	-0.216
-248.019	22.603	-0.350	-0.283
-247.005	-42.363	-0.178	-0.090
-245.990	-3.998	-0.180	-0.124
-244.976	-125.243	0.191	0.029
-243.961	-157.742	0.324	0.019
-242.946	-65.944	0.095	0.038
-241.932	-62.833	-0.192	0.079
-240.917	-200.000	-0.033	0.295
-239.903	-111.362	-0.192	-0.039
-238.888	-22.256	0.282	-0.170
-237.873	-65.868	0.306	0.121
-236.859	800.000	-0.078	-0.230
-235.844	-23.185	-0.162	-0.096
-234.830	-200.000	-0.042	0.370
-233.815	-200.000	-0.020	0.218
-232.800	298.835	0.074	0.135
-231.786	72.929	-0.038	0.039
-230.771	-116.938	0.500	0.091
-229.757	-200.000	-0.022	-0.277
-228.742	-24.520	-0.217	0.128
-227.727	-200.000	0.042	0.199
-226.713	450.379	0.146	0.318
-225.698	191.151	-0.139	0.207
-224.684	800.000	-0.057	0.211
-223.669	-145.083	-0.225	0.020
-222.655	436.904	0.081	-0.174
-221.640	103.987	-0.302	-0.351
-220.625	17.464	-0.167	0.131
-219.611	-7.832	-0.264	-0.176
-218.596	152.754	-0.180	-0.243
-217.582	164.021	0.173	-0.241
-216.567	433.901	0.083	0.178
-215.552	-25.832	0.051	-0.030
-214.538	800.000	-0.015	-0.054
-213.523	158.384	-0.171	-0.235
-212.509	-112.644	-0.202	-0.040
-211.494	79.275	0.285	0.302
-210.479	67.738	0.154	-0.156
-209.465	-200.000	-0.046	-0.273
-208.450	-30.137	0.198	-0.111
-207.436	800.000	-0.095	-0.312
-206.421	60.991	-0.037	-0.036
-205.406	800.000	-0.103	0.314
-204.392	-200.000	0.016	0.218
-203.377	98.789	0.116	-0.132
-202.363	-101.581	-0.382	0.092
-201.348	55.414	0.278	-0.266
-200.333	52.611	-0.149	-0.140
-199.319	-200.000	-0.026	0.182
-198.304	-200.000	0.024	-0.151
-197.290	-190.484	0.177	0.002
-196.275	28.732	0.194	0.162
-195.260	23.721	-0.178	0.145
-194.246	-118.579	0.229	-0.040
-193.231	-200.000	-0.064	-0.294
-192.217	-171.972	-0.171	-0.005
-191.202	37.577	0.326	0.286
-190.187	83.723	-0.124	-0.134
-189.173	800.000	-0.029	-0.084
-188.158	46.203	0.202	-0.185
-187.144	449.712	0.111	0.243
-186.129	434.511	-0.085	0.182
-185.114	257.097	0.068	0.115
-184.100	-28.162	0.050	0.028
-183.085	149.963	-0.091	-0.122
-182.071	-200.000	-0.002	-0.126
-181.056	-59.123	-0.128	0.055
-180.042	-200.000	-0.027	0.123
-179.027	-108.507	-0.236	0.050
-178.012	-125.991	0.111	-0.016
-176.998	-200.000	-0.006	-0.256
-175.983	-72.210	-0.177	0.065
-174.969	800.000	0.048	0.182
-173.954	45.078	-0.186	-0.169
-172.939	-200.000	-0.042	-0.339
-171.925	209.240	-0.071	-0.111
-170.910	-26.513	-0.053	-0.031
-169.896	-84.776	-0.160	-0.050
-168.881	-66.238	0.360	-0.141
-167.866	-200.000	-0.011	-0.123
-166.852	6.223	-0.144	0.106
-165.837	-200.000	0.124	-0.551
-164.823	241.274	0.196	-0.323
-163.808	-147.246	-0.468	0.039
-162.793	56.612	-0.232	0.223
-161.779	51.613	0.202	0.190
-160.764	191.457	0.230	0.343
-159.750	-122.314	0.284	-0.046
-158.735	-160.733	-0.365	0.019
-157.720	800.000	0.078	-0.240
-156.706	417.938	0.052	-0.110
-155.691	339.256	-0.273	0.526
-154.677	-200.000	-0.030	-0.327
-153.662	49.098	-0.154	0.143
-152.647	398.398	0.172	0.355
-151.633	-70.806	-0.186	-0.069
-150.618	-48.372	-0.329	0.156
-149.604	71.009	-0.101	-0.104
-148.589	800.000	-0.043	0.173
-147.574	-200.000	-0.032	0.187
-146.560	-99.185	-0.083	-0.021
-145.545	163.250	0.258	0.357
-144.531	-169.686	-0.302	0.011
-143.516	23.628	0.136	-0.110
-142.502	622.603	0.019	-0.048
-141.487	-200.000	-0.086	0.396
-140.472	215.935	0.307	-0.481
-139.458	-200.000	0.029	0.191
-138.443	-152.138	0.293	-0.021
-137.429	-22.290	-0.168	0.100
-136.414	776.963	0.071	-0.190
-135.399	-36.711	0.255	0.135
-134.385	-101.432	0.246	0.059
-133.370	547.435	-0.061	-0.144
-132.356	-176.778	-0.102	-0.003
-131.341	-41.105	0.362	0.184
-130.326	-200.000	0.000	-0.275
-129.312	760.253	0.063	0.169
-128.297	-11.255	0.157	-0.102
-127.283	127.605	-0.196	0.246
-126.268	800.000	0.072	-0.293
-125.253	800.000	0.025	0.073
-124.239	-116.194	-0.258	-0.047
-123.224	800.000	0.057	0.156
-122.210	111.345	0.225	0.268
-121.195	-200.000	0.023	0.437
-120.180	188.429	0.169	0.249
-119.166	-200.000	0.019	0.114
-118.151	-200.000	0.002	0.041
-117.137	233.477	-0.134	-0.217
-116.122	800.000	-0.016	0.068
-115.107	-200.000	-0.007	-0.175
-114.093	21.452	0.202	-0.162
-113.078	-200.000	0.027	-0.147
-112.064	111.946	-0.066	0.079
-111.049	540.854	-0.067	-0.158
-110.034	413.831	-0.125	-0.261
-109.020	1.497	-0.228	0.162
-108.005	-200.000	0.067	0.403
-106.991	-117.369	-0.356	0.064
-105.976	76.300	-0.043	0.045
-104.962	-200.000	0.003	-0.021
-103.947	136.620	-0.123	-0.158
-102.932	-48.714	0.416	0.197
-101.918	-28.928	-0.060	0.034
-100.903	-13.390	0.258	0.165
-99.889	362.439	-0.169	0.335
-98.874	-120.188	0.059	-0.010
-97.859	-200.000	0.036	0.216
-96.845	-65.731	0.105	0.041
-95.830	385.026	0.049	0.099
-94.816	-200.000	0.007	-0.083
-93.801	-200.000	0.007	-0.259
-92.786	257.384	-0.064	-0.108
-91.772	69.356	-0.232	0.235
-90.757	279.719	-0.049	0.086
-89.743	-115.254	-0.213	-0.040
-88.728	8.736	0.173	-0.129
-87.713	-200.000	-0.003	-0.131
-86.699	-34.216	-0.261	0.141
-85.684	-24.503	0.137	-0.080
-84.670	78.072	0.158	-0.166
-83.655	-200.000	-0.013	-0.111
-82.640	34.103	0.081	-0.069
-81.626	-132.583	0.149	-0.019
-80.611	43.135	-0.205	0.184
-79.597	-111.777	-0.299	0.060
-78.582	13.519	-0.111	0.085
-77.567	-16.432	-0.272	0.170
-76.553	99.936	-0.211	-0.241
-75.538	64.657	0.139	0.138
-74.524	-39.423	0.274	0.141
-73.509	-200.000	0.028	0.129
-72.494	-16.653	0.163	0.102
-71.480	304.719	-0.297	-0.542
-70.465	-200.000	0.066	0.290
-69.451	20.081	-0.044	0.035
-68.436	147.839	0.082	0.108
-67.422	-200.000	0.017	-0.181
-66.407	285.730	-0.080	0.142
-65.392	432.044	-0.095	0.202
-64.378	-200.000	-0.018	0.243
-63.363	1.519	-0.182	-0.129
-62.349	702.119	-0.038	0.099
-61.334	21.960	-1.093	-0.876
-60.319	-114.075	0.241	0.046
-59.305	800.000	-0.218	-0.846
-58.290	800.000	0.324	0.982
-57.276	618.390	0.616	1.522
-56.261	-200.000	96.012	572.663
-55.246	562.856	1379.029	3281.538
-54.232	155.592	2575.945	3487.846
-53.217	110.270	2290.140	2704.276
-52.203	44.923	1909.361	1728.168
-51.188	38.651	1697.618	1488.989
-50.173	35.809	1653.014	1428.742
-49.159	52.698	1701.406	1598.161
-48.144	56.193	1718.955	1640.890
-47.130	38.280	1675.373	1466.464
-46.115	35.349	1660.564	1431.608
-45.100	35.205	1655.467	1426.083
-44.086	35.196	1652.795	1423.660
-43.071	35.125	1650.160	1420.804
-42.057	35.120	1648.061	1418.906
-41.042	35.213	1645.614	1417.429
-40.027	35.260	1643.527	1415.924
-39.013	35.188	1641.640	1413.711
-37.998	35.168	1640.293	1412.345
-36.984	35.216	1638.916	1411.455
-35.969	35.324	1637.203	1410.722
-34.954	35.425	1635.135	1409.628
-33.940	35.269	1634.022	1407.467
-32.925	35.406	1631.698	1406.408
-31.911	35.220	1630.549	1404.004
-30.896	35.364	1628.469	1403.210
-29.881	35.345	1626.590	1401.396
-28.867	35.252	1625.297	1399.550
-27.852	35.286	1623.988	1398.610
-26.838	35.365	1622.151	1397.552
-25.823	35.279	1621.034	1395.904
-24.809	35.303	1619.895	1395.048
-23.794	35.315	1618.135	1393.560
-22.779	35.380	1616.597	1392.655
-21.765	35.319	1614.913	1390.704
-20.750	35.301	1613.489	1389.296
-19.736	35.447	1612.150	1389.142
-18.721	35.406	1610.560	1387.422
-17.706	35.244	1609.501	1385.283
-16.692	35.315	1607.764	1384.242
-15.677	35.213	1606.288	1382.186
-14.663	35.351	1604.734	1381.788
-13.648	35.353	1603.189	1380.415
-12.633	35.298	1601.721	1378.702
-11.619	35.335	1600.315	1377.704
-10.604	35.351	1598.843	1376.496
-9.590	35.396	1597.346	1375.477
-8.575	35.402	1596.384	1374.631
-7.560	35.373	1595.032	1373.205
-6.546	35.265	1594.172	1371.636
-5.531	35.389	1592.772	1371.267
-4.517	35.357	1591.723	1370.077
-3.502	35.334	1590.945	1369.193
-2.487	35.456	1589.081	1368.405
-1.473	35.041	1577.457	1355.406
-0.458	31.639	1557.071	1314.001
0.556	25.600	1555.617	1276.369
1.571	22.820	1578.186	1274.729
2.586	22.162	1591.136	1280.285
3.600	20.156	1539.200	1224.234
4.615	11.283	1428.108	1077.386
5.629	2.250	1358.994	968.144
6.644	0.188	1349.909	948.600
7.659	0.113	1348.343	946.945
8.673	0.017	1347.554	945.702
9.688	-0.007	1345.470	944.010
10.702	-0.121	1342.738	941.294
11.717	3.971	1349.364	971.581
12.731	13.198	1364.032	1040.386
13.746	18.120	1370.187	1076.044
14.761	17.430	1367.508	1069.508
15.775	16.274	1364.623	1059.905
16.790	15.182	1362.444	1051.268
17.804	14.465	1359.584	1044.476
18.819	14.092	1358.516	1041.228
19.834	13.772	1357.379	1038.262
20.848	13.470	1355.973	1035.209
21.863	13.293	1354.351	1032.771
22.877	13.029	1353.464	1030.358
23.892	13.075	1352.260	1029.637
24.907	13.054	1351.720	1029.003
25.921	13.107	1350.689	1028.457
26.936	13.119	1349.922	1027.857
27.950	13.176	1349.333	1027.676
28.965	13.225	1348.084	1026.934
29.980	13.356	1346.573	1026.504
30.994	13.367	1346.196	1026.193
32.009	13.356	1345.138	1025.231
33.023	13.320	1344.448	1024.392
34.038	13.308	1343.062	1023.173
35.053	13.165	1342.420	1021.705
36.067	13.318	1340.495	1021.093
37.082	13.287	1340.065	1020.485
38.096	13.447	1338.897	1020.493
39.111	13.333	1338.275	1019.225
40.126	13.201	1337.284	1017.568
41.140	13.231	1336.896	1017.366
42.155	13.160	1336.377	1016.448
43.169	13.093	1336.060	1015.703
44.184	13.103	1335.755	1015.440
45.199	13.113	1335.284	1015.059
46.213	13.175	1334.409	1014.681
47.228	13.252	1333.968	1014.732
48.242	13.317	1332.396	1013.843
49.257	13.265	1330.570	1012.044
50.271	13.182	1329.517	1010.644
51.286	13.193	1328.450	1009.815
52.301	13.108	1327.822	1008.730
53.315	13.121	1326.575	1007.767
54.330	13.202	1324.896	1006.898
55.344	13.101	1324.107	1005.595
56.359	13.109	1323.183	1004.856
57.374	13.113	1322.410	1004.205
58.388	13.137	1321.048	1003.222
59.403	13.067	1320.845	1002.554
60.417	12.973	1320.003	1001.257
61.432	13.071	1319.149	1001.114
62.447	13.022	1318.202	1000.010
63.461	13.008	1316.839	998.806
64.476	13.005	1315.669	997.813
65.490	12.944	1314.840	996.725
66.505	12.962	1312.860	995.244
67.520	13.095	1311.675	995.059
68.534	13.007	1310.874	993.837
69.549	13.056	1309.948	993.342
70.563	12.987	1308.981	992.104
71.578	12.913	1307.755	990.641
72.593	12.932	1306.858	989.989
73.607	12.999	1305.876	989.561
74.622	12.914	1305.332	988.553
75.636	12.970	1303.979	987.773
76.651	12.928	1303.620	987.164
77.666	12.986	1302.763	986.774
78.680	12.878	1302.748	986.028
79.695	13.000	1301.471	985.702
80.709	13.077	1300.422	985.280
81.724	13.072	1300.151	984.961
82.739	13.180	1298.772	984.468
83.753	13.150	1298.175	983.754
84.768	13.223	1297.227	983.384
85.782	13.332	1295.715	982.798
86.797	13.319	1294.325	981.577
87.812	13.204	1293.570	980.235
88.826	13.109	1292.425	978.720
89.841	13.213	1291.376	978.451
90.855	13.219	1290.839	977.993
91.870	13.414	1289.403	977.975
92.884	13.323	1288.465	976.639
93.899	13.265	1288.141	975.965
94.914	13.290	1287.319	975.404
95.928	13.335	1286.647	975.072
96.943	13.271	1285.741	973.922
97.957	13.296	1284.583	973.107
98.972	13.306	1283.500	972.255
99.987	13.370	1282.649	971.901
101.001	13.297	1281.789	970.738
102.016	13.281	1280.501	969.583
103.030	13.268	1279.893	968.961
104.045	13.363	1278.767	968.580
105.060	13.194	1278.113	967.010
106.074	13.183	1276.669	965.765
107.089	13.108	1274.973	963.959
108.103	13.078	1274.237	963.141
109.118	13.120	1272.892	962.287
110.133	13.105	1271.530	961.085
111.147	13.092	1270.217	959.929
112.162	13.077	1269.410	959.147
113.176	13.202	1267.928	958.670
114.191	13.237	1266.939	958.041
115.206	13.253	1265.568	957.012
116.220	13.213	1264.746	956.073
117.235	13.132	1263.535	954.606
118.249	13.201	1262.702	954.289
119.264	13.113	1261.658	952.907
120.279	13.106	1260.646	952.021
121.293	13.184	1259.245	951.326
122.308	13.098	1258.620	950.275
123.322	13.044	1257.527	949.058
124.337	13.109	1256.578	948.630
125.352	13.086	1255.636	947.701
126.366	13.133	1254.196	946.799
127.381	13.101	1253.410	945.942
128.395	13.114	1252.143	944.973
129.410	13.148	1251.281	944.437
130.424	13.128	1250.933	943.972
131.439	13.207	1249.697	943.410
132.454	13.099	1248.986	942.171
133.468	13.298	1247.403	942.026
134.483	13.181	1247.054	941.013
135.497	13.190	1246.027	940.207
136.512	13.261	1244.426	939.319
137.527	13.291	1243.238	938.510
138.541	13.121	1242.302	936.759
139.556	13.311	1240.715	936.552
140.570	13.361	1239.762	936.034
141.585	13.312	1238.724	934.890
142.600	13.366	1237.270	934.016
143.614	13.449	1236.539	933.852
144.629	13.413	1235.488	932.768
145.643	13.361	1234.184	931.410
146.658	13.270	1232.920	929.860
147.673	13.234	1231.577	928.565
148.687	13.309	1230.415	928.028
149.702	13.239	1229.028	926.505
150.716	13.214	1227.671	925.262
151.731	13.264	1226.538	924.604
152.746	13.226	1225.498	923.527
153.760	13.348	1223.914	922.932
154.775	13.388	1222.659	922.129
155.789	13.291	1222.113	921.095
156.804	13.406	1221.106	920.891
157.819	13.483	1220.177	920.539
158.833	13.409	1219.004	919.160
159.848	13.563	1217.807	919.036
160.862	13.440	1217.291	917.878
161.877	13.430	1216.314	917.010
162.892	13.312	1215.041	915.313
163.906	13.407	1213.780	914.810
164.921	13.386	1213.738	914.579
165.935	13.382	1212.120	913.256
166.950	13.461	1211.617	913.235
167.964	13.318	1211.234	912.074
168.979	13.366	1210.339	911.585
169.994	13.502	1209.499	911.621
171.008	13.441	1208.656	910.567
172.023	13.607	1207.388	910.447
173.037	13.607	1207.017	910.084
174.052	13.673	1205.854	909.491
175.067	13.496	1205.009	907.803
176.081	13.579	1203.593	907.110
177.096	13.483	1202.730	905.854
178.110	13.467	1201.927	905.079
179.125	13.557	1200.770	904.622
180.140	13.514	1199.554	903.392
181.154	13.557	1198.191	902.516
182.169	13.528	1197.206	901.540
183.183	13.660	1195.764	901.087
184.198	13.618	1194.996	900.203
185.213	13.737	1193.763	899.838
186.227	13.670	1192.723	898.612
187.242	13.621	1191.815	897.586
188.256	13.768	1190.670	897.440
189.271	13.739	1189.669	896.449
190.286	13.628	1188.854	895.156
191.300	13.594	1187.523	893.888
192.315	13.509	1186.968	892.936
193.329	13.571	1186.913	893.148
194.344	13.663	1185.496	892.499
195.359	13.589	1185.268	891.851
196.373	13.818	1184.504	892.428
197.388	13.808	1184.212	892.077
198.402	13.832	1183.665	891.711
199.417	13.887	1182.937	891.379
200.432	13.886	1182.401	890.892
201.446	13.924	1181.706	890.493
202.461	14.015	1180.495	889.992
203.475	13.965	1179.580	888.955
204.490	13.965	1178.358	887.952
205.504	13.927	1177.067	886.701
206.519	13.917	1176.128	885.858
207.534	13.955	1174.597	884.832
208.548	13.937	1173.786	884.045
209.563	13.955	1173.386	883.765
210.577	13.821	1172.719	882.470
211.592	14.010	1171.089	882.167
212.607	14.114	1170.781	882.410
213.621	14.031	1169.985	881.290
214.636	13.989	1169.064	880.296
215.650	14.091	1167.521	879.600
216.665	14.153	1166.947	879.417
217.680	14.116	1166.104	878.509
218.694	14.224	1165.190	878.310
219.709	14.226	1164.551	877.763
220.723	14.144	1163.993	876.829
221.738	14.170	1163.143	876.251
222.753	14.172	1162.489	875.689
223.767	14.261	1162.103	875.792
224.782	14.286	1161.017	875.026
225.796	14.373	1160.422	874.959
226.811	14.284	1159.695	873.862
227.826	14.402	1158.387	873.418
228.840	14.406	1158.249	873.260
229.855	14.380	1157.687	872.624
230.869	14.342	1156.528	871.474
231.884	14.307	1156.023	870.834
232.899	14.240	1155.224	869.803
233.913	14.269	1154.523	869.352
234.928	14.250	1153.808	868.634
235.942	14.255	1152.955	867.945
236.957	14.230	1152.154	867.132
237.972	14.115	1151.735	866.139
238.986	14.163	1151.210	865.920
240.001	14.198	1150.276	865.320
241.015	14.252	1149.279	864.775
242.030	14.286	1148.650	864.403
243.045	14.484	1147.893	864.786
244.059	14.487	1146.939	864.005
245.074	14.474	1146.043	863.188
246.088	14.412	1145.710	862.539
247.103	14.419	1144.912	861.897
248.117	14.557	1143.812	861.705
249.132	14.665	1143.073	861.632
250.147	14.678	1142.799	861.414
251.161	14.710	1142.063	860.946
252.176	14.755	1140.844	860.183
253.190	14.747	1140.665	859.933
254.205	14.812	1140.007	859.695
255.220	14.747	1139.590	858.970
256.234	14.695	1139.065	858.230
257.249	14.785	1138.208	857.974
258.263	14.836	1137.529	857.645
259.278	14.709	1137.337	856.774
260.293	14.863	1136.475	856.838
261.307	14.809	1135.864	856.026
262.322	14.917	1135.184	855.988
263.336	14.848	1134.569	855.099
264.351	14.841	1133.773	854.386
265.366	14.864	1133.546	854.253
266.380	14.982	1132.631	854.092
267.395	14.985	1131.662	853.301
268.409	14.939	1131.061	852.539
269.424	14.907	1130.023	851.518
270.439	14.934	1129.881	851.473
271.453	14.905	1128.985	850.574
272.468	14.928	1128.041	849.905
273.482	14.970	1127.022	849.277
274.497	14.913	1126.769	848.721
275.512	14.986	1126.164	848.558
276.526	15.115	1125.320	848.505
277.541	15.002	1124.867	847.516
278.555	14.994	1124.378	847.032
279.570	15.084	1123.506	846.755
280.585	15.181	1122.761	846.608
281.599	15.137	1121.560	845.407
282.614	15.120	1120.872	844.724
283.628	15.111	1119.691	843.716
284.643	15.056	1118.634	842.568
285.657	15.177	1118.002	842.626
286.672	15.145	1117.071	841.688
287.687	15.255	1115.722	841.151
288.701	15.139	1115.607	840.405
289.716	15.218	1114.573	839.948
290.730	15.175	1114.265	839.426
291.745	15.254	1113.475	839.156
292.760	15.245	1112.802	838.528
293.774	15.261	1112.036	837.958
294.789	15.387	1111.734	838.283
295.803	15.466	1110.869	837.952
296.818	15.369	1110.097	836.810
297.833	15.334	1109.286	835.953
298.847	15.398	1108.685	835.744
299.862	15.390	1107.987	835.104
300.876	15.319	1106.972	833.911
301.891	15.464	1106.521	834.217
302.906	15.458	1106.258	833.919
303.920	15.538	1105.120	833.384
304.935	15.552	1104.736	833.090
305.949	15.573	1104.148	832.674
306.964	15.622	1103.117	832.068
307.979	15.590	1102.310	831.227
308.993	15.578	1101.483	830.469
310.008	15.597	1100.918	830.063
311.022	15.686	1100.293	829.957
312.037	15.658	1099.472	829.129
313.052	15.587	1098.250	827.784
314.066	15.572	1097.367	826.972
315.081	15.566	1096.413	826.149
316.095	15.573	1095.858	825.693
317.110	15.532	1095.510	825.157
318.125	15.527	1095.073	824.728
319.139	15.512	1094.178	823.909
320.154	15.511	1093.930	823.644
321.168	15.567	1092.922	823.085
322.183	15.605	1092.416	822.817
323.197	15.645	1091.827	822.497
324.212	15.655	1091.095	821.920
325.227	15.733	1090.251	821.596
326.241	15.675	1089.859	820.942
327.256	15.705	1089.148	820.480
328.270	15.708	1088.300	819.783
329.285	15.644	1087.510	818.808
330.300	15.714	1086.309	818.170
331.314	15.679	1085.899	817.617
332.329	15.800	1084.387	816.993
333.343	15.761	1083.375	815.968
334.358	15.644	1083.085	815.114
335.373	15.830	1082.335	815.375
336.387	15.841	1081.336	814.605
337.402	15.792	1080.687	813.809
338.416	15.902	1079.941	813.707
339.431	15.850	1079.529	813.072
340.446	15.870	1078.830	812.572
341.460	15.995	1078.315	812.712
342.475	16.066	1077.047	812.026
343.489	16.048	1076.343	811.338
344.504	15.990	1075.553	810.391
345.519	16.138	1074.804	810.467
346.533	16.142	1073.764	809.631
347.548	16.195	1073.144	809.343
348.562	16.210	1072.430	808.809
349.577	16.129	1071.754	807.840
350.592	16.142	1071.056	807.303
351.606	15.994	1070.372	806.010
352.621	16.145	1069.448	805.964
353.635	16.037	1068.878	804.948
354.650	16.136	1068.092	804.755
355.665	16.074	1067.803	804.172
356.679	16.021	1066.889	803.158
357.694	16.156	1066.416	803.375
358.708	16.193	1065.997	803.166
359.723	16.195	1064.942	802.307
360.738	16.215	1064.768	802.200
361.752	16.250	1064.577	802.150
362.767	16.158	1063.771	801.036
363.781	16.286	1062.859	800.887
364.796	16.379	1062.580	801.048
365.810	16.443	1061.740	800.647
366.825	16.361	1061.105	799.709
367.840	16.437	1060.450	799.501
368.854	16.563	1059.683	799.451
369.869	16.462	1058.916	798.321
370.883	16.390	1058.367	797.500
371.898	16.400	1057.577	796.881
372.913	16.550	1057.126	797.174
373.927	16.453	1056.758	796.371
374.942	16.547	1055.869	796.074
375.956	16.544	1055.545	795.742
376.971	16.553	1054.875	795.211
377.986	16.513	1054.410	794.603
379.000	16.626	1054.060	794.801
380.015	16.618	1053.060	793.935
381.029	16.678	1052.653	793.841
382.044	16.676	1051.811	793.126
383.059	16.675	1051.118	792.532
384.073	16.678	1050.421	791.950
385.088	16.793	1049.146	791.453
386.102	16.876	1048.219	791.073
387.117	16.573	1047.739	789.225
388.132	16.697	1047.025	789.194
389.146	16.652	1045.893	788.066
390.161	16.601	1045.601	787.535
391.175	16.648	1044.342	786.739
392.190	16.647	1044.220	786.572
393.205	16.810	1042.989	786.332
394.219	16.824	1042.322	785.823
395.234	16.798	1041.570	785.065
396.248	16.838	1040.512	784.385
397.263	16.792	1039.602	783.418
398.278	16.748	1038.693	782.460
399.292	16.692	1038.361	781.882
400.307	16.737	1037.448	781.333
401.321	16.878	1036.868	781.477
402.336	16.816	1036.252	780.657
403.350	16.665	1035.802	779.551
404.365	16.715	1035.202	779.264
405.380	16.892	1034.171	779.231
406.394	16.845	1033.862	778.715
407.409	16.954	1032.896	778.416
408.423	16.895	1032.363	777.675
409.438	17.037	1031.736	777.786
410.453	17.032	1030.859	777.034
411.467	16.966	1030.383	776.302
412.482	17.044	1029.840	776.181
413.496	17.168	1028.703	775.822
414.511	17.095	1028.239	775.070
415.526	17.125	1027.947	774.918
416.540	17.179	1027.185	774.523
417.555	17.193	1026.909	774.309
418.569	17.256	1025.974	773.822
419.584	17.281	1025.555	773.551
420.599	17.274	1025.174	773.167
421.613	98.836	1312.686	1439.781
422.628	90.326	1354.565	1439.904
