DTS Sentinel unit serial number:	SN413079Multiplexer serial number:	ORYXHardware model number:	OX4-SRSoftware version number:	ORYX F/W v4.00 Oryx Data Collector v3.7.2.0data status	okinstallation	princeton_trtdifferential loss correction	single-endedforward channel	channel 2reverse channel	N/Adate	2019/09/12time	07:49:11forward acquisition time	60.00reverse acquisition time	0.00gamma	496.2192k internal	0.2321k external	0.2321temperature offset calibration	1.0061default loss term (dB/km)	0.3790temperature slope calibration	1.0000multiplexer offset coefficient	1.0000multiplexer slope coefficient	1.0000fibre end	0.00T internal ref (°C)	32.86T ext. ref 1 (°C)	1.64T ext. ref 2 (°C)	28.92length (m)	temperature (°C)	Stokes	anti-Stokes-747.200	800.000	0.061	0.234
-746.185	-35.878	0.219	0.120
-745.171	-118.978	-0.152	0.027
-744.156	65.402	0.137	0.140
-743.142	800.000	-0.053	-0.230
-742.127	230.012	0.019	0.031
-741.112	-31.163	0.126	0.072
-740.098	800.000	0.090	0.285
-739.083	44.972	-0.237	0.221
-738.069	-96.784	-0.056	-0.015
-737.054	8.932	-0.114	-0.087
-736.039	114.340	-0.068	-0.084
-735.025	800.000	-0.116	0.387
-734.010	-139.806	0.057	0.006
-732.996	-200.000	-0.034	0.168
-731.981	155.858	-0.155	0.215
-730.966	182.063	-0.047	0.069
-729.952	-62.579	-0.223	-0.093
-728.937	42.607	0.251	0.231
-727.923	-12.519	-0.362	-0.239
-726.908	20.622	-0.286	-0.234
-725.894	146.114	0.196	-0.265
-724.879	-29.273	0.352	-0.203
-723.864	95.963	0.261	0.301
-722.850	-23.957	0.047	0.029
-721.835	-36.565	-0.109	0.059
-720.821	-111.959	0.162	0.033
-719.806	-82.466	-0.333	-0.109
-718.791	-200.000	-0.044	0.267
-717.777	93.413	0.185	0.211
-716.762	157.425	-0.123	-0.172
-715.748	10.966	-0.160	0.123
-714.733	98.809	-0.228	0.266
-713.718	-82.065	0.122	-0.040
-712.704	694.767	0.028	-0.075
-711.689	-100.676	-0.209	-0.052
-710.675	-80.003	0.288	-0.098
-709.660	-109.327	-0.243	0.052
-708.645	-82.023	-0.275	0.091
-707.631	-200.000	-0.012	0.139
-706.616	800.000	-0.106	-0.401
-705.602	125.655	0.236	-0.301
-704.587	528.121	-0.196	-0.467
-703.572	-49.856	-0.128	-0.061
-702.558	696.574	0.114	0.302
-701.543	-117.853	-0.226	-0.041
-700.529	-101.630	0.228	-0.056
-699.514	-149.523	0.026	0.002
-698.499	17.950	0.146	-0.118
-697.485	6.351	0.156	0.117
-696.470	-200.000	0.006	-0.213
-695.456	721.337	-0.048	0.128
-694.441	355.064	-0.131	-0.263
-693.426	-160.990	0.170	0.009
-692.412	309.487	0.127	-0.239
-691.397	800.000	0.054	-0.191
-690.383	518.715	0.091	-0.215
-689.368	6.396	-0.139	-0.104
-688.354	-200.000	-0.035	0.200
-687.339	-105.604	0.264	-0.060
-686.324	-113.252	-0.190	-0.038
-685.310	-105.332	-0.353	0.081
-684.295	-200.000	-0.006	0.065
-683.281	-60.370	-0.336	0.144
-682.266	-177.453	0.275	0.007
-681.251	-164.554	-0.129	0.006
-680.237	-200.000	0.041	-0.197
-679.222	-200.000	0.046	0.279
-678.208	382.685	0.085	-0.175
-677.193	178.497	-0.036	-0.052
-676.178	-88.202	0.147	-0.044
-675.164	32.196	0.080	-0.070
-674.149	-14.676	-0.097	-0.063
-673.135	223.983	0.112	0.182
-672.120	236.495	-0.091	-0.152
-671.105	166.296	-0.129	-0.184
-670.091	-200.000	0.013	0.365
-669.076	-13.479	0.111	-0.073
-668.062	179.462	0.212	-0.313
-667.047	-27.653	-0.126	0.074
-666.032	-102.305	0.255	-0.062
-665.018	-157.837	0.329	-0.020
-664.003	-29.057	-0.390	0.226
-662.989	164.536	0.082	-0.116
-661.974	416.951	-0.090	0.193
-660.959	-200.000	-0.012	-0.391
-659.945	106.564	0.159	0.190
-658.930	97.402	-0.201	0.233
-657.916	201.058	-0.149	0.231
-656.901	75.022	-0.126	-0.133
-655.886	-200.000	0.052	0.244
-654.872	-200.000	0.059	-0.422
-653.857	-150.385	0.314	-0.024
-652.843	-200.000	-0.014	0.098
-651.828	-37.231	-0.196	0.106
-650.814	112.603	-0.271	0.330
-649.799	344.104	0.165	0.325
-648.784	286.688	0.178	-0.324
-647.770	44.525	0.209	-0.193
-646.755	-200.000	0.043	-0.334
-645.741	800.000	-0.102	-0.286
-644.726	-15.934	0.221	0.142
-643.711	-55.412	0.172	-0.078
-642.697	44.801	-0.238	-0.220
-641.682	-90.775	-0.217	-0.063
-640.668	37.526	0.112	-0.100
-639.653	-191.676	-0.329	-0.003
-638.638	-200.000	0.050	0.313
-637.624	368.583	-0.141	-0.286
-636.609	-187.270	-0.030	0.000
-635.595	-127.155	-0.219	0.032
-634.580	12.682	-0.107	0.084
-633.565	-99.660	0.153	0.039
-632.551	83.331	0.104	-0.114
-631.536	-37.916	-0.386	-0.206
-630.522	-46.560	0.231	0.114
-629.507	-78.950	-0.209	-0.071
-628.492	134.329	-0.202	-0.263
-627.478	-85.121	0.187	0.059
-626.463	-170.970	0.289	0.010
-625.449	-110.823	0.276	0.057
-624.434	4.126	0.244	0.180
-623.419	72.890	-0.218	-0.229
-622.405	-99.636	-0.054	-0.014
-621.390	-62.632	-0.289	-0.121
-620.376	110.918	0.102	-0.123
-619.361	52.505	-0.175	-0.168
-618.346	115.741	0.004	-0.005
-617.332	779.972	0.042	-0.114
-616.317	60.257	0.133	-0.132
-615.303	-95.975	-0.060	-0.016
-614.288	59.570	0.072	0.071
-613.273	-200.000	-0.015	0.255
-612.259	-165.893	-0.202	0.009
-611.244	-200.000	-0.059	0.329
-610.230	79.374	-0.143	0.155
-609.215	-200.000	0.032	0.250
-608.201	498.617	0.037	-0.087
-607.186	538.748	-0.072	0.172
-606.171	-200.000	-0.009	-0.231
-605.157	-200.000	0.030	-0.314
-604.142	223.420	0.152	-0.246
-603.128	100.057	0.064	-0.075
-602.113	486.679	-0.090	-0.207
-601.098	-90.443	-0.154	0.045
-600.084	14.151	0.152	-0.119
-599.069	116.263	0.156	0.192
-598.055	-120.131	-0.091	0.016
-597.040	-200.000	-0.032	-0.272
-596.025	12.667	0.164	-0.127
-595.011	408.189	-0.120	0.255
-593.996	-8.268	0.235	-0.159
-592.982	-17.849	0.136	0.086
-591.967	-200.000	0.042	0.231
-590.952	-200.000	0.064	0.430
-589.938	-200.000	-0.037	-0.178
-588.923	-200.000	0.007	0.049
-587.909	98.085	-0.216	0.250
-586.894	-200.000	-0.008	-0.045
-585.879	496.439	-0.053	0.122
-584.865	-77.663	0.489	-0.170
-583.850	207.973	0.106	-0.167
-582.836	327.642	0.072	-0.139
-581.821	800.000	0.036	-0.133
-580.806	-32.382	0.325	0.182
-579.792	21.620	-0.118	0.097
-578.777	-151.562	0.192	-0.014
-577.763	397.397	-0.057	0.120
-576.748	259.721	-0.177	0.307
-575.733	12.558	0.057	0.044
-574.719	-115.306	-0.298	-0.057
-573.704	-200.000	-0.029	0.384
-572.690	260.312	-0.168	0.291
-571.675	-27.142	-0.233	-0.137
-570.661	-155.069	-0.163	-0.011
-569.646	1.220	0.196	-0.141
-568.631	-200.000	-0.020	-0.122
-567.617	224.319	0.100	0.162
-566.602	-197.405	-0.333	-0.002
-565.588	-99.493	0.168	0.042
-564.573	-23.458	0.547	-0.330
-563.558	305.406	0.135	0.252
-562.544	33.615	-0.180	-0.157
-561.529	-200.000	-0.010	-0.079
-560.515	733.228	0.116	0.311
-559.500	-36.600	-0.382	0.206
-558.485	-200.000	-0.029	-0.309
-557.471	-65.894	0.262	-0.105
-556.456	-200.000	-0.066	0.339
-555.442	241.104	-0.084	0.141
-554.427	800.000	-0.032	0.093
-553.412	-200.000	0.010	0.291
-552.398	-54.032	0.320	-0.146
-551.383	373.738	-0.165	-0.336
-550.369	-200.000	-0.086	-0.471
-549.354	28.987	-0.321	-0.273
-548.339	224.181	-0.131	-0.213
-547.325	-21.362	-0.292	-0.179
-546.310	-117.985	-0.270	-0.048
-545.296	-89.930	0.342	-0.100
-544.281	-200.000	0.012	-0.194
-543.266	38.781	-0.216	0.194
-542.252	-131.746	-0.164	-0.022
-541.237	236.769	0.125	0.207
-540.223	-200.000	0.006	-0.322
-539.208	201.269	-0.090	-0.138
-538.193	504.429	-0.051	-0.118
-537.179	695.292	0.024	-0.063
-536.164	112.995	0.217	-0.264
-535.150	181.402	0.251	-0.370
-534.135	800.000	-0.024	-0.078
-533.121	126.922	0.184	-0.234
-532.106	4.686	-0.186	-0.137
-531.091	158.806	0.117	-0.162
-530.077	137.898	-0.263	0.346
-529.062	-86.944	0.251	-0.077
-528.048	597.919	0.008	0.019
-527.033	800.000	0.042	-0.170
-526.018	-129.672	0.321	0.044
-525.004	-200.000	0.028	-0.189
-523.989	800.000	0.032	-0.110
-522.975	-200.000	-0.024	0.252
-521.960	54.394	0.125	0.121
-520.945	-139.847	-0.249	0.026
-519.931	-37.788	0.245	0.131
-518.916	-200.000	0.040	-0.368
-517.902	293.224	-0.090	0.165
-516.887	228.754	0.145	0.237
-515.872	-118.848	0.218	-0.038
-514.858	-46.963	-0.208	-0.102
-513.843	139.246	-0.172	0.227
-512.829	258.645	0.067	0.115
-511.814	-200.000	0.006	-0.187
-510.799	-32.792	-0.060	-0.034
-509.785	-200.000	0.034	-0.255
-508.770	-47.295	-0.433	-0.211
-507.756	-200.000	-0.064	0.305
-506.741	-12.838	0.278	-0.181
-505.726	800.000	-0.084	-0.279
-504.712	-200.000	0.038	-0.266
-503.697	-200.000	0.055	-0.347
-502.683	-24.544	-0.259	0.154
-501.668	-54.187	-0.177	-0.081
-500.653	68.296	-0.136	0.140
-499.639	-67.313	-0.061	0.024
-498.624	-200.000	0.013	0.167
-497.610	589.017	0.072	-0.178
-496.595	-59.149	-0.070	0.030
-495.581	-200.000	0.006	0.181
-494.566	-200.000	-0.036	-0.261
-493.551	-2.263	0.329	-0.231
-492.537	42.469	-0.217	-0.198
-491.522	1.474	-0.192	-0.138
-490.508	668.193	-0.101	-0.261
-489.493	800.000	-0.092	-0.343
-488.478	-64.280	-0.116	0.047
-487.464	-116.560	0.399	-0.073
-486.449	-137.767	-0.274	-0.031
-485.435	456.452	0.087	-0.193
-484.420	-57.774	-0.355	0.156
-483.405	800.000	0.070	-0.283
-482.391	-58.956	0.185	0.080
-481.376	76.757	-0.228	-0.242
-480.362	21.692	-0.156	0.127
-479.347	-200.000	-0.030	0.201
-478.332	180.923	-0.244	0.358
-477.318	-24.232	0.345	-0.206
-476.303	-172.367	0.145	-0.005
-475.289	-84.074	0.172	0.055
-474.274	280.605	-0.169	-0.302
-473.259	385.254	-0.175	-0.361
-472.245	-45.287	-0.038	-0.019
-471.230	338.428	-0.076	-0.148
-470.216	245.528	-0.129	-0.218
-469.201	94.320	-0.088	0.100
-468.186	-130.651	-0.100	0.013
-467.172	28.840	-0.212	-0.180
-466.157	-37.471	0.198	-0.106
-465.143	-167.257	0.014	0.001
-464.128	-200.000	0.004	-0.233
-463.113	311.374	0.153	-0.287
-462.099	-60.484	0.077	0.033
-461.084	-110.402	-0.182	-0.038
-460.070	-200.000	-0.013	-0.069
-459.055	-110.910	-0.303	-0.062
-458.040	-171.525	0.314	-0.010
-457.026	-200.000	-0.043	0.209
-456.011	10.332	-0.165	0.126
-454.997	-8.891	-0.409	0.274
-453.982	800.000	-0.053	-0.158
-452.968	-84.975	0.543	0.170
-451.953	-25.332	0.237	0.140
-450.938	2.508	0.229	-0.166
-449.924	440.900	-0.025	-0.054
-448.909	-15.763	-0.362	-0.230
-447.895	382.408	0.027	-0.055
-446.880	-200.000	-0.052	-0.328
-445.865	-112.895	0.083	-0.016
-444.851	-73.665	-0.149	-0.054
-443.836	-50.906	0.129	0.061
-442.822	-58.224	-0.066	0.029
-441.807	-200.000	-0.007	0.144
-440.792	103.571	-0.223	0.262
-439.778	-24.065	0.268	-0.160
-438.763	-152.192	-0.180	0.013
-437.749	266.062	-0.094	0.163
-436.734	-32.377	-0.162	0.090
-435.719	-83.005	-0.266	-0.086
-434.705	488.277	0.060	-0.136
-433.690	-114.025	0.095	-0.018
-432.676	118.241	-0.054	0.066
-431.661	-64.719	0.086	-0.035
-430.646	-62.326	-0.433	0.180
-429.632	165.235	0.108	0.153
-428.617	-123.115	0.021	-0.003
-427.603	314.926	-0.106	0.199
-426.588	-44.917	-0.127	-0.063
-425.573	-200.000	0.173	-0.000
-424.559	-200.000	-0.016	-0.124
-423.544	-200.000	-0.010	0.108
-422.530	220.425	-0.061	-0.097
-421.515	48.579	0.067	0.062
-420.500	-140.186	0.197	0.021
-419.486	221.093	-0.167	-0.268
-418.471	-61.147	0.236	0.099
-417.457	51.786	0.221	0.210
-416.442	800.000	0.030	-0.116
-415.428	762.298	0.053	0.144
-414.413	-89.080	-0.057	-0.017
-413.398	206.547	0.158	-0.246
-412.384	-200.000	-0.002	-0.146
-411.369	-88.370	0.137	-0.041
-410.355	-54.885	0.129	0.058
-409.340	-40.967	-0.124	0.064
-408.325	-8.400	0.263	0.176
-407.311	-158.424	-0.207	0.012
-406.296	19.087	0.455	0.364
-405.282	230.775	-0.128	0.208
-404.267	-54.742	-0.120	0.054
-403.252	-157.643	-0.247	-0.015
-402.238	39.535	0.121	0.108
-401.223	-200.000	-0.043	-0.267
-400.209	-200.000	0.012	0.331
-399.194	-83.370	0.269	0.086
-398.179	62.063	0.189	-0.187
-397.165	125.032	0.191	-0.239
-396.150	465.397	0.112	0.251
-395.136	-57.301	-0.192	-0.084
-394.121	-141.316	-0.139	-0.014
-393.106	404.374	-0.109	0.228
-392.092	-200.000	-0.051	-0.237
-391.077	-200.000	0.041	0.278
-390.063	-130.926	0.250	0.033
-389.048	-148.880	0.100	-0.008
-388.033	-56.229	0.112	-0.049
-387.019	155.500	-0.056	0.077
-386.004	-128.684	-0.126	0.018
-384.990	222.648	0.133	0.214
-383.975	800.000	-0.067	-0.263
-382.960	-106.220	-0.220	-0.049
-381.946	-171.337	0.107	-0.004
-380.931	-200.000	0.001	0.042
-379.917	-70.213	0.371	-0.140
-378.902	-109.721	0.411	0.086
-377.888	-200.000	-0.035	-0.242
-376.873	-124.388	0.341	-0.053
-375.858	639.098	-0.112	-0.285
-374.844	-200.000	-0.006	-0.228
-373.829	-25.090	0.042	-0.025
-372.815	-0.992	0.115	-0.081
-371.800	-30.468	-0.198	-0.112
-370.785	-33.592	0.176	-0.097
-369.771	-200.000	0.027	0.156
-368.756	800.000	-0.125	0.370
-367.742	179.325	0.152	0.222
-366.727	63.630	-0.117	-0.117
-365.712	2.206	0.293	0.211
-364.698	800.000	-0.062	0.261
-363.683	800.000	-0.161	-0.456
-362.669	91.790	0.174	0.195
-361.654	75.902	-0.281	-0.296
-360.639	-84.867	0.292	-0.091
-359.625	-14.575	0.093	0.060
-358.610	-200.000	0.043	-0.217
-357.596	317.507	0.097	-0.183
-356.581	-200.000	-0.012	0.331
-355.566	68.569	-0.135	0.138
-354.552	-53.119	0.178	-0.082
-353.537	-70.419	0.302	-0.114
-352.523	-200.000	-0.008	0.351
-351.508	-8.603	-0.123	0.082
-350.493	-147.069	-0.141	-0.012
-349.479	-6.185	0.144	0.098
-348.464	-96.790	-0.154	0.040
-347.450	-200.000	-0.059	-0.380
-346.435	-200.000	-0.012	0.312
-345.420	-200.000	-0.007	-0.132
-344.406	-200.000	0.028	-0.176
-343.391	-118.664	-0.090	0.016
-342.377	-200.000	0.019	0.175
-341.362	-200.000	-0.041	-0.297
-340.348	800.000	0.094	-0.363
-339.333	-126.123	-0.313	-0.047
-338.318	-96.702	-0.140	-0.037
-337.304	-129.755	-0.299	0.041
-336.289	-84.295	-0.042	-0.013
-335.275	144.298	0.075	0.100
-334.260	-78.544	0.243	0.083
-333.245	9.758	0.032	0.024
-332.231	-200.000	0.020	-0.166
-331.216	201.946	-0.145	0.223
-330.202	800.000	0.140	0.437
-329.187	492.536	-0.024	0.055
-328.172	800.000	0.094	-0.347
-327.158	-101.326	0.045	-0.011
-326.143	-32.184	-0.163	-0.090
-325.129	24.759	-0.108	-0.089
-324.114	384.290	0.145	0.298
-323.099	727.492	-0.048	0.129
-322.085	550.166	0.072	-0.171
-321.070	-75.029	-0.115	-0.041
-320.056	107.193	-0.169	0.199
-319.041	450.003	0.090	0.198
-318.026	162.063	-0.267	-0.372
-317.012	-160.793	0.054	-0.003
-315.997	-17.233	0.068	-0.042
-314.983	-16.456	0.138	0.087
-313.968	730.698	0.038	-0.101
-312.953	800.000	-0.076	0.293
-311.939	167.485	-0.187	0.264
-310.924	41.405	-0.098	0.088
-309.910	167.824	0.135	0.191
-308.895	-171.593	0.488	-0.016
-307.880	-200.000	-0.004	0.261
-306.866	800.000	0.060	0.192
-305.851	396.587	-0.114	-0.236
-304.837	354.274	-0.158	0.312
-303.822	-95.828	0.295	0.078
-302.807	623.376	0.126	-0.315
-301.793	723.158	-0.087	0.229
-300.778	223.881	-0.104	-0.166
-299.764	628.948	-0.096	-0.241
-298.749	-157.381	0.196	-0.012
-297.735	67.701	0.208	0.211
-296.720	161.137	-0.179	-0.248
-295.705	-191.224	-0.303	0.003
-294.691	800.000	0.023	0.080
-293.676	459.559	-0.066	0.145
-292.662	-200.000	-0.007	0.224
-291.647	146.675	-0.294	0.392
-290.632	-200.000	0.033	0.238
-289.618	-200.000	0.026	0.229
-288.603	-122.440	-0.527	0.085
-287.589	-91.088	0.096	-0.027
-286.574	784.244	0.139	0.378
-285.559	-200.000	0.016	-0.308
-284.545	-200.000	-0.009	0.238
-283.530	-1.366	-0.173	0.121
-282.516	-200.000	-0.050	-0.233
-281.501	-200.000	0.016	0.287
-280.486	10.318	-0.126	0.095
-279.472	250.887	0.011	-0.019
-278.457	800.000	0.024	-0.088
-277.443	76.461	0.167	-0.176
-276.428	-200.000	0.031	0.159
-275.413	-130.605	-0.217	0.029
-274.399	-20.050	0.109	-0.067
-273.384	339.405	0.138	-0.268
-272.370	100.992	0.069	0.080
-271.355	-200.000	0.016	0.214
-270.340	-58.354	0.061	0.026
-269.326	-40.742	-0.149	-0.077
-268.311	-200.000	-0.023	0.126
-267.297	-111.249	-0.072	0.015
-266.282	-6.659	0.069	0.047
-265.267	-200.000	0.084	-0.372
-264.253	-11.792	-0.170	0.111
-263.238	416.400	-0.102	-0.215
-262.224	-200.000	0.043	-0.268
-261.209	-65.098	0.206	-0.083
-260.195	35.770	0.306	0.267
-259.180	13.127	-0.080	0.062
-258.165	188.283	0.120	0.177
-257.151	122.775	0.125	0.155
-256.136	280.825	-0.039	0.069
-255.122	-200.000	-0.025	-0.215
-254.107	334.952	-0.054	0.103
-253.092	-200.000	0.038	-0.202
-252.078	584.466	0.128	0.312
-251.063	-200.000	-0.021	0.137
-250.049	208.975	0.134	0.208
-249.034	-84.783	-0.112	-0.035
-248.019	-77.654	-0.251	0.086
-247.005	-125.171	-0.209	-0.032
-245.990	-50.867	-0.133	0.062
-244.976	21.326	0.198	0.159
-243.961	476.295	0.067	0.150
-242.946	-68.374	-0.222	0.085
-241.932	-200.000	0.033	0.356
-240.917	-54.421	-0.229	-0.103
-239.903	-8.234	0.071	-0.047
-238.888	46.942	-0.117	-0.108
-237.873	89.773	0.177	-0.196
-236.859	521.278	0.024	-0.055
-235.844	226.135	0.101	0.163
-234.830	-46.845	-0.384	-0.186
-233.815	22.395	0.142	-0.115
-232.800	800.000	0.044	0.167
-231.786	291.515	-0.063	0.113
-230.771	-13.862	-0.531	0.340
-229.757	-118.561	0.123	-0.022
-228.742	-200.000	-0.012	0.358
-227.727	-200.000	0.001	-0.046
-226.713	338.940	0.146	-0.282
-225.698	800.000	0.071	-0.210
-224.684	-200.000	0.043	-0.359
-223.669	-200.000	0.002	0.013
-222.655	41.218	0.125	0.112
-221.640	-59.206	0.058	-0.025
-220.625	32.010	0.066	-0.057
-219.611	126.386	0.235	-0.295
-218.596	-115.740	-0.117	-0.022
-217.582	-103.549	0.096	0.022
-216.567	-128.325	-0.137	-0.019
-215.552	11.657	-0.322	-0.244
-214.538	24.473	-0.269	0.220
-213.523	-97.228	-0.410	-0.106
-212.509	228.309	-0.117	-0.188
-211.494	505.920	-0.208	0.477
-210.479	511.677	-0.101	0.233
-209.465	638.917	0.173	0.435
-208.450	-17.410	0.303	0.189
-207.436	-75.719	0.776	0.273
-206.421	-8.290	-0.411	0.274
-205.406	-53.979	0.153	0.069
-204.392	-112.083	0.165	-0.033
-203.377	-144.857	0.075	0.007
-202.363	-181.969	0.223	-0.004
-201.348	-109.338	0.154	-0.032
-200.333	-3.381	-0.053	0.037
-199.319	-64.345	0.286	0.115
-198.304	-16.272	0.085	-0.053
-197.290	29.340	0.208	0.175
-196.275	-35.860	-0.055	0.030
-195.260	73.610	-0.087	-0.091
-194.246	-200.000	-0.025	-0.192
-193.231	351.621	-0.190	0.372
-192.217	49.021	0.245	0.227
-191.202	-93.196	-0.106	-0.029
-190.187	-200.000	0.003	0.051
-189.173	48.004	-0.106	0.098
-188.158	-200.000	0.040	0.315
-187.144	-17.781	-0.061	-0.038
-186.129	274.366	0.111	-0.194
-185.114	-87.848	0.253	-0.075
-184.100	173.392	-0.103	0.146
-183.085	800.000	-0.047	0.172
-182.071	-4.702	0.256	-0.175
-181.056	16.861	-0.296	-0.231
-180.042	64.712	0.057	0.057
-179.027	-200.000	-0.040	-0.197
-178.012	8.338	-0.048	-0.036
-176.998	137.146	-0.090	0.116
-175.983	-17.494	-0.265	0.165
-174.969	-200.000	-0.044	-0.341
-173.954	254.393	0.112	-0.189
-172.939	604.593	-0.072	0.176
-171.925	-200.000	-0.020	0.114
-170.910	182.746	-0.061	0.089
-169.896	800.000	0.123	0.374
-168.881	-135.304	0.191	-0.023
-167.866	-72.415	-0.265	-0.097
-166.852	54.157	0.185	0.176
-165.837	311.172	0.176	0.327
-164.823	21.281	-0.186	0.149
-163.808	800.000	0.054	0.166
-162.793	-97.028	-0.080	0.021
-161.779	-7.846	0.432	0.288
-160.764	-200.000	-0.008	0.038
-159.750	133.528	0.091	-0.116
-158.735	83.512	-0.136	0.146
-157.720	-49.158	-0.166	-0.078
-156.706	-200.000	-0.039	0.207
-155.691	28.276	0.339	-0.283
-154.677	6.634	0.193	0.142
-153.662	800.000	-0.044	0.121
-152.647	-181.913	-0.167	-0.003
-151.633	60.010	-0.314	-0.306
-150.618	99.104	0.146	-0.167
-149.604	-66.429	0.408	0.160
-148.589	227.530	-0.135	0.218
-147.574	800.000	0.106	0.423
-146.560	397.086	0.113	0.233
-145.545	435.172	-0.122	0.263
-144.531	-76.160	0.108	-0.038
-143.516	-9.876	-0.209	0.137
-142.502	-200.000	0.052	0.379
-141.487	206.473	-0.023	-0.036
-140.472	800.000	-0.072	0.247
-139.458	66.225	0.188	0.189
-138.443	327.311	-0.215	-0.407
-137.429	7.748	-0.103	-0.076
-136.414	336.445	-0.093	0.179
-135.399	800.000	-0.077	0.303
-134.385	130.774	-0.158	0.200
-133.370	-35.320	-0.271	-0.145
-132.356	-55.480	0.248	0.110
-131.341	-200.000	0.034	-0.331
-130.326	-200.000	-0.038	-0.390
-129.312	-200.000	-0.004	-0.041
-128.297	800.000	-0.025	0.101
-127.283	-200.000	-0.117	0.550
-126.268	147.035	-0.149	-0.198
-125.253	107.475	0.084	0.098
-124.239	-200.000	0.002	0.231
-123.224	49.032	-0.049	0.046
-122.210	-67.051	-0.369	0.144
-121.195	270.367	-0.114	0.199
-120.180	-173.077	0.185	0.006
-119.166	-196.083	0.211	0.001
-118.151	245.302	0.187	0.310
-117.137	-107.014	0.160	-0.035
-116.122	-98.829	-0.127	0.032
-115.107	-64.167	0.224	-0.090
-114.093	-179.610	0.345	0.007
-113.078	102.624	-0.105	-0.121
-112.064	-167.994	0.143	-0.006
-111.049	-200.000	0.007	0.177
-110.034	-78.676	0.029	-0.010
-109.020	-134.320	-0.219	0.027
-108.005	-126.821	-0.321	0.047
-106.991	155.699	-0.125	0.169
-105.976	763.052	0.027	-0.072
-104.962	-157.556	0.106	-0.006
-103.947	156.770	-0.136	0.186
-102.932	-200.000	0.012	0.072
-101.918	25.332	-0.097	0.079
-100.903	211.288	-0.193	-0.299
-99.889	80.295	0.128	0.136
-98.874	42.471	0.212	0.190
-97.859	-128.447	-0.356	0.050
-96.845	110.826	0.261	-0.310
-95.830	227.407	-0.159	0.255
-94.816	215.373	-0.130	-0.204
-93.801	96.308	0.296	-0.334
-92.786	-8.315	0.188	-0.125
-91.772	-200.000	0.053	0.239
-90.757	293.222	0.116	0.208
-89.743	-3.584	0.204	-0.140
-88.728	-174.599	0.154	-0.004
-87.713	375.250	0.097	0.196
-86.699	-200.000	-0.022	-0.154
-85.684	55.301	-0.216	0.206
-84.670	255.206	-0.082	0.138
-83.655	137.591	-0.086	-0.111
-82.640	-200.000	-0.010	-0.330
-81.626	-200.000	0.012	-0.128
-80.611	-78.873	0.125	0.042
-79.597	306.037	0.033	0.061
-78.582	688.923	-0.181	-0.467
-77.567	-200.000	-0.112	-0.000
-76.553	-57.968	-0.119	0.051
-75.538	-145.087	0.175	0.016
-74.524	-200.000	0.035	-0.217
-73.509	-123.567	-0.328	-0.051
-72.494	65.259	-0.235	-0.234
-71.480	-53.434	0.239	-0.108
-70.465	-16.245	-0.240	0.150
-69.451	800.000	-0.022	0.093
-68.436	-149.973	-0.065	0.005
-67.422	-200.000	0.024	-0.172
-66.407	-106.156	0.057	0.013
-65.392	-200.000	0.004	0.230
-64.378	-112.787	-0.252	-0.049
-63.363	-92.246	-0.263	0.073
-62.349	-181.962	0.126	0.002
-61.334	25.814	-0.828	-0.679
-60.319	25.102	0.282	0.230
-59.305	-200.000	-0.085	-0.848
-58.290	273.803	0.499	0.868
-57.276	800.000	0.505	1.469
-56.261	-200.000	97.683	597.916
-55.246	548.604	1405.840	3313.508
-54.232	152.994	2602.474	3501.564
-53.217	106.179	2289.831	2668.389
-52.203	42.184	1908.237	1705.154
-51.188	36.181	1697.550	1471.207
-50.173	33.500	1652.949	1412.548
-49.159	51.487	1699.187	1588.203
-48.144	53.085	1715.944	1615.851
-47.130	35.778	1675.720	1449.025
-46.115	32.898	1661.744	1415.324
-45.100	32.785	1656.936	1410.329
-44.086	32.835	1653.399	1407.640
-43.071	32.828	1651.117	1405.589
-42.057	32.719	1649.002	1402.922
-41.042	32.737	1646.652	1400.999
-40.027	32.774	1644.863	1399.695
-39.013	32.680	1642.784	1397.173
-37.998	32.679	1641.147	1395.719
-36.984	32.673	1640.713	1395.250
-35.969	32.846	1638.272	1394.398
-34.954	32.888	1636.753	1393.358
-33.940	32.914	1634.677	1391.730
-32.925	32.867	1633.194	1390.060
-31.911	32.807	1631.680	1388.279
-30.896	32.800	1629.586	1386.387
-29.881	32.837	1627.937	1385.204
-28.867	32.946	1626.241	1384.504
-27.852	32.844	1624.754	1382.437
-26.838	32.875	1623.602	1381.626
-25.823	32.895	1621.942	1380.309
-24.809	32.839	1620.495	1378.611
-23.794	32.855	1619.138	1377.517
-22.779	32.889	1617.530	1376.343
-21.765	32.858	1615.605	1374.424
-20.750	32.914	1614.262	1373.636
-19.736	32.861	1613.184	1372.279
-18.721	32.917	1611.403	1371.117
-17.706	32.967	1609.667	1369.951
-16.692	32.903	1608.388	1368.338
-15.677	32.820	1607.365	1366.812
-14.663	32.904	1605.897	1366.118
-13.648	33.008	1603.959	1365.170
-12.633	32.892	1602.623	1363.138
-11.619	32.922	1601.046	1361.962
-10.604	32.955	1599.705	1361.008
-9.590	32.902	1598.668	1359.687
-8.575	32.872	1597.657	1358.556
-7.560	32.934	1596.100	1357.622
-6.546	32.811	1595.105	1355.842
-5.531	32.899	1593.926	1355.419
-4.517	32.928	1592.355	1354.237
-3.502	32.842	1591.600	1352.919
-2.487	32.940	1589.772	1352.019
-1.473	32.762	1578.090	1340.762
-0.458	30.310	1558.770	1307.054
0.556	26.856	1559.044	1277.042
1.571	24.634	1582.883	1280.548
2.586	24.098	1596.555	1287.620
3.600	20.926	1541.700	1221.084
4.615	11.348	1428.980	1069.207
5.629	3.061	1363.153	967.864
6.644	1.768	1354.640	953.645
7.659	1.721	1353.400	952.392
8.673	1.556	1352.134	950.387
9.688	1.506	1350.387	948.762
10.702	1.208	1347.751	944.971
11.717	4.807	1353.713	971.559
12.731	14.921	1374.013	1049.818
13.746	23.582	1388.624	1115.589
14.761	26.002	1391.449	1132.988
15.775	26.306	1391.876	1135.142
16.790	26.435	1391.119	1135.235
17.804	26.507	1390.707	1135.250
18.819	26.806	1389.979	1136.431
19.834	26.745	1389.605	1135.641
20.848	26.799	1388.871	1135.279
21.863	26.853	1388.011	1134.816
22.877	26.819	1387.099	1133.758
23.892	26.960	1386.107	1133.724
24.907	26.759	1385.780	1132.100
25.921	26.803	1384.371	1131.124
26.936	26.848	1383.057	1130.234
27.950	26.810	1382.405	1129.363
28.965	26.867	1381.136	1128.580
29.980	26.853	1380.122	1127.567
30.994	26.834	1378.754	1126.229
32.009	26.855	1377.412	1125.164
33.023	26.936	1376.428	1124.763
34.038	26.765	1375.475	1122.826
35.053	26.797	1374.551	1122.167
36.067	26.861	1373.342	1121.480
37.082	26.701	1372.790	1119.942
38.096	26.760	1371.923	1119.497
39.111	26.807	1370.989	1118.929
40.126	26.825	1370.624	1118.642
41.140	26.931	1369.536	1118.308
42.155	26.764	1369.590	1117.223
43.169	26.881	1369.987	1118.169
44.184	26.805	1369.580	1117.272
45.199	26.781	1368.962	1116.517
46.213	26.865	1368.386	1116.468
47.228	26.912	1366.982	1115.513
48.242	26.749	1366.479	1114.001
49.257	26.839	1364.507	1112.849
50.271	26.673	1363.768	1111.129
51.286	26.809	1362.256	1110.629
52.301	26.741	1361.275	1109.315
53.315	26.746	1360.141	1108.325
54.330	26.738	1359.537	1107.687
55.344	26.840	1357.756	1106.758
56.359	26.747	1357.031	1105.501
57.374	26.842	1356.011	1105.152
58.388	26.848	1355.501	1104.677
59.403	26.841	1355.155	1104.254
60.417	26.803	1354.474	1103.373
61.432	26.778	1353.646	1102.445
62.447	26.806	1353.030	1102.016
63.461	26.842	1351.836	1101.163
64.476	26.765	1350.967	1099.892
65.490	26.768	1350.014	1099.040
66.505	26.839	1348.279	1097.957
67.520	26.837	1346.921	1096.743
68.534	26.862	1346.105	1096.133
69.549	26.798	1345.949	1095.521
70.563	26.857	1344.449	1094.560
71.578	26.911	1343.294	1093.851
72.593	26.880	1342.151	1092.636
73.607	26.844	1341.938	1092.145
74.622	26.827	1341.071	1091.246
75.636	26.787	1340.581	1090.509
76.651	26.853	1339.416	1089.858
77.666	26.808	1339.067	1089.212
78.680	26.852	1338.688	1089.068
79.695	26.890	1337.611	1088.324
80.709	26.746	1337.539	1087.303
81.724	26.912	1335.770	1086.768
82.739	26.902	1335.127	1086.085
83.753	26.824	1334.662	1085.144
84.768	26.839	1333.088	1083.860
85.782	26.904	1332.107	1083.355
86.797	26.852	1331.446	1082.409
87.812	26.778	1330.368	1080.996
88.826	26.921	1328.329	1080.093
89.841	26.883	1327.440	1079.049
90.855	26.966	1326.552	1078.724
91.870	26.776	1326.604	1077.544
92.884	26.825	1325.490	1076.836
93.899	26.886	1324.496	1076.291
94.914	27.039	1323.299	1076.136
95.928	26.887	1323.270	1075.113
96.943	26.824	1322.760	1074.233
97.957	26.842	1322.035	1073.652
98.972	26.889	1320.921	1072.935
99.987	26.890	1320.098	1072.175
101.001	26.914	1318.843	1071.203
102.016	26.925	1317.974	1070.464
103.030	26.827	1317.242	1069.199
104.045	26.967	1316.234	1069.109
105.060	26.896	1315.304	1067.845
106.074	26.913	1314.276	1067.014
107.089	26.946	1313.487	1066.475
108.103	26.954	1311.872	1065.113
109.118	26.972	1311.087	1064.487
110.133	26.982	1310.242	1063.769
111.147	26.962	1308.952	1062.507
112.162	26.916	1307.620	1061.063
113.176	26.968	1306.601	1060.449
114.191	26.975	1306.069	1059.961
115.206	26.861	1305.625	1058.843
116.220	26.923	1304.206	1057.962
117.235	26.985	1303.312	1057.499
118.249	26.924	1302.633	1056.501
119.264	26.970	1301.488	1055.749
120.279	26.988	1300.964	1055.334
121.293	26.994	1299.929	1054.436
122.308	26.913	1299.538	1053.556
123.322	26.968	1298.226	1052.720
124.337	26.948	1297.488	1051.910
125.352	27.077	1296.557	1051.808
126.366	27.030	1295.957	1050.958
127.381	27.063	1294.878	1050.181
128.395	27.100	1293.859	1049.472
129.410	27.043	1293.367	1048.654
130.424	26.896	1292.984	1047.400
131.439	27.117	1291.544	1047.415
132.454	26.962	1291.437	1046.347
133.468	26.991	1290.736	1045.850
134.483	26.963	1289.888	1044.908
135.497	27.050	1288.735	1044.381
136.512	27.014	1288.006	1043.492
137.527	27.070	1286.698	1042.663
138.541	27.003	1285.330	1041.079
139.556	27.043	1283.945	1040.095
140.570	27.012	1282.815	1038.909
141.585	26.936	1282.947	1038.488
142.600	26.974	1281.357	1037.326
143.614	27.003	1280.557	1036.752
144.629	26.919	1279.685	1035.477
145.643	26.916	1278.555	1034.450
146.658	26.893	1277.719	1033.554
147.673	26.957	1276.254	1032.644
148.687	26.844	1275.786	1031.526
149.702	26.930	1274.526	1030.905
150.716	26.954	1273.145	1029.835
151.731	26.995	1272.570	1029.510
152.746	27.017	1271.527	1028.699
153.760	26.978	1270.839	1027.833
154.775	27.093	1269.276	1027.130
155.789	26.898	1268.615	1025.401
156.804	26.886	1267.904	1024.670
157.819	27.085	1266.633	1024.672
158.833	27.098	1265.839	1024.013
159.848	27.104	1265.035	1023.304
160.862	27.051	1264.911	1022.817
161.877	27.150	1263.895	1022.458
162.892	27.151	1262.905	1021.577
163.906	27.122	1262.601	1021.074
164.921	27.100	1261.656	1020.095
165.935	27.133	1260.685	1019.406
166.950	27.099	1260.370	1018.872
167.964	27.087	1259.806	1018.260
168.979	27.078	1259.370	1017.765
169.994	27.193	1258.346	1017.494
171.008	27.140	1257.689	1016.576
172.023	27.089	1257.015	1015.655
173.037	27.108	1256.253	1015.053
174.052	27.124	1255.510	1014.451
175.067	27.076	1255.094	1013.760
176.081	27.180	1254.025	1013.387
177.096	27.158	1253.119	1012.443
178.110	27.068	1252.362	1011.242
179.125	27.094	1251.384	1010.506
180.140	27.213	1250.176	1010.102
181.154	27.077	1249.267	1008.522
182.169	27.108	1248.223	1007.763
183.183	27.107	1247.101	1006.761
184.198	27.172	1246.117	1006.238
185.213	27.157	1245.337	1005.437
186.227	27.266	1244.006	1004.874
187.242	27.258	1243.759	1004.541
188.256	27.353	1242.100	1003.638
189.271	27.213	1241.670	1002.432
190.286	27.193	1241.340	1001.962
191.300	27.212	1240.770	1001.522
192.315	27.190	1240.214	1000.861
193.329	27.191	1239.695	1000.362
194.344	27.250	1239.282	1000.261
195.359	27.392	1238.666	1000.456
196.373	27.202	1238.453	999.152
197.388	27.090	1238.177	998.228
198.402	27.156	1237.735	998.145
199.417	27.214	1237.689	998.336
200.432	27.212	1236.713	997.453
201.446	27.213	1236.272	997.013
202.461	27.159	1235.628	996.108
203.475	27.202	1234.398	995.264
204.490	27.202	1233.652	994.573
205.504	27.089	1232.830	993.204
206.519	27.330	1231.408	993.286
207.534	27.223	1231.173	992.425
208.548	27.391	1229.331	991.773
209.563	27.283	1229.068	990.884
210.577	27.302	1228.024	990.056
211.592	27.194	1227.933	989.308
212.607	27.335	1226.504	988.833
213.621	27.420	1225.814	988.656
214.636	27.338	1225.280	987.691
215.650	27.410	1224.260	987.172
216.665	27.473	1222.937	986.357
217.680	27.372	1222.335	985.236
218.694	27.417	1221.462	984.689
219.709	27.527	1220.616	984.518
220.723	27.382	1220.328	983.412
221.738	27.345	1219.715	982.630
222.753	27.286	1219.017	981.664
223.767	27.470	1217.884	981.659
224.782	27.473	1217.768	981.494
225.796	27.399	1217.774	981.010
226.811	27.415	1216.669	980.123
227.826	27.474	1216.023	979.833
228.840	27.461	1215.476	979.232
229.855	27.434	1214.660	978.345
230.869	27.392	1214.162	977.630
231.884	27.484	1213.189	977.254
232.899	27.386	1212.677	976.228
233.913	27.372	1212.532	975.951
234.928	27.573	1211.444	976.067
235.942	27.608	1210.911	975.737
236.957	27.508	1210.158	974.510
237.972	27.501	1209.561	973.908
238.986	27.503	1208.842	973.252
240.001	27.460	1208.608	972.745
241.015	27.562	1207.374	972.212
242.030	27.643	1206.671	971.995
243.045	27.562	1205.631	970.635
244.059	27.515	1205.386	970.103
245.074	27.652	1204.524	970.055
246.088	27.631	1203.513	969.044
247.103	27.653	1202.999	968.658
248.117	27.586	1202.124	967.512
249.132	27.640	1201.516	967.222
250.147	27.714	1200.307	966.557
251.161	27.657	1200.086	965.994
252.176	27.654	1199.765	965.630
253.190	27.742	1198.863	965.289
254.205	27.822	1197.907	964.853
255.220	27.684	1197.995	964.110
256.234	27.622	1197.093	962.974
257.249	27.809	1196.406	963.321
258.263	27.701	1195.969	962.312
259.278	27.679	1195.319	961.590
260.293	27.756	1194.546	961.290
261.307	27.665	1194.704	960.850
262.322	27.616	1194.224	960.123
263.336	27.724	1192.847	959.499
264.351	27.753	1192.248	959.084
265.366	27.769	1191.510	958.490
266.380	27.788	1190.990	958.086
267.395	27.776	1190.341	957.418
268.409	27.733	1189.713	956.601
269.424	27.704	1189.362	956.083
270.439	27.680	1188.980	955.564
271.453	27.706	1188.240	955.019
272.468	27.848	1187.106	954.766
273.482	27.738	1186.556	953.666
274.497	27.756	1186.298	953.468
275.512	27.797	1185.520	952.975
276.526	27.784	1184.698	952.160
277.541	28.021	1183.599	952.426
278.555	27.864	1183.804	951.689
279.570	27.937	1182.824	951.199
280.585	27.964	1181.655	950.314
281.599	27.840	1181.302	949.302
282.614	27.736	1180.603	948.115
283.628	27.919	1179.575	948.156
284.643	27.970	1178.146	947.188
285.657	27.969	1177.664	946.712
286.672	27.855	1177.031	945.530
287.687	27.923	1175.903	944.891
288.701	27.967	1175.507	944.716
289.716	27.940	1174.726	943.862
290.730	27.875	1173.893	942.778
291.745	27.956	1173.423	942.735
292.760	27.968	1173.175	942.513
293.774	27.955	1172.479	941.805
294.789	27.985	1172.033	941.518
295.803	28.109	1171.078	941.303
296.818	28.022	1170.692	940.465
297.833	28.118	1169.622	940.013
298.847	28.118	1169.084	939.499
299.862	28.017	1168.758	938.632
300.876	28.107	1167.940	938.354
301.891	28.077	1167.468	937.741
302.906	28.142	1166.662	937.344
303.920	28.100	1166.064	936.562
304.935	28.127	1165.834	936.434
305.949	28.075	1165.016	935.429
306.964	28.075	1164.309	934.780
307.979	28.124	1163.487	934.288
308.993	28.184	1163.033	934.145
310.008	28.294	1161.738	933.584
311.022	28.203	1161.490	932.836
312.037	28.203	1160.447	931.920
313.052	28.217	1159.724	931.327
314.066	28.098	1159.078	930.120
315.081	28.281	1158.009	930.109
316.095	28.204	1157.840	929.501
317.110	28.212	1157.173	928.923
318.125	28.232	1156.418	928.335
319.139	28.185	1156.142	927.795
320.154	28.272	1155.149	927.356
321.168	28.345	1154.809	927.368
322.183	28.300	1153.948	926.371
323.197	28.255	1153.603	925.781
324.212	28.344	1153.150	925.788
325.227	28.402	1152.536	925.506
326.241	28.363	1151.567	924.448
327.256	28.431	1150.940	924.204
328.270	28.353	1150.205	923.141
329.285	28.416	1149.166	922.542
330.300	28.328	1148.661	921.612
331.314	28.444	1147.959	921.552
332.329	28.364	1147.319	920.552
333.343	28.403	1146.661	920.140
334.358	28.413	1145.684	919.324
335.373	28.557	1145.193	919.573
336.387	28.387	1144.986	918.470
337.402	28.473	1143.999	918.032
338.416	28.490	1143.025	917.253
339.431	28.635	1142.183	917.221
340.446	28.589	1141.790	916.594
341.460	28.612	1141.354	916.278
342.475	28.640	1140.490	915.640
343.489	28.571	1138.995	914.017
344.504	28.573	1138.571	913.608
345.519	28.473	1138.252	912.770
346.533	28.601	1136.960	912.293
347.548	28.601	1136.472	911.816
348.562	28.643	1135.977	911.551
349.577	28.727	1134.615	910.791
350.592	28.399	1134.552	909.034
351.606	28.511	1133.872	908.962
352.621	28.673	1133.017	908.999
353.635	28.573	1132.965	908.385
354.650	28.568	1131.979	907.488
355.665	28.776	1131.331	907.917
356.679	28.707	1130.798	907.067
357.694	28.761	1130.124	906.714
358.708	28.781	1129.228	906.013
359.723	28.665	1128.579	904.842
360.738	28.717	1127.967	904.523
361.752	28.695	1127.644	904.078
362.767	28.776	1127.127	903.982
363.781	28.738	1126.623	903.312
364.796	28.794	1126.146	903.122
365.810	28.776	1125.176	902.178
366.825	28.756	1124.655	901.579
367.840	28.835	1124.301	901.607
368.854	29.007	1123.383	901.631
369.869	28.802	1122.905	900.167
370.883	28.838	1122.161	899.665
371.898	28.952	1121.545	899.649
372.913	28.878	1120.812	898.619
373.927	29.014	1120.265	898.764
374.942	28.961	1120.100	898.297
375.956	28.850	1119.719	897.367
376.971	28.924	1119.071	897.130
377.986	28.978	1118.473	896.837
379.000	28.991	1117.990	896.431
380.015	29.202	1117.010	896.592
381.029	28.943	1116.318	894.700
382.044	29.023	1115.844	894.629
383.059	28.982	1115.390	893.984
384.073	29.034	1114.608	893.532
385.088	29.105	1113.560	892.956
386.102	29.135	1112.559	892.224
387.117	29.090	1111.879	891.379
388.132	28.935	1111.246	890.045
389.146	29.112	1110.487	890.214
390.161	29.138	1110.100	889.951
391.175	29.153	1109.402	889.386
392.190	29.100	1108.648	888.445
393.205	28.970	1108.284	887.448
394.219	29.006	1107.319	886.771
395.234	29.143	1106.444	886.648
396.248	29.183	1105.545	886.043
397.263	29.171	1105.075	885.531
398.278	29.178	1104.509	885.030
399.292	29.179	1103.605	884.237
400.307	29.214	1103.463	884.208
401.321	29.354	1102.513	884.040
402.336	29.356	1101.340	883.033
403.350	29.221	1101.229	882.219
404.365	29.333	1100.683	882.241
405.380	29.369	1099.557	881.431
406.394	29.389	1098.856	880.886
407.409	29.366	1098.162	880.143
408.423	29.366	1097.678	879.678
409.438	29.397	1097.184	879.350
410.453	29.428	1096.645	878.991
411.467	29.294	1095.861	877.647
412.482	29.416	1095.117	877.552
413.496	29.400	1094.312	876.754
414.511	29.430	1093.752	876.368
415.526	29.494	1093.371	876.292
416.540	29.461	1092.908	875.687
417.555	29.508	1092.776	875.725
418.569	29.413	1092.526	874.997
419.584	29.443	1092.178	874.783
420.599	29.527	1091.292	874.393
421.613	102.117	1321.250	1453.576
422.628	95.190	1354.739	1453.686
