DTS Sentinel unit serial number:	SN413079Multiplexer serial number:	ORYXHardware model number:	OX4-SRSoftware version number:	ORYX F/W v4.00 Oryx Data Collector v3.7.2.0data status	okinstallation	princeton_trtdifferential loss correction	single-endedforward channel	channel 2reverse channel	N/Adate	2019/09/15time	00:59:35forward acquisition time	60.00reverse acquisition time	0.00gamma	496.2192k internal	0.2324k external	0.2324temperature offset calibration	1.0040default loss term (dB/km)	0.3790temperature slope calibration	1.0000multiplexer offset coefficient	1.0000multiplexer slope coefficient	1.0000fibre end	0.00T internal ref (°C)	32.00T ext. ref 1 (°C)	4.54T ext. ref 2 (°C)	26.88length (m)	temperature (°C)	Stokes	anti-Stokes-747.200	-118.388	-0.355	0.064
-746.185	-200.000	-0.441	0.000
-745.171	49.445	0.176	0.167
-744.156	-200.000	-0.008	0.038
-743.142	614.100	-0.078	-0.198
-742.127	800.000	0.050	0.145
-741.112	-200.000	-0.070	-0.329
-740.098	51.767	0.200	0.192
-739.083	70.774	0.248	0.259
-738.069	54.123	-0.041	0.040
-737.054	-200.000	0.003	-0.068
-736.039	50.289	-0.289	0.276
-735.025	34.263	-0.155	0.137
-734.010	24.754	-0.174	0.146
-732.996	5.172	-0.083	0.062
-731.981	-200.000	0.025	-0.163
-730.966	-32.336	0.215	-0.121
-729.952	800.000	0.106	-0.356
-728.937	-132.916	0.261	-0.033
-727.923	800.000	-0.180	-0.636
-726.908	800.000	0.036	0.115
-725.894	78.359	-0.063	-0.068
-724.879	246.624	0.126	-0.214
-723.864	-200.000	0.031	-0.428
-722.850	-106.664	-0.261	-0.059
-721.835	204.698	-0.224	-0.350
-720.821	-41.870	-0.147	0.076
-719.806	29.693	0.275	0.236
-718.791	-102.308	-0.239	-0.058
-717.777	-6.022	0.260	-0.179
-716.762	-77.526	-0.273	-0.095
-715.748	63.193	0.160	-0.161
-714.733	-139.981	-0.125	0.013
-713.718	-134.894	-0.087	0.011
-712.704	-44.832	0.096	-0.048
-711.689	-200.000	0.005	-0.243
-710.675	569.159	0.081	-0.198
-709.660	60.348	0.101	0.101
-708.645	-101.537	0.093	-0.023
-707.631	-200.000	0.022	0.146
-706.616	800.000	-0.106	0.382
-705.602	-14.546	-0.184	-0.119
-704.587	-200.000	0.053	-0.247
-703.572	-68.577	-0.187	0.073
-702.558	-104.242	0.222	0.052
-701.543	-200.000	-0.019	0.174
-700.529	-105.810	0.219	0.050
-699.514	-53.450	0.080	-0.037
-698.499	-28.959	0.071	-0.041
-697.485	77.866	0.147	-0.158
-696.470	475.975	-0.215	-0.489
-695.456	-43.361	0.330	-0.168
-694.441	800.000	0.076	0.262
-693.426	-200.000	-0.002	-0.124
-692.412	-105.258	0.351	0.081
-691.397	-61.500	0.154	0.065
-690.383	470.629	0.227	-0.515
-689.368	-5.696	0.197	-0.136
-688.354	800.000	0.044	-0.167
-687.339	-63.751	0.026	0.011
-686.324	-137.410	-0.159	0.018
-685.310	800.000	-0.047	-0.204
-684.295	-160.467	0.072	0.004
-683.281	-200.000	-0.026	0.166
-682.266	43.437	0.192	-0.177
-681.251	100.315	0.261	0.305
-680.237	-41.934	0.248	0.128
-679.222	479.448	-0.187	0.426
-678.208	259.322	-0.074	-0.128
-677.193	479.637	-0.150	-0.341
-676.178	-142.781	-0.480	-0.047
-675.164	-58.376	0.199	-0.087
-674.149	800.000	0.068	0.239
-673.135	172.035	0.036	0.052
-672.120	-44.078	-0.069	-0.035
-671.105	134.306	0.112	0.146
-670.091	-24.206	0.060	-0.036
-669.076	-200.000	-0.013	-0.060
-668.062	800.000	0.109	-0.337
-667.047	-200.000	0.044	0.368
-666.032	107.136	0.153	-0.183
-665.018	-200.000	0.019	0.164
-664.003	115.423	-0.181	-0.222
-662.989	11.836	0.197	0.152
-661.974	800.000	0.043	-0.127
-660.959	161.391	-0.165	0.232
-659.945	-157.079	-0.159	-0.010
-658.930	-200.000	-0.027	-0.159
-657.916	-200.000	-0.064	0.405
-656.901	-65.887	-0.090	0.036
-655.886	800.000	-0.079	-0.259
-654.872	-200.000	-0.005	-0.132
-653.857	41.216	0.157	0.143
-652.843	183.589	0.135	0.200
-651.828	800.000	-0.062	-0.196
-650.814	92.991	0.012	-0.014
-649.799	-29.234	0.292	-0.168
-648.784	-116.901	-0.157	-0.029
-647.770	68.232	-0.181	-0.187
-646.755	8.166	-0.213	-0.161
-645.741	398.170	-0.017	0.036
-644.726	316.059	0.067	0.127
-643.711	-155.529	0.312	0.020
-642.697	-200.000	-0.008	-0.045
-641.682	-200.000	-0.037	-0.286
-640.668	-200.000	-0.018	-0.379
-639.653	-35.552	0.276	-0.150
-638.638	-36.257	-0.098	0.053
-637.624	-200.000	0.026	0.212
-636.609	-129.206	-0.139	0.020
-635.595	137.233	-0.170	0.223
-634.580	-1.232	0.082	0.058
-633.565	-138.368	-0.125	0.014
-632.551	384.455	-0.053	0.110
-631.536	800.000	-0.045	-0.174
-630.522	-39.199	0.076	-0.040
-629.507	-165.225	0.302	0.013
-628.492	-114.229	-0.413	-0.080
-627.478	-9.968	-0.202	0.135
-626.463	-200.000	0.004	-0.192
-625.449	233.066	-0.069	-0.114
-624.434	800.000	0.046	-0.170
-623.419	-62.427	0.450	0.188
-622.405	-41.095	-0.073	0.038
-621.390	235.551	-0.101	-0.168
-620.376	-200.000	0.025	-0.162
-619.361	-99.341	0.075	0.019
-618.346	34.158	-0.174	-0.153
-617.332	25.560	-0.196	-0.164
-616.317	440.990	-0.069	-0.151
-615.303	-29.166	-0.451	0.260
-614.288	67.069	-0.247	0.253
-613.273	241.202	-0.044	-0.074
-612.259	-200.000	0.003	0.176
-611.244	450.188	0.034	-0.076
-610.230	-11.325	-0.153	-0.101
-609.215	-95.847	-0.121	-0.032
-608.201	-200.000	-0.031	0.188
-607.186	-200.000	0.027	-0.136
-606.171	-136.672	-0.160	-0.019
-605.157	-99.204	0.145	-0.037
-604.142	13.940	0.111	-0.087
-603.128	-4.376	-0.312	-0.217
-602.113	-79.788	-0.039	-0.013
-601.098	677.073	0.119	-0.311
-600.084	2.127	-0.209	0.151
-599.069	-53.848	-0.067	0.031
-598.055	-200.000	0.006	0.412
-597.040	-54.768	-0.301	-0.137
-596.025	7.545	0.306	-0.229
-595.011	258.101	-0.091	0.157
-593.996	-135.895	0.471	-0.056
-592.982	232.358	-0.123	-0.202
-591.967	-66.424	-0.361	-0.144
-590.952	-200.000	0.012	-0.142
-589.938	485.392	0.113	-0.259
-588.923	157.784	0.251	0.349
-587.909	46.005	0.157	-0.146
-586.894	126.176	-0.215	0.273
-585.879	421.050	-0.011	-0.023
-584.865	177.387	0.105	-0.153
-583.850	119.644	-0.038	-0.047
-582.836	89.348	0.051	0.057
-581.821	124.325	-0.192	0.242
-580.806	45.840	-0.140	-0.130
-579.792	-96.185	-0.254	0.068
-578.777	173.606	0.178	-0.258
-577.763	157.309	0.081	0.112
-576.748	20.885	0.223	-0.181
-575.733	248.520	-0.173	0.294
-574.719	-40.812	0.079	-0.041
-573.704	779.155	0.118	0.323
-572.690	343.244	0.013	0.026
-571.675	89.142	0.191	-0.213
-570.661	4.470	-0.108	-0.080
-569.646	-100.562	-0.188	0.047
-568.631	19.663	-0.166	0.134
-567.617	74.145	0.083	0.087
-566.602	-62.227	-0.145	0.060
-565.588	-127.338	-0.165	-0.024
-564.573	-71.272	0.347	-0.130
-563.558	260.670	0.020	0.035
-562.544	800.000	-0.026	0.089
-561.529	-161.632	0.178	-0.009
-560.515	800.000	0.033	0.128
-559.500	-200.000	0.001	-0.229
-558.485	-64.507	-0.088	-0.036
-557.471	-200.000	-0.017	-0.203
-556.456	139.020	0.108	-0.142
-555.442	99.054	0.156	0.180
-554.427	490.366	0.152	-0.349
-553.412	39.108	0.246	-0.221
-552.398	516.939	-0.086	-0.202
-551.383	-200.000	-0.026	0.363
-550.369	-157.598	-0.044	-0.003
-549.354	4.257	-0.192	0.141
-548.339	229.802	-0.171	-0.279
-547.325	92.470	-0.244	-0.275
-546.310	230.353	0.055	0.090
-545.296	-92.696	0.324	-0.091
-544.281	-144.837	0.450	-0.041
-543.266	-200.000	-0.046	-0.408
-542.252	-200.000	-0.033	-0.326
-541.237	-44.969	0.347	-0.173
-540.223	-200.000	0.060	-0.331
-539.208	136.787	-0.233	-0.305
-538.193	166.162	-0.151	0.214
-537.179	800.000	-0.059	-0.225
-536.164	-186.837	-0.272	-0.004
-535.150	800.000	-0.031	-0.098
-534.135	108.628	0.102	-0.122
-533.121	99.015	0.037	0.043
-532.106	-160.093	0.587	-0.032
-531.091	554.626	-0.169	0.407
-530.077	-65.205	0.013	-0.005
-529.062	69.905	-0.228	-0.236
-528.048	-140.500	0.310	-0.032
-527.033	-172.338	-0.099	-0.003
-526.018	-20.919	-0.302	-0.185
-525.004	-0.377	-0.055	-0.039
-523.989	-118.798	0.181	-0.032
-522.975	-171.237	-0.113	0.004
-521.960	-138.439	0.451	0.050
-520.945	-128.270	-0.093	-0.013
-519.931	397.332	0.061	0.128
-518.916	368.575	0.096	0.194
-517.902	10.146	0.236	-0.180
-516.887	-57.672	-0.260	0.114
-515.872	163.565	0.077	-0.108
-514.858	79.106	0.038	0.041
-513.843	12.747	0.144	-0.111
-512.829	328.754	-0.136	0.261
-511.814	-48.618	0.220	0.106
-510.799	800.000	0.046	0.174
-509.785	-129.546	-0.173	-0.024
-508.770	390.824	0.084	-0.175
-507.756	345.792	-0.128	-0.251
-506.741	-171.211	0.302	0.010
-505.726	-144.245	0.121	0.011
-504.712	-38.822	-0.252	-0.133
-503.697	615.813	0.091	0.229
-502.683	-187.530	-0.530	0.007
-501.668	19.800	0.136	-0.109
-500.653	19.641	0.079	-0.063
-499.639	49.914	0.190	-0.179
-498.624	355.487	0.045	-0.089
-497.610	-12.636	0.402	0.262
-496.595	234.324	0.043	0.071
-495.581	76.152	-0.336	-0.356
-494.566	-6.954	-0.279	0.189
-493.551	-200.000	-0.039	-0.230
-492.537	-128.881	0.289	-0.041
-491.522	-80.612	-0.325	0.108
-490.508	-148.485	0.338	0.028
-489.493	-114.153	-0.334	-0.065
-488.478	-200.000	-0.009	0.098
-487.464	411.568	0.029	-0.062
-486.449	800.000	-0.009	-0.032
-485.435	-200.000	0.015	-0.194
-484.420	-143.681	-0.403	0.038
-483.405	-200.000	-0.010	0.136
-482.391	-21.753	-0.307	0.187
-481.376	-48.228	0.101	-0.049
-480.362	-3.856	-0.063	-0.044
-479.347	-200.000	-0.018	0.285
-478.332	209.151	-0.143	0.224
-477.318	-117.487	-0.017	-0.003
-476.303	78.544	0.266	-0.284
-475.289	800.000	0.025	0.089
-474.274	800.000	0.011	-0.042
-473.259	-170.071	-0.312	-0.011
-472.245	800.000	-0.119	0.416
-471.230	30.067	-0.413	-0.351
-470.216	-111.479	-0.167	0.034
-469.201	-72.993	-0.251	-0.092
-468.186	-43.875	0.213	0.107
-467.172	271.203	0.094	0.165
-466.157	-144.874	-0.076	0.007
-465.143	-190.482	0.118	-0.001
-464.128	-200.000	0.022	0.233
-463.113	8.011	0.129	0.097
-462.099	-160.206	0.158	-0.009
-461.084	-90.968	0.283	-0.081
-460.070	261.922	-0.261	-0.451
-459.055	-86.056	-0.293	-0.090
-458.040	326.463	-0.095	-0.182
-457.026	-200.000	0.064	0.337
-456.011	-114.567	-0.386	0.074
-454.997	367.623	0.045	0.090
-453.982	-20.451	0.276	-0.170
-452.968	-164.247	-0.260	0.012
-451.953	-104.062	0.224	-0.052
-450.938	127.949	0.095	-0.121
-449.924	210.840	-0.172	-0.269
-448.909	-200.000	-0.007	0.145
-447.895	28.108	0.106	-0.089
-446.880	-66.401	-0.283	-0.112
-445.865	-139.829	0.092	0.010
-444.851	800.000	0.075	-0.216
-443.836	-200.000	0.006	0.127
-442.822	-54.199	0.575	0.261
-441.807	-101.192	-0.228	0.056
-440.792	5.782	0.103	0.076
-439.778	-30.129	-0.267	-0.152
-438.763	111.797	-0.095	0.114
-437.749	18.287	-0.237	0.189
-436.734	187.105	0.185	-0.274
-435.719	-146.966	-0.451	-0.039
-434.705	-83.476	0.207	0.066
-433.690	7.131	0.159	-0.118
-432.676	800.000	0.041	-0.162
-431.661	26.732	0.184	-0.154
-430.646	-159.805	-0.261	-0.014
-429.632	224.225	0.122	0.196
-428.617	-83.541	-0.056	-0.018
-427.603	-63.096	0.127	0.052
-426.588	-200.000	-0.016	-0.107
-425.573	-112.765	0.033	-0.006
-424.559	-48.295	-0.212	0.102
-423.544	12.107	0.366	-0.280
-422.530	-200.000	-0.002	0.148
-421.515	242.268	0.126	0.211
-420.500	114.732	0.024	-0.029
-419.486	482.439	0.074	-0.169
-418.471	-200.000	0.069	0.312
-417.457	-71.280	-0.166	0.062
-416.442	-200.000	0.050	0.248
-415.428	-200.000	0.004	-0.245
-414.413	388.538	0.018	0.038
-413.398	529.907	0.106	-0.250
-412.384	-60.150	-0.213	-0.091
-411.369	147.689	0.067	0.090
-410.355	800.000	0.090	0.260
-409.340	32.737	-0.390	0.336
-408.325	353.346	-0.038	0.075
-407.311	-25.697	0.257	-0.151
-406.296	-74.820	0.496	-0.177
-405.282	800.000	0.060	0.195
-404.267	-200.000	-0.062	0.338
-403.252	800.000	-0.088	0.298
-402.238	31.793	-0.277	-0.238
-401.223	800.000	-0.100	-0.387
-400.209	-75.348	-0.379	-0.135
-399.194	105.826	0.105	-0.124
-398.179	560.278	-0.134	0.323
-397.165	29.013	-0.018	0.015
-396.150	-101.914	-0.411	0.099
-395.136	-153.724	0.311	0.021
-394.121	35.688	0.089	-0.078
-393.106	556.592	-0.024	0.058
-392.092	353.223	-0.096	0.189
-391.077	-100.020	0.269	-0.067
-390.063	800.000	0.060	-0.174
-389.048	395.005	-0.132	0.275
-388.033	800.000	-0.047	-0.195
-387.019	60.599	-0.024	-0.023
-386.004	108.279	-0.071	0.084
-384.990	-200.000	0.015	-0.383
-383.975	-93.842	-0.538	0.147
-382.960	800.000	-0.091	0.369
-381.946	-200.000	-0.031	-0.271
-380.931	-200.000	0.014	-0.138
-379.917	5.790	-0.072	-0.053
-378.902	-200.000	-0.021	-0.212
-377.888	-47.868	-0.274	0.132
-376.873	-59.553	0.309	-0.132
-375.858	800.000	-0.040	-0.175
-374.844	800.000	0.040	0.127
-373.829	-95.889	0.097	-0.026
-372.815	38.856	-0.238	0.212
-371.800	-147.021	-0.156	-0.013
-370.785	-23.664	0.115	0.069
-369.771	11.299	0.058	0.044
-368.756	-200.000	-0.002	-0.038
-367.742	64.984	-0.148	-0.149
-366.727	45.312	0.113	-0.104
-365.712	800.000	-0.076	-0.262
-364.698	-200.000	0.027	-0.186
-363.683	-143.749	-0.079	0.007
-362.669	696.066	-0.081	0.211
-361.654	-149.562	0.090	-0.007
-360.639	-67.664	-0.180	-0.070
-359.625	43.370	0.116	0.105
-358.610	-141.919	0.285	0.028
-357.596	29.884	0.034	0.029
-356.581	-94.816	0.188	-0.051
-355.566	136.555	-0.056	-0.073
-354.552	466.621	0.070	0.157
-353.537	-200.000	-0.035	0.232
-352.523	787.152	-0.047	-0.128
-351.508	-49.034	0.126	0.060
-350.493	-130.422	0.214	-0.029
-349.479	-200.000	-0.000	-0.036
-348.464	175.165	0.021	0.030
-347.450	141.250	-0.108	0.143
-346.435	12.906	-0.052	-0.040
-345.420	-200.000	-0.061	0.375
-344.406	800.000	-0.060	0.194
-343.391	800.000	-0.034	-0.141
-342.377	-138.750	-0.147	0.016
-341.362	-81.047	0.055	-0.018
-340.348	78.008	0.222	-0.235
-339.333	800.000	-0.056	0.179
-338.318	-200.000	-0.053	0.309
-337.304	-28.795	0.176	0.100
-336.289	-86.522	-0.260	0.079
-335.275	-127.658	0.269	0.039
-334.260	278.161	0.175	0.309
-333.245	-67.545	0.381	0.149
-332.231	-27.500	0.133	-0.077
-331.216	229.640	0.106	0.172
-330.202	-5.378	0.081	0.055
-329.187	225.361	-0.123	0.198
-328.172	-30.321	-0.168	0.095
-327.158	-148.288	0.177	0.014
-326.143	20.029	-0.097	-0.078
-325.129	204.446	0.179	-0.275
-324.114	468.017	-0.156	0.346
-323.099	-44.595	-0.257	0.128
-322.085	63.369	-0.104	0.104
-321.070	15.463	-0.212	0.165
-320.056	-75.519	-0.213	-0.075
-319.041	-53.890	-0.049	0.022
-318.026	-3.606	0.331	-0.228
-317.012	-65.553	0.124	0.049
-315.997	242.513	-0.262	-0.435
-314.983	56.876	-0.083	-0.080
-313.968	153.941	0.163	0.222
-312.953	350.461	-0.003	-0.006
-311.939	-20.314	0.079	-0.048
-310.924	800.000	-0.048	0.195
-309.910	-19.621	0.120	-0.074
-308.895	-24.184	-0.045	-0.027
-307.880	-200.000	-0.006	-0.069
-306.866	-200.000	0.006	0.452
-305.851	-200.000	-0.001	-0.124
-304.837	92.033	-0.208	-0.233
-303.822	240.779	0.036	-0.060
-302.807	369.505	-0.144	0.289
-301.793	-200.000	-0.005	0.399
-300.778	-89.937	-0.282	0.082
-299.764	494.625	0.054	-0.123
-298.749	-40.380	-0.218	0.112
-297.735	109.591	0.145	-0.172
-296.720	-178.294	-0.290	0.007
-295.705	77.241	0.117	-0.124
-294.691	677.247	0.094	0.242
-293.676	518.935	-0.090	0.209
-292.662	800.000	0.047	0.130
-291.647	673.407	-0.089	0.229
-290.632	800.000	0.043	-0.142
-289.618	-130.691	-0.051	0.007
-288.603	-58.841	-0.263	-0.113
-287.589	-81.390	-0.317	0.104
-286.574	-40.763	-0.168	0.086
-285.559	-26.002	0.162	0.094
-284.545	-13.781	-0.245	0.157
-283.530	53.146	-0.167	-0.159
-282.516	-200.000	-0.022	-0.104
-281.501	-181.193	-0.351	0.007
-280.486	-85.668	0.143	-0.044
-279.472	-24.554	0.226	0.134
-278.457	-67.909	-0.375	-0.145
-277.443	448.202	0.058	0.126
-276.428	-99.666	0.324	0.081
-275.413	-100.785	-0.237	0.058
-274.399	-74.161	0.102	-0.036
-273.384	-200.000	0.026	-0.445
-272.370	-110.774	0.075	0.015
-271.355	157.057	0.138	0.190
-270.340	183.352	-0.069	0.102
-269.326	-200.000	0.007	0.152
-268.311	-94.416	-0.170	-0.046
-267.297	-153.306	0.280	0.019
-266.282	-174.113	0.295	-0.009
-265.267	182.304	-0.091	-0.133
-264.253	-200.000	-0.008	0.150
-263.238	-200.000	0.034	-0.167
-262.224	-91.598	-0.235	0.066
-261.209	383.301	0.007	-0.014
-260.195	-4.459	0.223	0.153
-259.180	300.520	0.028	0.052
-258.165	40.697	-0.204	-0.182
-257.151	-36.859	0.068	0.036
-256.136	-138.780	0.328	-0.035
-255.122	128.584	0.138	-0.174
-254.107	440.227	0.157	0.340
-253.092	373.857	0.059	0.119
-252.078	-200.000	-0.014	0.192
-251.063	-128.037	-0.089	-0.013
-250.049	800.000	-0.010	0.035
-249.034	-200.000	0.001	0.341
-248.019	292.682	0.135	-0.244
-247.005	-188.497	0.379	0.005
-245.990	-84.500	0.249	-0.078
-244.976	-200.000	-0.045	-0.312
-243.961	-80.157	-0.200	-0.066
-242.946	800.000	-0.049	0.147
-241.932	311.821	-0.062	0.115
-240.917	136.388	-0.086	-0.110
-239.903	200.509	-0.127	-0.192
-238.888	49.913	0.055	-0.052
-237.873	455.238	0.171	-0.376
-236.859	-186.926	0.080	-0.001
-235.844	99.163	-0.092	0.105
-234.830	-94.776	0.419	-0.112
-233.815	-38.841	0.019	-0.010
-232.800	347.059	0.162	-0.315
-231.786	-200.000	0.056	-0.263
-230.771	241.939	-0.087	-0.143
-229.757	-200.000	-0.041	-0.269
-228.742	54.010	-0.212	0.202
-227.727	-137.524	0.078	0.009
-226.713	800.000	0.092	0.306
-225.698	178.779	-0.004	0.005
-224.684	227.859	0.067	-0.108
-223.669	73.894	-0.077	0.080
-222.655	42.684	0.256	0.230
-221.640	37.755	0.132	0.116
-220.625	-200.000	-0.124	0.000
-219.611	-161.972	0.233	0.012
-218.596	-105.610	0.418	0.094
-217.582	20.502	0.138	-0.111
-216.567	230.902	-0.076	0.123
-215.552	59.741	0.161	0.157
-214.538	-200.000	-0.143	-0.001
-213.523	737.630	-0.017	0.044
-212.509	347.066	0.121	0.236
-211.494	-57.057	-0.207	0.090
-210.479	-200.000	0.007	0.169
-209.465	800.000	0.056	-0.238
-208.450	-62.273	0.047	-0.019
-207.436	-43.507	0.153	0.076
-206.421	-26.616	0.105	0.061
-205.406	79.407	0.056	-0.060
-204.392	-43.325	-0.302	-0.151
-203.377	50.303	0.113	0.105
-202.363	87.683	-0.141	0.154
-201.348	-119.857	0.135	0.023
-200.333	-4.476	0.165	0.113
-199.319	-200.000	-0.035	0.153
-198.304	19.775	0.216	-0.172
-197.290	-200.000	0.033	-0.233
-196.275	110.437	-0.167	-0.198
-195.260	-111.958	-0.160	-0.032
-194.246	492.432	0.066	0.149
-193.231	-200.000	0.003	0.048
-192.217	-173.170	-0.174	-0.005
-191.202	436.199	-0.090	-0.194
-190.187	71.278	0.152	0.156
-189.173	-200.000	0.056	0.345
-188.158	261.993	-0.186	-0.319
-187.144	-119.742	0.103	0.018
-186.129	15.846	-0.035	0.027
-185.114	-200.000	0.024	0.127
-184.100	-23.626	-0.034	-0.020
-183.085	506.407	0.113	0.258
-182.071	-129.454	0.207	-0.028
-181.056	800.000	-0.040	0.148
-180.042	-24.679	0.180	0.106
-179.027	-60.865	-0.241	-0.100
-178.012	-36.964	0.105	-0.056
-176.998	-105.927	-0.268	-0.060
-175.983	-74.424	0.096	0.034
-174.969	47.471	0.084	0.078
-173.954	800.000	-0.095	-0.385
-172.939	54.327	-0.070	-0.067
-171.925	-200.000	-0.022	0.377
-170.910	-44.514	0.180	-0.089
-169.896	372.574	0.112	0.224
-168.881	-200.000	-0.016	0.156
-167.866	115.045	0.187	0.226
-166.852	112.676	-0.240	0.287
-165.837	15.743	0.209	-0.162
-164.823	-94.503	0.056	0.015
-163.808	428.120	0.064	0.135
-162.793	-54.324	0.123	0.055
-161.779	-1.936	-0.218	0.151
-160.764	60.075	0.110	0.107
-159.750	9.296	-0.160	-0.119
-158.735	-200.000	0.004	0.150
-157.720	290.878	0.121	0.217
-156.706	-39.809	0.159	0.082
-155.691	-130.244	0.488	0.065
-154.677	46.254	0.121	0.111
-153.662	-200.000	-0.038	-0.454
-152.647	81.371	0.202	-0.215
-151.633	-98.117	-0.080	-0.020
-150.618	-108.914	0.314	0.066
-149.604	94.044	-0.079	0.088
-148.589	-64.925	-0.096	0.038
-147.574	-200.000	-0.007	0.257
-146.560	-106.886	-0.196	0.043
-145.545	-1.215	0.446	0.310
-144.531	143.453	-0.138	0.181
-143.516	800.000	0.079	-0.293
-142.502	-200.000	0.032	-0.224
-141.487	167.572	0.137	0.192
-140.472	-116.897	-0.339	0.061
-139.458	111.561	-0.269	0.320
-138.443	-112.367	0.236	0.047
-137.429	-200.000	0.051	-0.277
-136.414	29.328	0.208	0.174
-135.399	293.100	-0.054	0.097
-134.385	184.571	-0.133	-0.195
-133.370	800.000	0.014	0.048
-132.356	-38.626	0.359	0.187
-131.341	-13.781	-0.164	0.105
-130.326	154.453	-0.112	-0.152
-129.312	-162.537	0.389	0.019
-128.297	-138.679	0.116	0.013
-127.283	-8.526	0.041	0.027
-126.268	-139.369	0.450	-0.048
-125.253	32.628	0.164	0.140
-124.239	-1.747	0.133	-0.092
-123.224	-39.103	-0.208	0.108
-122.210	110.592	-0.135	0.160
-121.195	10.860	-0.065	-0.049
-120.180	408.870	0.138	0.287
-119.166	87.507	0.217	0.237
-118.151	48.476	-0.302	-0.278
-117.137	326.241	0.255	-0.480
-116.122	-200.000	0.040	-0.261
-115.107	-53.884	0.108	0.048
-114.093	354.883	-0.155	0.304
-113.078	-82.441	0.039	0.012
-112.064	-110.337	0.460	0.094
-111.049	224.967	-0.193	0.307
-110.034	223.620	-0.075	0.120
-109.020	-60.947	0.072	0.030
-108.005	-122.946	0.164	-0.026
-106.991	-200.000	-0.004	0.044
-105.976	-125.476	-0.147	-0.022
-104.962	-70.403	-0.133	0.050
-103.947	61.688	0.223	-0.218
-102.932	25.404	-0.138	-0.113
-101.918	-123.859	0.313	0.049
-100.903	263.127	0.226	0.387
-99.889	-149.534	0.412	0.032
-98.874	-72.383	-0.259	-0.094
-97.859	-52.043	-0.010	-0.005
-96.845	800.000	0.052	-0.141
-95.830	147.827	0.207	-0.275
-94.816	800.000	0.118	0.325
-93.801	562.780	0.111	0.264
-92.786	-75.374	-0.356	0.125
-91.772	679.061	0.129	0.331
-90.757	-49.634	0.254	0.119
-89.743	388.289	-0.080	-0.163
-88.728	165.275	0.209	0.291
-87.713	27.406	-0.074	-0.061
-86.699	114.241	0.096	-0.115
-85.684	-70.579	-0.034	0.013
-84.670	97.550	0.182	0.205
-83.655	-50.512	0.175	0.081
-82.640	104.481	-0.012	-0.014
-81.626	-37.492	0.298	-0.157
-80.611	-132.797	0.064	-0.008
-79.597	-73.675	-0.219	-0.078
-78.582	-122.954	0.112	0.018
-77.567	-200.000	0.006	-0.223
-76.553	800.000	-0.039	-0.160
-75.538	-31.665	0.098	0.054
-74.524	-182.045	-0.252	0.005
-73.509	-13.539	0.049	0.031
-72.494	-49.116	0.240	0.113
-71.480	-87.457	-0.205	0.061
-70.465	-54.320	-0.208	0.093
-69.451	-163.825	-0.336	0.015
-68.436	-144.082	0.492	0.045
-67.422	-60.969	-0.094	-0.039
-66.407	800.000	0.166	-0.473
-65.392	58.600	0.205	0.198
-64.378	-200.000	-0.023	-0.252
-63.363	800.000	0.066	0.190
-62.349	14.719	0.125	0.096
-61.334	25.158	-1.026	-0.837
-60.319	20.947	0.216	0.172
-59.305	299.755	-0.493	-0.892
-58.290	406.024	0.547	1.134
-57.276	432.625	0.773	1.649
-56.261	-200.000	95.488	593.066
-55.246	660.451	1366.913	3458.279
-54.232	199.509	2550.708	3842.838
-53.217	113.817	2267.678	2707.634
-52.203	41.538	1896.653	1686.804
-51.188	35.308	1686.807	1453.097
-50.173	32.642	1642.624	1395.269
-49.159	50.478	1688.664	1568.508
-48.144	52.059	1705.478	1595.915
-47.130	34.962	1666.421	1432.714
-46.115	32.234	1652.122	1400.080
-45.100	32.000	1647.140	1394.061
-44.086	31.982	1644.841	1391.924
-43.071	31.944	1641.947	1389.141
-42.057	31.838	1640.029	1386.679
-41.042	31.910	1638.193	1385.604
-40.027	31.948	1636.237	1384.177
-39.013	31.874	1634.432	1382.049
-37.998	31.807	1632.413	1379.793
-36.984	31.867	1631.004	1378.986
-35.969	31.997	1629.256	1378.413
-34.954	32.002	1627.689	1377.067
-33.940	31.888	1626.336	1375.033
-32.925	31.961	1624.893	1374.292
-31.911	31.929	1622.815	1372.249
-30.896	31.948	1621.310	1371.056
-29.881	31.952	1619.372	1369.394
-28.867	32.042	1617.286	1368.229
-27.852	32.035	1616.166	1367.178
-26.838	32.016	1614.424	1365.510
-25.823	32.055	1613.030	1364.563
-24.809	32.075	1611.547	1363.397
-23.794	31.958	1610.538	1361.645
-22.779	31.968	1609.238	1360.559
-21.765	31.990	1607.176	1358.922
-20.750	32.046	1605.838	1358.145
-19.736	32.041	1604.456	1356.885
-18.721	32.116	1603.130	1356.252
-17.706	32.088	1601.517	1354.630
-16.692	31.968	1600.115	1352.525
-15.677	32.008	1598.552	1351.443
-14.663	32.079	1597.151	1350.711
-13.648	32.027	1595.648	1349.014
-12.633	32.127	1594.128	1348.396
-11.619	32.087	1592.574	1346.737
-10.604	32.064	1591.289	1345.431
-9.590	32.112	1590.219	1344.819
-8.575	32.028	1588.964	1343.102
-7.560	32.057	1587.743	1342.224
-6.546	32.061	1586.629	1341.257
-5.531	31.987	1585.445	1339.677
-4.517	32.103	1583.887	1339.132
-3.502	31.988	1583.054	1337.554
-2.487	32.099	1581.185	1336.717
-1.473	31.811	1569.234	1324.526
-0.458	29.058	1550.265	1289.212
0.556	24.983	1550.520	1257.662
1.571	22.633	1573.865	1259.718
2.586	22.134	1586.692	1266.280
3.600	19.533	1533.290	1205.415
4.615	11.850	1425.756	1070.701
5.629	5.477	1364.229	984.415
6.644	4.656	1356.556	973.649
7.659	4.509	1354.978	971.517
8.673	4.534	1353.816	970.748
9.688	4.472	1352.392	969.254
10.702	4.391	1349.615	966.676
11.717	7.331	1355.014	988.816
12.731	14.687	1367.899	1044.294
13.746	19.167	1375.093	1077.801
14.761	18.823	1373.625	1074.403
15.775	17.988	1370.430	1066.597
16.790	17.020	1367.388	1058.101
17.804	16.011	1365.654	1050.381
18.819	15.560	1364.934	1046.923
19.834	15.385	1363.250	1044.447
20.848	15.084	1362.325	1041.775
21.863	14.966	1360.813	1039.789
22.877	14.912	1359.474	1038.344
23.892	14.852	1358.833	1037.389
24.907	14.701	1357.959	1035.692
25.921	14.834	1356.790	1035.531
26.936	14.817	1356.190	1034.882
27.950	14.925	1354.966	1034.524
28.965	14.875	1354.575	1033.824
29.980	15.081	1352.539	1033.448
30.994	15.012	1352.275	1032.727
32.009	15.177	1350.764	1032.500
33.023	15.189	1349.255	1031.327
34.038	15.039	1348.731	1029.914
35.053	14.984	1347.277	1028.375
36.067	15.018	1345.902	1027.446
37.082	14.971	1345.185	1026.515
38.096	15.091	1343.820	1026.123
39.111	15.062	1343.498	1025.608
40.126	14.992	1342.491	1024.316
41.140	14.737	1341.615	1022.000
42.155	14.735	1340.822	1021.291
43.169	14.767	1340.870	1021.437
44.184	14.776	1340.397	1021.038
45.199	14.771	1340.045	1020.647
46.213	14.860	1339.696	1020.837
47.228	14.849	1338.896	1020.067
48.242	14.954	1337.552	1019.597
49.257	14.981	1336.132	1018.589
50.271	14.877	1335.014	1017.014
51.286	15.049	1333.469	1016.792
52.301	15.039	1331.534	1015.162
53.315	14.825	1331.254	1013.564
54.330	14.899	1329.373	1012.491
55.344	14.730	1328.783	1010.930
56.359	14.830	1327.509	1010.471
57.374	14.736	1326.731	1009.226
58.388	14.661	1326.221	1008.293
59.403	14.684	1325.486	1007.782
60.417	14.697	1324.895	1007.327
61.432	14.636	1323.926	1006.131
62.447	14.578	1323.138	1005.095
63.461	14.533	1322.032	1003.893
64.476	14.521	1321.136	1003.055
65.490	14.568	1319.285	1001.841
66.505	14.555	1317.703	1000.474
67.520	14.624	1316.729	1000.057
68.534	14.640	1315.855	999.400
69.549	14.690	1314.855	998.855
70.563	14.519	1313.793	996.938
71.578	14.567	1312.360	996.049
72.593	14.477	1312.131	995.244
73.607	14.480	1311.282	994.533
74.622	14.507	1310.187	993.775
75.636	14.591	1308.924	993.228
76.651	14.540	1308.508	992.520
77.666	14.534	1308.184	992.151
78.680	14.655	1307.647	992.377
79.695	14.637	1307.196	991.841
80.709	14.730	1306.243	991.585
81.724	14.707	1305.238	990.593
82.739	14.756	1304.776	990.449
83.753	14.817	1303.842	990.012
84.768	15.019	1302.493	990.097
85.782	15.020	1301.634	989.359
86.797	14.973	1300.293	987.974
87.812	14.844	1299.320	986.387
88.826	14.900	1298.125	985.722
89.841	15.036	1296.615	985.293
90.855	14.946	1295.891	984.128
91.870	15.012	1295.011	983.759
92.884	15.089	1294.248	983.540
93.899	15.031	1293.792	982.768
94.914	15.127	1293.092	982.714
95.928	15.104	1291.947	981.624
96.943	14.963	1291.109	980.074
97.957	15.063	1290.126	979.826
98.972	14.975	1289.250	978.554
99.987	14.981	1288.240	977.742
101.001	14.910	1287.306	976.532
102.016	15.029	1286.254	976.339
103.030	15.006	1285.395	975.468
104.045	14.960	1284.196	974.201
105.060	14.835	1283.294	972.705
106.074	14.794	1281.358	970.914
107.089	14.669	1280.301	969.302
108.103	14.664	1279.158	968.321
109.118	14.664	1277.851	967.248
110.133	14.669	1276.537	966.192
111.147	14.707	1274.982	965.148
112.162	14.666	1274.392	964.384
113.176	14.801	1272.763	963.842
114.191	14.858	1271.957	963.477
115.206	14.761	1270.834	961.979
116.220	14.868	1269.097	961.195
117.235	14.680	1268.596	959.651
118.249	14.820	1267.270	959.370
119.264	14.803	1265.854	958.114
120.279	14.744	1264.717	956.832
121.293	14.541	1264.307	955.275
122.308	14.684	1263.320	955.261
123.322	14.598	1262.328	953.933
124.337	14.536	1261.053	952.532
125.352	14.669	1259.632	952.132
126.366	14.681	1258.769	951.466
127.381	14.588	1258.173	950.398
128.395	14.648	1256.727	949.564
129.410	14.663	1256.029	949.041
130.424	14.722	1255.261	948.710
131.439	14.718	1253.988	947.643
132.454	14.805	1253.202	947.459
133.468	14.827	1252.636	947.073
134.483	14.827	1251.571	946.184
135.497	14.839	1250.782	945.572
136.512	14.718	1249.922	944.150
137.527	14.840	1247.882	943.217
138.541	14.747	1246.718	941.729
139.556	14.863	1245.470	941.354
140.570	14.921	1244.658	940.982
141.585	15.111	1243.126	940.808
142.600	15.198	1242.092	940.435
143.614	15.098	1240.886	938.875
144.629	15.101	1240.356	938.406
145.643	15.090	1238.813	937.098
146.658	14.986	1237.450	935.400
147.673	14.985	1236.056	934.262
148.687	14.885	1235.141	932.925
149.702	14.889	1233.659	931.747
150.716	14.864	1232.438	930.602
151.731	14.947	1231.076	929.955
152.746	14.775	1230.289	928.324
153.760	14.873	1229.156	927.930
154.775	14.942	1228.656	927.852
155.789	14.931	1227.725	927.006
156.804	15.031	1226.228	926.345
157.819	15.103	1225.384	926.027
158.833	15.198	1224.304	925.650
159.848	15.195	1223.484	924.937
160.862	15.143	1222.644	923.933
161.877	15.047	1221.671	922.586
162.892	15.032	1219.941	921.112
163.906	14.828	1219.636	919.678
164.921	14.941	1218.729	919.533
165.935	15.021	1217.883	919.258
166.950	15.007	1217.193	918.578
167.964	15.018	1216.198	917.807
168.979	14.964	1215.767	917.102
169.994	15.146	1214.651	917.178
171.008	15.103	1214.103	916.448
172.023	15.182	1213.408	916.270
173.037	15.166	1212.891	915.711
174.052	15.190	1211.876	914.996
175.067	15.071	1210.827	913.472
176.081	15.052	1209.736	912.468
177.096	15.136	1208.290	911.755
178.110	15.032	1207.364	910.407
179.125	15.090	1206.124	909.709
180.140	15.153	1204.680	908.879
181.154	15.075	1204.359	908.135
182.169	15.180	1202.848	907.482
183.183	15.163	1201.826	906.542
184.198	15.388	1200.115	906.387
185.213	15.291	1199.418	905.254
186.227	15.280	1198.304	904.274
187.242	15.358	1197.021	903.643
188.256	15.387	1196.695	903.475
189.271	15.433	1195.279	902.572
190.286	15.275	1194.141	900.785
191.300	15.198	1193.290	899.651
192.315	15.083	1192.289	898.202
193.329	15.093	1191.881	897.866
194.344	14.966	1191.791	897.040
195.359	15.181	1191.084	897.578
196.373	15.324	1190.394	897.745
197.388	15.323	1190.296	897.589
198.402	15.470	1189.482	897.677
199.417	15.555	1189.028	897.710
200.432	15.672	1188.005	897.487
201.446	15.624	1187.638	896.870
202.461	15.681	1186.071	895.912
203.475	15.634	1185.364	895.049
204.490	15.669	1183.625	893.842
205.504	15.442	1182.873	891.991
206.519	15.483	1181.565	891.145
207.534	15.458	1180.553	890.171
208.548	15.417	1179.947	889.413
209.563	15.526	1178.950	889.163
210.577	15.589	1177.931	888.650
211.592	15.590	1177.026	887.890
212.607	15.646	1176.765	887.910
213.621	15.755	1175.394	887.376
214.636	15.698	1174.461	886.290
215.650	15.700	1173.541	885.529
216.665	15.677	1172.475	884.526
217.680	15.816	1171.831	884.691
218.694	15.821	1171.206	884.167
219.709	15.691	1170.576	882.934
220.723	15.748	1169.746	882.528
221.738	15.745	1168.849	881.754
222.753	15.875	1167.740	881.523
223.767	15.795	1167.431	880.793
224.782	15.815	1167.212	880.655
225.796	15.961	1166.124	880.516
226.811	15.974	1165.681	880.171
227.826	15.864	1164.859	878.899
228.840	15.884	1164.296	878.502
229.855	15.851	1163.192	877.420
230.869	15.968	1162.078	877.112
231.884	15.852	1161.557	876.037
232.899	15.877	1160.630	875.392
233.913	15.746	1160.211	874.317
234.928	15.701	1159.423	873.410
235.942	15.722	1158.632	872.845
236.957	15.644	1158.050	871.924
237.972	15.803	1156.892	871.800
238.986	15.801	1156.861	871.692
240.001	15.756	1155.503	870.356
241.015	15.889	1155.211	870.750
242.030	15.865	1154.024	869.651
243.045	16.033	1153.368	869.947
244.059	15.980	1152.614	869.031
245.074	16.069	1151.495	868.568
246.088	16.004	1151.096	867.852
247.103	16.104	1149.970	867.445
248.117	16.145	1149.675	867.355
249.132	16.257	1148.866	867.243
250.147	16.401	1148.195	867.401
251.161	16.461	1147.208	866.887
252.176	16.617	1146.559	867.116
253.190	16.459	1146.340	866.064
254.205	16.459	1145.824	865.597
255.220	16.480	1145.070	865.059
256.234	16.458	1144.627	864.536
257.249	16.480	1143.855	863.989
258.263	16.475	1143.141	863.346
259.278	16.461	1142.643	862.822
260.293	16.573	1142.195	862.978
261.307	16.492	1141.441	861.920
262.322	16.620	1140.754	861.977
263.336	16.698	1139.765	861.552
264.351	16.787	1139.512	861.739
265.366	16.726	1138.895	860.885
266.380	16.700	1138.198	860.149
267.395	16.580	1137.433	858.884
268.409	16.538	1136.508	857.898
269.424	16.738	1135.549	858.109
270.439	16.660	1135.244	857.412
271.453	16.595	1134.367	856.340
272.468	16.532	1133.822	855.537
273.482	16.450	1133.070	854.480
274.497	16.580	1132.618	854.719
275.512	16.598	1131.920	854.206
276.526	16.468	1131.244	852.964
277.541	16.558	1130.077	852.464
278.555	16.728	1129.356	852.703
279.570	16.808	1128.714	852.544
280.585	16.805	1128.240	852.098
281.599	16.837	1127.191	851.388
282.614	16.713	1126.253	849.982
283.628	16.816	1124.565	849.150
284.643	16.705	1123.978	848.073
285.657	16.765	1122.935	847.512
286.672	16.743	1122.535	847.026
287.687	16.750	1121.750	846.396
288.701	16.738	1121.077	845.753
289.716	16.805	1120.106	845.277
290.730	16.714	1120.150	844.780
291.745	16.908	1118.785	844.646
292.760	16.800	1117.913	843.373
293.774	16.967	1117.266	843.643
294.789	16.932	1117.100	843.267
295.803	16.928	1116.381	842.630
296.818	16.926	1115.366	841.778
297.833	17.035	1114.261	841.414
298.847	16.906	1113.762	840.323
299.862	16.932	1113.616	840.264
300.876	16.970	1112.843	839.796
301.891	17.090	1111.955	839.647
302.906	17.121	1111.320	839.244
303.920	17.197	1110.602	839.005
304.935	17.245	1110.140	838.818
305.949	17.188	1109.534	838.005
306.964	17.226	1108.958	837.683
307.979	17.198	1108.109	836.830
308.993	17.165	1107.026	835.773
310.008	17.199	1106.480	835.458
311.022	17.325	1105.737	835.439
312.037	17.235	1104.954	834.332
313.052	17.196	1104.395	833.646
314.066	17.135	1103.132	832.320
315.081	17.117	1102.159	831.423
316.095	17.108	1101.619	830.901
317.110	16.997	1101.282	830.028
318.125	17.155	1099.916	829.695
319.139	17.108	1099.414	829.016
320.154	17.047	1098.933	828.281
321.168	17.131	1098.186	828.053
322.183	17.191	1097.436	827.710
323.197	17.029	1097.302	826.744
324.212	17.093	1096.471	826.356
325.227	17.274	1095.675	826.563
326.241	17.203	1095.216	825.798
327.256	17.176	1094.303	824.909
328.270	17.232	1093.372	824.403
329.285	17.163	1092.635	823.443
330.300	17.268	1091.739	823.199
331.314	17.066	1090.977	821.576
332.329	17.207	1089.777	821.282
333.343	17.232	1089.188	820.884
334.358	17.349	1088.509	820.864
335.373	17.474	1087.651	820.750
336.387	17.402	1086.715	819.622
337.402	17.379	1086.198	819.051
338.416	17.388	1085.731	818.669
339.431	17.526	1084.676	818.464
340.446	17.758	1083.852	818.885
341.460	17.562	1083.738	817.785
342.475	17.751	1082.300	817.535
343.489	17.695	1081.710	816.746
344.504	17.738	1080.755	816.162
345.519	17.793	1080.175	815.915
346.533	17.806	1079.164	815.138
347.548	17.711	1078.920	814.428
348.562	17.818	1077.773	814.003
349.577	17.701	1076.963	812.762
350.592	17.663	1076.137	811.883
351.606	17.688	1075.450	811.414
352.621	17.724	1074.852	811.063
353.635	17.543	1074.046	809.519
354.650	17.617	1073.421	809.330
355.665	17.636	1072.907	808.962
356.679	17.605	1072.516	808.449
357.694	17.729	1071.568	808.249
358.708	17.816	1070.821	808.028
359.723	17.783	1070.329	807.426
360.738	17.807	1069.891	807.137
361.752	17.728	1069.627	806.492
362.767	17.700	1068.679	805.578
363.781	17.828	1067.912	805.532
364.796	17.916	1067.311	805.419
365.810	18.017	1066.548	805.249
366.825	17.996	1066.168	804.792
367.840	18.062	1065.640	804.631
368.854	18.102	1065.117	804.357
369.869	18.184	1064.135	803.930
370.883	18.077	1063.727	803.044
371.898	18.226	1063.316	803.364
372.913	18.061	1062.467	801.877
373.927	18.017	1061.976	801.229
374.942	18.167	1061.559	801.547
375.956	18.137	1060.720	800.702
376.971	18.099	1060.139	800.015
377.986	18.219	1059.588	800.091
379.000	18.220	1059.724	800.125
380.015	18.329	1058.236	799.441
381.029	18.315	1057.964	799.101
382.044	18.379	1057.166	798.726
383.059	18.321	1056.380	797.789
384.073	18.403	1055.894	797.735
385.088	18.319	1054.754	796.413
386.102	18.476	1053.926	796.445
387.117	18.318	1052.853	794.830
388.132	18.111	1052.141	793.265
389.146	18.150	1051.440	792.845
390.161	18.144	1050.872	792.317
391.175	18.332	1050.025	792.482
392.190	18.324	1049.287	791.815
393.205	18.320	1048.721	791.299
394.219	18.439	1047.871	791.138
395.234	18.265	1046.738	789.409
396.248	18.363	1045.575	788.913
397.263	18.372	1044.677	788.212
398.278	18.199	1044.553	787.251
399.292	18.215	1043.558	786.503
400.307	18.119	1043.003	785.573
401.321	18.173	1042.341	785.254
402.336	18.232	1041.583	784.883
403.350	18.192	1040.490	783.807
404.365	18.261	1040.155	783.804
405.380	18.352	1039.836	783.909
406.394	18.372	1038.756	783.119
407.409	18.490	1037.939	782.973
408.423	18.625	1037.290	783.030
409.438	18.516	1036.849	782.130
410.453	18.656	1036.182	782.195
411.467	18.557	1035.534	781.188
412.482	18.795	1034.660	781.543
413.496	18.781	1033.559	780.574
414.511	18.753	1033.625	780.429
415.526	18.775	1033.054	780.030
416.540	18.749	1032.878	779.710
417.555	18.907	1031.911	779.627
418.569	18.905	1031.682	779.375
419.584	18.863	1031.258	778.799
420.599	18.860	1030.720	778.310
421.613	151.009	1400.465	1795.456
422.628	137.805	1454.331	1795.571
