DTS Sentinel unit serial number:	SN413079Multiplexer serial number:	ORYXHardware model number:	OX4-SRSoftware version number:	ORYX F/W v4.00 Oryx Data Collector v3.7.2.0data status	okinstallation	princeton_trtdifferential loss correction	single-endedforward channel	channel 2reverse channel	N/Adate	2019/09/11time	13:13:10forward acquisition time	60.00reverse acquisition time	0.00gamma	496.2192k internal	0.2292k external	0.2292temperature offset calibration	1.0004default loss term (dB/km)	0.3790temperature slope calibration	1.0000multiplexer offset coefficient	1.0000multiplexer slope coefficient	1.0000fibre end	0.00T internal ref (°C)	41.94T ext. ref 1 (°C)	0.78T ext. ref 2 (°C)	36.44length (m)	temperature (°C)	Stokes	anti-Stokes-747.200	-139.921	0.042	-0.005
-746.185	205.605	-0.095	-0.152
-745.171	144.440	-0.088	0.120
-744.156	-200.000	-0.013	0.090
-743.142	360.907	0.145	-0.298
-742.127	-200.000	0.015	0.284
-741.112	-200.000	0.018	-0.439
-740.098	-200.000	-0.001	0.212
-739.083	16.446	0.098	0.079
-738.069	-17.500	-0.296	0.190
-737.054	-200.000	-0.015	0.071
-736.039	167.058	0.037	-0.054
-735.025	58.783	0.156	0.157
-734.010	-76.243	-0.320	0.115
-732.996	-173.453	-0.385	0.012
-731.981	-200.000	0.005	0.269
-730.966	-32.776	0.244	-0.139
-729.952	-200.000	0.008	-0.071
-728.937	1.834	0.116	-0.086
-727.923	294.316	-0.260	-0.486
-726.908	-200.000	0.003	0.040
-725.894	372.937	-0.164	-0.342
-724.879	22.488	-0.090	-0.075
-723.864	-115.253	-0.342	0.066
-722.850	74.008	-0.308	-0.331
-721.835	-200.000	0.012	-0.278
-720.821	-166.384	-0.346	0.015
-719.806	174.624	-0.181	-0.268
-718.791	-200.000	0.023	-0.245
-717.777	-146.338	-0.120	0.011
-716.762	71.802	-0.109	0.115
-715.748	-200.000	0.049	0.316
-714.733	-47.751	0.052	0.026
-713.718	91.156	-0.078	-0.089
-712.704	-200.000	-0.007	-0.158
-711.689	37.573	0.112	0.102
-710.675	94.207	0.071	-0.083
-709.660	109.561	-0.263	-0.322
-708.645	276.260	-0.111	0.202
-707.631	-12.013	0.202	0.135
-706.616	-61.345	-0.034	0.014
-705.602	81.936	0.175	-0.194
-704.587	80.741	-0.013	0.015
-703.572	120.669	-0.103	-0.131
-702.558	800.000	0.073	-0.259
-701.543	-147.815	0.131	-0.011
-700.529	-200.000	0.047	-0.263
-699.514	303.023	0.139	0.263
-698.499	237.223	0.107	0.182
-697.485	-10.195	0.135	-0.091
-696.470	238.003	0.156	-0.264
-695.456	-1.026	0.212	0.153
-694.441	800.000	-0.078	-0.259
-693.426	-29.111	0.183	-0.107
-692.412	-131.096	-0.337	-0.046
-691.397	-29.419	-0.177	-0.103
-690.383	-178.925	0.284	0.007
-689.368	-187.551	0.475	0.006
-688.354	684.901	0.096	0.255
-687.339	800.000	0.047	-0.167
-686.324	132.271	0.084	-0.110
-685.310	-135.937	-0.181	0.022
-684.295	22.611	0.476	0.398
-683.281	88.070	-0.090	0.102
-682.266	-120.644	-0.258	-0.045
-681.251	215.300	-0.084	0.137
-680.237	-42.198	-0.413	0.216
-679.222	59.924	-0.133	-0.134
-678.208	-7.456	-0.243	-0.168
-677.193	194.915	-0.179	-0.277
-676.178	-200.000	0.024	-0.184
-675.164	-175.642	-0.099	-0.003
-674.149	-56.268	0.433	-0.197
-673.135	220.688	0.113	-0.185
-672.120	-200.000	-0.034	0.188
-671.105	800.000	0.128	0.389
-670.091	261.282	-0.142	-0.251
-669.076	-200.000	-0.013	-0.228
-668.062	139.197	-0.161	-0.216
-667.047	800.000	0.046	0.137
-666.032	25.693	0.291	-0.247
-665.018	101.593	-0.170	-0.202
-664.003	-9.196	-0.181	-0.124
-662.989	-131.648	0.351	0.047
-661.974	352.244	0.132	-0.267
-660.959	-200.000	0.059	-0.313
-659.945	800.000	-0.075	-0.267
-658.930	379.540	0.046	0.096
-657.916	-124.895	0.049	-0.008
-656.901	26.921	0.140	0.120
-655.886	-69.601	-0.600	-0.234
-654.872	-54.730	-0.118	-0.054
-653.857	-111.824	-0.307	0.063
-652.843	27.445	0.326	-0.279
-651.828	-26.094	-0.199	0.119
-650.814	-162.563	0.155	0.008
-649.799	-33.358	0.058	0.032
-648.784	-93.934	0.112	0.031
-647.770	239.227	-0.153	0.259
-646.755	-50.533	-0.069	0.033
-645.741	-131.557	0.399	-0.054
-644.726	-136.495	0.147	0.017
-643.711	-200.000	-0.011	0.248
-642.697	-45.033	-0.165	0.084
-641.682	79.417	0.308	-0.337
-640.668	343.058	-0.101	-0.201
-639.653	-200.000	0.047	0.376
-638.638	109.868	-0.071	0.087
-637.624	207.126	0.083	-0.132
-636.609	296.911	-0.049	0.093
-635.595	-6.169	-0.204	0.142
-634.580	118.623	-0.233	0.293
-633.565	-56.274	-0.101	-0.046
-632.551	-200.000	0.029	0.160
-631.536	-200.000	0.050	0.255
-630.522	-171.893	0.511	0.017
-629.507	209.230	-0.114	-0.182
-628.492	50.905	-0.250	0.241
-627.478	-162.742	0.149	0.007
-626.463	-0.549	0.176	-0.127
-625.449	75.051	-0.103	0.111
-624.434	-30.224	-0.302	-0.175
-623.419	-47.519	-0.370	0.183
-622.405	85.268	0.207	-0.231
-621.390	800.000	-0.125	0.374
-620.376	-23.711	0.274	-0.168
-619.361	-54.446	0.172	-0.079
-618.346	93.353	-0.312	-0.359
-617.332	63.047	-0.210	0.214
-616.317	370.042	0.195	-0.402
-615.303	267.598	-0.038	0.067
-614.288	233.249	0.084	-0.141
-613.273	164.244	0.057	-0.081
-612.259	29.071	-0.203	-0.175
-611.244	-200.000	-0.005	-0.144
-610.230	-158.468	0.195	-0.011
-609.215	-0.335	0.150	0.108
-608.201	-84.545	0.186	-0.060
-607.186	-119.785	0.201	-0.035
-606.171	162.486	-0.202	-0.289
-605.157	-108.699	-0.294	0.064
-604.142	-18.235	-0.067	-0.043
-603.128	-1.297	0.202	-0.145
-602.113	-50.459	0.414	-0.199
-601.098	-2.801	-0.161	0.114
-600.084	233.430	0.094	-0.158
-599.069	187.653	0.123	0.186
-598.055	800.000	-0.080	0.236
-597.040	-200.000	-0.016	0.388
-596.025	800.000	-0.078	-0.251
-595.011	3.761	0.065	-0.048
-593.996	2.287	0.294	-0.216
-592.982	-113.274	0.389	-0.078
-591.967	-111.341	-0.035	0.007
-590.952	-141.382	-0.214	-0.022
-589.938	800.000	0.079	-0.223
-588.923	800.000	0.048	-0.174
-587.909	-112.612	-0.229	-0.046
-586.894	53.324	-0.109	-0.106
-585.879	-21.410	0.380	0.236
-584.865	-200.000	-0.014	0.336
-583.850	-29.887	0.363	0.210
-582.836	313.992	-0.088	0.168
-581.821	131.138	-0.199	0.260
-580.806	-167.205	-0.186	-0.008
-579.792	-54.826	0.245	0.113
-578.777	45.803	0.290	-0.272
-577.763	-3.147	0.133	0.094
-576.748	-200.000	-0.048	0.272
-575.733	61.049	-0.265	-0.267
-574.719	-139.680	-0.391	0.042
-573.704	800.000	-0.084	0.248
-572.690	-31.934	0.032	-0.018
-571.675	668.749	-0.132	0.348
-570.661	-200.000	0.001	-0.247
-569.646	-18.098	0.120	0.076
-568.631	-118.894	-0.118	0.021
-567.617	109.720	0.232	0.282
-566.602	138.134	-0.050	-0.066
-565.588	-200.000	-0.065	-0.505
-564.573	-35.880	-0.196	0.108
-563.558	-200.000	-0.013	-0.190
-562.544	47.802	-0.201	-0.191
-561.529	-39.395	0.289	0.154
-560.515	494.529	0.138	-0.322
-559.500	219.001	-0.170	-0.276
-558.485	-200.000	-0.045	0.378
-557.471	-200.000	0.016	0.399
-556.456	80.529	0.190	-0.208
-555.442	113.906	-0.094	0.116
-554.427	-9.228	0.492	0.334
-553.412	-123.486	-0.561	-0.091
-552.398	170.247	0.127	0.184
-551.383	17.261	0.342	0.276
-550.369	51.379	0.452	-0.436
-549.354	-17.832	-0.131	-0.083
-548.339	-146.335	0.192	0.017
-547.325	-48.520	-0.213	0.104
-546.310	-49.538	0.124	-0.060
-545.296	30.206	-0.121	-0.105
-544.281	-169.967	0.165	0.006
-543.266	-104.524	0.153	0.036
-542.252	744.130	-0.037	0.100
-541.237	771.594	-0.146	-0.403
-540.223	-15.715	0.195	-0.126
-539.208	800.000	-0.035	-0.121
-538.193	52.974	-0.129	0.125
-537.179	-77.230	-0.217	0.077
-536.164	381.667	-0.044	-0.092
-535.150	354.375	0.207	0.417
-534.135	571.064	-0.141	0.348
-533.121	-200.000	-0.039	0.285
-532.106	155.282	-0.190	0.265
-531.091	-63.429	0.156	0.065
-530.077	142.111	0.310	-0.418
-529.062	-151.881	-0.478	0.036
-528.048	324.487	-0.079	-0.152
-527.033	-57.189	0.172	0.077
-526.018	131.536	-0.106	-0.138
-525.004	246.502	-0.078	0.133
-523.989	223.559	0.108	0.177
-522.975	800.000	-0.030	-0.095
-521.960	-200.000	0.038	-0.426
-520.945	-76.579	0.170	-0.061
-519.931	-200.000	-0.006	-0.395
-518.916	189.550	-0.141	-0.215
-517.902	-200.000	-0.024	0.215
-516.887	-135.625	0.143	0.017
-515.872	92.720	0.072	0.083
-514.858	218.454	-0.304	-0.492
-513.843	-153.823	-0.280	0.019
-512.829	-30.060	-0.169	0.098
-511.814	-7.760	-0.242	-0.165
-510.799	-56.650	0.214	-0.096
-509.785	-61.756	-0.352	-0.149
-508.770	161.396	0.069	-0.098
-507.756	-72.627	0.210	-0.079
-506.741	-200.000	0.023	0.157
-505.726	68.974	-0.158	-0.165
-504.712	-28.723	0.338	-0.197
-503.697	-160.326	0.064	-0.004
-502.683	143.170	0.176	0.238
-501.668	329.593	0.118	-0.230
-500.653	-81.037	0.151	0.051
-499.639	-125.891	0.092	0.014
-498.624	-143.827	-0.094	-0.009
-497.610	-103.940	0.239	-0.057
-496.595	87.096	0.308	0.345
-495.581	-165.855	0.117	0.005
-494.566	-107.606	0.534	-0.118
-493.551	-67.735	0.069	0.027
-492.537	268.678	0.176	-0.313
-491.522	-12.919	-0.148	-0.098
-490.508	-12.580	-0.236	0.156
-489.493	800.000	0.062	-0.188
-488.478	339.667	0.105	0.207
-487.464	-49.872	0.149	0.071
-486.449	34.923	-0.082	0.072
-485.435	-39.772	-0.245	0.130
-484.420	-99.331	-0.203	0.052
-483.405	39.581	0.018	0.017
-482.391	26.957	0.125	0.106
-481.376	119.953	-0.128	-0.160
-480.362	230.779	-0.156	-0.258
-479.347	-200.000	-0.041	0.230
-478.332	-200.000	0.022	0.164
-477.318	39.798	0.209	0.190
-476.303	-139.950	0.015	0.002
-475.289	216.642	0.098	0.157
-474.274	11.206	0.171	0.132
-473.259	-49.389	0.150	-0.072
-472.245	-200.000	0.010	-0.203
-471.230	-147.832	-0.236	-0.020
-470.216	309.077	-0.106	0.201
-469.201	-200.000	0.015	-0.157
-468.186	73.201	0.254	-0.269
-467.172	-130.741	0.098	0.013
-466.157	-200.000	-0.610	0.000
-465.143	-139.399	-0.081	0.009
-464.128	800.000	0.057	-0.244
-463.113	-97.075	0.314	0.083
-462.099	92.965	-0.026	0.030
-461.084	-10.643	0.134	0.090
-460.070	-111.217	0.051	-0.011
-459.055	283.392	0.151	-0.274
-458.040	-164.118	-0.305	-0.014
-457.026	-118.313	-0.144	-0.026
-456.011	-38.993	0.098	0.052
-454.997	-144.648	-0.304	0.028
-453.982	-200.000	0.050	-0.378
-452.968	407.718	0.035	0.075
-451.953	-168.875	0.286	-0.011
-450.938	247.034	-0.070	-0.119
-449.924	-39.962	-0.244	-0.129
-448.909	37.125	-0.253	-0.227
-447.895	-200.000	0.008	-0.218
-446.880	-80.739	0.299	-0.101
-445.865	-28.229	-0.114	-0.067
-444.851	-200.000	-0.050	0.261
-443.836	154.449	-0.177	-0.246
-442.822	-200.000	-0.004	0.236
-441.807	22.254	0.137	0.113
-440.792	432.678	0.090	0.198
-439.778	-60.137	-0.093	0.040
-438.763	472.123	0.121	0.275
-437.749	101.211	-0.034	0.040
-436.734	19.928	0.296	-0.241
-435.719	-120.093	-0.249	-0.043
-434.705	100.468	-0.166	0.195
-433.690	-200.000	0.034	0.212
-432.676	-130.032	-0.083	0.011
-431.661	-121.258	0.421	-0.071
-430.646	-4.193	0.156	0.109
-429.632	-47.522	-0.252	-0.124
-428.617	-119.841	0.161	0.028
-427.603	80.889	0.083	0.090
-426.588	395.351	0.133	0.280
-425.573	4.655	0.230	0.171
-424.559	316.846	-0.115	0.220
-423.544	169.255	0.019	0.027
-422.530	425.425	-0.059	0.128
-421.515	-186.856	-0.332	0.005
-420.500	174.131	0.311	0.454
-419.486	87.169	-0.226	0.253
-418.471	-105.467	-0.103	0.024
-417.457	-200.000	-0.004	-0.204
-416.442	187.987	0.154	0.233
-415.428	-104.087	-0.283	-0.067
-414.413	287.324	-0.095	-0.174
-413.398	468.749	-0.043	-0.097
-412.384	-90.279	-0.249	-0.073
-411.369	-200.000	0.054	0.246
-410.355	-35.414	0.195	-0.107
-409.340	0.236	-0.203	-0.147
-408.325	9.349	0.113	0.087
-407.311	-190.388	-0.196	0.002
-406.296	800.000	-0.071	0.209
-405.282	-200.000	-0.002	0.040
-404.267	-200.000	0.002	-0.357
-403.252	800.000	0.046	-0.137
-402.238	-40.006	-0.082	0.043
-401.223	379.581	-0.029	0.060
-400.209	113.715	-0.105	0.129
-399.194	-200.000	0.077	0.366
-398.179	-200.000	0.028	0.144
-397.165	-109.831	-0.208	0.044
-396.150	472.580	0.036	0.082
-395.136	285.012	0.266	0.484
-394.121	-110.578	-0.373	-0.078
-393.106	-16.096	-0.225	-0.145
-392.092	-45.193	0.328	0.165
-391.077	-53.103	-0.205	-0.095
-390.063	-62.913	-0.275	-0.115
-389.048	157.401	0.087	-0.121
-388.033	54.025	0.235	-0.228
-387.019	800.000	-0.038	-0.167
-386.004	-69.591	0.276	-0.107
-384.990	164.364	0.117	0.166
-383.975	-88.247	-0.105	0.032
-382.960	-160.841	0.282	-0.015
-381.946	-200.000	-0.007	-0.110
-380.931	-200.000	0.015	-0.086
-379.917	-99.145	-0.145	-0.037
-378.902	176.717	0.166	-0.244
-377.888	800.000	0.099	-0.369
-376.873	-111.503	-0.356	0.073
-375.858	-94.402	-0.167	0.046
-374.844	238.638	-0.154	0.259
-373.829	-51.116	-0.125	0.059
-372.815	-98.887	0.146	-0.037
-371.800	199.203	-0.061	-0.095
-370.785	-184.045	-0.339	0.006
-369.771	-75.953	-0.183	-0.065
-368.756	-137.403	-0.234	0.027
-367.742	-128.253	-0.332	0.048
-366.727	-15.838	0.166	-0.106
-365.712	-126.865	0.119	0.018
-364.698	800.000	-0.076	0.313
-363.683	85.377	0.198	-0.219
-362.669	590.270	-0.126	0.314
-361.654	67.661	0.222	-0.229
-360.639	38.491	0.065	-0.059
-359.625	506.855	0.122	0.285
-358.610	-200.000	0.003	-0.149
-357.596	-200.000	-0.002	-0.081
-356.581	-200.000	-0.063	0.342
-355.566	-41.938	-0.385	0.199
-354.552	46.059	-0.110	0.102
-353.537	148.946	0.072	-0.098
-352.523	-191.762	-0.126	-0.001
-351.508	-51.858	0.151	0.071
-350.493	193.187	0.270	-0.412
-349.479	-93.314	0.099	0.028
-348.464	-34.125	-0.120	0.066
-347.450	201.130	-0.038	-0.058
-346.435	800.000	-0.079	-0.242
-345.420	227.877	0.197	-0.324
-344.406	-140.990	0.388	-0.040
-343.391	-106.931	0.271	0.061
-342.377	123.080	0.265	0.334
-341.362	800.000	-0.015	0.059
-340.348	-187.392	-0.158	-0.002
-339.333	-83.880	-0.224	-0.072
-338.318	-99.375	0.261	0.066
-337.304	-84.596	0.244	0.077
-336.289	-0.267	-0.145	-0.104
-335.275	26.868	0.167	0.141
-334.260	28.693	-0.243	-0.207
-333.245	-184.640	-0.012	0.000
-332.231	800.000	-0.049	0.138
-331.216	800.000	-0.082	0.268
-330.202	492.088	0.035	-0.080
-329.187	-200.000	-0.045	0.317
-328.172	800.000	-0.022	0.083
-327.158	800.000	-0.053	0.149
-326.143	-123.198	-0.310	0.050
-325.129	-19.362	0.197	0.123
-324.114	256.056	-0.072	0.125
-323.099	227.466	-0.050	0.082
-322.085	800.000	0.096	0.331
-321.070	-128.998	0.274	-0.039
-320.056	-200.000	0.021	0.157
-319.041	-96.111	-0.329	-0.088
-318.026	28.440	-0.078	0.066
-317.012	6.177	-0.253	0.189
-315.997	-104.537	0.203	-0.047
-314.983	-200.000	0.001	0.241
-313.968	-40.396	0.052	0.027
-312.953	97.973	-0.167	-0.193
-311.939	-17.344	-0.129	0.082
-310.924	153.175	0.301	-0.415
-309.910	-200.000	0.118	-0.563
-308.895	-9.241	-0.089	0.060
-307.880	99.412	-0.055	-0.064
-306.866	-35.957	0.220	0.120
-305.851	135.508	0.220	0.287
-304.837	62.595	0.219	-0.220
-303.822	-70.247	0.110	0.042
-302.807	116.895	-0.020	0.024
-301.793	104.109	0.082	-0.097
-300.778	102.525	0.217	-0.255
-299.764	800.000	-0.098	0.278
-298.749	642.311	0.038	-0.099
-297.735	744.001	0.050	0.135
-296.720	800.000	-0.025	-0.084
-295.705	-200.000	0.018	-0.141
-294.691	586.848	-0.034	-0.084
-293.676	160.165	-0.096	0.135
-292.662	-200.000	-0.007	-0.288
-291.647	-167.445	0.377	0.015
-290.632	-12.221	-0.052	-0.034
-289.618	-140.209	0.378	0.040
-288.603	60.305	0.205	0.203
-287.589	-194.170	0.173	0.001
-286.574	-91.973	-0.093	0.026
-285.559	-77.075	0.180	0.063
-284.545	-19.551	-0.403	-0.251
-283.530	-37.076	0.068	-0.036
-282.516	250.912	0.179	-0.305
-281.501	31.707	0.308	-0.267
-280.486	-105.488	-0.208	0.047
-279.472	-59.813	-0.122	0.052
-278.457	350.896	-0.158	-0.313
-277.443	277.612	-0.105	-0.187
-276.428	-112.817	-0.169	-0.034
-275.413	-120.239	0.185	0.032
-274.399	-145.682	0.059	-0.005
-273.384	800.000	-0.149	0.430
-272.370	-117.414	0.302	-0.055
-271.355	393.738	0.120	-0.252
-270.340	29.195	-0.040	0.034
-269.326	-122.152	-0.125	0.021
-268.311	83.396	-0.135	0.148
-267.297	-68.275	-0.135	0.053
-266.282	-19.053	-0.191	0.119
-265.267	-200.000	-0.000	0.061
-264.253	49.236	-0.349	-0.329
-263.238	-74.382	-0.254	0.092
-262.224	195.986	-0.079	-0.120
-261.209	-200.000	0.006	0.157
-260.195	-200.000	0.024	0.258
-259.180	50.713	0.064	0.061
-258.165	-150.145	-0.176	0.014
-257.151	10.631	0.247	-0.189
-256.136	-93.027	0.247	0.069
-255.122	-18.310	0.062	0.039
-254.107	290.033	0.187	0.341
-253.092	194.892	-0.154	0.234
-252.078	119.246	0.069	-0.086
-251.063	156.455	-0.155	0.215
-250.049	768.515	-0.112	0.306
-249.034	-10.487	-0.067	0.044
-248.019	-200.000	-0.010	-0.173
-247.005	63.432	0.079	0.079
-245.990	-193.433	0.226	0.002
-244.976	18.191	-0.156	0.125
-243.961	-53.274	-0.132	-0.061
-242.946	-188.077	0.271	0.003
-241.932	-200.000	-0.035	0.300
-240.917	453.680	-0.119	0.264
-239.903	-20.936	0.065	-0.040
-238.888	14.301	0.243	0.190
-237.873	800.000	0.080	-0.284
-236.859	-2.805	0.219	0.154
-235.844	623.589	0.115	0.290
-234.830	-161.566	0.266	-0.014
-233.815	725.685	-0.096	-0.258
-232.800	20.701	0.150	-0.122
-231.786	-200.000	0.014	-0.075
-230.771	228.041	-0.178	-0.291
-229.757	-120.030	-0.137	0.024
-228.742	48.422	-0.150	-0.141
-227.727	300.383	-0.143	-0.264
-226.713	-143.849	-0.102	-0.010
-225.698	31.257	0.250	-0.215
-224.684	84.014	-0.202	0.221
-223.669	509.401	0.093	0.216
-222.655	-168.392	0.086	-0.003
-221.640	-87.466	-0.182	-0.055
-220.625	-200.000	-0.041	-0.320
-219.611	285.228	-0.086	0.155
-218.596	-63.574	-0.238	0.098
-217.582	10.430	-0.111	-0.084
-216.567	-200.000	-0.012	0.058
-215.552	800.000	-0.084	-0.328
-214.538	-114.726	0.126	-0.024
-213.523	556.976	-0.066	0.158
-212.509	1.719	0.152	-0.110
-211.494	800.000	-0.076	-0.282
-210.479	800.000	0.036	-0.103
-209.465	-110.867	0.260	-0.054
-208.450	-200.000	-0.020	-0.309
-207.436	-47.080	-0.152	0.074
-206.421	562.337	0.121	0.293
-205.406	-114.855	-0.227	-0.043
-204.392	-200.000	0.055	-0.253
-203.377	-200.000	-0.007	-0.195
-202.363	11.486	0.074	-0.057
-201.348	146.311	0.060	-0.081
-200.333	-200.000	0.052	0.278
-199.319	-134.118	-0.280	-0.035
-198.304	44.234	-0.232	-0.213
-197.290	401.761	-0.073	-0.153
-196.275	46.578	-0.052	-0.048
-195.260	413.796	-0.166	-0.354
-194.246	-200.000	-0.019	-0.276
-193.231	-22.645	-0.076	0.046
-192.217	-48.688	0.288	0.139
-191.202	-133.346	0.126	0.016
-190.187	-46.122	-0.238	0.117
-189.173	800.000	-0.094	-0.284
-188.158	-69.790	0.079	-0.030
-187.144	-142.106	0.382	0.038
-186.129	-200.000	0.060	0.385
-185.114	-101.426	0.073	-0.018
-184.100	392.546	0.184	-0.383
-183.085	-75.216	-0.250	0.089
-182.071	-200.000	-0.029	-0.264
-181.056	235.632	0.085	0.141
-180.042	800.000	-0.007	0.025
-179.027	-90.344	-0.214	0.062
-178.012	-19.524	-0.134	0.083
-176.998	800.000	0.048	0.188
-175.983	800.000	-0.038	0.159
-174.969	106.076	0.158	0.187
-173.954	-200.000	0.025	-0.122
-172.939	-200.000	0.026	0.210
-171.925	59.239	-0.025	0.024
-170.910	-200.000	0.036	-0.282
-169.896	712.312	-0.076	-0.203
-168.881	325.478	-0.208	0.398
-167.866	54.961	-0.090	-0.087
-166.852	-200.000	0.015	-0.108
-165.837	-200.000	0.031	-0.187
-164.823	-200.000	0.008	-0.227
-163.808	-200.000	-0.030	0.201
-162.793	-86.509	-0.145	-0.044
-161.779	-13.341	-0.193	-0.125
-160.764	-68.041	0.104	0.040
-159.750	-147.350	-0.057	0.005
-158.735	-77.565	-0.318	0.110
-157.720	-5.281	-0.193	0.132
-156.706	-200.000	-0.011	0.115
-155.691	-3.506	-0.157	-0.109
-154.677	171.476	-0.139	-0.200
-153.662	174.304	-0.151	-0.218
-152.647	56.790	-0.163	0.159
-151.633	-74.470	-0.179	0.065
-150.618	215.742	0.183	0.290
-149.604	135.921	0.028	-0.037
-148.589	25.125	-0.174	-0.144
-147.574	800.000	0.065	0.189
-146.560	800.000	-0.040	0.136
-145.545	147.903	-0.210	-0.283
-144.531	-200.000	0.015	-0.203
-143.516	-68.378	0.097	-0.038
-142.502	-36.069	-0.159	-0.086
-141.487	-89.686	0.118	0.034
-140.472	-66.161	0.126	-0.050
-139.458	-108.619	0.181	-0.039
-138.443	45.197	0.180	0.166
-137.429	562.078	-0.057	0.139
-136.414	-81.743	0.243	0.080
-135.399	800.000	-0.064	0.183
-134.385	-83.039	0.194	0.062
-133.370	-92.982	0.290	0.081
-132.356	800.000	-0.077	0.278
-131.341	-200.000	-0.018	0.232
-130.326	214.290	0.046	-0.073
-129.312	800.000	-0.027	0.088
-128.297	-57.231	-0.088	-0.039
-127.283	92.317	-0.318	-0.358
-126.268	-200.000	-0.001	0.080
-125.253	800.000	-0.025	-0.083
-124.239	-200.000	0.038	-0.245
-123.224	-57.792	0.208	0.091
-122.210	800.000	-0.074	-0.307
-121.195	-54.247	-0.366	0.166
-120.180	-200.000	-0.031	0.277
-119.166	-200.000	-0.081	-0.429
-118.151	200.173	0.152	-0.233
-117.137	-36.089	-0.142	-0.077
-116.122	38.096	-0.115	-0.102
-115.107	800.000	-0.035	-0.129
-114.093	-67.819	0.077	-0.030
-113.078	240.501	0.183	-0.305
-112.064	203.728	-0.152	0.235
-111.049	150.609	-0.042	0.057
-110.034	-104.538	-0.140	-0.032
-109.020	-92.225	-0.022	-0.006
-108.005	38.976	-0.107	0.095
-106.991	-26.742	0.336	0.196
-105.976	-52.082	0.158	0.073
-104.962	-200.000	-0.021	0.177
-103.947	44.387	-0.123	-0.113
-102.932	-20.467	0.455	-0.279
-101.918	-124.165	-0.559	-0.087
-100.903	800.000	-0.045	0.148
-99.889	-200.000	0.037	-0.254
-98.874	105.856	-0.107	-0.126
-97.859	430.759	-0.032	0.070
-96.845	-200.000	0.011	-0.282
-95.830	-1.348	0.259	-0.183
-94.816	57.643	-0.196	-0.191
-93.801	65.304	0.141	0.142
-92.786	173.934	0.149	-0.214
-91.772	-92.518	0.284	0.079
-90.757	-121.977	0.166	-0.027
-89.743	-200.000	0.024	-0.291
-88.728	-200.000	-0.022	0.479
-87.713	-200.000	0.013	-0.284
-86.699	-86.482	0.239	0.073
-85.684	-200.000	-0.055	-0.255
-84.670	128.108	-0.160	0.203
-83.655	-200.000	-0.030	-0.135
-82.640	-200.000	-0.001	-0.106
-81.626	-85.953	0.392	-0.121
-80.611	24.758	-0.239	0.197
-79.597	43.417	0.106	0.097
-78.582	1.812	0.194	-0.139
-77.567	454.851	-0.114	-0.252
-76.553	-31.327	0.414	-0.232
-75.538	7.989	0.101	0.075
-74.524	-62.493	-0.216	-0.090
-73.509	7.052	0.663	0.493
-72.494	800.000	-0.066	0.200
-71.480	453.707	-0.070	-0.155
-70.465	-200.000	0.007	-0.088
-69.451	-200.000	0.034	0.325
-68.436	120.483	0.146	0.181
-67.422	-163.473	0.292	0.014
-66.407	-200.000	-0.015	0.366
-65.392	138.798	0.045	0.059
-64.378	-200.000	0.093	-0.461
-63.363	-200.000	-0.009	-0.219
-62.349	148.748	0.132	0.178
-61.334	-36.636	-1.081	-0.579
-60.319	101.191	0.346	0.401
-59.305	800.000	-0.135	-0.480
-58.290	314.683	0.335	0.628
-57.276	662.364	0.606	1.556
-56.261	-200.000	75.030	523.493
-55.246	546.351	1305.611	3110.291
-54.232	143.723	2560.160	3398.226
-53.217	110.840	2368.239	2838.726
-52.203	51.266	1981.432	1873.262
-51.188	45.407	1766.636	1623.799
-50.173	42.412	1719.629	1557.337
-49.159	56.210	1753.665	1696.237
-48.144	61.958	1772.028	1758.798
-47.130	45.252	1734.713	1592.997
-46.115	41.991	1721.523	1555.529
-45.100	41.792	1716.790	1549.651
-44.086	41.858	1713.706	1547.316
-43.071	41.823	1710.569	1544.149
-42.057	41.743	1708.670	1541.759
-41.042	41.753	1707.136	1540.389
-40.027	41.852	1704.506	1538.719
-39.013	41.815	1702.545	1536.602
-37.998	41.696	1700.935	1534.178
-36.984	41.909	1699.461	1534.419
-35.969	41.966	1697.912	1533.397
-34.954	41.938	1696.164	1531.542
-33.940	41.953	1694.114	1529.742
-32.925	41.973	1692.080	1528.001
-31.911	41.898	1691.008	1526.396
-30.896	42.006	1688.667	1525.047
-29.881	42.020	1686.988	1523.581
-28.867	41.935	1685.383	1521.419
-27.852	41.873	1683.792	1519.451
-26.838	41.948	1681.624	1518.010
-25.823	41.975	1680.691	1517.306
-24.809	42.050	1679.107	1516.387
-23.794	41.979	1677.362	1514.212
-22.779	41.967	1676.199	1513.013
-21.765	41.974	1674.580	1511.542
-20.750	41.865	1672.993	1509.230
-19.736	41.949	1671.477	1508.432
-18.721	41.948	1670.353	1507.355
-17.706	42.019	1668.115	1505.811
-16.692	42.005	1666.520	1504.200
-15.677	41.950	1665.585	1502.888
-14.663	41.914	1664.467	1501.550
-13.648	42.023	1662.347	1500.391
-12.633	41.906	1661.323	1498.535
-11.619	42.004	1659.122	1497.221
-10.604	41.900	1657.440	1494.870
-9.590	41.927	1656.279	1493.964
-8.575	41.973	1654.977	1493.071
-7.560	41.913	1653.610	1491.333
-6.546	41.989	1652.214	1490.576
-5.531	41.964	1651.270	1489.485
-4.517	41.869	1650.343	1487.880
-3.502	41.954	1649.026	1487.268
-2.487	41.985	1647.817	1486.343
-1.473	41.907	1636.489	1475.494
-0.458	39.369	1615.685	1438.164
0.556	34.186	1614.016	1400.279
1.571	31.204	1638.457	1399.049
2.586	30.386	1652.521	1404.752
3.600	26.745	1598.176	1331.735
4.615	14.383	1476.425	1145.704
5.629	3.056	1399.773	1011.914
6.644	0.837	1389.672	990.014
7.659	0.734	1388.166	988.177
8.673	0.815	1386.423	987.377
9.688	0.744	1384.670	985.582
10.702	0.381	1382.285	981.431
11.717	4.530	1390.641	1014.403
12.731	15.937	1413.720	1106.483
13.746	23.738	1426.260	1167.699
14.761	24.251	1426.223	1170.936
15.775	24.301	1425.240	1170.349
16.790	24.286	1425.136	1170.065
17.804	24.387	1424.632	1170.209
18.819	24.583	1424.192	1171.028
19.834	24.628	1423.505	1170.656
20.848	24.738	1422.008	1170.040
21.863	24.706	1421.434	1169.256
22.877	24.615	1420.643	1167.909
23.892	24.681	1419.991	1167.698
24.907	24.634	1418.972	1166.447
25.921	24.672	1417.689	1165.538
26.936	24.708	1417.099	1165.183
27.950	24.658	1415.882	1163.758
28.965	24.718	1414.268	1162.716
29.980	24.596	1413.425	1161.128
30.994	24.639	1412.240	1160.331
32.009	24.585	1410.968	1158.836
33.023	24.593	1410.091	1158.064
34.038	24.693	1408.448	1157.256
35.053	24.682	1407.349	1156.182
36.067	24.631	1406.425	1154.992
37.082	24.729	1405.036	1154.383
38.096	24.757	1404.242	1153.805
39.111	24.648	1403.910	1152.731
40.126	24.572	1403.582	1151.871
41.140	24.662	1402.554	1151.501
42.155	24.705	1402.349	1151.510
43.169	24.642	1402.301	1150.962
44.184	24.709	1402.056	1151.090
45.199	24.661	1401.476	1150.201
46.213	24.631	1400.745	1149.305
47.228	24.660	1399.981	1148.769
48.242	24.700	1398.026	1147.314
49.257	24.667	1397.437	1146.521
50.271	24.691	1395.702	1145.152
51.286	24.532	1394.864	1143.342
52.301	24.520	1393.385	1141.953
53.315	24.556	1392.166	1141.084
54.330	24.684	1391.453	1141.217
55.344	24.702	1390.212	1140.208
56.359	24.537	1389.134	1138.176
57.374	24.623	1388.325	1137.955
58.388	24.599	1387.747	1137.232
59.403	24.648	1387.583	1137.309
60.417	24.659	1386.533	1136.419
61.432	24.594	1386.167	1135.605
62.447	24.595	1384.897	1134.467
63.461	24.712	1383.923	1134.311
64.476	24.760	1382.260	1133.154
65.490	24.639	1381.652	1131.789
66.505	24.629	1380.331	1130.542
67.520	24.654	1378.717	1129.278
68.534	24.735	1378.013	1129.113
69.549	24.787	1376.422	1128.035
70.563	24.611	1376.046	1126.519
71.578	24.532	1375.210	1125.240
72.593	24.648	1373.897	1124.795
73.607	24.586	1373.784	1124.210
74.622	24.697	1372.307	1123.604
75.636	24.586	1372.126	1122.657
76.651	24.589	1371.540	1122.095
77.666	24.589	1370.865	1121.445
78.680	24.604	1370.469	1121.114
79.695	24.652	1369.284	1120.351
80.709	24.628	1368.703	1119.623
81.724	24.582	1368.208	1118.829
82.739	24.689	1366.837	1118.278
83.753	24.665	1365.757	1117.146
84.768	24.667	1364.634	1116.140
85.782	24.708	1363.575	1115.437
86.797	24.703	1362.384	1114.331
87.812	24.696	1360.818	1112.905
88.826	24.731	1359.638	1112.060
89.841	24.736	1358.763	1111.279
90.855	24.825	1357.403	1110.621
91.870	24.692	1357.365	1109.663
92.884	24.676	1356.297	1108.592
93.899	24.641	1355.485	1107.619
94.914	24.715	1354.734	1107.360
95.928	24.756	1353.518	1106.528
96.943	24.745	1353.289	1106.174
97.957	24.792	1352.229	1105.495
98.972	24.734	1351.655	1104.570
99.987	24.741	1350.406	1103.494
101.001	24.728	1349.752	1102.785
102.016	24.720	1348.229	1101.393
103.030	24.651	1347.752	1100.482
104.045	24.688	1346.951	1099.956
105.060	24.625	1345.965	1098.671
106.074	24.852	1344.656	1098.898
107.089	24.715	1343.717	1097.189
108.103	24.713	1343.090	1096.567
109.118	24.657	1341.901	1095.157
110.133	24.811	1340.613	1094.952
111.147	24.715	1339.261	1093.165
112.162	24.813	1337.454	1092.191
113.176	24.784	1336.781	1091.368
114.191	24.789	1336.139	1090.776
115.206	24.756	1334.943	1089.507
116.220	24.813	1333.564	1088.628
117.235	24.704	1332.905	1087.334
118.249	24.747	1332.194	1086.917
119.264	24.751	1330.958	1085.836
120.279	24.795	1330.315	1085.483
121.293	24.907	1329.313	1085.251
122.308	24.721	1328.776	1083.586
123.322	24.818	1327.599	1083.117
124.337	24.842	1327.045	1082.715
125.352	24.836	1326.030	1081.753
126.366	24.939	1324.831	1081.304
127.381	24.814	1324.065	1079.830
128.395	24.796	1323.320	1079.018
129.410	24.868	1322.656	1078.815
130.424	24.918	1321.532	1078.104
131.439	24.953	1320.520	1077.393
132.454	24.779	1320.331	1076.097
133.468	24.812	1319.559	1075.572
134.483	24.802	1319.046	1074.999
135.497	24.873	1318.030	1074.502
136.512	24.827	1317.443	1073.650
137.527	24.868	1316.093	1072.703
138.541	24.868	1314.743	1071.506
139.556	24.886	1313.314	1070.357
140.570	24.878	1312.052	1069.181
141.585	24.848	1311.340	1068.327
142.600	24.817	1309.954	1066.919
143.614	24.872	1309.123	1066.478
144.629	24.850	1307.956	1065.299
145.643	24.714	1307.198	1063.783
146.658	24.804	1306.126	1063.352
147.673	24.801	1305.222	1062.503
148.687	24.809	1304.033	1061.489
149.702	24.805	1303.125	1060.629
150.716	24.770	1301.929	1059.357
151.731	24.776	1300.829	1058.402
152.746	24.810	1299.679	1057.575
153.760	24.793	1298.408	1056.347
154.775	24.788	1297.976	1055.868
155.789	24.825	1296.910	1055.130
156.804	24.787	1296.033	1054.100
157.819	24.785	1294.915	1053.083
158.833	24.840	1294.302	1052.816
159.848	24.781	1293.691	1051.876
160.862	24.800	1292.706	1051.097
161.877	24.888	1291.580	1050.603
162.892	24.907	1291.031	1050.175
163.906	24.898	1290.734	1049.792
164.921	24.956	1289.517	1049.044
165.935	24.894	1288.715	1047.935
166.950	24.883	1288.090	1047.275
167.964	24.868	1287.384	1046.517
168.979	24.823	1286.938	1045.798
169.994	24.959	1286.267	1045.959
171.008	24.909	1285.604	1045.035
172.023	25.030	1284.569	1044.806
173.037	24.906	1284.084	1043.594
174.052	24.850	1283.589	1042.772
175.067	24.823	1282.702	1041.806
176.081	24.959	1281.519	1041.542
177.096	24.928	1281.032	1040.871
178.110	24.936	1280.086	1040.061
179.125	25.001	1278.748	1039.256
180.140	24.971	1277.839	1038.253
181.154	24.894	1276.662	1036.758
182.169	25.017	1275.644	1036.553
183.183	24.962	1274.559	1035.260
184.198	25.008	1273.366	1034.467
185.213	24.998	1272.589	1033.683
186.227	25.055	1271.585	1033.107
187.242	25.125	1270.434	1032.483
188.256	24.962	1269.830	1030.961
189.271	25.113	1269.110	1031.156
190.286	24.996	1268.163	1029.626
191.300	24.980	1268.361	1029.603
192.315	25.026	1267.319	1028.926
193.329	25.002	1266.945	1028.394
194.344	25.069	1266.402	1028.249
195.359	25.091	1266.055	1028.002
196.373	25.028	1265.359	1026.982
197.388	24.946	1264.869	1026.024
198.402	24.970	1264.483	1025.762
199.417	25.040	1263.919	1025.614
200.432	25.027	1263.419	1025.041
201.446	24.968	1262.934	1024.216
202.461	24.972	1262.325	1023.659
203.475	24.972	1261.466	1022.871
204.490	25.034	1260.171	1022.082
205.504	24.909	1259.741	1020.930
206.519	25.162	1258.149	1020.993
207.534	25.120	1257.232	1019.918
208.548	25.056	1256.680	1019.017
209.563	24.941	1255.773	1017.538
210.577	25.231	1254.568	1018.119
211.592	25.105	1254.047	1016.891
212.607	25.072	1253.244	1015.963
213.621	25.152	1252.435	1015.669
214.636	25.058	1252.078	1014.759
215.650	25.091	1251.149	1014.099
216.665	25.152	1249.603	1013.104
217.680	25.089	1249.104	1012.253
218.694	25.253	1248.061	1012.242
219.709	25.167	1247.534	1011.244
220.723	25.201	1246.838	1010.779
221.738	25.160	1245.825	1009.635
222.753	25.067	1245.242	1008.553
223.767	24.996	1244.894	1007.783
224.782	25.221	1244.021	1008.249
225.796	25.293	1243.324	1007.999
226.811	25.182	1243.064	1007.076
227.826	25.145	1242.889	1006.640
228.840	25.162	1242.043	1005.958
229.855	25.239	1241.008	1005.466
230.869	25.388	1239.930	1005.333
231.884	25.221	1239.499	1003.964
232.899	25.200	1238.834	1003.216
233.913	25.279	1237.935	1002.842
234.928	25.277	1238.011	1002.803
235.942	25.400	1236.708	1002.348
236.957	25.286	1236.384	1001.356
237.972	25.268	1235.879	1000.761
238.986	25.261	1235.272	1000.142
240.001	25.239	1234.649	999.425
241.015	25.345	1233.556	999.045
242.030	25.453	1232.809	998.954
243.045	25.339	1232.379	997.879
244.059	25.438	1231.266	997.442
245.074	25.462	1230.292	996.698
246.088	25.548	1229.388	996.353
247.103	25.440	1228.376	994.845
248.117	25.432	1228.519	994.832
249.132	25.374	1227.410	993.522
250.147	25.394	1227.049	993.255
251.161	25.522	1225.683	992.766
252.176	25.434	1225.058	991.689
253.190	25.460	1224.718	991.468
254.205	25.485	1223.961	990.906
255.220	25.431	1223.548	990.185
256.234	25.429	1223.139	989.756
257.249	25.441	1222.364	989.104
258.263	25.560	1221.247	988.769
259.278	25.600	1220.464	988.270
260.293	25.536	1220.335	987.725
261.307	25.543	1220.133	987.513
262.322	25.508	1219.299	986.556
263.336	25.348	1219.125	985.451
264.351	25.543	1217.908	985.448
265.366	25.480	1217.434	984.632
266.380	25.602	1216.550	984.497
267.395	25.497	1216.065	983.443
268.409	25.426	1215.674	982.652
269.424	25.520	1214.847	982.412
270.439	25.489	1214.258	981.677
271.453	25.603	1213.020	981.212
272.468	25.652	1212.309	980.821
273.482	25.477	1211.952	979.489
274.497	25.618	1211.573	979.864
275.512	25.623	1211.341	979.620
276.526	25.562	1210.506	978.522
277.541	25.704	1209.653	978.518
278.555	25.590	1209.009	977.291
279.570	25.839	1207.856	977.623
280.585	25.731	1207.246	976.462
281.599	25.660	1206.605	975.470
282.614	25.799	1205.392	975.156
283.628	25.689	1204.791	973.989
284.643	25.735	1203.781	973.334
285.657	25.707	1202.764	972.276
286.672	25.805	1201.863	971.990
287.687	25.756	1201.325	971.204
288.701	25.716	1200.922	970.577
289.716	25.707	1200.225	969.880
290.730	25.750	1199.523	969.458
291.745	25.693	1199.098	968.722
292.760	25.800	1198.129	968.427
293.774	25.774	1197.605	967.778
294.789	25.952	1197.062	968.208
295.803	25.876	1196.282	967.083
296.818	25.742	1195.563	965.698
297.833	25.880	1195.030	965.923
298.847	25.871	1194.467	965.333
299.862	25.838	1193.846	964.569
300.876	25.789	1193.320	963.797
301.891	25.831	1192.706	963.443
302.906	25.983	1191.616	963.287
303.920	25.992	1190.987	962.742
304.935	25.981	1190.738	962.397
305.949	25.915	1190.053	961.404
306.964	25.963	1189.315	960.978
307.979	25.946	1188.276	959.964
308.993	26.047	1188.146	960.314
310.008	25.925	1187.033	958.678
311.022	25.948	1186.360	958.175
312.037	26.013	1185.429	957.680
313.052	25.900	1184.491	956.241
314.066	26.007	1184.120	956.422
315.081	25.971	1183.294	955.481
316.095	25.927	1182.734	954.713
317.110	25.922	1181.964	953.976
318.125	25.947	1181.299	953.488
319.139	26.048	1180.340	953.165
320.154	26.073	1179.991	952.930
321.168	26.008	1179.600	952.189
322.183	26.115	1178.978	952.167
323.197	26.018	1178.790	951.419
324.212	26.048	1177.575	950.510
325.227	26.113	1177.181	950.453
326.241	26.057	1177.025	949.944
327.256	26.134	1175.882	949.347
328.270	26.014	1175.208	948.085
329.285	25.965	1174.445	947.132
330.300	26.210	1173.275	947.386
331.314	26.154	1172.338	946.255
332.329	26.198	1171.755	945.928
333.343	26.197	1170.999	945.232
334.358	26.321	1170.179	945.132
335.373	26.269	1169.683	944.378
336.387	26.252	1168.838	943.525
337.402	26.158	1168.534	942.705
338.416	26.291	1167.732	942.668
339.431	26.211	1166.790	941.405
340.446	26.256	1166.488	941.315
341.460	26.312	1165.742	940.919
342.475	26.427	1164.552	940.472
343.489	26.360	1164.067	939.653
344.504	26.273	1163.385	938.565
345.519	26.428	1162.110	938.260
346.533	26.399	1161.102	937.212
347.548	26.361	1161.035	936.875
348.562	26.359	1159.991	935.941
349.577	26.339	1159.230	935.141
350.592	26.267	1158.712	934.267
351.606	26.305	1157.910	933.734
352.621	26.416	1157.168	933.626
353.635	26.473	1156.742	933.492
354.650	26.337	1156.347	932.390
355.665	26.475	1155.530	932.364
356.679	26.323	1155.229	931.254
357.694	26.614	1153.603	931.356
358.708	26.506	1153.119	930.327
359.723	26.289	1153.073	929.093
360.738	26.505	1151.867	929.150
361.752	26.594	1151.487	929.216
362.767	26.504	1151.016	928.291
363.781	26.483	1150.503	927.687
364.796	26.659	1149.351	927.581
365.810	26.613	1149.175	927.122
366.825	26.565	1148.824	926.508
367.840	26.675	1148.040	926.356
368.854	26.604	1147.912	925.811
369.869	26.610	1146.980	925.006
370.883	26.704	1146.083	924.680
371.898	26.678	1145.052	923.636
372.913	26.618	1144.489	922.791
373.927	26.665	1144.460	922.926
374.942	26.739	1143.918	922.784
375.956	26.704	1143.236	921.973
376.971	26.651	1142.417	920.964
377.986	26.678	1141.956	920.649
379.000	26.758	1141.515	920.618
380.015	26.820	1140.954	920.399
381.029	26.699	1140.722	919.516
382.044	26.798	1139.350	918.828
383.059	26.826	1138.826	918.468
384.073	26.834	1138.244	917.959
385.088	26.863	1137.119	917.114
386.102	26.886	1136.212	916.418
387.117	26.926	1135.293	915.801
388.132	26.692	1134.602	913.978
389.146	26.771	1133.999	913.812
390.161	26.851	1133.563	913.784
391.175	26.883	1132.962	913.380
392.190	26.823	1132.029	912.245
393.205	26.798	1131.728	911.796
394.219	26.965	1130.429	911.507
395.234	26.895	1129.731	910.512
396.248	26.914	1129.061	909.988
397.263	27.100	1127.562	909.630
398.278	27.053	1127.620	909.357
399.292	26.991	1126.969	908.446
400.307	26.952	1126.467	907.766
401.321	26.991	1125.871	907.396
402.336	26.960	1125.412	906.791
403.350	26.943	1124.296	905.729
404.365	27.093	1123.870	906.055
405.380	27.029	1122.827	904.814
406.394	27.179	1122.122	904.913
407.409	27.128	1121.527	904.100
408.423	27.120	1120.956	903.521
409.438	27.114	1120.079	902.703
410.453	27.142	1119.338	902.162
411.467	27.200	1118.686	901.846
412.482	27.120	1117.842	900.690
413.496	27.172	1117.124	900.290
414.511	27.174	1116.655	899.840
415.526	27.172	1116.562	899.678
416.540	27.233	1115.736	899.231
417.555	27.091	1115.255	898.065
418.569	27.223	1114.523	898.046
419.584	27.270	1114.223	897.956
420.599	27.222	1114.095	897.541
421.613	83.284	1292.514	1350.124
422.628	78.311	1318.500	1350.288
