DTS Sentinel unit serial number:	SN413079Multiplexer serial number:	ORYXHardware model number:	OX4-SRSoftware version number:	ORYX F/W v4.00 Oryx Data Collector v3.7.2.0data status	okinstallation	princeton_trtdifferential loss correction	single-endedforward channel	channel 2reverse channel	N/Adate	2019/09/10time	20:29:10forward acquisition time	60.00reverse acquisition time	0.00gamma	496.2192k internal	0.2330k external	0.2330temperature offset calibration	0.9946default loss term (dB/km)	0.3790temperature slope calibration	1.0000multiplexer offset coefficient	1.0000multiplexer slope coefficient	1.0000fibre end	0.00T internal ref (°C)	32.05T ext. ref 1 (°C)	-0.31T ext. ref 2 (°C)	25.22length (m)	temperature (°C)	Stokes	anti-Stokes-747.200	23.817	-0.091	-0.075
-746.185	-200.000	-0.058	0.273
-745.171	-200.000	0.002	0.033
-744.156	30.524	0.227	-0.195
-743.142	800.000	-0.063	-0.217
-742.127	-200.000	0.037	0.181
-741.112	-21.170	0.282	-0.174
-740.098	-200.000	-0.031	-0.154
-739.083	-109.155	0.321	0.069
-738.069	151.948	0.167	0.229
-737.054	442.296	-0.054	-0.118
-736.039	-66.273	-0.312	0.125
-735.025	28.505	0.143	0.122
-734.010	64.014	0.163	-0.165
-732.996	-132.553	-0.188	0.024
-731.981	-200.000	-0.329	-0.001
-730.966	741.394	-0.091	-0.245
-729.952	141.965	0.144	0.192
-728.937	19.482	-0.113	-0.092
-727.923	800.000	0.090	-0.265
-726.908	-154.198	-0.238	0.016
-725.894	42.180	0.099	-0.091
-724.879	120.967	-0.141	-0.176
-723.864	800.000	0.072	0.212
-722.850	-185.249	-0.382	0.006
-721.835	-2.079	0.324	-0.229
-720.821	-86.470	0.245	-0.076
-719.806	166.358	-0.143	-0.204
-718.791	-49.635	-0.327	-0.157
-717.777	-106.974	0.109	0.024
-716.762	-103.082	-0.216	0.051
-715.748	-105.877	-0.280	-0.064
-714.733	800.000	-0.034	0.110
-713.718	132.004	-0.109	0.141
-712.704	184.742	0.065	-0.097
-711.689	-44.620	0.223	0.112
-710.675	313.692	-0.086	0.163
-709.660	-48.890	-0.368	-0.177
-708.645	92.620	0.276	0.313
-707.631	8.928	-0.108	0.082
-706.616	-110.395	-0.269	0.056
-705.602	-36.157	-0.228	-0.124
-704.587	25.306	0.023	0.019
-703.572	-0.617	-0.254	0.181
-702.558	-39.174	0.410	0.217
-701.543	-104.957	0.088	-0.020
-700.529	-8.144	-0.129	0.087
-699.514	97.542	-0.109	-0.126
-698.499	62.014	0.087	0.087
-697.485	-200.000	-0.010	0.125
-696.470	-18.474	0.025	-0.016
-695.456	-15.713	-0.090	-0.058
-694.441	327.498	0.200	0.385
-693.426	-100.347	0.210	0.052
-692.412	88.346	0.005	0.006
-691.397	-97.620	0.194	-0.051
-690.383	-93.699	-0.117	-0.032
-689.368	800.000	0.088	0.320
-688.354	-164.524	-0.136	-0.006
-687.339	18.262	-0.193	0.155
-686.324	229.425	-0.098	0.161
-685.310	52.690	0.104	0.100
-684.295	114.923	0.101	0.124
-683.281	-200.000	-0.010	-0.188
-682.266	-112.102	-0.313	-0.063
-681.251	-135.117	0.540	-0.065
-680.237	-200.000	-0.002	-0.322
-679.222	-20.076	-0.108	-0.067
-678.208	-96.349	-0.243	-0.064
-677.193	-134.157	-0.544	-0.067
-676.178	374.750	0.163	0.333
-675.164	-165.524	0.065	0.003
-674.149	530.410	-0.074	0.176
-673.135	-160.045	0.014	0.001
-672.120	-111.271	-0.146	0.030
-671.105	-137.517	-0.130	-0.015
-670.091	30.316	-0.196	-0.168
-669.076	99.291	0.102	-0.118
-668.062	-200.000	0.009	0.061
-667.047	-58.747	-0.235	0.102
-666.032	-71.771	0.137	-0.051
-665.018	683.704	0.075	-0.197
-664.003	-99.445	0.324	-0.082
-662.989	-200.000	0.004	-0.585
-661.974	800.000	0.075	-0.259
-660.959	800.000	0.055	0.160
-659.945	693.800	0.089	-0.233
-658.930	70.377	0.289	-0.300
-657.916	800.000	-0.067	0.231
-656.901	-135.457	-0.155	0.019
-655.886	800.000	-0.075	-0.251
-654.872	68.538	-0.026	-0.027
-653.857	-30.461	-0.501	-0.285
-652.843	-58.374	-0.629	-0.274
-651.828	-200.000	-0.026	0.191
-650.814	-200.000	0.054	-0.596
-649.799	-49.260	0.081	0.039
-648.784	-111.852	-0.267	0.054
-647.770	-200.000	0.036	0.320
-646.755	-85.580	-0.091	-0.028
-645.741	421.870	0.059	-0.128
-644.726	-200.000	0.051	0.250
-643.711	-159.616	0.280	-0.016
-642.697	76.356	-0.138	-0.146
-641.682	-91.961	-0.143	-0.041
-640.668	54.640	0.041	0.039
-639.653	534.768	0.069	0.165
-638.638	-22.123	0.151	-0.092
-637.624	260.774	-0.148	-0.257
-636.609	-54.910	-0.048	-0.022
-635.595	800.000	-0.040	0.119
-634.580	-101.709	-0.266	0.065
-633.565	-132.732	-0.081	-0.010
-632.551	16.091	-0.060	-0.047
-631.536	-0.874	-0.029	-0.021
-630.522	56.137	0.147	-0.143
-629.507	-200.000	0.076	-0.424
-628.492	510.166	-0.106	0.247
-627.478	-31.982	0.194	-0.109
-626.463	127.161	-0.069	0.087
-625.449	800.000	0.079	-0.259
-624.434	71.710	-0.150	-0.156
-623.419	-76.636	0.151	0.053
-622.405	-31.548	-0.048	0.027
-621.390	121.062	0.126	0.157
-620.376	14.617	-0.138	-0.108
-619.361	-68.142	-0.023	-0.009
-618.346	-200.000	-0.113	0.000
-617.332	27.458	-0.062	-0.052
-616.317	-92.488	-0.488	0.137
-615.303	-77.739	-0.114	0.040
-614.288	352.667	0.221	0.438
-613.273	-98.151	-0.192	0.050
-612.259	66.075	-0.068	0.069
-611.244	-47.057	-0.381	-0.186
-610.230	-146.176	-0.328	-0.029
-609.215	-84.506	-0.295	-0.093
-608.201	-92.495	0.231	-0.065
-607.186	5.390	-0.223	-0.165
-606.171	-200.000	0.002	0.158
-605.157	800.000	-0.046	-0.201
-604.142	-87.241	0.331	0.101
-603.128	323.278	0.152	0.290
-602.113	9.409	0.250	0.190
-601.098	-45.867	-0.356	-0.176
-600.084	-165.663	-0.365	-0.016
-599.069	-17.599	-0.184	0.116
-598.055	130.162	-0.162	0.208
-597.040	800.000	0.148	0.532
-596.025	-154.060	0.332	0.023
-595.011	-200.000	0.004	0.264
-593.996	617.929	0.017	-0.042
-592.982	-200.000	0.024	-0.194
-591.967	-117.033	-0.075	-0.014
-590.952	92.893	0.291	0.329
-589.938	261.605	-0.057	-0.099
-588.923	451.032	0.116	0.256
-587.909	-70.858	-0.244	-0.092
-586.894	-200.000	0.068	-0.381
-585.879	-200.000	0.002	0.017
-584.865	538.932	0.020	-0.048
-583.850	143.554	0.151	-0.202
-582.836	29.795	-0.191	-0.163
-581.821	174.597	-0.073	-0.105
-580.806	-65.746	-0.019	0.007
-579.792	-64.927	0.134	-0.054
-578.777	311.635	0.105	-0.198
-577.763	-46.860	0.204	0.100
-576.748	-85.677	0.367	0.114
-575.733	197.926	-0.058	0.089
-574.719	800.000	-0.059	-0.240
-573.704	-102.476	-0.051	0.012
-572.690	-66.221	-0.458	0.182
-571.675	-200.000	0.045	-0.311
-570.661	-25.775	-0.059	-0.035
-569.646	69.819	-0.148	-0.153
-568.631	-6.218	-0.347	0.237
-567.617	-34.692	-0.055	0.030
-566.602	389.085	0.215	-0.446
-565.588	743.308	-0.106	-0.285
-564.573	27.284	0.130	0.110
-563.558	800.000	-0.033	0.109
-562.544	-200.000	-0.012	0.174
-561.529	650.993	-0.105	-0.270
-560.515	162.448	0.100	0.141
-559.500	-185.888	-0.272	0.004
-558.485	-180.510	-0.057	-0.001
-557.471	-200.000	0.093	-0.415
-556.456	100.154	0.152	-0.176
-555.442	9.071	-0.193	-0.146
-554.427	333.657	0.146	-0.283
-553.412	-200.000	0.017	-0.102
-552.398	-2.706	0.147	0.103
-551.383	427.572	-0.158	0.341
-550.369	-41.341	0.144	-0.074
-549.354	10.245	-0.150	0.114
-548.339	392.250	-0.100	0.208
-547.325	65.032	0.143	0.144
-546.310	-84.058	0.149	-0.047
-545.296	324.135	0.048	-0.091
-544.281	-200.000	-0.047	-0.318
-543.266	106.965	0.215	-0.255
-542.252	437.690	-0.152	-0.332
-541.237	27.248	0.282	-0.237
-540.223	-200.000	-0.028	-0.182
-539.208	800.000	-0.061	-0.235
-538.193	-78.958	0.221	0.075
-537.179	-94.278	-0.073	-0.020
-536.164	97.911	-0.187	-0.215
-535.150	-77.702	-0.368	-0.127
-534.135	-113.794	0.346	0.067
-533.121	-82.463	-0.027	0.009
-532.106	-50.300	0.234	-0.110
-531.091	800.000	0.053	0.223
-530.077	158.386	-0.147	-0.203
-529.062	-200.000	0.034	-0.155
-528.048	-91.399	-0.245	0.070
-527.033	-85.765	0.294	-0.091
-526.018	-11.681	0.325	-0.213
-525.004	-200.000	0.036	-0.229
-523.989	-46.376	-0.223	0.109
-522.975	282.045	-0.187	0.334
-521.960	-200.000	-0.042	-0.328
-520.945	-81.140	0.192	-0.063
-519.931	-31.007	-0.142	-0.080
-518.916	-51.475	-0.189	0.088
-517.902	19.126	-0.153	0.123
-516.887	64.717	-0.243	-0.245
-515.872	-156.543	0.301	0.019
-514.858	380.796	0.088	-0.181
-513.843	83.191	-0.127	-0.138
-512.829	195.697	0.184	0.279
-511.814	-153.103	0.182	0.013
-510.799	217.670	-0.020	0.032
-509.785	-86.274	0.151	0.046
-508.770	-200.000	0.025	-0.154
-507.756	483.591	0.081	-0.183
-506.741	61.441	-0.156	0.154
-505.726	204.328	0.221	-0.341
-504.712	-142.276	-0.216	-0.021
-503.697	800.000	0.068	0.193
-502.683	99.787	0.085	-0.099
-501.668	113.816	0.070	0.085
-500.653	800.000	0.024	-0.089
-499.639	-52.318	0.170	-0.078
-498.624	-200.000	0.027	-0.216
-497.610	-200.000	-0.016	-0.340
-496.595	-22.711	0.361	0.217
-495.581	-200.000	0.038	-0.216
-494.566	445.506	0.079	0.174
-493.551	-200.000	0.035	0.190
-492.537	53.558	0.096	0.092
-491.522	-112.722	0.344	0.068
-490.508	-56.849	0.016	0.007
-489.493	-55.792	-0.318	0.142
-488.478	336.851	0.283	0.547
-487.464	-60.616	0.267	0.113
-486.449	189.639	0.161	0.240
-485.435	228.622	-0.077	0.126
-484.420	-46.945	0.130	-0.063
-483.405	-24.040	0.339	0.202
-482.391	-21.421	-0.333	-0.203
-481.376	-200.000	-0.054	0.345
-480.362	41.898	0.185	0.167
-479.347	246.813	-0.075	-0.127
-478.332	571.145	0.062	0.150
-477.318	-200.000	0.186	-0.001
-476.303	-43.502	0.172	-0.086
-475.289	800.000	0.032	-0.090
-474.274	66.144	0.118	0.119
-473.259	-119.767	-0.175	-0.030
-472.245	-73.022	-0.272	-0.100
-471.230	197.493	0.119	0.181
-470.216	-156.781	0.403	-0.025
-469.201	118.872	0.153	-0.189
-468.186	57.542	-0.094	-0.092
-467.172	-59.748	0.078	0.033
-466.157	800.000	-0.037	0.132
-465.143	678.599	-0.137	0.355
-464.128	400.676	0.063	-0.132
-463.113	60.409	0.125	-0.124
-462.099	-53.613	0.284	0.129
-461.084	-42.076	-0.234	0.119
-460.070	-14.548	-0.161	0.103
-459.055	-47.803	0.066	0.032
-458.040	39.269	-0.150	0.134
-457.026	182.502	0.032	0.047
-456.011	-200.000	-0.010	0.213
-454.997	-112.011	-0.224	0.045
-453.982	81.701	-0.064	0.069
-452.968	800.000	-0.073	0.233
-451.953	-173.310	0.219	-0.007
-450.938	185.785	-0.134	-0.198
-449.924	469.806	0.095	-0.212
-448.909	106.217	-0.110	0.130
-447.895	786.367	0.010	0.026
-446.880	-185.585	-0.198	0.003
-445.865	559.066	-0.087	-0.209
-444.851	-25.950	-0.087	-0.051
-443.836	26.709	-0.177	0.147
-442.822	-200.000	0.029	-0.197
-441.807	11.710	0.184	0.140
-440.792	52.693	0.311	-0.295
-439.778	-107.062	-0.027	0.006
-438.763	-20.297	0.269	0.165
-437.749	-180.152	0.242	0.005
-436.734	-200.000	0.016	0.197
-435.719	800.000	-0.097	-0.276
-434.705	-200.000	0.016	0.106
-433.690	-165.188	-0.299	-0.013
-432.676	-68.061	-0.304	0.118
-431.661	58.660	-0.073	0.072
-430.646	800.000	-0.177	0.490
-429.632	-19.987	-0.216	0.132
-428.617	-100.800	-0.241	0.059
-427.603	-109.595	0.221	-0.046
-426.588	14.172	0.217	-0.168
-425.573	800.000	-0.122	-0.404
-424.559	-45.283	-0.226	-0.111
-423.544	109.494	-0.113	-0.134
-422.530	187.125	-0.308	-0.456
-421.515	-123.567	-0.278	-0.044
-420.500	-84.534	0.158	0.050
-419.486	-53.802	0.276	0.125
-418.471	368.995	-0.115	-0.231
-417.457	-113.858	-0.085	0.017
-416.442	-53.232	-0.247	-0.113
-415.428	20.070	0.150	0.121
-414.413	11.045	0.290	-0.220
-413.398	136.915	-0.239	0.310
-412.384	233.940	0.152	-0.249
-411.369	-200.000	0.007	-0.212
-410.355	55.848	-0.278	-0.268
-409.340	-52.998	-0.134	-0.061
-408.325	-183.099	0.159	-0.003
-407.311	70.143	0.031	-0.032
-406.296	-51.583	-0.123	-0.057
-405.282	-62.708	-0.284	0.117
-404.267	18.207	-0.172	0.137
-403.252	114.795	-0.014	-0.017
-402.238	192.942	0.121	-0.181
-401.223	-116.132	0.156	-0.029
-400.209	-148.884	-0.445	-0.036
-399.194	-200.000	-0.037	-0.207
-398.179	800.000	-0.045	0.177
-397.165	83.054	-0.314	-0.340
-396.150	-147.606	-0.328	-0.027
-395.136	-12.998	0.263	-0.170
-394.121	183.796	0.097	0.143
-393.106	800.000	0.045	0.130
-392.092	-132.148	-0.695	-0.090
-391.077	501.810	0.136	0.312
-390.063	-42.180	0.304	0.154
-389.048	481.445	0.092	0.207
-388.033	-50.362	-0.311	0.146
-387.019	219.669	0.088	0.139
-386.004	746.042	0.042	0.111
-384.990	-200.000	-0.036	-0.437
-383.975	81.125	-0.105	-0.112
-382.960	-64.165	0.011	0.004
-381.946	-200.000	0.029	-0.146
-380.931	-200.000	0.002	-0.044
-379.917	-200.000	-0.015	-0.101
-378.902	-24.595	-0.104	-0.061
-377.888	-145.805	-0.302	0.027
-376.873	3.793	-0.194	0.141
-375.858	-101.129	-0.178	0.043
-374.844	-71.056	-0.170	-0.064
-373.829	-106.504	-0.101	0.022
-372.815	24.908	0.086	0.071
-371.800	-32.891	0.359	-0.198
-370.785	-17.128	0.067	-0.042
-369.771	19.185	-0.189	0.151
-368.756	-141.316	0.253	-0.025
-367.742	-200.000	0.031	-0.144
-366.727	-200.000	-0.012	0.286
-365.712	-20.763	-0.292	0.178
-364.698	-139.053	0.146	-0.016
-363.683	-128.429	0.218	-0.031
-362.669	59.730	-0.207	0.202
-361.654	-123.254	0.378	-0.060
-360.639	-68.781	-0.064	-0.024
-359.625	-20.111	-0.166	0.101
-358.610	-41.685	-0.395	0.201
-357.596	-200.000	0.059	0.265
-356.581	105.475	0.060	0.071
-355.566	-200.000	-0.029	0.254
-354.552	-72.479	-0.109	0.040
-353.537	440.519	-0.020	0.044
-352.523	-200.000	-0.003	-0.042
-351.508	138.883	-0.108	-0.141
-350.493	-54.348	-0.120	-0.054
-349.479	755.835	0.041	0.110
-348.464	-200.000	-0.002	0.220
-347.450	545.277	0.037	0.088
-346.435	800.000	0.074	0.233
-345.420	-33.461	0.084	0.046
-344.406	800.000	0.131	0.446
-343.391	31.743	0.150	0.128
-342.377	160.768	0.016	-0.022
-341.362	26.241	0.231	0.191
-340.348	-200.000	-0.001	-0.022
-339.333	-116.214	-0.417	-0.077
-338.318	391.382	0.045	0.093
-337.304	2.678	-0.109	0.078
-336.289	-137.248	-0.092	-0.010
-335.275	-200.000	-0.021	0.207
-334.260	800.000	0.052	-0.149
-333.245	800.000	0.072	-0.263
-332.231	-131.833	0.079	-0.010
-331.216	93.316	-0.201	-0.225
-330.202	-104.998	-0.032	-0.007
-329.187	-200.000	-0.006	0.273
-328.172	-200.000	0.011	0.073
-327.158	-112.187	-0.069	0.014
-326.143	48.630	0.174	0.162
-325.129	-55.301	0.158	-0.070
-324.114	-47.590	-0.094	0.045
-323.099	-200.000	-0.000	0.115
-322.085	-5.186	-0.090	0.062
-321.070	43.429	-0.121	-0.109
-320.056	-144.789	0.226	0.021
-319.041	-140.253	0.105	0.011
-318.026	-200.000	0.022	-0.121
-317.012	229.228	0.071	0.115
-315.997	520.776	0.057	-0.133
-314.983	34.365	-0.271	-0.234
-313.968	-200.000	0.036	-0.239
-312.953	568.245	-0.050	-0.120
-311.939	-102.577	-0.084	0.020
-310.924	561.113	-0.161	0.385
-309.910	449.206	0.163	-0.355
-308.895	-200.000	-0.014	0.087
-307.880	444.558	-0.167	0.362
-306.866	17.963	-0.078	-0.062
-305.851	137.255	0.066	0.086
-304.837	-200.000	-0.044	0.378
-303.822	-150.090	-0.084	-0.006
-302.807	-9.558	0.204	0.135
-301.793	-144.371	-0.079	0.007
-300.778	-200.000	-0.001	-0.260
-299.764	31.651	-0.328	-0.279
-298.749	-64.355	-0.274	-0.110
-297.735	800.000	0.010	-0.041
-296.720	-200.000	-0.029	0.250
-295.705	65.031	-0.246	-0.246
-294.691	230.110	-0.071	0.115
-293.676	-21.791	0.115	-0.069
-292.662	54.210	-0.142	0.135
-291.647	800.000	0.123	0.425
-290.632	-81.499	0.208	-0.068
-289.618	800.000	-0.033	-0.107
-288.603	-118.495	0.430	0.075
-287.589	-200.000	-0.000	0.112
-286.574	301.203	0.115	0.210
-285.559	114.012	-0.174	-0.209
-284.545	-153.591	-0.106	-0.007
-283.530	-200.000	-0.227	-0.000
-282.516	-200.000	0.005	0.264
-281.501	-71.882	-0.195	-0.072
-280.486	451.218	-0.055	-0.121
-279.472	769.019	-0.059	0.159
-278.457	800.000	-0.075	0.287
-277.443	-4.441	-0.197	-0.135
-276.428	33.410	-0.074	0.064
-275.413	414.674	0.125	0.263
-274.399	-200.000	-0.034	0.166
-273.384	162.288	0.079	0.109
-272.370	-49.372	0.080	0.038
-271.355	8.404	0.148	0.110
-270.340	-76.122	-0.068	-0.024
-269.326	-146.993	0.289	0.025
-268.311	-47.343	-0.359	0.172
-267.297	-200.000	-0.002	0.077
-266.282	-200.000	-0.019	-0.164
-265.267	-200.000	-0.027	-0.199
-264.253	467.388	-0.056	-0.123
-263.238	-200.000	0.003	-0.077
-262.224	-102.117	0.185	-0.044
-261.209	800.000	0.026	0.099
-260.195	83.672	0.249	-0.268
-259.180	270.973	-0.115	-0.200
-258.165	-52.213	-0.125	0.057
-257.151	-58.853	0.244	0.104
-256.136	27.149	0.099	-0.082
-255.122	117.702	0.153	0.186
-254.107	110.983	-0.333	0.396
-253.092	153.346	0.069	-0.093
-252.078	73.642	0.078	0.080
-251.063	100.384	-0.409	-0.468
-250.049	-200.000	-0.001	0.099
-249.034	53.151	0.086	-0.082
-248.019	-113.386	0.131	-0.025
-247.005	29.707	-0.278	-0.234
-245.990	21.839	0.287	0.231
-244.976	-200.000	0.058	0.332
-243.961	-200.000	-0.008	0.354
-242.946	288.273	-0.133	0.237
-241.932	-103.915	-0.107	-0.025
-240.917	-41.252	-0.080	-0.041
-239.903	-75.668	0.249	-0.087
-238.888	287.275	0.174	0.310
-237.873	246.135	0.083	0.138
-236.859	-58.838	0.337	0.144
-235.844	465.662	-0.112	-0.248
-234.830	-43.250	0.299	-0.149
-233.815	39.390	0.354	0.313
-232.800	245.302	0.062	0.103
-231.786	-26.938	0.182	-0.105
-230.771	153.818	-0.155	-0.210
-229.757	-77.248	0.390	0.134
-228.742	-43.165	-0.100	-0.050
-227.727	-18.135	0.177	0.109
-226.713	630.859	0.100	0.251
-225.698	800.000	-0.057	-0.173
-224.684	-200.000	-0.114	-0.508
-223.669	-200.000	-0.012	-0.101
-222.655	57.402	0.073	0.070
-221.640	202.519	0.242	-0.369
-220.625	146.779	0.083	0.110
-219.611	-200.000	-0.017	-0.123
-218.596	-169.601	0.204	0.007
-217.582	715.496	0.104	0.273
-216.567	800.000	0.029	-0.094
-215.552	-156.988	0.175	0.011
-214.538	-79.564	0.409	-0.136
-213.523	223.685	0.078	0.124
-212.509	-44.161	0.328	-0.162
-211.494	-3.438	0.105	-0.072
-210.479	788.348	-0.092	0.248
-209.465	-119.554	-0.117	0.020
-208.450	105.339	0.165	-0.193
-207.436	159.520	0.146	-0.201
-206.421	-200.000	-0.028	-0.293
-205.406	134.223	0.271	0.346
-204.392	-200.000	-0.023	-0.270
-203.377	416.964	0.070	-0.146
-202.363	80.079	-0.176	-0.186
-201.348	167.111	-0.035	0.048
-200.333	6.760	0.135	0.099
-199.319	362.218	0.167	-0.330
-198.304	-200.000	-0.050	0.405
-197.290	800.000	0.052	-0.181
-196.275	-121.248	-0.066	-0.011
-195.260	529.023	-0.049	0.113
-194.246	-121.225	-0.246	-0.041
-193.231	-200.000	-0.010	-0.327
-192.217	67.103	-0.207	-0.208
-191.202	-200.000	0.071	-0.317
-190.187	-100.757	0.230	0.056
-189.173	736.648	0.054	-0.142
-188.158	-200.000	0.034	0.214
-187.144	7.455	-0.259	0.191
-186.129	546.205	-0.104	0.244
-185.114	-63.990	0.208	0.084
-184.100	137.204	0.175	0.225
-183.085	246.060	0.017	0.028
-182.071	679.868	0.088	0.226
-181.056	-200.000	0.000	0.240
-180.042	-74.329	0.121	-0.043
-179.027	-200.000	-0.040	0.251
-178.012	-200.000	0.014	-0.116
-176.998	-147.167	-0.300	-0.025
-175.983	74.802	-0.146	-0.151
-174.969	800.000	-0.063	0.196
-173.954	539.944	0.054	-0.126
-172.939	-125.978	-0.232	0.034
-171.925	-200.000	0.001	-0.012
-170.910	-4.045	-0.095	0.065
-169.896	16.252	0.513	0.399
-168.881	-200.000	-0.062	-0.276
-167.866	-118.109	-0.242	-0.043
-166.852	-200.000	-0.008	0.100
-165.837	150.788	-0.271	-0.362
-164.823	-200.000	-0.049	-0.519
-163.808	155.591	0.097	0.132
-162.793	35.396	0.040	0.035
-161.779	110.108	-0.235	0.278
-160.764	47.067	0.105	0.096
-159.750	-180.184	0.338	0.007
-158.735	-143.588	0.281	0.026
-157.720	13.839	0.262	-0.201
-156.706	65.203	0.108	0.108
-155.691	-128.915	-0.339	-0.047
-154.677	-200.000	0.008	-0.040
-153.662	-46.026	0.439	-0.213
-152.647	132.700	-0.260	-0.330
-151.633	17.776	0.330	-0.258
-150.618	216.035	0.032	0.050
-149.604	-88.362	-0.112	-0.033
-148.589	-77.886	0.268	0.091
-147.574	-66.752	0.187	0.073
-146.560	-200.000	-0.023	0.179
-145.545	226.607	0.144	0.230
-144.531	-171.580	0.306	0.010
-143.516	3.937	0.238	-0.171
-142.502	476.994	-0.040	-0.088
-141.487	-82.581	-0.109	0.035
-140.472	-50.848	0.148	-0.068
-139.458	-129.903	-0.159	0.021
-138.443	104.961	0.118	0.137
-137.429	97.660	0.062	-0.070
-136.414	800.000	-0.102	-0.379
-135.399	144.837	-0.122	0.160
-134.385	800.000	0.079	0.306
-133.370	300.153	-0.012	-0.023
-132.356	287.844	0.123	0.219
-131.341	-108.194	0.304	-0.065
-130.326	377.975	0.047	0.095
-129.312	-164.637	-0.046	-0.002
-128.297	-110.700	0.260	-0.053
-127.283	109.236	-0.269	0.316
-126.268	78.924	0.205	-0.216
-125.253	139.001	0.163	0.210
-124.239	137.124	0.187	0.240
-123.224	800.000	-0.110	0.302
-122.210	90.067	0.152	-0.167
-121.195	362.660	-0.096	-0.190
-120.180	-100.596	-0.141	0.034
-119.166	-200.000	-0.078	0.355
-118.151	176.441	0.239	0.341
-117.137	-14.697	-0.191	-0.121
-116.122	-60.039	-0.220	0.092
-115.107	-200.000	0.020	-0.093
-114.093	33.126	-0.163	-0.139
-113.078	-105.186	0.324	-0.073
-112.064	-80.058	0.105	-0.035
-111.049	-200.000	0.052	-0.320
-110.034	175.167	0.151	-0.215
-109.020	-200.000	0.025	0.175
-108.005	-92.334	0.079	-0.022
-106.991	-70.406	0.223	-0.083
-105.976	-180.143	0.058	0.001
-104.962	156.761	-0.080	0.109
-103.947	-151.082	-0.279	-0.021
-102.932	-109.657	0.440	0.091
-101.918	188.375	-0.242	0.355
-100.903	-170.383	0.141	-0.005
-99.889	-50.923	0.229	0.106
-98.874	34.999	0.193	-0.166
-97.859	50.526	0.129	-0.120
-96.845	-32.244	0.183	0.100
-95.830	-119.074	0.198	0.034
-94.816	-134.198	-0.192	-0.023
-93.801	29.343	0.161	0.135
-92.786	142.413	0.139	-0.181
-91.772	91.578	0.229	0.252
-90.757	-87.825	0.175	0.052
-89.743	311.543	-0.083	-0.153
-88.728	112.952	-0.194	-0.231
-87.713	-169.841	-0.169	0.006
-86.699	800.000	-0.034	0.143
-85.684	800.000	-0.053	0.222
-84.670	-76.097	0.234	0.081
-83.655	614.592	0.027	-0.065
-82.640	2.699	0.101	0.072
-81.626	603.050	-0.110	0.269
-80.611	57.469	0.388	0.372
-79.597	81.270	-0.178	-0.188
-78.582	-2.657	0.099	-0.068
-77.567	124.543	0.071	-0.087
-76.553	-200.000	0.037	-0.196
-75.538	-110.496	0.303	-0.062
-74.524	414.094	-0.067	-0.139
-73.509	-169.728	-0.385	-0.014
-72.494	-90.107	-0.117	-0.033
-71.480	-121.200	-0.023	0.004
-70.465	-200.000	0.004	-0.112
-69.451	11.748	-0.016	0.012
-68.436	-2.101	-0.277	-0.191
-67.422	-200.000	-0.018	-0.126
-66.407	-200.000	0.005	0.123
-65.392	216.249	-0.218	0.339
-64.378	-108.568	-0.290	0.061
-63.363	800.000	0.073	0.298
-62.349	-21.542	0.191	0.114
-61.334	65.542	-0.871	-0.865
-60.319	366.656	0.288	0.570
-59.305	478.598	-0.420	-0.933
-58.290	298.024	0.683	1.231
-57.276	184.747	0.923	1.341
-56.261	-200.000	97.768	600.921
-55.246	613.515	1403.478	3443.983
-54.232	191.263	2603.703	3840.988
-53.217	111.768	2277.125	2693.929
-52.203	41.613	1896.070	1682.874
-51.188	35.375	1685.163	1448.698
-50.173	32.618	1641.122	1390.472
-49.159	49.953	1689.169	1561.318
-48.144	51.683	1705.308	1589.115
-47.130	34.950	1665.053	1428.011
-46.115	32.109	1650.856	1394.714
-45.100	32.011	1645.859	1389.714
-44.086	31.971	1642.527	1386.551
-43.071	31.984	1640.171	1384.599
-42.057	31.893	1638.124	1382.150
-41.042	31.900	1636.455	1380.735
-40.027	31.896	1634.338	1378.868
-39.013	31.890	1632.311	1377.059
-37.998	31.884	1630.461	1375.397
-36.984	31.866	1629.933	1374.764
-35.969	32.029	1628.110	1374.371
-34.954	32.081	1626.418	1373.266
-33.940	32.001	1624.692	1371.169
-32.925	32.137	1622.408	1370.180
-31.911	32.043	1621.118	1368.347
-30.896	31.986	1619.258	1366.307
-29.881	32.004	1617.591	1364.983
-28.867	32.014	1615.917	1363.588
-27.852	32.010	1614.449	1362.264
-26.838	32.087	1612.586	1361.199
-25.823	31.990	1611.804	1359.778
-24.809	32.087	1610.261	1359.128
-23.794	31.983	1609.440	1357.629
-22.779	32.160	1606.988	1356.785
-21.765	32.100	1605.542	1355.075
-20.750	32.050	1604.226	1353.553
-19.736	32.045	1602.922	1352.363
-18.721	31.999	1602.057	1351.246
-17.706	32.103	1599.760	1350.003
-16.692	32.188	1597.816	1348.921
-15.677	32.057	1596.823	1347.085
-14.663	32.045	1595.720	1346.020
-13.648	32.064	1594.636	1345.185
-12.633	32.098	1592.948	1343.951
-11.619	32.086	1591.380	1342.491
-10.604	32.108	1589.883	1341.330
-9.590	32.124	1588.398	1340.139
-8.575	32.054	1587.398	1338.746
-7.560	32.208	1585.699	1338.351
-6.546	32.160	1585.032	1337.394
-5.531	32.096	1584.013	1336.029
-4.517	32.159	1582.322	1334.993
-3.502	32.116	1581.621	1334.048
-2.487	32.187	1579.549	1332.750
-1.473	31.767	1567.828	1319.850
-0.458	28.943	1548.515	1283.861
0.556	23.023	1548.370	1250.885
1.571	20.636	1571.393	1252.214
2.586	20.161	1585.488	1259.883
3.600	18.399	1533.288	1205.903
4.615	9.877	1423.703	1063.687
5.629	1.557	1357.478	961.670
6.644	-0.222	1349.486	944.732
7.659	-0.315	1348.199	943.162
8.673	-0.407	1347.242	941.831
9.688	-0.315	1344.777	940.607
10.702	-0.643	1342.463	936.853
11.717	2.837	1348.599	962.903
12.731	12.112	1366.558	1034.375
13.746	18.766	1377.086	1084.414
14.761	19.764	1377.287	1090.773
15.775	19.802	1377.422	1091.026
16.790	19.800	1376.923	1090.520
17.804	19.926	1375.851	1090.369
18.819	20.044	1375.705	1090.896
19.834	20.176	1375.063	1091.123
20.848	20.137	1374.728	1090.517
21.863	20.271	1372.993	1089.881
22.877	20.216	1372.241	1088.842
23.892	20.183	1371.861	1088.242
24.907	20.251	1370.599	1087.566
25.921	20.213	1370.098	1086.834
26.936	20.212	1368.685	1085.613
27.950	20.200	1368.006	1084.907
28.965	20.159	1366.927	1083.695
29.980	20.251	1365.004	1082.652
30.994	20.105	1364.589	1081.314
32.009	20.196	1363.405	1080.849
33.023	20.188	1362.081	1079.651
34.038	20.346	1360.308	1079.134
35.053	20.301	1359.363	1078.006
36.067	20.163	1358.759	1076.575
37.082	20.155	1357.835	1075.699
38.096	20.183	1357.178	1075.260
39.111	20.258	1355.748	1074.494
40.126	20.235	1355.322	1073.921
41.140	20.303	1354.264	1073.406
42.155	20.210	1354.600	1073.001
43.169	20.234	1354.648	1073.098
44.184	20.263	1354.078	1072.730
45.199	20.195	1353.745	1071.949
46.213	20.262	1353.108	1071.764
47.228	20.141	1352.548	1070.476
48.242	20.138	1351.170	1069.276
49.257	20.317	1349.389	1068.871
50.271	20.184	1348.248	1067.057
51.286	20.184	1347.420	1066.308
52.301	20.186	1345.734	1064.890
53.315	20.194	1345.125	1064.362
54.330	20.199	1344.218	1063.581
55.344	20.275	1342.518	1062.606
56.359	20.237	1342.110	1061.961
57.374	20.155	1341.297	1060.720
58.388	20.204	1340.576	1060.357
59.403	20.127	1340.153	1059.458
60.417	20.131	1339.618	1058.963
61.432	20.135	1338.178	1057.754
62.447	20.272	1337.172	1057.701
63.461	20.178	1336.423	1056.447
64.476	20.276	1335.513	1056.226
65.490	20.143	1334.702	1054.686
66.505	20.195	1332.588	1053.234
67.520	20.198	1331.196	1052.063
68.534	20.143	1330.607	1051.169
69.549	20.302	1329.043	1050.805
70.563	20.195	1328.780	1049.857
71.578	20.223	1327.702	1049.078
72.593	20.316	1326.221	1048.378
73.607	20.234	1325.910	1047.545
74.622	20.270	1324.796	1046.789
75.636	20.213	1324.267	1045.931
76.651	20.139	1324.213	1045.354
77.666	20.249	1322.717	1044.739
78.680	20.267	1322.472	1044.566
79.695	20.321	1321.353	1043.911
80.709	20.197	1321.068	1042.849
81.724	20.270	1319.815	1042.209
82.739	20.269	1319.219	1041.637
83.753	20.245	1318.233	1040.624
84.768	20.212	1317.215	1039.529
85.782	20.217	1315.904	1038.432
86.797	20.208	1315.010	1037.579
87.812	20.279	1313.482	1036.707
88.826	20.268	1312.596	1035.851
89.841	20.248	1311.334	1034.645
90.855	20.341	1310.293	1034.286
91.870	20.215	1309.897	1033.132
92.884	20.311	1308.474	1032.489
93.899	20.410	1308.046	1032.649
94.914	20.325	1306.912	1031.155
95.928	20.396	1306.080	1030.828
96.943	20.313	1305.293	1029.628
97.957	20.238	1305.116	1028.951
98.972	20.333	1303.669	1028.279
99.987	20.351	1302.516	1027.385
101.001	20.325	1301.590	1026.413
102.016	20.257	1300.678	1025.198
103.030	20.192	1300.211	1024.359
104.045	20.292	1298.947	1023.863
105.060	20.339	1297.937	1023.250
106.074	20.324	1296.673	1022.076
107.089	20.302	1296.201	1021.482
108.103	20.310	1294.844	1020.374
109.118	20.331	1293.473	1019.326
110.133	20.301	1292.748	1018.487
111.147	20.487	1290.960	1018.076
112.162	20.356	1289.759	1016.275
113.176	20.353	1288.377	1015.076
114.191	20.347	1287.547	1014.297
115.206	20.409	1286.507	1013.750
116.220	20.346	1285.383	1012.410
117.235	20.365	1284.659	1011.859
118.249	20.318	1283.250	1010.384
119.264	20.374	1282.232	1009.821
120.279	20.496	1281.506	1009.869
121.293	20.466	1280.747	1009.009
122.308	20.378	1280.234	1008.006
123.322	20.489	1278.458	1007.157
124.337	20.440	1278.119	1006.517
125.352	20.410	1277.052	1005.414
126.366	20.407	1276.194	1004.636
127.381	20.380	1275.327	1003.706
128.395	20.473	1274.414	1003.434
129.410	20.451	1273.338	1002.373
130.424	20.369	1272.566	1001.203
131.439	20.380	1271.558	1000.388
132.454	20.397	1270.582	999.626
133.468	20.392	1269.938	999.002
134.483	20.471	1269.412	998.958
135.497	20.373	1268.779	997.805
136.512	20.457	1267.386	997.104
137.527	20.287	1266.201	995.109
138.541	20.306	1264.688	993.939
139.556	20.352	1263.102	992.868
140.570	20.407	1262.421	992.560
141.585	20.384	1261.462	991.587
142.600	20.360	1260.316	990.465
143.614	20.553	1258.607	990.131
144.629	20.326	1258.274	988.491
145.643	20.416	1256.891	987.828
146.658	20.237	1256.155	986.143
147.673	20.264	1255.490	985.686
148.687	20.399	1254.019	985.210
149.702	20.305	1253.140	983.899
150.716	20.217	1252.455	982.778
151.731	20.473	1250.762	982.813
152.746	20.382	1249.837	981.482
153.760	20.365	1248.674	980.385
154.775	20.474	1247.754	980.194
155.789	20.480	1246.902	979.470
156.804	20.360	1246.087	978.066
157.819	20.479	1244.932	977.741
158.833	20.463	1244.033	976.861
159.848	20.504	1243.500	976.584
160.862	20.422	1242.457	975.218
161.877	20.482	1241.502	974.721
162.892	20.493	1240.640	974.020
163.906	20.481	1240.080	973.430
164.921	20.536	1239.501	973.192
165.935	20.486	1238.415	971.976
166.950	20.401	1238.121	971.187
167.964	20.480	1237.294	970.889
168.979	20.543	1236.930	970.873
169.994	20.517	1236.012	969.922
171.008	20.558	1235.561	969.708
172.023	20.560	1234.622	968.898
173.037	20.608	1233.844	968.468
174.052	20.618	1233.200	967.930
175.067	20.566	1232.349	966.889
176.081	20.557	1231.546	966.124
177.096	20.574	1230.651	965.432
178.110	20.608	1229.960	964.994
179.125	20.591	1228.823	963.921
180.140	20.562	1228.024	963.047
181.154	20.579	1226.617	961.952
182.169	20.479	1225.501	960.441
183.183	20.536	1224.667	960.014
184.198	20.609	1223.600	959.500
185.213	20.555	1222.573	958.312
186.227	20.641	1221.861	958.141
187.242	20.595	1220.759	956.940
188.256	20.674	1219.789	956.526
189.271	20.695	1219.293	956.172
190.286	20.637	1218.649	955.259
191.300	20.533	1218.325	954.351
192.315	20.569	1217.865	954.103
193.329	20.607	1217.157	953.672
194.344	20.741	1216.473	953.786
195.359	20.556	1216.429	952.657
196.373	20.577	1215.770	952.168
197.388	20.448	1215.449	951.127
198.402	20.598	1214.841	951.387
199.417	20.570	1214.372	950.785
200.432	20.620	1214.018	950.694
201.446	20.530	1213.520	949.728
202.461	20.563	1212.282	948.858
203.475	20.760	1211.111	948.931
204.490	20.643	1210.303	947.574
205.504	20.645	1209.468	946.849
206.519	20.689	1208.345	946.127
207.534	20.634	1207.579	945.146
208.548	20.684	1206.778	944.705
209.563	20.592	1205.936	943.466
210.577	20.656	1205.013	943.006
211.592	20.700	1204.269	942.575
212.607	20.781	1203.493	942.326
213.621	20.793	1202.764	941.738
214.636	20.807	1201.917	941.067
215.650	20.817	1200.943	940.275
216.665	20.841	1199.862	939.473
217.680	20.636	1199.337	937.871
218.694	20.699	1198.732	937.656
219.709	20.727	1197.734	936.941
220.723	20.701	1197.189	936.294
221.738	20.767	1196.354	935.911
222.753	20.678	1195.396	934.601
223.767	20.786	1194.995	934.785
224.782	20.864	1194.366	934.628
225.796	20.912	1193.872	934.419
226.811	20.803	1193.555	933.501
227.826	20.918	1192.690	933.360
228.840	20.875	1192.080	932.569
229.855	20.766	1191.420	931.389
230.869	20.929	1190.728	931.639
231.884	20.815	1190.051	930.413
232.899	20.899	1189.301	930.195
233.913	20.941	1188.438	929.663
234.928	20.979	1188.138	929.547
235.942	20.972	1187.922	929.257
236.957	20.852	1187.135	927.920
237.972	20.846	1186.313	927.166
238.986	20.906	1185.679	926.906
240.001	20.854	1185.566	926.460
241.015	21.030	1184.069	926.141
242.030	20.993	1183.378	925.324
243.045	20.921	1182.544	924.207
244.059	21.009	1181.978	924.151
245.074	20.998	1181.402	923.559
246.088	20.986	1180.136	922.424
247.103	21.108	1179.510	922.501
248.117	20.963	1179.010	921.260
249.132	21.096	1178.312	921.336
250.147	21.052	1177.279	920.214
251.161	21.069	1176.715	919.781
252.176	21.067	1176.367	919.419
253.190	21.087	1175.196	918.526
254.205	21.113	1174.953	918.393
255.220	20.997	1174.229	917.136
256.234	21.076	1173.556	916.942
257.249	21.139	1172.663	916.497
258.263	21.130	1172.121	915.946
259.278	21.067	1171.935	915.384
260.293	21.176	1170.984	915.135
261.307	21.171	1170.887	914.953
262.322	21.127	1170.325	914.200
263.336	21.209	1169.212	913.680
264.351	21.116	1169.078	913.009
265.366	21.116	1168.347	912.356
266.380	21.244	1167.287	912.115
267.395	21.200	1167.173	911.716
268.409	21.108	1166.353	910.516
269.424	21.085	1165.885	909.948
270.439	21.203	1165.506	910.189
271.453	21.171	1164.695	909.308
272.468	21.071	1164.196	908.314
273.482	21.087	1163.389	907.692
274.497	21.317	1162.654	908.233
275.512	21.243	1161.743	907.058
276.526	21.244	1161.548	906.827
277.541	21.324	1160.596	906.417
278.555	21.193	1160.332	905.455
279.570	21.264	1159.247	904.894
280.585	21.265	1158.778	904.453
281.599	21.161	1158.030	903.253
282.614	21.236	1157.054	902.799
283.628	21.306	1156.193	902.405
284.643	21.213	1155.231	901.099
285.657	21.220	1154.339	900.356
286.672	21.246	1153.698	899.913
287.687	21.287	1152.704	899.267
288.701	21.251	1152.442	898.800
289.716	21.396	1151.274	898.554
290.730	21.201	1151.204	897.417
291.745	21.363	1150.487	897.610
292.760	21.507	1149.422	897.440
293.774	21.421	1149.045	896.625
294.789	21.447	1148.442	896.208
295.803	21.443	1147.839	895.635
296.818	21.413	1147.295	894.981
297.833	21.462	1146.399	894.455
298.847	21.473	1145.727	893.905
299.862	21.467	1145.010	893.237
300.876	21.410	1144.518	892.481
301.891	21.616	1143.500	892.658
302.906	21.575	1143.208	892.146
303.920	21.502	1142.486	891.131
304.935	21.464	1142.036	890.509
305.949	21.546	1141.242	890.227
306.964	21.553	1140.734	889.787
307.979	21.523	1140.168	889.116
308.993	21.587	1139.287	888.672
310.008	21.513	1138.504	887.610
311.022	21.550	1138.066	887.378
312.037	21.698	1137.048	887.254
313.052	21.678	1136.251	886.454
314.066	21.629	1135.737	885.724
315.081	21.499	1135.007	884.417
316.095	21.546	1134.117	883.884
317.110	21.661	1133.399	883.826
318.125	21.708	1132.607	883.368
319.139	21.657	1132.081	882.626
320.154	21.656	1131.654	882.206
321.168	21.593	1131.411	881.623
322.183	21.612	1130.789	881.154
323.197	21.618	1129.997	880.489
324.212	21.614	1129.382	879.916
325.227	21.643	1128.987	879.674
326.241	21.683	1128.423	879.356
327.256	21.716	1127.560	878.773
328.270	21.600	1127.135	877.783
329.285	21.851	1125.727	877.862
330.300	21.784	1124.934	876.835
331.314	21.651	1124.539	875.782
332.329	21.732	1123.719	875.469
333.343	21.823	1122.628	874.998
334.358	21.910	1121.445	874.432
335.373	21.826	1121.291	873.814
336.387	21.860	1120.634	873.397
337.402	21.731	1120.195	872.335
338.416	21.785	1119.545	872.019
339.431	21.903	1118.691	871.861
340.446	21.908	1118.040	871.305
341.460	21.926	1117.435	870.847
342.475	21.884	1116.208	869.603
343.489	21.903	1115.282	868.900
344.504	21.899	1114.592	868.267
345.519	21.943	1114.107	868.027
346.533	22.008	1113.242	867.596
347.548	21.935	1112.255	866.390
348.562	21.898	1111.909	865.862
349.577	22.003	1111.381	865.894
350.592	21.910	1110.550	864.709
351.606	21.865	1109.757	863.794
352.621	21.999	1109.553	864.217
353.635	22.034	1108.711	863.657
354.650	22.063	1107.921	863.109
355.665	22.086	1107.131	862.529
356.679	22.120	1106.658	862.253
357.694	21.844	1106.317	860.560
358.708	22.090	1105.226	860.838
359.723	22.017	1105.224	860.405
360.738	22.019	1104.033	859.409
361.752	22.059	1103.946	859.462
362.767	22.132	1102.916	858.938
363.781	22.189	1102.808	859.056
364.796	22.128	1101.812	857.911
365.810	22.088	1101.278	857.221
366.825	22.133	1100.508	856.765
367.840	22.221	1100.528	857.135
368.854	22.323	1099.638	856.863
369.869	22.172	1099.202	855.711
370.883	22.154	1098.382	854.913
371.898	22.043	1097.632	853.711
372.913	22.233	1097.080	854.128
373.927	22.241	1096.722	853.815
374.942	22.160	1095.943	852.741
375.956	22.263	1095.390	852.733
376.971	22.336	1094.581	852.382
377.986	22.284	1094.536	852.018
379.000	22.322	1093.767	851.527
380.015	22.402	1093.352	851.516
381.029	22.220	1092.788	850.121
382.044	22.235	1092.318	849.755
383.059	22.291	1091.552	849.356
384.073	22.384	1090.484	848.897
385.088	22.409	1089.396	848.094
386.102	22.345	1088.792	847.240
387.117	22.396	1088.027	846.817
388.132	22.343	1087.281	845.906
389.146	22.398	1086.729	845.667
390.161	22.401	1085.796	844.881
391.175	22.367	1085.548	844.447
392.190	22.391	1084.756	843.874
393.205	22.356	1083.783	842.873
394.219	22.460	1082.754	842.499
395.234	22.432	1082.234	841.882
396.248	22.488	1081.265	841.322
397.263	22.389	1080.681	840.321
398.278	22.437	1080.021	839.963
399.292	22.571	1079.604	840.200
400.307	22.618	1078.921	839.820
401.321	22.625	1078.040	839.095
402.336	22.468	1077.757	838.054
403.350	22.496	1077.087	837.590
404.365	22.554	1076.368	837.230
405.380	22.555	1075.731	836.668
406.394	22.566	1074.893	835.995
407.409	22.699	1073.922	835.796
408.423	22.531	1073.350	834.482
409.438	22.717	1072.787	834.850
410.453	22.597	1072.117	833.689
411.467	22.730	1071.344	833.640
412.482	22.735	1070.392	832.848
413.496	22.727	1069.951	832.395
414.511	22.708	1069.356	831.771
415.526	22.597	1069.195	831.046
416.540	22.717	1068.444	830.954
417.555	22.694	1067.925	830.369
418.569	22.830	1067.402	830.529
419.584	22.777	1067.057	829.939
420.599	22.692	1067.084	829.483
421.613	149.075	1396.950	1793.891
422.628	137.318	1444.982	1793.986
