DTS Sentinel unit serial number:	SN413079Multiplexer serial number:	ORYXHardware model number:	OX4-SRSoftware version number:	ORYX F/W v4.00 Oryx Data Collector v3.7.2.0data status	okinstallation	princeton_trtdifferential loss correction	single-endedforward channel	channel 2reverse channel	N/Adate	2019/09/11time	03:29:11forward acquisition time	60.00reverse acquisition time	0.00gamma	496.2192k internal	0.2329k external	0.2329temperature offset calibration	0.9938default loss term (dB/km)	0.3790temperature slope calibration	1.0000multiplexer offset coefficient	1.0000multiplexer slope coefficient	1.0000fibre end	0.00T internal ref (°C)	29.44T ext. ref 1 (°C)	-0.29T ext. ref 2 (°C)	24.15length (m)	temperature (°C)	Stokes	anti-Stokes-747.200	-94.620	0.256	0.070
-746.185	-200.000	-0.009	0.089
-745.171	437.535	0.094	0.206
-744.156	800.000	-0.118	0.375
-743.142	800.000	-0.023	-0.099
-742.127	-72.471	-0.202	0.075
-741.112	-14.084	0.218	0.142
-740.098	46.132	-0.330	0.308
-739.083	800.000	0.048	-0.173
-738.069	-200.000	-0.027	-0.268
-737.054	-91.121	0.026	0.007
-736.039	-200.000	-0.065	-0.291
-735.025	-50.039	-0.096	-0.046
-734.010	800.000	-0.080	-0.250
-732.996	2.013	-0.043	-0.031
-731.981	532.311	-0.181	0.430
-730.966	-164.477	-0.214	-0.010
-729.952	-200.000	0.010	-0.087
-728.937	-104.050	0.109	-0.026
-727.923	1.239	0.132	-0.096
-726.908	-52.250	-0.075	0.035
-725.894	248.868	-0.059	-0.101
-724.879	114.002	-0.144	-0.176
-723.864	445.626	0.117	0.259
-722.850	140.101	0.110	0.145
-721.835	-200.000	-0.047	0.573
-720.821	-120.271	0.084	0.014
-719.806	-29.198	0.045	-0.026
-718.791	244.076	0.159	-0.268
-717.777	-200.000	0.003	0.205
-716.762	163.241	0.169	0.238
-715.748	-2.385	-0.301	-0.212
-714.733	4.397	-0.208	-0.153
-713.718	-200.000	-0.024	0.119
-712.704	-152.323	0.326	0.024
-711.689	768.916	0.136	-0.373
-710.675	319.743	-0.030	0.057
-709.660	800.000	-0.042	-0.137
-708.645	83.897	0.113	0.124
-707.631	-181.269	-0.256	-0.005
-706.616	-44.803	-0.388	0.195
-705.602	557.457	-0.089	0.216
-704.587	488.389	0.075	-0.173
-703.572	124.206	-0.297	0.376
-702.558	250.164	0.042	-0.071
-701.543	-68.874	0.193	0.075
-700.529	-80.725	0.379	-0.127
-699.514	-200.000	-0.042	-0.232
-698.499	171.753	-0.287	-0.414
-697.485	-179.727	-0.106	0.002
-696.470	-96.512	-0.135	-0.036
-695.456	-200.000	0.008	0.196
-694.441	-83.740	-0.055	0.018
-693.426	-200.000	-0.001	0.445
-692.412	-1.529	-0.281	-0.199
-691.397	113.267	-0.141	0.172
-690.383	-200.000	0.036	-0.178
-689.368	-31.914	-0.262	-0.147
-688.354	-133.635	0.162	-0.020
-687.339	123.255	-0.205	0.258
-686.324	-25.936	0.323	0.191
-685.310	446.471	-0.143	0.317
-684.295	-200.000	0.035	0.172
-683.281	33.804	-0.146	-0.128
-682.266	-157.480	0.274	-0.017
-681.251	-200.000	0.019	-0.203
-680.237	426.323	0.078	0.168
-679.222	-137.718	-0.152	0.017
-678.208	-37.361	-0.080	-0.043
-677.193	-13.605	-0.110	-0.072
-676.178	-31.888	-0.173	0.097
-675.164	58.801	-0.244	-0.241
-674.149	553.054	0.076	0.184
-673.135	-200.000	0.046	0.206
-672.120	67.228	0.121	0.124
-671.105	-200.000	-0.012	-0.191
-670.091	-110.726	0.240	0.050
-669.076	-200.000	0.045	-0.327
-668.062	-200.000	0.000	-0.026
-667.047	-108.956	0.230	-0.049
-666.032	243.675	-0.078	0.131
-665.018	54.451	0.095	-0.092
-664.003	414.862	0.092	0.196
-662.989	35.626	-0.102	-0.090
-661.974	-153.064	0.221	-0.016
-660.959	-136.937	0.320	-0.037
-659.945	473.603	0.126	0.285
-658.930	683.188	0.067	-0.176
-657.916	-200.000	0.054	-0.480
-656.901	-30.945	0.149	-0.084
-655.886	-200.000	0.063	0.340
-654.872	12.090	-0.169	-0.130
-653.857	-41.107	-0.296	-0.153
-652.843	126.111	-0.052	-0.066
-651.828	-27.580	-0.161	-0.094
-650.814	800.000	-0.108	0.376
-649.799	-9.591	0.208	0.139
-648.784	-151.893	0.143	0.010
-647.770	27.115	-0.190	0.160
-646.755	-124.354	-0.410	0.064
-645.741	-174.711	-0.273	-0.008
-644.726	144.444	0.098	-0.131
-643.711	-4.994	-0.098	0.068
-642.697	-120.345	0.275	-0.047
-641.682	253.352	-0.126	-0.216
-640.668	-97.134	0.225	-0.059
-639.653	-200.000	-0.033	0.213
-638.638	-25.900	-0.136	-0.080
-637.624	-182.045	-0.441	-0.008
-636.609	-144.663	-0.208	0.019
-635.595	186.796	0.277	-0.414
-634.580	-118.086	0.126	0.022
-633.565	800.000	0.090	-0.278
-632.551	197.395	0.060	0.092
-631.536	192.405	0.191	0.290
-630.522	180.006	0.072	-0.106
-629.507	-64.445	-0.122	0.050
-628.492	-1.112	0.175	-0.124
-627.478	28.622	-0.358	0.303
-626.463	-196.429	0.270	-0.002
-625.449	-200.000	0.001	0.132
-624.434	-75.804	-0.220	0.078
-623.419	-28.537	0.135	0.078
-622.405	-134.227	-0.087	-0.011
-621.390	800.000	0.055	0.210
-620.376	800.000	0.107	0.358
-619.361	800.000	-0.073	-0.222
-618.346	-72.545	0.307	-0.114
-617.332	48.407	0.086	-0.081
-616.317	-70.267	0.251	0.095
-615.303	-99.243	0.150	0.038
-614.288	158.319	0.169	-0.235
-613.273	126.802	-0.102	-0.129
-612.259	56.802	-0.110	0.108
-611.244	28.192	-0.353	0.298
-610.230	800.000	0.043	-0.132
-609.215	-18.449	0.126	0.079
-608.201	-132.767	0.235	0.030
-607.186	-12.347	-0.233	0.153
-606.171	-140.988	0.235	0.024
-605.157	193.493	-0.020	0.031
-604.142	18.349	-0.281	-0.225
-603.128	7.313	0.110	-0.082
-602.113	-147.537	0.366	0.031
-601.098	242.968	0.084	-0.141
-600.084	-136.504	0.367	-0.043
-599.069	-153.428	0.261	-0.018
-598.055	498.416	0.067	0.154
-597.040	-126.801	0.204	0.030
-596.025	-144.463	-0.176	-0.016
-595.011	176.483	-0.082	-0.119
-593.996	-200.000	-0.037	-0.206
-592.982	-74.364	-0.216	0.078
-591.967	-200.000	0.028	-0.153
-590.952	33.193	0.286	-0.248
-589.938	-33.358	-0.248	-0.137
-588.923	-67.816	-0.238	-0.093
-587.909	59.051	0.037	0.037
-586.894	89.835	0.153	0.171
-585.879	332.362	-0.041	-0.080
-584.865	-14.998	0.289	-0.186
-583.850	-67.563	0.050	0.020
-582.836	1.146	-0.107	0.077
-581.821	-55.021	-0.059	0.027
-580.806	371.084	0.014	0.028
-579.792	270.681	-0.217	-0.382
-578.777	-82.727	-0.145	-0.047
-577.763	-99.076	-0.247	-0.062
-576.748	253.320	0.088	0.150
-575.733	-44.958	0.140	0.070
-574.719	108.284	-0.229	0.273
-573.704	24.335	0.087	-0.072
-572.690	-200.000	-0.040	-0.405
-571.675	-200.000	0.081	0.396
-570.661	-33.413	-0.056	0.031
-569.646	-82.310	0.319	0.104
-568.631	23.682	-0.133	0.110
-567.617	38.418	-0.195	0.174
-566.602	-200.000	-0.003	-0.028
-565.588	71.986	-0.313	-0.326
-564.573	36.676	0.255	-0.225
-563.558	-73.612	-0.115	-0.042
-562.544	-200.000	-0.048	0.217
-561.529	-7.493	-0.199	0.135
-560.515	102.337	-0.232	0.271
-559.500	239.616	-0.092	-0.154
-558.485	127.878	0.088	-0.112
-557.471	800.000	-0.029	-0.083
-556.456	-100.112	-0.063	-0.016
-555.442	58.212	-0.252	-0.247
-554.427	-114.756	-0.281	-0.054
-553.412	-200.000	-0.025	0.144
-552.398	155.733	0.139	0.191
-551.383	157.264	0.123	0.170
-550.369	358.992	-0.049	-0.099
-549.354	37.806	0.391	-0.347
-548.339	-200.000	-0.011	0.151
-547.325	-132.883	-0.265	-0.034
-546.310	78.398	-0.216	-0.230
-545.296	800.000	0.112	-0.369
-544.281	-124.301	-0.179	-0.028
-543.266	-63.294	0.350	0.144
-542.252	-29.462	-0.196	-0.112
-541.237	-98.798	-0.288	-0.073
-540.223	120.806	-0.082	-0.102
-539.208	-200.000	0.022	-0.300
-538.193	-129.684	-0.101	0.014
-537.179	-7.707	0.340	0.230
-536.164	-200.000	0.036	-0.165
-535.150	800.000	-0.041	-0.114
-534.135	-61.697	0.163	0.068
-533.121	-28.341	-0.242	0.139
-532.106	-124.560	0.344	0.053
-531.091	487.003	-0.067	0.152
-530.077	-7.414	0.406	-0.274
-529.062	-65.150	0.339	0.136
-528.048	800.000	-0.036	0.113
-527.033	190.962	-0.015	0.023
-526.018	95.327	-0.043	0.048
-525.004	238.861	0.130	0.215
-523.989	94.387	-0.116	-0.132
-522.975	131.540	-0.122	-0.156
-521.960	-142.366	-0.335	0.033
-520.945	-200.000	0.005	-0.158
-519.931	-32.822	-0.085	-0.047
-518.916	19.422	-0.215	0.173
-517.902	26.147	-0.204	-0.170
-516.887	72.449	-0.077	0.080
-515.872	-157.585	0.289	-0.017
-514.858	159.299	-0.133	0.185
-513.843	-180.931	-0.042	0.001
-512.829	692.977	0.047	0.123
-511.814	-200.000	-0.055	0.248
-510.799	-0.677	-0.294	-0.208
-509.785	177.488	0.242	0.352
-508.770	800.000	-0.075	-0.230
-507.756	-79.604	-0.248	0.083
-506.741	34.000	-0.282	0.245
-505.726	-75.538	0.213	0.076
-504.712	79.485	0.188	0.201
-503.697	800.000	-0.016	-0.049
-502.683	263.697	0.059	0.103
-501.668	-54.641	0.195	0.088
-500.653	-73.508	0.030	0.011
-499.639	-104.859	0.165	0.038
-498.624	-156.642	0.349	-0.022
-497.610	139.942	0.109	0.144
-496.595	-107.947	0.292	-0.063
-495.581	800.000	-0.006	0.022
-494.566	414.748	-0.048	-0.102
-493.551	-55.674	0.336	0.150
-492.537	623.475	0.040	-0.099
-491.522	29.219	-0.120	-0.101
-490.508	-108.913	-0.294	-0.063
-489.493	-115.158	-0.112	0.021
-488.478	-45.439	-0.180	-0.089
-487.464	800.000	-0.068	0.203
-486.449	-25.441	-0.125	-0.073
-485.435	-69.210	0.165	-0.063
-484.420	37.600	-0.109	0.097
-483.405	42.627	-0.136	-0.123
-482.391	-90.807	-0.360	0.103
-481.376	-30.908	0.166	-0.094
-480.362	-94.281	-0.389	0.106
-479.347	-11.430	0.078	-0.051
-478.332	-184.346	-0.169	0.003
-477.318	243.690	-0.191	-0.320
-476.303	-20.510	0.089	0.054
-475.289	97.630	-0.096	0.109
-474.274	491.210	-0.189	-0.431
-473.259	-99.282	-0.252	0.063
-472.245	70.517	-0.258	0.266
-471.230	-140.940	0.239	0.024
-470.216	-93.881	-0.152	0.042
-469.201	-21.002	-0.180	0.110
-468.186	103.238	-0.106	-0.123
-467.172	-170.544	0.264	0.009
-466.157	14.809	-0.183	-0.142
-465.143	-60.940	-0.314	0.132
-464.128	80.645	-0.103	0.110
-463.113	-89.016	0.127	0.037
-462.099	673.506	0.014	-0.036
-461.084	305.175	0.088	-0.163
-460.070	39.875	-0.122	0.109
-459.055	-78.323	0.199	0.068
-458.040	90.972	-0.194	-0.216
-457.026	-200.000	-0.005	0.039
-456.011	127.909	-0.115	0.146
-454.997	-200.000	-0.012	-0.085
-453.982	-8.298	0.043	0.029
-452.968	-70.930	-0.137	-0.052
-451.953	800.000	0.042	0.132
-450.938	800.000	-0.063	0.232
-449.924	800.000	-0.033	-0.104
-448.909	98.497	0.148	-0.170
-447.895	-200.000	-0.028	0.384
-446.880	-18.950	-0.084	-0.052
-445.865	-200.000	-0.007	-0.043
-444.851	25.517	0.247	-0.205
-443.836	800.000	0.022	-0.083
-442.822	588.398	-0.032	-0.077
-441.807	-48.917	-0.143	0.068
-440.792	-200.000	-0.016	-0.280
-439.778	800.000	-0.026	0.091
-438.763	-126.398	-0.582	0.086
-437.749	-105.626	0.549	-0.124
-436.734	-91.420	-0.304	0.086
-435.719	-156.429	-0.505	-0.031
-434.705	800.000	0.059	-0.176
-433.690	-126.258	-0.132	0.020
-432.676	76.193	0.138	0.146
-431.661	145.603	0.225	0.299
-430.646	410.545	0.155	-0.326
-429.632	800.000	-0.132	-0.409
-428.617	-56.179	0.094	0.042
-427.603	-104.662	0.147	0.034
-426.588	-106.001	0.228	0.051
-425.573	-174.773	0.167	0.005
-424.559	63.011	-0.136	-0.136
-423.544	75.415	0.155	-0.163
-422.530	35.531	-0.167	0.145
-421.515	-30.365	-0.375	-0.212
-420.500	-48.535	-0.215	0.103
-419.486	586.646	0.117	0.286
-418.471	-135.321	-0.427	-0.051
-417.457	-42.087	-0.044	-0.022
-416.442	-66.311	0.192	-0.076
-415.428	800.000	0.018	0.066
-414.413	-200.000	-0.019	-0.162
-413.398	140.025	-0.098	0.128
-412.384	198.064	-0.241	0.367
-411.369	232.116	-0.088	-0.144
-410.355	85.654	0.152	0.166
-409.340	345.688	0.014	-0.028
-408.325	-200.000	0.008	0.180
-407.311	94.468	0.577	-0.652
-406.296	-143.851	0.461	0.043
-405.282	-200.000	-0.015	0.187
-404.267	800.000	-0.079	-0.321
-403.252	800.000	0.120	0.369
-402.238	-43.456	0.062	-0.031
-401.223	-24.543	-0.177	0.105
-400.209	-200.000	-0.018	0.106
-399.194	675.298	0.080	0.208
-398.179	-144.847	0.167	-0.015
-397.165	291.356	0.095	0.172
-396.150	-41.350	0.223	-0.114
-395.136	341.141	-0.040	-0.077
-394.121	800.000	0.031	-0.117
-393.106	-22.997	-0.219	0.131
-392.092	129.686	0.074	0.094
-391.077	164.307	-0.069	0.097
-390.063	-200.000	-0.023	-0.195
-389.048	381.638	-0.024	0.049
-388.033	29.493	-0.081	0.069
-387.019	273.712	0.086	-0.151
-386.004	336.789	-0.128	0.247
-384.990	-146.149	0.272	0.024
-383.975	-200.000	-0.045	-0.229
-382.960	-200.000	-0.043	-0.194
-381.946	7.529	0.155	-0.115
-380.931	-8.179	-0.120	-0.080
-379.917	-51.144	-0.106	-0.049
-378.902	-130.928	0.383	-0.051
-377.888	-200.000	-0.012	-0.261
-376.873	764.344	0.068	-0.183
-375.858	-120.439	0.131	0.022
-374.844	153.225	-0.071	-0.096
-373.829	-200.000	0.013	-0.082
-372.815	800.000	0.040	-0.110
-371.800	119.021	0.012	0.014
-370.785	-9.932	0.020	-0.013
-369.771	-85.695	-0.043	0.013
-368.756	-109.608	-0.197	-0.041
-367.742	800.000	0.064	-0.247
-366.727	58.891	0.220	-0.214
-365.712	-37.581	0.192	0.102
-364.698	77.998	0.125	0.133
-363.683	14.772	-0.238	-0.185
-362.669	4.052	-0.085	0.062
-361.654	-32.691	0.143	-0.079
-360.639	-200.000	0.014	0.310
-359.625	34.807	-0.162	0.141
-358.610	-29.405	0.108	0.061
-357.596	-200.000	-0.035	0.259
-356.581	305.273	0.047	-0.086
-355.566	-98.364	0.188	-0.048
-354.552	77.782	0.149	-0.157
-353.537	60.374	0.280	-0.275
-352.523	800.000	0.093	0.309
-351.508	33.895	0.259	-0.224
-350.493	75.913	0.095	0.099
-349.479	-95.711	-0.035	-0.009
-348.464	91.180	0.251	-0.279
-347.450	26.945	-0.125	0.104
-346.435	-200.000	-0.018	0.080
-345.420	-13.218	-0.214	0.138
-344.406	-47.778	0.172	0.083
-343.391	-37.170	0.132	0.070
-342.377	-118.647	-0.180	-0.031
-341.362	-134.031	0.374	0.046
-340.348	166.677	0.072	0.102
-339.333	22.028	-0.083	-0.068
-338.318	800.000	0.034	-0.103
-337.304	-113.185	0.084	-0.016
-336.289	-92.476	0.069	-0.019
-335.275	800.000	-0.041	-0.174
-334.260	-80.485	0.260	0.086
-333.245	-153.525	-0.133	-0.009
-332.231	800.000	-0.047	-0.150
-331.216	-66.865	-0.153	-0.060
-330.202	-121.895	0.285	-0.046
-329.187	-115.677	0.269	-0.050
-328.172	110.055	-0.199	-0.236
-327.158	118.349	0.146	-0.178
-326.143	-200.000	0.015	-0.143
-325.129	800.000	-0.037	-0.112
-324.114	-39.937	-0.140	-0.072
-323.099	-33.853	-0.179	-0.098
-322.085	-200.000	0.037	-0.233
-321.070	-111.147	-0.238	0.048
-320.056	-200.000	-0.002	0.313
-319.041	-200.000	-0.004	0.197
-318.026	294.910	0.153	-0.276
-317.012	-200.000	0.004	-0.058
-315.997	-66.104	-0.251	0.099
-314.983	-200.000	0.008	-0.191
-313.968	-138.180	-0.194	-0.021
-312.953	682.140	0.108	-0.278
-311.939	800.000	-0.071	0.228
-310.924	164.509	0.146	-0.204
-309.910	-29.393	-0.186	-0.105
-308.895	193.683	0.089	0.134
-307.880	-14.437	-0.036	0.023
-306.866	800.000	0.117	0.452
-305.851	88.004	0.194	0.213
-304.837	-106.490	-0.127	-0.028
-303.822	800.000	0.100	0.418
-302.807	-46.343	-0.161	-0.078
-301.793	-108.750	-0.337	-0.071
-300.778	-200.000	0.079	-0.417
-299.764	-157.115	0.353	0.021
-298.749	800.000	-0.107	0.391
-297.735	-200.000	0.034	0.219
-296.720	800.000	0.045	-0.135
-295.705	516.647	0.047	-0.108
-294.691	429.985	0.078	0.166
-293.676	-199.862	-0.376	0.002
-292.662	304.081	-0.116	0.212
-291.647	-102.027	0.101	0.024
-290.632	-184.371	0.159	-0.003
-289.618	-8.045	-0.160	-0.107
-288.603	0.141	-0.207	0.146
-287.589	-120.829	-0.160	-0.027
-286.574	103.595	0.165	0.192
-285.559	103.266	-0.094	0.109
-284.545	20.129	0.041	0.033
-283.530	23.678	-0.212	-0.173
-282.516	640.341	-0.040	-0.100
-281.501	-20.243	0.128	-0.078
-280.486	-146.178	0.258	-0.022
-279.472	800.000	-0.047	0.152
-278.457	58.958	0.247	-0.240
-277.443	67.339	-0.228	-0.230
-276.428	-200.000	0.017	0.133
-275.413	-17.938	0.009	0.005
-274.399	-92.204	0.105	-0.029
-273.384	75.566	0.181	-0.189
-272.370	41.469	-0.153	-0.137
-271.355	57.434	-0.078	0.075
-270.340	268.317	-0.167	0.290
-269.326	93.173	-0.128	0.143
-268.311	329.908	0.109	-0.207
-267.297	-48.958	-0.066	0.031
-266.282	494.798	0.084	0.191
-265.267	57.708	0.146	0.141
-264.253	101.625	-0.205	0.236
-263.238	88.416	-0.092	-0.101
-262.224	247.890	-0.161	-0.269
-261.209	-200.000	0.024	-0.266
-260.195	-93.878	-0.125	0.034
-259.180	270.652	-0.122	-0.213
-258.165	-72.338	-0.202	-0.074
-257.151	-200.000	0.003	-0.196
-256.136	533.155	-0.135	-0.317
-255.122	-23.160	0.213	0.127
-254.107	-123.852	-0.037	0.006
-253.092	-13.642	0.144	-0.092
-252.078	50.826	0.163	-0.153
-251.063	-18.612	0.119	0.073
-250.049	-72.353	0.202	0.074
-249.034	-124.779	-0.154	0.024
-248.019	-148.742	0.164	0.013
-247.005	-120.058	0.304	0.051
-245.990	769.945	0.042	0.112
-244.976	-179.911	0.340	-0.007
-243.961	-98.797	0.134	0.034
-242.946	800.000	-0.074	0.286
-241.932	-130.219	-0.080	-0.011
-240.917	19.038	0.188	0.149
-239.903	-73.397	0.171	-0.062
-238.888	148.500	0.145	0.194
-237.873	-200.000	0.050	0.260
-236.859	-117.431	-0.182	-0.033
-235.844	-200.000	-0.013	0.075
-234.830	-140.643	0.233	0.024
-233.815	-42.665	-0.102	0.051
-232.800	128.262	0.193	0.243
-231.786	250.842	0.106	-0.178
-230.771	-18.450	-0.033	0.020
-229.757	-1.266	-0.353	-0.246
-228.742	92.107	-0.139	-0.155
-227.727	-46.671	-0.386	0.187
-226.713	-35.987	0.309	-0.165
-225.698	-65.820	0.178	0.070
-224.684	132.441	-0.139	0.177
-223.669	-34.809	0.279	0.150
-222.655	74.011	-0.247	0.256
-221.640	397.895	0.061	-0.126
-220.625	-139.104	0.161	0.017
-219.611	-74.987	-0.420	-0.148
-218.596	42.777	0.188	-0.169
-217.582	-100.319	-0.333	0.082
-216.567	761.705	-0.175	0.469
-215.552	-143.051	0.187	-0.018
-214.538	-200.000	0.040	-0.281
-213.523	363.677	0.081	0.160
-212.509	204.370	-0.154	0.236
-211.494	-200.000	0.007	0.098
-210.479	355.759	-0.087	0.172
-209.465	-88.333	0.161	-0.047
-208.450	-0.507	-0.155	-0.108
-207.436	-36.851	-0.118	0.062
-206.421	-52.432	-0.075	0.034
-205.406	-96.163	0.554	-0.145
-204.392	-200.000	0.019	0.000
-203.377	-127.019	-0.197	-0.029
-202.363	-200.000	-0.012	-0.064
-201.348	-200.000	-0.054	-0.298
-200.333	-86.511	-0.266	-0.080
-199.319	800.000	0.097	-0.414
-198.304	-17.379	0.231	0.144
-197.290	701.651	-0.082	-0.213
-196.275	-200.000	-0.026	-0.117
-195.260	-200.000	-0.041	-0.194
-194.246	800.000	0.057	-0.203
-193.231	7.508	0.077	-0.056
-192.217	605.589	-0.073	-0.180
-191.202	726.666	-0.103	0.271
-190.187	33.473	0.201	0.172
-189.173	-92.542	0.206	0.057
-188.158	-200.000	-0.024	0.304
-187.144	-200.000	0.027	0.365
-186.129	94.340	0.145	-0.162
-185.114	352.352	0.130	0.255
-184.100	-116.008	-0.194	0.036
-183.085	323.890	-0.061	0.115
-182.071	-140.785	-0.446	-0.045
-181.056	-8.223	-0.238	-0.158
-180.042	-113.069	0.364	-0.071
-179.027	-15.037	0.070	0.044
-178.012	13.765	-0.301	0.230
-176.998	-36.659	0.240	0.127
-175.983	387.882	0.074	0.151
-174.969	-75.845	-0.117	0.041
-173.954	37.899	0.164	0.144
-172.939	-200.000	0.021	0.207
-171.925	-195.972	0.098	0.001
-170.910	89.389	0.221	0.242
-169.896	800.000	0.022	-0.076
-168.881	-180.483	-0.121	0.002
-167.866	162.437	0.100	-0.138
-166.852	39.283	-0.082	0.072
-165.837	134.136	-0.223	0.285
-164.823	-200.000	-0.000	0.098
-163.808	257.097	0.163	-0.275
-162.793	-31.088	-0.024	-0.013
-161.779	663.607	-0.109	0.276
-160.764	531.868	-0.067	0.157
-159.750	-200.000	0.026	-0.159
-158.735	-166.801	-0.090	0.004
-157.720	38.172	-0.103	-0.090
-156.706	268.004	-0.172	-0.297
-155.691	-200.000	-0.004	0.091
-154.677	-200.000	-0.039	0.286
-153.662	-200.000	0.033	-0.146
-152.647	77.572	0.189	0.198
-151.633	60.255	0.116	0.113
-150.618	-6.621	0.324	0.217
-149.604	54.632	0.286	0.272
-148.589	-32.545	0.312	-0.171
-147.574	800.000	-0.081	0.321
-146.560	-109.346	0.178	-0.037
-145.545	800.000	-0.090	-0.258
-144.531	-200.000	-0.023	-0.270
-143.516	-200.000	0.023	-0.330
-142.502	48.634	0.220	0.203
-141.487	-74.248	-0.123	-0.044
-140.472	737.798	-0.096	0.254
-139.458	194.465	0.096	0.143
-138.443	-200.000	-0.024	0.118
-137.429	49.843	-0.169	0.157
-136.414	-35.864	0.383	0.204
-135.399	-50.629	-0.135	-0.063
-134.385	-89.836	-0.058	-0.017
-133.370	-89.043	0.489	-0.142
-132.356	-115.528	0.139	-0.026
-131.341	800.000	0.019	0.081
-130.326	-139.972	-0.355	0.037
-129.312	-200.000	0.046	-0.202
-128.297	81.431	-0.055	-0.058
-127.283	43.588	0.210	0.189
-126.268	-36.197	-0.090	0.048
-125.253	-136.581	-0.132	0.015
-124.239	370.211	-0.224	0.446
-123.224	63.256	0.130	0.128
-122.210	-115.573	0.192	0.035
-121.195	-200.000	-0.032	0.395
-120.180	-200.000	0.005	0.082
-119.166	-84.931	0.249	0.077
-118.151	-91.973	0.211	0.059
-117.137	-143.064	0.247	-0.023
-116.122	161.312	0.093	-0.128
-115.107	42.943	-0.037	-0.033
-114.093	-17.327	-0.250	0.154
-113.078	67.674	0.112	-0.112
-112.064	-200.000	0.021	0.177
-111.049	-200.000	-0.022	0.158
-110.034	-18.833	-0.183	-0.112
-109.020	140.233	0.229	-0.297
-108.005	364.470	0.163	-0.323
-106.991	-200.000	0.029	-0.397
-105.976	-200.000	0.011	-0.126
-104.962	800.000	-0.039	-0.148
-103.947	-84.624	0.066	0.021
-102.932	-200.000	-0.013	0.463
-101.918	-48.044	0.089	-0.042
-100.903	-8.020	0.100	0.066
-99.889	117.169	-0.101	-0.121
-98.874	-112.256	0.335	0.066
-97.859	-200.000	0.033	0.185
-96.845	-125.959	-0.083	-0.012
-95.830	7.049	0.280	-0.205
-94.816	-83.982	-0.119	0.037
-93.801	-200.000	-0.017	0.094
-92.786	-13.769	-0.048	0.030
-91.772	416.505	0.303	0.634
-90.757	296.445	-0.230	0.415
-89.743	786.534	0.150	0.404
-88.728	646.913	-0.079	-0.199
-87.713	-200.000	-0.007	-0.194
-86.699	145.841	-0.233	-0.307
-85.684	-200.000	-0.016	0.107
-84.670	-55.489	0.489	-0.215
-83.655	205.477	-0.034	-0.052
-82.640	-100.411	-0.322	0.078
-81.626	142.316	0.104	-0.136
-80.611	78.142	-0.110	-0.115
-79.597	-111.123	0.316	-0.064
-78.582	75.260	-0.237	-0.245
-77.567	800.000	-0.042	0.119
-76.553	772.580	-0.072	0.193
-75.538	42.422	-0.067	-0.060
-74.524	203.191	0.211	0.320
-73.509	228.524	0.102	0.164
-72.494	-192.894	-0.211	0.002
-71.480	-56.902	0.374	0.162
-70.465	-71.578	0.041	0.015
-69.451	-39.047	0.298	-0.154
-68.436	-7.798	0.204	-0.135
-67.422	-200.000	0.047	0.350
-66.407	171.168	0.164	0.230
-65.392	294.924	0.087	0.157
-64.378	34.717	-0.243	-0.208
-63.363	-80.794	-0.019	0.006
-62.349	88.868	-0.166	0.181
-61.334	171.284	-0.998	-1.405
-60.319	-14.634	0.948	0.598
-59.305	-200.000	-0.141	-0.955
-58.290	188.549	0.698	1.024
-57.276	588.796	0.555	1.341
-56.261	-200.000	105.323	608.716
-55.246	503.011	1506.951	3415.733
-54.232	174.663	2710.905	3845.011
-53.217	104.511	2301.784	2657.287
-52.203	38.620	1905.159	1666.049
-51.188	32.574	1691.389	1433.225
-50.173	30.046	1647.857	1377.513
-49.159	49.043	1701.307	1566.209
-48.144	49.324	1716.543	1582.290
-47.130	32.289	1674.019	1416.131
-46.115	29.561	1659.155	1383.105
-45.100	29.377	1654.316	1377.643
-44.086	29.287	1651.479	1374.551
-43.071	29.234	1649.343	1372.326
-42.057	29.256	1646.617	1370.162
-41.042	29.332	1644.828	1369.191
-40.027	29.305	1642.921	1367.348
-39.013	29.328	1641.257	1366.075
-37.998	29.277	1639.612	1364.279
-36.984	29.293	1638.340	1363.278
-35.969	29.390	1637.027	1362.847
-34.954	29.377	1635.255	1361.223
-33.940	29.429	1633.064	1359.730
-32.925	29.429	1631.670	1358.520
-31.911	29.466	1629.433	1356.874
-30.896	29.415	1627.844	1355.119
-29.881	29.387	1625.961	1353.291
-28.867	29.400	1624.536	1352.146
-27.852	29.384	1623.482	1351.103
-26.838	29.462	1622.024	1350.408
-25.823	29.391	1620.850	1348.854
-24.809	29.423	1619.321	1347.764
-23.794	29.464	1617.754	1346.703
-22.779	29.425	1616.688	1345.483
-21.765	29.442	1615.091	1344.222
-20.750	29.427	1613.341	1342.602
-19.736	29.518	1611.497	1341.675
-18.721	29.552	1610.167	1340.759
-17.706	29.540	1608.480	1339.216
-16.692	29.497	1607.356	1337.917
-15.677	29.484	1606.127	1336.747
-14.663	29.434	1605.409	1335.732
-13.648	29.493	1603.168	1334.242
-12.633	29.515	1601.999	1333.374
-11.619	29.496	1599.636	1331.221
-10.604	29.413	1599.007	1330.042
-9.590	29.471	1597.974	1329.549
-8.575	29.533	1596.372	1328.612
-7.560	29.491	1595.517	1327.547
-6.546	29.563	1593.911	1326.673
-5.531	29.504	1593.388	1325.759
-4.517	29.456	1592.151	1324.332
-3.502	29.448	1591.084	1323.336
-2.487	29.627	1588.881	1322.732
-1.473	29.295	1577.769	1311.069
-0.458	26.697	1558.958	1277.106
0.556	21.125	1560.023	1248.167
1.571	18.949	1585.494	1252.596
2.586	18.671	1598.956	1261.077
3.600	16.895	1546.372	1206.867
4.615	8.949	1436.266	1068.104
5.629	1.215	1372.640	971.322
6.644	-0.185	1363.973	956.192
7.659	-0.275	1363.051	954.885
8.673	-0.275	1361.322	953.590
9.688	-0.434	1360.287	951.769
10.702	-0.534	1356.684	948.537
11.717	3.013	1364.097	976.188
12.731	12.319	1381.970	1048.549
13.746	19.672	1393.921	1104.705
14.761	21.562	1395.951	1118.301
15.775	21.865	1396.236	1120.366
16.790	21.922	1395.357	1119.928
17.804	21.933	1394.958	1119.575
18.819	22.199	1394.536	1120.838
19.834	22.243	1393.792	1120.416
20.848	22.294	1393.347	1120.286
21.863	22.298	1392.604	1119.618
22.877	22.273	1391.334	1118.337
23.892	22.198	1390.704	1117.253
24.907	22.273	1390.121	1117.163
25.921	22.322	1388.664	1116.202
26.936	22.132	1388.196	1114.522
27.950	22.151	1387.309	1113.831
28.965	22.281	1385.834	1113.373
29.980	22.315	1384.465	1112.389
30.994	22.351	1383.002	1111.347
32.009	22.307	1382.434	1110.511
33.023	22.354	1381.189	1109.711
34.038	22.259	1380.169	1108.192
35.053	22.282	1379.080	1107.364
36.067	22.328	1378.144	1106.808
37.082	22.314	1377.332	1105.970
38.096	22.294	1376.120	1104.771
39.111	22.198	1376.047	1104.012
40.126	22.291	1375.159	1103.788
41.140	22.328	1374.318	1103.242
42.155	22.286	1374.118	1102.722
43.169	22.307	1374.105	1102.750
44.184	22.221	1373.773	1101.846
45.199	22.186	1373.264	1101.117
46.213	22.252	1372.657	1100.949
47.228	22.285	1371.824	1100.388
48.242	22.259	1370.664	1099.200
49.257	22.297	1369.355	1098.287
50.271	22.248	1367.856	1096.683
51.286	22.226	1366.647	1095.478
52.301	22.277	1365.429	1094.724
53.315	22.329	1364.070	1093.862
54.330	22.245	1363.532	1092.809
55.344	22.378	1362.331	1092.577
56.359	22.318	1361.511	1091.454
57.374	22.362	1360.559	1090.864
58.388	22.277	1360.131	1089.899
59.403	22.335	1359.297	1089.491
60.417	22.322	1358.836	1088.947
61.432	22.195	1358.159	1087.521
62.447	22.275	1357.249	1087.188
63.461	22.405	1355.855	1086.781
64.476	22.224	1355.271	1085.097
65.490	22.295	1354.013	1084.435
66.505	22.345	1352.129	1083.136
67.520	22.382	1350.876	1082.264
68.534	22.250	1350.326	1080.917
69.549	22.274	1349.208	1080.072
70.563	22.243	1348.684	1079.369
71.578	22.282	1347.435	1078.515
72.593	22.313	1346.565	1077.910
73.607	22.300	1346.008	1077.290
74.622	22.414	1344.622	1076.781
75.636	22.316	1344.062	1075.640
76.651	22.263	1343.874	1075.068
77.666	22.293	1343.136	1074.569
78.680	22.352	1342.692	1074.477
79.695	22.246	1341.799	1073.025
80.709	22.337	1340.718	1072.616
81.724	22.268	1340.157	1071.652
82.739	22.337	1338.511	1070.662
83.753	22.255	1338.053	1069.703
84.768	22.208	1337.221	1068.659
85.782	22.274	1335.569	1067.640
86.797	22.386	1334.433	1067.317
87.812	22.341	1332.936	1065.752
88.826	22.393	1332.565	1065.679
89.841	22.353	1331.328	1064.352
90.855	22.371	1330.156	1063.433
91.870	22.319	1329.382	1062.403
92.884	22.331	1328.878	1061.980
93.899	22.420	1327.947	1061.676
94.914	22.433	1326.920	1060.843
95.928	22.335	1326.383	1059.729
96.943	22.374	1325.829	1059.427
97.957	22.353	1324.644	1058.259
98.972	22.349	1323.634	1057.334
99.987	22.367	1322.925	1056.785
101.001	22.292	1322.015	1055.511
102.016	22.301	1320.421	1054.202
103.030	22.391	1319.680	1054.058
104.045	22.407	1319.426	1053.855
105.060	22.402	1317.953	1052.555
106.074	22.359	1316.954	1051.406
107.089	22.327	1315.725	1050.143
108.103	22.438	1314.633	1049.838
109.118	22.361	1314.169	1048.915
110.133	22.520	1312.182	1048.186
111.147	22.467	1311.114	1046.924
112.162	22.441	1310.198	1045.943
113.176	22.429	1309.331	1045.088
114.191	22.367	1308.272	1043.783
115.206	22.425	1307.522	1043.434
116.220	22.385	1306.359	1042.179
117.235	22.413	1305.478	1041.551
118.249	22.484	1304.174	1040.837
119.264	22.422	1303.392	1039.753
120.279	22.388	1302.827	1039.011
121.293	22.409	1301.905	1038.307
122.308	22.550	1300.699	1038.084
123.322	22.445	1299.900	1036.739
124.337	22.458	1298.342	1035.479
125.352	22.381	1297.978	1034.646
126.366	22.558	1296.805	1034.658
127.381	22.577	1296.130	1034.139
128.395	22.684	1294.946	1033.730
129.410	22.613	1294.198	1032.626
130.424	22.513	1293.636	1031.499
131.439	22.503	1292.828	1030.706
132.454	22.400	1291.945	1029.308
133.468	22.499	1290.723	1028.823
134.483	22.484	1290.684	1028.610
135.497	22.495	1289.361	1027.534
136.512	22.382	1288.540	1026.126
137.527	22.412	1287.380	1025.286
138.541	22.429	1286.135	1024.304
139.556	22.397	1284.840	1022.995
140.570	22.379	1283.812	1021.984
141.585	22.418	1282.816	1021.327
142.600	22.508	1281.102	1020.392
143.614	22.463	1280.994	1019.956
144.629	22.450	1279.564	1018.652
145.643	22.419	1278.514	1017.547
146.658	22.344	1277.977	1016.594
147.673	22.426	1276.476	1015.782
148.687	22.349	1275.835	1014.741
149.702	22.283	1274.769	1013.423
150.716	22.298	1273.587	1012.480
151.731	22.441	1272.416	1012.279
152.746	22.435	1271.399	1011.348
153.760	22.417	1270.361	1010.329
154.775	22.487	1269.292	1009.792
155.789	22.427	1268.666	1008.863
156.804	22.346	1267.776	1007.601
157.819	22.427	1266.542	1006.994
158.833	22.549	1265.828	1007.031
159.848	22.579	1264.985	1006.446
160.862	22.492	1263.986	1005.064
161.877	22.529	1263.318	1004.656
162.892	22.568	1262.495	1004.133
163.906	22.561	1261.971	1003.586
164.921	22.596	1260.995	1002.920
165.935	22.536	1260.324	1001.960
166.950	22.500	1260.008	1001.415
167.964	22.595	1259.122	1001.160
168.979	22.609	1258.190	1000.409
169.994	22.521	1257.703	999.437
171.008	22.581	1257.023	999.147
172.023	22.631	1256.067	998.583
173.037	22.611	1255.306	997.774
174.052	22.632	1255.117	997.657
175.067	22.608	1254.135	996.653
176.081	22.556	1253.143	995.482
177.096	22.610	1252.298	995.026
178.110	22.582	1251.803	994.388
179.125	22.742	1249.901	993.691
180.140	22.623	1249.604	992.699
181.154	22.603	1248.324	991.477
182.169	22.577	1247.664	990.724
183.183	22.678	1245.908	989.803
184.198	22.662	1245.258	989.113
185.213	22.569	1244.447	987.861
186.227	22.694	1243.476	987.702
187.242	22.725	1242.610	987.100
188.256	22.714	1241.497	986.067
189.271	22.648	1240.953	985.178
190.286	22.611	1240.281	984.349
191.300	22.596	1239.700	983.719
192.315	22.537	1239.499	983.143
193.329	22.587	1238.844	982.817
194.344	22.650	1238.488	982.795
195.359	22.647	1237.904	982.231
196.373	22.607	1237.362	981.491
197.388	22.737	1236.411	981.370
198.402	22.749	1236.251	981.224
199.417	22.713	1235.662	980.473
200.432	22.641	1235.389	979.765
201.446	22.780	1234.294	979.584
202.461	22.703	1233.529	978.462
203.475	22.762	1232.576	977.948
204.490	22.702	1231.837	976.944
205.504	22.691	1231.082	976.196
206.519	22.757	1230.225	975.794
207.534	22.798	1228.762	974.774
208.548	22.620	1228.555	973.544
209.563	22.748	1227.296	973.165
210.577	22.706	1226.732	972.399
211.592	22.898	1225.309	972.239
212.607	22.885	1224.815	971.694
213.621	22.814	1224.378	970.869
214.636	22.775	1223.833	970.138
215.650	22.756	1222.698	969.047
216.665	22.758	1221.609	968.107
217.680	22.853	1220.588	967.737
218.694	22.797	1220.249	967.074
219.709	22.864	1219.609	966.846
220.723	22.807	1218.787	965.798
221.738	22.808	1218.055	965.139
222.753	22.804	1217.241	964.384
223.767	22.785	1216.842	963.883
224.782	22.724	1216.477	963.172
225.796	22.820	1215.982	963.220
226.811	22.873	1215.327	962.904
227.826	22.881	1214.647	962.323
228.840	22.967	1213.685	961.944
229.855	22.882	1212.949	960.813
230.869	22.972	1212.246	960.664
231.884	22.876	1211.910	959.787
232.899	22.824	1211.103	958.781
233.913	22.914	1210.475	958.690
234.928	22.995	1209.979	958.650
235.942	23.042	1209.325	958.304
236.957	23.017	1208.682	957.572
237.972	23.013	1207.701	956.690
238.986	23.050	1207.114	956.339
240.001	22.970	1206.802	955.577
241.015	22.996	1206.329	955.256
242.030	23.131	1204.550	954.493
243.045	23.131	1203.748	953.770
244.059	23.091	1203.390	953.191
245.074	23.118	1202.903	952.865
246.088	23.036	1202.009	951.629
247.103	23.098	1201.204	951.241
248.117	23.003	1200.541	950.123
249.132	22.956	1200.087	949.427
250.147	23.102	1199.275	949.485
251.161	23.113	1198.272	948.662
252.176	23.181	1197.266	948.147
253.190	23.108	1196.758	947.273
254.205	23.073	1196.372	946.696
255.220	23.110	1195.919	946.448
256.234	23.203	1194.988	946.129
257.249	23.163	1194.525	945.466
258.263	23.229	1193.669	945.055
259.278	23.118	1193.320	944.104
260.293	23.142	1192.966	943.867
261.307	23.168	1192.395	943.469
262.322	23.093	1192.021	942.688
263.336	23.237	1191.021	942.580
264.351	23.302	1190.581	942.500
265.366	23.161	1190.058	941.247
266.380	23.201	1188.846	940.420
267.395	23.156	1188.506	939.831
268.409	23.076	1188.151	939.040
269.424	23.116	1187.574	938.712
270.439	23.277	1186.936	938.978
271.453	23.289	1185.823	938.078
272.468	23.121	1185.574	936.911
273.482	23.280	1184.651	936.939
274.497	23.258	1184.327	936.485
275.512	23.277	1183.750	936.044
276.526	23.258	1183.108	935.355
277.541	23.337	1182.146	934.927
278.555	23.239	1181.435	933.767
279.570	23.351	1180.550	933.576
280.585	23.424	1179.686	933.195
281.599	23.325	1179.434	932.391
282.614	23.299	1178.243	931.228
283.628	23.283	1177.596	930.551
284.643	23.394	1176.443	930.140
285.657	23.284	1175.723	928.912
286.672	23.409	1174.761	928.727
287.687	23.309	1174.581	927.976
288.701	23.370	1173.621	927.454
289.716	23.443	1172.772	927.086
290.730	23.367	1172.065	926.045
291.745	23.497	1171.467	926.171
292.760	23.468	1171.043	925.604
293.774	23.419	1170.580	924.900
294.789	23.479	1169.912	924.599
295.803	23.566	1168.922	924.192
296.818	23.528	1168.556	923.620
297.833	23.460	1167.940	922.697
298.847	23.525	1167.241	922.403
299.862	23.536	1166.658	921.918
300.876	23.429	1166.283	920.984
301.891	23.561	1165.199	920.731
302.906	23.626	1164.386	920.346
303.920	23.552	1164.422	919.910
304.935	23.648	1163.455	919.561
305.949	23.571	1162.688	918.476
306.964	23.637	1162.291	918.418
307.979	23.593	1161.876	917.782
308.993	23.707	1160.770	917.420
310.008	23.704	1159.710	916.481
311.022	23.722	1159.197	916.087
312.037	23.581	1158.853	915.012
313.052	23.577	1157.680	913.984
314.066	23.658	1156.752	913.586
315.081	23.651	1156.315	913.125
316.095	23.684	1155.699	912.728
317.110	23.724	1155.131	912.404
318.125	23.697	1154.347	911.564
319.139	23.645	1153.792	910.779
320.154	23.676	1152.983	910.216
321.168	23.809	1152.471	910.413
322.183	23.798	1151.947	909.865
323.197	23.654	1151.713	908.862
324.212	23.726	1150.632	908.297
325.227	23.742	1150.377	908.096
326.241	23.738	1150.280	907.915
327.256	23.772	1149.348	907.276
328.270	23.873	1148.077	906.709
329.285	23.857	1147.573	906.150
330.300	23.823	1146.355	904.931
331.314	23.877	1145.423	904.391
332.329	24.007	1144.572	904.302
333.343	23.971	1143.853	903.468
334.358	23.862	1143.471	902.536
335.373	24.025	1142.644	902.627
336.387	23.975	1142.104	901.869
337.402	23.968	1141.400	901.197
338.416	23.990	1141.047	900.953
339.431	23.970	1140.125	900.043
340.446	23.967	1139.561	899.503
341.460	24.000	1139.267	899.359
342.475	23.952	1138.383	898.336
343.489	23.962	1137.152	897.334
344.504	24.058	1136.002	896.832
345.519	24.048	1135.222	896.086
346.533	24.139	1134.339	895.767
347.548	24.030	1134.243	895.068
348.562	24.024	1133.647	894.485
349.577	24.106	1132.767	894.125
350.592	23.998	1131.557	892.548
351.606	24.083	1130.836	892.327
352.621	24.164	1130.331	892.253
353.635	24.188	1129.978	892.016
354.650	24.079	1129.231	890.805
355.665	24.157	1128.872	890.829
356.679	24.077	1128.306	889.906
357.694	24.185	1127.498	889.730
358.708	24.127	1126.918	888.904
359.723	24.121	1126.142	888.185
360.738	24.064	1125.595	887.387
361.752	24.147	1124.976	887.235
362.767	24.190	1124.273	886.816
363.781	24.156	1123.998	886.351
364.796	24.326	1123.274	886.550
365.810	24.206	1122.679	885.402
366.825	24.241	1122.312	885.212
367.840	24.275	1121.701	884.819
368.854	24.249	1121.310	884.303
369.869	24.347	1120.027	883.701
370.883	24.358	1119.635	883.363
371.898	24.303	1118.899	882.436
372.913	24.275	1118.141	881.622
373.927	24.185	1118.361	881.268
374.942	24.314	1117.575	881.209
375.956	24.263	1116.989	880.420
376.971	24.403	1115.885	880.163
377.986	24.410	1115.658	879.941
379.000	24.290	1115.569	879.197
380.015	24.309	1114.959	878.734
381.029	24.355	1114.075	878.186
382.044	24.392	1113.313	877.690
383.059	24.476	1112.722	877.561
384.073	24.463	1111.611	876.543
385.088	24.491	1110.767	875.934
386.102	24.453	1110.356	875.348
387.117	24.350	1109.401	874.012
388.132	24.467	1108.264	873.613
389.146	24.468	1107.853	873.215
390.161	24.531	1107.205	872.937
391.175	24.392	1106.464	871.595
392.190	24.567	1105.817	871.865
393.205	24.526	1105.242	871.134
394.219	24.537	1104.516	870.539
395.234	24.539	1104.022	870.078
396.248	24.600	1103.241	869.684
397.263	24.646	1101.880	868.756
398.278	24.655	1101.280	868.254
399.292	24.554	1100.953	867.426
400.307	24.588	1100.652	867.276
401.321	24.694	1099.921	867.139
402.336	24.679	1099.024	866.285
403.350	24.694	1098.427	865.807
404.365	24.606	1097.857	864.857
405.380	24.726	1096.987	864.673
406.394	24.676	1096.147	863.692
407.409	24.849	1095.438	863.894
408.423	24.722	1094.900	862.782
409.438	24.800	1094.277	862.590
410.453	24.820	1093.431	861.943
411.467	24.701	1093.177	861.096
412.482	24.705	1092.118	860.205
413.496	24.822	1091.385	860.111
414.511	24.824	1090.818	859.597
415.526	24.704	1090.472	858.674
416.540	24.759	1089.959	858.457
417.555	24.897	1089.453	858.647
418.569	24.875	1089.218	858.279
419.584	24.875	1088.356	857.522
420.599	24.921	1088.081	857.453
421.613	148.000	1403.205	1798.555
422.628	136.857	1449.061	1798.640
