DTS Sentinel unit serial number:	SN413079Multiplexer serial number:	ORYXHardware model number:	OX4-SRSoftware version number:	ORYX F/W v4.00 Oryx Data Collector v3.7.2.0data status	okinstallation	princeton_trtdifferential loss correction	single-endedforward channel	channel 2reverse channel	N/Adate	2019/09/11time	22:53:10forward acquisition time	60.00reverse acquisition time	0.00gamma	496.2192k internal	0.2325k external	0.2325temperature offset calibration	1.0075default loss term (dB/km)	0.3790temperature slope calibration	1.0000multiplexer offset coefficient	1.0000multiplexer slope coefficient	1.0000fibre end	0.00T internal ref (°C)	34.69T ext. ref 1 (°C)	1.78T ext. ref 2 (°C)	29.47length (m)	temperature (°C)	Stokes	anti-Stokes-747.200	358.571	-0.124	-0.250
-746.185	-200.000	-0.031	0.225
-745.171	34.862	-0.248	-0.219
-744.156	-91.844	0.267	0.076
-743.142	-200.000	-0.050	-0.227
-742.127	-130.033	-0.188	-0.026
-741.112	-182.661	-0.249	-0.005
-740.098	148.104	-0.325	0.442
-739.083	-155.794	-0.168	-0.011
-738.069	800.000	-0.024	0.077
-737.054	119.987	-0.100	0.125
-736.039	7.200	-0.403	-0.304
-735.025	53.758	0.249	-0.242
-734.010	-100.133	-0.335	-0.084
-732.996	-70.089	-0.176	-0.068
-731.981	800.000	-0.053	-0.224
-730.966	172.685	-0.216	-0.313
-729.952	550.230	-0.183	-0.444
-728.937	-200.000	0.015	0.130
-727.923	122.001	0.153	0.193
-726.908	41.562	-0.304	-0.277
-725.894	566.688	0.038	0.092
-724.879	626.916	-0.104	-0.265
-723.864	33.691	0.214	-0.188
-722.850	-200.000	-0.017	-0.258
-721.835	59.028	-0.170	0.168
-720.821	-182.419	-0.190	-0.004
-719.806	44.337	-0.128	0.119
-718.791	-38.524	0.196	0.104
-717.777	-59.958	-0.101	-0.044
-716.762	104.698	0.013	0.016
-715.748	-18.271	0.013	-0.008
-714.733	-82.385	0.128	-0.042
-713.718	197.956	0.062	-0.096
-712.704	-86.702	0.286	-0.088
-711.689	-117.062	0.116	-0.021
-710.675	76.710	-0.164	0.175
-709.660	-121.637	0.431	-0.072
-708.645	-63.852	0.083	-0.034
-707.631	-13.403	0.170	0.111
-706.616	361.911	0.094	0.189
-705.602	800.000	0.044	-0.161
-704.587	505.818	-0.023	0.055
-703.572	-200.000	0.029	0.223
-702.558	-73.322	-0.080	0.029
-701.543	243.010	-0.177	0.299
-700.529	-200.000	0.022	0.306
-699.514	-74.485	0.194	-0.070
-698.499	-38.743	-0.160	-0.085
-697.485	327.873	0.033	0.065
-696.470	-87.296	-0.064	-0.020
-695.456	-132.273	-0.305	0.040
-694.441	-136.695	-0.016	-0.002
-693.426	56.286	0.135	0.132
-692.412	387.042	0.075	-0.157
-691.397	13.262	-0.052	-0.040
-690.383	-92.055	-0.397	-0.113
-689.368	800.000	0.045	0.167
-688.354	4.974	0.056	-0.041
-687.339	-87.424	-0.295	-0.090
-686.324	23.489	-0.116	-0.096
-685.310	127.342	0.064	0.082
-684.295	-200.000	-0.015	-0.188
-683.281	-200.000	0.058	-0.383
-682.266	344.217	-0.026	-0.051
-681.251	233.776	-0.109	0.181
-680.237	800.000	-0.033	0.127
-679.222	-106.146	0.396	-0.089
-678.208	56.713	-0.220	-0.215
-677.193	-153.912	-0.421	0.029
-676.178	42.695	-0.335	0.307
-675.164	6.345	-0.034	0.025
-674.149	14.513	0.257	0.202
-673.135	-96.283	-0.532	-0.142
-672.120	-175.509	-0.039	0.001
-671.105	800.000	0.033	0.138
-670.091	800.000	0.043	-0.136
-669.076	330.316	0.034	-0.066
-668.062	597.039	-0.056	-0.141
-667.047	364.866	0.081	0.164
-666.032	-200.000	0.032	0.272
-665.018	-200.000	0.024	-0.118
-664.003	-65.478	-0.203	0.082
-662.989	605.354	0.081	0.203
-661.974	-26.563	0.026	0.015
-660.959	-65.272	-0.056	-0.023
-659.945	64.916	0.053	-0.053
-658.930	85.410	0.143	0.158
-657.916	-10.624	-0.085	-0.057
-656.901	-23.372	0.311	-0.188
-655.886	-200.000	0.156	0.001
-654.872	280.463	0.207	0.371
-653.857	161.068	-0.054	-0.076
-652.843	128.058	-0.195	0.250
-651.828	81.983	0.109	0.119
-650.814	441.488	-0.130	-0.285
-649.799	-27.623	-0.317	-0.185
-648.784	800.000	-0.109	-0.471
-647.770	132.480	0.233	-0.302
-646.755	215.970	0.091	-0.146
-645.741	99.827	-0.320	0.372
-644.726	120.403	0.124	0.155
-643.711	-49.541	0.303	-0.145
-642.697	-200.000	-0.018	0.083
-641.682	-200.000	-0.025	-0.379
-640.668	-126.889	0.164	0.024
-639.653	-88.120	0.025	0.007
-638.638	-111.825	-0.239	-0.048
-637.624	236.327	0.113	-0.188
-636.609	16.510	0.270	-0.215
-635.595	-200.000	-0.106	-0.000
-634.580	-36.592	-0.150	0.081
-633.565	-105.794	0.195	0.044
-632.551	112.117	-0.182	-0.220
-631.536	42.279	0.089	0.081
-630.522	60.338	0.147	-0.146
-629.507	-4.192	-0.099	-0.069
-628.492	-101.375	-0.204	0.050
-627.478	50.055	0.163	0.155
-626.463	271.445	0.076	-0.134
-625.449	-98.251	0.316	-0.081
-624.434	446.059	-0.214	0.472
-623.419	-97.841	-0.375	0.097
-622.405	-119.084	-0.175	-0.031
-621.390	31.006	0.088	0.076
-620.376	27.317	0.113	-0.095
-619.361	177.983	-0.227	0.333
-618.346	120.203	0.175	-0.218
-617.332	800.000	-0.058	0.255
-616.317	33.723	-0.040	0.035
-615.303	-63.471	0.184	0.076
-614.288	800.000	0.077	-0.332
-613.273	-73.385	-0.338	-0.124
-612.259	426.826	0.064	-0.139
-611.244	-78.959	0.269	-0.092
-610.230	-121.329	0.145	-0.024
-609.215	0.562	0.216	-0.155
-608.201	-91.377	0.193	-0.055
-607.186	0.300	-0.309	0.221
-606.171	363.575	0.022	-0.045
-605.157	-156.281	-0.104	0.007
-604.142	-200.000	-0.009	-0.063
-603.128	-150.119	0.109	0.008
-602.113	126.181	-0.138	-0.175
-601.098	-106.894	-0.089	-0.020
-600.084	103.785	-0.171	0.202
-599.069	-15.778	-0.121	-0.078
-598.055	-100.528	-0.497	0.123
-597.040	58.961	0.185	-0.182
-596.025	-194.323	-0.240	0.002
-595.011	-200.000	-0.056	-0.427
-593.996	-42.759	0.448	-0.228
-592.982	-48.115	0.244	-0.118
-591.967	52.469	-0.299	-0.287
-590.952	-113.443	-0.167	0.033
-589.938	-99.837	0.273	-0.068
-588.923	-158.127	-0.159	0.009
-587.909	-1.935	-0.122	0.086
-586.894	-60.172	-0.092	0.039
-585.879	71.094	-0.160	0.166
-584.865	800.000	0.031	-0.089
-583.850	-200.000	0.001	0.167
-582.836	-45.718	-0.158	-0.078
-581.821	97.641	0.165	-0.190
-580.806	-174.183	-0.304	-0.009
-579.792	-128.837	0.140	0.020
-578.777	438.076	-0.139	-0.303
-577.763	-200.000	-0.008	-0.220
-576.748	305.288	-0.111	-0.207
-575.733	800.000	-0.095	-0.392
-574.719	800.000	0.093	-0.338
-573.704	326.197	-0.054	0.105
-572.690	281.132	0.185	0.332
-571.675	1.665	-0.191	0.138
-570.661	800.000	0.119	-0.368
-569.646	-29.143	0.351	0.202
-568.631	238.500	-0.152	0.254
-567.617	110.232	-0.073	-0.088
-566.602	-68.045	-0.138	-0.054
-565.588	99.329	0.265	-0.307
-564.573	156.876	-0.196	0.272
-563.558	413.513	0.049	-0.105
-562.544	18.706	-0.211	-0.169
-561.529	-111.767	0.143	-0.029
-560.515	-101.450	-0.334	-0.082
-559.500	-200.000	-0.024	-0.107
-558.485	-112.411	-0.600	-0.120
-557.471	41.296	0.020	0.018
-556.456	79.835	0.057	-0.062
-555.442	492.038	0.125	-0.286
-554.427	154.538	0.153	0.211
-553.412	-70.648	-0.481	0.182
-552.398	-37.140	0.058	-0.031
-551.383	-100.095	0.219	0.055
-550.369	-157.896	-0.188	0.011
-549.354	-102.614	-0.139	-0.033
-548.339	-52.525	-0.291	0.135
-547.325	-23.216	0.028	-0.017
-546.310	171.331	-0.111	0.160
-545.296	245.407	-0.185	0.312
-544.281	135.609	-0.108	-0.141
-543.266	92.675	-0.178	0.201
-542.252	-73.046	0.236	-0.087
-541.237	-161.687	-0.084	-0.004
-540.223	-28.661	-0.126	-0.073
-539.208	-53.257	0.297	-0.136
-538.193	-16.301	-0.104	-0.066
-537.179	-105.577	-0.500	0.113
-536.164	66.948	0.224	-0.228
-535.150	462.275	0.116	0.259
-534.135	-73.351	-0.219	0.080
-533.121	-53.433	-0.027	0.012
-532.106	43.845	0.175	0.160
-531.091	19.938	-0.168	-0.135
-530.077	-8.124	-0.373	-0.251
-529.062	-12.061	-0.081	0.053
-528.048	-82.691	-0.226	-0.073
-527.033	-119.644	-0.115	0.020
-526.018	-200.000	-0.023	0.247
-525.004	-200.000	0.037	0.384
-523.989	-52.169	0.139	0.064
-522.975	256.620	-0.182	0.312
-521.960	800.000	-0.036	-0.110
-520.945	-37.687	0.074	0.039
-519.931	-200.000	0.000	0.111
-518.916	127.454	0.108	0.137
-517.902	-200.000	0.006	-0.218
-516.887	259.498	-0.133	-0.229
-515.872	800.000	-0.036	0.123
-514.858	800.000	-0.002	-0.006
-513.843	-6.915	0.218	-0.148
-512.829	-124.979	0.116	0.018
-511.814	43.054	0.161	0.147
-510.799	359.354	0.029	0.059
-509.785	-142.126	-0.027	0.003
-508.770	0.825	0.267	-0.191
-507.756	-109.962	-0.289	-0.060
-506.741	-147.199	0.109	-0.009
-505.726	144.538	-0.189	-0.253
-504.712	-62.684	-0.323	-0.134
-503.697	-47.561	0.200	0.097
-502.683	123.872	-0.262	0.329
-501.668	800.000	-0.037	0.131
-500.653	-92.376	-0.250	0.070
-499.639	90.921	0.217	-0.243
-498.624	-147.691	0.179	0.015
-497.610	-200.000	0.069	0.331
-496.595	74.186	0.127	-0.133
-495.581	176.434	0.077	-0.111
-494.566	-125.383	-0.321	0.049
-493.551	-200.000	0.018	-0.112
-492.537	-49.582	-0.115	-0.055
-491.522	142.498	0.123	0.163
-490.508	-112.966	-0.205	-0.040
-489.493	-80.275	-0.104	0.035
-488.478	475.729	0.086	-0.195
-487.464	-94.010	0.360	0.099
-486.449	-200.000	0.059	0.299
-485.435	6.951	-0.357	-0.266
-484.420	-29.909	-0.200	0.114
-483.405	199.646	-0.331	-0.508
-482.391	64.625	0.127	-0.128
-481.376	-41.122	-0.135	0.070
-480.362	23.577	0.046	0.038
-479.347	-14.423	-0.373	0.240
-478.332	-93.128	-0.155	0.043
-477.318	-89.993	0.035	-0.010
-476.303	202.195	-0.053	0.082
-475.289	356.579	0.115	-0.228
-474.274	-78.415	0.138	-0.047
-473.259	-39.513	-0.359	-0.188
-472.245	-97.993	-0.176	0.045
-471.230	-118.591	0.295	-0.052
-470.216	108.083	-0.031	-0.037
-469.201	-200.000	0.039	-0.236
-468.186	-38.505	-0.054	-0.029
-467.172	188.864	-0.161	-0.241
-466.157	713.202	0.049	0.129
-465.143	22.970	-0.238	-0.195
-464.128	800.000	0.068	-0.261
-463.113	273.545	-0.104	0.184
-462.099	-115.173	0.451	0.085
-461.084	-39.401	-0.081	0.042
-460.070	144.294	0.082	0.109
-459.055	800.000	-0.007	0.031
-458.040	-185.973	0.210	-0.003
-457.026	-28.676	0.195	0.112
-456.011	800.000	-0.084	0.353
-454.997	-11.669	-0.066	0.043
-453.982	85.528	0.096	0.106
-452.968	-81.142	-0.117	0.038
-451.953	78.386	0.181	-0.193
-450.938	800.000	0.129	0.469
-449.924	65.517	-0.232	-0.234
-448.909	-190.197	-0.096	0.001
-447.895	-30.738	-0.242	-0.137
-446.880	-154.328	0.144	0.010
-445.865	-47.588	0.300	0.145
-444.851	90.404	-0.097	-0.109
-443.836	-200.000	-0.038	-0.483
-442.822	85.214	-0.070	0.077
-441.807	46.826	-0.147	-0.136
-440.792	81.017	-0.207	0.222
-439.778	410.601	0.111	0.235
-438.763	-200.000	0.042	0.323
-437.749	-56.921	0.284	0.125
-436.734	-200.000	0.033	-0.451
-435.719	-105.181	-0.191	0.043
-434.705	800.000	-0.154	0.434
-433.690	800.000	-0.037	-0.120
-432.676	293.179	0.140	0.254
-431.661	-151.092	-0.159	0.012
-430.646	-83.184	0.034	-0.011
-429.632	-97.964	-0.079	0.020
-428.617	-155.847	-0.252	0.016
-427.603	48.115	0.226	-0.211
-426.588	11.010	0.225	-0.171
-425.573	-61.104	0.202	0.085
-424.559	800.000	0.059	0.197
-423.544	33.257	-0.058	0.050
-422.530	800.000	0.041	-0.176
-421.515	-115.243	0.135	-0.025
-420.500	-60.804	-0.028	-0.012
-419.486	-37.587	0.280	0.149
-418.471	-75.719	0.210	0.074
-417.457	-179.670	-0.179	0.004
-416.442	-98.225	0.045	0.012
-415.428	-200.000	0.058	0.268
-414.413	-21.827	-0.086	0.052
-413.398	108.008	0.134	0.159
-412.384	57.749	-0.194	0.189
-411.369	-103.797	0.042	-0.010
-410.355	107.303	0.136	-0.161
-409.340	-40.528	-0.110	-0.057
-408.325	42.861	0.324	-0.294
-407.311	-91.313	0.275	-0.078
-406.296	98.604	0.115	-0.132
-405.282	201.072	0.180	-0.275
-404.267	26.038	-0.142	-0.118
-403.252	5.849	0.006	0.005
-402.238	800.000	0.032	0.107
-401.223	47.146	0.064	0.059
-400.209	4.611	0.137	0.100
-399.194	169.466	-0.123	-0.175
-398.179	190.217	-0.123	-0.184
-397.165	800.000	-0.120	0.331
-396.150	94.780	0.068	-0.077
-395.136	-200.000	0.035	-0.172
-394.121	32.050	0.062	0.053
-393.106	170.924	-0.212	0.302
-392.092	-132.278	0.253	-0.033
-391.077	-200.000	0.012	0.165
-390.063	-48.733	-0.313	0.150
-389.048	31.684	0.190	-0.162
-388.033	-200.000	0.052	-0.300
-387.019	-91.126	0.316	-0.090
-386.004	-104.042	0.008	0.002
-384.990	626.130	0.104	-0.262
-383.975	-81.779	-0.461	0.150
-382.960	-7.089	0.202	0.136
-381.946	-178.039	0.139	0.003
-380.931	47.207	0.400	-0.370
-379.917	-126.881	-0.189	0.028
-378.902	277.659	-0.048	-0.085
-377.888	164.744	0.024	-0.034
-376.873	-105.874	-0.203	-0.046
-375.858	800.000	-0.055	-0.160
-374.844	800.000	-0.145	-0.409
-373.829	-39.075	0.254	-0.133
-372.815	-200.000	0.022	-0.183
-371.800	86.176	0.188	0.206
-370.785	439.421	-0.175	0.379
-369.771	800.000	0.080	0.331
-368.756	-155.702	-0.270	0.017
-367.742	60.274	-0.180	-0.177
-366.727	-200.000	0.007	-0.164
-365.712	-77.953	-0.279	-0.096
-364.698	-25.827	-0.344	0.201
-363.683	576.661	0.060	-0.146
-362.669	83.081	-0.070	0.076
-361.654	453.899	-0.064	-0.142
-360.639	97.893	0.219	0.251
-359.625	53.199	-0.206	0.197
-358.610	-200.000	-0.009	-0.164
-357.596	704.761	-0.066	-0.174
-356.581	19.216	0.135	0.107
-355.566	-200.000	-0.017	0.112
-354.552	179.013	0.284	0.413
-353.537	729.758	-0.060	0.159
-352.523	213.098	-0.068	-0.106
-351.508	800.000	0.109	0.358
-350.493	-86.032	0.166	-0.051
-349.479	244.027	0.238	0.397
-348.464	181.550	0.136	0.198
-347.450	53.206	-0.051	0.048
-346.435	-163.878	0.115	-0.005
-345.420	118.394	0.306	0.375
-344.406	-140.851	0.425	-0.043
-343.391	277.422	-0.027	-0.048
-342.377	244.706	0.123	-0.205
-341.362	123.371	-0.061	0.076
-340.348	-200.000	-0.005	0.051
-339.333	-121.292	0.148	-0.025
-338.318	397.309	0.025	-0.051
-337.304	148.042	0.176	0.236
-336.289	800.000	-0.069	-0.262
-335.275	-132.819	0.482	0.061
-334.260	-200.000	-0.006	-0.073
-333.245	-94.577	0.223	0.060
-332.231	-160.497	0.393	-0.021
-331.216	10.602	-0.082	0.062
-330.202	205.593	0.182	-0.280
-329.187	800.000	0.096	0.375
-328.172	-6.262	0.385	-0.261
-327.158	-116.502	0.130	-0.024
-326.143	-94.038	-0.193	0.053
-325.129	800.000	0.021	0.076
-324.114	-16.133	0.221	-0.139
-323.099	-200.000	0.034	-0.237
-322.085	135.180	-0.119	0.154
-321.070	-200.000	-0.010	0.135
-320.056	55.378	0.227	-0.218
-319.041	240.889	-0.142	-0.235
-318.026	-72.188	-0.273	0.100
-317.012	14.411	0.231	0.179
-315.997	497.260	0.038	0.086
-314.983	40.353	-0.076	-0.068
-313.968	38.717	-0.208	-0.184
-312.953	-22.349	0.289	0.174
-311.939	-162.135	-0.155	0.008
-310.924	-200.000	0.000	-0.077
-309.910	-20.441	-0.165	0.101
-308.895	98.245	-0.076	0.087
-307.880	800.000	-0.036	0.099
-306.866	-12.047	-0.326	-0.212
-305.851	-2.293	-0.062	0.043
-304.837	800.000	-0.063	0.226
-303.822	-68.334	0.142	-0.055
-302.807	-19.262	-0.330	-0.203
-301.793	-1.243	0.217	0.152
-300.778	662.810	0.106	-0.270
-299.764	-95.578	-0.344	-0.091
-298.749	98.470	-0.100	-0.114
-297.735	-200.000	0.060	-0.262
-296.720	-94.957	-0.154	-0.041
-295.705	-200.000	-0.004	0.049
-294.691	-116.460	0.203	-0.037
-293.676	-90.954	-0.315	0.090
-292.662	-172.236	0.265	-0.008
-291.647	800.000	-0.034	-0.109
-290.632	-200.000	-0.020	-0.276
-289.618	-133.333	-0.265	-0.033
-288.603	-61.817	-0.223	0.093
-287.589	98.271	0.316	0.361
-286.574	-70.229	-0.526	-0.198
-285.559	800.000	0.037	0.154
-284.545	-32.370	0.063	0.035
-283.530	219.985	0.050	-0.079
-282.516	-49.170	0.592	0.280
-281.501	302.009	0.129	0.236
-280.486	18.287	0.326	-0.258
-279.472	-119.166	0.183	0.032
-278.457	-200.000	0.004	0.205
-277.443	-111.822	-0.178	0.036
-276.428	74.094	-0.086	-0.089
-275.413	-33.454	-0.196	-0.107
-274.399	-99.789	0.167	0.041
-273.384	-72.028	-0.003	0.001
-272.370	340.280	-0.203	-0.393
-271.355	59.462	-0.066	-0.065
-270.340	-14.908	0.182	0.116
-269.326	-82.282	-0.277	0.089
-268.311	359.162	-0.136	0.269
-267.297	-200.000	0.035	0.332
-266.282	233.298	-0.078	0.127
-265.267	-47.809	0.130	0.062
-264.253	800.000	0.055	-0.200
-263.238	119.743	0.161	-0.197
-262.224	-68.847	-0.077	0.030
-261.209	-200.000	0.025	-0.117
-260.195	113.943	-0.111	-0.134
-259.180	185.132	0.205	0.301
-258.165	107.821	-0.120	0.142
-257.151	36.528	-0.303	-0.265
-256.136	-200.000	-0.025	-0.169
-255.122	211.277	-0.282	0.440
-254.107	131.527	-0.083	0.106
-253.092	-149.112	0.186	-0.015
-252.078	222.686	-0.139	-0.222
-251.063	-40.689	-0.201	-0.103
-250.049	0.034	-0.130	-0.091
-249.034	33.737	0.253	0.218
-248.019	-200.000	-0.016	-0.169
-247.005	483.416	-0.104	-0.234
-245.990	800.000	-0.048	0.163
-244.976	-200.000	0.079	0.499
-243.961	212.948	0.155	-0.243
-242.946	71.362	-0.058	-0.059
-241.932	-145.916	0.115	0.010
-240.917	399.040	-0.044	0.091
-239.903	51.841	0.382	0.360
-238.888	60.549	-0.159	-0.156
-237.873	800.000	0.111	0.393
-236.859	-93.302	0.090	-0.025
-235.844	152.316	-0.112	0.152
-234.830	-99.571	-0.357	-0.089
-233.815	108.758	-0.092	0.108
-232.800	-107.181	-0.310	0.068
-231.786	137.573	0.102	-0.133
-230.771	-33.561	0.195	0.106
-229.757	-200.000	0.025	-0.114
-228.742	-109.701	0.079	-0.016
-227.727	128.915	0.299	-0.378
-226.713	-180.189	-0.286	0.006
-225.698	-177.908	0.218	-0.005
-224.684	32.045	0.156	0.133
-223.669	-166.812	0.434	0.018
-222.655	-113.997	-0.230	-0.044
-221.640	-14.504	-0.318	-0.202
-220.625	-137.772	-0.430	0.048
-219.611	-23.417	-0.450	-0.267
-218.596	-19.326	-0.231	-0.141
-217.582	-200.000	-0.024	0.171
-216.567	-200.000	-0.018	-0.352
-215.552	-82.113	0.392	-0.126
-214.538	778.655	-0.015	-0.039
-213.523	800.000	0.080	0.292
-212.509	436.624	0.091	0.197
-211.494	-40.389	0.081	0.042
-210.479	503.062	-0.147	0.336
-209.465	-200.000	0.000	0.124
-208.450	-45.012	0.146	-0.072
-207.436	-114.182	0.136	0.026
-206.421	-200.000	-0.014	0.448
-205.406	-109.923	0.460	-0.095
-204.392	-157.151	0.148	-0.009
-203.377	-45.549	-0.127	0.062
-202.363	40.789	-0.132	0.118
-201.348	-200.000	-0.007	0.275
-200.333	7.629	0.165	-0.122
-199.319	-200.000	0.055	-0.327
-198.304	84.890	-0.146	-0.159
-197.290	151.510	-0.172	0.231
-196.275	161.921	0.191	0.265
-195.260	800.000	0.086	0.328
-194.246	118.453	0.066	0.081
-193.231	-30.985	0.116	0.065
-192.217	-200.000	-0.016	-0.115
-191.202	-27.002	0.486	0.280
-190.187	71.634	-0.083	-0.085
-189.173	540.794	0.041	-0.095
-188.158	-23.938	-0.243	0.143
-187.144	-15.426	0.190	0.120
-186.129	-94.569	-0.233	-0.063
-185.114	-200.000	-0.059	0.332
-184.100	-191.188	0.323	0.003
-183.085	-200.000	-0.043	0.281
-182.071	340.515	-0.125	0.241
-181.056	644.299	0.170	0.429
-180.042	-200.000	-0.059	-0.276
-179.027	-169.502	0.193	-0.007
-178.012	-72.053	0.087	-0.032
-176.998	-126.774	0.288	-0.042
-175.983	334.321	-0.069	0.132
-174.969	274.072	0.050	-0.087
-173.954	-200.000	0.013	0.405
-172.939	10.706	0.138	0.104
-171.925	66.245	0.177	0.177
-170.910	-52.556	0.102	-0.047
-169.896	-138.612	0.152	0.016
-168.881	-35.977	0.173	-0.092
-167.866	209.946	-0.011	0.017
-166.852	379.659	0.063	-0.128
-165.837	583.818	-0.031	0.076
-164.823	-9.517	-0.114	-0.075
-163.808	194.137	-0.069	0.103
-162.793	-200.000	-0.006	-0.048
-161.779	-121.367	0.255	-0.042
-160.764	800.000	0.016	-0.052
-159.750	261.343	-0.147	-0.251
-158.735	51.629	0.146	0.137
-157.720	-81.776	0.201	-0.065
-156.706	-49.569	-0.299	0.140
-155.691	-156.444	0.217	-0.013
-154.677	41.929	-0.244	-0.219
-153.662	345.215	0.172	-0.333
-152.647	800.000	-0.058	-0.247
-151.633	800.000	-0.028	0.077
-150.618	455.952	-0.101	0.221
-149.604	308.952	-0.141	0.260
-148.589	164.070	0.177	0.246
-147.574	249.034	0.104	-0.175
-146.560	800.000	-0.055	0.166
-145.545	554.368	-0.101	0.239
-144.531	-200.000	-0.004	-0.354
-143.516	57.180	-0.229	0.220
-142.502	48.121	0.158	-0.146
-141.487	-40.035	-0.108	-0.056
-140.472	-77.476	0.109	0.037
-139.458	501.816	-0.124	0.281
-138.443	-200.000	0.047	0.216
-137.429	-75.074	0.138	-0.049
-136.414	-111.668	0.146	0.029
-135.399	-200.000	0.044	-0.398
-134.385	378.790	-0.051	0.103
-133.370	69.171	0.138	-0.140
-132.356	1.661	0.261	-0.185
-131.341	99.989	0.069	0.079
-130.326	-169.927	0.109	-0.004
-129.312	206.295	-0.162	0.248
-128.297	-56.595	0.264	0.115
-127.283	-200.000	0.029	0.215
-126.268	383.682	0.152	0.308
-125.253	800.000	-0.029	0.087
-124.239	259.100	-0.264	-0.448
-123.224	-199.626	-0.025	-0.000
-122.210	144.210	-0.052	-0.068
-121.195	254.670	-0.120	-0.202
-120.180	1.567	0.135	-0.095
-119.166	-200.000	0.001	0.005
-118.151	-97.324	-0.520	0.133
-117.137	-61.495	0.465	-0.192
-116.122	246.142	0.198	0.329
-115.107	800.000	0.219	-0.601
-114.093	-10.165	-0.234	0.153
-113.078	-122.181	0.303	0.049
-112.064	-200.000	0.009	0.094
-111.049	-28.476	0.075	0.043
-110.034	-48.871	-0.278	-0.131
-109.020	148.409	0.035	-0.046
-108.005	-200.000	-0.034	0.185
-106.991	-131.442	0.275	0.036
-105.976	-122.700	-0.211	-0.034
-104.962	-174.291	0.431	-0.012
-103.947	192.583	0.076	-0.112
-102.932	-200.000	0.001	0.117
-101.918	443.484	-0.076	0.164
-100.903	478.048	0.153	0.340
-99.889	-163.318	0.536	0.025
-98.874	524.672	0.031	-0.073
-97.859	-92.830	0.501	0.138
-96.845	-115.755	-0.198	-0.036
-95.830	-51.003	0.290	0.134
-94.816	-73.080	0.069	0.025
-93.801	32.957	-0.162	-0.138
-92.786	16.365	-0.053	-0.042
-91.772	-200.000	0.003	0.139
-90.757	-19.452	-0.108	-0.066
-89.743	-200.000	0.006	0.203
-88.728	-200.000	0.009	-0.054
-87.713	-37.545	-0.114	0.060
-86.699	800.000	0.092	-0.298
-85.684	800.000	-0.048	0.156
-84.670	-59.271	0.367	0.156
-83.655	-102.518	-0.231	-0.054
-82.640	800.000	0.043	0.133
-81.626	-106.925	0.084	-0.018
-80.611	54.703	0.467	0.443
-79.597	137.645	-0.038	0.049
-78.582	-200.000	-0.076	0.364
-77.567	-54.395	-0.384	0.171
-76.553	745.911	0.085	0.226
-75.538	-124.296	-0.085	0.013
-74.524	-71.628	-0.173	0.063
-73.509	146.414	0.222	0.293
-72.494	-106.777	-0.167	0.036
-71.480	800.000	0.053	-0.210
-70.465	-50.116	-0.345	-0.161
-69.451	-82.588	0.170	-0.054
-68.436	49.769	-0.245	-0.227
-67.422	95.848	0.087	0.098
-66.407	0.343	0.118	0.082
-65.392	98.368	0.074	-0.084
-64.378	-200.000	-0.032	0.149
-63.363	800.000	-0.037	0.149
-62.349	-200.000	0.002	0.113
-61.334	51.231	-0.964	-0.899
-60.319	236.481	0.184	0.300
-59.305	-200.000	-0.052	-0.914
-58.290	701.307	0.426	1.102
-57.276	323.572	0.857	1.606
-56.261	-200.000	97.995	590.852
-55.246	571.797	1382.730	3308.188
-54.232	154.118	2593.005	3493.906
-53.217	110.944	2282.645	2699.199
-52.203	44.422	1898.785	1712.872
-51.188	38.022	1687.492	1474.064
-50.173	35.171	1642.729	1413.904
-49.159	53.714	1691.848	1595.333
-48.144	57.050	1709.889	1637.201
-47.130	37.750	1665.133	1452.275
-46.115	34.882	1649.652	1417.495
-45.100	34.604	1645.088	1411.466
-44.086	34.512	1642.562	1408.560
-43.071	34.530	1640.126	1406.551
-42.057	34.527	1637.564	1404.276
-41.042	34.547	1635.541	1402.629
-40.027	34.519	1633.830	1400.905
-39.013	34.456	1631.736	1398.586
-37.998	34.605	1629.786	1397.955
-36.984	34.550	1628.722	1396.583
-35.969	34.625	1627.016	1395.615
-34.954	34.710	1625.111	1394.542
-33.940	34.745	1623.415	1393.289
-32.925	34.598	1622.082	1391.016
-31.911	34.590	1620.659	1389.687
-30.896	34.624	1618.483	1388.013
-29.881	34.691	1617.034	1387.203
-28.867	34.666	1615.292	1385.466
-27.852	34.673	1613.740	1384.130
-26.838	34.702	1612.190	1382.960
-25.823	34.710	1611.099	1382.023
-24.809	34.785	1609.415	1381.067
-23.794	34.739	1607.921	1379.402
-22.779	34.778	1606.359	1378.288
-21.765	34.747	1605.053	1376.885
-20.750	34.647	1603.846	1375.077
-19.736	34.699	1602.245	1374.025
-18.721	34.755	1600.440	1372.826
-17.706	34.774	1598.487	1371.232
-16.692	34.715	1597.101	1369.564
-15.677	34.673	1596.343	1368.555
-14.663	34.693	1594.768	1367.299
-13.648	34.653	1593.392	1365.778
-12.633	34.761	1591.947	1365.257
-11.619	34.823	1589.938	1363.921
-10.604	34.711	1588.866	1362.151
-9.590	34.681	1587.489	1360.702
-8.575	34.777	1586.318	1360.328
-7.560	34.816	1585.116	1359.522
-6.546	34.767	1583.748	1357.940
-5.531	34.679	1583.263	1356.851
-4.517	34.620	1581.884	1355.191
-3.502	34.656	1580.908	1354.560
-2.487	34.785	1579.075	1353.852
-1.473	34.576	1567.381	1342.303
-0.458	31.733	1548.514	1306.297
0.556	28.395	1548.731	1275.469
1.571	26.007	1572.995	1278.434
2.586	25.547	1586.893	1286.323
3.600	22.890	1533.349	1224.421
4.615	12.972	1421.409	1070.870
5.629	3.762	1353.528	962.487
6.644	1.947	1345.139	945.195
7.659	1.781	1343.749	943.108
8.673	1.761	1342.407	941.960
9.688	1.651	1340.731	940.020
10.702	1.485	1337.234	936.459
11.717	5.097	1344.668	963.930
12.731	15.466	1364.233	1042.571
13.746	23.851	1378.349	1105.651
14.761	25.864	1380.534	1119.835
15.775	26.084	1380.646	1121.192
16.790	26.189	1380.090	1121.294
17.804	26.117	1380.216	1120.852
18.819	26.516	1379.332	1122.509
19.834	26.510	1378.751	1121.899
20.848	26.566	1378.162	1121.667
21.863	26.605	1376.943	1120.818
22.877	26.581	1376.368	1120.100
23.892	26.545	1375.586	1119.143
24.907	26.568	1374.240	1118.093
25.921	26.665	1373.290	1117.816
26.936	26.550	1372.386	1116.275
27.950	26.548	1371.937	1115.797
28.965	26.591	1370.380	1114.701
29.980	26.538	1369.096	1113.229
30.994	26.667	1367.610	1112.712
32.009	26.550	1366.565	1111.047
33.023	26.576	1365.533	1110.271
34.038	26.563	1364.281	1109.074
35.053	26.618	1363.182	1108.417
36.067	26.583	1362.423	1107.490
37.082	26.682	1361.721	1107.424
38.096	26.575	1360.823	1105.942
39.111	26.527	1360.121	1104.981
40.126	26.637	1359.029	1104.671
41.140	26.581	1358.715	1103.973
42.155	26.619	1358.398	1103.848
43.169	26.519	1358.294	1103.061
44.184	26.408	1358.412	1102.381
45.199	26.548	1357.639	1102.511
46.213	26.574	1356.568	1101.702
47.228	26.576	1356.430	1101.504
48.242	26.591	1355.171	1100.475
49.257	26.560	1353.642	1098.949
50.271	26.528	1352.584	1097.795
51.286	26.455	1351.332	1096.244
52.301	26.541	1349.550	1095.218
53.315	26.611	1348.241	1094.482
54.330	26.518	1348.267	1093.847
55.344	26.495	1346.706	1092.340
56.359	26.517	1345.748	1091.599
57.374	26.481	1345.272	1090.898
58.388	26.494	1344.583	1090.323
59.403	26.534	1344.177	1090.139
60.417	26.553	1343.073	1089.262
61.432	26.622	1342.717	1089.291
62.447	26.536	1341.706	1087.858
63.461	26.511	1340.856	1086.923
64.476	26.544	1340.021	1086.346
65.490	26.516	1338.591	1084.927
66.505	26.528	1336.976	1083.591
67.520	26.537	1336.352	1083.042
68.534	26.653	1334.687	1082.295
69.549	26.555	1334.131	1081.158
70.563	26.550	1333.398	1080.444
71.578	26.573	1332.244	1079.548
72.593	26.616	1330.917	1078.634
73.607	26.669	1330.970	1078.897
74.622	26.620	1329.749	1077.519
75.636	26.702	1329.090	1077.379
76.651	26.623	1328.069	1075.985
77.666	26.564	1328.411	1075.818
78.680	26.566	1327.473	1074.974
79.695	26.615	1326.313	1074.231
80.709	26.598	1325.794	1073.612
81.724	26.507	1325.093	1072.410
82.739	26.634	1323.787	1072.013
83.753	26.580	1323.290	1071.195
84.768	26.589	1321.939	1070.059
85.782	26.592	1320.664	1068.953
86.797	26.588	1319.967	1068.269
87.812	26.546	1318.782	1066.970
88.826	26.541	1317.901	1066.129
89.841	26.680	1316.911	1066.051
90.855	26.716	1315.569	1065.084
91.870	26.584	1315.072	1063.812
92.884	26.584	1314.288	1063.080
93.899	26.588	1313.278	1062.197
94.914	26.648	1312.580	1061.887
95.928	26.541	1312.010	1060.708
96.943	26.554	1311.289	1060.105
97.957	26.701	1310.075	1059.893
98.972	26.579	1309.508	1058.626
99.987	26.657	1308.167	1057.902
101.001	26.588	1307.845	1057.145
102.016	26.696	1306.357	1056.480
103.030	26.554	1306.302	1055.513
104.045	26.642	1305.013	1054.893
105.060	26.607	1303.998	1053.774
106.074	26.588	1303.503	1053.172
107.089	26.635	1302.270	1052.354
108.103	26.645	1301.269	1051.510
109.118	26.691	1300.063	1050.707
110.133	26.796	1298.987	1050.358
111.147	26.771	1297.776	1049.138
112.162	26.674	1297.076	1047.920
113.176	26.636	1296.045	1046.775
114.191	26.701	1294.977	1046.196
115.206	26.615	1294.270	1045.035
116.220	26.645	1293.022	1044.105
117.235	26.664	1292.264	1043.509
118.249	26.675	1291.252	1042.665
119.264	26.752	1290.256	1042.209
120.279	26.802	1289.311	1041.644
121.293	26.769	1288.532	1040.732
122.308	26.626	1288.350	1039.669
123.322	26.810	1287.192	1039.701
124.337	26.652	1287.002	1038.550
125.352	26.858	1285.582	1038.491
126.366	26.820	1284.828	1037.573
127.381	26.796	1283.497	1036.271
128.395	26.798	1283.497	1036.188
129.410	26.771	1282.130	1034.839
130.424	26.735	1281.707	1034.202
131.439	26.730	1280.722	1033.284
132.454	26.712	1280.500	1032.914
133.468	26.657	1279.735	1031.893
134.483	26.824	1278.537	1031.786
135.497	26.756	1277.959	1030.840
136.512	26.693	1277.519	1030.037
137.527	26.862	1275.910	1029.605
138.541	26.789	1274.887	1028.276
139.556	26.785	1273.466	1027.017
140.570	26.755	1272.501	1025.976
141.585	26.719	1271.728	1025.058
142.600	26.765	1270.462	1024.206
143.614	26.701	1269.974	1023.364
144.629	26.835	1268.562	1022.890
145.643	26.681	1267.639	1021.189
146.658	26.626	1266.846	1020.149
147.673	26.610	1266.136	1019.397
148.687	26.651	1264.930	1018.564
149.702	26.684	1263.979	1017.896
150.716	26.719	1262.393	1016.723
151.731	26.621	1262.037	1015.797
152.746	26.630	1261.052	1014.963
153.760	26.642	1259.560	1013.744
154.775	26.757	1258.860	1013.731
155.789	26.743	1257.853	1012.753
156.804	26.757	1256.698	1011.814
157.819	26.705	1255.850	1010.752
158.833	26.807	1254.910	1010.471
159.848	26.821	1254.432	1010.073
160.862	26.810	1253.897	1009.493
161.877	26.824	1252.935	1008.709
162.892	26.807	1252.295	1008.012
163.906	26.813	1251.329	1007.176
164.921	26.821	1250.975	1006.848
165.935	26.792	1250.225	1005.993
166.950	26.806	1249.654	1005.524
167.964	26.829	1248.799	1004.874
168.979	26.837	1248.169	1004.323
169.994	26.915	1247.853	1004.409
171.008	26.847	1246.744	1003.050
172.023	26.891	1245.969	1002.582
173.037	26.948	1245.198	1002.188
174.052	26.833	1244.778	1001.128
175.067	26.839	1244.068	1000.499
176.081	26.888	1243.490	1000.218
177.096	26.754	1242.678	998.736
178.110	26.961	1241.174	998.577
179.125	26.908	1240.510	997.666
180.140	26.997	1239.069	996.906
181.154	26.929	1238.212	995.756
182.169	26.842	1237.251	994.416
183.183	26.906	1236.417	994.009
184.198	26.866	1235.576	993.030
185.213	26.983	1234.314	992.566
186.227	26.949	1233.668	991.770
187.242	26.954	1232.909	991.100
188.256	26.995	1231.914	990.437
189.271	26.930	1231.277	989.486
190.286	26.977	1230.383	988.935
191.300	26.934	1229.892	988.219
192.315	26.985	1229.341	987.966
193.329	26.972	1229.272	987.751
194.344	27.016	1228.437	987.229
195.359	26.897	1228.219	986.323
196.373	26.894	1227.513	985.653
197.388	26.943	1227.185	985.565
198.402	26.893	1227.339	985.331
199.417	27.027	1226.542	985.333
200.432	27.019	1225.534	984.393
201.446	26.953	1225.061	983.565
202.461	26.944	1224.259	982.787
203.475	26.895	1223.811	982.076
204.490	26.830	1223.027	981.007
205.504	26.992	1221.544	980.608
206.519	27.102	1220.566	980.326
207.534	27.074	1219.592	979.307
208.548	26.933	1218.925	977.927
209.563	27.008	1218.295	977.737
210.577	27.021	1217.534	977.109
211.592	27.088	1216.494	976.552
212.607	27.193	1215.664	976.359
213.621	26.949	1215.615	974.923
214.636	27.041	1214.839	974.713
215.650	27.067	1213.606	973.776
216.665	27.006	1212.735	972.663
217.680	27.057	1211.915	972.192
218.694	27.069	1210.615	971.130
219.709	27.062	1210.193	970.663
220.723	27.138	1209.971	970.806
221.738	26.966	1209.339	969.295
222.753	27.082	1208.473	969.136
223.767	27.024	1207.761	968.169
224.782	27.115	1207.361	968.249
225.796	27.040	1206.694	967.228
226.811	27.240	1205.642	967.365
227.826	27.280	1205.100	967.053
228.840	27.194	1204.649	966.150
229.855	27.166	1203.998	965.395
230.869	27.262	1203.080	965.082
231.884	27.142	1202.939	964.245
232.899	27.202	1201.960	963.697
233.913	27.182	1201.912	963.467
234.928	27.253	1201.392	963.341
235.942	27.245	1200.629	962.601
236.957	27.327	1199.497	962.042
237.972	27.199	1199.041	960.915
238.986	27.275	1198.407	960.722
240.001	27.371	1197.627	960.516
241.015	27.361	1197.026	959.897
242.030	27.276	1196.325	958.802
243.045	27.337	1195.365	958.269
244.059	27.352	1194.981	957.954
245.074	27.277	1194.321	956.946
246.088	27.328	1193.685	956.620
247.103	27.431	1192.321	955.983
248.117	27.351	1191.916	955.156
249.132	27.421	1190.952	954.668
250.147	27.412	1190.344	954.048
251.161	27.408	1189.644	953.378
252.176	27.412	1188.856	952.684
253.190	27.438	1188.482	952.435
254.205	27.411	1187.726	951.608
255.220	27.377	1187.307	951.010
256.234	27.423	1186.645	950.633
257.249	27.441	1185.775	949.949
258.263	27.332	1185.437	949.023
259.278	27.557	1184.757	949.569
260.293	27.490	1184.254	948.732
261.307	27.545	1183.795	948.565
262.322	27.435	1183.262	947.481
263.336	27.549	1182.590	947.453
264.351	27.546	1181.949	946.839
265.366	27.537	1181.133	946.055
266.380	27.457	1181.072	945.511
267.395	27.393	1180.080	944.301
268.409	27.402	1179.509	943.806
269.424	27.523	1178.532	943.569
270.439	27.512	1178.263	943.213
271.453	27.604	1177.573	943.051
272.468	27.519	1176.873	941.966
273.482	27.547	1176.147	941.446
274.497	27.501	1175.894	940.923
275.512	27.574	1175.239	940.694
276.526	27.426	1174.941	939.608
277.541	27.647	1173.105	939.195
278.555	27.580	1173.211	938.850
279.570	27.656	1172.498	938.591
280.585	27.581	1171.471	937.297
281.599	27.714	1170.993	937.519
282.614	27.653	1169.877	936.229
283.628	27.648	1168.802	935.261
284.643	27.565	1168.455	934.473
285.657	27.585	1167.379	933.630
286.672	27.572	1166.894	933.096
287.687	27.716	1165.681	932.780
288.701	27.673	1165.272	932.150
289.716	27.728	1164.348	931.611
290.730	27.682	1164.032	931.040
291.745	27.815	1162.927	930.749
292.760	27.694	1162.669	929.845
293.774	27.713	1162.402	929.647
294.789	27.792	1161.540	929.276
295.803	27.806	1160.866	928.727
296.818	27.884	1160.027	928.372
297.833	27.821	1159.726	927.727
298.847	27.873	1158.817	927.178
299.862	27.809	1158.057	926.166
300.876	27.768	1157.698	925.589
301.891	27.782	1157.187	925.168
302.906	27.896	1156.609	925.205
303.920	27.899	1155.750	924.448
304.935	27.907	1155.050	923.849
305.949	27.908	1154.140	923.042
306.964	27.836	1154.191	922.637
307.979	27.951	1153.598	922.662
308.993	27.991	1152.457	921.871
310.008	27.954	1151.874	921.136
311.022	27.938	1151.269	920.490
312.037	28.018	1150.088	919.869
313.052	28.024	1149.389	919.255
314.066	27.917	1148.651	918.050
315.081	27.912	1148.079	917.486
316.095	27.906	1147.652	917.033
317.110	28.018	1146.895	916.907
318.125	27.961	1146.257	916.030
319.139	27.935	1145.527	915.236
320.154	27.924	1145.231	914.862
321.168	28.061	1144.381	914.788
322.183	27.993	1143.875	913.962
323.197	28.030	1143.373	913.667
324.212	27.929	1143.332	913.048
325.227	28.124	1142.133	912.984
326.241	28.064	1141.765	912.310
327.256	28.033	1141.316	911.715
328.270	28.037	1140.257	910.807
329.285	28.030	1139.358	909.975
330.300	28.024	1138.659	909.308
331.314	27.998	1137.937	908.520
332.329	28.127	1137.349	908.612
333.343	28.118	1136.445	907.764
334.358	28.276	1135.210	907.478
335.373	28.236	1134.849	906.913
336.387	28.225	1134.101	906.179
337.402	28.267	1133.461	905.797
338.416	28.163	1133.098	904.914
339.431	28.254	1132.463	904.774
340.446	28.205	1131.926	904.022
341.460	28.361	1131.355	904.258
342.475	28.337	1130.043	903.008
343.489	28.390	1129.325	902.616
344.504	28.359	1128.409	901.654
345.519	28.338	1127.560	900.791
346.533	28.398	1126.930	900.504
347.548	28.465	1126.055	900.054
348.562	28.439	1125.321	899.260
349.577	28.379	1125.225	898.809
350.592	28.253	1124.277	897.354
351.606	28.321	1123.806	897.233
352.621	28.321	1123.487	896.896
353.635	28.370	1122.553	896.315
354.650	28.414	1121.787	895.840
355.665	28.413	1121.474	895.505
356.679	28.324	1120.739	894.403
357.694	28.411	1119.947	894.116
358.708	28.449	1119.231	893.651
359.723	28.398	1118.801	892.980
360.738	28.403	1118.106	892.370
361.752	28.515	1117.497	892.351
362.767	28.488	1117.226	891.922
363.781	28.571	1116.564	891.721
364.796	28.532	1116.063	891.052
365.810	28.549	1115.018	890.221
366.825	28.521	1115.007	889.998
367.840	28.648	1114.247	889.928
368.854	28.616	1113.792	889.332
369.869	28.671	1113.135	888.994
370.883	28.664	1111.989	887.966
371.898	28.708	1111.240	887.501
372.913	28.719	1111.039	887.316
373.927	28.591	1110.992	886.580
374.942	28.647	1110.199	886.137
375.956	28.559	1110.067	885.530
376.971	28.716	1108.884	885.266
377.986	28.655	1108.730	884.771
379.000	28.741	1108.062	884.572
380.015	28.737	1107.624	884.128
381.029	28.813	1106.627	883.620
382.044	28.932	1105.789	883.444
383.059	28.860	1105.644	882.902
384.073	28.753	1105.142	881.909
385.088	28.779	1103.744	880.842
386.102	28.693	1103.325	880.014
387.117	28.723	1102.340	879.296
388.132	28.710	1101.858	878.770
389.146	28.811	1100.643	878.210
390.161	28.841	1100.401	878.080
391.175	28.812	1099.751	877.346
392.190	28.809	1099.130	876.758
393.205	28.744	1098.568	875.924
394.219	28.839	1097.581	875.510
395.234	28.870	1096.563	874.769
396.248	28.873	1096.102	874.340
397.263	28.973	1095.040	873.889
398.278	29.015	1094.341	873.451
399.292	28.935	1094.039	872.756
400.307	28.927	1093.481	872.196
401.321	28.878	1092.908	871.427
402.336	28.861	1092.480	870.930
403.350	28.875	1091.692	870.288
404.365	28.905	1091.271	870.019
405.380	29.090	1090.165	869.933
406.394	28.998	1089.454	868.856
407.409	29.142	1088.718	868.874
408.423	29.120	1088.225	868.296
409.438	29.119	1087.601	867.718
410.453	29.236	1086.572	867.373
411.467	29.126	1086.160	866.450
412.482	29.039	1085.399	865.355
413.496	29.088	1084.831	865.055
414.511	29.143	1084.419	864.911
415.526	29.045	1083.993	864.031
416.540	29.171	1083.295	863.991
417.555	29.189	1082.883	863.670
418.569	29.193	1082.315	863.162
419.584	29.183	1082.125	862.885
420.599	29.227	1081.813	862.767
421.613	102.297	1317.425	1445.889
422.628	95.173	1351.741	1445.981
