DTS Sentinel unit serial number:	SN413079Multiplexer serial number:	ORYXHardware model number:	OX4-SRSoftware version number:	ORYX F/W v4.00 Oryx Data Collector v3.7.2.0data status	okinstallation	princeton_trtdifferential loss correction	single-endedforward channel	channel 2reverse channel	N/Adate	2019/09/12time	23:51:34forward acquisition time	60.00reverse acquisition time	0.00gamma	496.2192k internal	0.2333k external	0.2333temperature offset calibration	1.0177default loss term (dB/km)	0.3790temperature slope calibration	1.0000multiplexer offset coefficient	1.0000multiplexer slope coefficient	1.0000fibre end	0.00T internal ref (°C)	28.75T ext. ref 1 (°C)	3.79T ext. ref 2 (°C)	23.46length (m)	temperature (°C)	Stokes	anti-Stokes-747.200	727.102	0.089	0.239
-746.185	-200.000	-0.003	0.087
-745.171	-200.000	0.012	-0.107
-744.156	6.123	-0.200	0.149
-743.142	-86.153	-0.232	-0.072
-742.127	-159.247	-0.277	-0.016
-741.112	-103.336	0.302	-0.072
-740.098	-32.436	-0.169	0.095
-739.083	-200.000	0.002	-0.179
-738.069	-89.311	0.212	0.063
-737.054	96.859	0.386	0.445
-736.039	790.806	0.112	0.309
-735.025	-112.499	0.266	0.053
-734.010	18.541	-0.104	-0.083
-732.996	-127.786	-0.239	0.035
-731.981	469.669	-0.166	-0.374
-730.966	-115.496	0.310	-0.059
-729.952	800.000	0.028	-0.105
-728.937	15.150	0.071	0.056
-727.923	-1.211	0.134	0.095
-726.908	59.764	-0.377	-0.374
-725.894	800.000	-0.089	-0.285
-724.879	-116.894	0.319	0.059
-723.864	-7.403	-0.113	0.077
-722.850	-200.000	-0.026	-0.398
-721.835	-200.000	-0.014	0.131
-720.821	121.540	-0.019	-0.024
-719.806	-82.922	-0.313	0.102
-718.791	152.425	0.094	-0.128
-717.777	800.000	0.090	0.377
-716.762	-160.891	-0.230	0.012
-715.748	-200.000	-0.107	0.534
-714.733	10.243	0.174	-0.133
-713.718	619.189	-0.100	0.252
-712.704	800.000	-0.086	0.280
-711.689	-65.898	0.211	0.085
-710.675	572.406	-0.033	-0.081
-709.660	-113.647	-0.263	0.052
-708.645	-159.323	-0.229	-0.013
-707.631	-113.622	-0.379	-0.074
-706.616	-27.184	0.188	-0.110
-705.602	-61.484	-0.106	0.045
-704.587	800.000	-0.053	-0.233
-703.572	140.390	-0.054	-0.072
-702.558	273.768	-0.135	0.239
-701.543	1.381	-0.259	0.187
-700.529	-140.064	-0.291	0.031
-699.514	-30.626	-0.341	-0.194
-698.499	-102.021	0.174	0.042
-697.485	659.171	-0.087	-0.224
-696.470	545.317	-0.099	-0.236
-695.456	102.015	-0.003	-0.004
-694.441	-100.310	-0.253	0.063
-693.426	-52.678	-0.066	-0.030
-692.412	-11.979	0.203	0.134
-691.397	-88.680	0.127	0.038
-690.383	104.893	-0.156	0.184
-689.368	-200.000	-0.022	-0.267
-688.354	-133.823	-0.163	-0.020
-687.339	-200.000	0.023	0.116
-686.324	79.013	0.262	-0.281
-685.310	131.673	-0.204	0.263
-684.295	800.000	-0.111	0.326
-683.281	20.234	-0.090	0.073
-682.266	463.674	0.040	-0.089
-681.251	800.000	0.040	-0.123
-680.237	-200.000	0.004	-0.353
-679.222	-12.070	-0.177	-0.116
-678.208	800.000	-0.114	-0.354
-677.193	367.419	-0.113	0.229
-676.178	-200.000	0.392	-0.001
-675.164	1.224	0.156	0.112
-674.149	217.428	0.025	0.039
-673.135	-32.355	-0.255	-0.143
-672.120	213.828	-0.099	0.157
-671.105	-98.328	0.127	-0.033
-670.091	36.894	-0.138	-0.122
-669.076	-39.083	-0.383	0.202
-668.062	186.056	0.114	-0.170
-667.047	-30.804	0.106	-0.060
-666.032	549.042	-0.033	0.079
-665.018	-67.430	-0.073	0.029
-664.003	1.240	-0.282	-0.203
-662.989	-200.000	-0.046	-0.259
-661.974	418.396	0.099	-0.213
-660.959	-200.000	-0.004	0.133
-659.945	199.327	-0.159	-0.244
-658.930	43.554	0.174	-0.160
-657.916	-42.289	0.215	-0.110
-656.901	-75.249	0.133	-0.048
-655.886	-126.071	0.470	0.071
-654.872	56.675	-0.103	-0.101
-653.857	-15.099	-0.092	-0.059
-652.843	22.973	-0.199	0.164
-651.828	619.583	-0.070	-0.176
-650.814	53.076	0.069	-0.066
-649.799	800.000	0.014	0.054
-648.784	3.071	-0.255	0.186
-647.770	-200.000	0.006	0.192
-646.755	-20.026	-0.221	0.137
-645.741	-200.000	0.011	0.448
-644.726	455.629	0.073	-0.163
-643.711	104.926	0.126	0.149
-642.697	279.405	-0.115	-0.206
-641.682	-200.000	0.010	0.385
-640.668	-200.000	0.039	-0.176
-639.653	-80.122	-0.276	0.093
-638.638	-132.674	0.176	-0.023
-637.624	103.023	0.300	-0.352
-636.609	-23.912	-0.213	-0.128
-635.595	97.578	0.246	-0.282
-634.580	-16.293	-0.038	-0.024
-633.565	-200.000	0.011	0.188
-632.551	-33.608	0.208	0.115
-631.536	395.722	0.123	0.257
-630.522	-108.770	-0.247	-0.053
-629.507	178.972	0.224	0.328
-628.492	-48.500	0.181	-0.087
-627.478	-107.831	-0.169	0.037
-626.463	-92.534	-0.159	0.045
-625.449	-19.660	0.195	0.121
-624.434	89.239	0.130	0.145
-623.419	-200.000	0.035	0.198
-622.405	7.391	0.201	-0.150
-621.390	138.807	0.122	0.161
-620.376	-200.000	-0.017	-0.178
-619.361	235.305	-0.284	-0.469
-618.346	-82.164	-0.484	-0.158
-617.332	-148.100	0.093	0.008
-616.317	-200.000	-0.075	0.399
-615.303	800.000	-0.057	-0.192
-614.288	4.797	-0.251	0.184
-613.273	-200.000	-0.011	-0.283
-612.259	576.467	-0.069	-0.170
-611.244	0.228	-0.301	-0.215
-610.230	-45.678	0.249	-0.123
-609.215	3.602	0.149	0.109
-608.201	-53.581	0.056	0.026
-607.186	-200.000	0.005	-0.194
-606.171	-79.268	0.132	0.045
-605.157	-70.595	0.076	0.029
-604.142	-157.103	0.150	0.009
-603.128	-34.667	0.065	-0.036
-602.113	-60.463	-0.347	0.147
-601.098	-77.151	-0.235	0.082
-600.084	449.098	-0.161	-0.354
-599.069	171.838	0.110	0.158
-598.055	702.833	0.065	0.172
-597.040	-101.386	0.077	-0.019
-596.025	363.172	0.081	0.163
-595.011	138.451	-0.047	-0.062
-593.996	-200.000	-0.005	-0.095
-592.982	-200.000	-0.015	-0.108
-591.967	29.908	0.313	-0.267
-590.952	255.864	0.115	0.197
-589.938	769.944	-0.048	-0.131
-588.923	138.178	0.279	-0.366
-587.909	-200.000	-0.048	-0.228
-586.894	349.825	0.111	0.218
-585.879	-6.182	0.172	-0.118
-584.865	800.000	-0.029	0.097
-583.850	-200.000	0.010	-0.300
-582.836	219.417	-0.066	0.105
-581.821	10.434	0.302	-0.229
-580.806	46.413	-0.084	0.078
-579.792	-200.000	0.053	-0.336
-578.777	-200.000	0.026	0.122
-577.763	-116.544	0.267	0.049
-576.748	-88.943	-0.118	-0.035
-575.733	206.693	-0.062	-0.097
-574.719	18.899	0.191	0.153
-573.704	95.854	0.231	0.263
-572.690	-194.147	0.382	0.003
-571.675	-91.664	-0.173	-0.049
-570.661	456.673	-0.065	0.144
-569.646	-115.984	-0.253	0.047
-568.631	129.762	0.150	0.192
-567.617	-200.000	0.017	0.243
-566.602	-97.399	-0.205	0.053
-565.588	800.000	-0.066	0.189
-564.573	-141.236	0.481	-0.049
-563.558	800.000	0.066	0.290
-562.544	-45.493	0.278	-0.138
-561.529	-182.762	-0.087	0.002
-560.515	-200.000	0.045	-0.269
-559.500	-52.619	0.216	0.099
-558.485	81.979	-0.112	0.121
-557.471	-40.185	-0.207	-0.108
-556.456	800.000	0.071	0.276
-555.442	-200.000	-0.004	0.095
-554.427	33.446	-0.222	-0.193
-553.412	-47.350	0.206	-0.100
-552.398	205.486	0.194	-0.301
-551.383	-56.357	-0.430	0.191
-550.369	171.939	0.213	0.306
-549.354	-27.047	0.276	0.161
-548.339	28.524	0.234	0.198
-547.325	37.478	0.045	0.040
-546.310	-124.669	0.109	-0.017
-545.296	800.000	-0.053	-0.158
-544.281	-200.000	-0.033	-0.371
-543.266	-121.714	0.094	0.016
-542.252	63.129	-0.124	0.124
-541.237	44.612	-0.258	-0.237
-540.223	71.507	-0.167	-0.173
-539.208	-80.573	-0.240	0.080
-538.193	-117.964	-0.079	0.014
-537.179	800.000	0.100	0.298
-536.164	42.157	-0.147	-0.134
-535.150	-200.000	-0.022	0.334
-534.135	-144.311	0.402	-0.037
-533.121	165.451	0.225	-0.318
-532.106	-55.823	-0.093	-0.042
-531.091	-157.060	0.265	0.016
-530.077	800.000	-0.025	0.071
-529.062	-104.470	0.079	-0.018
-528.048	-157.568	0.189	-0.011
-527.033	-173.017	0.007	-0.000
-526.018	800.000	-0.084	0.301
-525.004	-82.932	-0.293	0.094
-523.989	-69.925	0.338	0.128
-522.975	274.998	-0.025	0.043
-521.960	203.767	0.267	0.412
-520.945	12.963	-0.115	-0.088
-519.931	-131.802	0.464	-0.060
-518.916	-200.000	-0.002	-0.299
-517.902	-200.000	0.004	-0.041
-516.887	-200.000	-0.012	-0.281
-515.872	-11.073	0.350	0.230
-514.858	-200.000	0.054	0.286
-513.843	-41.121	-0.088	-0.046
-512.829	-32.006	-0.083	-0.046
-511.814	309.962	-0.018	0.034
-510.799	-134.678	-0.229	-0.028
-509.785	-200.000	-0.042	0.440
-508.770	800.000	0.079	-0.238
-507.756	-200.000	-0.021	-0.167
-506.741	-119.719	0.220	-0.038
-505.726	-74.830	-0.434	0.155
-504.712	-95.168	-0.158	0.042
-503.697	-67.492	0.237	0.093
-502.683	182.477	0.201	-0.295
-501.668	-134.988	-0.150	-0.018
-500.653	62.762	-0.166	-0.165
-499.639	800.000	0.055	0.207
-498.624	-154.156	0.278	-0.019
-497.610	-200.000	-0.070	-0.409
-496.595	-24.184	-0.011	0.007
-495.581	62.279	-0.089	-0.088
-494.566	20.109	-0.178	-0.143
-493.551	-74.995	-0.224	0.080
-492.537	111.894	0.169	-0.203
-491.522	722.171	-0.133	-0.351
-490.508	766.862	-0.153	0.413
-489.493	152.796	0.256	-0.349
-488.478	138.641	-0.255	0.333
-487.464	544.657	-0.186	-0.443
-486.449	800.000	0.097	0.274
-485.435	-81.535	-0.296	-0.097
-484.420	595.852	-0.078	0.193
-483.405	46.764	0.180	0.167
-482.391	-126.097	-0.205	-0.031
-481.376	18.024	0.191	-0.152
-480.362	466.382	-0.067	-0.150
-479.347	4.038	-0.076	-0.055
-478.332	-159.242	0.128	-0.007
-477.318	378.272	0.183	0.372
-476.303	-42.100	0.208	-0.106
-475.289	-200.000	0.020	-0.220
-474.274	800.000	0.106	-0.300
-473.259	14.890	-0.175	0.136
-472.245	153.717	0.060	-0.082
-471.230	800.000	-0.046	0.185
-470.216	-54.526	0.327	0.147
-469.201	-12.538	0.232	-0.151
-468.186	-200.000	-0.052	-0.231
-467.172	-137.880	-0.213	-0.024
-466.157	-51.129	0.186	-0.087
-465.143	116.462	-0.397	-0.485
-464.128	-200.000	0.003	0.151
-463.113	-108.069	0.134	0.029
-462.099	-200.000	-0.009	-0.134
-461.084	-200.000	-0.030	0.136
-460.070	-13.844	-0.150	-0.096
-459.055	70.248	0.214	-0.220
-458.040	-64.635	0.321	-0.130
-457.026	800.000	-0.118	0.441
-456.011	-79.758	0.203	0.068
-454.997	-1.647	-0.132	0.092
-453.982	172.936	-0.198	-0.284
-452.968	-21.354	0.234	0.142
-451.953	-75.450	-0.224	-0.079
-450.938	-68.653	-0.259	0.100
-449.924	-63.304	-0.112	0.046
-448.909	71.447	-0.221	0.228
-447.895	60.003	-0.167	0.164
-446.880	192.124	-0.203	0.305
-445.865	84.161	0.102	-0.110
-444.851	138.617	0.083	-0.108
-443.836	-95.713	0.080	0.021
-442.822	587.968	0.105	0.256
-441.807	-128.064	-0.186	0.026
-440.792	-84.569	-0.179	0.056
-439.778	-193.231	0.246	0.002
-438.763	711.379	0.112	0.296
-437.749	120.842	-0.191	0.236
-436.734	-111.491	0.337	0.068
-435.719	-18.203	-0.073	-0.046
-434.705	107.840	-0.242	0.287
-433.690	-19.657	0.257	0.158
-432.676	778.571	0.045	0.121
-431.661	-8.721	-0.148	0.098
-430.646	800.000	-0.081	-0.334
-429.632	298.854	-0.096	-0.176
-428.617	-200.000	0.010	-0.184
-427.603	62.985	0.266	-0.264
-426.588	-22.017	-0.481	-0.290
-425.573	-200.000	-0.020	-0.127
-424.559	113.903	0.324	-0.391
-423.544	-200.000	0.016	-0.173
-422.530	192.255	-0.152	-0.227
-421.515	546.971	-0.026	0.062
-420.500	800.000	-0.063	-0.253
-419.486	-84.883	-0.262	-0.082
-418.471	110.035	0.091	-0.108
-417.457	-139.352	-0.244	-0.026
-416.442	800.000	-0.041	-0.176
-415.428	-45.506	-0.106	-0.052
-414.413	-54.328	0.239	-0.108
-413.398	-15.837	-0.217	-0.137
-412.384	-200.000	-0.018	0.256
-411.369	-200.000	-0.053	0.238
-410.355	-87.136	-0.105	-0.032
-409.340	-200.000	-0.011	-0.216
-408.325	-200.000	-0.011	-0.209
-407.311	6.330	-0.079	0.059
-406.296	-137.794	0.077	-0.009
-405.282	-68.011	0.237	0.092
-404.267	-20.951	0.128	-0.078
-403.252	381.624	0.018	0.038
-402.238	285.644	0.108	-0.194
-401.223	-87.195	-0.344	0.104
-400.209	-1.953	-0.310	-0.216
-399.194	-200.000	-0.049	0.425
-398.179	62.165	0.136	0.134
-397.165	-24.279	0.097	0.058
-396.150	435.748	-0.045	0.097
-395.136	244.915	0.170	-0.284
-394.121	800.000	-0.115	-0.318
-393.106	66.161	0.130	-0.130
-392.092	-121.182	-0.310	0.051
-391.077	-200.000	0.036	0.185
-390.063	-200.000	0.216	-0.001
-389.048	36.716	0.317	0.278
-388.033	-200.000	0.057	-0.417
-387.019	14.399	0.282	0.218
-386.004	-46.585	-0.206	0.100
-384.990	-58.810	0.063	0.027
-383.975	-200.000	-0.051	-0.246
-382.960	-46.020	0.101	0.050
-381.946	-200.000	0.014	0.301
-380.931	737.746	0.117	-0.311
-379.917	-7.497	-0.097	0.065
-378.902	-200.000	-0.001	0.299
-377.888	-78.827	-0.088	-0.030
-376.873	-122.260	-0.178	0.029
-375.858	-61.955	0.203	0.084
-374.844	8.930	-0.172	-0.128
-373.829	82.633	-0.407	-0.438
-372.815	-121.974	0.198	0.032
-371.800	531.708	-0.027	0.063
-370.785	-96.910	-0.240	0.062
-369.771	-44.156	0.118	0.059
-368.756	565.210	-0.090	-0.215
-367.742	-199.435	0.226	-0.001
-366.727	4.241	-0.101	-0.073
-365.712	-147.785	0.392	0.032
-364.698	-200.000	-0.023	0.383
-363.683	-200.000	-0.040	-0.211
-362.669	-29.528	-0.553	-0.313
-361.654	184.938	0.095	0.140
-360.639	-200.000	0.051	0.290
-359.625	-200.000	0.020	-0.238
-358.610	-200.000	-0.071	-0.393
-357.596	57.266	-0.309	0.299
-356.581	-84.743	-0.247	-0.077
-355.566	-43.703	-0.202	0.101
-354.552	-78.376	0.354	0.120
-353.537	61.049	-0.074	0.072
-352.523	-200.000	0.014	0.287
-351.508	-127.617	0.291	-0.042
-350.493	800.000	0.030	0.084
-349.479	-61.195	-0.266	-0.111
-348.464	-145.036	0.103	-0.009
-347.450	604.336	-0.118	0.290
-346.435	-68.244	-0.384	-0.148
-345.420	235.211	0.080	0.131
-344.406	-84.817	-0.100	0.031
-343.391	312.782	0.024	0.045
-342.377	-85.785	0.242	-0.074
-341.362	389.699	-0.078	0.160
-340.348	199.836	0.166	0.252
-339.333	36.361	0.072	-0.063
-338.318	1.030	0.127	0.090
-337.304	24.128	-0.097	0.079
-336.289	-12.858	-0.184	0.119
-335.275	286.491	0.081	-0.144
-334.260	75.464	-0.173	0.181
-333.245	286.953	0.091	0.162
-332.231	-34.071	-0.246	0.134
-331.216	-113.147	-0.144	-0.028
-330.202	-76.731	0.167	-0.058
-329.187	97.748	0.159	0.181
-328.172	800.000	-0.041	-0.156
-327.158	-164.696	-0.279	-0.012
-326.143	-78.899	-0.219	0.074
-325.129	54.452	-0.083	0.080
-324.114	21.195	-0.117	0.094
-323.099	800.000	0.037	0.124
-322.085	-57.750	-0.301	0.130
-321.070	-200.000	-0.013	0.081
-320.056	-53.798	0.352	0.159
-319.041	800.000	-0.033	-0.100
-318.026	800.000	-0.042	-0.127
-317.012	-91.595	-0.312	-0.088
-315.997	-101.917	-0.270	-0.065
-314.983	323.363	-0.304	0.573
-313.968	-114.403	0.106	-0.020
-312.953	-30.425	-0.346	-0.194
-311.939	-200.000	0.001	0.127
-310.924	-200.000	-0.023	-0.115
-309.910	-155.782	-0.257	-0.016
-308.895	-200.000	-0.044	0.293
-307.880	-132.178	0.230	0.029
-306.866	51.890	0.054	0.051
-305.851	-45.339	0.237	0.116
-304.837	-200.000	0.021	-0.186
-303.822	-30.503	0.248	-0.139
-302.807	-101.999	0.421	-0.100
-301.793	455.855	-0.064	-0.141
-300.778	800.000	0.030	0.108
-299.764	-75.999	0.156	-0.054
-298.749	-16.947	-0.165	0.103
-297.735	-200.000	0.011	-0.123
-296.720	-200.000	0.003	-0.051
-295.705	-200.000	0.008	0.418
-294.691	77.344	-0.069	0.072
-293.676	800.000	-0.029	-0.094
-292.662	300.951	0.085	0.155
-291.647	-121.684	0.104	0.017
-290.632	-200.000	0.043	0.300
-289.618	-51.148	0.276	-0.128
-288.603	-78.370	0.047	-0.016
-287.589	-34.467	0.286	-0.155
-286.574	-71.245	-0.164	0.061
-285.559	110.353	0.068	-0.080
-284.545	-88.504	-0.325	-0.096
-283.530	223.796	-0.108	-0.172
-282.516	80.682	0.217	-0.231
-281.501	50.143	0.292	-0.272
-280.486	-33.144	0.050	0.027
-279.472	800.000	-0.052	0.185
-278.457	98.047	-0.076	-0.087
-277.443	-120.752	-0.357	-0.060
-276.428	329.905	0.043	0.082
-275.413	-97.387	-0.140	0.036
-274.399	31.241	-0.044	0.037
-273.384	567.718	0.112	-0.270
-272.370	23.883	0.170	-0.138
-271.355	-145.485	-0.188	0.017
-270.340	124.303	0.071	-0.088
-269.326	-200.000	0.010	-0.273
-268.311	-129.100	0.056	0.008
-267.297	-200.000	0.047	0.275
-266.282	8.141	-0.174	0.129
-265.267	800.000	0.138	0.515
-264.253	-165.687	-0.201	-0.009
-263.238	617.810	0.053	0.131
-262.224	-146.324	-0.165	-0.014
-261.209	-116.539	0.210	-0.038
-260.195	-84.264	-0.203	0.063
-259.180	800.000	-0.026	-0.081
-258.165	-159.494	0.176	0.010
-257.151	-0.578	0.206	-0.144
-256.136	-200.000	-0.045	-0.273
-255.122	15.690	-0.116	-0.090
-254.107	-121.731	0.154	-0.025
-253.092	-83.684	-0.051	0.016
-252.078	-63.409	-0.044	0.018
-251.063	-116.139	0.284	0.052
-250.049	3.281	0.242	-0.173
-249.034	201.226	0.169	0.256
-248.019	393.151	0.193	0.397
-247.005	191.646	-0.161	0.239
-245.990	800.000	-0.084	-0.285
-244.976	-200.000	-0.001	-0.253
-243.961	-94.102	-0.156	0.042
-242.946	269.380	0.166	-0.287
-241.932	-96.690	0.425	0.110
-240.917	698.741	0.156	-0.405
-239.903	-200.000	0.007	0.033
-238.888	239.876	-0.098	-0.161
-237.873	62.323	0.212	-0.209
-236.859	-200.000	-0.025	-0.152
-235.844	-14.933	-0.365	-0.231
-234.830	-145.179	-0.140	-0.013
-233.815	686.330	-0.091	0.233
-232.800	-200.000	0.059	0.315
-231.786	-170.785	0.153	-0.005
-230.771	-200.000	0.025	0.169
-229.757	78.899	-0.148	0.156
-228.742	-200.000	0.011	0.070
-227.727	-100.463	-0.210	0.051
-226.713	-57.646	-0.161	-0.069
-225.698	-55.771	0.210	-0.093
-224.684	-182.827	-0.447	0.008
-223.669	-10.195	-0.188	0.123
-222.655	-32.533	0.365	-0.201
-221.640	-200.000	-0.040	-0.238
-220.625	-0.412	-0.093	0.065
-219.611	-200.000	-0.000	-0.027
-218.596	-66.240	-0.294	0.115
-217.582	251.647	-0.079	-0.132
-216.567	336.359	0.082	0.156
-215.552	21.667	-0.149	-0.119
-214.538	-38.750	0.206	0.107
-213.523	-128.101	-0.259	-0.036
-212.509	-200.000	0.066	0.402
-211.494	433.006	0.150	0.321
-210.479	-162.125	-0.359	0.018
-209.465	369.538	0.122	-0.244
-208.450	14.578	0.116	-0.089
-207.436	-158.544	0.023	-0.001
-206.421	57.967	-0.334	0.322
-205.406	545.026	0.074	0.174
-204.392	-67.598	-0.326	-0.126
-203.377	-181.635	0.180	0.003
-202.363	800.000	0.065	-0.208
-201.348	-73.688	0.162	-0.058
-200.333	800.000	0.038	0.146
-199.319	800.000	0.047	0.152
-198.304	-200.000	0.045	0.197
-197.290	504.559	0.072	-0.165
-196.275	-57.502	-0.069	0.030
-195.260	-200.000	0.019	-0.185
-194.246	-200.000	0.003	0.069
-193.231	-152.638	-0.342	-0.024
-192.217	377.418	-0.070	-0.142
-191.202	270.046	0.140	0.243
-190.187	-110.351	0.353	-0.072
-189.173	-140.943	-0.188	-0.019
-188.158	176.364	-0.151	-0.217
-187.144	521.321	0.050	-0.115
-186.129	-126.499	0.127	0.019
-185.114	-161.964	-0.113	-0.006
-184.100	800.000	-0.081	0.227
-183.085	-7.855	0.186	0.124
-182.071	-162.336	0.196	0.010
-181.056	800.000	-0.073	0.270
-180.042	-200.000	-0.000	0.095
-179.027	-47.557	0.026	-0.012
-178.012	529.245	0.191	0.443
-176.998	-200.000	0.015	-0.112
-175.983	61.200	0.154	0.150
-174.969	-200.000	0.012	-0.181
-173.954	-200.000	-0.052	-0.322
-172.939	-11.877	0.094	-0.061
-171.925	11.973	-0.114	0.086
-170.910	-41.918	-0.498	-0.251
-169.896	-98.681	0.187	-0.047
-168.881	800.000	0.091	-0.278
-167.866	293.725	-0.012	-0.022
-166.852	-200.000	-0.034	-0.193
-165.837	-113.559	0.146	-0.028
-164.823	-124.221	0.169	-0.026
-163.808	244.223	0.098	0.161
-162.793	186.924	0.145	-0.212
-161.779	-25.183	0.196	0.114
-160.764	-2.547	-0.188	0.129
-159.750	-200.000	0.031	-0.188
-158.735	-200.000	-0.045	-0.208
-157.720	-100.141	-0.113	0.028
-156.706	-200.000	-0.022	0.149
-155.691	800.000	-0.018	-0.065
-154.677	205.217	-0.223	-0.340
-153.662	-32.281	0.089	-0.049
-152.647	129.025	-0.030	0.038
-151.633	45.997	-0.174	0.158
-150.618	-128.514	0.169	-0.024
-149.604	-52.019	-0.335	0.153
-148.589	212.225	0.169	0.261
-147.574	121.130	0.260	-0.317
-146.560	19.176	0.164	-0.130
-145.545	175.390	-0.098	0.139
-144.531	750.119	-0.058	-0.153
-143.516	-105.335	0.067	0.015
-142.502	177.903	-0.134	-0.191
-141.487	-92.846	0.146	0.040
-140.472	-200.000	0.003	0.276
-139.458	800.000	-0.023	0.070
-138.443	560.517	-0.040	0.094
-137.429	800.000	-0.039	-0.115
-136.414	-39.830	0.244	0.125
-135.399	-110.259	0.327	-0.067
-134.385	-115.367	-0.155	0.029
-133.370	109.376	0.028	0.033
-132.356	-109.259	0.449	0.093
-131.341	-99.931	-0.290	0.071
-130.326	-200.000	0.024	0.203
-129.312	288.126	-0.185	-0.329
-128.297	-36.634	-0.225	-0.119
-127.283	654.750	-0.102	0.258
-126.268	36.199	-0.141	-0.122
-125.253	-48.227	-0.342	-0.162
-124.239	-58.283	0.287	-0.122
-123.224	-150.230	0.140	0.011
-122.210	68.016	-0.196	0.197
-121.195	-30.853	0.117	-0.065
-120.180	-101.648	0.138	0.033
-119.166	-200.000	0.040	-0.288
-118.151	235.299	0.041	-0.067
-117.137	34.751	0.100	0.086
-116.122	-200.000	-0.056	-0.423
-115.107	-113.264	0.202	0.039
-114.093	800.000	-0.037	0.105
-113.078	-200.000	0.056	-0.280
-112.064	22.070	0.269	0.215
-111.049	22.852	0.174	-0.140
-110.034	800.000	-0.030	-0.099
-109.020	-71.583	-0.183	0.067
-108.005	800.000	-0.064	-0.185
-106.991	430.838	0.075	-0.159
-105.976	-12.259	0.119	-0.076
-104.962	611.427	0.014	-0.035
-103.947	429.660	0.084	-0.179
-102.932	239.456	0.122	-0.198
-101.918	292.300	0.183	0.327
-100.903	217.610	0.073	-0.115
-99.889	-110.064	-0.155	-0.032
-98.874	-106.324	0.253	-0.056
-97.859	16.517	-0.039	-0.030
-96.845	-200.000	0.042	-0.247
-95.830	800.000	0.068	0.253
-94.816	-200.000	0.017	0.139
-93.801	90.487	0.209	-0.229
-92.786	800.000	-0.014	-0.056
-91.772	-170.285	0.077	-0.003
-90.757	-160.936	0.496	-0.026
-89.743	-61.328	0.072	0.030
-88.728	311.889	0.238	0.438
-87.713	-77.552	-0.253	0.086
-86.699	-84.893	0.382	-0.118
-85.684	18.187	-0.231	0.180
-84.670	620.182	-0.035	0.085
-83.655	-169.244	0.144	0.005
-82.640	800.000	-0.026	-0.106
-81.626	505.950	-0.034	-0.077
-80.611	190.000	-0.135	0.199
-79.597	-4.275	0.127	0.086
-78.582	-200.000	-0.015	0.205
-77.567	-7.568	-0.282	0.187
-76.553	-59.633	0.470	0.198
-75.538	-3.638	0.307	-0.209
-74.524	800.000	0.042	0.131
-73.509	-200.000	-0.004	0.317
-72.494	800.000	0.060	0.193
-71.480	58.566	-0.157	-0.151
-70.465	180.408	-0.120	-0.173
-69.451	52.728	0.182	0.170
-68.436	-61.294	-0.136	-0.056
-67.422	566.993	-0.024	-0.057
-66.407	-105.492	0.085	0.019
-65.392	800.000	0.049	-0.144
-64.378	800.000	-0.091	0.362
-63.363	-54.177	-0.304	-0.135
-62.349	-200.000	0.022	0.232
-61.334	41.946	-0.897	-0.796
-60.319	91.634	0.733	0.807
-59.305	716.130	-0.441	-1.145
-58.290	-0.098	0.946	0.659
-57.276	800.000	0.427	1.568
-56.261	-200.000	111.457	621.183
-55.246	514.345	1518.037	3467.358
-54.232	176.522	2702.347	3844.583
-53.217	104.661	2283.734	2633.788
-52.203	37.971	1890.124	1644.901
-51.188	32.095	1678.804	1416.766
-50.173	29.530	1635.532	1361.308
-49.159	49.209	1691.688	1556.205
-48.144	49.045	1706.323	1568.377
-47.130	31.463	1663.283	1398.724
-46.115	28.894	1648.571	1367.221
-45.100	28.741	1643.408	1361.751
-44.086	28.686	1640.443	1358.828
-43.071	28.588	1638.556	1356.486
-42.057	28.586	1636.064	1354.358
-41.042	28.604	1633.837	1352.590
-40.027	28.602	1631.841	1350.869
-39.013	28.580	1630.367	1349.440
-37.998	28.541	1628.667	1347.690
-36.984	28.514	1627.305	1346.314
-35.969	28.732	1625.431	1346.304
-34.954	28.740	1624.349	1345.412
-33.940	28.728	1622.460	1343.706
-32.925	28.745	1620.564	1342.211
-31.911	28.785	1619.248	1341.354
-30.896	28.759	1617.685	1339.820
-29.881	28.713	1616.280	1338.269
-28.867	28.770	1613.939	1336.694
-27.852	28.717	1613.030	1335.499
-26.838	28.726	1611.712	1334.419
-25.823	28.772	1609.842	1333.151
-24.809	28.769	1608.943	1332.334
-23.794	28.742	1607.508	1330.895
-22.779	28.813	1605.800	1329.945
-21.765	28.711	1604.398	1327.991
-20.750	28.817	1602.788	1327.374
-19.736	28.738	1601.775	1325.916
-18.721	28.850	1600.196	1325.358
-17.706	28.883	1598.290	1323.964
-16.692	28.698	1598.030	1322.366
-15.677	28.712	1596.427	1321.088
-14.663	28.867	1594.359	1320.435
-13.648	28.897	1592.813	1319.323
-12.633	28.876	1591.334	1317.893
-11.619	28.875	1590.026	1316.751
-10.604	28.821	1588.703	1315.214
-9.590	28.785	1587.275	1313.723
-8.575	28.820	1586.240	1313.063
-7.560	28.737	1585.094	1311.469
-6.546	28.767	1584.090	1310.801
-5.531	28.756	1582.987	1309.758
-4.517	28.733	1581.976	1308.706
-3.502	28.827	1580.576	1308.163
-2.487	28.854	1578.842	1306.871
-1.473	28.475	1566.730	1294.118
-0.458	25.613	1547.155	1257.917
0.556	23.843	1547.884	1226.257
1.571	21.337	1572.038	1227.701
2.586	20.724	1585.050	1233.407
3.600	18.618	1531.706	1177.357
4.615	11.536	1425.581	1050.297
5.629	4.944	1365.029	964.890
6.644	3.898	1356.476	952.327
7.659	3.658	1355.952	950.396
8.673	3.818	1354.818	950.500
9.688	3.765	1353.318	949.041
10.702	3.738	1350.013	946.470
11.717	6.799	1355.690	969.173
12.731	15.029	1370.430	1030.489
13.746	21.857	1381.671	1081.093
14.761	23.655	1383.641	1093.625
15.775	23.146	1381.726	1088.881
16.790	22.342	1379.937	1082.430
17.804	21.665	1377.750	1076.460
18.819	21.431	1377.298	1074.572
19.834	21.439	1376.199	1073.673
20.848	21.532	1375.025	1073.232
21.863	21.368	1374.348	1071.602
22.877	21.284	1373.037	1069.968
23.892	21.172	1372.514	1068.783
24.907	21.111	1371.137	1067.246
25.921	21.080	1370.449	1066.426
26.936	21.082	1369.623	1065.696
27.950	21.165	1368.688	1065.385
28.965	21.305	1367.396	1065.136
29.980	21.321	1366.584	1064.506
30.994	21.636	1365.597	1065.559
32.009	21.678	1364.465	1064.841
33.023	21.579	1363.298	1063.233
34.038	21.481	1362.501	1061.924
35.053	21.304	1360.979	1059.570
36.067	21.234	1360.282	1058.509
37.082	21.321	1358.844	1057.822
38.096	21.407	1358.440	1057.932
39.111	21.363	1357.599	1056.919
40.126	21.260	1356.521	1055.365
41.140	20.899	1355.205	1052.071
42.155	20.769	1354.895	1050.950
43.169	20.736	1354.922	1050.676
44.184	20.684	1354.538	1049.975
45.199	20.850	1354.205	1050.622
46.213	20.996	1354.438	1051.593
47.228	21.236	1353.357	1052.105
48.242	21.360	1352.199	1051.862
49.257	21.203	1350.616	1049.594
50.271	21.301	1348.488	1048.431
51.286	21.254	1347.771	1047.499
52.301	21.119	1346.641	1045.720
53.315	21.089	1345.197	1044.330
54.330	20.943	1344.108	1042.519
55.344	20.852	1342.892	1040.936
56.359	20.779	1341.668	1039.463
57.374	20.766	1341.478	1039.142
58.388	20.631	1340.846	1037.757
59.403	20.712	1339.909	1037.425
60.417	20.531	1338.859	1035.438
61.432	20.492	1338.044	1034.488
62.447	20.404	1337.529	1033.475
63.461	20.440	1335.756	1032.226
64.476	20.480	1334.835	1031.657
65.490	20.274	1334.123	1029.795
66.505	20.380	1332.183	1028.837
67.520	20.405	1331.366	1028.261
68.534	20.506	1330.343	1027.976
69.549	20.316	1329.239	1025.910
70.563	20.172	1328.413	1024.334
71.578	20.225	1326.605	1023.158
72.593	20.046	1326.011	1021.556
73.607	20.117	1325.461	1021.462
74.622	20.164	1324.639	1021.010
75.636	20.249	1323.734	1020.725
76.651	20.201	1323.414	1020.108
77.666	20.239	1323.052	1019.960
78.680	20.329	1322.772	1020.182
79.695	20.437	1321.731	1019.921
80.709	20.611	1321.461	1020.647
81.724	20.705	1321.005	1020.756
82.739	20.930	1319.758	1021.019
83.753	21.045	1319.541	1021.436
84.768	21.175	1319.007	1021.693
85.782	21.393	1318.084	1022.163
86.797	21.516	1316.657	1021.681
87.812	21.301	1315.588	1019.508
88.826	21.133	1314.457	1017.561
89.841	21.260	1313.312	1017.323
90.855	21.343	1312.434	1017.040
91.870	21.383	1311.887	1016.759
92.884	21.569	1311.063	1017.110
93.899	21.562	1309.980	1016.139
94.914	21.571	1309.368	1015.623
95.928	21.478	1308.881	1014.617
96.943	21.428	1307.871	1013.454
97.957	21.367	1307.154	1012.460
98.972	21.472	1305.810	1011.935
99.987	21.349	1305.089	1010.574
101.001	21.387	1304.159	1009.983
102.016	21.364	1303.068	1008.917
103.030	21.388	1302.404	1008.452
104.045	21.377	1301.279	1007.429
105.060	21.128	1299.603	1004.612
106.074	20.732	1298.128	1001.101
107.089	20.497	1296.790	998.633
108.103	20.443	1294.954	996.823
109.118	20.442	1293.340	995.485
110.133	20.318	1292.936	994.373
111.147	20.414	1291.427	993.677
112.162	20.501	1290.606	993.453
113.176	20.633	1289.202	993.037
114.191	20.562	1288.537	992.034
115.206	20.538	1287.506	991.015
116.220	20.706	1285.784	990.557
117.235	20.554	1285.129	989.099
118.249	20.504	1283.949	987.824
119.264	20.408	1282.888	986.372
120.279	20.406	1281.723	985.380
121.293	20.251	1280.678	983.611
122.308	20.078	1279.974	982.001
123.322	20.058	1278.365	980.566
124.337	20.111	1277.577	980.173
125.352	20.117	1276.154	979.032
126.366	20.050	1275.435	978.015
127.381	19.891	1274.787	976.533
128.395	19.955	1273.257	975.636
129.410	19.988	1272.466	975.130
130.424	20.196	1271.677	975.611
131.439	20.301	1271.229	975.772
132.454	20.511	1270.398	976.223
133.468	20.500	1269.726	975.561
134.483	20.476	1269.114	974.868
135.497	20.540	1268.637	974.773
136.512	20.471	1267.195	973.197
137.527	20.614	1265.888	972.906
138.541	20.640	1264.680	972.034
139.556	20.819	1263.417	971.977
140.570	20.846	1262.744	971.526
141.585	21.084	1261.903	972.120
142.600	21.195	1260.799	971.799
143.614	21.273	1260.106	971.612
144.629	21.257	1259.739	971.154
145.643	21.305	1258.226	970.170
146.658	21.192	1256.705	968.287
147.673	20.909	1255.088	965.386
148.687	20.721	1254.326	963.673
149.702	20.624	1252.532	961.672
150.716	20.504	1251.118	959.837
151.731	20.530	1250.003	959.040
152.746	20.574	1248.956	958.397
153.760	20.633	1248.003	957.908
154.775	20.876	1246.948	958.350
155.789	20.965	1246.236	958.207
156.804	20.914	1245.350	957.158
157.819	21.050	1244.348	957.051
158.833	21.150	1243.805	957.095
159.848	21.325	1242.826	957.218
160.862	21.286	1241.691	956.045
161.877	20.849	1240.368	952.553
162.892	20.523	1239.069	949.692
163.906	20.435	1238.076	948.363
164.921	20.484	1236.999	947.723
165.935	20.602	1236.349	947.785
166.950	20.763	1235.701	948.083
167.964	20.685	1235.174	947.165
168.979	20.759	1233.772	946.411
169.994	20.710	1233.465	945.828
171.008	20.673	1232.603	944.882
172.023	20.922	1232.479	946.052
173.037	20.994	1232.006	945.996
174.052	21.111	1230.937	945.728
175.067	20.811	1229.272	942.739
176.081	20.520	1228.288	940.327
177.096	20.567	1227.008	939.520
178.110	20.461	1226.708	938.630
179.125	20.717	1225.017	938.638
180.140	20.726	1224.615	938.294
181.154	21.067	1223.448	939.151
182.169	21.056	1222.608	938.366
183.183	21.060	1221.323	937.316
184.198	21.239	1220.333	937.437
185.213	21.140	1219.730	936.360
186.227	21.234	1218.611	935.922
187.242	21.325	1218.006	935.862
188.256	21.403	1217.050	935.459
189.271	21.501	1216.071	935.148
190.286	21.215	1215.284	932.937
191.300	20.767	1213.974	929.452
192.315	20.654	1212.823	927.890
193.329	20.602	1212.650	927.394
194.344	20.638	1212.454	927.355
195.359	20.629	1211.716	926.660
196.373	20.662	1211.240	926.392
197.388	20.770	1210.800	926.548
198.402	21.189	1210.598	928.539
199.417	21.521	1210.190	929.908
200.432	21.676	1209.652	930.235
201.446	21.764	1208.826	929.988
202.461	21.772	1208.518	929.711
203.475	21.790	1206.900	928.480
204.490	21.498	1205.522	925.789
205.504	21.234	1204.108	923.227
206.519	21.057	1202.891	921.281
207.534	20.885	1201.615	919.314
208.548	21.036	1200.797	919.401
209.563	21.056	1200.217	918.981
210.577	21.058	1199.209	918.141
211.592	21.196	1198.540	918.271
212.607	21.417	1198.276	919.149
213.621	21.311	1197.686	918.059
214.636	21.302	1196.358	916.911
215.650	21.258	1195.688	916.087
216.665	21.577	1194.742	916.954
217.680	21.688	1194.426	917.211
218.694	21.798	1193.711	917.156
219.709	21.505	1193.156	915.115
220.723	21.544	1191.655	914.087
221.738	21.565	1190.869	913.511
222.753	21.310	1190.336	911.691
223.767	21.503	1189.765	912.183
224.782	21.732	1189.334	912.963
225.796	21.822	1189.098	913.169
226.811	21.623	1188.134	911.314
227.826	21.550	1186.946	909.940
228.840	21.476	1186.326	908.999
229.855	21.506	1185.109	908.142
230.869	21.356	1184.648	906.931
231.884	21.232	1183.487	905.320
232.899	21.103	1182.555	903.859
233.913	21.046	1181.829	902.930
234.928	20.957	1181.121	901.849
235.942	20.851	1180.411	900.676
236.957	20.768	1179.737	899.656
237.972	20.901	1178.513	899.330
238.986	20.880	1178.001	898.749
240.001	21.029	1177.319	898.920
241.015	20.924	1177.011	898.061
242.030	21.073	1176.769	898.568
243.045	21.376	1175.400	899.001
244.059	21.319	1174.823	898.187
245.074	21.471	1173.906	898.183
246.088	21.535	1173.378	898.031
247.103	21.701	1172.954	898.480
248.117	21.689	1172.901	898.298
249.132	21.935	1172.213	898.952
250.147	22.330	1171.904	900.655
251.161	22.508	1171.236	900.972
252.176	22.485	1170.512	900.222
253.190	22.674	1169.952	900.674
254.205	22.655	1169.372	900.049
255.220	22.694	1169.227	900.058
256.234	22.779	1168.229	899.642
257.249	22.601	1167.721	898.265
258.263	22.670	1166.598	897.674
259.278	22.558	1165.965	896.538
260.293	22.552	1165.642	896.178
261.307	22.723	1165.047	896.510
262.322	22.774	1164.221	896.055
263.336	22.721	1163.690	895.297
264.351	22.661	1163.378	894.676
265.366	22.760	1162.663	894.549
266.380	22.709	1161.994	893.698
267.395	22.594	1161.288	892.493
268.409	22.368	1159.908	890.210
269.424	22.452	1159.158	889.978
270.439	22.415	1158.628	889.305
271.453	22.339	1157.903	888.287
272.468	22.093	1156.677	886.030
273.482	21.991	1156.127	885.014
274.497	22.279	1155.312	885.762
275.512	22.097	1154.668	884.273
276.526	22.064	1154.316	883.760
277.541	22.146	1153.632	883.570
278.555	22.227	1153.169	883.547
279.570	22.507	1152.747	884.551
280.585	22.694	1151.957	884.805
281.599	22.702	1151.276	884.242
282.614	22.346	1149.950	881.365
283.628	22.244	1148.522	879.681
284.643	22.318	1147.509	879.196
285.657	22.199	1146.609	877.834
286.672	22.236	1145.866	877.375
287.687	22.315	1144.932	876.976
288.701	22.247	1143.862	875.738
289.716	22.273	1143.153	875.250
290.730	22.249	1142.849	874.817
291.745	22.220	1142.489	874.322
292.760	22.349	1141.751	874.321
293.774	22.364	1141.372	874.027
294.789	22.538	1140.869	874.429
295.803	22.615	1140.314	874.307
296.818	22.220	1139.652	871.764
297.833	22.245	1138.071	870.599
298.847	22.226	1137.606	870.075
299.862	22.214	1136.835	869.349
300.876	22.325	1135.997	869.179
301.891	22.560	1135.441	869.838
302.906	22.597	1135.395	869.909
303.920	22.684	1134.961	869.927
304.935	22.933	1134.339	870.601
305.949	23.030	1133.857	870.628
306.964	23.095	1133.132	870.318
307.979	22.777	1132.598	868.268
308.993	22.712	1131.451	866.991
310.008	22.868	1130.581	867.013
311.022	22.922	1129.987	866.745
312.037	22.831	1129.155	865.584
313.052	22.755	1127.747	864.056
314.066	22.454	1126.672	861.685
315.081	22.181	1125.997	859.757
316.095	22.234	1124.519	858.809
317.110	22.224	1123.805	858.139
318.125	22.182	1123.106	857.324
319.139	22.207	1122.803	857.138
320.154	22.259	1121.841	856.581
321.168	22.188	1121.895	856.201
322.183	22.225	1120.956	855.589
323.197	22.269	1120.310	855.236
324.212	22.335	1119.911	855.178
325.227	22.391	1119.488	855.049
326.241	22.398	1118.803	854.486
327.256	22.452	1117.756	853.871
328.270	22.253	1116.819	852.118
329.285	22.219	1115.819	851.114
330.300	22.289	1115.026	850.769
331.314	22.294	1114.110	850.022
332.329	22.234	1113.395	849.110
333.343	22.318	1112.880	849.048
334.358	22.601	1111.880	849.573
335.373	22.695	1111.238	849.463
336.387	22.864	1110.474	849.616
337.402	22.880	1110.183	849.397
338.416	22.761	1109.864	848.502
339.431	22.975	1108.938	848.748
340.446	23.070	1108.868	849.074
341.460	23.283	1108.526	849.762
342.475	23.341	1107.814	849.420
343.489	23.456	1106.717	849.052
344.504	23.611	1105.997	849.166
345.519	23.617	1104.938	848.308
346.533	23.623	1104.646	848.038
347.548	23.695	1104.038	847.840
348.562	23.510	1102.662	845.826
349.577	23.149	1101.482	843.124
350.592	22.979	1100.447	841.451
351.606	22.739	1100.041	839.921
352.621	22.642	1098.852	838.480
353.635	22.579	1098.151	837.569
354.650	22.579	1097.527	837.021
355.665	22.596	1097.323	836.871
356.679	22.840	1096.453	837.289
357.694	22.921	1096.209	837.415
358.708	23.000	1095.239	836.972
359.723	23.110	1094.854	837.125
360.738	23.110	1093.952	836.361
361.752	23.027	1093.707	835.708
362.767	23.149	1092.758	835.485
363.781	23.012	1092.347	834.452
364.796	23.309	1092.182	835.650
365.810	23.477	1091.775	836.057
366.825	23.665	1091.233	836.453
367.840	23.833	1091.016	837.004
368.854	23.942	1090.251	836.859
369.869	23.983	1088.986	836.007
370.883	23.681	1088.530	834.163
371.898	23.599	1087.195	832.680
372.913	23.520	1086.823	831.954
373.927	23.548	1087.123	832.240
374.942	23.632	1086.595	832.158
375.956	23.689	1085.851	831.777
376.971	23.714	1084.769	830.994
377.986	23.756	1084.814	831.153
379.000	23.894	1084.641	831.593
380.015	23.960	1083.861	831.225
381.029	24.066	1083.185	831.131
382.044	23.972	1082.418	830.031
383.059	23.961	1081.708	829.363
384.073	23.814	1080.863	827.954
385.088	23.981	1079.768	827.820
386.102	24.004	1079.162	827.387
387.117	23.564	1077.977	824.362
388.132	23.367	1076.509	822.253
389.146	23.315	1075.399	821.093
390.161	23.356	1074.883	820.816
391.175	23.361	1074.171	820.223
392.190	23.469	1073.942	820.473
393.205	23.617	1073.673	820.881
394.219	23.768	1072.828	820.861
395.234	23.481	1071.437	818.398
396.248	23.400	1070.404	817.166
397.263	23.329	1069.651	816.187
398.278	23.151	1069.179	814.935
399.292	23.153	1067.884	813.887
400.307	23.209	1067.074	813.453
401.321	23.124	1066.996	812.936
402.336	23.123	1065.649	811.832
403.350	23.056	1065.144	811.067
404.365	23.237	1064.598	811.408
405.380	23.449	1064.060	811.899
406.394	23.543	1063.384	811.739
407.409	23.646	1062.913	811.780
408.423	23.923	1062.414	812.594
409.438	23.981	1061.787	812.305
410.453	24.148	1060.947	812.354
411.467	24.139	1060.472	811.877
412.482	24.141	1059.885	811.366
413.496	24.156	1059.811	811.302
414.511	24.360	1059.147	811.654
415.526	24.342	1058.595	811.075
416.540	24.442	1058.445	811.343
417.555	24.537	1057.700	811.132
418.569	24.237	1057.080	809.221
419.584	24.268	1056.816	809.090
420.599	24.138	1056.103	807.883
421.613	157.025	1403.695	1798.082
422.628	144.254	1454.340	1798.192
