DTS Sentinel unit serial number:	SN413079Multiplexer serial number:	ORYXHardware model number:	OX4-SRSoftware version number:	ORYX F/W v4.00 Oryx Data Collector v3.7.2.0data status	okinstallation	princeton_trtdifferential loss correction	single-endedforward channel	channel 2reverse channel	N/Adate	2019/09/13time	11:39:35forward acquisition time	60.00reverse acquisition time	0.00gamma	496.2192k internal	0.2318k external	0.2318temperature offset calibration	1.0204default loss term (dB/km)	0.3790temperature slope calibration	1.0000multiplexer offset coefficient	1.0000multiplexer slope coefficient	1.0000fibre end	0.00T internal ref (°C)	33.00T ext. ref 1 (°C)	4.47T ext. ref 2 (°C)	30.25length (m)	temperature (°C)	Stokes	anti-Stokes-747.200	33.297	0.283	0.249
-746.185	465.294	-0.098	0.221
-745.171	-5.609	0.124	0.086
-744.156	170.623	-0.133	0.193
-743.142	403.100	-0.120	0.255
-742.127	187.008	-0.310	0.467
-741.112	546.294	-0.124	0.300
-740.098	-200.000	0.039	0.380
-739.083	194.906	-0.159	0.244
-738.069	-128.945	-0.432	0.061
-737.054	-200.000	-0.013	-0.105
-736.039	0.012	-0.175	-0.126
-735.025	-103.104	-0.225	0.054
-734.010	-200.000	-0.006	0.176
-732.996	800.000	-0.090	-0.357
-731.981	-42.967	-0.160	-0.082
-730.966	-98.641	-0.325	0.084
-729.952	-124.660	-0.283	0.044
-728.937	52.583	0.189	-0.183
-727.923	-50.041	-0.199	-0.095
-726.908	-200.000	-0.001	-0.252
-725.894	43.627	-0.198	-0.183
-724.879	247.849	0.054	-0.092
-723.864	-102.603	-0.266	0.064
-722.850	-59.877	-0.391	0.169
-721.835	-82.412	-0.244	0.080
-720.821	-200.000	0.006	-0.110
-719.806	-1.851	-0.101	-0.072
-718.791	148.943	-0.095	0.130
-717.777	-20.592	0.173	0.108
-716.762	22.514	-0.141	-0.116
-715.748	323.310	-0.222	-0.428
-714.733	-200.000	0.006	0.029
-713.718	-134.227	0.362	0.045
-712.704	26.577	-0.236	0.200
-711.689	-54.259	0.303	-0.139
-710.675	-126.840	-0.169	0.025
-709.660	153.588	-0.177	-0.245
-708.645	-200.000	0.036	0.190
-707.631	90.685	0.232	-0.263
-706.616	-50.659	-0.300	0.143
-705.602	-197.530	-0.179	0.001
-704.587	-75.936	-0.285	-0.102
-703.572	-39.357	-0.239	0.127
-702.558	-141.908	-0.145	-0.015
-701.543	-200.000	-0.050	0.286
-700.529	192.958	-0.036	-0.055
-699.514	60.430	-0.447	-0.447
-698.499	-200.000	-0.013	-0.306
-697.485	290.788	0.141	-0.259
-696.470	-88.944	-0.322	0.096
-695.456	-200.000	0.002	-0.018
-694.441	284.357	0.049	0.090
-693.426	44.425	-0.209	0.193
-692.412	-114.187	-0.161	-0.031
-691.397	-153.100	-0.060	-0.004
-690.383	185.654	-0.167	-0.250
-689.368	2.565	0.075	-0.055
-688.354	-200.000	0.008	-0.064
-687.339	-9.851	-0.158	0.106
-686.324	358.249	0.073	-0.146
-685.310	173.575	0.141	0.206
-684.295	-72.977	0.257	-0.095
-683.281	208.386	-0.058	-0.091
-682.266	-46.833	-0.390	-0.192
-681.251	-200.000	-0.064	-0.386
-680.237	274.211	0.076	0.135
-679.222	324.779	0.052	-0.101
-678.208	-89.105	0.399	0.119
-677.193	345.028	-0.115	-0.228
-676.178	41.979	-0.100	-0.092
-675.164	505.152	0.049	-0.115
-674.149	-98.172	0.073	-0.019
-673.135	-79.224	0.216	0.074
-672.120	208.673	-0.174	0.274
-671.105	154.936	0.097	0.134
-670.091	29.154	-0.033	0.028
-669.076	-102.332	-0.117	0.028
-668.062	-161.305	0.131	-0.007
-667.047	-62.607	-0.138	0.058
-666.032	216.805	-0.071	-0.114
-665.018	43.093	0.053	-0.049
-664.003	553.232	-0.177	0.429
-662.989	-104.075	0.169	-0.040
-661.974	-29.842	-0.237	0.137
-660.959	48.339	0.147	0.139
-659.945	647.503	-0.055	0.142
-658.930	7.807	-0.314	-0.237
-657.916	232.750	-0.059	-0.098
-656.901	-5.010	0.168	0.116
-655.886	360.962	-0.063	-0.128
-654.872	-100.154	0.317	-0.079
-653.857	-50.730	-0.056	0.026
-652.843	-56.959	-0.277	0.123
-651.828	800.000	-0.086	-0.317
-650.814	-200.000	0.010	-0.100
-649.799	-173.991	-0.352	-0.010
-648.784	60.481	-0.151	0.151
-647.770	105.803	-0.153	-0.182
-646.755	-43.220	-0.369	-0.188
-645.741	-46.587	0.161	0.079
-644.726	304.198	0.021	-0.039
-643.711	508.795	0.017	0.041
-642.697	800.000	-0.010	-0.030
-641.682	800.000	-0.062	-0.194
-640.668	92.449	0.074	-0.084
-639.653	-200.000	-0.051	-0.234
-638.638	147.046	-0.194	0.263
-637.624	684.459	-0.138	-0.364
-636.609	587.202	0.011	-0.026
-635.595	-95.854	-0.308	-0.083
-634.580	-58.901	-0.217	0.094
-633.565	122.465	-0.194	-0.245
-632.551	-23.319	-0.241	0.146
-631.536	-200.000	-0.017	0.158
-630.522	-200.000	0.059	0.323
-629.507	192.547	-0.123	-0.188
-628.492	75.391	0.301	-0.320
-627.478	-129.413	-0.229	-0.032
-626.463	220.711	0.127	0.206
-625.449	800.000	0.056	0.211
-624.434	-200.000	0.049	-0.428
-623.419	-200.000	-0.000	-0.125
-622.405	800.000	-0.055	-0.215
-621.390	-200.000	-0.025	-0.426
-620.376	119.733	-0.383	0.478
-619.361	800.000	0.093	0.274
-618.346	-57.931	-0.080	0.035
-617.332	-186.394	0.362	-0.005
-616.317	367.023	-0.064	0.130
-615.303	-61.604	0.268	-0.113
-614.288	-79.262	-0.052	0.018
-613.273	-142.850	-0.230	-0.022
-612.259	-20.932	-0.298	-0.184
-611.244	800.000	-0.071	-0.207
-610.230	162.258	-0.337	-0.475
-609.215	18.655	0.363	-0.292
-608.201	50.073	0.248	0.235
-607.186	287.900	-0.031	-0.056
-606.171	33.230	-0.222	-0.194
-605.157	20.313	-0.153	0.124
-604.142	76.461	0.095	-0.101
-603.128	195.276	0.122	-0.187
-602.113	-28.385	-0.006	0.004
-601.098	111.005	-0.162	-0.196
-600.084	464.224	0.089	-0.199
-599.069	194.853	0.223	-0.340
-598.055	31.054	0.156	-0.135
-597.040	800.000	0.066	-0.186
-596.025	33.030	0.175	-0.153
-595.011	-200.000	-0.046	0.255
-593.996	-110.579	0.372	0.078
-592.982	258.365	0.058	0.100
-591.967	207.210	0.088	0.138
-590.952	195.348	0.158	-0.242
-589.938	-59.254	-0.358	0.155
-588.923	-58.386	-0.319	-0.139
-587.909	-65.801	-0.310	-0.125
-586.894	-22.723	-0.254	-0.154
-585.879	-200.000	-0.016	-0.107
-584.865	-38.658	0.148	0.078
-583.850	703.132	0.177	0.470
-582.836	-200.000	-0.014	0.111
-581.821	11.660	0.204	-0.157
-580.806	17.359	-0.120	-0.096
-579.792	-83.685	-0.181	-0.058
-578.777	-120.724	-0.336	-0.057
-577.763	800.000	-0.034	0.124
-576.748	-179.562	-0.092	0.002
-575.733	800.000	0.077	-0.223
-574.719	-49.776	0.474	0.227
-573.704	-109.364	-0.252	0.054
-572.690	225.028	-0.159	-0.259
-571.675	20.148	0.142	0.116
-570.661	-64.089	-0.018	-0.007
-569.646	232.728	0.030	-0.050
-568.631	330.645	0.044	-0.086
-567.617	239.588	-0.064	0.107
-566.602	-200.000	0.008	0.108
-565.588	-200.000	-0.017	-0.131
-564.573	800.000	-0.127	-0.404
-563.558	116.732	-0.096	-0.118
-562.544	164.249	0.140	0.199
-561.529	101.399	-0.157	-0.184
-560.515	800.000	-0.057	-0.220
-559.500	-200.000	0.019	-0.254
-558.485	-118.449	-0.077	0.014
-557.471	-26.720	0.240	0.141
-556.456	-155.260	-0.262	0.017
-555.442	-200.000	0.010	-0.224
-554.427	-68.579	-0.165	0.064
-553.412	-200.000	0.050	-0.387
-552.398	-92.743	0.305	-0.086
-551.383	-24.698	-0.070	-0.042
-550.369	-200.000	-0.012	0.088
-549.354	-157.164	-0.169	-0.010
-548.339	-92.642	0.349	0.098
-547.325	-113.573	0.251	0.049
-546.310	800.000	-0.034	0.138
-545.296	129.789	-0.109	-0.140
-544.281	743.305	0.102	-0.275
-543.266	-115.819	-0.085	-0.016
-542.252	262.584	0.089	0.155
-541.237	-21.995	-0.260	-0.159
-540.223	-189.646	0.377	-0.004
-539.208	-200.000	-0.020	-0.258
-538.193	-200.000	-0.002	-0.206
-537.179	800.000	0.037	0.134
-536.164	800.000	-0.052	0.193
-535.150	645.406	-0.117	-0.300
-534.135	-111.847	0.475	-0.096
-533.121	-2.653	0.257	0.180
-532.106	-171.853	0.314	-0.010
-531.091	800.000	-0.079	-0.220
-530.077	-200.000	0.030	-0.325
-529.062	-200.000	0.025	0.165
-528.048	-113.636	-0.048	-0.009
-527.033	-168.323	0.090	-0.003
-526.018	136.872	0.008	-0.011
-525.004	316.348	-0.203	-0.385
-523.989	-200.000	-0.027	0.199
-522.975	-90.684	-0.239	0.069
-521.960	-57.544	0.161	-0.071
-520.945	380.018	-0.092	-0.189
-519.931	111.615	0.150	-0.182
-518.916	-200.000	-0.002	-0.056
-517.902	-106.524	-0.229	0.051
-516.887	85.333	0.289	0.318
-515.872	-96.844	-0.491	0.129
-514.858	439.759	-0.076	0.167
-513.843	-200.000	0.016	0.241
-512.829	-200.000	0.040	0.347
-511.814	-200.000	-0.010	0.290
-510.799	800.000	0.014	0.047
-509.785	-118.599	-0.049	-0.009
-508.770	800.000	0.089	-0.298
-507.756	368.523	0.098	0.199
-506.741	64.667	0.102	-0.103
-505.726	79.409	-0.270	-0.291
-504.712	-81.492	-0.251	0.083
-503.697	789.764	-0.076	0.210
-502.683	227.456	0.101	-0.164
-501.668	-65.781	-0.209	-0.084
-500.653	-67.382	0.450	0.177
-499.639	193.744	-0.127	-0.193
-498.624	525.540	0.080	0.189
-497.610	74.511	-0.144	0.152
-496.595	63.637	-0.218	0.220
-495.581	601.204	0.066	0.165
-494.566	227.435	-0.093	0.151
-493.551	-200.000	-0.055	0.268
-492.537	-28.436	0.424	0.245
-491.522	55.435	-0.024	-0.024
-490.508	-200.000	-0.007	-0.032
-489.493	800.000	-0.032	0.104
-488.478	-200.000	0.024	-0.187
-487.464	-200.000	-0.015	-0.247
-486.449	271.815	0.139	0.245
-485.435	-144.686	0.113	-0.010
-484.420	-200.000	0.032	-0.209
-483.405	-21.583	-0.237	0.145
-482.391	-200.000	-0.045	0.300
-481.376	-200.000	0.083	-0.412
-480.362	800.000	-0.074	0.305
-479.347	204.919	0.043	0.066
-478.332	258.154	-0.051	0.087
-477.318	-76.319	0.167	-0.059
-476.303	-78.538	0.130	-0.045
-475.289	800.000	0.056	-0.216
-474.274	-200.000	-0.027	-0.147
-473.259	-200.000	-0.048	0.317
-472.245	342.571	-0.166	-0.326
-471.230	-99.395	-0.115	-0.029
-470.216	800.000	0.100	0.382
-469.201	181.145	-0.127	0.186
-468.186	88.903	0.190	-0.211
-467.172	25.697	0.171	0.142
-466.157	-143.340	-0.094	-0.009
-465.143	-200.000	-0.004	-0.224
-464.128	800.000	0.114	-0.352
-463.113	-80.776	-0.140	0.046
-462.099	23.256	0.099	0.081
-461.084	800.000	0.065	0.272
-460.070	-87.401	0.326	-0.099
-459.055	177.623	-0.108	-0.157
-458.040	-175.673	0.267	0.007
-457.026	435.310	0.123	-0.267
-456.011	-100.616	0.352	0.087
-454.997	-4.284	-0.093	0.064
-453.982	-92.585	-0.417	0.117
-452.968	-102.480	0.328	-0.078
-451.953	110.035	0.129	0.155
-450.938	-63.644	0.238	-0.098
-449.924	-85.463	0.201	-0.063
-448.909	0.447	0.389	-0.278
-447.895	25.516	-0.220	0.183
-446.880	505.837	0.058	-0.135
-445.865	-200.000	0.005	-0.357
-444.851	76.383	0.248	0.263
-443.836	-42.286	0.317	-0.162
-442.822	193.705	-0.179	0.271
-441.807	-200.000	-0.059	0.403
-440.792	-200.000	-0.014	0.226
-439.778	-35.411	-0.377	0.205
-438.763	-117.836	-0.273	-0.049
-437.749	400.364	0.092	0.192
-436.734	-200.000	-0.011	0.226
-435.719	19.423	0.099	0.080
-434.705	-200.000	-0.010	0.075
-433.690	502.201	-0.092	-0.212
-432.676	-54.845	-0.171	-0.077
-431.661	302.671	0.017	-0.031
-430.646	800.000	-0.080	-0.291
-429.632	64.891	-0.230	-0.232
-428.617	392.772	-0.158	0.329
-427.603	-138.242	0.107	0.012
-426.588	203.526	0.139	0.215
-425.573	-80.927	-0.372	-0.123
-424.559	60.538	-0.141	0.139
-423.544	-115.137	0.172	0.033
-422.530	214.338	0.077	-0.122
-421.515	588.386	-0.107	-0.263
-420.500	583.191	0.052	-0.127
-419.486	338.949	-0.155	0.302
-418.471	-86.433	0.230	0.071
-417.457	371.057	0.011	-0.022
-416.442	160.155	0.130	-0.181
-415.428	-65.574	-0.092	-0.037
-414.413	27.142	-0.087	-0.073
-413.398	-200.000	-0.022	-0.144
-412.384	84.739	-0.153	-0.168
-411.369	-111.810	-0.219	-0.044
-410.355	-47.819	0.246	0.119
-409.340	800.000	0.071	-0.213
-408.325	260.058	-0.079	-0.136
-407.311	800.000	0.091	0.269
-406.296	800.000	-0.054	-0.231
-405.282	42.129	0.086	0.078
-404.267	64.284	0.187	0.188
-403.252	-200.000	0.012	0.227
-402.238	800.000	-0.067	-0.196
-401.223	121.152	-0.179	0.223
-400.209	563.341	-0.046	0.111
-399.194	444.275	0.063	-0.138
-398.179	-72.598	-0.112	0.041
-397.165	425.241	0.053	0.113
-396.150	265.104	-0.087	-0.151
-395.136	-95.792	-0.214	-0.057
-394.121	-104.690	0.215	0.049
-393.106	90.022	0.279	-0.311
-392.092	536.375	-0.084	-0.199
-391.077	800.000	-0.090	-0.258
-390.063	25.403	0.263	-0.218
-389.048	511.215	-0.134	0.312
-388.033	800.000	-0.066	0.229
-387.019	366.683	-0.221	0.445
-386.004	800.000	-0.029	0.122
-384.990	-94.102	-0.377	0.103
-383.975	56.020	-0.440	-0.426
-382.960	-64.787	0.102	-0.041
-381.946	117.964	-0.118	0.145
-380.931	147.390	0.225	0.302
-379.917	-137.373	-0.107	-0.012
-378.902	-200.000	-0.016	-0.174
-377.888	800.000	0.022	0.090
-376.873	299.253	0.032	-0.059
-375.858	-200.000	-0.001	0.043
-374.844	300.236	0.031	-0.056
-373.829	163.179	0.171	0.240
-372.815	-38.327	-0.110	-0.058
-371.800	800.000	-0.064	0.209
-370.785	139.981	-0.169	-0.223
-369.771	800.000	-0.097	-0.277
-368.756	-40.358	-0.225	0.116
-367.742	800.000	-0.052	-0.186
-366.727	248.438	-0.146	0.246
-365.712	-200.000	-0.037	0.167
-364.698	-200.000	0.078	0.347
-363.683	-72.177	-0.056	0.021
-362.669	-68.504	-0.227	-0.088
-361.654	800.000	-0.072	0.249
-360.639	37.849	-0.273	0.242
-359.625	-55.253	-0.312	-0.140
-358.610	-103.535	0.407	0.095
-357.596	679.556	0.103	0.266
-356.581	775.793	-0.082	-0.222
-355.566	367.158	0.027	0.055
-354.552	-121.493	0.232	0.038
-353.537	20.925	0.131	-0.106
-352.523	-25.851	0.265	-0.156
-351.508	24.639	0.216	0.179
-350.493	6.490	-0.045	0.033
-349.479	-200.000	-0.007	0.232
-348.464	-53.126	0.400	-0.183
-347.450	800.000	0.096	0.271
-346.435	-27.531	-0.083	0.048
-345.420	84.039	0.052	0.057
-344.406	-140.485	0.101	-0.010
-343.391	-138.490	0.200	0.022
-342.377	-54.751	-0.399	-0.179
-341.362	-200.000	-0.006	-0.252
-340.348	-6.192	0.138	0.094
-339.333	-40.776	0.040	0.021
-338.318	-128.559	0.298	0.042
-337.304	-60.348	0.187	0.079
-336.289	-188.576	0.271	0.003
-335.275	-42.449	0.255	-0.129
-334.260	59.203	0.169	0.165
-333.245	-103.931	-0.353	-0.082
-332.231	155.735	-0.075	-0.102
-331.216	-200.000	0.001	-0.171
-330.202	-80.012	-0.241	-0.081
-329.187	800.000	0.099	0.276
-328.172	-42.949	0.213	0.108
-327.158	-45.201	0.056	-0.028
-326.143	160.708	0.025	0.035
-325.129	-125.179	0.068	0.010
-324.114	532.839	0.144	-0.340
-323.099	45.284	0.016	0.015
-322.085	425.335	0.058	0.124
-321.070	-91.317	0.281	0.080
-320.056	789.437	0.067	0.184
-319.041	-96.653	0.247	0.065
-318.026	-112.817	0.262	-0.052
-317.012	160.607	-0.050	-0.069
-315.997	3.092	0.393	0.284
-314.983	-200.000	-0.033	0.257
-313.968	109.436	0.218	0.260
-312.953	-13.581	0.256	0.165
-311.939	289.770	-0.141	-0.254
-310.924	92.715	0.122	0.137
-309.910	10.368	-0.120	-0.091
-308.895	-73.329	0.080	0.029
-307.880	136.972	0.152	-0.198
-306.866	-200.000	-0.044	0.410
-305.851	-200.000	-0.000	0.124
-304.837	-29.488	0.421	0.239
-303.822	-9.290	-0.225	-0.150
-302.807	518.296	-0.039	0.091
-301.793	671.418	0.007	-0.018
-300.778	173.354	0.090	-0.129
-299.764	133.184	0.147	0.189
-298.749	67.057	-0.188	-0.191
-297.735	-93.464	0.097	-0.027
-296.720	-200.000	0.006	0.068
-295.705	800.000	-0.036	-0.103
-294.691	-200.000	0.002	-0.057
-293.676	-200.000	0.033	0.156
-292.662	216.876	-0.041	0.065
-291.647	-128.760	-0.173	-0.024
-290.632	-67.450	-0.381	-0.149
-289.618	173.846	0.171	0.246
-288.603	-162.816	0.454	-0.022
-287.589	-114.440	-0.321	0.061
-286.574	-110.921	-0.169	-0.034
-285.559	212.465	-0.040	0.062
-284.545	800.000	0.117	0.344
-283.530	-105.930	0.059	0.013
-282.516	-200.000	-0.003	-0.142
-281.501	-200.000	-0.016	0.271
-280.486	88.160	0.100	0.110
-279.472	239.930	0.085	-0.140
-278.457	-63.180	0.159	-0.065
-277.443	-79.830	-0.070	0.023
-276.428	67.310	-0.048	0.048
-275.413	800.000	-0.054	0.200
-274.399	445.434	0.089	0.194
-273.384	94.311	0.099	0.112
-272.370	-103.671	0.144	-0.034
-271.355	-30.422	-0.187	0.105
-270.340	-53.391	-0.207	0.094
-269.326	-187.982	0.653	-0.008
-268.311	12.919	-0.151	-0.116
-267.297	18.832	-0.121	0.096
-266.282	800.000	0.029	0.102
-265.267	562.927	0.119	0.285
-264.253	255.261	-0.146	-0.248
-263.238	-200.000	0.002	0.121
-262.224	11.636	-0.161	0.123
-261.209	23.990	-0.338	0.277
-260.195	261.534	-0.048	-0.082
-259.180	218.603	0.191	0.303
-258.165	-58.057	0.112	-0.049
-257.151	-138.974	0.356	-0.038
-256.136	32.550	0.213	0.182
-255.122	-200.000	-0.002	0.293
-254.107	79.167	-0.185	0.197
-253.092	52.889	-0.167	0.158
-252.078	-200.000	-0.007	0.140
-251.063	-16.737	-0.265	-0.167
-250.049	124.978	0.119	0.149
-249.034	-53.762	-0.222	-0.100
-248.019	-133.788	-0.054	0.007
-247.005	511.893	-0.136	-0.314
-245.990	221.295	-0.160	0.255
-244.976	-179.540	0.113	0.002
-243.961	-52.193	-0.162	-0.074
-242.946	117.857	-0.106	0.129
-241.932	800.000	0.057	-0.234
-240.917	800.000	-0.063	0.260
-239.903	142.570	-0.192	0.253
-238.888	-200.000	-0.039	-0.484
-237.873	800.000	0.084	-0.234
-236.859	458.757	0.128	-0.282
-235.844	-6.314	0.190	0.129
-234.830	-133.564	-0.317	0.039
-233.815	-53.622	0.244	-0.110
-232.800	-115.150	-0.285	-0.054
-231.786	-57.125	0.131	-0.057
-230.771	503.024	-0.062	-0.143
-229.757	-120.456	-0.179	0.030
-228.742	569.102	0.142	-0.341
-227.727	409.581	-0.116	0.245
-226.713	-143.968	-0.249	-0.023
-225.698	-73.223	-0.290	-0.105
-224.684	354.983	0.127	-0.251
-223.669	-63.305	0.087	-0.035
-222.655	-200.000	-0.038	-0.175
-221.640	189.127	-0.048	0.071
-220.625	800.000	0.107	-0.368
-219.611	-160.330	0.195	-0.010
-218.596	272.167	-0.099	0.173
-217.582	-200.000	0.047	-0.208
-216.567	-12.948	0.192	0.124
-215.552	175.064	0.146	0.210
-214.538	800.000	-0.006	0.019
-213.523	0.981	0.152	0.108
-212.509	-200.000	0.019	-0.110
-211.494	-120.644	-0.083	0.014
-210.479	147.058	0.139	0.186
-209.465	428.576	0.158	-0.338
-208.450	-10.424	-0.066	-0.043
-207.436	800.000	-0.112	0.314
-206.421	800.000	0.041	0.115
-205.406	-170.902	-0.336	0.011
-204.392	-93.201	-0.278	-0.077
-203.377	-17.204	0.287	0.179
-202.363	-116.773	0.366	0.067
-201.348	800.000	-0.037	-0.147
-200.333	38.776	-0.097	-0.086
-199.319	40.158	-0.263	0.234
-198.304	-61.632	-0.069	0.029
-197.290	417.944	0.192	0.407
-196.275	-94.962	-0.067	-0.018
-195.260	-200.000	0.011	-0.165
-194.246	800.000	0.005	-0.020
-193.231	-121.154	-0.330	0.055
-192.217	800.000	0.069	0.220
-191.202	334.608	-0.046	-0.087
-190.187	221.999	-0.132	-0.210
-189.173	-33.506	0.241	-0.132
-188.158	615.615	0.046	-0.114
-187.144	-200.000	0.005	0.115
-186.129	-114.752	-0.190	0.036
-185.114	-76.401	-0.240	0.084
-184.100	8.841	0.254	-0.189
-183.085	48.979	0.156	0.145
-182.071	-89.279	0.188	-0.055
-181.056	-99.856	-0.302	-0.075
-180.042	-82.206	-0.440	-0.142
-179.027	84.224	0.019	-0.021
-178.012	-121.104	0.320	-0.053
-176.998	-200.000	0.027	-0.141
-175.983	209.109	-0.017	0.026
-174.969	-140.501	0.070	0.007
-173.954	-56.966	-0.028	0.012
-172.939	46.861	-0.239	-0.219
-171.925	-41.813	-0.154	0.078
-170.910	47.962	-0.068	0.063
-169.896	-61.120	0.405	-0.169
-168.881	-200.000	0.019	-0.197
-167.866	-200.000	-0.014	-0.304
-166.852	-100.203	-0.043	0.011
-165.837	34.213	0.148	-0.128
-164.823	-200.000	-0.014	-0.065
-163.808	574.494	0.120	-0.291
-162.793	800.000	-0.012	-0.040
-161.779	-200.000	-0.016	0.272
-160.764	-200.000	-0.008	-0.138
-159.750	-9.696	0.193	0.127
-158.735	73.873	0.187	0.194
-157.720	120.679	-0.154	0.190
-156.706	43.219	-0.101	-0.091
-155.691	-128.295	0.256	0.036
-154.677	800.000	-0.049	0.180
-153.662	-6.813	-0.362	0.243
-152.647	-46.677	-0.279	-0.135
-151.633	-187.652	0.039	-0.001
-150.618	-88.705	-0.251	-0.074
-149.604	289.040	0.141	0.252
-148.589	-190.174	-0.388	0.004
-147.574	-46.394	0.118	-0.057
-146.560	321.940	-0.094	-0.177
-145.545	-200.000	-0.055	0.321
-144.531	201.923	-0.114	-0.173
-143.516	-67.795	0.395	-0.153
-142.502	-126.620	0.103	-0.015
-141.487	55.062	0.040	0.038
-140.472	800.000	0.038	0.145
-139.458	23.210	-0.063	0.051
-138.443	273.869	0.091	-0.159
-137.429	-153.655	0.448	-0.030
-136.414	66.630	0.141	0.142
-135.399	-48.788	-0.392	-0.186
-134.385	800.000	0.015	0.056
-133.370	-52.416	0.062	-0.028
-132.356	168.757	0.134	0.188
-131.341	385.086	-0.120	-0.244
-130.326	-200.000	-0.033	0.160
-129.312	-200.000	-0.007	-0.098
-128.297	-3.822	0.286	0.196
-127.283	9.126	-0.085	0.064
-126.268	631.241	0.098	0.244
-125.253	-14.586	-0.220	-0.139
-124.239	60.769	0.330	0.323
-123.224	-200.000	0.020	0.179
-122.210	44.385	0.193	0.175
-121.195	-200.000	0.043	-0.280
-120.180	-107.862	-0.081	0.017
-119.166	-131.870	-0.294	-0.038
-118.151	-99.842	0.475	-0.117
-117.137	-62.062	0.243	-0.100
-116.122	391.478	0.058	-0.120
-115.107	67.728	0.175	-0.177
-114.093	286.812	0.112	-0.201
-113.078	125.514	-0.098	-0.122
-112.064	711.957	0.086	0.226
-111.049	405.488	0.031	0.064
-110.034	-117.857	-0.330	0.058
-109.020	156.413	0.097	-0.133
-108.005	320.619	-0.068	0.127
-106.991	-14.733	-0.194	-0.123
-105.976	222.174	0.075	-0.120
-104.962	750.130	-0.167	-0.446
-103.947	-200.000	0.019	-0.238
-102.932	19.027	-0.434	0.344
-101.918	-56.338	-0.092	0.040
-100.903	-200.000	0.020	-0.170
-99.889	150.350	0.102	0.136
-98.874	107.094	0.150	0.175
-97.859	-134.144	0.103	-0.013
-96.845	48.455	-0.250	-0.231
-95.830	-49.851	-0.390	-0.183
-94.816	800.000	0.064	0.196
-93.801	-94.474	-0.134	0.036
-92.786	-200.000	-0.004	-0.143
-91.772	5.142	-0.303	0.220
-90.757	-21.704	-0.065	-0.039
-89.743	-200.000	-0.044	-0.270
-88.728	76.236	0.109	-0.114
-87.713	170.635	-0.282	-0.398
-86.699	-200.000	0.036	0.322
-85.684	-200.000	-0.010	0.338
-84.670	68.192	0.281	-0.284
-83.655	-43.290	0.212	-0.106
-82.640	-22.661	-0.178	0.106
-81.626	123.574	0.264	0.327
-80.611	-189.525	0.188	-0.002
-79.597	-58.591	0.204	0.087
-78.582	-9.788	-0.278	-0.182
-77.567	158.717	0.119	0.162
-76.553	10.284	-0.103	0.077
-75.538	-161.733	-0.075	-0.004
-74.524	-154.558	0.170	-0.011
-73.509	-80.134	0.371	0.123
-72.494	-200.000	-0.026	0.458
-71.480	84.204	0.324	0.350
-70.465	-132.955	0.299	-0.037
-69.451	-200.000	0.025	-0.222
-68.436	-65.921	0.274	-0.108
-67.422	800.000	-0.015	0.047
-66.407	-200.000	-0.025	0.119
-65.392	-200.000	0.083	0.597
-64.378	-134.292	0.382	0.046
-63.363	3.280	-0.080	-0.057
-62.349	140.981	0.130	-0.170
-61.334	-28.136	-1.084	-0.618
-60.319	198.249	0.175	0.263
-59.305	674.510	-0.441	-1.128
-58.290	56.353	0.755	0.723
-57.276	800.000	0.457	1.532
-56.261	-200.000	97.921	593.029
-55.246	611.326	1435.643	3535.962
-54.232	182.024	2646.169	3839.350
-53.217	112.761	2320.089	2767.905
-52.203	42.489	1930.449	1729.669
-51.188	36.311	1719.070	1492.619
-50.173	33.500	1675.246	1433.289
-49.159	51.251	1722.942	1610.509
-48.144	53.281	1739.248	1641.225
-47.130	36.008	1697.238	1471.118
-46.115	33.188	1682.546	1436.939
-45.100	32.962	1678.014	1431.295
-44.086	32.960	1674.928	1428.596
-43.071	32.905	1672.796	1426.302
-42.057	32.901	1669.958	1423.798
-41.042	32.870	1668.415	1422.188
-40.027	32.939	1665.833	1420.454
-39.013	32.841	1663.966	1418.069
-37.998	32.830	1662.498	1416.679
-36.984	32.890	1661.695	1416.389
-35.969	32.935	1660.322	1415.495
-34.954	33.077	1658.106	1414.614
-33.940	33.007	1656.510	1412.672
-32.925	32.934	1655.207	1410.961
-31.911	32.899	1653.242	1408.966
-30.896	33.030	1650.944	1407.932
-29.881	33.052	1649.181	1406.537
-28.867	32.927	1647.726	1404.309
-27.852	32.935	1645.941	1402.792
-26.838	32.871	1645.019	1401.474
-25.823	33.003	1643.015	1400.689
-24.809	33.002	1641.762	1399.557
-23.794	33.052	1640.028	1398.395
-22.779	33.038	1638.598	1397.013
-21.765	32.999	1637.056	1395.357
-20.750	32.959	1635.678	1393.837
-19.736	33.074	1633.873	1393.087
-18.721	33.067	1632.460	1391.776
-17.706	33.092	1630.578	1390.303
-16.692	33.114	1629.153	1389.195
-15.677	33.116	1628.172	1388.311
-14.663	33.028	1626.897	1386.523
-13.648	33.132	1625.068	1385.678
-12.633	33.028	1623.528	1383.548
-11.619	32.980	1622.559	1382.316
-10.604	33.126	1620.608	1381.667
-9.590	33.082	1619.467	1380.312
-8.575	33.065	1618.155	1379.014
-7.560	33.011	1617.116	1377.686
-6.546	33.010	1615.818	1376.520
-5.531	33.051	1615.078	1376.132
-4.517	33.029	1613.497	1374.567
-3.502	33.065	1612.004	1373.500
-2.487	33.144	1610.134	1372.428
-1.473	32.864	1599.511	1361.300
-0.458	30.421	1579.736	1326.989
0.556	29.180	1579.811	1293.810
1.571	26.611	1604.224	1295.334
2.586	25.494	1615.275	1296.090
3.600	21.979	1560.289	1227.332
4.615	13.450	1448.858	1083.958
5.629	5.811	1384.075	987.457
6.644	4.400	1375.891	972.692
7.659	4.541	1374.320	972.380
8.673	4.416	1373.536	970.959
9.688	4.524	1371.879	970.373
10.702	4.393	1369.540	967.818
11.717	8.194	1376.425	996.379
12.731	16.987	1392.466	1063.243
13.746	22.466	1401.046	1104.146
14.761	22.747	1400.164	1105.116
15.775	21.977	1397.973	1098.472
16.790	20.967	1395.077	1089.791
17.804	20.115	1393.465	1083.110
18.819	19.773	1391.871	1079.645
19.834	19.691	1390.684	1078.112
20.848	19.541	1390.358	1076.829
21.863	19.482	1388.740	1075.117
22.877	19.181	1387.829	1072.437
23.892	19.244	1386.460	1071.682
24.907	19.088	1386.415	1070.578
25.921	19.226	1384.931	1070.197
26.936	19.199	1384.036	1069.239
27.950	19.220	1382.809	1068.328
28.965	19.373	1381.994	1068.552
29.980	19.550	1381.213	1068.950
30.994	19.619	1380.223	1068.516
32.009	19.643	1379.104	1067.706
33.023	19.492	1378.031	1065.847
34.038	19.533	1376.417	1064.755
35.053	19.404	1374.802	1062.616
36.067	19.311	1373.998	1061.334
37.082	19.395	1372.745	1060.786
38.096	19.528	1371.659	1060.673
39.111	19.486	1371.477	1060.179
40.126	19.437	1370.198	1058.794
41.140	19.168	1368.998	1056.122
42.155	18.946	1368.934	1054.617
43.169	18.968	1368.384	1054.236
44.184	18.902	1367.896	1053.365
45.199	19.000	1367.660	1053.691
46.213	19.081	1367.301	1053.817
47.228	19.254	1366.932	1054.498
48.242	19.357	1365.410	1053.859
49.257	19.301	1364.182	1052.473
50.271	19.341	1362.673	1051.460
51.286	19.364	1361.282	1050.436
52.301	19.322	1359.845	1048.976
53.315	19.141	1358.895	1047.050
54.330	19.036	1357.939	1045.584
55.344	19.000	1356.430	1044.110
56.359	19.008	1355.492	1043.344
57.374	19.018	1354.528	1042.571
58.388	18.946	1353.634	1041.355
59.403	18.912	1353.441	1040.907
60.417	18.937	1352.302	1040.091
61.432	18.794	1351.544	1038.553
62.447	18.737	1350.602	1037.395
63.461	18.622	1349.593	1035.829
64.476	18.596	1348.163	1034.488
65.490	18.616	1347.057	1033.667
66.505	18.715	1345.152	1032.706
67.520	18.756	1344.289	1032.201
68.534	18.869	1343.235	1031.981
69.549	18.756	1342.326	1030.512
70.563	18.635	1341.171	1028.807
71.578	18.557	1339.817	1027.210
72.593	18.512	1339.126	1026.320
73.607	18.434	1338.489	1025.277
74.622	18.653	1337.176	1025.487
75.636	18.655	1336.559	1024.937
76.651	18.651	1336.249	1024.586
77.666	18.640	1335.283	1023.687
78.680	18.727	1335.167	1024.026
79.695	18.773	1334.418	1023.633
80.709	18.951	1333.579	1023.959
81.724	19.015	1332.789	1023.647
82.739	19.031	1332.575	1023.483
83.753	19.195	1331.846	1023.807
84.768	19.385	1331.011	1024.206
85.782	19.514	1329.943	1024.055
86.797	19.553	1328.625	1023.182
87.812	19.464	1326.791	1021.152
88.826	19.361	1326.297	1020.073
89.841	19.221	1325.414	1018.475
90.855	19.518	1323.882	1018.964
91.870	19.562	1323.223	1018.625
92.884	19.554	1322.794	1018.157
93.899	19.462	1322.198	1017.067
94.914	19.595	1321.062	1016.886
95.928	19.584	1320.376	1016.203
96.943	19.528	1319.156	1014.844
97.957	19.559	1318.161	1014.175
98.972	19.313	1317.472	1012.112
99.987	19.387	1316.146	1011.436
101.001	19.432	1315.293	1010.956
102.016	19.516	1314.169	1010.492
103.030	19.580	1313.346	1010.143
104.045	19.362	1312.441	1008.084
105.060	19.379	1310.558	1006.647
106.074	19.019	1309.648	1003.762
107.089	18.851	1307.510	1001.055
108.103	18.773	1305.690	999.117
109.118	18.710	1304.743	997.941
110.133	18.725	1303.777	997.201
111.147	18.816	1302.351	996.545
112.162	18.675	1301.275	994.819
113.176	18.906	1300.028	995.114
114.191	18.982	1299.169	994.810
115.206	18.963	1297.630	993.430
116.220	18.890	1296.680	992.198
117.235	18.942	1295.730	991.679
118.249	18.783	1294.538	989.765
119.264	18.707	1293.651	988.559
120.279	18.732	1292.080	987.416
121.293	18.664	1290.968	986.090
122.308	18.437	1290.180	984.095
123.322	18.520	1288.484	983.190
124.337	18.551	1287.693	982.681
125.352	18.488	1287.195	981.853
126.366	18.529	1285.702	980.861
127.381	18.457	1284.682	979.583
128.395	18.554	1283.227	978.941
129.410	18.579	1282.445	978.398
130.424	18.564	1282.200	978.040
131.439	18.800	1280.993	978.380
132.454	18.796	1280.424	977.836
133.468	18.787	1279.562	977.038
134.483	18.864	1278.669	976.708
135.497	18.954	1277.233	976.038
136.512	18.865	1276.274	974.714
137.527	18.960	1275.171	974.322
138.541	19.039	1273.188	973.165
139.556	19.072	1272.537	972.770
140.570	19.118	1271.765	972.355
141.585	19.266	1270.530	972.157
142.600	19.316	1269.005	971.187
143.614	19.504	1268.401	971.698
144.629	19.486	1267.383	970.729
145.643	19.493	1266.431	969.958
146.658	19.227	1265.347	967.547
147.673	19.125	1263.206	965.253
148.687	19.086	1261.875	963.930
149.702	18.873	1260.508	961.608
150.716	18.918	1259.374	960.909
151.731	18.894	1258.487	960.012
152.746	18.979	1257.153	959.385
153.760	19.038	1256.011	958.761
154.775	19.079	1255.402	958.438
155.789	19.145	1254.415	957.965
156.804	19.102	1253.583	957.008
157.819	19.205	1252.265	956.487
158.833	19.353	1251.512	956.651
159.848	19.561	1250.543	956.979
160.862	19.489	1249.540	955.729
161.877	19.204	1248.341	953.146
162.892	18.916	1246.833	950.318
163.906	19.056	1245.575	950.051
164.921	18.927	1245.010	948.825
165.935	19.110	1244.429	949.307
166.950	19.101	1243.727	948.637
167.964	19.150	1242.886	948.181
168.979	19.081	1241.870	946.940
169.994	19.122	1241.171	946.554
171.008	19.172	1240.580	946.291
172.023	19.268	1239.773	946.119
173.037	19.304	1239.620	946.119
174.052	19.392	1238.396	945.584
175.067	19.081	1237.341	942.989
176.081	18.998	1235.933	941.377
177.096	18.935	1234.955	940.207
178.110	19.051	1233.808	939.882
179.125	19.155	1232.495	939.369
180.140	19.228	1231.514	938.931
181.154	19.259	1230.867	938.528
182.169	19.342	1229.102	937.546
183.183	19.452	1228.511	937.612
184.198	19.595	1227.147	937.265
185.213	19.574	1226.450	936.534
186.227	19.479	1225.356	935.100
187.242	19.637	1224.279	935.053
188.256	19.682	1223.429	934.562
189.271	19.574	1222.773	933.396
190.286	19.524	1221.251	931.881
191.300	19.062	1219.759	928.168
192.315	18.884	1219.348	926.814
193.329	18.985	1218.650	926.744
194.344	19.010	1218.667	926.812
195.359	19.028	1218.040	926.353
196.373	19.301	1217.240	927.128
197.388	19.304	1217.225	927.049
198.402	19.645	1216.833	928.502
199.417	19.751	1216.363	928.632
200.432	19.941	1215.531	928.935
201.446	19.994	1214.868	928.629
202.461	20.032	1214.141	928.196
203.475	19.909	1212.846	926.468
204.490	19.765	1211.623	924.682
205.504	19.490	1210.477	922.255
206.519	19.527	1209.240	921.426
207.534	19.472	1207.975	920.089
208.548	19.424	1207.473	919.368
209.563	19.526	1206.070	918.763
210.577	19.502	1205.015	917.748
211.592	19.595	1204.507	917.777
212.607	19.813	1203.724	918.254
213.621	19.867	1202.972	917.886
214.636	19.832	1201.587	916.564
215.650	19.757	1200.922	915.577
216.665	19.881	1200.451	915.793
217.680	19.991	1199.488	915.560
218.694	20.090	1199.039	915.659
219.709	19.925	1197.910	913.844
220.723	20.016	1196.569	913.224
221.738	19.964	1196.026	912.452
222.753	19.985	1195.269	911.906
223.767	19.952	1194.594	911.135
224.782	19.986	1194.311	911.020
225.796	20.205	1193.743	911.655
226.811	20.187	1192.523	910.551
227.826	20.043	1191.723	909.102
228.840	19.984	1190.832	908.031
229.855	19.982	1190.151	907.420
230.869	19.844	1189.812	906.362
231.884	19.771	1188.491	904.889
232.899	19.844	1187.297	904.282
233.913	19.592	1187.305	902.893
234.928	19.624	1186.355	902.258
235.942	19.531	1185.637	901.149
236.957	19.698	1184.299	900.920
237.972	19.615	1183.781	900.014
238.986	19.667	1183.078	899.672
240.001	19.654	1182.715	899.247
241.015	19.699	1182.196	899.008
242.030	19.845	1181.109	898.862
243.045	19.763	1180.837	898.145
244.059	19.944	1179.703	898.145
245.074	19.980	1178.741	897.519
246.088	20.047	1178.498	897.601
247.103	20.103	1177.845	897.313
248.117	20.252	1177.097	897.437
249.132	20.410	1176.380	897.628
250.147	20.553	1176.411	898.310
251.161	20.727	1175.340	898.309
252.176	20.687	1174.657	897.502
253.190	20.849	1174.364	898.036
254.205	20.830	1173.820	897.442
255.220	20.976	1173.070	897.541
256.234	20.760	1172.432	895.861
257.249	20.798	1171.390	895.180
258.263	20.825	1171.064	894.992
259.278	20.713	1170.446	893.868
260.293	20.859	1169.727	893.987
261.307	20.913	1169.169	893.759
262.322	20.901	1168.704	893.260
263.336	21.073	1168.003	893.526
264.351	21.058	1167.130	892.704
265.366	21.075	1166.511	892.237
266.380	21.035	1166.082	891.628
267.395	21.022	1164.915	890.591
268.409	20.674	1164.542	888.448
269.424	20.764	1163.843	888.295
270.439	20.763	1163.186	887.712
271.453	20.761	1161.845	886.599
272.468	20.668	1161.056	885.444
273.482	20.513	1160.668	884.281
274.497	20.690	1159.711	884.376
275.512	20.634	1159.228	883.645
276.526	20.617	1158.828	883.172
277.541	20.657	1158.006	882.674
278.555	20.785	1157.293	882.698
279.570	21.018	1156.984	883.567
280.585	21.070	1156.277	883.214
281.599	21.002	1155.166	881.939
282.614	20.898	1153.851	880.332
283.628	20.801	1152.340	878.613
284.643	20.800	1151.905	878.198
285.657	20.831	1150.911	877.522
286.672	20.804	1149.775	876.442
287.687	20.880	1148.950	876.114
288.701	20.827	1148.755	875.621
289.716	20.765	1147.630	874.377
290.730	20.769	1147.175	873.975
291.745	20.977	1146.798	874.651
292.760	20.926	1145.813	873.567
293.774	20.961	1145.439	873.382
294.789	21.138	1144.575	873.531
295.803	21.068	1143.998	872.664
296.818	20.921	1142.987	871.082
297.833	20.868	1142.054	870.028
298.847	20.859	1141.431	869.432
299.862	21.039	1140.422	869.483
300.876	21.088	1139.699	869.098
301.891	21.094	1139.343	868.778
302.906	21.213	1138.890	868.951
303.920	21.269	1138.301	868.700
304.935	21.274	1137.999	868.417
305.949	21.476	1137.132	868.684
306.964	21.379	1136.472	867.622
307.979	21.356	1135.604	866.767
308.993	21.246	1134.923	865.628
310.008	21.324	1134.351	865.501
311.022	21.352	1133.510	864.922
312.037	21.256	1132.623	863.694
313.052	21.278	1131.357	862.760
314.066	21.040	1130.633	860.955
315.081	21.020	1129.320	859.783
316.095	20.916	1128.557	858.612
317.110	20.967	1127.881	858.271
318.125	20.987	1126.924	857.567
319.139	20.949	1126.423	856.925
320.154	20.986	1125.574	856.382
321.168	20.975	1125.118	855.906
322.183	21.045	1124.524	855.722
323.197	21.045	1124.378	855.535
324.212	21.009	1123.685	854.755
325.227	21.094	1122.815	854.436
326.241	21.180	1122.448	854.500
327.256	21.155	1121.383	853.494
328.270	21.076	1120.643	852.467
329.285	21.006	1119.624	851.273
330.300	21.072	1118.577	850.726
331.314	21.022	1117.474	849.567
332.329	21.085	1116.698	849.208
333.343	21.080	1116.066	848.629
334.358	21.249	1115.133	848.667
335.373	21.401	1114.420	848.787
336.387	21.267	1114.114	847.827
337.402	21.350	1113.070	847.363
338.416	21.516	1112.296	847.501
339.431	21.565	1111.798	847.282
340.446	21.761	1111.467	847.903
341.460	21.695	1111.054	847.196
342.475	21.787	1110.097	846.835
343.489	21.832	1109.274	846.349
344.504	21.905	1108.594	846.110
345.519	21.890	1107.235	844.925
346.533	22.065	1106.779	845.346
347.548	22.015	1106.494	844.811
348.562	21.982	1105.282	843.652
349.577	21.767	1104.270	841.770
350.592	21.705	1103.110	840.517
351.606	21.579	1102.056	839.034
352.621	21.477	1101.334	837.922
353.635	21.290	1100.999	836.695
354.650	21.443	1100.279	836.807
355.665	21.571	1099.804	836.986
356.679	21.753	1098.633	836.890
357.694	21.698	1098.373	836.356
358.708	21.653	1098.144	835.891
359.723	21.668	1097.198	835.169
360.738	21.729	1096.645	834.965
361.752	21.671	1096.357	834.397
362.767	21.689	1095.730	833.930
363.781	21.741	1095.364	833.826
364.796	21.958	1094.401	834.050
365.810	22.120	1094.009	834.446
366.825	22.016	1093.831	833.744
367.840	22.320	1093.039	834.508
368.854	22.366	1092.383	834.152
369.869	22.374	1091.509	833.449
370.883	22.274	1090.484	832.119
371.898	22.118	1089.838	830.814
372.913	22.091	1089.392	830.273
373.927	22.168	1088.610	829.970
374.942	22.210	1088.293	829.852
375.956	22.329	1087.847	830.000
376.971	22.280	1087.284	829.265
377.986	22.187	1086.800	828.386
379.000	22.445	1086.300	829.144
380.015	22.495	1085.838	828.951
381.029	22.615	1084.837	828.678
382.044	22.494	1083.972	827.376
383.059	22.487	1083.433	826.861
384.073	22.502	1082.397	826.066
385.088	22.601	1081.425	825.714
386.102	22.438	1081.165	824.681
387.117	22.281	1079.645	822.713
388.132	22.101	1078.529	820.951
389.146	22.221	1077.565	820.701
390.161	22.073	1077.250	819.702
391.175	22.113	1076.566	819.296
392.190	22.120	1076.125	818.916
393.205	22.345	1075.404	819.344
394.219	22.413	1074.473	818.877
395.234	22.292	1072.986	817.110
396.248	22.188	1072.269	816.009
397.263	22.213	1071.440	815.425
398.278	22.167	1070.612	814.507
399.292	21.996	1069.976	813.161
400.307	21.928	1069.079	812.092
401.321	21.959	1068.457	811.693
402.336	21.865	1067.950	810.800
403.350	21.942	1067.014	810.371
404.365	22.097	1066.409	810.557
405.380	22.151	1065.859	810.315
406.394	22.221	1065.154	810.033
407.409	22.305	1064.615	809.934
408.423	22.511	1064.155	810.462
409.438	22.444	1063.708	809.742
410.453	22.655	1062.961	810.071
411.467	22.777	1061.846	809.708
412.482	22.809	1061.411	809.452
413.496	22.870	1060.974	809.329
414.511	22.919	1060.391	809.034
415.526	22.999	1059.988	809.021
416.540	23.180	1059.413	809.341
417.555	22.902	1059.030	807.706
418.569	22.983	1057.955	807.185
419.584	22.814	1058.080	806.436
420.599	22.811	1057.390	805.822
421.613	155.055	1401.262	1792.107
422.628	142.500	1451.385	1792.202
