DTS Sentinel unit serial number:	SN413079Multiplexer serial number:	ORYXHardware model number:	OX4-SRSoftware version number:	ORYX F/W v4.00 Oryx Data Collector v3.7.2.0data status	okinstallation	princeton_trtdifferential loss correction	single-endedforward channel	channel 2reverse channel	N/Adate	2019/09/12time	11:01:11forward acquisition time	60.00reverse acquisition time	0.00gamma	496.2192k internal	0.2305k external	0.2305temperature offset calibration	1.0068default loss term (dB/km)	0.3790temperature slope calibration	1.0000multiplexer offset coefficient	1.0000multiplexer slope coefficient	1.0000fibre end	0.00T internal ref (°C)	38.44T ext. ref 1 (°C)	1.93T ext. ref 2 (°C)	36.26length (m)	temperature (°C)	Stokes	anti-Stokes-747.200	-200.000	0.012	0.119
-746.185	-110.850	-0.132	0.028
-745.171	-200.000	0.018	0.118
-744.156	133.568	0.272	0.358
-743.142	-84.826	0.269	0.086
-742.127	-200.000	-0.004	0.141
-741.112	800.000	-0.082	-0.283
-740.098	-200.000	-0.107	0.663
-739.083	363.236	0.100	-0.204
-738.069	-141.199	-0.070	-0.007
-737.054	-6.235	0.078	-0.054
-736.039	-28.610	-0.373	-0.219
-735.025	196.073	-0.109	0.169
-734.010	-151.635	-0.441	-0.033
-732.996	-98.752	-0.137	-0.035
-731.981	404.169	-0.114	0.245
-730.966	51.077	-0.176	-0.170
-729.952	-200.000	-0.025	-0.189
-728.937	-54.996	-0.131	0.060
-727.923	800.000	0.025	-0.104
-726.908	-200.000	0.005	0.338
-725.894	353.481	0.140	0.282
-724.879	337.059	-0.150	0.297
-723.864	-200.000	-0.095	-0.572
-722.850	800.000	-0.048	0.161
-721.835	111.324	0.064	-0.078
-720.821	-200.000	-0.021	0.157
-719.806	298.293	0.110	-0.205
-718.791	-149.685	0.182	0.015
-717.777	800.000	-0.071	-0.218
-716.762	-68.723	-0.307	0.121
-715.748	156.791	0.165	-0.232
-714.733	231.451	-0.133	-0.222
-713.718	556.755	-0.020	0.049
-712.704	20.667	-0.113	-0.093
-711.689	2.110	-0.071	0.052
-710.675	96.794	-0.129	-0.150
-709.660	-32.506	0.203	-0.115
-708.645	591.954	0.083	-0.209
-707.631	5.933	0.472	-0.355
-706.616	-200.000	-0.031	-0.296
-705.602	-200.000	-0.063	-0.482
-704.587	-200.000	0.023	-0.376
-703.572	133.251	0.051	-0.067
-702.558	153.510	0.175	0.244
-701.543	-31.398	-0.198	-0.113
-700.529	-46.438	-0.212	0.105
-699.514	-133.139	0.183	0.024
-698.499	-86.416	0.293	0.092
-697.485	800.000	0.066	-0.224
-696.470	-200.000	-0.018	-0.253
-695.456	-153.126	-0.436	-0.031
-694.441	800.000	0.036	0.159
-693.426	-200.000	-0.090	-0.405
-692.412	-167.758	-0.108	0.004
-691.397	355.553	-0.018	0.036
-690.383	-97.938	-0.093	0.024
-689.368	-137.133	-0.338	0.039
-688.354	523.718	0.068	-0.163
-687.339	-200.000	0.048	-0.380
-686.324	220.988	0.132	0.216
-685.310	170.388	-0.098	-0.143
-684.295	117.556	0.192	-0.240
-683.281	93.624	0.032	0.037
-682.266	394.925	0.051	0.108
-681.251	-81.498	0.182	0.061
-680.237	-107.098	-0.329	0.074
-679.222	-200.000	-0.025	-0.127
-678.208	-200.000	0.013	-0.206
-677.193	-123.636	-0.234	-0.038
-676.178	-200.000	0.008	0.058
-675.164	-109.347	-0.138	0.030
-674.149	-42.711	0.213	-0.110
-673.135	-107.724	0.061	0.013
-672.120	490.391	-0.029	-0.068
-671.105	128.552	-0.118	0.153
-670.091	800.000	-0.077	0.261
-669.076	97.250	0.228	-0.266
-668.062	-96.418	-0.091	0.025
-667.047	-162.015	0.241	0.012
-666.032	-108.953	-0.273	0.059
-665.018	123.953	-0.051	-0.065
-664.003	800.000	-0.075	-0.305
-662.989	-81.837	-0.263	0.087
-661.974	-200.000	-0.002	-0.095
-660.959	-40.883	0.297	-0.156
-659.945	-200.000	0.004	-0.196
-658.930	115.105	-0.157	-0.194
-657.916	-200.000	0.010	0.231
-656.901	167.688	0.226	0.326
-655.886	-51.561	0.219	0.104
-654.872	800.000	-0.041	0.175
-653.857	159.381	-0.110	0.155
-652.843	-113.517	0.204	-0.041
-651.828	721.419	0.026	0.069
-650.814	313.221	-0.106	-0.202
-649.799	217.496	-0.103	0.167
-648.784	-52.988	-0.382	0.178
-647.770	-131.376	-0.349	-0.047
-646.755	240.577	0.080	-0.135
-645.741	2.857	0.236	0.174
-644.726	170.553	-0.038	-0.055
-643.711	136.022	0.113	0.149
-642.697	108.652	-0.064	0.078
-641.682	-188.566	0.097	0.001
-640.668	81.350	0.149	0.163
-639.653	43.504	-0.088	0.082
-638.638	800.000	0.032	0.103
-637.624	-67.946	-0.165	0.065
-636.609	-88.266	0.145	-0.044
-635.595	-15.732	-0.247	-0.160
-634.580	70.819	0.247	-0.260
-633.565	331.983	0.073	0.143
-632.551	-112.953	0.063	0.013
-631.536	-40.929	-0.182	-0.095
-630.522	800.000	-0.030	0.107
-629.507	-149.175	-0.090	0.007
-628.492	-26.099	-0.368	0.219
-627.478	-126.208	-0.169	-0.026
-626.463	136.435	-0.205	0.271
-625.449	-200.000	0.008	0.155
-624.434	155.192	0.128	-0.178
-623.419	144.920	-0.197	0.267
-622.405	-79.212	-0.112	0.038
-621.390	800.000	-0.040	0.161
-620.376	-200.000	-0.018	0.171
-619.361	-200.000	0.002	0.147
-618.346	225.840	0.100	-0.164
-617.332	-200.000	-0.030	-0.200
-616.317	-200.000	0.006	-0.141
-615.303	-200.000	-0.012	-0.198
-614.288	800.000	0.027	-0.100
-613.273	40.499	0.062	0.057
-612.259	-200.000	0.020	0.211
-611.244	-200.000	-0.008	-0.111
-610.230	461.093	-0.054	-0.121
-609.215	68.799	-0.162	-0.169
-608.201	403.484	-0.102	0.218
-607.186	-53.128	0.124	0.058
-606.171	243.692	-0.161	0.273
-605.157	-23.498	-0.094	-0.057
-604.142	679.540	-0.073	0.192
-603.128	124.736	-0.187	0.238
-602.113	-3.750	-0.123	-0.087
-601.098	31.317	-0.207	-0.180
-600.084	-200.000	-0.035	-0.313
-599.069	-87.807	-0.252	0.077
-598.055	94.671	0.069	-0.079
-597.040	118.834	-0.157	0.196
-596.025	-164.642	-0.071	0.003
-595.011	-51.392	-0.142	0.067
-593.996	690.432	-0.057	0.151
-592.982	683.334	0.148	-0.390
-591.967	8.449	-0.127	0.097
-590.952	130.631	-0.145	0.188
-589.938	800.000	-0.057	-0.200
-588.923	800.000	0.039	0.119
-587.909	394.981	-0.019	-0.040
-586.894	184.981	0.127	-0.191
-585.879	39.834	0.150	-0.136
-584.865	586.142	-0.007	0.016
-583.850	100.570	0.235	0.276
-582.836	-200.000	-0.024	-0.168
-581.821	800.000	-0.067	-0.195
-580.806	-200.000	0.011	-0.056
-579.792	-71.572	-0.213	0.081
-578.777	8.032	0.334	-0.254
-577.763	800.000	0.005	-0.017
-576.748	25.145	0.271	-0.228
-575.733	-130.198	0.328	0.045
-574.719	10.258	-0.219	0.168
-573.704	-97.045	-0.516	-0.137
-572.690	46.371	-0.197	-0.184
-571.675	800.000	-0.070	-0.300
-570.661	800.000	0.070	-0.257
-569.646	147.197	-0.151	-0.206
-568.631	121.334	0.062	-0.079
-567.617	107.189	-0.159	0.191
-566.602	71.715	0.159	-0.167
-565.588	-46.435	-0.348	0.172
-564.573	-74.166	0.287	0.105
-563.558	335.967	0.145	0.285
-562.544	-94.503	0.348	-0.096
-561.529	100.015	-0.277	-0.325
-560.515	-139.468	0.067	-0.007
-559.500	800.000	0.061	-0.195
-558.485	-59.564	0.086	-0.037
-557.471	639.566	0.128	-0.329
-556.456	-60.379	-0.145	0.062
-555.442	-76.170	-0.210	0.075
-554.427	-131.207	-0.160	-0.022
-553.412	800.000	-0.085	-0.348
-552.398	-200.000	-0.061	-0.347
-551.383	13.052	0.223	-0.174
-550.369	-42.670	-0.126	-0.065
-549.354	-86.046	-0.220	0.069
-548.339	-200.000	-0.025	0.222
-547.325	-200.000	0.016	-0.122
-546.310	113.470	-0.199	-0.244
-545.296	800.000	0.050	0.159
-544.281	-12.500	0.264	-0.174
-543.266	-47.763	0.392	-0.192
-542.252	800.000	-0.076	-0.282
-541.237	800.000	-0.113	-0.471
-540.223	-200.000	0.002	-0.014
-539.208	310.597	-0.244	-0.462
-538.193	800.000	0.084	-0.338
-537.179	-61.598	-0.385	-0.163
-536.164	-200.000	-0.020	0.151
-535.150	178.349	0.200	0.294
-534.135	-97.192	-0.179	-0.047
-533.121	48.937	0.137	0.130
-532.106	30.768	0.170	-0.147
-531.091	-42.932	0.275	0.141
-530.077	-133.318	-0.199	-0.025
-529.062	140.390	-0.075	-0.100
-528.048	-104.369	0.099	0.023
-527.033	205.748	0.111	-0.174
-526.018	29.047	-0.079	-0.068
-525.004	800.000	0.071	-0.259
-523.989	800.000	0.122	-0.455
-522.975	-200.000	0.022	-0.362
-521.960	184.470	-0.139	-0.207
-520.945	90.319	0.106	0.119
-519.931	74.275	0.113	0.119
-518.916	-200.000	0.011	-0.187
-517.902	-200.000	-0.013	0.076
-516.887	-21.609	0.050	0.030
-515.872	-105.867	-0.152	0.035
-514.858	-200.000	-0.048	0.218
-513.843	-200.000	-0.048	-0.439
-512.829	-137.629	-0.318	-0.036
-511.814	374.350	0.108	-0.221
-510.799	446.217	0.077	0.171
-509.785	800.000	0.096	0.276
-508.770	25.593	0.107	-0.090
-507.756	54.648	-0.169	0.165
-506.741	-200.000	-0.037	0.208
-505.726	94.341	-0.132	0.151
-504.712	800.000	-0.012	0.036
-503.697	800.000	-0.151	-0.444
-502.683	667.564	0.021	-0.056
-501.668	-98.750	0.104	0.027
-500.653	187.695	0.155	0.233
-499.639	-200.000	-0.009	0.227
-498.624	-94.857	0.233	-0.064
-497.610	220.657	0.165	0.267
-496.595	11.267	-0.223	-0.172
-495.581	-200.000	0.033	0.153
-494.566	210.170	-0.095	0.151
-493.551	-29.302	-0.246	0.142
-492.537	68.787	0.107	-0.111
-491.522	-200.000	0.002	0.086
-490.508	-169.360	0.502	-0.019
-489.493	800.000	-0.102	-0.333
-488.478	-0.778	-0.140	0.100
-487.464	-109.795	0.186	-0.039
-486.449	800.000	0.036	0.132
-485.435	-200.000	0.042	-0.196
-484.420	53.944	0.230	-0.222
-483.405	-200.000	0.063	0.278
-482.391	431.650	0.133	0.290
-481.376	-117.994	-0.069	-0.012
-480.362	-148.664	-0.234	-0.019
-479.347	-88.652	0.157	-0.047
-478.332	800.000	-0.152	0.452
-477.318	-38.824	-0.134	0.071
-476.303	-90.516	-0.225	0.066
-475.289	3.360	-0.337	0.247
-474.274	-26.426	0.318	0.188
-473.259	-69.224	-0.373	0.144
-472.245	64.806	0.162	0.165
-471.230	87.433	-0.127	0.141
-470.216	-36.767	-0.141	0.076
-469.201	-200.000	-0.054	0.347
-468.186	-158.570	-0.099	0.006
-467.172	-64.510	0.133	0.055
-466.157	-200.000	0.031	0.210
-465.143	275.804	-0.066	0.119
-464.128	40.761	0.181	-0.164
-463.113	-99.912	0.225	0.056
-462.099	-200.000	0.014	-0.130
-461.084	-53.132	-0.133	-0.061
-460.070	29.206	0.182	-0.155
-459.055	-36.578	-0.042	0.023
-458.040	-200.000	0.030	0.302
-457.026	-109.153	0.126	-0.027
-456.011	-89.911	0.190	-0.056
-454.997	-93.357	-0.087	0.024
-453.982	256.034	0.134	-0.232
-452.968	-145.037	0.188	0.017
-451.953	-159.634	0.310	-0.017
-450.938	463.202	0.101	-0.227
-449.924	-103.994	0.069	-0.016
-448.909	-200.000	0.016	-0.113
-447.895	-50.480	-0.399	-0.190
-446.880	-35.229	0.357	0.196
-445.865	-200.000	0.005	0.312
-444.851	143.254	0.081	0.108
-443.836	350.994	0.081	-0.161
-442.822	-200.000	0.019	0.108
-441.807	800.000	0.012	0.043
-440.792	-89.149	-0.185	0.055
-439.778	-115.834	0.166	0.031
-438.763	-151.197	0.259	0.019
-437.749	-200.000	0.017	0.364
-436.734	471.830	-0.166	0.375
-435.719	-54.672	-0.289	0.131
-434.705	485.081	-0.039	0.090
-433.690	24.924	0.265	0.221
-432.676	800.000	0.049	0.207
-431.661	88.676	0.239	0.267
-430.646	115.820	-0.119	0.146
-429.632	-103.889	-0.186	0.044
-428.617	-159.644	-0.252	0.014
-427.603	35.175	-0.167	0.147
-426.588	-86.894	0.176	0.054
-425.573	158.386	-0.298	0.415
-424.559	374.314	0.137	-0.281
-423.544	800.000	-0.050	-0.187
-422.530	513.821	0.146	-0.343
-421.515	-176.731	-0.196	0.005
-420.500	-122.930	0.189	0.031
-419.486	-31.925	-0.183	-0.103
-418.471	110.334	0.154	-0.186
-417.457	-104.468	0.405	-0.094
-416.442	482.389	-0.179	0.409
-415.428	-200.000	0.030	-0.141
-414.413	-200.000	-0.035	0.286
-413.398	158.715	-0.116	0.162
-412.384	488.727	0.052	0.120
-411.369	-58.037	0.153	0.067
-410.355	-200.000	-0.008	0.135
-409.340	555.556	-0.084	-0.204
-408.325	15.785	-0.059	-0.046
-407.311	-126.883	0.136	0.020
-406.296	-200.000	0.006	-0.200
-405.282	514.257	0.027	-0.062
-404.267	-117.965	-0.081	-0.015
-403.252	-200.000	-0.021	-0.305
-402.238	-120.606	0.243	-0.041
-401.223	800.000	-0.037	-0.148
-400.209	-67.895	0.204	0.080
-399.194	622.271	-0.139	0.351
-398.179	440.619	-0.133	0.292
-397.165	800.000	0.075	-0.238
-396.150	-96.109	-0.140	0.037
-395.136	-55.813	-0.338	0.152
-394.121	342.001	-0.075	0.147
-393.106	-112.044	0.056	0.011
-392.092	35.926	-0.116	0.103
-391.077	800.000	-0.053	0.170
-390.063	800.000	0.068	-0.274
-389.048	-133.444	0.411	-0.052
-388.033	127.378	-0.060	-0.077
-387.019	-8.951	0.208	0.140
-386.004	-170.756	0.160	0.006
-384.990	-138.032	0.119	0.013
-383.975	-200.000	-0.012	-0.322
-382.960	46.902	0.173	0.161
-381.946	-26.538	-0.177	-0.104
-380.931	-49.189	0.297	-0.143
-379.917	-200.000	0.005	0.068
-378.902	162.600	-0.237	-0.334
-377.888	87.445	0.111	0.123
-376.873	-89.450	0.129	0.038
-375.858	123.457	-0.306	-0.385
-374.844	-102.169	0.170	0.041
-373.829	597.500	0.117	0.291
-372.815	-87.906	-0.391	-0.118
-371.800	230.405	0.165	-0.271
-370.785	-151.483	-0.084	0.006
-369.771	180.055	0.111	0.164
-368.756	-73.046	-0.317	0.117
-367.742	-49.650	0.228	-0.109
-366.727	555.136	-0.157	-0.379
-365.712	-158.760	0.382	-0.022
-364.698	800.000	-0.008	-0.036
-363.683	350.973	0.112	-0.223
-362.669	205.079	0.137	0.213
-361.654	-200.000	0.024	-0.132
-360.639	37.488	-0.272	0.242
-359.625	-200.000	0.005	0.033
-358.610	-166.485	0.387	-0.016
-357.596	13.228	-0.183	0.142
-356.581	-125.253	-0.237	-0.036
-355.566	195.583	-0.188	0.287
-354.552	-200.000	-0.051	0.297
-353.537	128.988	-0.188	0.241
-352.523	-68.095	-0.289	-0.113
-351.508	-77.210	0.196	0.068
-350.493	213.720	0.092	-0.145
-349.479	-142.825	0.023	0.002
-348.464	323.293	0.167	-0.319
-347.450	-200.000	0.005	-0.432
-346.435	56.364	-0.178	-0.174
-345.420	-104.927	-0.138	-0.032
-344.406	-2.438	0.096	-0.068
-343.391	-3.730	-0.335	-0.233
-342.377	61.628	-0.377	0.376
-341.362	777.289	0.025	-0.067
-340.348	800.000	0.085	-0.253
-339.333	-117.158	0.313	-0.057
-338.318	-130.928	0.082	0.011
-337.304	800.000	-0.057	-0.175
-336.289	18.642	-0.218	0.175
-335.275	30.516	0.024	-0.021
-334.260	-135.124	-0.462	-0.056
-333.245	53.902	-0.292	-0.281
-332.231	-14.108	0.060	0.039
-331.216	-200.000	-0.005	-0.149
-330.202	248.958	0.074	-0.126
-329.187	206.592	-0.087	0.136
-328.172	-119.754	0.238	0.041
-327.158	-105.206	-0.239	0.055
-326.143	165.545	0.238	0.337
-325.129	-1.252	-0.202	0.143
-324.114	317.348	0.167	0.317
-323.099	66.987	0.329	-0.336
-322.085	-200.000	0.001	-0.075
-321.070	156.514	0.143	0.198
-320.056	96.332	-0.112	-0.129
-319.041	127.206	0.103	0.130
-318.026	465.455	0.074	0.165
-317.012	40.676	0.390	-0.352
-315.997	-53.006	-0.371	-0.171
-314.983	800.000	0.056	0.164
-313.968	24.184	0.122	-0.100
-312.953	76.105	-0.049	0.052
-311.939	350.471	0.113	-0.224
-310.924	800.000	-0.065	-0.194
-309.910	69.833	0.153	0.158
-308.895	-24.982	0.212	-0.126
-307.880	4.346	0.188	-0.138
-306.866	114.435	0.093	0.114
-305.851	-64.828	-0.208	0.084
-304.837	-200.000	0.027	-0.154
-303.822	36.209	-0.267	-0.235
-302.807	-100.617	-0.332	0.082
-301.793	790.928	0.037	0.101
-300.778	-200.000	0.009	0.201
-299.764	-200.000	-0.011	0.272
-298.749	342.457	-0.048	-0.095
-297.735	-9.516	0.206	-0.137
-296.720	-200.000	-0.011	0.067
-295.705	800.000	-0.100	-0.387
-294.691	-143.984	0.233	0.022
-293.676	-81.139	0.277	0.091
-292.662	-117.452	0.143	0.026
-291.647	-67.033	-0.422	0.166
-290.632	9.587	0.227	-0.172
-289.618	-126.645	-0.119	0.018
-288.603	-156.867	0.073	0.004
-287.589	163.789	0.157	0.221
-286.574	-200.000	-0.016	0.213
-285.559	234.647	-0.228	0.376
-284.545	-200.000	0.033	0.496
-283.530	115.500	0.208	-0.255
-282.516	-124.454	-0.116	0.018
-281.501	234.187	0.071	0.117
-280.486	-68.897	-0.299	0.115
-279.472	16.641	-0.138	-0.109
-278.457	97.630	-0.066	0.076
-277.443	-94.952	-0.168	0.045
-276.428	-124.008	-0.132	0.021
-275.413	764.629	-0.097	0.262
-274.399	564.906	0.090	0.218
-273.384	-200.000	0.001	0.332
-272.370	1.419	0.180	0.129
-271.355	-3.025	-0.216	0.150
-270.340	42.794	0.120	0.110
-269.326	-86.737	0.160	0.049
-268.311	-86.738	0.541	-0.165
-267.297	262.978	-0.229	0.397
-266.282	-61.371	0.249	-0.105
-265.267	537.564	0.134	0.317
-264.253	-200.000	-0.032	0.363
-263.238	800.000	-0.019	0.066
-262.224	27.405	-0.262	0.220
-261.209	10.387	0.325	0.247
-260.195	-200.000	0.020	0.128
-259.180	-118.697	0.071	0.012
-258.165	-175.339	-0.099	0.003
-257.151	155.054	-0.251	-0.344
-256.136	-96.993	-0.148	0.039
-255.122	-200.000	-0.001	-0.304
-254.107	-165.664	0.223	-0.010
-253.092	-162.571	-0.190	0.009
-252.078	-15.097	-0.145	0.093
-251.063	-200.000	-0.012	-0.338
-250.049	-133.987	0.095	-0.012
-249.034	800.000	-0.058	0.204
-248.019	90.670	-0.124	-0.139
-247.005	-131.525	-0.358	-0.047
-245.990	800.000	-0.084	0.309
-244.976	-102.713	0.155	0.037
-243.961	80.524	-0.095	-0.102
-242.946	-34.626	0.111	-0.061
-241.932	248.650	0.044	0.075
-240.917	68.758	-0.032	0.033
-239.903	-38.428	-0.050	-0.026
-238.888	42.687	-0.194	-0.176
-237.873	33.065	-0.113	-0.098
-236.859	-22.444	0.096	-0.058
-235.844	223.355	0.201	0.324
-234.830	40.556	-0.185	-0.167
-233.815	800.000	0.116	-0.339
-232.800	587.369	0.019	-0.046
-231.786	-14.738	0.123	-0.079
-230.771	214.500	-0.241	0.381
-229.757	416.695	0.075	0.160
-228.742	-68.249	0.219	0.085
-227.727	-200.000	0.004	-0.261
-226.713	73.512	-0.102	0.106
-225.698	30.363	-0.289	-0.246
-224.684	-200.000	0.044	-0.309
-223.669	-139.191	-0.236	0.025
-222.655	-126.216	0.130	0.019
-221.640	-76.686	-0.109	-0.038
-220.625	34.684	0.159	0.138
-219.611	107.983	0.129	-0.154
-218.596	-167.702	0.150	0.006
-217.582	800.000	0.078	0.292
-216.567	-179.069	0.152	0.003
-215.552	-109.045	0.224	0.048
-214.538	-76.452	0.235	-0.082
-213.523	-155.872	-0.384	0.024
-212.509	245.251	0.290	0.486
-211.494	163.435	-0.214	0.300
-210.479	48.339	0.233	0.218
-209.465	39.045	0.247	-0.220
-208.450	-130.518	-0.314	0.042
-207.436	-119.309	-0.056	0.010
-206.421	-78.191	0.309	0.106
-205.406	-200.000	0.018	-0.367
-204.392	-18.764	0.167	0.104
-203.377	-200.000	0.079	-0.507
-202.363	514.433	-0.048	-0.112
-201.348	-30.499	-0.236	-0.133
-200.333	-64.354	-0.290	-0.118
-199.319	-61.132	-0.187	0.078
-198.304	-72.877	0.201	-0.074
-197.290	800.000	0.080	0.260
-196.275	457.024	-0.063	-0.139
-195.260	472.944	0.107	0.239
-194.246	800.000	-0.010	-0.039
-193.231	-121.767	0.137	0.023
-192.217	-140.005	0.069	0.007
-191.202	694.344	-0.062	0.162
-190.187	-200.000	0.008	-0.059
-189.173	800.000	-0.041	-0.169
-188.158	120.909	0.071	-0.088
-187.144	-61.508	0.258	0.108
-186.129	800.000	-0.062	0.213
-185.114	2.926	-0.281	0.203
-184.100	109.235	-0.051	-0.060
-183.085	-9.956	-0.165	-0.109
-182.071	-26.116	-0.233	-0.137
-181.056	17.073	-0.115	0.091
-180.042	70.509	0.090	-0.093
-179.027	266.369	0.206	0.357
-178.012	343.039	-0.173	-0.337
-176.998	-134.987	0.118	-0.014
-175.983	68.542	0.150	-0.153
-174.969	426.280	0.101	-0.217
-173.954	-145.772	0.154	-0.014
-172.939	70.135	-0.083	0.085
-171.925	-20.417	-0.191	-0.117
-170.910	109.225	0.171	0.204
-169.896	-138.980	0.139	0.015
-168.881	34.353	0.046	0.040
-167.866	380.091	0.122	-0.249
-166.852	-162.022	0.142	-0.007
-165.837	-142.983	0.197	0.019
-164.823	-118.515	0.082	0.014
-163.808	800.000	-0.085	-0.296
-162.793	137.938	-0.150	-0.195
-161.779	101.640	-0.161	-0.187
-160.764	-200.000	0.042	-0.289
-159.750	151.681	0.082	0.111
-158.735	-49.461	0.437	-0.207
-157.720	-112.986	0.329	0.065
-156.706	800.000	0.027	-0.094
-155.691	-200.000	-0.014	-0.191
-154.677	-115.560	-0.216	-0.040
-153.662	37.742	0.092	-0.081
-152.647	147.780	0.138	0.185
-151.633	-74.240	0.346	-0.124
-150.618	151.458	0.006	0.007
-149.604	-200.000	0.014	0.190
-148.589	-46.405	-0.237	0.116
-147.574	738.853	-0.048	-0.129
-146.560	87.909	0.259	0.286
-145.545	-140.134	-0.267	0.028
-144.531	439.910	-0.121	0.262
-143.516	800.000	-0.114	-0.463
-142.502	-98.909	-0.171	-0.043
-141.487	377.144	0.149	-0.303
-140.472	800.000	0.067	0.246
-139.458	377.282	0.045	0.091
-138.443	-74.593	-0.241	0.086
-137.429	-94.409	0.253	0.069
-136.414	-157.429	0.265	-0.016
-135.399	-26.917	0.212	0.123
-134.385	800.000	0.028	-0.122
-133.370	-109.954	0.181	-0.038
-132.356	800.000	-0.032	-0.109
-131.341	-35.819	0.374	0.201
-130.326	800.000	-0.049	0.142
-129.312	-89.046	-0.150	0.044
-128.297	-200.000	-0.100	0.438
-127.283	-60.617	-0.316	0.133
-126.268	-200.000	-0.056	-0.257
-125.253	800.000	0.053	0.158
-124.239	-58.151	-0.074	0.032
-123.224	800.000	0.043	-0.158
-122.210	473.777	0.115	0.257
-121.195	800.000	-0.109	0.341
-120.180	420.885	-0.017	0.035
-119.166	-200.000	-0.058	-0.416
-118.151	194.080	0.092	-0.138
-117.137	327.384	-0.041	-0.077
-116.122	-73.709	0.113	-0.041
-115.107	-85.883	0.168	0.052
-114.093	33.732	-0.184	0.159
-113.078	384.851	0.084	0.172
-112.064	-92.597	-0.350	0.097
-111.049	-200.000	0.008	-0.104
-110.034	-200.000	-0.040	0.278
-109.020	97.576	0.079	-0.090
-108.005	210.302	0.157	0.245
-106.991	-119.734	0.083	-0.014
-105.976	-200.000	0.002	0.136
-104.962	180.289	-0.052	-0.075
-103.947	13.883	-0.101	-0.078
-102.932	-7.488	-0.103	0.069
-101.918	55.840	0.196	0.188
-100.903	-5.625	-0.207	0.141
-99.889	800.000	-0.070	0.251
-98.874	800.000	0.054	0.179
-97.859	-200.000	-0.051	-0.397
-96.845	-81.810	0.231	0.075
-95.830	-110.605	0.437	-0.090
-94.816	-121.099	0.163	-0.027
-93.801	-58.813	0.320	0.137
-92.786	-80.440	0.058	0.019
-91.772	800.000	0.042	-0.121
-90.757	-56.940	-0.316	-0.138
-89.743	99.003	-0.049	-0.056
-88.728	-200.000	-0.061	0.504
-87.713	-19.023	-0.190	-0.117
-86.699	-200.000	0.021	-0.094
-85.684	29.508	-0.199	-0.168
-84.670	530.617	0.121	-0.284
-83.655	108.586	-0.131	-0.155
-82.640	-83.797	0.201	0.063
-81.626	-69.143	0.446	-0.170
-80.611	800.000	-0.057	-0.163
-79.597	-14.159	0.043	-0.028
-78.582	-45.376	0.208	-0.102
-77.567	-159.904	0.106	-0.006
-76.553	251.829	-0.014	-0.023
-75.538	800.000	0.013	-0.038
-74.524	158.377	-0.026	-0.035
-73.509	800.000	0.030	-0.082
-72.494	800.000	-0.029	-0.097
-71.480	32.161	0.115	-0.098
-70.465	80.665	0.243	0.259
-69.451	-137.948	-0.262	0.029
-68.436	245.991	0.254	0.424
-67.422	32.899	0.127	0.109
-66.407	403.544	-0.069	-0.144
-65.392	73.772	0.204	0.212
-64.378	400.737	0.030	0.063
-63.363	359.749	0.183	0.362
-62.349	24.036	0.140	-0.115
-61.334	43.941	-0.701	-0.636
-60.319	376.976	0.210	0.424
-59.305	-200.000	-0.009	-0.512
-58.290	132.479	0.543	0.693
-57.276	643.812	0.636	1.607
-56.261	-200.000	81.792	491.162
-55.246	468.971	1379.738	3068.393
-54.232	143.877	2614.572	3452.413
-53.217	105.229	2363.223	2763.291
-52.203	47.128	1967.776	1813.677
-51.188	41.591	1752.028	1571.342
-50.173	38.880	1705.556	1508.795
-49.159	53.134	1744.378	1654.089
-48.144	57.024	1762.713	1701.623
-47.130	41.447	1724.815	1545.577
-46.115	38.430	1710.903	1509.809
-45.100	38.396	1706.036	1505.194
-44.086	38.346	1703.153	1502.210
-43.071	38.345	1700.553	1499.848
-42.057	38.342	1698.309	1497.783
-41.042	38.341	1695.957	1495.641
-40.027	38.191	1694.402	1493.070
-39.013	38.285	1692.160	1491.752
-37.998	38.286	1690.412	1490.155
-36.984	38.325	1689.087	1489.229
-35.969	38.491	1687.587	1489.107
-34.954	38.559	1685.412	1487.644
-33.940	38.431	1683.803	1485.193
-32.925	38.476	1682.322	1484.174
-31.911	38.489	1680.451	1482.558
-30.896	38.478	1678.866	1481.022
-29.881	38.419	1676.766	1478.659
-28.867	38.453	1675.075	1477.371
-27.852	38.438	1673.871	1476.135
-26.838	38.480	1672.514	1475.197
-25.823	38.393	1671.293	1473.405
-24.809	38.474	1669.801	1472.643
-23.794	38.569	1667.875	1471.596
-22.779	38.494	1666.620	1469.867
-21.765	38.431	1665.138	1468.033
-20.750	38.424	1663.380	1466.373
-19.736	38.417	1662.085	1465.123
-18.721	38.473	1660.612	1464.178
-17.706	38.423	1658.968	1462.302
-16.692	38.482	1657.203	1461.124
-15.677	38.421	1655.921	1459.483
-14.663	38.408	1655.212	1458.704
-13.648	38.448	1653.096	1457.082
-12.633	38.523	1650.859	1455.609
-11.619	38.386	1650.102	1453.866
-10.604	38.439	1648.184	1452.510
-9.590	38.525	1646.768	1451.840
-8.575	38.522	1645.348	1450.509
-7.560	38.456	1644.760	1449.447
-6.546	38.445	1643.147	1447.884
-5.531	38.357	1642.325	1446.450
-4.517	38.391	1640.762	1445.268
-3.502	38.372	1639.780	1444.205
-2.487	38.557	1638.264	1444.181
-1.473	38.522	1626.942	1433.882
-0.458	36.381	1607.677	1401.331
0.556	32.887	1607.516	1368.521
1.571	30.302	1632.097	1370.272
2.586	29.495	1646.249	1376.016
3.600	25.383	1589.932	1299.155
4.615	13.701	1470.148	1122.547
5.629	3.769	1397.882	1003.070
6.644	1.967	1388.530	984.647
7.659	1.979	1386.888	983.469
8.673	1.965	1385.019	981.968
9.688	1.799	1383.583	979.796
10.702	1.508	1381.055	976.052
11.717	5.301	1388.510	1005.682
12.731	16.275	1410.622	1093.022
13.746	24.934	1424.272	1159.849
14.761	26.415	1427.028	1171.596
15.775	26.696	1426.514	1172.886
16.790	26.687	1426.107	1172.392
17.804	26.835	1425.383	1172.653
18.819	26.930	1424.931	1172.789
19.834	27.063	1423.837	1172.642
20.848	27.066	1423.840	1172.559
21.863	27.166	1422.412	1171.925
22.877	27.131	1421.431	1170.788
23.892	27.065	1420.928	1169.844
24.907	27.101	1420.017	1169.221
25.921	27.212	1418.698	1168.750
26.936	27.197	1417.791	1167.801
27.950	27.093	1416.597	1166.043
28.965	27.172	1415.438	1165.499
29.980	27.136	1414.111	1164.070
30.994	27.162	1412.823	1163.072
32.009	27.144	1411.680	1161.915
33.023	27.146	1410.619	1160.949
34.038	27.031	1409.772	1159.413
35.053	27.049	1408.986	1158.783
36.067	27.056	1407.598	1157.584
37.082	26.980	1407.126	1156.610
38.096	27.130	1405.653	1156.247
39.111	27.092	1404.250	1154.750
40.126	27.043	1404.639	1154.660
41.140	27.148	1403.742	1154.485
42.155	27.049	1403.530	1153.579
43.169	27.055	1403.563	1153.542
44.184	26.979	1403.122	1152.598
45.199	26.985	1402.881	1152.335
46.213	27.052	1402.497	1152.344
47.228	27.046	1400.803	1150.813
48.242	27.110	1399.707	1150.214
49.257	26.984	1398.302	1148.158
50.271	27.088	1396.719	1147.416
51.286	27.052	1395.438	1146.032
52.301	27.044	1394.328	1144.971
53.315	27.007	1393.603	1144.043
54.330	27.072	1392.720	1143.627
55.344	27.073	1391.590	1142.601
56.359	27.143	1390.368	1141.935
57.374	27.121	1389.362	1140.870
58.388	27.002	1389.313	1139.983
59.403	27.065	1388.751	1139.818
60.417	27.167	1387.786	1139.560
61.432	27.069	1386.949	1138.163
62.447	27.148	1386.487	1138.174
63.461	27.083	1385.129	1136.556
64.476	26.927	1384.409	1134.886
65.490	27.035	1382.935	1134.251
66.505	27.123	1381.159	1133.242
67.520	27.118	1380.021	1132.177
68.534	27.237	1378.675	1131.716
69.549	27.189	1377.776	1130.581
70.563	27.114	1377.158	1129.509
71.578	27.178	1376.184	1129.007
72.593	27.062	1375.982	1128.020
73.607	27.043	1375.196	1127.158
74.622	27.089	1374.270	1126.582
75.636	27.043	1373.502	1125.571
76.651	27.067	1372.385	1124.702
77.666	27.041	1372.485	1124.524
78.680	27.103	1371.215	1123.766
79.695	26.913	1371.439	1122.679
80.709	27.088	1370.178	1122.628
81.724	27.111	1369.574	1122.173
82.739	27.099	1368.303	1120.961
83.753	27.042	1367.222	1119.621
84.768	26.980	1366.254	1118.350
85.782	27.083	1365.047	1117.899
86.797	27.140	1363.380	1116.782
87.812	27.110	1362.782	1116.010
88.826	27.083	1361.656	1114.825
89.841	27.161	1360.627	1114.359
90.855	27.115	1359.805	1113.304
91.870	27.077	1358.823	1112.170
92.884	27.151	1358.196	1112.015
93.899	27.028	1357.482	1110.580
94.914	27.169	1356.175	1110.271
95.928	27.080	1355.612	1109.170
96.943	27.231	1354.799	1109.325
97.957	27.150	1354.484	1108.476
98.972	27.128	1353.470	1107.415
99.987	27.173	1352.084	1106.459
101.001	27.088	1351.510	1105.373
102.016	27.227	1350.167	1105.018
103.030	27.133	1349.220	1103.576
104.045	27.137	1348.796	1103.158
105.060	27.096	1347.945	1102.113
106.074	27.068	1347.142	1101.193
107.089	27.304	1345.638	1101.294
108.103	27.218	1344.459	1099.712
109.118	27.204	1343.348	1098.617
110.133	27.146	1342.827	1097.746
111.147	27.130	1341.737	1096.662
112.162	27.135	1340.450	1095.541
113.176	27.193	1339.472	1094.998
114.191	27.199	1338.484	1094.126
115.206	27.182	1337.414	1093.052
116.220	27.295	1336.270	1092.703
117.235	27.253	1335.503	1091.727
118.249	27.095	1335.050	1090.310
119.264	27.259	1333.809	1090.182
120.279	27.248	1333.234	1089.549
121.293	27.277	1332.247	1088.822
122.308	27.271	1331.389	1087.987
123.322	27.289	1330.723	1087.455
124.337	27.199	1330.297	1086.474
125.352	27.247	1329.242	1085.801
126.366	27.397	1327.768	1085.395
127.381	27.298	1327.605	1084.573
128.395	27.305	1326.497	1083.614
129.410	27.254	1325.546	1082.441
130.424	27.434	1324.267	1082.368
131.439	27.266	1323.939	1081.010
132.454	27.350	1322.791	1080.473
133.468	27.216	1322.988	1079.745
134.483	27.299	1322.068	1079.387
135.497	27.283	1321.525	1078.753
136.512	27.334	1320.245	1077.916
137.527	27.360	1318.904	1076.879
138.541	27.297	1317.821	1075.530
139.556	27.325	1316.402	1074.440
140.570	27.301	1315.696	1073.626
141.585	27.299	1314.865	1072.842
142.600	27.372	1313.563	1072.117
143.614	27.311	1313.020	1071.216
144.629	27.138	1312.056	1069.321
145.643	27.113	1310.958	1068.183
146.658	27.229	1309.763	1067.794
147.673	27.220	1308.864	1066.914
148.687	27.131	1308.218	1065.774
149.702	27.119	1307.117	1064.713
150.716	27.198	1305.603	1063.847
151.731	27.291	1304.190	1063.147
152.746	27.278	1303.514	1062.423
153.760	27.280	1302.475	1061.493
154.775	27.246	1301.519	1060.425
155.789	27.251	1300.655	1059.652
156.804	27.222	1299.839	1058.727
157.819	27.150	1299.211	1057.702
158.833	27.275	1297.906	1057.274
159.848	27.232	1297.811	1056.849
160.862	27.312	1296.729	1056.343
161.877	27.348	1295.840	1055.732
162.892	27.284	1295.304	1054.830
163.906	27.362	1294.008	1054.134
164.921	27.302	1293.608	1053.369
165.935	27.352	1292.818	1052.923
166.950	27.258	1292.559	1052.072
167.964	27.372	1291.163	1051.500
168.979	27.311	1290.990	1050.919
169.994	27.362	1290.084	1050.380
171.008	27.313	1289.393	1049.445
172.023	27.299	1288.721	1048.722
173.037	27.341	1287.947	1048.238
174.052	27.435	1287.297	1048.160
175.067	27.435	1286.372	1047.315
176.081	27.314	1285.975	1046.204
177.096	27.271	1285.161	1045.201
178.110	27.381	1283.748	1044.591
179.125	27.297	1282.760	1043.210
180.140	27.336	1282.202	1042.887
181.154	27.378	1281.043	1042.096
182.169	27.349	1279.826	1040.847
183.183	27.451	1278.569	1040.313
184.198	27.408	1277.582	1039.178
185.213	27.370	1276.594	1038.066
186.227	27.537	1275.314	1037.882
187.242	27.410	1274.745	1036.606
188.256	27.435	1274.168	1036.187
189.271	27.350	1273.117	1034.757
190.286	27.457	1272.528	1034.791
191.300	27.397	1272.228	1034.115
192.315	27.328	1271.676	1033.184
193.329	27.419	1270.964	1033.029
194.344	27.501	1270.453	1032.990
195.359	27.462	1270.316	1032.568
196.373	27.407	1269.452	1031.461
197.388	27.424	1268.996	1031.095
198.402	27.448	1268.773	1030.959
199.417	27.358	1268.449	1030.094
200.432	27.467	1267.747	1030.052
201.446	27.493	1267.033	1029.523
202.461	27.532	1265.930	1028.759
203.475	27.416	1265.701	1027.825
204.490	27.526	1263.960	1026.939
205.504	27.428	1263.694	1026.082
206.519	27.469	1262.798	1025.495
207.534	27.519	1261.649	1024.754
208.548	27.495	1260.794	1023.830
209.563	27.515	1260.085	1023.277
210.577	27.551	1259.212	1022.682
211.592	27.484	1258.560	1021.687
212.607	27.621	1257.642	1021.615
213.621	27.579	1256.877	1020.669
214.636	27.610	1256.057	1020.087
215.650	27.615	1255.067	1019.222
216.665	27.583	1254.272	1018.307
217.680	27.494	1253.471	1017.068
218.694	27.525	1252.729	1016.550
219.709	27.571	1252.042	1016.158
220.723	27.589	1251.262	1015.536
221.738	27.635	1249.959	1014.645
222.753	27.477	1249.568	1013.359
223.767	27.548	1249.355	1013.494
224.782	27.558	1249.074	1013.230
225.796	27.598	1248.549	1012.934
226.811	27.670	1247.568	1012.449
227.826	27.605	1247.146	1011.660
228.840	27.628	1246.099	1010.848
229.855	27.666	1245.540	1010.511
230.869	27.641	1244.816	1009.699
231.884	27.630	1244.443	1009.244
232.899	27.644	1243.363	1008.357
233.913	27.738	1242.567	1008.144
234.928	27.838	1242.222	1008.326
235.942	27.842	1241.169	1007.404
236.957	27.740	1240.850	1006.495
237.972	27.728	1240.358	1005.939
238.986	27.617	1239.890	1004.857
240.001	27.731	1239.134	1004.788
241.015	27.805	1238.133	1004.292
242.030	27.936	1236.825	1003.863
243.045	27.944	1236.522	1003.573
244.059	27.757	1235.956	1001.996
245.074	27.823	1235.009	1001.503
246.088	27.869	1234.298	1001.090
247.103	27.791	1233.569	999.983
248.117	27.835	1232.504	999.270
249.132	27.902	1231.541	998.770
250.147	27.804	1231.413	998.038
251.161	27.868	1230.734	997.750
252.176	27.974	1229.709	997.410
253.190	27.885	1229.182	996.409
254.205	27.912	1228.148	995.629
255.220	27.836	1227.794	994.842
256.234	27.855	1227.616	994.711
257.249	27.819	1226.719	993.702
258.263	27.946	1226.060	993.771
259.278	27.998	1225.029	993.131
260.293	27.957	1225.000	992.795
261.307	27.979	1224.565	992.476
262.322	27.966	1223.720	991.632
263.336	27.955	1222.819	990.755
264.351	28.044	1222.411	990.817
265.366	28.027	1221.666	990.032
266.380	28.027	1221.109	989.492
267.395	27.943	1220.238	988.247
268.409	27.802	1220.002	987.205
269.424	28.010	1218.943	987.384
270.439	28.054	1218.674	987.317
271.453	28.000	1218.062	986.444
272.468	27.948	1217.315	985.470
273.482	27.975	1216.435	984.817
274.497	28.061	1216.166	984.973
275.512	28.127	1215.435	984.653
276.526	28.110	1214.877	984.020
277.541	28.129	1213.931	983.271
278.555	28.115	1213.254	982.560
279.570	28.163	1212.411	982.048
280.585	28.221	1211.495	981.526
281.599	28.035	1210.883	979.950
282.614	28.120	1210.106	979.687
283.628	28.104	1209.296	978.859
284.643	28.182	1208.185	978.292
285.657	28.070	1207.547	977.092
286.672	28.082	1206.808	976.468
287.687	28.182	1205.839	976.131
288.701	28.238	1205.031	975.693
289.716	28.254	1204.436	975.209
290.730	28.210	1204.160	974.665
291.745	28.116	1203.393	973.454
292.760	28.226	1202.793	973.469
293.774	28.266	1202.170	973.094
294.789	28.250	1201.681	972.526
295.803	28.191	1201.224	971.759
296.818	28.242	1200.341	971.226
297.833	28.152	1199.985	970.376
298.847	28.260	1198.813	969.912
299.862	28.302	1198.238	969.582
300.876	28.342	1197.463	969.085
301.891	28.414	1196.858	968.888
302.906	28.484	1195.903	968.402
303.920	28.399	1195.182	967.284
304.935	28.315	1195.179	966.751
305.949	28.263	1194.444	965.794
306.964	28.407	1193.546	965.740
307.979	28.368	1192.894	964.926
308.993	28.445	1192.209	964.693
310.008	28.430	1191.798	964.193
311.022	28.539	1190.490	963.625
312.037	28.425	1190.159	962.670
313.052	28.409	1189.305	961.810
314.066	28.449	1188.254	961.086
315.081	28.350	1187.736	960.063
316.095	28.461	1187.000	959.965
317.110	28.353	1186.625	959.010
318.125	28.547	1185.669	959.169
319.139	28.468	1185.332	958.397
320.154	28.453	1184.664	957.696
321.168	28.604	1183.872	957.759
322.183	28.448	1183.705	956.724
323.197	28.476	1182.869	956.110
324.212	28.400	1182.376	955.230
325.227	28.508	1182.122	955.501
326.241	28.497	1181.576	954.920
327.256	28.679	1180.320	954.767
328.270	28.645	1179.188	953.589
329.285	28.493	1178.956	952.527
330.300	28.552	1178.226	952.160
331.314	28.684	1177.126	951.874
332.329	28.591	1176.510	950.806
333.343	28.712	1175.359	950.418
334.358	28.628	1174.862	949.498
335.373	28.704	1174.715	949.687
336.387	28.659	1173.719	948.568
337.402	28.756	1172.383	947.904
338.416	28.768	1172.050	947.615
339.431	28.807	1171.544	947.323
340.446	28.709	1170.692	946.044
341.460	28.762	1170.367	945.972
342.475	28.710	1169.677	945.063
343.489	28.769	1168.487	944.321
344.504	28.787	1167.693	943.689
345.519	28.836	1166.987	943.284
346.533	28.796	1166.121	942.297
347.548	28.796	1165.452	941.672
348.562	28.818	1164.812	941.186
349.577	28.764	1163.884	940.076
350.592	28.777	1163.185	939.496
351.606	28.649	1162.824	938.466
352.621	28.832	1161.787	938.480
353.635	28.880	1161.136	938.112
354.650	28.816	1160.703	937.357
355.665	28.950	1160.008	937.395
356.679	28.986	1158.915	936.614
357.694	28.857	1158.911	935.867
358.708	28.879	1158.053	935.204
359.723	29.052	1156.942	935.103
360.738	28.859	1156.688	933.834
361.752	28.783	1156.251	933.014
362.767	28.890	1155.526	932.889
363.781	28.969	1155.068	932.837
364.796	28.971	1154.823	932.569
365.810	29.005	1153.841	931.864
366.825	29.045	1152.916	931.236
367.840	29.008	1152.681	930.777
368.854	29.204	1152.021	931.151
369.869	29.075	1151.362	929.884
370.883	29.062	1150.945	929.403
371.898	29.149	1149.784	928.821
372.913	29.073	1149.447	928.085
373.927	29.131	1148.762	927.741
374.942	29.310	1148.174	928.086
375.956	29.240	1147.853	927.392
376.971	29.087	1147.330	926.117
377.986	29.090	1147.001	925.782
379.000	29.165	1146.206	925.438
380.015	29.184	1145.659	925.010
381.029	29.160	1144.603	923.954
382.044	29.168	1144.178	923.568
383.059	29.121	1143.912	923.038
384.073	29.241	1143.318	923.077
385.088	29.270	1141.824	921.933
386.102	29.250	1141.097	921.164
387.117	29.210	1140.430	920.347
388.132	29.142	1139.592	919.251
389.146	29.285	1138.761	919.209
390.161	29.324	1138.425	919.055
391.175	29.381	1137.594	918.586
392.190	29.211	1137.513	917.592
393.205	29.309	1136.389	917.092
394.219	29.269	1135.480	916.078
395.234	29.473	1134.587	916.288
396.248	29.435	1133.734	915.332
397.263	29.306	1133.003	914.019
398.278	29.407	1132.586	914.102
399.292	29.415	1132.117	913.682
400.307	29.437	1131.277	913.031
401.321	29.385	1130.719	912.243
402.336	29.369	1130.010	911.511
403.350	29.479	1129.447	911.521
404.365	29.399	1128.743	910.478
405.380	29.444	1127.940	909.972
406.394	29.457	1127.290	909.429
407.409	29.471	1126.708	908.948
408.423	29.513	1125.923	908.442
409.438	29.571	1124.950	907.863
410.453	29.554	1124.158	907.059
411.467	29.690	1123.082	906.777
412.482	29.543	1122.978	905.892
413.496	29.636	1121.999	905.481
414.511	29.621	1121.874	905.222
415.526	29.627	1121.559	904.922
416.540	29.696	1121.032	904.751
417.555	29.699	1119.939	903.807
418.569	29.636	1119.561	903.112
419.584	29.659	1119.282	902.917
420.599	29.640	1119.038	902.551
421.613	93.079	1311.031	1404.392
422.628	87.504	1339.011	1404.507
