DTS Sentinel unit serial number:	SN413079Multiplexer serial number:	ORYXHardware model number:	OX4-SRSoftware version number:	ORYX F/W v4.00 Oryx Data Collector v3.7.2.0data status	okinstallation	princeton_trtdifferential loss correction	single-endedforward channel	channel 2reverse channel	N/Adate	2019/09/13time	02:11:34forward acquisition time	60.00reverse acquisition time	0.00gamma	496.2192k internal	0.2334k external	0.2334temperature offset calibration	1.0183default loss term (dB/km)	0.3790temperature slope calibration	1.0000multiplexer offset coefficient	1.0000multiplexer slope coefficient	1.0000fibre end	0.00T internal ref (°C)	27.56T ext. ref 1 (°C)	3.90T ext. ref 2 (°C)	22.30length (m)	temperature (°C)	Stokes	anti-Stokes-747.200	438.128	-0.147	0.323
-746.185	-74.069	0.239	0.087
-745.171	-37.107	-0.084	-0.045
-744.156	800.000	-0.031	-0.121
-743.142	-58.634	-0.272	0.118
-742.127	342.326	0.174	0.342
-741.112	800.000	0.058	-0.251
-740.098	-200.000	-0.004	0.103
-739.083	-135.614	0.155	0.019
-738.069	203.599	-0.212	0.330
-737.054	-94.324	-0.259	-0.071
-736.039	-148.510	0.023	0.002
-735.025	265.006	0.137	-0.240
-734.010	-124.703	-0.334	0.052
-732.996	498.964	-0.230	-0.534
-731.981	-101.033	-0.041	-0.010
-730.966	-45.927	0.208	0.103
-729.952	-131.254	0.030	-0.004
-728.937	-22.414	-0.084	0.051
-727.923	-51.886	-0.051	0.024
-726.908	-52.389	-0.177	0.082
-725.894	-43.061	0.235	-0.120
-724.879	-125.215	-0.285	0.044
-723.864	-34.131	-0.197	-0.109
-722.850	-90.890	-0.138	0.040
-721.835	-200.000	0.019	-0.168
-720.821	35.280	0.254	-0.224
-719.806	-158.306	-0.154	0.009
-718.791	335.980	0.056	0.110
-717.777	62.999	-0.079	-0.079
-716.762	477.964	0.099	-0.225
-715.748	-111.568	0.403	0.082
-714.733	-200.000	0.027	-0.136
-713.718	92.038	0.134	-0.152
-712.704	-200.000	-0.002	0.135
-711.689	129.489	-0.089	-0.114
-710.675	102.249	-0.311	0.365
-709.660	-58.777	0.435	0.189
-708.645	-200.000	0.015	-0.267
-707.631	168.390	0.124	-0.177
-706.616	10.891	0.088	0.067
-705.602	48.254	0.141	0.132
-704.587	29.782	-0.079	-0.067
-703.572	220.665	0.207	-0.333
-702.558	779.689	-0.019	-0.053
-701.543	-186.759	-0.122	0.002
-700.529	61.640	0.105	0.105
-699.514	-0.908	0.239	-0.170
-698.499	598.621	0.060	-0.149
-697.485	-20.212	-0.263	-0.162
-696.470	218.267	0.055	-0.088
-695.456	-200.000	0.002	-0.336
-694.441	800.000	-0.093	-0.260
-693.426	128.667	0.056	-0.072
-692.412	-190.873	-0.292	0.003
-691.397	431.264	0.031	0.067
-690.383	242.747	-0.035	0.060
-689.368	-59.565	0.032	0.014
-688.354	180.309	-0.134	0.197
-687.339	-125.697	-0.228	0.035
-686.324	-200.000	0.018	0.091
-685.310	109.522	0.088	0.105
-684.295	-175.040	0.431	-0.012
-683.281	-200.000	0.019	0.465
-682.266	-82.048	0.270	0.089
-681.251	375.867	0.009	0.018
-680.237	-200.000	0.001	0.029
-679.222	4.303	0.237	-0.174
-678.208	-200.000	0.004	-0.242
-677.193	74.071	0.165	0.174
-676.178	63.814	-0.134	0.135
-675.164	-43.746	-0.174	0.088
-674.149	-13.234	0.091	0.059
-673.135	371.523	-0.124	0.252
-672.120	800.000	0.043	0.127
-671.105	800.000	-0.047	-0.199
-670.091	-200.000	0.037	-0.358
-669.076	592.511	0.088	0.217
-668.062	60.665	-0.237	-0.236
-667.047	-200.000	0.030	0.143
-666.032	800.000	-0.051	-0.151
-665.018	-53.142	0.157	0.072
-664.003	-118.749	-0.052	-0.009
-662.989	-153.336	0.311	-0.022
-661.974	-95.638	0.256	0.069
-660.959	-186.969	-0.049	0.001
-659.945	-200.000	0.017	-0.170
-658.930	-200.000	0.006	-0.106
-657.916	800.000	0.117	0.345
-656.901	66.688	-0.092	-0.093
-655.886	-30.493	0.121	0.069
-654.872	73.705	0.311	0.327
-653.857	-200.000	0.027	0.123
-652.843	-136.410	-0.171	0.020
-651.828	207.132	-0.186	0.291
-650.814	544.406	-0.129	-0.307
-649.799	-73.872	-0.117	0.043
-648.784	-200.000	-0.033	-0.290
-647.770	-200.000	-0.035	-0.263
-646.755	800.000	0.007	-0.025
-645.741	78.410	-0.247	-0.264
-644.726	-107.410	-0.376	0.083
-643.711	-119.726	-0.270	-0.047
-642.697	-2.281	0.151	-0.106
-641.682	-67.366	-0.124	0.049
-640.668	800.000	0.068	-0.227
-639.653	-79.439	-0.213	-0.072
-638.638	37.941	-0.186	-0.166
-637.624	78.001	-0.047	0.051
-636.609	800.000	-0.053	-0.154
-635.595	-21.959	0.350	-0.213
-634.580	113.460	0.024	-0.029
-633.565	-200.000	-0.036	0.353
-632.551	-117.212	-0.211	-0.038
-631.536	57.178	-0.225	-0.220
-630.522	548.438	0.078	0.188
-629.507	747.605	-0.038	0.101
-628.492	-48.991	-0.216	-0.104
-627.478	-107.780	-0.217	-0.047
-626.463	515.622	-0.042	0.097
-625.449	-200.000	0.053	-0.276
-624.434	77.471	0.046	-0.049
-623.419	208.429	-0.093	-0.146
-622.405	800.000	-0.071	0.251
-621.390	56.885	0.254	-0.248
-620.376	-200.000	-0.028	-0.264
-619.361	450.196	-0.236	-0.521
-618.346	552.283	0.079	-0.191
-617.332	-200.000	0.005	0.085
-616.317	-5.934	-0.090	-0.062
-615.303	-79.486	0.157	-0.053
-614.288	-200.000	0.049	-0.375
-613.273	-200.000	-0.002	0.261
-612.259	-78.846	0.340	0.116
-611.244	800.000	-0.076	0.327
-610.230	-76.356	0.371	-0.130
-609.215	800.000	0.029	-0.099
-608.201	112.868	-0.057	0.069
-607.186	323.310	-0.112	0.214
-606.171	16.264	-0.063	0.050
-605.157	-108.217	-0.132	0.028
-604.142	264.770	-0.297	-0.518
-603.128	-200.000	0.018	-0.189
-602.113	-200.000	-0.017	0.158
-601.098	-21.150	-0.146	0.089
-600.084	-146.050	-0.258	-0.023
-599.069	57.590	0.138	-0.135
-598.055	-126.402	0.154	0.023
-597.040	-88.616	0.256	-0.076
-596.025	74.099	0.273	-0.286
-595.011	-7.763	0.089	0.060
-593.996	2.757	-0.215	-0.156
-592.982	-80.988	-0.248	0.082
-591.967	-200.000	-0.379	-0.001
-590.952	-106.952	0.089	0.020
-589.938	-200.000	0.034	-0.370
-588.923	-53.040	0.409	-0.188
-587.909	526.395	-0.075	-0.177
-586.894	800.000	0.075	0.214
-585.879	-100.459	0.042	0.010
-584.865	-129.658	-0.128	0.018
-583.850	-100.401	-0.197	0.049
-582.836	-56.013	0.342	-0.152
-581.821	-1.995	0.146	-0.102
-580.806	800.000	0.064	-0.250
-579.792	-32.148	-0.083	-0.046
-578.777	27.858	0.189	-0.159
-577.763	578.600	0.123	-0.300
-576.748	33.144	-0.101	0.087
-575.733	386.100	0.057	0.118
-574.719	-199.393	-0.420	0.002
-573.704	-134.235	0.290	0.036
-572.690	800.000	0.073	0.213
-571.675	-84.316	0.243	-0.077
-570.661	-90.270	-0.167	0.048
-569.646	-38.172	-0.148	0.078
-568.631	-200.000	-0.099	-0.000
-567.617	-1.043	0.336	-0.237
-566.602	16.180	0.254	0.200
-565.588	-200.000	0.027	-0.178
-564.573	81.749	-0.164	-0.177
-563.558	320.978	-0.061	-0.117
-562.544	-5.594	-0.220	0.151
-561.529	-59.916	0.102	0.044
-560.515	-178.600	-0.238	0.005
-559.500	-64.964	0.257	0.104
-558.485	171.484	0.094	-0.135
-557.471	-104.831	0.254	-0.058
-556.456	-200.000	0.065	0.307
-555.442	-10.405	0.104	0.069
-554.427	-5.730	-0.234	-0.160
-553.412	-131.589	0.176	-0.023
-552.398	-120.789	-0.205	-0.034
-551.383	-64.494	-0.398	0.161
-550.369	170.432	0.076	0.108
-549.354	-17.902	-0.040	0.025
-548.339	-92.474	0.363	-0.102
-547.325	-200.000	-0.034	0.264
-546.310	18.767	-0.099	-0.079
-545.296	-117.152	-0.125	0.023
-544.281	82.867	-0.038	0.041
-543.266	-30.947	-0.313	-0.177
-542.252	92.160	-0.231	-0.259
-541.237	52.054	-0.208	0.197
-540.223	385.456	0.173	0.356
-539.208	7.557	0.196	-0.146
-538.193	-200.000	-0.065	0.309
-537.179	-40.772	0.352	0.182
-536.164	-58.119	0.288	0.125
-535.150	-67.997	0.270	0.105
-534.135	63.218	0.322	0.322
-533.121	-200.000	-0.001	-0.032
-532.106	84.914	0.076	-0.083
-531.091	39.824	0.198	0.177
-530.077	800.000	0.062	-0.204
-529.062	36.872	-0.019	-0.017
-528.048	-146.596	-0.286	-0.025
-527.033	4.221	0.048	0.035
-526.018	19.671	0.099	-0.079
-525.004	-200.000	-0.020	0.107
-523.989	72.680	-0.108	-0.112
-522.975	800.000	-0.073	-0.218
-521.960	455.322	-0.112	-0.248
-520.945	310.549	0.149	-0.277
-519.931	800.000	-0.028	0.083
-518.916	242.943	0.185	-0.309
-517.902	307.553	0.141	0.262
-516.887	800.000	-0.047	-0.144
-515.872	-180.238	-0.398	-0.008
-514.858	-200.000	0.005	-0.112
-513.843	768.485	0.039	0.105
-512.829	-53.807	0.225	0.102
-511.814	238.971	0.082	-0.135
-510.799	-118.894	-0.243	0.043
-509.785	800.000	0.113	0.392
-508.770	-74.604	-0.311	0.112
-507.756	-200.000	-0.007	-0.143
-506.741	800.000	-0.101	-0.419
-505.726	800.000	0.136	-0.559
-504.712	57.156	-0.264	-0.257
-503.697	5.781	0.391	-0.288
-502.683	502.640	0.107	-0.245
-501.668	36.795	-0.210	-0.185
-500.653	-200.000	0.003	-0.189
-499.639	-200.000	-0.006	-0.136
-498.624	-40.659	0.176	-0.091
-497.610	-176.605	-0.071	-0.002
-496.595	800.000	0.064	-0.256
-495.581	800.000	0.052	0.148
-494.566	70.157	-0.219	0.226
-493.551	800.000	-0.007	-0.032
-492.537	-46.980	-0.221	0.107
-491.522	265.151	-0.097	-0.168
-490.508	63.384	-0.091	-0.091
-489.493	344.212	-0.187	0.365
-488.478	-200.000	0.006	0.388
-487.464	16.173	-0.227	-0.178
-486.449	37.270	0.104	0.091
-485.435	227.413	-0.061	-0.099
-484.420	800.000	-0.104	0.319
-483.405	535.186	0.142	0.334
-482.391	800.000	0.057	0.190
-481.376	31.060	0.124	0.106
-480.362	16.305	-0.166	-0.131
-479.347	-200.000	-0.039	0.221
-478.332	-200.000	0.039	0.175
-477.318	254.745	-0.231	0.393
-476.303	-29.445	0.209	-0.119
-475.289	-200.000	0.020	-0.317
-474.274	800.000	-0.079	0.235
-473.259	-45.226	0.142	-0.070
-472.245	40.743	-0.437	0.392
-471.230	12.499	-0.421	-0.323
-470.216	192.022	-0.185	0.277
-469.201	-81.987	0.220	-0.072
-468.186	-200.000	-0.005	0.057
-467.172	-50.647	0.207	-0.097
-466.157	-200.000	0.031	0.381
-465.143	359.290	0.033	0.065
-464.128	-128.060	0.011	0.002
-463.113	-145.123	0.361	0.033
-462.099	31.506	0.159	-0.136
-461.084	-111.020	-0.057	0.012
-460.070	800.000	-0.074	0.229
-459.055	800.000	-0.080	-0.310
-458.040	55.443	-0.207	-0.199
-457.026	37.435	-0.144	-0.127
-456.011	540.181	-0.074	0.176
-454.997	253.462	-0.108	0.183
-453.982	272.161	-0.180	0.315
-452.968	373.944	0.114	0.231
-451.953	-200.000	0.122	-0.555
-450.938	199.550	-0.048	-0.074
-449.924	-48.078	-0.281	0.135
-448.909	-74.982	0.030	-0.011
-447.895	231.389	-0.046	0.075
-446.880	349.784	0.102	0.201
-445.865	-159.328	0.228	0.013
-444.851	117.350	-0.170	-0.208
-443.836	-200.000	0.012	0.111
-442.822	-122.530	0.145	0.023
-441.807	-90.916	-0.095	-0.027
-440.792	38.855	-0.117	0.104
-439.778	-60.451	-0.237	0.100
-438.763	-200.000	0.037	0.292
-437.749	194.578	0.040	-0.060
-436.734	646.219	-0.046	0.116
-435.719	800.000	-0.009	0.025
-434.705	-149.455	-0.293	0.023
-433.690	496.097	0.073	-0.167
-432.676	-174.286	-0.314	0.009
-431.661	-62.808	-0.074	-0.030
-430.646	-46.814	-0.045	0.022
-429.632	280.813	-0.044	-0.077
-428.617	800.000	-0.020	-0.085
-427.603	-200.000	-0.067	0.334
-426.588	214.897	0.258	-0.406
-425.573	-65.067	-0.173	-0.069
-424.559	-153.600	0.507	-0.035
-423.544	234.145	-0.233	0.381
-422.530	-143.192	0.050	-0.005
-421.515	188.237	-0.216	-0.320
-420.500	800.000	-0.023	-0.086
-419.486	-200.000	-0.200	0.000
-418.471	-90.720	-0.139	-0.040
-417.457	-143.791	0.222	0.021
-416.442	800.000	0.046	0.199
-415.428	466.736	-0.097	0.215
-414.413	217.027	0.133	-0.210
-413.398	-200.000	-0.028	-0.245
-412.384	415.960	0.233	0.494
-411.369	-43.408	-0.333	-0.167
-410.355	800.000	-0.136	0.372
-409.340	-200.000	-0.020	0.119
-408.325	-176.082	-0.080	-0.002
-407.311	335.652	-0.089	-0.171
-406.296	-113.308	-0.357	0.070
-405.282	-126.022	-0.429	0.064
-404.267	-29.484	0.092	-0.052
-403.252	-23.662	-0.081	0.048
-402.238	85.112	-0.143	0.156
-401.223	336.196	0.135	-0.260
-400.209	-167.849	0.126	-0.005
-399.194	134.136	0.050	0.064
-398.179	-106.984	0.158	-0.035
-397.165	-55.825	0.277	0.123
-396.150	-200.000	-0.011	0.053
-395.136	-172.033	-0.418	0.013
-394.121	-117.764	-0.209	0.037
-393.106	800.000	0.096	0.308
-392.092	-45.994	0.249	-0.122
-391.077	-200.000	0.031	0.288
-390.063	-200.000	-0.473	0.001
-389.048	-158.935	0.465	0.026
-388.033	-20.666	-0.224	0.137
-387.019	56.842	0.048	-0.046
-386.004	-200.000	-0.004	-0.390
-384.990	121.694	0.112	-0.138
-383.975	-22.575	-0.217	0.130
-382.960	73.196	0.066	0.068
-381.946	-38.541	0.006	0.003
-380.931	-26.834	-0.196	0.113
-379.917	-117.948	-0.281	-0.050
-378.902	-63.872	0.220	0.089
-377.888	215.659	-0.134	-0.210
-376.873	107.898	0.135	0.159
-375.858	-6.411	-0.139	0.094
-374.844	-6.530	-0.182	0.123
-373.829	-200.000	0.031	0.144
-372.815	-58.509	0.270	0.116
-371.800	800.000	0.076	0.274
-370.785	-200.000	0.024	-0.312
-369.771	477.007	0.101	0.226
-368.756	-113.827	-0.157	-0.030
-367.742	-71.938	0.150	0.055
-366.727	261.897	-0.057	-0.098
-365.712	-39.851	0.200	-0.104
-364.698	-200.000	0.002	-0.154
-363.683	-166.253	-0.187	0.008
-362.669	169.042	0.150	-0.212
-361.654	-126.987	0.199	0.029
-360.639	45.423	0.265	-0.242
-359.625	-90.309	-0.307	0.088
-358.610	-4.224	0.211	0.144
-357.596	402.053	0.180	0.374
-356.581	25.959	-0.103	0.085
-355.566	62.588	0.092	-0.091
-354.552	-15.937	0.094	-0.059
-353.537	800.000	0.045	-0.172
-352.523	-57.259	-0.344	0.150
-351.508	57.634	-0.151	-0.146
-350.493	343.345	0.093	0.181
-349.479	-74.078	0.426	-0.153
-348.464	-171.322	0.128	0.004
-347.450	-14.837	-0.155	0.098
-346.435	800.000	-0.049	-0.146
-345.420	-200.000	0.012	0.113
-344.406	800.000	-0.024	0.087
-343.391	-47.970	-0.222	-0.106
-342.377	694.889	-0.018	-0.048
-341.362	59.427	-0.121	0.118
-340.348	137.813	0.111	0.144
-339.333	-171.501	0.267	-0.009
-338.318	-200.000	0.129	0.000
-337.304	-98.591	0.056	-0.014
-336.289	-153.487	0.191	-0.013
-335.275	49.748	0.279	-0.260
-334.260	-200.000	0.019	-0.401
-333.245	71.941	-0.199	-0.205
-332.231	-109.518	0.283	-0.059
-331.216	-42.358	0.139	0.070
-330.202	-149.015	-0.109	0.009
-329.187	285.171	0.111	0.198
-328.172	545.369	-0.060	-0.142
-327.158	261.575	0.050	-0.085
-326.143	204.653	-0.075	-0.115
-325.129	-200.000	0.022	-0.188
-324.114	336.591	0.031	-0.059
-323.099	-139.341	0.451	-0.048
-322.085	7.814	0.188	0.139
-321.070	52.293	-0.070	-0.066
-320.056	-172.226	0.119	-0.004
-319.041	350.501	-0.106	-0.207
-318.026	-95.037	-0.195	-0.052
-317.012	-200.000	0.020	-0.150
-315.997	-200.000	-0.044	-0.231
-314.983	547.404	-0.201	-0.475
-313.968	-88.631	-0.216	0.063
-312.953	13.447	-0.077	0.059
-311.939	-108.957	0.387	0.082
-310.924	78.357	-0.170	0.180
-309.910	148.501	0.144	0.192
-308.895	16.623	-0.129	-0.101
-307.880	-200.000	-0.078	0.532
-306.866	526.530	0.133	0.309
-305.851	244.726	-0.194	-0.322
-304.837	-112.810	0.239	-0.047
-303.822	132.443	-0.091	0.115
-302.807	-15.739	0.323	-0.203
-301.793	68.285	0.287	0.290
-300.778	-141.994	-0.253	-0.025
-299.764	-15.122	0.205	0.129
-298.749	-141.553	-0.171	-0.017
-297.735	8.868	0.322	0.240
-296.720	200.186	0.136	-0.206
-295.705	800.000	-0.079	-0.273
-294.691	-108.380	-0.169	0.036
-293.676	564.363	-0.092	-0.220
-292.662	80.735	-0.231	0.246
-291.647	-119.607	-0.300	-0.051
-290.632	-40.243	0.160	0.082
-289.618	68.270	0.067	0.068
-288.603	800.000	0.051	-0.170
-287.589	-200.000	-0.004	0.143
-286.574	-59.350	0.135	0.057
-285.559	800.000	-0.111	0.307
-284.545	25.300	-0.241	-0.198
-283.530	-125.780	0.217	0.032
-282.516	-184.563	0.036	0.001
-281.501	51.215	-0.028	0.026
-280.486	360.837	0.083	0.164
-279.472	-200.000	0.042	0.214
-278.457	114.018	0.254	0.305
-277.443	41.169	-0.100	0.089
-276.428	-97.841	0.121	0.031
-275.413	126.582	0.081	0.101
-274.399	10.607	-0.222	-0.167
-273.384	25.484	0.022	-0.018
-272.370	-54.232	-0.273	-0.122
-271.355	-111.663	0.330	-0.066
-270.340	738.732	0.069	0.182
-269.326	62.014	-0.155	-0.152
-268.311	195.835	0.130	-0.194
-267.297	-200.000	0.050	-0.298
-266.282	41.249	-0.176	0.157
-265.267	-113.736	0.143	0.028
-264.253	-200.000	0.041	0.377
-263.238	186.127	0.216	-0.316
-262.224	-146.176	0.134	-0.012
-261.209	-92.526	0.294	-0.081
-260.195	-200.000	0.024	0.149
-259.180	105.732	-0.191	-0.222
-258.165	-200.000	0.019	-0.193
-257.151	-200.000	-0.064	0.286
-256.136	800.000	-0.008	0.036
-255.122	800.000	-0.040	0.116
-254.107	-33.285	-0.340	-0.185
-253.092	-65.102	-0.191	-0.076
-252.078	70.849	0.177	0.181
-251.063	-0.518	0.259	0.181
-250.049	-70.188	0.275	0.103
-249.034	-74.755	0.092	-0.033
-248.019	263.309	-0.067	-0.114
-247.005	-146.198	0.090	-0.008
-245.990	355.082	0.069	-0.135
-244.976	-143.547	0.076	-0.007
-243.961	-96.307	-0.124	0.032
-242.946	5.985	0.161	0.117
-241.932	-87.493	-0.059	-0.018
-240.917	36.891	0.198	0.173
-239.903	-118.676	0.255	0.044
-238.888	91.661	0.096	0.107
-237.873	800.000	0.102	0.280
-236.859	-109.736	-0.244	0.051
-235.844	-200.000	-0.025	0.167
-234.830	-78.326	-0.034	0.012
-233.815	25.582	0.207	0.169
-232.800	366.415	0.141	0.281
-231.786	-200.000	0.012	0.263
-230.771	-64.108	-0.028	-0.011
-229.757	-164.840	0.110	0.005
-228.742	-200.000	-0.007	0.221
-227.727	255.473	-0.042	0.071
-226.713	-23.597	-0.197	0.117
-225.698	144.745	0.112	0.148
-224.684	-200.000	-0.001	-0.270
-223.669	-200.000	-0.021	-0.241
-222.655	-200.000	0.020	0.214
-221.640	-200.000	0.034	-0.228
-220.625	-86.832	0.193	0.058
-219.611	800.000	0.098	-0.319
-218.596	-200.000	-0.016	-0.088
-217.582	-109.276	0.095	0.020
-216.567	-8.088	-0.209	0.139
-215.552	-81.470	-0.142	-0.046
-214.538	-200.000	0.024	0.270
-213.523	-66.987	0.327	0.127
-212.509	800.000	0.041	-0.119
-211.494	-156.217	0.144	-0.009
-210.479	445.407	0.116	0.251
-209.465	-87.282	-0.244	0.073
-208.450	591.346	-0.094	0.228
-207.436	119.187	-0.218	-0.266
-206.421	354.648	-0.108	-0.211
-205.406	-135.710	-0.247	-0.029
-204.392	800.000	0.052	-0.221
-203.377	-157.989	0.278	0.016
-202.363	375.874	-0.047	-0.094
-201.348	71.955	-0.169	-0.172
-200.333	-200.000	0.042	-0.381
-199.319	-200.000	0.013	-0.423
-198.304	-80.807	0.114	-0.037
-197.290	-119.458	0.382	0.065
-196.275	800.000	-0.003	-0.008
-195.260	800.000	0.038	-0.117
-194.246	-200.000	-0.008	0.064
-193.231	-200.000	0.087	0.667
-192.217	-200.000	0.014	0.505
-191.202	431.255	-0.129	0.274
-190.187	-2.922	-0.133	0.091
-189.173	15.258	-0.276	0.213
-188.158	575.961	0.114	0.273
-187.144	-54.528	0.220	0.098
-186.129	-200.000	-0.012	-0.212
-185.114	-13.964	0.309	0.196
-184.100	91.051	-0.247	0.273
-183.085	-85.681	0.062	-0.019
-182.071	800.000	0.083	-0.252
-181.056	-200.000	-0.041	0.251
-180.042	107.204	-0.169	-0.197
-179.027	-28.850	0.158	0.089
-178.012	302.555	-0.326	-0.592
-176.998	-147.481	-0.097	-0.008
-175.983	-200.000	-0.039	0.187
-174.969	-121.330	-0.184	0.030
-173.954	88.780	-0.067	-0.073
-172.939	195.890	-0.067	-0.100
-171.925	-101.125	-0.059	-0.014
-170.910	15.547	-0.087	0.067
-169.896	-114.231	0.131	-0.025
-168.881	-200.000	0.026	0.132
-167.866	-140.986	0.211	-0.021
-166.852	-200.000	-0.006	-0.093
-165.837	681.458	-0.099	-0.252
-164.823	-126.992	0.111	0.016
-163.808	-45.516	0.258	0.126
-162.793	215.308	-0.068	-0.105
-161.779	-64.430	-0.323	0.129
-160.764	-159.813	0.217	-0.012
-159.750	42.258	-0.221	0.197
-158.735	-200.000	0.004	-0.233
-157.720	-89.470	0.371	0.107
-156.706	264.596	-0.084	0.143
-155.691	99.659	0.116	0.132
-154.677	800.000	0.040	-0.161
-153.662	154.943	0.050	0.067
-152.647	-57.335	0.198	-0.086
-151.633	-77.032	-0.128	0.044
-150.618	325.007	-0.062	0.117
-149.604	-102.014	0.132	-0.031
-148.589	-76.773	0.131	0.045
-147.574	76.688	-0.153	-0.159
-146.560	461.742	0.106	0.231
-145.545	800.000	0.091	0.284
-144.531	-149.678	-0.188	0.015
-143.516	-100.024	0.157	-0.038
-142.502	652.282	-0.061	0.154
-141.487	31.489	-0.070	-0.059
-140.472	-38.347	0.340	-0.177
-139.458	-175.979	-0.127	-0.003
-138.443	800.000	0.129	0.350
-137.429	-57.177	-0.421	0.182
-136.414	59.627	0.177	0.171
-135.399	-107.846	-0.168	0.036
-134.385	-200.000	-0.021	-0.257
-133.370	-73.906	0.222	0.079
-132.356	71.385	-0.101	0.103
-131.341	-200.000	0.013	0.131
-130.326	-43.641	-0.151	0.075
-129.312	800.000	-0.125	-0.437
-128.297	-200.000	0.008	0.121
-127.283	124.304	0.128	0.158
-126.268	-200.000	-0.029	0.356
-125.253	330.985	-0.084	-0.158
-124.239	652.735	0.085	-0.215
-123.224	800.000	0.026	0.086
-122.210	118.185	0.101	-0.122
-121.195	800.000	-0.028	-0.112
-120.180	160.664	0.039	-0.054
-119.166	-200.000	-0.204	-0.001
-118.151	-108.596	-0.130	-0.027
-117.137	800.000	0.089	0.271
-116.122	-121.516	0.242	-0.039
-115.107	-161.154	-0.393	0.020
-114.093	193.037	-0.201	-0.297
-113.078	-185.147	0.297	0.005
-112.064	-200.000	0.001	0.358
-111.049	-22.399	-0.181	0.107
-110.034	12.959	0.193	-0.146
-109.020	-114.430	0.367	0.069
-108.005	182.637	-0.200	0.289
-106.991	-99.826	0.448	0.110
-105.976	-114.507	-0.513	-0.097
-104.962	800.000	-0.100	0.363
-103.947	800.000	0.017	-0.062
-102.932	105.526	0.112	0.130
-101.918	-52.866	-0.132	0.060
-100.903	227.357	0.099	0.158
-99.889	6.935	0.291	-0.212
-98.874	332.905	0.061	-0.115
-97.859	800.000	0.119	-0.447
-96.845	-120.128	0.189	-0.032
-95.830	-132.311	0.275	0.035
-94.816	136.954	0.071	0.091
-93.801	-142.108	-0.236	-0.023
-92.786	512.277	-0.161	0.368
-91.772	-16.713	-0.210	0.130
-90.757	278.499	-0.071	-0.124
-89.743	22.640	0.165	0.133
-88.728	-33.833	-0.071	-0.038
-87.713	-0.569	-0.241	0.168
-86.699	-147.242	-0.193	0.016
-85.684	-108.175	0.448	0.095
-84.670	800.000	-0.064	-0.262
-83.655	130.320	-0.154	0.193
-82.640	-144.548	-0.269	-0.024
-81.626	224.450	0.090	-0.143
-80.611	-108.102	0.125	0.026
-79.597	111.290	-0.026	0.031
-78.582	800.000	0.159	0.481
-77.567	-200.000	0.027	0.202
-76.553	-200.000	0.020	-0.334
-75.538	-200.000	0.035	-0.210
-74.524	-150.449	-0.175	0.013
-73.509	-121.214	0.248	-0.041
-72.494	-99.723	0.272	0.067
-71.480	71.241	-0.082	0.084
-70.465	-178.500	0.343	-0.008
-69.451	-149.779	0.211	-0.016
-68.436	165.776	-0.072	-0.100
-67.422	291.786	-0.102	-0.182
-66.407	-55.259	0.123	-0.054
-65.392	584.761	0.050	-0.121
-64.378	-41.017	0.172	-0.087
-63.363	325.011	-0.226	0.422
-62.349	800.000	0.133	0.422
-61.334	269.738	-0.752	-1.293
-60.319	-15.513	0.643	0.402
-59.305	297.191	-0.550	-0.988
-58.290	179.747	0.770	1.103
-57.276	363.537	0.717	1.411
-56.261	-200.000	113.483	650.623
-55.246	538.204	1522.532	3540.867
-54.232	177.536	2696.172	3843.386
-53.217	102.458	2285.308	2614.059
-52.203	36.774	1892.705	1636.203
-51.188	30.767	1682.381	1409.020
-50.173	28.227	1640.373	1355.014
-49.159	49.941	1696.296	1565.098
-48.144	48.757	1710.244	1569.022
-47.130	30.378	1668.064	1393.893
-46.115	27.626	1653.764	1361.365
-45.100	27.336	1649.004	1355.234
-44.086	27.468	1645.971	1353.673
-43.071	27.435	1643.534	1351.365
-42.057	27.361	1640.985	1348.671
-41.042	27.397	1639.275	1347.480
-40.027	27.484	1636.726	1345.970
-39.013	27.421	1634.732	1343.816
-37.998	27.388	1633.379	1342.404
-36.984	27.391	1632.539	1341.687
-35.969	27.478	1630.650	1340.718
-34.954	27.561	1628.640	1339.622
-33.940	27.560	1627.355	1338.510
-32.925	27.656	1625.139	1337.335
-31.911	27.625	1623.196	1335.454
-30.896	27.475	1621.839	1333.185
-29.881	27.596	1619.939	1332.457
-28.867	27.508	1618.049	1330.210
-27.852	27.568	1616.586	1329.390
-26.838	27.582	1615.442	1328.495
-25.823	27.566	1613.844	1327.014
-24.809	27.580	1612.878	1326.266
-23.794	27.547	1611.850	1325.129
-22.779	27.596	1610.115	1324.010
-21.765	27.517	1608.385	1321.962
-20.750	27.533	1606.837	1320.755
-19.736	27.608	1605.623	1320.246
-18.721	27.689	1603.939	1319.394
-17.706	27.573	1602.986	1317.716
-16.692	27.580	1601.026	1316.105
-15.677	27.601	1599.639	1315.065
-14.663	27.625	1598.155	1313.965
-13.648	27.704	1596.662	1313.258
-12.633	27.620	1595.507	1311.649
-11.619	27.622	1593.848	1310.250
-10.604	27.541	1592.753	1308.716
-9.590	27.583	1591.406	1307.853
-8.575	27.559	1590.564	1306.941
-7.560	27.646	1589.185	1306.380
-6.546	27.607	1587.734	1304.857
-5.531	27.650	1586.606	1304.184
-4.517	27.588	1585.437	1302.728
-3.502	27.600	1585.067	1302.455
-2.487	27.611	1582.751	1300.579
-1.473	27.375	1570.363	1288.682
-0.458	24.455	1551.787	1252.924
0.556	22.768	1552.574	1221.182
1.571	20.358	1576.185	1222.691
2.586	19.977	1589.078	1229.879
3.600	18.044	1535.301	1174.876
4.615	11.091	1429.133	1048.884
5.629	4.922	1369.320	966.726
6.644	3.884	1361.716	954.863
7.659	3.909	1360.463	954.054
8.673	3.890	1359.655	953.286
9.688	3.908	1357.959	952.123
10.702	3.851	1354.927	949.564
11.717	6.852	1359.964	971.486
12.731	14.774	1374.257	1030.661
13.746	21.450	1385.133	1080.094
14.761	23.177	1387.244	1092.317
15.775	22.621	1385.861	1087.701
16.790	21.764	1383.089	1080.147
17.804	20.975	1381.106	1073.646
18.819	20.675	1380.525	1071.256
19.834	20.790	1379.359	1070.960
20.848	20.745	1378.431	1069.868
21.863	20.638	1376.941	1067.961
22.877	20.522	1376.128	1066.525
23.892	20.367	1375.311	1064.847
24.907	20.467	1374.052	1064.393
25.921	20.297	1373.569	1062.883
26.936	20.382	1372.491	1062.471
27.950	20.460	1371.227	1061.877
28.965	20.510	1370.632	1061.629
29.980	20.736	1369.531	1062.057
30.994	20.808	1368.884	1061.902
32.009	20.921	1367.528	1061.444
33.023	20.883	1366.574	1060.382
34.038	20.648	1365.088	1057.702
35.053	20.589	1363.712	1056.185
36.067	20.519	1362.743	1054.916
37.082	20.592	1361.733	1054.483
38.096	20.731	1360.922	1054.604
39.111	20.765	1360.150	1054.120
40.126	20.513	1359.227	1051.789
41.140	20.233	1358.137	1049.155
42.155	20.027	1357.086	1047.011
43.169	19.882	1357.572	1046.410
44.184	20.040	1356.855	1046.722
45.199	20.091	1356.843	1046.932
46.213	20.307	1356.786	1048.099
47.228	20.486	1356.118	1048.566
48.242	20.514	1354.861	1047.671
49.257	20.521	1353.276	1046.399
50.271	20.500	1351.481	1044.789
51.286	20.399	1350.475	1043.310
52.301	20.328	1349.454	1042.006
53.315	20.344	1347.810	1040.741
54.330	20.213	1347.060	1039.283
55.344	20.101	1346.069	1037.758
56.359	20.136	1344.254	1036.473
57.374	19.997	1343.669	1035.103
58.388	20.048	1343.109	1034.881
59.403	19.918	1342.723	1033.719
60.417	19.917	1341.656	1032.796
61.432	19.911	1340.718	1031.948
62.447	19.723	1339.891	1030.103
63.461	19.680	1338.383	1028.595
64.476	19.553	1337.873	1027.360
65.490	19.687	1336.209	1026.783
66.505	19.806	1334.539	1026.116
67.520	19.814	1333.310	1025.125
68.534	19.691	1333.091	1024.140
69.549	19.593	1332.078	1022.689
70.563	19.639	1330.829	1021.911
71.578	19.482	1329.446	1019.834
72.593	19.328	1328.414	1018.042
73.607	19.383	1327.744	1017.765
74.622	19.474	1327.362	1017.918
75.636	19.585	1326.756	1018.018
76.651	19.601	1325.902	1017.366
77.666	19.720	1325.352	1017.555
78.680	19.672	1325.175	1017.045
79.695	19.772	1324.520	1017.040
80.709	20.018	1323.357	1017.501
81.724	19.978	1323.446	1017.249
82.739	20.123	1322.618	1017.372
83.753	20.428	1321.989	1018.584
84.768	20.658	1321.222	1019.253
85.782	20.728	1320.113	1018.716
86.797	20.717	1319.137	1017.808
87.812	20.524	1317.973	1015.696
88.826	20.543	1316.449	1014.539
89.841	20.667	1315.239	1014.242
90.855	20.595	1314.414	1013.097
91.870	20.739	1314.043	1013.558
92.884	20.802	1313.194	1013.178
93.899	20.747	1312.603	1012.315
94.914	20.832	1311.133	1011.586
95.928	20.772	1311.160	1011.166
96.943	20.729	1309.816	1009.792
97.957	20.712	1308.485	1008.577
98.972	20.688	1308.050	1008.017
99.987	20.760	1306.836	1007.408
101.001	20.701	1305.999	1006.332
102.016	20.699	1305.030	1005.485
103.030	20.819	1303.995	1005.289
104.045	20.681	1303.212	1003.801
105.060	20.491	1301.764	1001.503
106.074	20.101	1300.123	997.906
107.089	19.692	1298.868	994.504
108.103	19.712	1297.221	993.269
109.118	19.708	1295.810	992.078
110.133	19.722	1294.629	991.163
111.147	19.782	1293.149	990.288
112.162	19.834	1292.678	990.140
113.176	19.865	1291.515	989.334
114.191	19.908	1290.603	988.795
115.206	20.034	1289.343	988.461
116.220	19.944	1288.008	986.838
117.235	19.919	1287.104	985.917
118.249	19.832	1285.682	984.241
119.264	19.725	1285.067	983.080
120.279	19.689	1283.410	981.518
121.293	19.542	1282.612	979.988
122.308	19.538	1281.292	978.869
123.322	19.270	1280.524	976.677
124.337	19.396	1279.152	976.259
125.352	19.413	1278.078	975.450
126.366	19.382	1276.740	974.166
127.381	19.309	1276.249	973.292
128.395	19.236	1275.043	971.872
129.410	19.335	1273.988	971.542
130.424	19.466	1273.709	971.984
131.439	19.653	1273.024	972.423
132.454	19.780	1271.941	972.224
133.468	19.733	1271.287	971.375
134.483	19.823	1270.868	971.474
135.497	19.876	1269.553	970.680
136.512	19.934	1268.537	970.145
137.527	19.949	1267.260	969.164
138.541	20.008	1265.833	968.321
139.556	20.088	1264.921	967.980
140.570	20.156	1263.931	967.521
141.585	20.252	1263.278	967.470
142.600	20.410	1262.297	967.510
143.614	20.518	1261.501	967.415
144.629	20.683	1260.425	967.422
145.643	20.617	1259.429	966.209
146.658	20.365	1258.024	963.643
147.673	20.220	1256.126	961.302
148.687	19.976	1255.084	959.068
149.702	19.980	1253.630	957.893
150.716	19.939	1252.171	956.472
151.731	19.790	1251.460	955.021
152.746	19.865	1250.168	954.362
153.760	20.018	1248.896	954.152
154.775	20.086	1248.450	954.098
155.789	20.226	1247.478	954.039
156.804	20.324	1246.527	953.767
157.819	20.311	1245.847	953.095
158.833	20.506	1244.786	953.268
159.848	20.597	1244.290	953.302
160.862	20.621	1243.175	952.491
161.877	20.220	1241.466	948.905
162.892	19.926	1240.290	946.317
163.906	19.854	1239.517	945.252
164.921	19.779	1238.442	943.939
165.935	20.039	1237.335	944.428
166.950	20.047	1237.396	944.434
167.964	20.019	1236.386	943.428
168.979	20.059	1235.577	942.943
169.994	19.950	1235.114	941.915
171.008	19.914	1234.652	941.285
172.023	20.223	1233.664	942.128
173.037	20.418	1232.894	942.510
174.052	20.376	1232.016	941.528
175.067	20.103	1230.563	938.858
176.081	19.936	1229.391	936.978
177.096	19.848	1228.004	935.363
178.110	19.998	1227.077	935.383
179.125	20.057	1226.417	935.113
180.140	20.198	1225.792	935.316
181.154	20.393	1224.459	935.264
182.169	20.307	1223.854	934.256
183.183	20.465	1222.653	934.106
184.198	20.673	1220.966	933.854
185.213	20.566	1220.274	932.670
186.227	20.594	1219.396	932.065
187.242	20.551	1218.861	931.343
188.256	20.666	1217.950	931.178
189.271	20.753	1216.885	930.750
190.286	20.481	1216.148	928.649
191.300	20.045	1214.915	925.295
192.315	19.907	1213.636	923.502
193.329	19.976	1213.267	923.512
194.344	20.018	1212.490	923.063
195.359	20.045	1212.119	922.839
196.373	20.062	1211.862	922.656
197.388	20.303	1211.316	923.438
198.402	20.577	1211.281	924.785
199.417	20.801	1211.190	925.830
200.432	20.942	1210.566	926.020
201.446	21.098	1209.295	925.791
202.461	21.077	1209.040	925.405
203.475	21.077	1207.592	924.214
204.490	20.704	1206.731	921.497
205.504	20.429	1205.085	918.704
206.519	20.511	1203.709	918.007
207.534	20.408	1202.609	916.546
208.548	20.429	1201.322	915.594
209.563	20.513	1200.870	915.609
210.577	20.384	1200.397	914.489
211.592	20.628	1198.991	914.620
212.607	20.785	1199.056	915.413
213.621	20.882	1198.034	915.063
214.636	20.584	1197.231	912.804
215.650	20.622	1196.682	912.502
216.665	20.929	1195.640	913.235
217.680	21.071	1195.160	913.533
218.694	21.142	1193.959	912.904
219.709	21.031	1193.081	911.575
220.723	20.935	1192.816	910.790
221.738	20.897	1191.648	909.621
222.753	20.834	1190.823	908.577
223.767	20.875	1190.040	908.116
224.782	21.084	1189.752	908.901
225.796	21.246	1188.690	908.856
226.811	21.116	1188.331	907.825
227.826	20.872	1187.253	905.651
228.840	20.763	1186.724	904.600
229.855	20.800	1185.929	904.108
230.869	20.626	1185.229	902.590
231.884	20.730	1184.146	902.228
232.899	20.634	1182.881	900.685
233.913	20.426	1182.342	899.118
234.928	20.367	1181.797	898.322
235.942	20.417	1180.594	897.582
236.957	20.439	1179.600	896.862
237.972	20.437	1179.219	896.484
238.986	20.464	1178.867	896.274
240.001	20.386	1178.045	895.171
241.015	20.420	1176.995	894.467
242.030	20.615	1176.112	894.721
243.045	20.722	1175.704	894.879
244.059	20.681	1175.057	894.098
245.074	20.830	1174.494	894.355
246.088	20.853	1173.427	893.583
247.103	21.078	1173.145	894.442
248.117	21.199	1172.651	894.609
249.132	21.453	1172.171	895.463
250.147	21.615	1171.890	895.997
251.161	21.898	1170.985	896.672
252.176	21.836	1170.613	895.990
253.190	21.929	1169.643	895.643
254.205	22.102	1169.417	896.276
255.220	21.994	1168.762	895.142
256.234	21.958	1168.152	894.412
257.249	21.987	1167.382	893.890
258.263	21.889	1167.133	893.123
259.278	21.947	1166.148	892.585
260.293	22.016	1165.515	892.372
261.307	21.962	1165.446	891.967
262.322	22.028	1164.640	891.605
263.336	22.027	1163.594	890.720
264.351	22.120	1163.147	890.772
265.366	22.079	1162.588	890.058
266.380	22.191	1161.462	889.681
267.395	21.977	1161.011	888.174
268.409	21.905	1159.810	886.817
269.424	21.706	1159.546	885.529
270.439	21.709	1158.990	885.041
271.453	21.653	1158.101	883.999
272.468	21.598	1156.654	882.541
273.482	21.561	1155.999	881.777
274.497	21.460	1156.006	881.193
275.512	21.511	1155.014	880.619
276.526	21.584	1153.812	879.989
277.541	21.552	1152.985	879.121
278.555	21.683	1152.692	879.479
279.570	21.973	1152.075	880.382
280.585	22.128	1151.656	880.765
281.599	22.017	1150.574	879.302
282.614	21.858	1149.442	877.562
283.628	21.695	1148.027	875.589
284.643	21.658	1147.474	874.910
285.657	21.624	1146.665	874.041
286.672	21.701	1145.243	873.265
287.687	21.657	1145.282	873.000
288.701	21.829	1144.059	872.845
289.716	21.779	1143.350	871.977
290.730	21.724	1142.826	871.229
291.745	21.835	1142.025	871.092
292.760	21.851	1141.661	870.817
293.774	21.931	1141.086	870.698
294.789	22.071	1140.799	871.097
295.803	22.151	1139.830	870.676
296.818	21.880	1138.703	868.397
297.833	21.663	1137.958	866.679
298.847	21.761	1137.391	866.652
299.862	21.676	1136.503	865.481
300.876	21.859	1135.852	865.810
301.891	21.814	1135.551	865.284
302.906	22.024	1134.831	865.693
303.920	22.221	1134.515	866.346
304.935	22.199	1134.184	865.909
305.949	22.380	1133.380	866.110
306.964	22.409	1132.808	865.739
307.979	22.175	1131.816	863.753
308.993	22.136	1131.133	862.967
310.008	22.237	1130.415	862.837
311.022	22.256	1129.934	862.484
312.037	22.302	1128.586	861.607
313.052	21.967	1127.764	859.261
314.066	21.899	1126.389	857.804
315.081	21.577	1125.395	855.400
316.095	21.554	1124.830	854.786
317.110	21.671	1124.050	854.684
318.125	21.565	1123.265	853.498
319.139	21.560	1122.781	853.030
320.154	21.662	1122.016	852.870
321.168	21.711	1121.153	852.377
322.183	21.585	1120.857	851.461
323.197	21.887	1119.966	852.176
324.212	21.797	1120.010	851.698
325.227	21.948	1119.122	851.680
326.241	21.978	1118.428	851.223
327.256	21.860	1117.345	849.753
328.270	21.688	1116.407	848.128
329.285	21.747	1115.631	847.750
330.300	21.796	1114.749	847.242
331.314	21.743	1114.244	846.525
332.329	21.740	1113.149	845.604
333.343	21.924	1112.201	845.699
334.358	22.026	1111.583	845.644
335.373	22.085	1111.311	845.647
336.387	22.293	1110.135	845.680
337.402	22.317	1109.561	845.280
338.416	22.365	1109.198	845.158
339.431	22.407	1109.086	845.200
340.446	22.417	1108.400	844.650
341.460	22.720	1107.623	845.438
342.475	22.741	1107.248	845.177
343.489	22.933	1106.286	845.289
344.504	22.968	1105.169	844.524
345.519	22.986	1104.501	844.025
346.533	22.922	1104.030	843.286
347.548	23.021	1103.086	842.961
348.562	22.931	1102.116	841.718
349.577	22.563	1101.276	839.249
350.592	22.365	1099.874	837.165
351.606	22.303	1098.641	835.861
352.621	22.166	1098.479	835.011
353.635	22.115	1097.713	834.112
354.650	22.168	1096.984	833.735
355.665	22.223	1096.198	833.327
356.679	22.404	1095.730	833.754
357.694	22.344	1095.342	833.098
358.708	22.539	1094.971	833.669
359.723	22.521	1094.191	832.914
360.738	22.612	1093.181	832.501
361.752	22.577	1092.877	832.032
362.767	22.549	1092.766	831.741
363.781	22.527	1092.160	831.105
364.796	22.766	1091.372	831.557
365.810	23.007	1091.191	832.477
366.825	23.024	1091.024	832.359
367.840	23.172	1090.586	832.646
368.854	23.313	1089.995	832.784
369.869	23.276	1089.091	831.847
370.883	23.211	1087.730	830.428
371.898	22.886	1087.309	828.507
372.913	23.020	1086.452	828.412
373.927	23.112	1086.116	828.514
374.942	23.245	1085.576	828.651
375.956	23.002	1085.223	827.172
376.971	22.918	1084.162	825.897
377.986	23.224	1083.874	827.033
379.000	23.206	1083.736	826.769
380.015	23.417	1083.199	827.271
381.029	23.422	1082.348	826.573
382.044	23.359	1081.755	825.752
383.059	23.375	1081.247	825.368
384.073	23.279	1080.186	824.035
385.088	23.426	1079.123	823.838
386.102	23.362	1078.188	822.753
387.117	23.012	1077.012	820.159
388.132	22.914	1075.890	818.779
389.146	22.742	1075.374	817.515
390.161	22.687	1074.361	816.417
391.175	22.862	1073.559	816.544
392.190	23.010	1072.731	816.526
393.205	23.208	1072.806	817.426
394.219	23.254	1071.862	816.846
395.234	23.016	1070.656	814.758
396.248	23.084	1069.456	814.085
397.263	22.863	1068.956	812.619
398.278	22.803	1068.163	811.665
399.292	22.676	1067.235	810.306
400.307	22.549	1066.366	808.990
401.321	22.571	1065.712	808.525
402.336	22.593	1065.123	808.107
403.350	22.605	1064.493	807.614
404.365	22.800	1063.524	807.699
405.380	22.933	1063.093	807.909
406.394	22.996	1062.671	807.802
407.409	23.153	1061.866	807.835
408.423	23.400	1061.346	808.498
409.438	23.491	1060.831	808.450
410.453	23.537	1060.323	808.201
411.467	23.658	1059.324	807.919
412.482	23.640	1059.039	807.548
413.496	23.764	1058.547	807.665
414.511	23.816	1058.054	807.452
415.526	23.856	1057.847	807.405
416.540	23.882	1057.807	807.421
417.555	23.886	1056.992	806.744
418.569	23.648	1056.048	804.874
419.584	23.765	1055.471	804.892
420.599	23.651	1055.183	804.086
421.613	157.138	1403.979	1797.010
422.628	144.327	1454.778	1797.129
