DTS Sentinel unit serial number:	SN413079Multiplexer serial number:	ORYXHardware model number:	OX4-SRSoftware version number:	ORYX F/W v4.00 Oryx Data Collector v3.7.2.0data status	okinstallation	princeton_trtdifferential loss correction	single-endedforward channel	channel 2reverse channel	N/Adate	2019/09/11time	13:33:10forward acquisition time	60.00reverse acquisition time	0.00gamma	496.2192k internal	0.2293k external	0.2293temperature offset calibration	1.0004default loss term (dB/km)	0.3790temperature slope calibration	1.0000multiplexer offset coefficient	1.0000multiplexer slope coefficient	1.0000fibre end	0.00T internal ref (°C)	42.00T ext. ref 1 (°C)	0.82T ext. ref 2 (°C)	36.38length (m)	temperature (°C)	Stokes	anti-Stokes-747.200	275.538	-0.148	0.268
-746.185	800.000	0.031	0.120
-745.171	800.000	0.068	-0.214
-744.156	102.667	-0.122	0.146
-743.142	800.000	-0.053	0.208
-742.127	800.000	-0.059	0.190
-741.112	-33.465	-0.180	0.102
-740.098	325.616	0.149	0.291
-739.083	29.484	0.070	-0.061
-738.069	-125.580	0.341	-0.053
-737.054	4.051	-0.078	-0.058
-736.039	800.000	0.080	0.307
-735.025	-191.955	0.544	0.005
-734.010	375.458	0.159	-0.331
-732.996	800.000	-0.065	-0.234
-731.981	-200.000	0.025	-0.357
-730.966	102.320	-0.235	-0.281
-729.952	119.658	-0.158	-0.201
-728.937	106.024	0.075	-0.091
-727.923	800.000	-0.105	0.464
-726.908	20.188	-0.100	-0.083
-725.894	-101.218	-0.118	0.030
-724.879	-45.876	0.046	0.023
-723.864	52.149	0.253	-0.246
-722.850	800.000	-0.108	-0.367
-721.835	-200.000	0.014	0.309
-720.821	-39.677	-0.143	-0.077
-719.806	153.630	-0.117	-0.164
-718.791	549.539	0.048	0.117
-717.777	-200.000	0.046	-0.263
-716.762	465.168	-0.083	-0.190
-715.748	-1.466	0.187	-0.135
-714.733	234.529	0.084	0.142
-713.718	325.864	-0.046	-0.090
-712.704	-166.569	-0.117	-0.005
-711.689	-200.000	0.003	0.131
-710.675	159.673	-0.014	-0.020
-709.660	10.401	-0.094	-0.073
-708.645	-200.000	-0.009	0.114
-707.631	600.424	-0.049	0.124
-706.616	-170.397	-0.072	0.003
-705.602	-101.243	0.313	0.078
-704.587	-60.374	0.120	0.052
-703.572	181.601	0.134	0.201
-702.558	800.000	0.055	-0.200
-701.543	-90.750	-0.276	0.081
-700.529	-128.230	0.343	-0.050
-699.514	-69.131	-0.420	-0.165
-698.499	121.061	0.214	0.271
-697.485	-46.102	0.520	0.261
-696.470	68.146	-0.340	-0.356
-695.456	-51.593	-0.283	0.135
-694.441	61.455	0.081	-0.083
-693.426	156.025	0.191	0.269
-692.412	186.405	-0.068	0.103
-691.397	44.620	-0.265	-0.249
-690.383	-9.775	0.327	0.222
-689.368	363.504	-0.130	0.267
-688.354	-200.000	0.030	-0.161
-687.339	-10.596	-0.112	-0.076
-686.324	-118.566	0.576	0.104
-685.310	-200.000	-0.027	0.262
-684.295	-200.000	0.013	0.059
-683.281	-45.359	0.332	-0.168
-682.266	-145.381	-0.062	0.006
-681.251	-155.602	-0.488	-0.032
-680.237	800.000	-0.073	0.207
-679.222	88.829	-0.170	-0.193
-678.208	800.000	0.072	-0.275
-677.193	-141.301	-0.305	0.032
-676.178	-84.509	-0.364	0.117
-675.164	34.712	0.151	-0.134
-674.149	346.737	0.066	-0.132
-673.135	275.010	0.004	-0.006
-672.120	49.109	-0.234	-0.224
-671.105	-41.627	0.179	-0.094
-670.091	3.104	-0.204	-0.151
-669.076	50.206	-0.088	-0.085
-668.062	-160.472	-0.053	0.003
-667.047	-200.000	-0.026	-0.161
-666.032	-200.000	-0.001	-0.144
-665.018	67.587	0.101	-0.105
-664.003	-200.000	0.005	-0.079
-662.989	-200.000	-0.026	-0.154
-661.974	-200.000	-0.033	-0.260
-660.959	396.924	-0.040	0.086
-659.945	-74.038	-0.134	-0.050
-658.930	436.583	0.088	-0.194
-657.916	-124.884	-0.027	0.004
-656.901	-200.000	0.063	0.323
-655.886	37.949	-0.029	0.027
-654.872	-200.000	0.004	0.150
-653.857	137.787	-0.201	0.268
-652.843	114.234	0.295	0.365
-651.828	-152.476	-0.090	-0.007
-650.814	-137.657	-0.085	0.010
-649.799	-131.567	-0.320	-0.043
-648.784	-20.543	-0.181	0.114
-647.770	-45.761	-0.098	0.049
-646.755	-53.427	-0.153	-0.071
-645.741	-150.252	0.191	0.015
-644.726	-141.954	-0.045	0.005
-643.711	-64.729	-0.097	0.040
-642.697	800.000	-0.112	0.417
-641.682	-143.253	0.306	0.030
-640.668	643.377	0.013	-0.035
-639.653	-200.000	-0.002	-0.275
-638.638	63.229	-0.019	0.019
-637.624	136.127	0.081	0.108
-636.609	800.000	0.020	0.088
-635.595	-38.969	-0.153	-0.082
-634.580	-200.000	-0.008	-0.101
-633.565	-43.434	-0.136	0.070
-632.551	-81.548	0.007	0.002
-631.536	290.058	0.083	-0.154
-630.522	-60.113	-0.035	0.015
-629.507	800.000	0.018	0.060
-628.492	-152.174	0.080	0.006
-627.478	1.802	-0.215	-0.158
-626.463	14.380	0.451	-0.358
-625.449	-56.472	-0.103	0.047
-624.434	-14.705	0.208	0.136
-623.419	346.361	0.178	-0.356
-622.405	30.046	0.187	-0.162
-621.390	-35.442	0.253	0.140
-620.376	-95.688	-0.274	-0.075
-619.361	-3.200	0.233	-0.165
-618.346	545.578	0.048	0.117
-617.332	-67.448	-0.180	0.072
-616.317	800.000	0.133	-0.417
-615.303	-88.585	-0.229	0.069
-614.288	-2.648	-0.047	0.033
-613.273	-200.000	-0.000	-0.177
-612.259	685.092	0.081	0.215
-611.244	88.354	-0.070	0.079
-610.230	-19.399	-0.136	-0.086
-609.215	-134.250	-0.277	0.035
-608.201	800.000	0.082	0.338
-607.186	-96.616	-0.445	0.119
-606.171	800.000	0.028	0.121
-605.157	-101.174	-0.134	-0.033
-604.142	159.759	0.076	-0.108
-603.128	800.000	0.041	-0.131
-602.113	-151.577	-0.094	0.007
-601.098	43.205	-0.245	0.227
-600.084	-200.000	0.008	-0.039
-599.069	76.388	0.201	-0.216
-598.055	-50.523	0.248	0.119
-597.040	-114.482	-0.248	0.048
-596.025	128.123	0.208	-0.269
-595.011	365.503	-0.086	-0.176
-593.996	-81.624	-0.278	0.093
-592.982	800.000	0.151	0.476
-591.967	573.261	0.073	-0.181
-590.952	407.481	-0.051	-0.110
-589.938	232.229	-0.053	0.089
-588.923	-183.706	0.379	0.007
-587.909	-28.866	0.170	0.099
-586.894	62.777	-0.047	0.048
-585.879	-22.628	-0.063	-0.039
-584.865	-140.546	-0.131	0.014
-583.850	800.000	0.092	-0.392
-582.836	-78.371	-0.278	0.097
-581.821	800.000	0.038	0.122
-580.806	-29.427	-0.057	0.033
-579.792	148.669	-0.070	0.096
-578.777	377.171	-0.150	0.311
-577.763	126.762	0.144	0.185
-576.748	-123.333	-0.266	0.043
-575.733	-200.000	-0.023	-0.165
-574.719	141.152	0.215	0.289
-573.704	166.043	-0.138	0.198
-572.690	-23.784	0.104	-0.063
-571.675	-28.786	0.056	0.033
-570.661	385.090	-0.192	0.403
-569.646	245.021	0.107	0.183
-568.631	188.189	-0.052	0.078
-567.617	84.871	0.059	0.065
-566.602	800.000	-0.022	-0.090
-565.588	-112.853	0.093	-0.019
-564.573	-200.000	-0.035	0.162
-563.558	800.000	0.032	0.092
-562.544	-89.076	-0.234	0.070
-561.529	-48.022	-0.247	-0.121
-560.515	232.790	0.162	0.270
-559.500	52.287	-0.113	-0.109
-558.485	800.000	0.063	-0.242
-557.471	-200.000	0.004	0.091
-556.456	12.392	-0.213	0.167
-555.442	-16.028	-0.127	0.082
-554.427	-85.709	-0.176	-0.055
-553.412	57.397	-0.095	0.094
-552.398	14.216	0.438	-0.346
-551.383	529.801	0.050	-0.121
-550.369	456.289	-0.080	-0.180
-549.354	800.000	0.031	-0.105
-548.339	252.432	-0.116	-0.201
-547.325	-200.000	0.005	-0.293
-546.310	120.450	0.094	0.118
-545.296	-116.572	-0.179	-0.034
-544.281	-55.535	-0.181	0.082
-543.266	139.110	0.137	-0.183
-542.252	-200.000	-0.004	0.435
-541.237	-200.000	0.016	0.083
-540.223	195.485	-0.225	-0.346
-539.208	-123.958	-0.448	-0.072
-538.193	-9.933	0.120	0.081
-537.179	149.207	0.211	0.290
-536.164	119.288	-0.123	0.154
-535.150	74.773	-0.070	-0.075
-534.135	-70.865	-0.439	-0.168
-533.121	-200.000	0.000	-0.047
-532.106	-200.000	-0.047	-0.248
-531.091	-100.004	-0.025	-0.006
-530.077	-73.149	0.235	0.087
-529.062	-22.198	0.063	-0.039
-528.048	-200.000	-0.021	-0.110
-527.033	122.058	0.052	0.066
-526.018	-200.000	-0.037	-0.383
-525.004	-181.090	0.090	-0.002
-523.989	46.868	-0.234	-0.221
-522.975	-112.369	-0.463	0.094
-521.960	-94.884	-0.236	0.065
-520.945	120.963	-0.159	0.201
-519.931	198.633	-0.095	-0.148
-518.916	-40.207	0.020	0.010
-517.902	800.000	-0.089	0.361
-516.887	57.135	-0.086	0.085
-515.872	-197.612	0.320	0.002
-514.858	195.925	-0.103	-0.159
-513.843	-25.146	0.475	0.285
-512.829	-91.233	0.321	0.093
-511.814	184.951	-0.116	0.175
-510.799	-18.550	0.032	0.020
-509.785	-200.000	0.031	0.210
-508.770	800.000	0.057	-0.188
-507.756	800.000	0.022	0.084
-506.741	-190.068	0.135	-0.002
-505.726	54.373	0.097	0.095
-504.712	-18.942	0.013	0.008
-503.697	121.870	0.071	-0.090
-502.683	-200.000	-0.005	0.157
-501.668	-200.000	-0.019	-0.424
-500.653	-200.000	0.027	-0.286
-499.639	-141.172	-0.141	-0.015
-498.624	-61.944	0.112	-0.047
-497.610	36.651	-0.099	-0.089
-496.595	-200.000	-0.011	0.306
-495.581	494.771	0.130	0.302
-494.566	-200.000	-0.013	0.251
-493.551	-109.782	-0.201	-0.043
-492.537	5.127	0.311	-0.232
-491.522	14.737	-0.198	0.157
-490.508	-200.000	-0.031	-0.163
-489.493	212.066	0.258	-0.412
-488.478	-200.000	-0.009	0.228
-487.464	-118.226	0.363	0.066
-486.449	-141.753	-0.109	0.011
-485.435	-46.588	0.215	-0.107
-484.420	-69.929	0.274	-0.106
-483.405	-86.901	0.172	0.053
-482.391	800.000	0.107	0.379
-481.376	-53.028	-0.069	0.032
-480.362	800.000	-0.039	-0.154
-479.347	-200.000	0.044	0.257
-478.332	108.717	-0.064	-0.077
-477.318	27.954	-0.330	-0.281
-476.303	-28.653	-0.320	-0.187
-475.289	-200.000	-0.035	-0.320
-474.274	386.882	0.106	-0.221
-473.259	272.746	-0.068	-0.121
-472.245	-115.771	-0.103	-0.020
-471.230	109.119	-0.031	0.037
-470.216	-93.885	-0.228	-0.063
-469.201	-200.000	-0.021	-0.103
-468.186	-124.809	-0.378	0.059
-467.172	-200.000	0.019	0.170
-466.157	-9.091	0.268	0.182
-465.143	-200.000	-0.003	0.025
-464.128	-200.000	0.019	0.332
-463.113	-124.829	0.222	-0.035
-462.099	38.216	-0.336	-0.303
-461.084	727.079	-0.170	-0.460
-460.070	134.070	0.023	0.030
-459.055	-200.000	-0.015	-0.298
-458.040	407.282	0.048	-0.102
-457.026	-188.907	-0.091	-0.001
-456.011	294.300	0.067	0.124
-454.997	-154.544	-0.201	-0.014
-453.982	313.467	0.013	-0.025
-452.968	800.000	-0.093	-0.332
-451.953	-86.092	-0.035	0.011
-450.938	-57.024	0.322	0.144
-449.924	-5.199	0.071	0.049
-448.909	334.066	-0.203	-0.396
-447.895	271.514	-0.043	-0.076
-446.880	-103.478	-0.306	-0.073
-445.865	36.586	0.136	-0.122
-444.851	282.116	-0.114	0.206
-443.836	-200.000	0.027	0.332
-442.822	-171.243	-0.290	-0.010
-441.807	-200.000	0.027	-0.196
-440.792	197.061	-0.137	0.212
-439.778	-151.882	-0.250	0.018
-438.763	800.000	-0.035	0.101
-437.749	117.842	-0.221	0.275
-436.734	800.000	0.035	-0.125
-435.719	-63.523	-0.215	-0.089
-434.705	-29.193	-0.165	-0.096
-433.690	-87.394	-0.225	-0.069
-432.676	-117.992	0.100	-0.018
-431.661	156.971	-0.195	-0.272
-430.646	152.305	0.154	0.213
-429.632	543.221	-0.099	0.239
-428.617	151.187	-0.246	0.339
-427.603	-168.212	-0.200	0.008
-426.588	273.311	-0.163	0.291
-425.573	-200.000	0.023	-0.132
-424.559	-28.403	0.114	0.067
-423.544	-42.611	-0.131	-0.067
-422.530	-175.688	-0.389	0.011
-421.515	378.519	-0.164	0.340
-420.500	189.333	-0.075	0.113
-419.486	-165.099	0.164	0.007
-418.471	-31.217	-0.169	0.096
-417.457	800.000	0.054	-0.184
-416.442	57.482	0.297	0.293
-415.428	73.500	-0.127	-0.134
-414.413	-200.000	-0.034	-0.306
-413.398	-200.000	-0.041	0.231
-412.384	-123.360	0.308	-0.050
-411.369	-137.009	-0.247	0.029
-410.355	-52.404	0.343	0.160
-409.340	-130.614	0.189	-0.026
-408.325	20.870	-0.161	0.132
-407.311	-200.000	0.030	-0.155
-406.296	8.511	-0.230	0.175
-405.282	-1.319	-0.126	0.090
-404.267	30.983	-0.060	0.052
-403.252	149.329	-0.149	-0.203
-402.238	318.347	0.105	0.201
-401.223	-112.912	-0.492	0.098
-400.209	206.473	-0.106	-0.167
-399.194	74.181	0.178	0.188
-398.179	800.000	-0.046	-0.179
-397.165	-200.000	0.034	0.234
-396.150	542.049	0.248	-0.596
-395.136	25.644	0.167	0.140
-394.121	45.775	0.050	0.047
-393.106	-78.476	0.237	-0.082
-392.092	-27.659	0.117	-0.069
-391.077	-96.654	-0.131	0.035
-390.063	495.976	-0.054	-0.124
-389.048	729.058	-0.096	0.260
-388.033	197.617	0.085	0.131
-387.019	-30.601	0.099	0.057
-386.004	-200.000	-0.002	0.424
-384.990	-110.209	-0.136	0.029
-383.975	201.970	0.171	-0.266
-382.960	317.238	0.257	-0.489
-381.946	-200.000	0.027	-0.193
-380.931	582.450	0.047	-0.117
-379.917	-184.759	-0.298	0.005
-378.902	25.550	-0.064	-0.054
-377.888	-181.081	-0.107	-0.002
-376.873	800.000	0.046	0.143
-375.858	496.993	0.029	0.067
-374.844	-27.355	-0.144	-0.084
-373.829	102.576	-0.163	0.192
-372.815	-200.000	0.024	-0.138
-371.800	-200.000	-0.022	0.117
-370.785	-200.000	0.001	-0.209
-369.771	-200.000	-0.002	-0.118
-368.756	-156.299	0.095	0.006
-367.742	-6.087	0.317	0.218
-366.727	162.612	0.269	-0.380
-365.712	10.703	-0.139	-0.107
-364.698	-138.623	0.138	0.015
-363.683	-200.000	-0.053	-0.298
-362.669	-67.256	-0.102	0.041
-361.654	232.559	0.179	-0.297
-360.639	-200.000	-0.019	0.183
-359.625	-0.363	0.246	0.176
-358.610	-200.000	-0.019	-0.101
-357.596	-200.000	0.007	0.071
-356.581	-15.281	0.127	0.082
-355.566	17.801	0.233	0.187
-354.552	286.756	0.146	0.265
-353.537	-158.234	0.198	-0.012
-352.523	-200.000	0.087	-0.475
-351.508	-8.755	-0.226	-0.152
-350.493	-200.000	0.047	0.302
-349.479	-52.495	-0.089	-0.041
-348.464	-71.663	0.352	-0.133
-347.450	-79.100	-0.354	0.121
-346.435	372.724	0.067	-0.138
-345.420	128.704	0.016	-0.021
-344.406	126.356	0.306	-0.390
-343.391	147.239	0.143	-0.194
-342.377	257.839	-0.044	0.076
-341.362	-108.720	0.230	-0.050
-340.348	-48.646	0.413	0.200
-339.333	-8.182	-0.170	-0.115
-338.318	-96.069	-0.434	0.116
-337.304	178.198	-0.219	0.322
-336.289	-200.000	-0.011	-0.113
-335.275	169.955	-0.072	-0.104
-334.260	-200.000	0.033	-0.233
-333.245	800.000	-0.068	-0.190
-332.231	32.695	0.102	0.089
-331.216	167.505	0.204	0.292
-330.202	-1.292	-0.261	-0.185
-329.187	-135.833	-0.055	0.007
-328.172	-86.078	0.062	-0.019
-327.158	560.710	-0.034	-0.082
-326.143	45.897	0.145	0.135
-325.129	88.289	-0.098	0.109
-324.114	120.145	-0.136	0.169
-323.099	-114.641	-0.153	0.029
-322.085	307.045	-0.023	0.043
-321.070	46.220	0.100	0.093
-320.056	752.170	-0.057	-0.154
-319.041	-104.078	0.475	-0.111
-318.026	800.000	0.060	0.193
-317.012	158.038	0.261	-0.364
-315.997	415.993	-0.131	-0.282
-314.983	-61.526	-0.265	0.112
-313.968	3.460	-0.108	-0.079
-312.953	93.904	0.260	0.296
-311.939	169.682	-0.262	0.377
-310.924	62.752	-0.206	0.207
-309.910	140.566	-0.050	0.066
-308.895	-200.000	-0.058	-0.428
-307.880	-74.084	-0.364	0.133
-306.866	-200.000	0.008	-0.205
-305.851	29.504	0.248	-0.212
-304.837	-64.328	-0.205	-0.084
-303.822	-49.860	-0.298	-0.142
-302.807	444.955	-0.023	-0.050
-301.793	0.938	0.272	-0.196
-300.778	-145.605	-0.108	-0.010
-299.764	-116.589	0.384	0.071
-298.749	-47.739	0.202	0.098
-297.735	-89.902	-0.079	-0.023
-296.720	-11.786	0.149	0.098
-295.705	-200.000	0.001	0.043
-294.691	800.000	0.021	-0.090
-293.676	132.319	0.158	-0.204
-292.662	-53.969	0.211	-0.096
-291.647	-200.000	0.017	-0.146
-290.632	49.309	-0.134	-0.126
-289.618	-34.646	0.114	-0.063
-288.603	-116.269	0.269	0.050
-287.589	47.306	0.083	-0.077
-286.574	616.359	0.049	0.124
-285.559	-80.720	0.144	0.048
-284.545	507.425	0.117	0.272
-283.530	401.451	0.175	0.369
-282.516	228.908	0.151	0.248
-281.501	-200.000	-0.018	0.417
-280.486	-71.157	0.156	-0.059
-279.472	-200.000	-0.019	-0.280
-278.457	601.665	0.083	-0.208
-277.443	109.767	-0.187	-0.225
-276.428	-74.081	0.323	-0.118
-275.413	-21.808	0.216	0.132
-274.399	-74.344	0.301	0.109
-273.384	202.072	0.153	0.237
-272.370	-170.623	0.185	-0.006
-271.355	178.522	0.039	0.057
-270.340	59.922	-0.176	0.174
-269.326	-98.104	-0.385	0.100
-268.311	10.950	0.053	0.041
-267.297	-171.416	0.043	0.001
-266.282	-42.681	0.290	0.148
-265.267	800.000	-0.065	0.226
-264.253	82.783	0.057	0.063
-263.238	-65.836	0.311	0.125
-262.224	-200.000	-0.090	-0.500
-261.209	-75.028	0.112	0.040
-260.195	84.549	0.348	-0.382
-259.180	245.332	0.114	-0.193
-258.165	-124.416	0.105	0.016
-257.151	57.042	0.136	-0.134
-256.136	800.000	0.078	0.266
-255.122	469.913	-0.092	-0.207
-254.107	157.882	0.109	0.152
-253.092	-60.458	0.221	0.094
-252.078	-153.666	0.245	0.017
-251.063	455.497	0.069	-0.153
-250.049	-200.000	0.018	-0.202
-249.034	33.799	-0.276	-0.241
-248.019	45.848	0.121	0.112
-247.005	65.403	-0.065	0.066
-245.990	-8.956	-0.089	-0.060
-244.976	23.254	0.262	-0.216
-243.961	-53.237	0.198	-0.091
-242.946	46.853	0.192	-0.179
-241.932	-125.874	0.191	-0.029
-240.917	-70.948	0.123	-0.047
-239.903	-57.028	0.090	0.040
-238.888	6.778	-0.182	0.136
-237.873	60.866	0.130	-0.129
-236.859	-50.684	-0.028	0.013
-235.844	-51.919	-0.144	0.067
-234.830	199.606	-0.170	0.262
-233.815	-200.000	-0.037	0.181
-232.800	800.000	0.128	0.556
-231.786	-200.000	0.033	0.146
-230.771	28.221	-0.074	-0.063
-229.757	471.875	0.174	-0.393
-228.742	800.000	-0.065	0.200
-227.727	102.785	-0.127	0.149
-226.713	72.283	-0.107	-0.112
-225.698	-200.000	0.031	-0.406
-224.684	53.525	0.146	-0.140
-223.669	28.115	0.128	-0.109
-222.655	14.380	-0.207	-0.162
-221.640	34.232	-0.226	0.197
-220.625	309.594	0.057	-0.107
-219.611	-108.187	-0.204	0.044
-218.596	-154.828	-0.107	0.007
-217.582	-200.000	0.012	-0.207
-216.567	-36.084	-0.213	0.116
-215.552	800.000	0.043	-0.172
-214.538	800.000	-0.036	0.136
-213.523	-107.519	-0.356	0.078
-212.509	-200.000	-0.004	-0.089
-211.494	-63.466	0.135	0.056
-210.479	800.000	-0.181	0.577
-209.465	-191.104	0.135	0.001
-208.450	800.000	-0.009	0.024
-207.436	59.096	0.016	-0.015
-206.421	18.834	0.351	0.282
-205.406	789.985	0.117	0.322
-204.392	120.942	-0.107	-0.133
-203.377	289.020	-0.029	0.053
-202.363	-116.889	0.118	-0.022
-201.348	398.482	-0.079	-0.166
-200.333	-115.911	-0.361	-0.067
-199.319	-56.760	0.311	-0.138
-198.304	103.307	-0.080	-0.094
-197.290	-200.000	0.022	0.225
-196.275	148.318	0.278	0.376
-195.260	-189.087	-0.080	0.001
-194.246	-131.377	0.361	0.048
-193.231	-109.235	-0.278	-0.059
-192.217	-50.260	-0.214	0.101
-191.202	31.383	-0.160	-0.138
-190.187	0.274	-0.297	-0.212
-189.173	-9.998	-0.208	0.139
-188.158	9.703	0.183	-0.139
-187.144	-200.000	0.046	0.343
-186.129	-64.196	0.058	0.024
-185.114	-45.721	0.216	-0.107
-184.100	277.651	0.037	0.065
-183.085	800.000	0.165	0.559
-182.071	-200.000	-0.004	-0.218
-181.056	101.216	-0.210	-0.244
-180.042	-171.327	0.063	-0.002
-179.027	-99.080	-0.041	0.010
-178.012	16.116	-0.060	-0.047
-176.998	-200.000	-0.020	-0.231
-175.983	479.923	-0.144	0.327
-174.969	203.615	-0.107	0.166
-173.954	-200.000	0.040	-0.254
-172.939	125.696	0.035	0.044
-171.925	41.572	-0.100	-0.091
-170.910	723.004	-0.177	0.471
-169.896	800.000	0.017	-0.064
-168.881	30.194	0.248	0.212
-167.866	116.266	-0.052	-0.064
-166.852	-108.442	0.211	0.046
-165.837	-143.373	0.125	0.012
-164.823	361.224	0.147	-0.294
-163.808	-200.000	-0.034	-0.176
-162.793	725.469	-0.019	-0.050
-161.779	-147.174	0.060	0.005
-160.764	800.000	0.064	-0.178
-159.750	-4.587	0.279	-0.193
-158.735	144.015	-0.127	-0.169
-157.720	800.000	0.052	-0.153
-156.706	229.213	0.057	0.094
-155.691	-73.987	-0.258	0.093
-154.677	259.654	0.126	0.218
-153.662	42.515	0.013	0.012
-152.647	-117.094	-0.038	0.007
-151.633	800.000	0.050	0.193
-150.618	55.674	-0.096	-0.093
-149.604	-14.816	0.246	-0.158
-148.589	217.001	-0.216	0.343
-147.574	23.013	-0.295	0.242
-146.560	-123.670	-0.060	0.010
-145.545	588.514	0.028	0.069
-144.531	-96.002	-0.244	-0.065
-143.516	266.048	-0.270	0.471
-142.502	-200.000	-0.059	0.412
-141.487	-83.223	0.290	0.093
-140.472	800.000	-0.071	-0.200
-139.458	-200.000	0.005	-0.148
-138.443	334.848	-0.100	0.194
-137.429	145.297	0.225	0.301
-136.414	-36.016	-0.220	0.119
-135.399	-9.203	0.151	-0.101
-134.385	498.081	0.055	0.126
-133.370	-120.629	0.383	0.065
-132.356	29.507	-0.116	-0.098
-131.341	90.794	-0.112	-0.125
-130.326	-38.937	-0.404	-0.213
-129.312	-0.393	0.148	-0.105
-128.297	-15.015	0.226	-0.145
-127.283	-3.319	-0.191	0.133
-126.268	458.268	-0.115	-0.255
-125.253	-136.765	0.269	0.031
-124.239	-54.618	0.187	0.085
-123.224	-32.514	0.086	-0.048
-122.210	-199.964	0.252	0.001
-121.195	-26.561	0.187	-0.109
-120.180	800.000	-0.058	-0.250
-119.166	-200.000	0.025	0.456
-118.151	-59.657	-0.257	-0.110
-117.137	-166.374	-0.342	0.014
-116.122	800.000	0.113	0.339
-115.107	200.962	-0.077	0.118
-114.093	800.000	-0.040	0.167
-113.078	34.362	0.098	0.085
-112.064	498.806	-0.124	0.285
-111.049	131.792	-0.077	-0.099
-110.034	-23.826	-0.354	-0.212
-109.020	-200.000	-0.014	-0.135
-108.005	18.311	0.194	0.155
-106.991	-200.000	-0.004	0.324
-105.976	-40.499	0.172	-0.089
-104.962	-156.888	0.152	0.009
-103.947	-14.487	-0.053	-0.034
-102.932	-109.490	0.161	0.034
-101.918	-139.689	0.266	-0.028
-100.903	-92.446	-0.058	-0.016
-99.889	538.597	0.018	0.043
-98.874	-140.542	0.126	-0.013
-97.859	-200.000	-0.024	-0.191
-96.845	-100.851	0.166	-0.041
-95.830	285.400	0.072	-0.130
-94.816	-200.000	0.042	0.227
-93.801	-200.000	0.012	0.158
-92.786	50.469	-0.171	-0.162
-91.772	-129.505	0.178	0.025
-90.757	15.892	0.452	-0.355
-89.743	67.398	0.314	-0.319
-88.728	-112.267	0.310	-0.062
-87.713	-200.000	-0.002	-0.115
-86.699	8.529	0.246	0.185
-85.684	-21.168	-0.446	0.272
-84.670	-55.784	0.314	0.140
-83.655	-44.909	-0.230	0.114
-82.640	-200.000	0.045	-0.241
-81.626	-93.918	0.145	-0.040
-80.611	-23.801	0.398	-0.238
-79.597	-84.521	0.231	0.073
-78.582	-200.000	0.014	0.136
-77.567	-200.000	0.013	-0.248
-76.553	92.635	-0.071	0.080
-75.538	800.000	-0.109	0.318
-74.524	-60.289	0.247	0.105
-73.509	-27.654	0.157	-0.091
-72.494	71.732	0.117	-0.121
-71.480	-66.443	-0.293	0.116
-70.465	82.379	0.129	0.139
-69.451	1.973	-0.128	0.092
-68.436	-171.796	0.369	-0.012
-67.422	61.152	-0.078	0.077
-66.407	31.657	-0.196	0.168
-65.392	63.972	-0.284	0.285
-64.378	-56.903	0.334	-0.147
-63.363	279.423	0.048	-0.086
-62.349	-52.850	0.225	0.103
-61.334	16.377	-0.947	-0.745
-60.319	175.442	0.285	0.411
-59.305	-200.000	0.029	-0.851
-58.290	17.961	0.827	0.657
-57.276	800.000	0.637	1.883
-56.261	-200.000	75.357	533.046
-55.246	560.344	1308.749	3148.946
-54.232	144.305	2559.245	3401.916
-53.217	112.843	2360.430	2847.792
-52.203	51.763	1973.866	1870.077
-51.188	45.571	1760.428	1619.046
-50.173	42.584	1713.924	1553.163
-49.159	56.958	1748.179	1696.346
-48.144	62.797	1766.226	1759.159
-47.130	45.360	1729.690	1588.880
-46.115	41.902	1716.429	1549.904
-45.100	41.945	1710.971	1545.249
-44.086	41.924	1708.452	1542.746
-43.071	41.921	1705.680	1540.164
-42.057	41.859	1703.664	1537.804
-41.042	41.847	1701.381	1535.588
-40.027	41.888	1699.543	1534.185
-39.013	41.896	1697.264	1532.126
-37.998	41.774	1695.899	1529.899
-36.984	41.946	1694.018	1529.460
-35.969	42.003	1692.628	1528.576
-34.954	42.145	1690.672	1527.831
-33.940	42.025	1688.967	1525.317
-32.925	41.949	1687.415	1523.280
-31.911	42.123	1685.129	1522.473
-30.896	42.047	1683.394	1520.274
-29.881	41.918	1682.291	1518.239
-28.867	41.945	1680.593	1516.845
-27.852	42.006	1678.887	1515.710
-26.838	41.929	1677.115	1513.465
-25.823	42.041	1675.347	1512.655
-24.809	42.078	1673.759	1511.443
-23.794	42.095	1672.464	1510.344
-22.779	41.986	1671.315	1508.423
-21.765	41.937	1669.475	1506.337
-20.750	42.129	1667.271	1505.732
-19.736	42.074	1665.985	1504.098
-18.721	42.102	1664.312	1502.736
-17.706	42.059	1663.451	1501.573
-16.692	41.972	1661.588	1499.179
-15.677	41.987	1660.376	1498.138
-14.663	42.000	1659.305	1497.210
-13.648	42.038	1657.734	1496.021
-12.633	41.977	1656.317	1494.230
-11.619	42.056	1654.228	1492.872
-10.604	42.012	1652.689	1491.097
-9.590	41.952	1651.874	1489.852
-8.575	41.995	1650.287	1488.685
-7.560	42.025	1648.849	1487.555
-6.546	42.076	1647.136	1486.323
-5.531	41.971	1646.859	1485.239
-4.517	41.978	1645.301	1483.825
-3.502	41.944	1644.081	1482.414
-2.487	42.038	1642.488	1481.611
-1.473	41.980	1631.257	1470.999
-0.458	39.315	1611.269	1433.532
0.556	34.457	1609.302	1397.914
1.571	31.615	1634.182	1398.211
2.586	30.966	1648.548	1405.480
3.600	27.358	1594.134	1332.611
4.615	14.870	1471.897	1145.312
5.629	3.177	1395.934	1009.741
6.644	0.984	1384.907	987.388
7.659	0.825	1383.483	985.253
8.673	0.769	1382.611	984.178
9.688	0.712	1380.574	982.274
10.702	0.480	1378.231	979.012
11.717	4.911	1387.208	1014.192
12.731	16.750	1410.503	1109.082
13.746	24.243	1422.486	1167.694
14.761	24.452	1421.633	1168.263
15.775	24.444	1420.755	1167.385
16.790	24.388	1420.630	1166.810
17.804	24.464	1419.691	1166.434
18.819	24.667	1419.886	1167.815
19.834	24.692	1419.129	1167.252
20.848	24.708	1417.937	1166.273
21.863	24.719	1417.181	1165.619
22.877	24.661	1416.505	1164.583
23.892	24.671	1415.660	1163.853
24.907	24.633	1414.899	1162.873
25.921	24.654	1414.152	1162.297
26.936	24.708	1412.737	1161.379
27.950	24.756	1411.206	1160.329
28.965	24.717	1410.471	1159.370
29.980	24.743	1409.084	1158.296
30.994	24.780	1407.517	1157.145
32.009	24.819	1406.519	1156.473
33.023	24.752	1405.109	1154.782
34.038	24.762	1403.863	1153.717
35.053	24.747	1402.982	1152.797
36.067	24.703	1402.168	1151.739
37.082	24.713	1401.580	1151.223
38.096	24.700	1400.415	1150.077
39.111	24.646	1399.724	1149.062
40.126	24.692	1398.993	1148.658
41.140	24.672	1397.979	1147.593
42.155	24.682	1398.173	1147.716
43.169	24.695	1397.989	1147.545
44.184	24.803	1397.391	1147.648
45.199	24.784	1396.900	1147.021
46.213	24.691	1396.732	1146.186
47.228	24.756	1395.479	1145.473
48.242	24.749	1394.391	1144.433
49.257	24.764	1393.064	1143.338
50.271	24.797	1391.359	1142.048
51.286	24.706	1390.054	1140.293
52.301	24.660	1388.896	1138.951
53.315	24.692	1387.997	1138.318
54.330	24.652	1387.308	1137.398
55.344	24.716	1385.825	1136.487
56.359	24.705	1384.848	1135.517
57.374	24.610	1384.382	1134.432
58.388	24.685	1383.530	1134.104
59.403	24.700	1382.918	1133.599
60.417	24.652	1382.420	1132.784
61.432	24.654	1381.599	1132.023
62.447	24.773	1380.595	1131.857
63.461	24.694	1379.652	1130.484
64.476	24.662	1378.949	1129.607
65.490	24.681	1377.614	1128.531
66.505	24.769	1375.905	1127.585
67.520	24.715	1374.859	1126.287
68.534	24.672	1373.733	1124.995
69.549	24.736	1372.608	1124.376
70.563	24.753	1371.354	1123.356
71.578	24.770	1370.285	1122.493
72.593	24.803	1369.662	1122.091
73.607	24.658	1369.323	1120.802
74.622	24.838	1368.042	1120.780
75.636	24.756	1367.589	1119.795
76.651	24.712	1367.457	1119.318
77.666	24.659	1366.783	1118.331
78.680	24.767	1365.791	1118.099
79.695	24.770	1364.956	1117.332
80.709	24.785	1364.046	1116.584
81.724	24.737	1363.199	1115.493
82.739	24.658	1362.251	1114.123
83.753	24.696	1361.249	1113.443
84.768	24.686	1360.499	1112.671
85.782	24.721	1359.285	1111.798
86.797	24.689	1358.213	1110.623
87.812	24.764	1356.980	1109.981
88.826	24.696	1355.722	1108.434
89.841	24.677	1355.116	1107.720
90.855	24.791	1353.766	1107.222
91.870	24.754	1353.040	1106.302
92.884	24.750	1352.106	1105.416
93.899	24.765	1351.007	1104.512
94.914	24.823	1350.293	1104.189
95.928	24.810	1349.673	1103.506
96.943	24.842	1348.412	1102.573
97.957	24.718	1348.336	1101.650
98.972	24.788	1347.158	1101.023
99.987	24.688	1346.496	1099.767
101.001	24.712	1345.246	1098.799
102.016	24.745	1344.273	1098.106
103.030	24.716	1343.537	1097.233
104.045	24.728	1342.614	1096.454
105.060	24.744	1341.819	1095.806
106.074	24.810	1340.752	1095.241
107.089	24.769	1339.796	1094.114
108.103	24.782	1338.428	1092.977
109.118	24.811	1337.445	1092.257
110.133	24.865	1336.215	1091.481
111.147	24.925	1334.929	1090.701
112.162	24.803	1333.946	1089.059
113.176	24.942	1332.370	1088.522
114.191	24.825	1332.206	1087.578
115.206	24.819	1330.930	1086.406
116.220	24.778	1330.128	1085.404
117.235	24.852	1328.767	1084.649
118.249	24.737	1328.334	1083.503
119.264	24.943	1326.711	1083.331
120.279	24.915	1326.327	1082.749
121.293	24.936	1325.516	1082.117
122.308	24.849	1325.118	1081.175
123.322	24.869	1324.120	1080.381
124.337	24.895	1323.138	1079.642
125.352	24.974	1321.964	1079.068
126.366	24.830	1321.482	1077.710
127.381	24.928	1320.217	1077.175
128.395	24.909	1319.107	1076.060
129.410	24.956	1318.421	1075.683
130.424	24.912	1318.112	1075.077
131.439	24.977	1317.102	1074.545
132.454	25.011	1316.214	1073.927
133.468	24.962	1315.615	1073.051
134.483	24.875	1315.245	1072.133
135.497	24.977	1314.015	1071.645
136.512	24.872	1313.385	1070.409
137.527	24.904	1312.362	1069.674
138.541	25.059	1310.601	1069.068
139.556	24.859	1309.580	1066.947
140.570	24.968	1308.542	1066.660
141.585	24.881	1307.182	1064.937
142.600	24.909	1306.359	1064.339
143.614	24.869	1305.713	1063.479
144.629	24.865	1304.265	1062.183
145.643	24.924	1303.382	1061.723
146.658	24.748	1302.513	1059.875
147.673	24.834	1301.415	1059.396
148.687	24.797	1300.364	1058.226
149.702	24.792	1299.322	1057.261
150.716	24.958	1297.709	1056.833
151.731	24.816	1297.224	1055.508
152.746	24.859	1296.119	1054.765
153.760	24.939	1294.798	1054.071
154.775	24.902	1294.138	1053.221
155.789	24.929	1293.262	1052.572
156.804	24.923	1291.985	1051.409
157.819	24.873	1291.406	1050.547
158.833	24.933	1290.574	1050.133
159.848	25.017	1289.262	1049.462
160.862	24.825	1289.322	1048.294
161.877	24.900	1288.449	1047.929
162.892	24.984	1287.105	1047.232
163.906	24.917	1286.529	1046.282
164.921	25.064	1285.227	1045.991
165.935	24.945	1285.229	1045.205
166.950	24.970	1284.514	1044.676
167.964	24.891	1284.309	1043.954
168.979	25.001	1283.210	1043.607
169.994	24.982	1282.583	1042.900
171.008	25.017	1281.861	1042.423
172.023	25.030	1281.115	1041.799
173.037	24.967	1280.195	1040.593
174.052	25.090	1279.622	1040.746
175.067	25.110	1278.461	1039.828
176.081	25.000	1278.007	1038.732
177.096	24.960	1277.385	1037.898
178.110	24.986	1276.144	1036.952
179.125	24.950	1275.301	1035.964
180.140	25.026	1274.226	1035.439
181.154	24.952	1273.420	1034.267
182.169	24.947	1271.912	1032.920
183.183	25.046	1271.121	1032.754
184.198	25.017	1269.966	1031.561
185.213	25.053	1268.965	1030.861
186.227	25.004	1268.192	1029.862
187.242	25.166	1266.814	1029.581
188.256	25.039	1266.491	1028.502
189.271	25.106	1265.545	1028.027
190.286	25.142	1264.718	1027.466
191.300	25.062	1263.897	1026.251
192.315	25.000	1263.983	1025.878
193.329	25.135	1262.946	1025.714
194.344	25.058	1262.976	1025.212
195.359	25.181	1262.398	1025.356
196.373	24.985	1262.207	1023.989
197.388	24.982	1261.281	1023.127
198.402	25.019	1260.809	1022.864
199.417	24.990	1260.680	1022.508
200.432	25.095	1259.851	1022.339
201.446	25.071	1259.179	1021.566
202.461	25.017	1258.693	1020.773
203.475	25.100	1257.521	1020.205
204.490	25.058	1256.849	1019.335
205.504	25.077	1255.606	1018.343
206.519	25.147	1254.843	1018.029
207.534	25.114	1253.876	1016.969
208.548	25.167	1252.669	1016.200
209.563	25.152	1252.262	1015.696
210.577	25.066	1251.470	1014.479
211.592	25.209	1250.155	1014.131
212.607	25.255	1249.589	1013.839
213.621	25.194	1249.134	1013.036
214.636	25.215	1247.906	1012.070
215.650	25.195	1247.203	1011.300
216.665	25.194	1246.207	1010.395
217.680	25.122	1245.473	1009.303
218.694	25.131	1244.616	1008.571
219.709	25.356	1243.469	1008.818
220.723	25.255	1243.205	1007.946
221.738	25.122	1242.864	1006.835
222.753	25.115	1241.997	1006.003
223.767	25.283	1240.684	1005.794
224.782	25.364	1240.522	1006.025
225.796	25.353	1240.237	1005.642
226.811	25.213	1239.695	1004.332
227.826	25.258	1238.890	1003.844
228.840	25.260	1237.951	1003.005
229.855	25.280	1237.342	1002.535
230.869	25.282	1237.054	1002.225
231.884	25.256	1236.475	1001.522
232.899	25.318	1235.293	1000.821
233.913	25.334	1234.777	1000.403
234.928	25.486	1234.182	1000.677
235.942	25.403	1233.795	999.812
236.957	25.356	1232.933	998.762
237.972	25.376	1232.302	998.275
238.986	25.414	1231.308	997.594
240.001	25.422	1231.241	997.495
241.015	25.488	1230.092	996.845
242.030	25.478	1229.377	996.119
243.045	25.481	1228.296	995.173
244.059	25.430	1227.367	994.050
245.074	25.446	1227.217	993.930
246.088	25.460	1226.365	993.228
247.103	25.517	1225.146	992.469
248.117	25.532	1224.404	991.863
249.132	25.544	1223.918	991.447
250.147	25.605	1223.183	991.097
251.161	25.611	1222.419	990.425
252.176	25.572	1221.727	989.560
253.190	25.584	1220.938	988.904
254.205	25.472	1220.968	988.225
255.220	25.560	1220.007	987.844
256.234	25.562	1219.452	987.313
257.249	25.589	1218.767	986.820
258.263	25.532	1218.358	986.092
259.278	25.558	1217.692	985.608
260.293	25.573	1217.027	985.066
261.307	25.652	1216.599	985.060
262.322	25.549	1215.825	983.783
263.336	25.625	1215.065	983.500
264.351	25.600	1214.654	982.942
265.366	25.535	1213.867	981.863
266.380	25.569	1213.375	981.562
267.395	25.588	1212.699	981.034
268.409	25.599	1212.123	980.538
269.424	25.625	1211.152	979.812
270.439	25.569	1211.273	979.518
271.453	25.719	1209.938	979.165
272.468	25.583	1209.247	977.783
273.482	25.702	1208.495	977.733
274.497	25.630	1208.762	977.469
275.512	25.732	1207.645	977.034
276.526	25.597	1206.948	975.652
277.541	25.729	1206.105	975.600
278.555	25.664	1205.725	974.856
279.570	25.725	1204.787	974.339
280.585	25.842	1203.312	973.696
281.599	25.806	1203.003	973.164
282.614	25.747	1202.569	972.406
283.628	25.774	1201.368	971.495
284.643	25.778	1200.974	971.109
285.657	25.735	1199.865	969.900
286.672	25.855	1199.074	969.818
287.687	25.848	1197.926	968.767
288.701	25.802	1197.652	968.213
289.716	25.857	1196.771	967.707
290.730	25.844	1196.064	966.980
291.745	25.837	1195.075	966.061
292.760	25.829	1194.826	965.732
293.774	25.887	1194.503	965.693
294.789	25.900	1193.807	965.117
295.803	25.868	1193.008	964.213
296.818	25.876	1192.829	964.024
297.833	25.862	1191.885	963.102
298.847	26.139	1190.668	963.515
299.862	25.934	1190.334	962.062
300.876	25.875	1189.577	961.052
301.891	25.984	1189.374	961.384
302.906	25.940	1188.561	960.407
303.920	26.033	1187.758	960.169
304.935	26.001	1187.299	959.543
305.949	25.989	1186.417	958.680
306.964	26.019	1185.963	958.387
307.979	26.035	1184.683	957.356
308.993	26.092	1184.594	957.501
310.008	25.981	1183.895	956.262
311.022	26.011	1183.019	955.630
312.037	25.991	1182.340	954.891
313.052	26.103	1181.136	954.423
314.066	26.117	1180.405	953.822
315.081	26.053	1179.836	952.941
316.095	26.059	1179.320	952.472
317.110	26.123	1178.598	952.140
318.125	26.201	1177.657	951.711
319.139	26.007	1177.560	950.526
320.154	26.149	1176.709	950.501
321.168	26.144	1176.405	950.148
322.183	26.137	1175.469	949.269
323.197	26.127	1174.894	948.670
324.212	26.136	1174.424	948.249
325.227	26.146	1174.296	948.118
326.241	26.179	1173.484	947.550
327.256	26.271	1172.401	947.074
328.270	26.218	1171.996	946.388
329.285	26.215	1170.976	945.464
330.300	26.166	1170.275	944.557
331.314	26.214	1169.424	944.039
332.329	26.348	1168.136	943.614
333.343	26.225	1168.179	942.921
334.358	26.174	1167.195	941.776
335.373	26.249	1166.482	941.513
336.387	26.289	1165.641	940.956
337.402	26.345	1164.948	940.607
338.416	26.393	1164.367	940.300
339.431	26.329	1163.875	939.488
340.446	26.383	1163.324	939.245
341.460	26.418	1162.153	938.395
342.475	26.344	1161.753	937.605
343.489	26.408	1160.331	936.709
344.504	26.492	1159.980	936.777
345.519	26.429	1159.034	935.603
346.533	26.525	1157.840	935.053
347.548	26.513	1157.396	934.551
348.562	26.489	1156.778	933.845
349.577	26.463	1156.035	933.028
350.592	26.410	1155.228	932.020
351.606	26.414	1154.990	931.767
352.621	26.544	1154.316	931.810
353.635	26.565	1153.716	931.351
354.650	26.431	1152.727	929.780
355.665	26.404	1152.393	929.290
356.679	26.440	1151.814	928.928
357.694	26.571	1151.250	929.058
358.708	26.514	1150.442	928.036
359.723	26.567	1149.527	927.487
360.738	26.546	1148.682	926.614
361.752	26.478	1148.397	925.957
362.767	26.498	1147.936	925.601
363.781	26.538	1147.765	925.588
364.796	26.620	1146.761	925.117
365.810	26.619	1146.355	924.698
366.825	26.662	1145.560	924.197
367.840	26.557	1145.573	923.592
368.854	26.731	1144.692	923.687
369.869	26.657	1144.231	922.856
370.883	26.622	1143.359	921.890
371.898	26.752	1141.976	921.358
372.913	26.751	1141.730	921.068
373.927	26.770	1141.375	920.801
374.942	26.691	1140.880	919.915
375.956	26.765	1140.403	919.828
376.971	26.705	1139.721	918.893
377.986	26.698	1139.015	918.203
379.000	26.877	1138.193	918.366
380.015	26.781	1138.247	917.845
381.029	26.762	1137.082	916.724
382.044	26.842	1136.176	916.322
383.059	26.871	1135.800	916.084
384.073	26.895	1135.167	915.612
385.088	26.937	1134.304	915.048
386.102	26.843	1133.850	914.123
387.117	26.892	1132.444	913.156
388.132	26.872	1131.676	912.355
389.146	26.893	1130.893	911.748
390.161	26.891	1130.420	911.275
391.175	26.936	1129.901	911.005
392.190	26.966	1128.939	910.299
393.205	26.960	1128.249	909.634
394.219	26.937	1128.105	909.320
395.234	26.973	1127.032	908.556
396.248	27.004	1125.839	907.670
397.263	27.006	1125.275	907.144
398.278	27.092	1124.698	907.028
399.292	27.065	1124.041	906.282
400.307	27.108	1123.254	905.783
401.321	27.017	1122.631	904.745
402.336	27.067	1122.314	904.657
403.350	27.009	1121.534	903.664
404.365	27.024	1120.575	902.881
405.380	27.101	1120.055	902.769
406.394	27.074	1119.648	902.227
407.409	27.131	1118.861	901.793
408.423	27.282	1117.936	901.718
409.438	27.177	1116.984	900.349
410.453	27.181	1116.591	899.975
411.467	27.296	1115.769	899.799
412.482	27.223	1114.823	898.598
413.496	27.200	1114.453	898.103
414.511	27.274	1113.585	897.689
415.526	27.219	1113.451	897.233
416.540	27.129	1112.947	896.302
417.555	27.278	1112.408	896.523
418.569	27.238	1112.001	895.919
419.584	27.346	1111.369	895.865
420.599	27.347	1110.868	895.386
421.613	83.659	1294.385	1353.803
422.628	78.535	1321.151	1353.964
