DTS Sentinel unit serial number:	SN413079Multiplexer serial number:	ORYXHardware model number:	OX4-SRSoftware version number:	ORYX F/W v4.00 Oryx Data Collector v3.7.2.0data status	okinstallation	princeton_trtdifferential loss correction	single-endedforward channel	channel 2reverse channel	N/Adate	2019/09/18time	03:07:35forward acquisition time	60.00reverse acquisition time	0.00gamma	496.2192k internal	0.2349k external	0.2349temperature offset calibration	0.9979default loss term (dB/km)	0.3790temperature slope calibration	1.0000multiplexer offset coefficient	1.0000multiplexer slope coefficient	1.0000fibre end	0.00T internal ref (°C)	22.75T ext. ref 1 (°C)	0.16T ext. ref 2 (°C)	16.89length (m)	temperature (°C)	Stokes	anti-Stokes-747.200	-7.320	0.160	-0.109
-746.185	-71.265	0.208	0.078
-745.171	-200.000	0.027	0.139
-744.156	422.554	-0.177	0.381
-743.142	-106.601	0.232	0.052
-742.127	125.492	0.179	0.225
-741.112	-95.589	-0.175	0.047
-740.098	350.815	0.141	0.278
-739.083	2.917	-0.256	-0.185
-738.069	-200.000	0.016	0.100
-737.054	-118.234	0.109	0.019
-736.039	-4.470	-0.256	-0.177
-735.025	-83.850	0.377	0.120
-734.010	-18.660	-0.345	-0.215
-732.996	387.459	0.071	-0.147
-731.981	35.430	-0.069	-0.060
-730.966	-171.088	0.070	0.002
-729.952	67.673	-0.199	-0.203
-728.937	-115.905	-0.311	0.058
-727.923	-41.605	-0.104	-0.053
-726.908	-107.122	-0.079	0.017
-725.894	-109.144	0.032	-0.007
-724.879	-200.000	-0.040	0.277
-723.864	171.148	-0.138	-0.198
-722.850	116.166	-0.081	-0.099
-721.835	-92.785	-0.295	-0.082
-720.821	218.185	-0.070	0.112
-719.806	-176.678	-0.270	-0.007
-718.791	-10.805	-0.324	0.214
-717.777	167.047	-0.173	-0.246
-716.762	800.000	0.077	-0.226
-715.748	-200.000	-0.038	0.221
-714.733	-138.079	-0.055	0.006
-713.718	-163.600	-0.190	0.009
-712.704	800.000	0.146	-0.461
-711.689	188.141	-0.037	-0.056
-710.675	-9.381	-0.253	0.168
-709.660	152.387	-0.150	-0.205
-708.645	138.498	0.217	-0.284
-707.631	-119.975	-0.213	-0.036
-706.616	-0.107	-0.212	-0.150
-705.602	199.718	0.144	0.220
-704.587	252.111	-0.184	-0.313
-703.572	-200.000	-0.038	-0.426
-702.558	800.000	-0.116	-0.324
-701.543	800.000	-0.089	0.365
-700.529	80.283	0.212	0.227
-699.514	-20.483	-0.292	0.179
-698.499	254.040	0.111	-0.190
-697.485	261.754	0.056	-0.097
-696.470	56.376	-0.339	0.328
-695.456	169.862	-0.174	-0.248
-694.441	-22.626	0.140	-0.084
-693.426	-138.757	0.119	-0.013
-692.412	-200.000	-0.002	0.046
-691.397	-121.092	0.114	-0.019
-690.383	496.387	0.164	-0.375
-689.368	-60.597	0.182	-0.077
-688.354	56.675	-0.095	0.092
-687.339	-79.592	0.362	0.122
-686.324	-112.210	-0.195	-0.039
-685.310	-12.730	-0.190	-0.123
-684.295	765.207	0.122	-0.329
-683.281	375.065	-0.155	-0.315
-682.266	-50.346	-0.135	-0.063
-681.251	-200.000	-0.015	-0.309
-680.237	-200.000	-0.009	-0.339
-679.222	-58.480	-0.317	-0.137
-678.208	-200.000	0.005	-0.161
-677.193	-65.453	-0.094	0.038
-676.178	-53.468	-0.423	0.193
-675.164	13.444	-0.219	0.169
-674.149	481.898	0.140	0.316
-673.135	266.886	-0.108	-0.189
-672.120	-200.000	0.036	-0.347
-671.105	-73.453	-0.202	-0.073
-670.091	39.371	-0.238	-0.213
-669.076	447.590	-0.028	-0.060
-668.062	481.867	0.135	-0.305
-667.047	141.579	-0.118	-0.156
-666.032	113.869	-0.125	0.152
-665.018	-200.000	-0.022	0.218
-664.003	-98.262	-0.608	0.155
-662.989	156.684	-0.063	0.086
-661.974	13.580	-0.181	0.140
-660.959	237.591	0.229	0.378
-659.945	193.964	0.246	-0.370
-658.930	27.022	-0.189	-0.158
-657.916	800.000	0.028	0.076
-656.901	-141.356	0.118	0.012
-655.886	48.552	-0.044	-0.041
-654.872	-197.722	0.208	-0.001
-653.857	315.355	-0.078	-0.147
-652.843	800.000	0.117	-0.420
-651.828	2.561	0.209	-0.150
-650.814	-84.616	0.074	0.023
-649.799	106.592	-0.150	-0.177
-648.784	21.652	0.145	0.118
-647.770	-82.289	-0.509	-0.165
-646.755	75.323	0.280	0.294
-645.741	-200.000	-0.045	-0.406
-644.726	124.100	-0.145	0.181
-643.711	97.230	0.155	-0.177
-642.697	-34.473	0.033	-0.018
-641.682	55.233	0.111	-0.107
-640.668	800.000	0.034	-0.122
-639.653	-200.000	0.053	0.399
-638.638	6.340	-0.166	-0.123
-637.624	139.058	-0.210	0.275
-636.609	315.971	0.062	-0.117
-635.595	-53.462	0.346	-0.157
-634.580	-12.073	0.069	0.045
-633.565	-56.917	0.154	0.068
-632.551	187.827	0.089	-0.131
-631.536	-99.171	0.395	-0.099
-630.522	-111.460	0.043	0.009
-629.507	-200.000	0.006	0.090
-628.492	-200.000	-0.014	0.145
-627.478	-200.000	-0.048	-0.253
-626.463	-192.972	-0.356	-0.003
-625.449	-30.976	0.031	-0.017
-624.434	98.051	-0.217	0.248
-623.419	-105.390	-0.114	0.026
-622.405	-200.000	0.015	0.156
-621.390	179.155	0.236	-0.343
-620.376	231.589	-0.163	-0.265
-619.361	-200.000	-0.040	-0.367
-618.346	4.151	-0.136	-0.099
-617.332	-63.477	0.066	-0.027
-616.317	363.492	0.030	0.060
-615.303	-27.681	0.114	-0.066
-614.288	-200.000	-0.034	0.167
-613.273	-70.290	-0.197	-0.074
-612.259	118.726	-0.143	-0.176
-611.244	800.000	-0.059	-0.202
-610.230	116.609	-0.161	-0.196
-609.215	-200.000	-0.012	0.156
-608.201	443.418	-0.074	-0.161
-607.186	-126.152	-0.270	-0.040
-606.171	-200.000	-0.087	0.479
-605.157	-200.000	0.029	0.134
-604.142	92.737	0.206	-0.231
-603.128	800.000	0.091	0.340
-602.113	800.000	0.042	-0.120
-601.098	-74.936	0.169	-0.060
-600.084	-86.151	-0.156	0.048
-599.069	-200.000	0.014	0.146
-598.055	23.538	0.356	0.291
-597.040	800.000	-0.081	0.229
-596.025	-110.084	-0.094	0.020
-595.011	69.045	-0.093	0.095
-593.996	-72.855	-0.435	0.159
-592.982	-62.404	-0.148	-0.061
-591.967	-132.549	0.131	0.017
-590.952	-200.000	-0.015	-0.152
-589.938	-102.566	0.312	0.074
-588.923	48.155	0.130	0.121
-587.909	108.833	-0.016	-0.018
-586.894	21.801	-0.039	-0.031
-585.879	-112.047	0.293	-0.059
-584.865	181.340	-0.142	0.207
-583.850	-87.380	-0.286	-0.086
-582.836	84.672	0.241	-0.261
-581.821	-64.603	-0.062	-0.025
-580.806	361.603	-0.035	-0.069
-579.792	-200.000	-0.003	-0.306
-578.777	228.980	0.133	-0.216
-577.763	249.126	0.145	0.244
-576.748	-126.800	-0.216	0.032
-575.733	800.000	-0.082	-0.341
-574.719	800.000	-0.131	0.368
-573.704	-6.660	0.221	0.149
-572.690	266.699	0.095	-0.164
-571.675	179.542	-0.133	0.194
-570.661	387.798	-0.163	0.335
-569.646	800.000	0.153	0.584
-568.631	237.367	-0.138	-0.227
-567.617	800.000	-0.035	0.105
-566.602	-200.000	0.076	-0.366
-565.588	398.144	0.116	-0.240
-564.573	800.000	-0.021	0.066
-563.558	406.830	0.032	0.067
-562.544	-200.000	-0.031	0.326
-561.529	-200.000	-0.005	-0.142
-560.515	-176.132	0.040	-0.001
-559.500	53.255	0.203	-0.193
-558.485	174.351	0.058	-0.083
-557.471	180.385	-0.083	-0.120
-556.456	428.346	-0.133	0.285
-555.442	800.000	-0.022	0.085
-554.427	47.781	-0.058	-0.054
-553.412	113.121	-0.119	-0.143
-552.398	381.884	-0.146	-0.298
-551.383	-31.700	0.079	-0.044
-550.369	-200.000	-0.001	-0.143
-549.354	800.000	-0.053	0.223
-548.339	267.530	0.086	0.150
-547.325	-72.493	-0.201	0.074
-546.310	-200.000	0.006	0.025
-545.296	-200.000	-0.038	0.599
-544.281	-79.321	0.052	-0.017
-543.266	-200.000	0.001	-0.154
-542.252	-126.461	-0.276	-0.041
-541.237	-200.000	-0.014	-0.206
-540.223	-200.000	-0.002	-0.035
-539.208	-200.000	-0.008	-0.106
-538.193	100.651	0.235	0.271
-537.179	11.928	-0.217	-0.165
-536.164	-200.000	0.014	0.201
-535.150	57.660	0.153	0.148
-534.135	-200.000	-0.009	-0.326
-533.121	70.044	-0.151	0.155
-532.106	149.212	0.219	0.294
-531.091	-104.100	-0.155	0.036
-530.077	800.000	-0.051	-0.170
-529.062	83.953	0.050	0.054
-528.048	-83.985	0.133	-0.042
-527.033	-200.000	-0.059	-0.284
-526.018	84.604	0.070	-0.075
-525.004	176.932	0.097	-0.140
-523.989	88.488	-0.147	-0.161
-522.975	800.000	-0.010	-0.039
-521.960	15.853	0.382	-0.298
-520.945	78.969	-0.103	-0.109
-519.931	-62.299	-0.066	0.027
-518.916	-153.711	0.221	-0.015
-517.902	-158.424	-0.181	0.010
-516.887	-200.000	0.010	-0.163
-515.872	-200.000	0.000	0.076
-514.858	-90.126	-0.433	-0.125
-513.843	76.018	0.155	0.163
-512.829	-29.846	0.173	-0.098
-511.814	-5.384	-0.372	0.253
-510.799	135.150	-0.122	-0.156
-509.785	490.689	-0.101	0.228
-508.770	800.000	-0.070	-0.226
-507.756	233.616	-0.057	0.093
-506.741	-29.941	0.114	0.064
-505.726	165.412	0.096	0.134
-504.712	-13.217	-0.019	-0.012
-503.697	-200.000	0.031	-0.330
-502.683	354.307	0.097	0.191
-501.668	466.857	-0.081	-0.180
-500.653	-200.000	-0.041	0.354
-499.639	-48.561	-0.165	-0.079
-498.624	800.000	-0.042	-0.138
-497.610	-11.103	-0.295	0.192
-496.595	-18.474	0.182	-0.112
-495.581	130.711	-0.126	-0.160
-494.566	-200.000	0.008	-0.055
-493.551	-200.000	-0.023	0.103
-492.537	800.000	0.031	0.106
-491.522	533.277	0.077	-0.179
-490.508	368.646	-0.141	-0.282
-489.493	-119.444	-0.283	-0.048
-488.478	-200.000	-0.009	-0.329
-487.464	-102.951	-0.323	0.076
-486.449	-117.190	0.182	-0.033
-485.435	-200.000	-0.048	-0.323
-484.420	787.824	0.043	-0.118
-483.405	116.193	0.085	0.103
-482.391	702.159	-0.034	0.088
-481.376	113.383	-0.125	0.149
-480.362	606.724	-0.160	-0.394
-479.347	5.116	0.197	-0.143
-478.332	800.000	-0.025	-0.069
-477.318	51.400	-0.320	0.300
-476.303	28.424	-0.196	-0.164
-475.289	-107.987	0.265	-0.057
-474.274	559.078	0.176	-0.419
-473.259	-146.487	-0.246	-0.021
-472.245	-54.056	-0.098	-0.044
-471.230	-64.158	-0.078	-0.031
-470.216	269.736	0.101	0.175
-469.201	12.112	0.214	0.163
-468.186	-76.896	-0.027	-0.009
-467.172	-12.717	-0.238	0.153
-466.157	-200.000	-0.012	0.201
-465.143	-115.347	0.060	-0.011
-464.128	-130.899	-0.282	-0.037
-463.113	24.442	0.222	0.182
-462.099	-200.000	-0.005	-0.330
-461.084	-80.667	-0.159	0.052
-460.070	-154.502	-0.147	0.010
-459.055	-39.561	-0.146	0.075
-458.040	16.322	0.195	-0.152
-457.026	148.374	0.083	0.110
-456.011	-111.396	0.305	-0.061
-454.997	-149.481	-0.447	-0.035
-453.982	-113.895	-0.132	0.025
-452.968	800.000	-0.056	0.192
-451.953	-150.138	0.218	0.017
-450.938	361.879	0.064	0.126
-449.924	-101.615	0.390	-0.093
-448.909	800.000	0.033	0.131
-447.895	-143.424	-0.166	-0.016
-446.880	800.000	0.074	-0.296
-445.865	517.291	0.093	0.216
-444.851	155.830	-0.035	-0.048
-443.836	-140.343	0.262	-0.027
-442.822	403.802	-0.190	-0.395
-441.807	800.000	0.077	-0.227
-440.792	701.693	-0.061	-0.157
-439.778	-200.000	0.118	0.000
-438.763	-25.840	-0.033	-0.019
-437.749	200.688	-0.230	-0.349
-436.734	104.549	-0.105	-0.122
-435.719	800.000	-0.071	0.271
-434.705	-21.430	-0.273	0.164
-433.690	92.795	-0.140	-0.156
-432.676	9.397	-0.048	-0.036
-431.661	20.420	0.052	0.042
-430.646	-156.926	-0.380	-0.023
-429.632	698.333	0.109	-0.283
-428.617	-50.374	0.049	-0.023
-427.603	-70.561	-0.300	0.112
-426.588	-47.613	0.202	0.097
-425.573	-90.668	-0.189	-0.054
-424.559	242.734	0.062	0.102
-423.544	-200.000	0.040	0.363
-422.530	-158.167	0.175	-0.010
-421.515	-68.084	0.499	0.192
-420.500	12.009	-0.146	-0.111
-419.486	-200.000	-0.048	-0.238
-418.471	495.997	-0.047	0.107
-417.457	46.623	-0.120	-0.110
-416.442	-200.000	-0.040	0.267
-415.428	44.228	-0.155	-0.140
-414.413	-129.380	-0.077	0.011
-413.398	35.900	0.136	0.118
-412.384	-200.000	-0.040	0.336
-411.369	-200.000	0.006	-0.350
-410.355	-200.000	0.002	-0.058
-409.340	-200.000	0.008	0.344
-408.325	-132.408	-0.331	0.042
-407.311	131.962	-0.042	-0.054
-406.296	-156.996	-0.039	-0.002
-405.282	183.698	0.012	0.018
-404.267	-122.983	-0.228	-0.036
-403.252	-200.000	0.026	-0.167
-402.238	800.000	0.040	-0.140
-401.223	-200.000	-0.016	0.085
-400.209	-78.193	0.243	-0.082
-399.194	-96.334	0.106	0.028
-398.179	18.590	0.127	-0.100
-397.165	-153.034	-0.219	-0.015
-396.150	-30.604	-0.071	0.040
-395.136	19.300	0.089	-0.071
-394.121	-200.000	-0.006	-0.152
-393.106	-134.633	0.182	0.022
-392.092	79.875	0.064	-0.068
-391.077	-137.675	0.518	-0.057
-390.063	800.000	0.063	-0.205
-389.048	-200.000	-0.032	-0.361
-388.033	300.535	-0.228	-0.414
-387.019	87.500	0.139	-0.152
-386.004	-13.024	0.248	-0.159
-384.990	148.440	-0.127	-0.169
-383.975	-2.245	-0.168	0.116
-382.960	-200.000	-0.042	-0.217
-381.946	-200.000	-0.024	-0.463
-380.931	128.055	0.265	0.332
-379.917	425.751	0.050	0.105
-378.902	15.634	-0.224	-0.173
-377.888	331.326	-0.104	0.197
-376.873	800.000	-0.081	0.262
-375.858	74.829	-0.027	0.028
-374.844	34.870	-0.316	-0.272
-373.829	-92.974	0.395	0.109
-372.815	-114.299	-0.145	0.028
-371.800	-8.852	0.400	0.264
-370.785	-200.000	-0.019	-0.114
-369.771	-21.345	-0.159	0.096
-368.756	-200.000	0.038	-0.221
-367.742	800.000	0.066	-0.196
-366.727	3.077	0.117	0.084
-365.712	-200.000	-0.016	-0.237
-364.698	-200.000	0.039	-0.214
-363.683	304.007	-0.064	-0.116
-362.669	-52.788	-0.437	-0.198
-361.654	-200.000	0.001	0.054
-360.639	344.754	0.182	0.350
-359.625	-122.543	0.216	0.035
-358.610	800.000	-0.033	0.135
-357.596	558.349	0.062	0.147
-356.581	33.893	-0.230	-0.197
-355.566	-183.351	0.208	-0.004
-354.552	211.916	0.165	-0.256
-353.537	116.747	-0.226	-0.273
-352.523	-131.399	0.217	0.028
-351.508	800.000	0.086	-0.339
-350.493	640.989	-0.124	0.311
-349.479	-32.462	-0.083	-0.045
-348.464	-200.000	-0.014	0.172
-347.450	-149.413	-0.158	-0.012
-346.435	418.315	0.081	-0.169
-345.420	235.470	0.109	-0.178
-344.406	134.071	0.088	0.111
-343.391	-169.585	0.137	0.005
-342.377	-80.805	-0.211	0.069
-341.362	800.000	0.117	0.341
-340.348	185.662	0.111	-0.162
-339.333	-77.751	0.155	-0.053
-338.318	63.483	-0.101	0.100
-337.304	800.000	-0.008	-0.034
-336.289	-90.835	0.339	0.096
-335.275	-176.302	0.318	-0.008
-334.260	121.595	-0.222	0.272
-333.245	321.532	-0.111	-0.207
-332.231	64.034	0.210	0.208
-331.216	116.122	0.177	0.213
-330.202	183.352	-0.081	0.118
-329.187	-200.000	0.026	0.150
-328.172	52.847	-0.195	0.183
-327.158	-2.412	-0.204	-0.141
-326.143	9.195	-0.146	0.108
-325.129	131.876	0.070	0.089
-324.114	2.233	0.080	0.057
-323.099	-39.868	0.333	0.171
-322.085	-38.199	-0.315	0.164
-321.070	16.104	-0.135	0.105
-320.056	-200.000	-0.029	-0.213
-319.041	300.043	-0.135	0.245
-318.026	324.217	-0.138	0.259
-317.012	-200.000	0.028	0.229
-315.997	167.622	0.156	0.218
-314.983	-107.375	0.233	0.050
-313.968	12.477	-0.134	-0.102
-312.953	71.984	0.064	-0.065
-311.939	751.245	0.083	-0.219
-310.924	-141.378	0.262	0.026
-309.910	114.541	0.107	0.128
-308.895	-86.894	-0.261	-0.078
-307.880	800.000	-0.029	0.110
-306.866	-200.000	-0.018	-0.101
-305.851	-72.267	-0.321	-0.117
-304.837	35.262	-0.245	0.211
-303.822	-100.731	-0.225	-0.054
-302.807	151.310	0.106	0.142
-301.793	-105.549	-0.265	-0.059
-300.778	501.273	-0.044	0.099
-299.764	800.000	0.019	0.066
-298.749	-151.130	0.226	-0.017
-297.735	657.533	-0.092	-0.232
-296.720	426.538	-0.051	-0.107
-295.705	-152.799	0.084	-0.006
-294.691	-84.017	-0.157	0.049
-293.676	185.955	-0.012	0.018
-292.662	-129.770	0.244	-0.033
-291.647	-113.026	-0.007	0.001
-290.632	-200.000	-0.001	0.049
-289.618	-177.158	0.167	-0.004
-288.603	-200.000	0.012	-0.111
-287.589	-11.823	0.263	0.169
-286.574	112.024	0.265	0.313
-285.559	24.014	-0.197	0.159
-284.545	186.214	0.146	0.213
-283.530	51.906	0.113	0.106
-282.516	-61.622	0.128	-0.053
-281.501	-200.000	0.034	0.251
-280.486	-200.000	0.026	0.305
-279.472	-200.000	0.093	0.470
-278.457	663.935	-0.046	0.116
-277.443	53.285	-0.158	0.149
-276.428	-42.113	-0.136	-0.068
-275.413	-110.531	-0.154	-0.031
-274.399	218.668	0.160	0.250
-273.384	327.230	0.107	0.201
-272.370	434.806	-0.101	0.216
-271.355	-146.708	0.235	-0.020
-270.340	237.632	0.100	-0.163
-269.326	27.960	0.111	-0.092
-268.311	-97.275	-0.182	0.046
-267.297	-200.000	-0.000	0.188
-266.282	78.613	0.060	0.062
-265.267	37.218	-0.254	0.221
-264.253	201.124	0.114	-0.172
-263.238	-84.532	0.219	-0.068
-262.224	-22.738	0.103	-0.061
-261.209	-200.000	0.030	0.218
-260.195	800.000	0.073	0.293
-259.180	800.000	0.076	-0.309
-258.165	432.575	-0.043	0.092
-257.151	800.000	-0.041	-0.122
-256.136	-95.781	-0.200	-0.052
-255.122	-3.149	-0.136	0.093
-254.107	25.833	-0.205	-0.167
-253.092	-34.427	0.200	-0.108
-252.078	139.016	0.105	0.136
-251.063	-138.477	0.175	-0.019
-250.049	43.423	-0.088	-0.079
-249.034	-200.000	-0.336	0.000
-248.019	-37.567	-0.100	-0.052
-247.005	-124.578	0.132	0.020
-245.990	33.218	-0.027	0.023
-244.976	-158.880	0.347	0.019
-243.961	-88.559	0.144	0.042
-242.946	-200.000	-0.003	-0.132
-241.932	-88.504	0.255	-0.075
-240.917	-200.000	0.021	-0.126
-239.903	205.113	-0.131	-0.198
-238.888	800.000	-0.084	0.343
-237.873	137.037	0.307	-0.393
-236.859	-100.823	-0.126	0.030
-235.844	214.026	-0.059	0.092
-234.830	-147.196	-0.140	0.012
-233.815	286.444	0.127	0.225
-232.800	-200.000	-0.051	0.471
-231.786	-122.102	0.119	-0.019
-230.771	235.671	-0.158	-0.256
-229.757	18.350	0.090	-0.070
-228.742	-200.000	-0.015	-0.153
-227.727	221.865	-0.120	-0.189
-226.713	-200.000	-0.083	-0.372
-225.698	-200.000	0.035	-0.399
-224.684	593.129	0.122	0.295
-223.669	-200.000	0.014	-0.375
-222.655	-92.956	0.153	0.042
-221.640	-143.959	-0.474	-0.044
-220.625	335.509	0.087	-0.166
-219.611	-200.000	-0.057	0.263
-218.596	-71.172	-0.192	-0.071
-217.582	13.057	-0.153	0.116
-216.567	48.866	0.164	0.150
-215.552	-56.926	0.102	-0.044
-214.538	218.645	0.166	-0.259
-213.523	-200.000	0.054	0.250
-212.509	397.018	0.035	0.072
-211.494	-55.096	-0.115	0.050
-210.479	-39.537	-0.158	-0.081
-209.465	-200.000	0.047	0.223
-208.450	-114.180	0.098	0.018
-207.436	-40.948	-0.117	-0.059
-206.421	-78.127	-0.217	-0.073
-205.406	57.133	0.130	-0.124
-204.392	-200.000	0.042	-0.302
-203.377	20.982	0.351	0.278
-202.363	84.694	-0.220	0.235
-201.348	-2.416	0.119	-0.082
-200.333	800.000	0.057	0.223
-199.319	-39.195	-0.315	-0.162
-198.304	-37.353	-0.010	0.005
-197.290	800.000	0.020	-0.053
-196.275	-47.803	0.306	0.145
-195.260	800.000	0.064	0.222
-194.246	226.652	0.045	-0.072
-193.231	763.529	-0.040	-0.106
-192.217	203.766	0.097	-0.147
-191.202	-76.841	-0.108	0.037
-190.187	-200.000	0.028	0.422
-189.173	182.200	0.081	0.116
-188.158	-200.000	-0.090	0.476
-187.144	800.000	0.027	-0.096
-186.129	-200.000	-0.001	-0.045
-185.114	-84.418	0.169	0.052
-184.100	-27.858	0.261	0.148
-183.085	116.634	0.121	-0.145
-182.071	409.018	0.090	-0.186
-181.056	60.866	0.127	-0.123
-180.042	-116.713	0.089	-0.016
-179.027	145.349	0.266	0.347
-178.012	-200.000	0.033	0.362
-176.998	93.994	-0.198	-0.219
-175.983	-37.437	0.184	-0.096
-174.969	-53.630	0.084	0.038
-173.954	724.390	0.081	-0.211
-172.939	471.952	-0.015	0.034
-171.925	-63.927	0.273	0.109
-170.910	-69.489	-0.194	0.073
-169.896	-44.047	0.016	0.008
-168.881	-91.083	0.200	-0.056
-167.866	-18.150	-0.085	0.052
-166.852	279.615	-0.043	0.075
-165.837	-151.620	-0.083	0.006
-164.823	-200.000	0.041	0.394
-163.808	563.040	0.028	-0.067
-162.793	-57.892	0.310	-0.132
-161.779	-86.415	-0.260	0.078
-160.764	-74.425	-0.239	-0.084
-159.750	58.402	0.106	0.102
-158.735	-200.000	0.035	-0.213
-157.720	72.747	0.091	-0.092
-156.706	-200.000	0.006	0.187
-155.691	-42.134	-0.317	0.158
-154.677	-93.766	0.284	0.076
-153.662	-105.459	0.133	-0.029
-152.647	158.277	-0.032	-0.044
-151.633	-200.000	0.043	-0.249
-150.618	-52.368	0.224	0.101
-149.604	30.870	0.150	0.126
-148.589	-200.000	-0.017	0.180
-147.574	-190.075	0.156	-0.002
-146.560	-135.194	-0.243	-0.028
-145.545	93.685	-0.073	0.080
-144.531	-200.000	0.024	0.242
-143.516	97.939	0.161	-0.180
-142.502	-115.684	0.346	-0.063
-141.487	37.003	-0.122	0.105
-140.472	484.747	0.041	0.092
-139.458	-59.109	0.123	-0.052
-138.443	-200.000	0.005	0.271
-137.429	402.211	0.133	0.273
-136.414	79.115	-0.142	-0.149
-135.399	51.581	0.192	0.178
-134.385	192.347	-0.053	-0.079
-133.370	-34.684	-0.312	-0.166
-132.356	146.426	-0.123	-0.161
-131.341	-116.953	0.040	-0.007
-130.326	337.500	0.121	0.230
-129.312	130.863	0.174	-0.217
-128.297	-98.476	-0.309	0.077
-127.283	-57.942	0.112	-0.048
-126.268	-200.000	0.013	0.407
-125.253	800.000	-0.119	0.381
-124.239	10.657	0.351	0.261
-123.224	-38.699	-0.088	-0.045
-122.210	86.494	-0.216	0.232
-121.195	-137.850	0.142	-0.015
-120.180	-16.512	-0.142	0.087
-119.166	193.201	0.134	-0.198
-118.151	71.903	-0.206	-0.209
-117.137	327.614	-0.080	0.149
-116.122	-51.417	0.289	-0.132
-115.107	-200.000	0.020	-0.116
-114.093	-34.148	-0.316	-0.169
-113.078	-101.931	0.162	0.038
-112.064	31.936	-0.137	-0.115
-111.049	800.000	0.028	0.092
-110.034	151.019	0.041	-0.054
-109.020	40.527	-0.163	-0.143
-108.005	701.459	-0.066	0.169
-106.991	-200.000	-0.045	0.247
-105.976	-98.665	0.316	0.079
-104.962	435.621	-0.187	-0.395
-103.947	211.045	0.044	-0.068
-102.932	-200.000	0.004	0.162
-101.918	-53.869	0.624	0.277
-100.903	190.651	-0.053	0.077
-99.889	-200.000	0.004	0.308
-98.874	-33.333	0.292	0.157
-97.859	-63.340	-0.315	0.126
-96.845	-50.174	-0.085	-0.039
-95.830	-29.515	0.100	0.056
-94.816	-27.070	0.273	-0.155
-93.801	601.003	0.060	0.146
-92.786	83.263	-0.160	0.169
-91.772	800.000	-0.107	0.339
-90.757	-200.000	0.008	-0.085
-89.743	104.576	0.238	-0.273
-88.728	437.224	0.065	-0.139
-87.713	599.830	0.062	0.150
-86.699	-153.254	0.320	0.022
-85.684	-45.067	0.130	-0.063
-84.670	800.000	-0.081	-0.220
-83.655	-65.152	0.344	-0.135
-82.640	800.000	-0.024	-0.100
-81.626	-168.491	-0.402	0.015
-80.611	-17.672	0.111	-0.068
-79.597	-152.297	0.074	0.005
-78.582	-92.141	0.170	-0.047
-77.567	214.744	-0.157	0.242
-76.553	-200.000	0.037	0.163
-75.538	-54.469	-0.350	0.154
-74.524	27.120	-0.208	-0.170
-73.509	-127.290	0.166	0.024
-72.494	212.023	0.197	0.302
-71.480	-200.000	-0.007	-0.184
-70.465	360.290	0.181	0.352
-69.451	-5.275	0.203	0.136
-68.436	196.502	-0.059	-0.088
-67.422	-78.259	0.372	0.124
-66.407	-121.913	-0.368	0.059
-65.392	800.000	-0.074	-0.202
-64.378	60.052	0.135	0.130
-63.363	36.195	0.194	-0.166
-62.349	37.782	0.146	0.126
-61.334	230.439	-0.759	-1.206
-60.319	39.091	0.615	0.535
-59.305	372.700	-0.643	-1.271
-58.290	455.819	0.720	1.552
-57.276	800.000	0.458	1.392
-56.261	-200.000	128.470	670.812
-55.246	405.373	1614.399	3309.257
-54.232	137.489	2779.983	3536.299
-53.217	89.639	2307.527	2502.749
-52.203	31.855	1908.399	1597.287
-51.188	25.763	1703.226	1379.017
-50.173	23.721	1664.398	1332.226
-49.159	45.689	1734.809	1558.016
-48.144	42.853	1746.066	1546.313
-47.130	25.318	1697.007	1370.364
-46.115	22.849	1681.903	1339.414
-45.100	22.610	1676.782	1333.469
-44.086	22.622	1673.853	1331.184
-43.071	22.547	1671.743	1328.881
-42.057	22.657	1669.598	1327.955
-41.042	22.643	1666.958	1325.696
-40.027	22.621	1665.388	1324.231
-39.013	22.526	1664.191	1322.514
-37.998	22.659	1662.334	1321.981
-36.984	22.637	1661.357	1320.986
-35.969	22.729	1659.541	1320.181
-34.954	22.713	1657.808	1318.630
-33.940	22.738	1656.040	1317.360
-32.925	22.758	1654.058	1315.880
-31.911	22.591	1653.052	1313.780
-30.896	22.689	1650.969	1312.802
-29.881	22.771	1650.109	1312.676
-28.867	22.760	1647.817	1310.717
-27.852	22.830	1646.529	1310.166
-26.838	22.765	1644.925	1308.355
-25.823	22.809	1643.481	1307.478
-24.809	22.750	1642.963	1306.579
-23.794	22.849	1640.889	1305.608
-22.779	22.769	1640.031	1304.279
-21.765	22.733	1638.172	1302.485
-20.750	22.735	1636.855	1301.399
-19.736	22.822	1635.121	1300.612
-18.721	22.812	1634.157	1299.723
-17.706	22.751	1632.615	1297.997
-16.692	22.847	1630.634	1297.076
-15.677	22.867	1629.442	1296.222
-14.663	22.759	1628.547	1294.665
-13.648	22.841	1626.366	1293.480
-12.633	22.667	1625.540	1291.499
-11.619	22.814	1623.592	1290.975
-10.604	22.868	1622.001	1290.053
-9.590	22.704	1621.624	1288.504
-8.575	22.845	1619.513	1287.803
-7.560	22.781	1618.731	1286.660
-6.546	22.752	1617.797	1285.661
-5.531	22.798	1616.630	1285.016
-4.517	22.654	1615.978	1283.394
-3.502	22.800	1614.243	1283.033
-2.487	22.768	1612.787	1281.588
-1.473	22.450	1600.635	1269.592
-0.458	19.666	1581.099	1234.190
0.556	14.704	1584.276	1205.395
1.571	12.616	1608.857	1208.665
2.586	12.514	1620.722	1216.715
3.600	11.661	1565.739	1169.235
4.615	6.332	1459.210	1053.985
5.629	1.123	1400.995	978.298
6.644	0.142	1394.326	967.251
7.659	0.169	1393.051	966.452
8.673	0.161	1391.883	965.510
9.688	0.158	1389.441	963.710
10.702	-0.026	1385.996	960.058
11.717	2.657	1389.802	979.772
12.731	9.437	1400.730	1030.950
13.746	15.275	1408.406	1074.008
14.761	16.715	1410.484	1084.726
15.775	16.178	1408.030	1079.312
16.790	15.073	1406.244	1070.782
17.804	14.384	1404.033	1064.602
18.819	13.937	1402.396	1060.415
19.834	13.806	1401.202	1058.584
20.848	13.545	1399.860	1055.811
21.863	13.311	1398.254	1053.020
22.877	13.186	1397.070	1051.236
23.892	13.174	1395.886	1050.173
24.907	13.161	1394.951	1049.295
25.921	13.132	1394.514	1048.690
26.936	13.123	1393.951	1048.116
27.950	13.098	1393.339	1047.403
28.965	13.256	1391.556	1046.975
29.980	13.195	1390.942	1046.031
30.994	13.303	1389.911	1045.849
32.009	13.356	1388.775	1045.234
33.023	13.277	1387.841	1043.944
34.038	13.371	1386.419	1043.373
35.053	13.283	1385.256	1041.851
36.067	13.305	1384.504	1041.330
37.082	13.292	1383.032	1040.048
38.096	13.356	1382.302	1039.811
39.111	13.347	1381.433	1039.011
40.126	13.281	1380.575	1037.856
41.140	13.186	1379.622	1036.455
42.155	13.134	1379.629	1036.044
43.169	13.113	1379.248	1035.534
44.184	13.084	1379.006	1035.076
45.199	13.117	1378.623	1034.907
46.213	13.184	1377.685	1034.529
47.228	13.182	1377.228	1034.082
48.242	13.236	1375.138	1032.759
49.257	13.161	1374.076	1031.399
50.271	13.230	1372.121	1030.269
51.286	13.261	1370.887	1029.447
52.301	13.236	1370.017	1028.548
53.315	13.043	1369.065	1026.544
54.330	13.154	1367.803	1026.194
55.344	13.071	1366.607	1024.694
56.359	13.168	1365.474	1024.350
57.374	13.080	1364.956	1023.325
58.388	13.056	1363.802	1022.224
59.403	13.004	1363.254	1021.401
60.417	12.986	1362.653	1020.749
61.432	13.041	1361.549	1020.173
62.447	12.984	1360.298	1018.789
63.461	13.026	1358.990	1017.981
64.476	13.083	1358.222	1017.665
65.490	13.026	1356.655	1016.053
66.505	13.090	1355.181	1015.249
67.520	13.092	1354.231	1014.462
68.534	13.077	1353.291	1013.574
69.549	13.117	1351.510	1012.399
70.563	13.115	1350.628	1011.634
71.578	12.998	1349.880	1010.267
72.593	12.937	1348.923	1009.092
73.607	12.921	1348.066	1008.262
74.622	12.969	1347.559	1008.088
75.636	12.885	1347.009	1007.074
76.651	12.908	1345.854	1006.259
77.666	12.974	1345.361	1006.207
78.680	12.945	1344.726	1005.464
79.695	12.950	1343.773	1004.691
80.709	13.164	1342.484	1004.943
81.724	13.027	1342.382	1003.943
82.739	13.113	1341.093	1003.417
83.753	13.085	1340.315	1002.577
84.768	13.123	1339.134	1001.830
85.782	13.291	1337.754	1001.727
86.797	13.186	1335.887	999.608
87.812	13.151	1334.905	998.571
88.826	13.140	1333.909	997.670
89.841	13.299	1332.316	997.349
90.855	13.172	1331.882	996.171
91.870	13.297	1330.752	995.995
92.884	13.409	1329.586	995.708
93.899	13.299	1329.350	994.782
94.914	13.250	1328.180	993.524
95.928	13.355	1327.212	993.342
96.943	13.330	1326.569	992.619
97.957	13.303	1325.455	991.538
98.972	13.218	1324.467	990.204
99.987	13.326	1323.454	990.003
101.001	13.324	1322.280	989.022
102.016	13.226	1321.954	988.109
103.030	13.324	1320.364	987.415
104.045	13.283	1319.639	986.544
105.060	13.221	1318.428	985.181
106.074	13.212	1316.963	983.947
107.089	13.047	1316.075	982.210
108.103	13.013	1314.665	980.871
109.118	13.076	1313.249	980.101
110.133	13.058	1311.961	978.946
111.147	13.135	1310.490	978.220
112.162	13.131	1309.123	977.089
113.176	13.155	1307.989	976.300
114.191	13.184	1306.803	975.499
115.206	13.131	1306.569	974.924
116.220	13.237	1304.962	974.264
117.235	13.202	1303.562	972.928
118.249	13.257	1302.643	972.480
119.264	13.254	1301.406	971.450
120.279	13.132	1300.668	970.097
121.293	13.186	1299.813	969.694
122.308	13.161	1298.558	968.522
123.322	13.152	1297.332	967.467
124.337	13.162	1296.512	966.828
125.352	13.157	1295.212	965.744
126.366	13.117	1293.909	964.455
127.381	13.136	1292.851	963.696
128.395	13.144	1291.803	962.871
129.410	13.220	1290.882	962.542
130.424	13.156	1290.240	961.609
131.439	13.230	1288.784	960.866
132.454	13.171	1288.052	959.894
133.468	13.194	1287.414	959.468
134.483	13.193	1286.434	958.644
135.497	13.232	1285.103	957.796
136.512	13.167	1284.105	956.590
137.527	13.301	1282.236	955.887
138.541	13.106	1281.276	953.960
139.556	13.285	1280.079	954.017
140.570	13.261	1278.893	952.914
141.585	13.282	1277.822	952.151
142.600	13.308	1276.688	951.372
143.614	13.440	1275.333	951.036
144.629	13.422	1274.357	950.121
145.643	13.492	1273.073	949.479
146.658	13.347	1272.048	947.803
147.673	13.259	1270.534	946.087
148.687	13.283	1269.407	945.303
149.702	13.251	1268.174	944.115
150.716	13.229	1267.070	943.084
151.731	13.291	1265.922	942.500
152.746	13.370	1264.564	941.858
153.760	13.446	1262.955	941.009
154.775	13.439	1261.756	939.988
155.789	13.386	1260.915	938.982
156.804	13.429	1259.803	938.311
157.819	13.522	1259.054	938.200
158.833	13.400	1257.997	936.636
159.848	13.574	1256.880	936.707
160.862	13.414	1256.038	935.092
161.877	13.596	1254.454	934.858
162.892	13.445	1253.941	933.541
163.906	13.572	1252.693	933.246
164.921	13.390	1252.452	931.958
165.935	13.502	1250.939	931.378
166.950	13.516	1250.392	930.968
167.964	13.499	1249.945	930.455
168.979	13.610	1248.861	930.192
169.994	13.539	1248.328	929.314
171.008	13.484	1247.585	928.368
172.023	13.591	1246.561	928.125
173.037	13.702	1245.715	928.032
174.052	13.696	1244.772	927.214
175.067	13.578	1243.745	925.710
176.081	13.507	1243.017	924.690
177.096	13.508	1241.864	923.755
178.110	13.618	1240.447	923.232
179.125	13.599	1239.185	922.107
180.140	13.682	1238.242	921.784
181.154	13.632	1236.810	920.357
182.169	13.680	1235.646	919.677
183.183	13.738	1234.896	919.360
184.198	13.820	1233.501	918.693
185.213	13.745	1232.351	917.339
186.227	13.793	1231.393	916.813
187.242	13.735	1230.484	915.735
188.256	13.793	1229.656	915.354
189.271	13.865	1228.037	914.467
190.286	13.814	1226.831	913.206
191.300	13.645	1226.519	911.965
192.315	13.685	1225.487	911.334
193.329	13.683	1225.012	910.894
194.344	13.684	1224.206	910.215
195.359	13.711	1223.884	910.044
196.373	13.715	1223.874	909.980
197.388	13.797	1223.035	909.726
198.402	13.882	1222.339	909.590
199.417	13.949	1221.362	909.154
200.432	14.043	1220.534	908.968
201.446	14.014	1220.210	908.487
202.461	13.991	1218.973	907.361
203.475	14.087	1217.645	906.816
204.490	14.000	1216.638	905.513
205.504	14.025	1215.469	904.696
206.519	13.976	1214.501	903.630
207.534	13.960	1212.942	902.304
208.548	13.976	1212.146	901.717
209.563	14.118	1211.097	901.627
210.577	14.114	1210.432	901.034
211.592	14.127	1209.733	900.503
212.607	14.175	1208.569	899.815
213.621	14.020	1208.106	898.553
214.636	14.155	1206.909	898.311
215.650	14.147	1206.192	897.656
216.665	14.199	1205.276	897.177
217.680	14.205	1204.524	896.571
218.694	14.271	1203.680	896.218
219.709	14.279	1202.747	895.487
220.723	14.250	1201.922	894.637
221.738	14.118	1201.709	893.691
222.753	14.333	1200.161	893.611
223.767	14.342	1199.703	893.240
224.782	14.300	1199.311	892.643
225.796	14.423	1199.004	892.998
226.811	14.483	1197.768	892.319
227.826	14.423	1197.179	891.477
228.840	14.329	1196.289	890.233
229.855	14.388	1195.678	890.016
230.869	14.228	1195.044	888.612
231.884	14.448	1193.502	888.562
232.899	14.374	1192.578	887.399
233.913	14.302	1192.517	886.890
234.928	14.344	1191.557	886.322
235.942	14.370	1190.188	885.367
236.957	14.308	1190.097	884.890
237.972	14.279	1189.830	884.457
238.986	14.414	1188.491	884.101
240.001	14.413	1187.720	883.442
241.015	14.326	1186.960	882.340
242.030	14.421	1186.160	882.171
243.045	14.508	1185.068	881.738
244.059	14.513	1184.716	881.425
245.074	14.572	1183.514	880.763
246.088	14.577	1183.084	880.391
247.103	14.483	1182.243	879.194
248.117	14.620	1181.430	879.233
249.132	14.643	1180.688	878.725
250.147	14.765	1179.549	878.439
251.161	14.791	1179.064	878.138
252.176	14.787	1178.453	877.587
253.190	14.834	1177.846	877.304
254.205	14.766	1177.340	876.492
255.220	14.933	1176.680	876.797
256.234	14.830	1176.106	875.752
257.249	14.893	1175.362	875.451
258.263	14.802	1174.896	874.550
259.278	14.968	1173.977	874.658
260.293	14.928	1173.372	873.917
261.307	14.872	1173.215	873.431
262.322	14.994	1172.220	873.250
263.336	15.088	1171.293	872.975
264.351	15.036	1170.971	872.387
265.366	15.081	1170.133	871.919
266.380	15.037	1169.649	871.251
267.395	15.032	1168.596	870.361
268.409	14.977	1168.381	869.842
269.424	14.933	1167.426	868.822
270.439	14.976	1166.881	868.566
271.453	15.008	1166.241	868.179
272.468	15.044	1165.106	867.443
273.482	15.036	1164.560	866.919
274.497	15.008	1164.019	866.294
275.512	15.175	1163.084	866.382
276.526	15.110	1162.343	865.417
277.541	15.045	1161.840	864.631
278.555	15.173	1160.638	864.323
279.570	15.246	1159.949	864.107
280.585	15.222	1159.192	863.345
281.599	15.203	1158.413	862.592
282.614	15.219	1157.512	861.926
283.628	15.161	1156.400	860.721
284.643	15.232	1155.438	860.298
285.657	15.275	1154.715	859.902
286.672	15.321	1153.283	858.995
287.687	15.349	1152.565	858.529
288.701	15.325	1151.797	857.758
289.716	15.167	1151.425	856.594
290.730	15.353	1150.367	856.682
291.745	15.420	1149.540	856.332
292.760	15.295	1149.393	855.508
293.774	15.355	1148.860	855.345
294.789	15.426	1148.084	855.051
295.803	15.443	1147.095	854.329
296.818	15.449	1146.590	853.905
297.833	15.527	1145.627	853.507
298.847	15.436	1144.617	852.221
299.862	15.560	1144.156	852.428
300.876	15.531	1143.399	851.643
301.891	15.585	1142.555	851.213
302.906	15.673	1141.679	850.932
303.920	15.602	1141.323	850.232
304.935	15.619	1140.819	849.864
305.949	15.700	1140.240	849.770
306.964	15.677	1139.134	848.753
307.979	15.669	1138.583	848.224
308.993	15.616	1138.104	847.528
310.008	15.607	1137.563	847.002
311.022	15.748	1135.900	846.403
312.037	15.685	1135.191	845.482
313.052	15.704	1134.531	845.008
314.066	15.805	1133.294	844.523
315.081	15.693	1132.279	843.126
316.095	15.727	1131.692	842.788
317.110	15.747	1131.289	842.514
318.125	15.648	1130.417	841.293
319.139	15.705	1130.025	841.214
320.154	15.581	1129.361	840.024
321.168	15.734	1128.564	840.122
322.183	15.580	1128.095	838.926
323.197	15.685	1127.788	839.149
324.212	15.796	1126.641	838.774
325.227	15.780	1126.008	838.152
326.241	15.860	1125.001	837.724
327.256	15.782	1124.620	836.980
328.270	15.742	1123.996	836.241
329.285	15.938	1122.553	836.068
330.300	15.989	1121.480	835.447
331.314	15.943	1120.614	834.500
332.329	15.838	1120.054	833.488
333.343	15.845	1118.687	832.434
334.358	15.833	1118.234	831.962
335.373	15.823	1117.913	831.599
336.387	15.842	1116.908	830.873
337.402	15.987	1115.669	830.591
338.416	15.971	1115.356	830.206
339.431	15.997	1114.855	829.890
340.446	16.088	1113.706	829.406
341.460	16.023	1113.095	828.559
342.475	16.177	1112.175	828.559
343.489	16.183	1111.286	827.852
344.504	16.189	1110.373	827.126
345.519	16.158	1109.430	826.199
346.533	16.156	1109.007	825.801
347.548	16.282	1107.890	825.516
348.562	16.262	1107.266	824.881
349.577	16.201	1106.883	824.221
350.592	16.165	1105.997	823.314
351.606	16.249	1104.676	822.668
352.621	16.264	1104.190	822.304
353.635	16.172	1103.886	821.557
354.650	16.393	1102.976	821.883
355.665	16.245	1102.166	820.487
356.679	16.295	1102.018	820.548
357.694	16.426	1101.109	820.433
358.708	16.373	1100.511	819.661
359.723	16.304	1100.178	819.004
360.738	16.359	1099.148	818.433
361.752	16.371	1098.463	817.906
362.767	16.319	1098.345	817.494
363.781	16.319	1097.907	817.096
364.796	16.465	1096.688	816.822
365.810	16.471	1096.101	816.344
366.825	16.461	1095.606	815.853
367.840	16.581	1094.621	815.627
368.854	16.659	1094.037	815.494
369.869	16.685	1093.371	815.051
370.883	16.656	1092.351	814.081
371.898	16.513	1092.273	813.260
372.913	16.563	1091.421	812.796
373.927	16.494	1091.043	812.112
374.942	16.678	1090.255	812.337
375.956	16.637	1089.995	811.872
376.971	16.672	1089.295	811.446
377.986	16.637	1088.902	810.913
379.000	16.691	1088.607	810.881
380.015	16.750	1087.944	810.599
381.029	16.734	1087.007	809.751
382.044	16.770	1086.462	809.447
383.059	16.738	1086.003	808.882
384.073	16.807	1084.530	808.039
385.088	16.870	1083.508	807.507
386.102	16.798	1082.625	806.438
387.117	16.852	1081.725	805.953
388.132	16.808	1080.907	805.061
389.146	16.759	1080.099	804.155
390.161	16.800	1079.713	803.993
391.175	16.769	1078.782	803.080
392.190	16.887	1077.525	802.630
393.205	17.012	1077.159	802.880
394.219	16.846	1077.056	801.944
395.234	16.941	1075.568	801.215
396.248	16.943	1074.679	800.493
397.263	16.926	1073.381	799.374
398.278	16.951	1072.805	798.992
399.292	16.841	1072.193	797.952
400.307	16.956	1071.800	798.125
401.321	16.895	1071.056	797.214
402.336	16.976	1070.287	796.952
403.350	16.980	1069.534	796.342
404.365	17.049	1068.843	796.082
405.380	17.021	1068.652	795.735
406.394	17.060	1067.569	795.041
407.409	17.035	1067.020	794.444
408.423	17.224	1065.601	794.201
409.438	17.194	1065.466	793.891
410.453	17.187	1064.616	793.154
411.467	17.262	1064.132	793.073
412.482	17.180	1063.408	792.084
413.496	17.300	1062.498	791.893
414.511	17.294	1062.000	791.423
415.526	17.300	1061.663	791.129
416.540	17.270	1061.491	790.795
417.555	17.460	1060.635	790.967
418.569	17.330	1060.151	789.931
419.584	17.371	1059.606	789.650
420.599	17.365	1059.132	789.195
421.613	107.966	1331.446	1488.902
422.628	99.613	1371.049	1488.972
