DTS Sentinel unit serial number:	SN413079Multiplexer serial number:	ORYXHardware model number:	OX4-SRSoftware version number:	ORYX F/W v4.00 Oryx Data Collector v3.7.2.0data status	okinstallation	princeton_trtdifferential loss correction	single-endedforward channel	channel 2reverse channel	N/Adate	2019/09/11time	10:21:11forward acquisition time	60.00reverse acquisition time	0.00gamma	496.2192k internal	0.2312k external	0.2312temperature offset calibration	0.9966default loss term (dB/km)	0.3790temperature slope calibration	1.0000multiplexer offset coefficient	1.0000multiplexer slope coefficient	1.0000fibre end	0.00T internal ref (°C)	36.12T ext. ref 1 (°C)	0.16T ext. ref 2 (°C)	32.86length (m)	temperature (°C)	Stokes	anti-Stokes-747.200	-200.000	0.006	0.109
-746.185	18.750	0.103	-0.084
-745.171	-160.442	0.487	0.027
-744.156	-200.000	-0.013	-0.263
-743.142	800.000	0.047	0.151
-742.127	588.028	-0.035	0.087
-741.112	-200.000	-0.017	-0.120
-740.098	190.706	0.193	0.294
-739.083	5.204	0.315	0.235
-738.069	-30.710	-0.137	0.079
-737.054	78.910	-0.227	-0.246
-736.039	-98.420	-0.141	0.037
-735.025	8.621	-0.128	0.098
-734.010	-194.568	-0.417	0.003
-732.996	-58.720	-0.379	0.166
-731.981	62.818	0.137	-0.139
-730.966	-200.000	0.054	0.270
-729.952	217.744	0.190	0.308
-728.937	-162.215	-0.182	-0.009
-727.923	122.229	0.051	0.064
-726.908	71.776	-0.188	0.198
-725.894	281.653	-0.129	-0.234
-724.879	-138.380	0.020	0.002
-723.864	-137.155	0.334	0.039
-722.850	-33.202	-0.014	-0.008
-721.835	-200.000	-0.013	-0.113
-720.821	98.726	-0.126	-0.147
-719.806	-132.939	-0.166	-0.021
-718.791	49.987	-0.129	-0.123
-717.777	94.773	-0.146	0.168
-716.762	67.065	-0.082	-0.084
-715.748	57.163	-0.079	-0.078
-714.733	162.542	0.123	-0.176
-713.718	-200.000	-0.035	-0.380
-712.704	-55.053	0.171	-0.078
-711.689	-200.000	-0.013	-0.198
-710.675	-23.056	0.044	0.027
-709.660	18.925	0.111	-0.090
-708.645	-126.628	0.203	0.031
-707.631	-19.004	-0.129	0.081
-706.616	169.535	-0.138	0.199
-705.602	-200.000	0.023	0.370
-704.587	360.126	0.075	-0.152
-703.572	-200.000	-0.038	-0.322
-702.558	-57.436	-0.160	0.071
-701.543	-131.891	0.106	0.014
-700.529	209.973	-0.132	0.210
-699.514	-200.000	0.008	0.142
-698.499	-200.000	0.234	0.001
-697.485	-200.000	0.050	0.400
-696.470	800.000	0.096	0.312
-695.456	-2.493	-0.092	0.066
-694.441	-200.000	-0.003	-0.251
-693.426	480.892	-0.079	-0.182
-692.412	78.582	-0.141	-0.152
-691.397	800.000	0.018	-0.059
-690.383	-200.000	-0.009	-0.083
-689.368	211.833	0.188	-0.300
-688.354	-90.836	0.235	0.069
-687.339	-200.000	-0.021	-0.283
-686.324	172.721	0.135	0.197
-685.310	130.203	-0.047	-0.061
-684.295	-39.330	0.316	-0.168
-683.281	396.237	0.145	0.306
-682.266	-82.131	-0.218	0.072
-681.251	620.870	-0.099	-0.253
-680.237	254.280	-0.113	0.195
-679.222	-4.634	0.062	0.043
-678.208	-146.547	-0.347	0.031
-677.193	144.133	0.135	-0.182
-676.178	437.538	-0.133	-0.294
-675.164	-112.903	-0.172	-0.034
-674.149	-200.000	0.003	0.339
-673.135	137.939	-0.255	0.338
-672.120	-200.000	-0.019	0.098
-671.105	-200.000	-0.013	0.093
-670.091	-200.000	0.003	-0.113
-669.076	-156.150	0.234	-0.015
-668.062	592.181	-0.139	0.349
-667.047	-200.000	-0.009	0.295
-666.032	-200.000	0.053	0.242
-665.018	32.765	0.036	0.031
-664.003	-18.555	-0.147	-0.093
-662.989	218.943	-0.141	-0.228
-661.974	-32.442	-0.235	-0.133
-660.959	-200.000	0.038	0.409
-659.945	800.000	0.114	-0.420
-658.930	63.013	-0.232	-0.235
-657.916	-200.000	-0.043	-0.242
-656.901	-133.707	0.138	0.017
-655.886	-200.000	0.022	-0.249
-654.872	-200.000	-0.018	-0.400
-653.857	22.610	-0.203	0.168
-652.843	-104.040	0.095	-0.022
-651.828	-200.000	0.100	-0.636
-650.814	113.022	-0.245	-0.301
-649.799	-200.000	0.058	0.262
-648.784	79.858	0.137	-0.149
-647.770	45.596	-0.209	0.196
-646.755	-39.565	-0.078	0.041
-645.741	196.859	0.141	-0.217
-644.726	800.000	-0.030	-0.106
-643.711	-200.000	0.016	0.193
-642.697	-82.249	0.161	-0.053
-641.682	196.681	-0.056	-0.086
-640.668	11.157	-0.063	-0.049
-639.653	-200.000	-0.076	-0.397
-638.638	-89.532	-0.243	-0.072
-637.624	-100.283	0.306	-0.077
-636.609	-81.685	0.072	-0.024
-635.595	23.405	-0.164	-0.136
-634.580	-200.000	-0.012	0.158
-633.565	-110.596	0.470	0.098
-632.551	12.141	-0.182	-0.142
-631.536	-96.356	0.151	-0.040
-630.522	-200.000	-0.008	-0.208
-629.507	-107.765	-0.320	-0.071
-628.492	-92.703	-0.263	0.074
-627.478	130.064	0.044	0.057
-626.463	266.998	-0.059	0.104
-625.449	-200.000	-0.045	-0.300
-624.434	81.665	0.164	-0.179
-623.419	-200.000	0.009	0.197
-622.405	-200.000	0.005	-0.189
-621.390	384.185	-0.164	0.341
-620.376	-200.000	0.009	0.383
-619.361	-30.372	-0.263	0.151
-618.346	145.396	0.246	-0.332
-617.332	607.239	0.094	-0.237
-616.317	-200.000	-0.039	-0.247
-615.303	-200.000	-0.023	0.234
-614.288	-200.000	0.017	0.346
-613.273	59.373	0.195	-0.194
-612.259	800.000	0.104	0.344
-611.244	235.012	0.078	0.130
-610.230	105.368	-0.358	-0.427
-609.215	-16.478	-0.377	0.241
-608.201	-106.370	0.159	0.036
-607.186	-200.000	-0.010	-0.124
-606.171	-200.000	-0.019	-0.372
-605.157	36.606	-0.258	0.230
-604.142	-63.208	-0.268	-0.112
-603.128	-170.299	-0.039	-0.001
-602.113	-94.601	-0.157	0.043
-601.098	72.837	0.053	-0.056
-600.084	107.919	-0.107	0.129
-599.069	215.075	0.112	-0.179
-598.055	432.559	-0.052	0.113
-597.040	800.000	-0.017	-0.059
-596.025	243.543	-0.053	0.089
-595.011	-200.000	0.003	-0.075
-593.996	-71.753	0.251	0.095
-592.982	-200.000	-0.017	0.297
-591.967	-129.190	-0.187	-0.026
-590.952	1.233	0.208	0.151
-589.938	-89.592	-0.114	0.034
-588.923	-40.419	-0.201	-0.106
-587.909	-46.530	0.108	0.053
-586.894	-200.000	-0.011	0.117
-585.879	-78.487	-0.137	0.047
-584.865	665.219	0.038	0.099
-583.850	281.977	-0.124	0.223
-582.836	-200.000	-0.007	0.290
-581.821	177.961	-0.173	0.254
-580.806	-200.000	-0.044	0.343
-579.792	-76.749	-0.186	0.066
-578.777	571.460	-0.118	-0.291
-577.763	-200.000	0.003	0.045
-576.748	-200.000	0.009	0.159
-575.733	316.463	0.097	0.185
-574.719	-39.960	-0.315	0.166
-573.704	-13.793	-0.185	0.121
-572.690	-42.729	0.201	0.103
-571.675	-200.000	-0.007	-0.095
-570.661	-116.021	-0.247	-0.046
-569.646	46.880	0.106	-0.100
-568.631	-135.987	-0.087	-0.010
-567.617	139.425	-0.040	0.053
-566.602	-159.231	-0.230	0.013
-565.588	-27.268	-0.304	-0.178
-564.573	-49.532	-0.125	-0.060
-563.558	-200.000	0.006	-0.087
-562.544	42.141	-0.035	0.032
-561.529	-99.300	-0.167	-0.042
-560.515	-200.000	0.015	-0.483
-559.500	-200.000	0.002	0.072
-558.485	41.939	-0.021	0.019
-557.471	-200.000	-0.101	-0.461
-556.456	194.628	0.096	-0.146
-555.442	17.178	0.362	-0.289
-554.427	-172.493	0.287	0.009
-553.412	257.537	-0.139	0.242
-552.398	-26.430	-0.216	0.127
-551.383	-87.249	0.447	-0.137
-550.369	-200.000	0.044	0.233
-549.354	-24.422	0.244	0.146
-548.339	-83.320	0.260	-0.084
-547.325	-200.000	-0.014	-0.176
-546.310	-103.665	0.463	-0.109
-545.296	67.809	-0.242	-0.249
-544.281	7.175	-0.206	-0.155
-543.266	-179.179	-0.115	-0.003
-542.252	-78.967	-0.142	-0.049
-541.237	-59.829	-0.501	-0.216
-540.223	-50.142	-0.269	-0.128
-539.208	-200.000	-0.016	0.290
-538.193	310.478	-0.095	-0.179
-537.179	-180.242	0.340	-0.007
-536.164	-200.000	0.026	0.232
-535.150	14.458	0.121	0.095
-534.135	800.000	-0.060	-0.184
-533.121	276.933	0.082	0.146
-532.106	115.718	0.198	0.243
-531.091	800.000	0.097	0.315
-530.077	-52.782	-0.170	-0.079
-529.062	178.952	-0.129	0.190
-528.048	-96.485	-0.319	-0.085
-527.033	171.453	0.169	0.244
-526.018	-57.256	0.330	-0.146
-525.004	176.895	-0.073	0.107
-523.989	157.084	0.035	0.049
-522.975	32.259	0.241	0.209
-521.960	576.487	-0.150	0.369
-520.945	-48.086	-0.214	0.104
-519.931	99.671	0.194	0.226
-518.916	-111.315	-0.443	0.091
-517.902	125.634	-0.115	-0.146
-516.887	-44.745	-0.057	-0.028
-515.872	-159.696	-0.258	0.014
-514.858	-200.000	-0.019	-0.093
-513.843	-7.105	0.169	0.116
-512.829	408.153	-0.010	0.022
-511.814	269.576	0.162	-0.287
-510.799	-77.774	-0.081	0.028
-509.785	-87.669	-0.359	-0.109
-508.770	800.000	-0.065	0.253
-507.756	800.000	0.073	-0.205
-506.741	241.136	-0.099	0.166
-505.726	52.277	0.115	-0.110
-504.712	-200.000	-0.017	0.087
-503.697	287.331	-0.136	-0.248
-502.683	227.453	0.093	0.151
-501.668	-42.262	-0.233	0.120
-500.653	178.035	0.117	0.172
-499.639	-200.000	-0.020	0.166
-498.624	-30.980	0.199	0.113
-497.610	185.327	0.044	-0.065
-496.595	-200.000	0.005	-0.095
-495.581	24.947	0.043	-0.036
-494.566	-44.170	0.107	-0.054
-493.551	405.350	0.082	-0.175
-492.537	70.810	-0.100	0.104
-491.522	-72.796	-0.065	0.024
-490.508	-64.615	-0.090	-0.037
-489.493	144.923	-0.163	-0.220
-488.478	-87.858	0.283	0.086
-487.464	28.535	0.189	0.161
-486.449	800.000	-0.031	-0.099
-485.435	168.462	0.020	-0.029
-484.420	519.668	0.060	0.140
-483.405	37.952	-0.121	0.108
-482.391	358.905	-0.039	0.078
-481.376	-34.779	-0.154	-0.084
-480.362	324.087	0.021	0.041
-479.347	-143.699	-0.326	-0.031
-478.332	-167.762	0.189	0.008
-477.318	442.697	0.099	-0.217
-476.303	-200.000	-0.002	0.297
-475.289	-93.128	0.172	-0.048
-474.274	83.300	-0.174	-0.191
-473.259	-200.000	-0.054	-0.274
-472.245	-141.323	-0.366	-0.037
-471.230	767.268	0.091	-0.250
-470.216	284.821	0.123	0.223
-469.201	358.809	-0.067	0.135
-468.186	-117.146	0.237	-0.043
-467.172	-26.333	-0.021	-0.012
-466.157	-200.000	0.016	-0.161
-465.143	-59.268	-0.280	0.121
-464.128	-140.267	0.050	0.005
-463.113	138.074	0.052	-0.069
-462.099	-200.000	0.032	0.249
-461.084	-23.766	0.161	-0.097
-460.070	217.707	-0.153	0.244
-459.055	800.000	-0.049	0.172
-458.040	800.000	0.071	-0.244
-457.026	-200.000	0.130	0.000
-456.011	-200.000	0.028	-0.370
-454.997	800.000	-0.125	0.439
-453.982	76.353	0.157	-0.167
-452.968	-70.926	0.250	-0.095
-451.953	-150.482	-0.307	-0.024
-450.938	-200.000	-0.028	0.134
-449.924	203.069	-0.132	-0.204
-448.909	-173.876	0.209	0.006
-447.895	119.371	0.088	-0.109
-446.880	320.274	-0.126	-0.240
-445.865	-179.617	-0.222	0.005
-444.851	97.941	-0.112	0.130
-443.836	-200.000	-0.001	0.221
-442.822	39.397	0.192	-0.173
-441.807	-200.000	0.101	0.509
-440.792	-93.941	-0.348	-0.096
-439.778	26.824	0.032	-0.027
-438.763	34.288	-0.057	0.050
-437.749	160.968	0.158	0.221
-436.734	-132.951	-0.326	-0.042
-435.719	134.905	-0.013	-0.017
-434.705	-200.000	0.007	0.039
-433.690	-72.004	0.227	-0.084
-432.676	-62.733	0.218	-0.091
-431.661	-200.000	-0.024	-0.230
-430.646	-23.491	0.187	-0.113
-429.632	-200.000	-0.051	-0.383
-428.617	402.954	-0.021	-0.044
-427.603	-35.402	-0.215	0.117
-426.588	-97.332	-0.179	-0.047
-425.573	-125.049	0.073	-0.011
-424.559	-110.093	-0.080	-0.017
-423.544	359.277	0.205	0.411
-422.530	-200.000	0.027	0.245
-421.515	-113.954	0.132	-0.026
-420.500	-57.974	0.201	0.088
-419.486	-200.000	-0.001	0.129
-418.471	800.000	-0.060	-0.233
-417.457	246.940	-0.261	-0.442
-416.442	75.229	0.044	0.046
-415.428	-107.921	-0.147	-0.032
-414.413	180.833	0.082	0.121
-413.398	-167.818	-0.367	0.014
-412.384	22.339	-0.469	0.384
-411.369	-6.697	-0.058	-0.039
-410.355	247.076	0.157	0.266
-409.340	-162.857	-0.384	-0.019
-408.325	-160.135	0.283	0.015
-407.311	171.066	0.015	0.021
-406.296	560.701	0.082	-0.198
-405.282	164.018	0.149	-0.210
-404.267	-200.000	-0.002	-0.123
-403.252	60.460	0.162	-0.160
-402.238	-172.077	0.214	0.007
-401.223	-133.101	-0.170	0.022
-400.209	-200.000	-0.005	-0.042
-399.194	-25.409	-0.292	-0.173
-398.179	-135.044	-0.199	-0.024
-397.165	173.938	0.062	0.089
-396.150	-37.828	0.184	0.098
-395.136	145.417	-0.207	-0.278
-394.121	469.964	-0.082	-0.184
-393.106	264.146	0.114	-0.198
-392.092	-61.766	0.302	-0.127
-391.077	-27.143	-0.048	-0.028
-390.063	67.990	-0.122	0.125
-389.048	91.408	-0.176	-0.197
-388.033	392.941	0.114	-0.238
-387.019	-85.995	0.248	0.077
-386.004	152.363	-0.136	0.186
-384.990	-200.000	-0.056	-0.322
-383.975	-25.183	0.103	0.061
-382.960	-81.019	-0.101	-0.033
-381.946	-95.956	-0.142	-0.038
-380.931	-117.364	0.409	0.074
-379.917	-33.483	-0.264	-0.146
-378.902	333.612	-0.190	-0.368
-377.888	800.000	0.030	-0.121
-376.873	354.033	0.078	0.154
-375.858	290.447	-0.153	0.278
-374.844	31.776	0.118	-0.101
-373.829	273.980	0.098	0.174
-372.815	-200.000	0.021	-0.406
-371.800	-200.000	-0.000	0.007
-370.785	-146.359	0.179	0.016
-369.771	-200.000	0.017	-0.174
-368.756	51.325	0.180	0.171
-367.742	599.134	-0.032	0.080
-366.727	-84.083	-0.512	0.163
-365.712	-153.479	-0.402	0.028
-364.698	-71.119	-0.042	0.016
-363.683	-93.015	0.139	0.039
-362.669	-200.000	-0.050	-0.272
-361.654	-135.102	-0.071	0.009
-360.639	-51.550	-0.220	-0.102
-359.625	-200.000	0.024	-0.136
-358.610	76.325	-0.280	0.297
-357.596	-200.000	0.010	-0.407
-356.581	-200.000	0.001	0.015
-355.566	248.565	0.077	-0.131
-354.552	3.260	0.201	0.147
-353.537	-200.000	-0.038	0.263
-352.523	-200.000	0.006	-0.260
-351.508	221.870	0.058	-0.094
-350.493	-91.112	0.193	-0.055
-349.479	-104.488	-0.398	-0.092
-348.464	-63.988	0.159	-0.065
-347.450	595.430	-0.083	-0.206
-346.435	-25.615	0.119	-0.070
-345.420	-200.000	-0.106	-0.498
-344.406	584.583	0.117	-0.288
-343.391	70.194	0.230	-0.237
-342.377	800.000	-0.143	0.397
-341.362	800.000	0.077	-0.324
-340.348	-200.000	0.027	0.381
-339.333	429.912	0.074	-0.160
-338.318	-114.666	0.059	0.011
-337.304	-13.693	0.384	0.248
-336.289	-58.153	0.192	-0.084
-335.275	22.829	0.206	-0.168
-334.260	397.049	-0.109	-0.227
-333.245	-131.525	-0.332	-0.044
-332.231	285.445	0.090	0.163
-331.216	-93.029	-0.100	0.028
-330.202	-200.000	0.031	0.154
-329.187	800.000	-0.044	0.155
-328.172	68.617	0.134	0.137
-327.158	286.378	-0.080	0.144
-326.143	544.976	-0.012	0.028
-325.129	268.344	-0.211	-0.370
-324.114	221.522	0.095	0.152
-323.099	97.880	-0.180	0.207
-322.085	-84.198	0.449	0.142
-321.070	-64.250	-0.173	0.070
-320.056	-123.593	-0.228	0.036
-319.041	-57.454	0.237	0.104
-318.026	800.000	0.025	0.096
-317.012	-106.972	-0.090	-0.020
-315.997	216.176	0.094	-0.148
-314.983	-36.171	0.158	-0.085
-313.968	386.202	0.079	-0.163
-312.953	-68.704	0.087	-0.034
-311.939	-200.000	-0.003	-0.116
-310.924	70.623	0.111	-0.115
-309.910	-68.577	0.257	0.100
-308.895	151.174	-0.156	0.211
-307.880	-189.514	0.289	0.003
-306.866	573.546	-0.056	-0.135
-305.851	-163.533	0.109	0.005
-304.837	44.674	0.102	-0.094
-303.822	427.253	-0.068	-0.146
-302.807	-200.000	0.030	0.276
-301.793	-168.033	-0.322	0.013
-300.778	26.337	0.261	0.217
-299.764	117.406	0.109	-0.134
-298.749	93.618	-0.082	-0.092
-297.735	-98.211	0.400	-0.103
-296.720	-63.048	0.181	-0.074
-295.705	95.129	-0.343	0.389
-294.691	170.159	0.157	0.224
-293.676	-200.000	0.132	-0.646
-292.662	-91.856	0.285	-0.081
-291.647	61.668	-0.294	-0.292
-290.632	-173.524	0.207	0.006
-289.618	-91.988	-0.249	-0.070
-288.603	-200.000	-0.061	0.304
-287.589	111.108	0.075	-0.090
-286.574	-79.903	0.066	0.022
-285.559	-127.904	0.293	0.042
-284.545	691.331	0.093	0.243
-283.530	-148.978	-0.315	-0.025
-282.516	-146.505	-0.159	-0.014
-281.501	-89.902	-0.350	-0.102
-280.486	-56.087	0.210	-0.093
-279.472	-135.545	0.024	-0.003
-278.457	-74.621	0.410	-0.147
-277.443	658.260	0.031	-0.080
-276.428	-5.745	-0.216	-0.147
-275.413	194.649	-0.102	-0.154
-274.399	382.769	0.227	0.465
-273.384	196.700	-0.056	-0.085
-272.370	651.814	0.050	0.127
-271.355	203.820	-0.142	0.219
-270.340	-200.000	0.048	-0.213
-269.326	141.419	0.052	-0.069
-268.311	-38.608	0.166	-0.087
-267.297	-165.845	0.148	0.006
-266.282	-200.000	-0.029	0.229
-265.267	571.749	-0.025	0.062
-264.253	12.997	-0.190	0.147
-263.238	-40.467	-0.024	-0.012
-262.224	-42.486	-0.305	0.155
-261.209	180.278	-0.020	0.030
-260.195	-58.839	-0.244	0.105
-259.180	-200.000	0.006	0.143
-258.165	1.255	-0.237	0.169
-257.151	30.843	-0.398	0.339
-256.136	65.493	0.042	-0.042
-255.122	-118.676	-0.245	-0.043
-254.107	-200.000	0.034	0.265
-253.092	800.000	-0.105	0.318
-252.078	61.433	0.121	0.120
-251.063	-93.501	-0.155	-0.043
-250.049	-200.000	0.015	0.072
-249.034	-37.512	0.221	0.118
-248.019	-146.117	-0.210	-0.018
-247.005	188.661	0.102	0.152
-245.990	-19.301	0.106	0.066
-244.976	226.273	0.013	-0.022
-243.961	800.000	0.024	-0.092
-242.946	53.731	0.070	0.067
-241.932	800.000	0.012	0.033
-240.917	-106.181	0.228	-0.051
-239.903	670.390	0.047	0.120
-238.888	-200.000	0.036	-0.244
-237.873	59.540	-0.189	0.186
-236.859	67.892	-0.187	-0.191
-235.844	-47.518	-0.266	-0.129
-234.830	169.798	-0.067	0.096
-233.815	791.113	0.169	0.462
-232.800	240.989	0.092	0.152
-231.786	-76.850	0.114	-0.040
-230.771	34.376	-0.165	0.143
-229.757	-79.070	0.399	-0.135
-228.742	-200.000	0.017	-0.117
-227.727	800.000	-0.067	0.240
-226.713	-56.257	-0.434	0.192
-225.698	213.566	0.200	0.315
-224.684	-200.000	0.032	0.261
-223.669	5.034	-0.206	-0.151
-222.655	53.888	0.180	0.172
-221.640	30.959	0.102	0.087
-220.625	-200.000	-0.026	0.162
-219.611	800.000	0.079	-0.324
-218.596	-200.000	0.000	-0.178
-217.582	-200.000	-0.032	0.234
-216.567	192.193	0.168	0.252
-215.552	42.421	0.106	0.095
-214.538	41.345	0.306	0.275
-213.523	-200.000	0.009	0.121
-212.509	-111.706	0.129	0.026
-211.494	-32.500	0.073	-0.041
-210.479	-111.689	-0.072	0.014
-209.465	147.244	0.140	0.187
-208.450	-50.638	0.130	-0.061
-207.436	35.413	-0.085	0.074
-206.421	-200.000	-0.003	0.083
-205.406	-101.862	-0.183	0.044
-204.392	-125.962	0.306	0.046
-203.377	-149.627	-0.384	0.030
-202.363	126.941	0.040	-0.050
-201.348	-82.329	0.207	-0.067
-200.333	-8.519	-0.125	0.084
-199.319	162.349	0.057	0.079
-198.304	-114.262	0.226	0.043
-197.290	-14.409	0.474	0.303
-196.275	35.405	0.169	0.147
-195.260	-200.000	0.046	-0.258
-194.246	247.646	0.226	-0.379
-193.231	446.770	-0.026	-0.057
-192.217	340.711	-0.132	-0.256
-191.202	68.408	-0.147	0.150
-190.187	48.375	-0.110	-0.102
-189.173	2.008	-0.364	-0.261
-188.158	-35.442	0.338	-0.182
-187.144	800.000	0.011	-0.032
-186.129	-84.917	0.054	-0.017
-185.114	613.367	-0.065	-0.161
-184.100	629.722	0.086	0.216
-183.085	-139.706	-0.337	0.036
-182.071	-48.076	0.263	-0.126
-181.056	-91.586	0.181	-0.051
-180.042	81.661	0.055	-0.060
-179.027	146.722	0.103	-0.137
-178.012	-70.230	0.236	-0.089
-176.998	38.913	0.200	-0.178
-175.983	-5.633	-0.229	0.156
-174.969	-200.000	-0.002	-0.151
-173.954	-200.000	-0.024	0.141
-172.939	351.398	0.108	-0.213
-171.925	-24.714	0.233	0.137
-170.910	174.143	0.149	-0.213
-169.896	-89.013	-0.350	0.103
-168.881	-200.000	0.265	0.001
-167.866	-93.570	0.193	0.053
-166.852	273.099	0.223	-0.391
-165.837	-146.089	0.531	-0.047
-164.823	-200.000	0.023	-0.291
-163.808	-57.089	-0.166	0.073
-162.793	31.221	0.188	0.160
-161.779	-10.813	0.097	0.064
-160.764	-200.000	0.035	0.330
-159.750	-200.000	0.004	-0.101
-158.735	-160.985	-0.296	0.015
-157.720	16.752	0.201	-0.158
-156.706	58.476	-0.046	0.044
-155.691	387.784	0.197	-0.405
-154.677	274.211	0.120	-0.210
-153.662	-138.121	-0.254	-0.028
-152.647	-105.325	0.260	0.059
-151.633	-200.000	0.015	-0.157
-150.618	-200.000	0.011	0.124
-149.604	51.732	-0.224	0.211
-148.589	-65.024	0.137	0.055
-147.574	43.141	0.147	0.133
-146.560	-83.659	0.099	-0.031
-145.545	-74.733	0.121	0.043
-144.531	499.075	-0.036	-0.081
-143.516	3.991	-0.190	0.137
-142.502	-200.000	-0.029	-0.180
-141.487	-200.000	0.047	-0.316
-140.472	47.446	-0.290	-0.268
-139.458	228.208	0.060	0.097
-138.443	800.000	-0.118	-0.351
-137.429	800.000	0.066	-0.259
-136.414	-29.044	-0.119	-0.068
-135.399	-77.265	-0.280	-0.097
-134.385	-28.809	0.315	-0.180
-133.370	-69.601	-0.156	0.059
-132.356	-50.303	0.243	-0.114
-131.341	-200.000	-0.024	0.127
-130.326	-106.943	-0.264	0.058
-129.312	-122.291	-0.250	0.040
-128.297	-24.673	0.041	-0.024
-127.283	36.301	0.071	-0.062
-126.268	442.538	-0.273	-0.592
-125.253	-114.057	0.297	0.057
-124.239	-19.206	0.225	0.138
-123.224	663.077	0.175	0.447
-122.210	-200.000	-0.007	-0.104
-121.195	-1.407	0.350	-0.244
-120.180	34.486	-0.093	-0.080
-119.166	-200.000	-0.039	-0.205
-118.151	76.717	-0.197	-0.207
-117.137	-200.000	0.008	-0.135
-116.122	733.423	-0.088	-0.232
-115.107	800.000	-0.072	0.282
-114.093	-200.000	0.057	0.265
-113.078	243.344	-0.113	-0.187
-112.064	-21.608	-0.143	-0.086
-111.049	37.218	-0.064	0.056
-110.034	-184.671	0.026	0.000
-109.020	-200.000	-0.005	0.025
-108.005	800.000	-0.054	0.228
-106.991	-200.000	-0.108	0.521
-105.976	800.000	-0.046	0.161
-104.962	-79.655	0.237	0.079
-103.947	-128.520	0.371	-0.052
-102.932	-79.150	-0.139	0.047
-101.918	-55.717	0.152	-0.067
-100.903	-96.340	0.333	0.087
-99.889	-200.000	0.041	0.197
-98.874	-200.000	0.023	0.326
-97.859	79.042	-0.248	0.263
-96.845	-97.773	-0.021	-0.005
-95.830	-139.412	0.242	-0.026
-94.816	10.049	-0.231	-0.173
-93.801	-200.000	0.019	0.295
-92.786	438.098	0.067	0.145
-91.772	-200.000	-0.018	-0.147
-90.757	-111.933	-0.338	-0.067
-89.743	-200.000	0.039	0.195
-88.728	291.082	0.049	-0.089
-87.713	592.588	0.049	-0.120
-86.699	-61.330	0.447	-0.186
-85.684	800.000	0.029	-0.122
-84.670	-170.795	-0.378	0.013
-83.655	-3.654	0.325	-0.223
-82.640	417.208	-0.102	0.216
-81.626	22.701	0.230	0.186
-80.611	48.864	-0.187	-0.174
-79.597	609.713	-0.114	-0.282
-78.582	244.189	0.086	-0.144
-77.567	-200.000	-0.053	-0.256
-76.553	263.367	-0.232	0.399
-75.538	-200.000	0.024	0.240
-74.524	-96.638	-0.121	0.031
-73.509	28.157	0.095	0.080
-72.494	171.465	-0.171	-0.243
-71.480	-200.000	0.043	-0.250
-70.465	230.964	-0.083	-0.134
-69.451	-200.000	0.036	-0.211
-68.436	160.518	0.071	0.098
-67.422	-200.000	0.016	-0.270
-66.407	-200.000	0.013	-0.258
-65.392	142.590	0.203	0.266
-64.378	-200.000	-0.029	0.180
-63.363	142.680	0.141	-0.186
-62.349	-200.000	0.052	0.233
-61.334	129.966	-0.589	-0.744
-60.319	201.228	0.342	0.521
-59.305	-200.000	-0.163	-1.000
-58.290	448.597	0.462	1.005
-57.276	-200.000	0.404	1.817
-56.261	-200.000	88.090	498.809
-55.246	546.301	1370.825	3238.502
-54.232	184.733	2617.719	3833.532
-53.217	110.275	2350.149	2788.414
-52.203	45.044	1959.582	1783.139
-51.188	39.378	1743.100	1541.868
-50.173	36.545	1698.079	1480.330
-49.159	52.000	1741.250	1638.025
-48.144	55.363	1759.627	1681.304
-47.130	39.064	1719.504	1518.327
-46.115	36.155	1703.797	1482.081
-45.100	35.940	1699.248	1476.415
-44.086	36.023	1696.397	1474.517
-43.071	36.000	1693.467	1471.733
-42.057	35.948	1690.883	1469.038
-41.042	35.940	1689.348	1467.578
-40.027	35.982	1687.561	1466.293
-39.013	35.921	1685.359	1463.853
-37.998	35.940	1683.803	1462.590
-36.984	35.980	1682.479	1461.688
-35.969	36.098	1680.827	1461.084
-34.954	36.214	1679.349	1460.626
-33.940	36.180	1676.869	1458.148
-32.925	36.148	1675.369	1456.546
-31.911	36.076	1673.897	1454.665
-30.896	36.126	1672.119	1453.437
-29.881	36.133	1670.676	1452.177
-28.867	36.186	1668.732	1450.832
-27.852	36.094	1667.814	1449.287
-26.838	36.163	1665.654	1447.865
-25.823	36.205	1664.195	1446.860
-24.809	36.136	1663.012	1445.256
-23.794	36.156	1661.702	1444.206
-22.779	36.206	1659.932	1442.985
-21.765	36.133	1658.635	1441.258
-20.750	36.143	1656.651	1439.547
-19.736	36.101	1655.253	1437.968
-18.721	36.279	1653.294	1437.532
-17.706	36.235	1651.470	1435.560
-16.692	36.078	1650.379	1433.390
-15.677	36.130	1648.963	1432.492
-14.663	36.058	1648.281	1431.307
-13.648	36.190	1646.211	1430.429
-12.633	36.235	1644.529	1429.248
-11.619	36.111	1643.150	1427.074
-10.604	36.159	1641.707	1426.120
-9.590	36.236	1639.998	1425.146
-8.575	36.112	1638.672	1423.018
-7.560	36.083	1637.812	1422.002
-6.546	36.092	1636.393	1420.779
-5.531	36.173	1635.032	1420.139
-4.517	36.229	1633.666	1419.309
-3.502	36.100	1633.172	1417.877
-2.487	36.193	1631.526	1417.075
-1.473	36.150	1619.880	1406.589
-0.458	33.865	1600.893	1373.546
0.556	28.671	1601.216	1342.670
1.571	26.453	1626.525	1347.272
2.586	25.741	1640.987	1353.781
3.600	22.381	1585.364	1283.320
4.615	11.656	1466.454	1114.230
5.629	2.077	1395.237	997.660
6.644	0.314	1386.099	979.583
7.659	0.185	1384.943	977.840
8.673	0.064	1383.860	976.208
9.688	0.068	1381.969	974.809
10.702	-0.214	1379.048	970.842
11.717	3.372	1386.298	999.140
12.731	13.972	1407.316	1083.663
13.746	21.934	1420.828	1146.198
14.761	23.142	1422.058	1154.980
15.775	23.310	1421.556	1155.562
16.790	23.451	1421.260	1156.137
17.804	23.496	1420.583	1155.781
18.819	23.684	1420.333	1156.696
19.834	23.727	1419.580	1156.265
20.848	23.744	1419.150	1155.925
21.863	23.643	1418.577	1154.694
22.877	23.774	1416.318	1153.607
23.892	23.785	1416.207	1153.484
24.907	23.687	1415.729	1152.355
25.921	23.785	1414.030	1151.508
26.936	23.734	1413.433	1150.589
27.950	23.732	1411.997	1149.308
28.965	23.759	1411.003	1148.568
29.980	23.751	1409.091	1146.857
30.994	23.747	1408.161	1145.976
32.009	23.785	1406.916	1145.104
33.023	23.768	1406.059	1144.195
34.038	23.726	1404.913	1142.896
35.053	23.776	1403.987	1142.361
36.067	23.755	1402.930	1141.267
37.082	23.733	1402.156	1140.391
38.096	23.810	1400.601	1139.522
39.111	23.721	1400.167	1138.495
40.126	23.784	1399.281	1138.082
41.140	23.751	1398.675	1137.278
42.155	23.651	1399.099	1136.880
43.169	23.835	1398.837	1137.741
44.184	23.751	1398.280	1136.651
45.199	23.694	1398.060	1136.008
46.213	23.742	1397.194	1135.512
47.228	23.691	1396.564	1134.574
48.242	23.748	1395.298	1133.803
49.257	23.769	1393.711	1132.549
50.271	23.733	1392.019	1130.848
51.286	23.649	1391.127	1129.489
52.301	23.666	1389.383	1128.078
53.315	23.691	1388.539	1127.450
54.330	23.735	1387.818	1127.047
55.344	23.685	1386.404	1125.482
56.359	23.740	1385.708	1125.166
57.374	23.673	1385.096	1124.144
58.388	23.556	1384.799	1123.065
59.403	23.565	1384.534	1122.805
60.417	23.695	1382.964	1122.253
61.432	23.654	1382.757	1121.730
62.447	23.694	1381.621	1120.963
63.461	23.588	1380.561	1119.334
64.476	23.667	1379.508	1118.879
65.490	23.735	1378.408	1118.313
66.505	23.699	1377.031	1116.872
67.520	23.725	1375.617	1115.793
68.534	23.787	1374.271	1114.988
69.549	23.757	1373.209	1113.839
70.563	23.662	1372.858	1112.865
71.578	23.785	1371.573	1112.492
72.593	23.705	1371.007	1111.432
73.607	23.654	1370.310	1110.449
74.622	23.755	1369.245	1110.124
75.636	23.734	1368.575	1109.345
76.651	23.702	1368.411	1108.919
77.666	23.694	1367.740	1108.226
78.680	23.799	1366.635	1107.886
79.695	23.710	1365.637	1106.427
80.709	23.731	1364.938	1105.888
81.724	23.675	1363.987	1104.674
82.739	23.719	1363.255	1104.256
83.753	23.700	1361.912	1102.953
84.768	23.676	1361.327	1102.233
85.782	23.806	1359.561	1101.513
86.797	23.721	1358.855	1100.316
87.812	23.909	1357.072	1099.940
88.826	23.764	1355.977	1098.060
89.841	23.817	1354.813	1097.345
90.855	23.696	1354.346	1096.124
91.870	23.796	1353.521	1095.978
92.884	23.781	1353.126	1095.466
93.899	23.744	1352.199	1094.388
94.914	23.819	1350.747	1093.583
95.928	23.776	1350.602	1093.101
96.943	23.821	1349.617	1092.482
97.957	23.874	1348.709	1091.978
98.972	23.870	1347.745	1091.075
99.987	23.758	1346.897	1089.606
101.001	23.863	1345.420	1088.960
102.016	23.690	1345.116	1087.558
103.030	23.854	1343.889	1087.469
104.045	23.853	1343.179	1086.795
105.060	23.824	1342.133	1085.673
106.074	23.944	1340.561	1085.037
107.089	23.842	1340.085	1083.934
108.103	23.876	1338.853	1083.052
109.118	23.795	1338.083	1081.836
110.133	23.847	1336.572	1080.836
111.147	23.841	1335.576	1079.902
112.162	23.862	1334.372	1078.957
113.176	23.842	1333.552	1078.078
114.191	23.819	1332.771	1077.211
115.206	23.890	1331.504	1076.523
116.220	23.837	1330.322	1075.151
117.235	23.961	1329.303	1074.985
118.249	23.861	1328.921	1073.973
119.264	23.842	1327.915	1072.954
120.279	23.878	1326.670	1072.070
121.293	23.835	1326.013	1071.181
122.308	23.983	1324.981	1071.148
123.322	23.977	1324.409	1070.555
124.337	23.898	1324.017	1069.664
125.352	23.910	1323.015	1068.831
126.366	23.868	1322.338	1067.942
127.381	23.919	1321.249	1067.273
128.395	23.947	1320.086	1066.407
129.410	23.976	1319.131	1065.715
130.424	23.985	1318.434	1065.111
131.439	23.925	1317.607	1063.986
132.454	23.847	1316.769	1062.751
133.468	23.877	1316.168	1062.349
134.483	23.926	1315.670	1062.147
135.497	23.845	1314.882	1060.934
136.512	23.870	1313.381	1059.777
137.527	23.843	1312.747	1059.015
138.541	23.796	1311.563	1057.687
139.556	23.921	1309.947	1057.031
140.570	23.959	1308.891	1056.312
141.585	23.873	1307.706	1054.750
142.600	23.820	1307.067	1053.829
143.614	23.899	1306.007	1053.345
144.629	23.869	1305.174	1052.403
145.643	23.805	1303.856	1050.868
146.658	23.735	1303.183	1049.820
147.673	23.809	1301.820	1049.066
148.687	23.822	1300.820	1048.244
149.702	23.742	1299.740	1046.809
150.716	23.876	1298.435	1046.455
151.731	23.835	1297.474	1045.348
152.746	23.785	1296.501	1044.177
153.760	23.844	1295.644	1043.740
154.775	23.868	1294.610	1042.955
155.789	23.875	1293.713	1042.184
156.804	23.833	1292.604	1040.953
157.819	23.846	1291.879	1040.354
158.833	23.844	1291.148	1039.658
159.848	23.901	1290.312	1039.228
160.862	23.908	1289.881	1038.829
161.877	23.922	1288.941	1038.062
162.892	23.995	1287.714	1037.405
163.906	23.963	1287.068	1036.610
164.921	23.869	1286.860	1035.801
165.935	23.943	1285.719	1035.222
166.950	23.939	1284.985	1034.517
167.964	24.046	1284.178	1034.396
168.979	24.081	1283.220	1033.736
169.994	23.965	1283.260	1033.003
171.008	23.969	1282.727	1032.509
172.023	23.914	1282.076	1031.572
173.037	24.061	1280.517	1031.077
174.052	23.952	1280.458	1030.308
175.067	24.038	1279.251	1029.745
176.081	24.032	1278.264	1028.823
177.096	23.946	1277.956	1027.986
178.110	24.013	1277.117	1027.611
179.125	24.085	1275.798	1026.871
180.140	24.124	1274.836	1026.234
181.154	24.137	1273.496	1025.136
182.169	23.969	1272.902	1023.601
183.183	24.047	1271.805	1023.074
184.198	24.133	1270.377	1022.332
185.213	24.084	1269.815	1021.510
186.227	24.116	1268.485	1020.529
187.242	24.098	1267.843	1019.820
188.256	24.147	1266.923	1019.272
189.271	24.061	1266.303	1018.189
190.286	24.134	1265.538	1017.900
191.300	24.150	1264.961	1017.437
192.315	24.043	1264.644	1016.483
193.329	24.121	1264.101	1016.405
194.344	24.140	1263.700	1016.098
195.359	24.215	1262.963	1015.846
196.373	24.018	1262.425	1014.195
197.388	23.972	1262.433	1013.851
198.402	24.095	1261.866	1014.008
199.417	24.052	1261.496	1013.378
200.432	24.116	1260.783	1013.076
201.446	24.133	1260.136	1012.563
202.461	24.227	1258.899	1012.014
203.475	24.108	1258.378	1010.831
204.490	24.150	1257.345	1010.149
205.504	24.215	1255.846	1009.225
206.519	24.239	1255.099	1008.673
207.534	24.160	1254.500	1007.655
208.548	24.203	1253.288	1006.833
209.563	24.099	1252.770	1005.741
210.577	24.168	1251.795	1005.261
211.592	24.206	1251.095	1004.820
212.607	24.181	1250.252	1003.916
213.621	24.193	1249.303	1003.135
214.636	24.302	1248.446	1002.967
215.650	24.271	1247.830	1002.212
216.665	24.171	1246.867	1000.787
217.680	24.247	1245.924	1000.368
218.694	24.245	1245.502	999.929
219.709	24.216	1244.839	999.145
220.723	24.234	1243.754	998.288
221.738	24.188	1243.123	997.433
222.753	24.170	1242.381	996.651
223.767	24.293	1241.888	996.854
224.782	24.295	1241.337	996.334
225.796	24.314	1240.746	995.877
226.811	24.405	1240.002	995.703
227.826	24.285	1239.342	994.415
228.840	24.351	1238.674	994.157
229.855	24.241	1238.189	993.070
230.869	24.364	1237.301	992.954
231.884	24.387	1236.516	992.364
232.899	24.280	1235.858	991.153
233.913	24.321	1235.532	991.028
234.928	24.365	1234.929	990.704
235.942	24.500	1234.016	990.631
236.957	24.343	1233.527	989.280
237.972	24.368	1232.734	988.695
238.986	24.412	1232.079	988.326
240.001	24.244	1231.699	987.007
241.015	24.550	1230.699	987.810
242.030	24.498	1229.847	986.750
243.045	24.448	1228.931	985.654
244.059	24.528	1228.038	985.291
245.074	24.571	1227.449	984.966
246.088	24.502	1226.653	983.863
247.103	24.528	1225.792	983.225
248.117	24.438	1225.313	982.261
249.132	24.579	1224.342	982.168
250.147	24.514	1223.804	981.297
251.161	24.554	1222.851	980.662
252.176	24.522	1222.567	980.171
253.190	24.642	1221.793	980.125
254.205	24.642	1220.843	979.274
255.220	24.456	1220.779	978.121
256.234	24.512	1219.850	977.594
257.249	24.625	1219.291	977.678
258.263	24.516	1218.687	976.509
259.278	24.602	1218.133	976.449
260.293	24.548	1217.810	975.812
261.307	24.621	1216.909	975.399
262.322	24.589	1216.506	974.818
263.336	24.698	1215.481	974.502
264.351	24.604	1215.421	973.858
265.366	24.646	1214.460	973.230
266.380	24.604	1213.744	972.340
267.395	24.533	1213.285	971.497
268.409	24.497	1212.775	970.809
269.424	24.691	1211.912	971.085
270.439	24.624	1211.627	970.407
271.453	24.662	1210.951	969.986
272.468	24.595	1209.873	968.677
273.482	24.635	1209.229	968.292
274.497	24.592	1209.127	967.893
275.512	24.693	1208.098	967.529
276.526	24.777	1207.089	967.086
277.541	24.754	1206.691	966.559
278.555	24.724	1206.469	966.131
279.570	24.754	1205.241	965.227
280.585	24.659	1204.404	963.962
281.599	24.740	1203.400	963.508
282.614	24.763	1202.768	963.038
283.628	24.869	1201.510	962.517
284.643	24.750	1200.991	961.376
285.657	24.861	1199.614	960.784
286.672	24.854	1199.109	960.258
287.687	24.759	1198.585	959.245
288.701	24.820	1197.762	958.827
289.716	24.914	1196.976	958.618
290.730	24.834	1196.655	957.845
291.745	24.820	1195.854	957.048
292.760	24.888	1195.067	956.694
293.774	24.868	1194.721	956.224
294.789	24.762	1194.353	955.283
295.803	24.992	1193.221	955.518
296.818	24.940	1192.772	954.794
297.833	25.013	1192.042	954.517
298.847	24.982	1191.368	953.728
299.862	24.989	1190.888	953.297
300.876	24.921	1190.024	952.158
301.891	24.997	1189.583	952.123
302.906	25.020	1188.960	951.664
303.920	24.927	1188.133	950.423
304.935	24.983	1187.356	950.014
305.949	25.194	1186.562	950.417
306.964	24.966	1186.231	948.855
307.979	25.112	1185.326	948.825
308.993	24.943	1185.174	947.723
310.008	25.129	1183.860	947.572
311.022	25.107	1183.354	946.966
312.037	25.219	1181.805	946.234
313.052	25.101	1181.524	945.304
314.066	25.152	1180.394	944.584
315.081	24.954	1180.380	943.444
316.095	25.059	1179.541	943.247
317.110	25.135	1178.903	943.048
318.125	25.098	1178.369	942.345
319.139	25.021	1177.853	941.446
320.154	25.133	1176.859	941.155
321.168	25.098	1176.380	940.503
322.183	25.069	1175.634	939.672
323.197	25.144	1175.337	939.747
324.212	25.102	1174.505	938.779
325.227	25.197	1174.059	938.836
326.241	25.265	1173.598	938.740
327.256	25.212	1172.793	937.735
328.270	25.183	1172.231	937.049
329.285	25.201	1170.994	936.074
330.300	25.245	1170.593	935.899
331.314	25.196	1169.621	934.784
332.329	25.225	1168.835	934.225
333.343	25.278	1168.209	933.918
334.358	25.280	1167.098	932.959
335.373	25.316	1166.682	932.729
336.387	25.372	1165.914	932.323
337.402	25.399	1165.398	931.969
338.416	25.224	1164.808	930.508
339.431	25.352	1163.787	930.272
340.446	25.439	1163.240	930.202
341.460	25.353	1162.779	929.304
342.475	25.502	1161.636	929.081
343.489	25.409	1160.976	927.989
344.504	25.372	1160.240	927.130
345.519	25.477	1159.216	926.767
346.533	25.406	1158.233	925.535
347.548	25.495	1157.826	925.585
348.562	25.458	1157.114	924.746
349.577	25.431	1156.700	924.196
350.592	25.355	1155.787	922.992
351.606	25.306	1155.070	922.085
352.621	25.382	1154.572	921.996
353.635	25.556	1153.431	921.899
354.650	25.419	1153.381	921.076
355.665	25.441	1152.500	920.399
356.679	25.489	1151.953	920.129
357.694	25.647	1150.961	920.064
358.708	25.542	1150.803	919.319
359.723	25.513	1149.875	918.346
360.738	25.550	1149.166	917.890
361.752	25.558	1148.566	917.370
362.767	25.538	1148.196	916.888
363.781	25.629	1147.818	916.974
364.796	25.641	1147.067	916.351
365.810	25.668	1146.308	915.800
366.825	25.560	1146.086	914.994
367.840	25.756	1145.332	915.306
368.854	25.695	1144.695	914.404
369.869	25.625	1144.234	913.605
370.883	25.665	1143.363	913.028
371.898	25.753	1142.639	912.817
372.913	25.795	1141.645	912.155
373.927	25.873	1141.113	912.045
374.942	25.745	1140.932	911.172
375.956	25.772	1140.378	910.783
376.971	25.789	1139.714	910.257
377.986	25.814	1139.203	909.897
379.000	25.854	1138.637	909.563
380.015	25.949	1137.812	909.307
381.029	25.835	1137.366	908.295
382.044	25.775	1136.925	907.558
383.059	25.838	1135.922	906.996
384.073	25.882	1135.229	906.580
385.088	25.859	1134.190	905.555
386.102	25.785	1133.821	904.811
387.117	25.911	1132.729	904.491
388.132	25.765	1132.202	903.257
389.146	25.934	1130.743	902.861
390.161	25.886	1130.517	902.360
391.175	26.011	1129.560	902.143
392.190	25.981	1129.150	901.586
393.205	25.977	1128.719	901.142
394.219	25.889	1128.197	900.204
395.234	25.951	1127.232	899.663
396.248	25.890	1126.224	898.474
397.263	26.052	1125.197	898.383
398.278	25.966	1125.040	897.751
399.292	26.007	1124.177	897.188
400.307	25.989	1123.479	896.463
401.321	26.097	1122.855	896.419
402.336	25.932	1122.378	895.139
403.350	25.988	1121.564	894.690
404.365	26.221	1120.590	894.987
405.380	26.216	1119.736	894.205
406.394	26.181	1119.334	893.628
407.409	26.187	1118.324	892.776
408.423	26.239	1117.644	892.409
409.438	26.197	1116.960	891.576
410.453	26.226	1116.556	891.316
411.467	26.249	1116.169	891.044
412.482	26.175	1115.129	889.771
413.496	26.253	1114.262	889.384
414.511	26.184	1113.990	888.749
415.526	26.228	1113.791	888.729
416.540	26.203	1113.148	888.011
417.555	26.305	1112.464	887.889
418.569	26.155	1112.316	886.956
419.584	26.168	1112.127	886.788
420.599	26.311	1111.354	886.795
421.613	143.817	1403.946	1786.847
422.628	133.642	1446.581	1786.954
