DTS Sentinel unit serial number:	SN413079Multiplexer serial number:	ORYXHardware model number:	OX4-SRSoftware version number:	ORYX F/W v4.00 Oryx Data Collector v3.7.2.0data status	okinstallation	princeton_trtdifferential loss correction	single-endedforward channel	channel 2reverse channel	N/Adate	2019/09/18time	06:31:34forward acquisition time	60.00reverse acquisition time	0.00gamma	496.2192k internal	0.2349k external	0.2349temperature offset calibration	0.9985default loss term (dB/km)	0.3790temperature slope calibration	1.0000multiplexer offset coefficient	1.0000multiplexer slope coefficient	1.0000fibre end	0.00T internal ref (°C)	23.30T ext. ref 1 (°C)	0.19T ext. ref 2 (°C)	17.40length (m)	temperature (°C)	Stokes	anti-Stokes-747.200	-91.899	0.061	0.017
-746.185	-157.646	-0.142	-0.008
-745.171	99.573	0.326	0.377
-744.156	-200.000	-0.013	0.427
-743.142	49.596	-0.165	0.155
-742.127	112.180	-0.204	0.246
-741.112	25.596	-0.280	0.233
-740.098	-137.448	-0.233	-0.026
-739.083	328.817	-0.095	-0.183
-738.069	-200.000	-0.078	0.441
-737.054	61.031	0.186	0.184
-736.039	-55.971	0.202	0.090
-735.025	25.545	0.260	0.216
-734.010	-38.562	0.197	0.104
-732.996	9.767	-0.080	0.061
-731.981	800.000	-0.075	-0.282
-730.966	800.000	0.090	-0.361
-729.952	-87.054	-0.182	0.055
-728.937	-147.538	-0.269	-0.023
-727.923	-103.526	-0.093	0.022
-726.908	-200.000	-0.021	0.119
-725.894	193.176	0.087	-0.131
-724.879	-43.608	-0.210	-0.106
-723.864	7.490	0.080	-0.059
-722.850	670.473	-0.188	-0.486
-721.835	800.000	0.060	-0.196
-720.821	4.329	-0.265	-0.194
-719.806	-190.242	-0.394	-0.004
-718.791	-200.000	0.018	-0.118
-717.777	-62.436	0.208	-0.086
-716.762	28.479	-0.147	0.124
-715.748	331.284	-0.129	0.248
-714.733	206.912	0.227	0.353
-713.718	229.858	-0.184	0.300
-712.704	81.319	0.070	0.076
-711.689	-163.212	-0.201	0.010
-710.675	576.089	-0.220	-0.535
-709.660	263.676	0.083	-0.144
-708.645	-110.100	-0.190	-0.040
-707.631	-101.178	0.100	0.024
-706.616	429.208	-0.106	-0.229
-705.602	-38.380	-0.103	-0.054
-704.587	-200.000	0.009	0.153
-703.572	-12.981	0.163	-0.106
-702.558	-56.722	0.052	-0.023
-701.543	-27.772	0.122	0.070
-700.529	-29.797	-0.259	0.147
-699.514	215.764	-0.180	0.285
-698.499	78.761	-0.210	0.224
-697.485	-149.015	-0.191	-0.015
-696.470	-200.000	0.032	-0.190
-695.456	29.965	0.229	-0.195
-694.441	508.873	-0.105	-0.242
-693.426	515.830	-0.043	-0.100
-692.412	-103.163	-0.280	0.066
-691.397	-108.903	0.128	-0.027
-690.383	-200.000	-0.027	-0.399
-689.368	-200.000	-0.057	-0.268
-688.354	-200.000	0.009	-0.411
-687.339	105.190	0.071	-0.084
-686.324	800.000	-0.071	-0.270
-685.310	-122.007	-0.154	0.025
-684.295	-200.000	0.024	-0.185
-683.281	-123.768	0.229	0.036
-682.266	-45.215	-0.245	0.121
-681.251	-61.845	-0.072	0.030
-680.237	553.165	0.010	0.024
-679.222	-13.262	-0.107	0.069
-678.208	-40.289	0.066	0.034
-677.193	-35.397	0.167	-0.090
-676.178	800.000	0.044	0.128
-675.164	23.428	-0.100	-0.082
-674.149	-159.791	-0.656	0.036
-673.135	165.064	-0.039	-0.054
-672.120	800.000	-0.042	-0.178
-671.105	800.000	0.046	-0.179
-670.091	192.941	-0.194	0.292
-669.076	-200.000	-0.008	0.256
-668.062	-54.205	-0.021	0.010
-667.047	-122.786	-0.274	0.044
-666.032	-0.269	0.145	0.103
-665.018	698.321	0.108	-0.283
-664.003	-200.000	0.014	-0.213
-662.989	-86.116	0.474	0.146
-661.974	-57.006	0.303	0.133
-660.959	673.955	-0.026	0.067
-659.945	-200.000	0.010	0.046
-658.930	-61.280	-0.195	-0.082
-657.916	-142.597	0.047	-0.005
-656.901	-200.000	0.283	-0.001
-655.886	206.550	-0.108	-0.167
-654.872	253.979	0.054	-0.092
-653.857	800.000	-0.027	0.077
-652.843	137.682	0.027	-0.036
-651.828	800.000	0.055	0.208
-650.814	415.036	-0.057	-0.120
-649.799	307.380	-0.022	-0.040
-648.784	98.003	0.195	-0.223
-647.770	-5.500	-0.433	0.296
-646.755	172.639	0.098	-0.140
-645.741	-200.000	-0.001	0.070
-644.726	280.627	-0.033	-0.059
-643.711	-65.826	0.091	0.036
-642.697	-200.000	-0.025	-0.303
-641.682	-200.000	0.002	-0.012
-640.668	-119.417	-0.274	0.047
-639.653	2.812	-0.336	0.242
-638.638	800.000	-0.060	-0.247
-637.624	466.484	0.150	-0.335
-636.609	-64.639	0.282	-0.114
-635.595	-67.760	0.155	-0.060
-634.580	3.025	-0.203	0.147
-633.565	800.000	0.042	0.125
-632.551	231.396	-0.083	0.135
-631.536	800.000	-0.066	-0.271
-630.522	-200.000	0.009	0.050
-629.507	-35.472	0.167	0.090
-628.492	-200.000	-0.036	0.214
-627.478	800.000	-0.020	-0.072
-626.463	109.287	-0.136	0.162
-625.449	-200.000	0.005	0.042
-624.434	-91.800	0.238	-0.067
-623.419	535.525	0.041	-0.097
-622.405	68.957	0.129	0.132
-621.390	-200.000	0.001	0.389
-620.376	61.988	-0.078	0.078
-619.361	430.169	-0.178	-0.383
-618.346	85.944	0.104	-0.114
-617.332	247.077	0.065	0.109
-616.317	-77.774	-0.159	0.055
-615.303	262.644	-0.114	0.197
-614.288	-59.225	-0.021	0.009
-613.273	254.572	0.103	-0.175
-612.259	31.463	0.152	-0.130
-611.244	-112.437	0.306	-0.061
-610.230	-118.577	0.226	-0.040
-609.215	13.324	-0.212	-0.163
-608.201	72.838	0.111	-0.115
-607.186	-200.000	-0.009	0.147
-606.171	433.552	-0.086	0.184
-605.157	-69.323	0.338	-0.129
-604.142	-200.000	-0.038	0.276
-603.128	-200.000	0.011	-0.316
-602.113	-59.306	-0.148	-0.063
-601.098	800.000	0.109	-0.314
-600.084	-93.754	-0.290	-0.080
-599.069	-38.111	-0.051	0.027
-598.055	-186.950	0.175	-0.002
-597.040	-200.000	0.017	-0.081
-596.025	-80.846	0.157	0.052
-595.011	-28.216	-0.121	-0.070
-593.996	-200.000	0.039	-0.311
-592.982	-120.531	0.069	0.012
-591.967	32.469	-0.114	-0.098
-590.952	121.474	0.177	-0.219
-589.938	-200.000	0.018	-0.239
-588.923	-182.167	-0.227	0.004
-587.909	-114.707	-0.107	0.020
-586.894	-82.262	0.199	-0.064
-585.879	352.219	0.052	-0.101
-584.865	-63.248	-0.080	0.033
-583.850	-70.484	0.143	-0.054
-582.836	8.785	0.049	-0.037
-581.821	328.712	0.117	-0.223
-580.806	-55.820	0.081	0.036
-579.792	556.971	-0.147	0.352
-578.777	100.323	-0.102	-0.117
-577.763	87.426	0.043	0.047
-576.748	-52.034	0.172	-0.079
-575.733	86.677	-0.063	-0.069
-574.719	800.000	-0.118	-0.344
-573.704	-200.000	-0.010	-0.334
-572.690	-98.081	-0.226	-0.058
-571.675	-149.661	-0.161	0.013
-570.661	11.777	-0.248	0.189
-569.646	-200.000	0.021	-0.183
-568.631	49.363	-0.091	-0.084
-567.617	82.983	-0.042	-0.046
-566.602	800.000	-0.093	-0.277
-565.588	800.000	-0.088	-0.259
-564.573	-200.000	0.010	-0.313
-563.558	-200.000	0.052	0.337
-562.544	-200.000	0.023	0.115
-561.529	-158.015	0.233	0.014
-560.515	-133.357	-0.351	-0.044
-559.500	-200.000	-0.018	-0.107
-558.485	-77.097	-0.201	-0.069
-557.471	-99.359	0.341	0.085
-556.456	-66.952	-0.350	0.137
-555.442	-128.751	0.026	0.004
-554.427	-200.000	-0.016	-0.354
-553.412	-200.000	0.005	-0.108
-552.398	-144.702	0.137	0.013
-551.383	-200.000	-0.014	-0.259
-550.369	-99.701	0.395	0.098
-549.354	800.000	-0.046	-0.182
-548.339	-105.165	0.137	0.031
-547.325	-82.754	-0.048	0.015
-546.310	219.445	0.192	-0.305
-545.296	115.315	-0.183	0.222
-544.281	-56.206	0.182	-0.080
-543.266	-200.000	-0.005	-0.160
-542.252	209.663	0.066	-0.102
-541.237	128.661	-0.246	0.311
-540.223	-147.339	0.256	0.022
-539.208	487.829	0.080	0.181
-538.193	-161.517	0.289	0.015
-537.179	-0.943	0.145	0.102
-536.164	-52.610	0.283	-0.130
-535.150	-91.487	0.216	-0.061
-534.135	385.687	-0.083	0.170
-533.121	70.992	-0.048	-0.049
-532.106	477.112	-0.054	-0.121
-531.091	-97.488	0.092	-0.024
-530.077	112.555	-0.154	0.185
-529.062	-200.000	0.028	0.224
-528.048	-91.204	-0.130	0.037
-527.033	231.993	0.084	0.137
-526.018	-80.795	0.343	-0.113
-525.004	-23.181	-0.119	-0.071
-523.989	219.348	0.136	-0.216
-522.975	-200.000	-0.004	-0.215
-521.960	-64.295	0.168	0.068
-520.945	800.000	-0.081	-0.226
-519.931	-200.000	-0.001	0.041
-518.916	-103.620	0.179	0.041
-517.902	316.004	0.080	0.149
-516.887	54.226	0.083	0.079
-515.872	-200.000	0.004	-0.062
-514.858	103.043	-0.185	0.214
-513.843	558.721	0.138	-0.329
-512.829	-200.000	0.032	0.180
-511.814	166.141	0.223	0.313
-510.799	800.000	-0.065	0.235
-509.785	-124.827	-0.169	0.026
-508.770	-14.644	0.216	-0.137
-507.756	-58.514	0.153	0.066
-506.741	-200.000	-0.012	0.102
-505.726	274.159	-0.082	-0.143
-504.712	94.150	-0.168	0.189
-503.697	-31.073	0.151	-0.084
-502.683	205.165	0.070	-0.108
-501.668	-73.083	-0.256	-0.093
-500.653	268.795	0.092	0.160
-499.639	-87.513	0.150	0.045
-498.624	-55.127	-0.271	-0.120
-497.610	-200.000	-0.027	0.227
-496.595	-200.000	-0.002	0.238
-495.581	14.989	-0.038	-0.029
-494.566	-200.000	-0.129	-0.842
-493.551	-118.949	-0.243	0.042
-492.537	-53.220	-0.227	-0.103
-491.522	-200.000	0.150	0.000
-490.508	800.000	-0.044	0.131
-489.493	-42.134	-0.100	-0.051
-488.478	-30.737	-0.257	0.144
-487.464	721.290	-0.077	0.201
-486.449	242.532	0.142	0.235
-485.435	-131.648	-0.079	-0.010
-484.420	800.000	-0.099	-0.367
-483.405	-70.584	-0.329	0.123
-482.391	63.543	-0.256	-0.254
-481.376	-56.432	0.059	-0.026
-480.362	800.000	-0.036	0.141
-479.347	-134.139	0.302	-0.037
-478.332	67.229	-0.188	0.189
-477.318	138.463	-0.190	-0.247
-476.303	398.720	-0.125	0.259
-475.289	-30.184	-0.225	-0.127
-474.274	15.607	-0.149	0.116
-473.259	-17.344	-0.082	0.051
-472.245	363.663	-0.050	0.099
-471.230	512.720	-0.117	0.270
-470.216	-200.000	-0.035	-0.381
-469.201	-200.000	-0.004	0.033
-468.186	-200.000	0.011	0.098
-467.172	-200.000	0.037	0.172
-466.157	73.604	0.170	-0.175
-465.143	-34.690	0.058	-0.031
-464.128	800.000	-0.052	-0.182
-463.113	-66.847	0.240	0.094
-462.099	-200.000	-0.028	-0.232
-461.084	186.793	-0.128	0.189
-460.070	800.000	-0.076	0.214
-459.055	-134.928	0.264	0.032
-458.040	-89.255	0.162	0.047
-457.026	-118.958	0.150	-0.026
-456.011	-56.780	0.214	-0.094
-454.997	373.408	-0.151	-0.304
-453.982	-200.000	-0.000	-0.321
-452.968	-200.000	0.013	-0.094
-451.953	-200.000	0.038	-0.227
-450.938	-107.647	0.151	0.033
-449.924	-200.000	0.035	-0.221
-448.909	-76.807	-0.283	0.098
-447.895	-5.381	-0.057	0.038
-446.880	-115.265	-0.320	-0.060
-445.865	-200.000	-0.039	0.270
-444.851	31.542	0.156	0.132
-443.836	9.484	0.220	0.165
-442.822	-101.637	-0.131	0.031
-441.807	102.428	0.052	0.059
-440.792	-70.164	0.424	-0.159
-439.778	-68.939	-0.264	-0.100
-438.763	536.850	-0.046	0.107
-437.749	-126.525	0.165	-0.024
-436.734	-68.329	-0.303	-0.116
-435.719	-56.768	-0.244	0.106
-434.705	-38.415	0.219	0.114
-433.690	760.969	-0.084	-0.224
-432.676	800.000	-0.091	-0.301
-431.661	-37.043	-0.122	0.064
-430.646	-200.000	-0.021	-0.353
-429.632	91.752	0.225	0.250
-428.617	-148.787	0.353	0.028
-427.603	-97.623	0.060	-0.015
-426.588	-111.466	0.448	0.090
-425.573	-179.154	-0.412	-0.009
-424.559	-26.696	-0.222	0.128
-423.544	-107.123	-0.154	0.033
-422.530	-173.545	-0.163	-0.005
-421.515	-133.544	-0.253	0.031
-420.500	-200.000	-0.050	0.286
-419.486	21.617	-0.177	-0.142
-418.471	800.000	-0.131	0.464
-417.457	-183.630	0.191	0.003
-416.442	-2.560	0.120	-0.083
-415.428	341.459	-0.109	0.210
-414.413	-35.897	0.090	-0.048
-413.398	800.000	-0.061	0.215
-412.384	71.063	0.128	0.131
-411.369	-182.721	-0.065	0.001
-410.355	340.249	0.021	-0.040
-409.340	800.000	0.074	0.210
-408.325	-116.183	-0.380	-0.069
-407.311	-190.940	0.184	0.002
-406.296	800.000	0.046	-0.132
-405.282	800.000	0.010	-0.042
-404.267	-183.376	-0.160	-0.003
-403.252	-200.000	0.049	0.239
-402.238	-144.234	-0.164	-0.015
-401.223	125.184	0.110	0.136
-400.209	177.962	-0.065	-0.094
-399.194	-33.753	-0.065	0.035
-398.179	-136.859	-0.206	-0.023
-397.165	-40.336	-0.108	0.055
-396.150	40.634	-0.098	0.087
-395.136	372.304	0.137	0.275
-394.121	-57.992	0.271	0.117
-393.106	79.590	-0.135	0.143
-392.092	-91.414	-0.112	-0.032
-391.077	587.663	0.083	0.202
-390.063	12.760	0.030	0.023
-389.048	4.756	-0.263	-0.191
-388.033	59.003	0.053	0.051
-387.019	800.000	0.036	0.138
-386.004	-60.127	0.262	0.110
-384.990	-200.000	-0.017	-0.229
-383.975	21.946	-0.235	0.189
-382.960	-200.000	0.021	-0.129
-381.946	110.513	-0.389	-0.461
-380.931	-60.037	0.330	-0.139
-379.917	-96.879	-0.228	-0.059
-378.902	-200.000	-0.077	-0.473
-377.888	800.000	0.069	-0.277
-376.873	224.733	0.107	0.170
-375.858	-100.248	-0.505	0.124
-374.844	-200.000	-0.036	0.197
-373.829	800.000	0.113	0.345
-372.815	-200.000	-0.021	0.224
-371.800	800.000	0.018	0.061
-370.785	107.068	-0.158	-0.185
-369.771	-200.000	-0.000	0.042
-368.756	-72.922	0.271	0.098
-367.742	7.741	-0.117	-0.086
-366.727	800.000	-0.026	-0.094
-365.712	246.912	-0.020	-0.033
-364.698	112.825	-0.068	0.081
-363.683	17.677	0.145	-0.114
-362.669	-75.251	0.202	-0.071
-361.654	800.000	0.103	0.372
-360.639	334.097	-0.118	0.226
-359.625	-65.249	-0.125	0.049
-358.610	-200.000	-0.028	0.130
-357.596	252.022	0.030	0.050
-356.581	-94.194	-0.217	-0.058
-355.566	111.760	0.217	-0.257
-354.552	56.325	0.180	0.172
-353.537	278.954	0.031	0.054
-352.523	119.477	-0.050	-0.061
-351.508	-200.000	-0.001	-0.085
-350.493	-200.000	0.003	-0.106
-349.479	75.610	0.107	-0.111
-348.464	-105.493	-0.285	-0.064
-347.450	-48.819	0.151	-0.071
-346.435	-127.293	-0.592	-0.085
-345.420	343.052	0.119	-0.229
-344.406	-66.395	-0.098	-0.038
-343.391	-82.474	-0.245	0.078
-342.377	-150.280	0.160	0.012
-341.362	-6.653	0.143	-0.096
-340.348	-195.056	0.194	0.001
-339.333	702.713	-0.026	0.067
-338.318	345.035	0.190	-0.367
-337.304	281.612	0.059	-0.103
-336.289	220.852	0.039	-0.061
-335.275	174.545	-0.300	0.427
-334.260	-200.000	0.094	0.452
-333.245	800.000	-0.155	0.453
-332.231	800.000	-0.156	-0.436
-331.216	-48.776	0.239	-0.113
-330.202	800.000	-0.090	-0.277
-329.187	86.081	-0.191	-0.206
-328.172	670.021	0.059	0.149
-327.158	-200.000	0.047	0.283
-326.143	-47.975	-0.103	-0.049
-325.129	656.973	0.110	-0.277
-324.114	463.600	0.010	-0.021
-323.099	-200.000	-0.002	0.137
-322.085	243.782	-0.094	0.155
-321.070	20.540	-0.090	0.072
-320.056	17.760	-0.131	-0.103
-319.041	-106.054	-0.160	0.035
-318.026	29.958	0.048	-0.040
-317.012	-57.457	0.240	0.104
-315.997	-73.922	-0.078	0.028
-314.983	800.000	-0.111	0.302
-313.968	127.006	-0.081	-0.101
-312.953	-4.548	-0.025	-0.017
-311.939	-61.261	0.306	0.126
-310.924	-200.000	-0.059	0.317
-309.910	22.692	0.137	0.110
-308.895	-200.000	-0.001	-0.260
-307.880	42.229	0.308	0.275
-306.866	198.573	0.149	0.224
-305.851	362.222	-0.105	-0.206
-304.837	-27.848	-0.093	0.053
-303.822	-111.587	0.321	0.064
-302.807	266.305	-0.145	0.249
-301.793	108.173	0.169	0.198
-300.778	21.196	-0.121	0.097
-299.764	-94.207	-0.074	0.020
-298.749	-200.000	-0.019	-0.228
-297.735	-200.000	-0.048	-0.263
-296.720	-5.092	0.284	0.192
-295.705	18.434	-0.274	-0.215
-294.691	198.891	-0.220	0.331
-293.676	-22.295	0.307	-0.183
-292.662	96.492	0.036	-0.041
-291.647	-126.967	0.300	-0.043
-290.632	-200.000	0.025	0.361
-289.618	-108.102	0.201	0.043
-288.603	-200.000	0.023	-0.145
-287.589	183.770	0.042	0.060
-286.574	-10.510	0.211	0.137
-285.559	72.599	-0.122	0.124
-284.545	-11.736	-0.235	0.151
-283.530	-15.631	0.119	-0.074
-282.516	-200.000	0.030	-0.332
-281.501	-111.960	0.099	-0.020
-280.486	55.110	0.114	-0.108
-279.472	-51.351	0.077	0.035
-278.457	800.000	-0.057	0.164
-277.443	-1.815	0.109	0.075
-276.428	800.000	-0.041	0.133
-275.413	-200.000	-0.019	-0.099
-274.399	38.683	0.140	0.123
-273.384	-200.000	0.028	0.311
-272.370	-200.000	-0.027	-0.477
-271.355	-200.000	-0.026	0.228
-270.340	-168.630	-0.181	0.007
-269.326	-53.731	0.277	0.124
-268.311	342.031	-0.200	0.383
-267.297	-103.252	0.050	0.012
-266.282	399.076	-0.192	-0.394
-265.267	230.253	0.058	-0.093
-264.253	-146.437	-0.136	-0.012
-263.238	-138.363	-0.373	-0.040
-262.224	-200.000	0.017	0.114
-261.209	-17.355	0.195	0.120
-260.195	-200.000	0.056	-0.291
-259.180	-73.068	0.072	0.026
-258.165	-200.000	-0.006	-0.193
-257.151	61.049	-0.182	-0.177
-256.136	-142.226	-0.301	-0.029
-255.122	-146.675	0.311	0.026
-254.107	-34.170	0.216	0.116
-253.092	-2.468	0.282	-0.194
-252.078	-124.272	0.185	-0.028
-251.063	800.000	-0.041	-0.160
-250.049	28.802	-0.089	0.074
-249.034	352.116	-0.088	-0.171
-248.019	308.427	-0.111	-0.203
-247.005	-200.000	-0.014	-0.163
-245.990	-42.490	-0.438	-0.219
-244.976	38.863	0.118	0.103
-243.961	-200.000	0.019	0.289
-242.946	85.947	0.036	-0.039
-241.932	318.593	0.070	0.131
-240.917	452.146	0.130	0.281
-239.903	351.248	-0.133	0.258
-238.888	-79.201	-0.130	-0.043
-237.873	-59.681	0.416	-0.175
-236.859	-172.956	-0.195	0.006
-235.844	74.722	-0.128	-0.132
-234.830	252.780	-0.153	0.255
-233.815	-26.306	-0.207	0.119
-232.800	41.232	0.192	-0.170
-231.786	-21.413	0.196	0.117
-230.771	376.263	0.057	0.113
-229.757	-17.422	0.143	0.088
-228.742	-129.614	-0.130	0.018
-227.727	-200.000	-0.034	0.222
-226.713	-7.130	0.289	0.192
-225.698	-200.000	-0.001	0.270
-224.684	-200.000	-0.013	0.301
-223.669	-126.205	0.410	0.060
-222.655	800.000	0.061	0.249
-221.640	75.679	-0.066	-0.069
-220.625	-9.632	0.185	-0.121
-219.611	88.194	0.083	-0.090
-218.596	-116.392	-0.102	-0.018
-217.582	135.154	-0.067	-0.086
-216.567	153.159	0.184	-0.246
-215.552	-153.170	0.248	-0.017
-214.538	-115.308	0.241	0.045
-213.523	800.000	0.113	0.392
-212.509	185.416	0.112	-0.162
-211.494	19.015	-0.054	-0.042
-210.479	-116.249	-0.310	0.056
-209.465	-21.826	0.322	-0.192
-208.450	785.074	-0.135	0.361
-207.436	-3.191	-0.184	0.125
-206.421	55.169	-0.130	0.123
-205.406	346.606	0.035	0.067
-204.392	183.616	-0.132	0.191
-203.377	127.211	0.165	-0.204
-202.363	174.350	0.041	0.058
-201.348	800.000	-0.022	-0.080
-200.333	200.303	-0.159	-0.238
-199.319	-109.777	0.323	0.066
-198.304	-200.000	-0.042	-0.248
-197.290	223.463	-0.110	-0.173
-196.275	-200.000	-0.032	0.242
-195.260	-66.797	0.388	-0.150
-194.246	-52.229	-0.493	0.223
-193.231	-129.416	-0.204	-0.028
-192.217	160.562	0.222	-0.303
-191.202	25.622	-0.040	-0.032
-190.187	-147.034	-0.455	0.038
-189.173	-200.000	0.055	-0.408
-188.158	-200.000	-0.002	0.405
-187.144	800.000	-0.138	0.469
-186.129	-200.000	0.018	0.188
-185.114	36.396	-0.057	0.049
-184.100	208.312	0.128	-0.195
-183.085	-42.522	0.016	-0.008
-182.071	-200.000	-0.050	0.291
-181.056	-200.000	-0.005	0.057
-180.042	-200.000	0.032	-0.264
-179.027	-14.562	0.188	0.118
-178.012	84.869	-0.103	0.111
-176.998	-56.069	-0.184	-0.080
-175.983	312.563	0.035	-0.065
-174.969	800.000	0.059	-0.174
-173.954	800.000	0.102	-0.300
-172.939	-200.000	0.016	0.115
-171.925	412.096	-0.067	0.138
-170.910	-200.000	-0.063	-0.487
-169.896	92.666	0.135	-0.149
-168.881	-94.116	0.119	-0.032
-167.866	800.000	0.040	-0.126
-166.852	800.000	-0.138	-0.372
-165.837	24.928	0.113	0.091
-164.823	215.571	-0.026	0.041
-163.808	8.930	0.141	0.104
-162.793	-7.702	-0.375	0.247
-161.779	721.838	-0.037	-0.097
-160.764	675.503	0.130	0.330
-159.750	312.775	0.095	0.175
-158.735	-104.535	0.314	0.071
-157.720	-100.729	-0.196	-0.047
-156.706	-56.675	0.145	0.063
-155.691	188.049	0.196	-0.286
-154.677	-128.442	-0.182	0.025
-153.662	-65.438	0.109	-0.043
-152.647	-200.000	0.032	0.222
-151.633	-162.380	-0.106	0.005
-150.618	-135.639	0.243	-0.028
-149.604	-65.296	-0.063	-0.025
-148.589	187.728	-0.092	0.133
-147.574	-200.000	-0.004	-0.053
-146.560	-108.724	-0.588	0.123
-145.545	-95.581	-0.505	-0.132
-144.531	-200.000	-0.034	0.148
-143.516	38.109	-0.178	-0.155
-142.502	-108.124	-0.271	0.057
-141.487	-7.749	0.289	-0.191
-140.472	-121.688	-0.080	-0.013
-139.458	82.503	0.037	-0.040
-138.443	-0.306	-0.321	0.223
-137.429	213.054	0.149	0.229
-136.414	431.373	-0.089	0.188
-135.399	73.701	-0.098	-0.100
-134.385	-71.426	0.205	0.075
-133.370	-23.970	-0.413	0.241
-132.356	800.000	0.125	-0.380
-131.341	-200.000	0.016	0.357
-130.326	56.091	-0.196	-0.186
-129.312	-113.805	0.178	-0.034
-128.297	2.859	0.090	-0.064
-127.283	163.038	0.142	0.195
-126.268	-28.010	0.321	0.181
-125.253	32.318	-0.205	0.172
-124.239	-15.525	0.045	-0.028
-123.224	-200.000	-0.010	-0.145
-122.210	136.173	0.246	-0.313
-121.195	-49.564	-0.145	0.067
-120.180	-7.030	0.170	0.112
-119.166	42.918	-0.135	0.120
-118.151	800.000	-0.138	0.419
-117.137	112.230	0.126	-0.148
-116.122	65.354	0.158	0.156
-115.107	-200.000	0.002	0.216
-114.093	-91.257	-0.233	0.065
-113.078	-132.926	0.210	0.026
-112.064	419.006	0.085	-0.177
-111.049	-77.260	-0.095	-0.032
-110.034	-200.000	0.009	-0.259
-109.020	-40.196	0.054	0.027
-108.005	-200.000	-0.005	-0.137
-106.991	-200.000	-0.034	-0.222
-105.976	84.068	0.125	-0.133
-104.962	-159.252	0.130	0.007
-103.947	-112.991	-0.131	-0.025
-102.932	364.581	0.150	-0.295
-101.918	518.867	0.206	-0.469
-100.903	-146.709	0.338	-0.029
-99.889	-44.606	0.170	0.083
-98.874	18.741	0.109	-0.085
-97.859	-200.000	-0.003	-0.202
-96.845	247.167	-0.195	0.320
-95.830	218.068	0.298	0.463
-94.816	-147.970	-0.309	0.025
-93.801	-75.664	0.147	-0.051
-92.786	-119.242	-0.393	0.067
-91.772	-55.146	0.290	0.127
-90.757	800.000	0.081	-0.246
-89.743	-200.000	-0.016	0.249
-88.728	-11.050	-0.231	0.149
-87.713	9.163	-0.154	-0.113
-86.699	41.638	0.128	-0.113
-85.684	305.176	-0.143	-0.258
-84.670	280.352	-0.076	0.133
-83.655	800.000	0.049	0.183
-82.640	-200.000	-0.003	0.226
-81.626	800.000	-0.032	-0.112
-80.611	-151.773	-0.322	-0.023
-79.597	380.135	0.017	-0.035
-78.582	165.574	0.221	0.304
-77.567	29.870	-0.050	-0.042
-76.553	-31.582	0.124	-0.068
-75.538	123.112	0.087	0.106
-74.524	159.524	-0.030	0.041
-73.509	-124.959	0.176	0.026
-72.494	-200.000	-0.035	-0.156
-71.480	129.996	0.196	0.243
-70.465	226.607	0.065	0.103
-69.451	-194.646	0.105	0.001
-68.436	-37.153	0.391	0.203
-67.422	7.561	0.209	0.152
-66.407	479.432	0.191	-0.420
-65.392	674.942	-0.121	0.305
-64.378	293.441	0.132	0.234
-63.363	800.000	0.056	0.167
-62.349	494.631	0.163	0.363
-61.334	55.388	-1.132	-1.065
-60.319	300.381	0.261	0.468
-59.305	207.172	-0.784	-1.189
-58.290	265.329	0.789	1.338
-57.276	482.067	0.628	1.386
-56.261	-200.000	124.396	645.925
-55.246	407.204	1572.483	3230.203
-54.232	141.708	2744.360	3534.713
-53.217	89.128	2310.511	2501.555
-52.203	32.408	1917.286	1609.717
-51.188	26.273	1712.559	1390.723
-50.173	24.146	1673.839	1343.200
-49.159	45.805	1742.622	1566.165
-48.144	43.559	1754.825	1559.765
-47.130	25.886	1705.886	1382.115
-46.115	23.406	1690.095	1350.397
-45.100	23.288	1685.390	1345.685
-44.086	23.209	1683.214	1343.293
-43.071	23.188	1680.921	1341.250
-42.057	23.160	1678.913	1339.386
-41.042	23.227	1676.498	1337.911
-40.027	23.179	1674.962	1336.273
-39.013	23.177	1672.895	1334.553
-37.998	23.215	1671.115	1333.368
-36.984	23.304	1669.658	1332.823
-35.969	23.290	1668.601	1331.820
-34.954	23.268	1667.142	1330.433
-33.940	23.246	1665.385	1328.817
-32.925	23.264	1663.535	1327.419
-31.911	23.250	1662.069	1326.095
-30.896	23.403	1659.733	1325.324
-29.881	23.318	1658.619	1323.749
-28.867	23.299	1656.762	1322.066
-27.852	23.316	1655.644	1321.252
-26.838	23.271	1653.907	1319.475
-25.823	23.326	1652.803	1318.954
-24.809	23.353	1651.712	1318.235
-23.794	23.305	1650.260	1316.665
-22.779	23.298	1648.805	1315.399
-21.765	23.348	1646.307	1313.727
-20.750	23.266	1645.040	1312.052
-19.736	23.295	1643.991	1311.379
-18.721	23.414	1642.217	1310.790
-17.706	23.311	1640.928	1308.952
-16.692	23.290	1639.646	1307.718
-15.677	23.213	1638.791	1306.419
-14.663	23.263	1637.635	1305.815
-13.648	23.334	1635.527	1304.606
-12.633	23.390	1634.152	1303.865
-11.619	23.244	1632.804	1301.671
-10.604	23.288	1631.044	1300.536
-9.590	23.333	1629.655	1299.705
-8.575	23.354	1628.234	1298.675
-7.560	23.398	1626.764	1297.774
-6.546	23.380	1625.721	1296.756
-5.531	23.295	1625.070	1295.563
-4.517	23.345	1623.726	1294.811
-3.502	23.270	1622.814	1293.482
-2.487	23.378	1620.886	1292.685
-1.473	22.989	1608.339	1279.810
-0.458	20.189	1588.764	1244.122
0.556	15.157	1590.371	1212.743
1.571	12.896	1614.037	1214.056
2.586	12.706	1626.047	1221.569
3.600	11.836	1571.069	1173.924
4.615	6.569	1463.387	1058.102
5.629	1.346	1404.672	981.849
6.644	0.344	1397.667	970.415
7.659	0.099	1397.133	968.385
8.673	0.136	1395.621	967.488
9.688	0.162	1393.258	965.931
10.702	0.071	1390.033	963.029
11.717	2.659	1393.175	981.708
12.731	9.462	1403.505	1032.668
13.746	15.081	1411.722	1074.788
14.761	16.799	1413.562	1087.128
15.775	16.251	1412.010	1082.323
16.790	15.300	1409.213	1073.996
17.804	14.393	1407.561	1066.840
18.819	14.106	1405.826	1063.593
19.834	13.828	1404.734	1060.896
20.848	13.617	1402.974	1058.126
21.863	13.356	1401.763	1055.455
22.877	13.255	1400.441	1053.723
23.892	13.089	1399.919	1052.181
24.907	13.225	1398.104	1051.588
25.921	13.205	1397.756	1051.105
26.936	13.300	1396.953	1051.014
27.950	13.349	1396.060	1050.558
28.965	13.355	1395.157	1049.824
29.980	13.320	1394.401	1048.939
30.994	13.445	1393.320	1048.825
32.009	13.474	1392.246	1048.109
33.023	13.400	1391.092	1046.679
34.038	13.395	1389.904	1045.660
35.053	13.326	1388.368	1043.976
36.067	13.370	1387.289	1043.351
37.082	13.289	1386.468	1042.129
38.096	13.238	1385.873	1041.272
39.111	13.409	1384.793	1041.444
40.126	13.221	1383.960	1039.542
41.140	13.252	1382.828	1038.792
42.155	13.143	1382.540	1037.798
43.169	13.194	1382.681	1038.133
44.184	13.106	1381.818	1036.841
45.199	13.173	1381.666	1037.055
46.213	13.297	1380.427	1036.812
47.228	13.215	1380.226	1036.056
48.242	13.387	1378.301	1035.600
49.257	13.220	1376.732	1033.281
50.271	13.280	1375.565	1032.689
51.286	13.311	1374.289	1031.836
52.301	13.327	1372.891	1030.790
53.315	13.296	1372.124	1029.932
54.330	13.229	1370.891	1028.499
55.344	13.182	1370.073	1027.504
56.359	13.218	1368.646	1026.563
57.374	13.171	1367.529	1025.345
58.388	13.270	1366.620	1025.187
59.403	13.154	1366.630	1024.386
60.417	13.195	1365.490	1023.694
61.432	13.062	1364.755	1022.226
62.447	13.055	1363.769	1021.355
63.461	13.098	1362.467	1020.552
64.476	13.016	1361.663	1019.353
65.490	13.006	1360.371	1018.235
66.505	13.163	1358.528	1017.737
67.520	13.135	1357.227	1016.495
68.534	13.271	1355.517	1015.961
69.549	13.271	1354.586	1015.172
70.563	13.115	1353.826	1013.558
71.578	13.235	1352.599	1013.286
72.593	13.180	1351.615	1012.122
73.607	12.978	1351.299	1010.559
74.622	13.100	1350.112	1010.328
75.636	13.069	1349.345	1009.473
76.651	13.014	1349.003	1008.792
77.666	13.084	1348.338	1008.636
78.680	13.095	1347.820	1008.227
79.695	13.134	1346.548	1007.422
80.709	13.182	1345.875	1007.120
81.724	13.205	1344.849	1006.406
82.739	13.292	1344.047	1006.245
83.753	13.251	1343.019	1005.140
84.768	13.252	1341.882	1004.204
85.782	13.407	1340.191	1003.791
86.797	13.283	1339.622	1002.523
87.812	13.227	1338.067	1000.930
88.826	13.298	1336.902	1000.404
89.841	13.291	1335.936	999.549
90.855	13.362	1334.874	999.096
91.870	13.342	1334.015	998.239
92.884	13.367	1333.331	997.793
93.899	13.287	1332.581	996.662
94.914	13.423	1331.531	996.609
95.928	13.461	1330.534	995.998
96.943	13.458	1329.613	995.207
97.957	13.409	1328.793	994.206
98.972	13.458	1327.843	993.704
99.987	13.326	1326.842	992.072
101.001	13.290	1326.264	991.338
102.016	13.328	1324.699	990.307
103.030	13.405	1324.112	990.243
104.045	13.289	1323.419	988.943
105.060	13.340	1321.812	987.958
106.074	13.245	1320.498	986.325
107.089	13.225	1319.128	985.095
108.103	13.222	1317.902	984.074
109.118	13.326	1315.958	983.154
110.133	13.269	1314.922	981.954
111.147	13.183	1313.497	980.290
112.162	13.286	1312.440	980.027
113.176	13.268	1311.743	979.311
114.191	13.317	1310.257	978.407
115.206	13.263	1309.190	977.203
116.220	13.312	1307.689	976.287
117.235	13.230	1306.723	974.998
118.249	13.338	1305.546	974.666
119.264	13.322	1304.062	973.382
120.279	13.181	1303.482	972.032
121.293	13.258	1302.366	971.566
122.308	13.212	1301.437	970.515
123.322	13.210	1300.429	969.668
124.337	13.195	1299.189	968.572
125.352	13.220	1297.792	967.590
126.366	13.138	1297.226	966.600
127.381	13.208	1295.763	965.836
128.395	13.205	1294.620	964.882
129.410	13.231	1293.510	964.118
130.424	13.281	1293.030	963.966
131.439	13.263	1292.208	963.166
132.454	13.253	1291.040	962.150
133.468	13.324	1290.052	961.744
134.483	13.258	1289.439	960.816
135.497	13.300	1288.111	959.984
136.512	13.253	1286.571	958.477
137.527	13.314	1285.288	957.790
138.541	13.311	1283.588	956.426
139.556	13.268	1282.827	955.524
140.570	13.326	1282.019	955.171
141.585	13.338	1280.172	953.779
142.600	13.351	1278.810	952.760
143.614	13.489	1278.236	953.036
144.629	13.604	1276.604	952.396
145.643	13.451	1275.976	950.967
146.658	13.288	1275.186	949.361
147.673	13.406	1273.198	948.468
148.687	13.286	1272.344	947.061
149.702	13.453	1270.490	946.555
150.716	13.450	1269.530	945.738
151.731	13.423	1268.149	944.472
152.746	13.306	1267.047	942.899
153.760	13.461	1265.615	942.633
154.775	13.504	1264.667	942.087
155.789	13.526	1263.752	941.452
156.804	13.560	1262.401	940.552
157.819	13.606	1262.022	940.446
158.833	13.610	1260.472	939.234
159.848	13.613	1260.204	938.967
160.862	13.594	1259.033	937.901
161.877	13.640	1257.534	936.962
162.892	13.474	1256.850	935.434
163.906	13.609	1255.561	935.156
164.921	13.522	1254.915	934.100
165.935	13.498	1254.216	933.362
166.950	13.575	1253.473	933.159
167.964	13.616	1252.556	932.623
168.979	13.662	1251.653	932.129
169.994	13.626	1250.576	931.044
171.008	13.657	1249.662	930.452
172.023	13.600	1249.011	929.565
173.037	13.768	1248.302	929.896
174.052	13.756	1246.902	928.706
175.067	13.700	1246.221	927.805
176.081	13.631	1245.314	926.657
177.096	13.620	1244.697	926.058
178.110	13.685	1242.983	925.064
179.125	13.701	1241.913	924.274
180.140	13.690	1240.925	923.396
181.154	13.833	1239.371	922.954
182.169	13.787	1238.677	922.099
183.183	13.757	1237.361	920.873
184.198	13.895	1236.148	920.654
185.213	13.913	1235.277	920.022
186.227	13.854	1233.896	918.585
187.242	13.916	1232.786	918.021
188.256	13.847	1232.165	917.096
189.271	13.832	1231.336	916.314
190.286	13.716	1230.319	914.838
191.300	13.811	1228.740	914.106
192.315	13.706	1228.681	913.400
193.329	13.700	1228.000	912.784
194.344	13.808	1227.254	912.738
195.359	13.752	1226.834	912.037
196.373	13.906	1226.421	912.496
197.388	13.968	1225.717	912.236
198.402	14.034	1225.020	911.995
199.417	14.072	1224.332	911.613
200.432	14.071	1223.467	910.880
201.446	14.056	1223.158	910.488
202.461	14.140	1221.593	909.705
203.475	14.216	1220.293	909.072
204.490	14.247	1219.303	908.423
205.504	14.112	1218.122	906.724
206.519	13.977	1217.383	905.357
207.534	14.151	1215.693	904.969
208.548	14.096	1214.800	903.921
209.563	14.059	1213.884	902.962
210.577	14.100	1213.232	902.618
211.592	14.083	1212.060	901.575
212.607	14.199	1211.353	901.598
213.621	14.209	1210.346	900.821
214.636	14.154	1209.904	900.115
215.650	14.171	1208.742	899.262
216.665	14.242	1207.403	898.574
217.680	14.365	1206.688	898.627
218.694	14.324	1205.618	897.526
219.709	14.213	1205.428	896.707
220.723	14.361	1204.451	896.699
221.738	14.299	1203.851	895.841
222.753	14.376	1202.709	895.323
223.767	14.356	1202.638	895.086
224.782	14.285	1201.911	894.083
225.796	14.414	1200.965	893.990
226.811	14.494	1199.694	893.393
227.826	14.468	1199.556	893.075
228.840	14.396	1198.588	891.891
229.855	14.432	1198.002	891.565
230.869	14.447	1197.027	890.841
231.884	14.463	1196.222	890.252
232.899	14.526	1195.259	889.790
233.913	14.393	1195.028	888.832
234.928	14.445	1193.715	888.053
235.942	14.352	1193.409	887.249
236.957	14.415	1192.393	886.753
237.972	14.480	1191.617	886.442
238.986	14.464	1191.121	885.912
240.001	14.611	1189.820	885.643
241.015	14.530	1189.321	884.766
242.030	14.542	1188.493	884.132
243.045	14.668	1187.479	883.970
244.059	14.604	1187.172	883.323
245.074	14.633	1186.364	882.797
246.088	14.577	1185.670	881.907
247.103	14.658	1184.579	881.443
248.117	14.591	1184.011	880.589
249.132	14.724	1183.119	880.551
250.147	14.712	1182.549	879.983
251.161	14.806	1181.592	879.689
252.176	14.870	1180.982	879.495
253.190	14.924	1179.925	878.914
254.205	14.934	1179.751	878.761
255.220	14.980	1179.315	878.599
256.234	14.916	1178.714	877.737
257.249	14.861	1178.056	876.880
258.263	15.005	1177.014	876.782
259.278	14.951	1176.609	876.122
260.293	15.028	1176.105	876.071
261.307	15.008	1175.210	875.221
262.322	15.112	1174.597	875.232
263.336	15.134	1173.821	874.690
264.351	15.034	1173.502	873.851
265.366	15.216	1172.335	873.853
266.380	15.144	1171.571	872.836
267.395	15.101	1171.186	872.246
268.409	15.133	1170.051	871.491
269.424	15.085	1169.833	870.999
270.439	15.073	1169.313	870.474
271.453	15.060	1168.362	869.622
272.468	15.160	1167.322	869.287
273.482	15.057	1166.669	868.192
274.497	15.030	1166.301	867.699
275.512	15.123	1165.748	867.693
276.526	15.214	1164.285	867.002
277.541	15.176	1163.708	866.296
278.555	15.308	1163.048	866.411
279.570	15.179	1162.474	865.242
280.585	15.219	1161.230	864.443
281.599	15.280	1160.160	863.887
282.614	15.331	1159.165	863.330
283.628	15.391	1158.278	862.903
284.643	15.399	1157.369	862.191
285.657	15.365	1156.568	861.344
286.672	15.220	1155.689	859.869
287.687	15.380	1154.852	859.989
288.701	15.438	1153.711	859.359
289.716	15.430	1153.343	858.968
290.730	15.362	1152.894	858.213
291.745	15.328	1152.074	857.353
292.760	15.423	1151.090	857.029
293.774	15.511	1150.478	856.944
294.789	15.605	1150.087	857.060
295.803	15.464	1149.819	856.064
296.818	15.414	1149.118	855.208
297.833	15.451	1147.934	854.441
298.847	15.537	1147.313	854.341
299.862	15.608	1146.107	853.730
300.876	15.732	1145.503	853.831
301.891	15.663	1145.257	853.227
302.906	15.662	1143.874	852.114
303.920	15.731	1143.611	852.189
304.935	15.647	1142.784	851.073
305.949	15.707	1142.346	850.978
306.964	15.744	1141.426	850.404
307.979	15.772	1140.440	849.737
308.993	15.777	1140.098	849.431
310.008	15.840	1139.128	848.951
311.022	15.755	1138.699	848.129
312.037	15.841	1137.509	847.598
313.052	15.843	1136.581	846.844
314.066	15.675	1135.942	845.444
315.081	15.648	1135.097	844.608
316.095	15.824	1134.345	844.855
317.110	15.839	1133.415	844.161
318.125	15.721	1133.060	843.233
319.139	15.754	1132.391	842.825
320.154	15.768	1131.772	842.358
321.168	15.765	1130.951	841.663
322.183	15.768	1130.393	841.186
323.197	15.790	1129.842	840.812
324.212	15.754	1129.555	840.342
325.227	15.952	1128.297	840.323
326.241	15.852	1128.049	839.564
327.256	15.820	1127.206	838.700
328.270	15.874	1125.836	837.876
329.285	15.820	1125.111	836.993
330.300	15.826	1124.396	836.418
331.314	15.810	1123.619	835.685
332.329	15.951	1122.133	835.208
333.343	15.986	1121.166	834.588
334.358	15.858	1120.705	833.537
335.373	15.924	1120.226	833.435
336.387	16.070	1118.741	832.974
337.402	16.032	1118.164	832.284
338.416	15.962	1117.819	831.611
339.431	16.087	1116.874	831.450
340.446	16.235	1116.469	831.803
341.460	16.143	1115.886	830.844
342.475	16.201	1114.220	829.812
343.489	16.263	1113.402	829.437
344.504	16.175	1113.320	828.868
345.519	16.209	1112.399	828.276
346.533	16.375	1111.171	828.105
347.548	16.435	1110.210	827.606
348.562	16.261	1109.679	826.284
349.577	16.384	1108.651	826.051
350.592	16.357	1107.846	825.246
351.606	16.339	1107.607	824.906
352.621	16.259	1107.006	823.992
353.635	16.385	1106.103	823.866
354.650	16.239	1105.593	822.699
355.665	16.296	1104.601	822.167
356.679	16.377	1104.045	822.073
357.694	16.376	1103.418	821.531
358.708	16.342	1102.874	820.886
359.723	16.483	1102.217	821.009
360.738	16.391	1101.611	820.040
361.752	16.358	1101.069	819.400
362.767	16.406	1100.520	819.155
363.781	16.440	1099.928	818.806
364.796	16.416	1099.227	818.094
365.810	16.672	1098.101	818.423
366.825	16.517	1098.011	817.533
367.840	16.535	1097.692	817.312
368.854	16.698	1096.488	817.128
369.869	16.705	1096.253	816.917
370.883	16.587	1095.736	815.889
371.898	16.522	1095.042	814.989
372.913	16.704	1093.720	814.805
373.927	16.728	1093.451	814.652
374.942	16.713	1092.895	814.093
375.956	16.684	1092.634	813.686
376.971	16.662	1091.827	812.907
377.986	16.827	1091.210	813.168
379.000	16.693	1090.727	812.091
380.015	16.873	1089.689	812.110
381.029	16.955	1089.242	812.098
382.044	16.842	1088.790	811.149
383.059	16.982	1087.839	811.037
384.073	16.933	1087.358	810.372
385.088	16.879	1086.697	809.552
386.102	17.004	1085.095	808.881
387.117	16.896	1084.126	807.571
388.132	16.853	1083.384	806.743
389.146	16.862	1082.615	806.143
390.161	16.895	1081.822	805.637
391.175	16.921	1081.135	805.177
392.190	17.028	1080.408	805.072
393.205	17.027	1079.760	804.513
394.219	17.037	1079.106	804.002
395.234	16.980	1078.009	802.846
396.248	16.954	1076.983	801.887
397.263	16.872	1076.231	800.870
398.278	16.953	1075.563	800.684
399.292	16.909	1074.654	799.731
400.307	16.947	1074.026	799.371
401.321	16.892	1073.532	798.673
402.336	17.047	1072.474	798.545
403.350	16.998	1072.275	798.097
404.365	17.066	1071.229	797.564
405.380	17.190	1070.403	797.460
406.394	17.054	1069.830	796.326
407.409	17.273	1068.651	796.407
408.423	17.176	1068.601	795.842
409.438	17.208	1067.889	795.390
410.453	17.259	1066.990	794.891
411.467	17.408	1066.359	795.044
412.482	17.410	1065.368	794.247
413.496	17.349	1064.576	793.298
414.511	17.319	1064.225	792.831
415.526	17.434	1064.035	793.153
416.540	17.428	1063.403	792.582
417.555	17.441	1062.839	792.154
418.569	17.457	1062.350	791.796
419.584	17.422	1061.843	791.185
420.599	17.562	1061.292	791.355
421.613	107.888	1331.234	1487.576
422.628	99.603	1370.511	1487.641
