DTS Sentinel unit serial number:	SN413079Multiplexer serial number:	ORYXHardware model number:	OX4-SRSoftware version number:	ORYX F/W v4.00 Oryx Data Collector v3.7.2.0data status	okinstallation	princeton_trtdifferential loss correction	single-endedforward channel	channel 2reverse channel	N/Adate	2019/09/10time	22:17:11forward acquisition time	60.00reverse acquisition time	0.00gamma	496.2192k internal	0.2330k external	0.2330temperature offset calibration	0.9944default loss term (dB/km)	0.3790temperature slope calibration	1.0000multiplexer offset coefficient	1.0000multiplexer slope coefficient	1.0000fibre end	0.00T internal ref (°C)	30.50T ext. ref 1 (°C)	-0.31T ext. ref 2 (°C)	23.93length (m)	temperature (°C)	Stokes	anti-Stokes-747.200	-121.643	0.072	-0.012
-746.185	785.514	0.040	-0.110
-745.171	352.436	0.184	0.366
-744.156	-128.951	-0.012	0.002
-743.142	-125.472	0.196	-0.030
-742.127	-200.000	-0.017	-0.234
-741.112	616.754	-0.099	-0.250
-740.098	800.000	-0.063	0.220
-739.083	-48.419	-0.311	0.151
-738.069	34.614	0.283	-0.249
-737.054	800.000	-0.067	0.268
-736.039	60.368	-0.172	-0.171
-735.025	-155.051	0.300	0.020
-734.010	-41.232	-0.189	-0.098
-732.996	-53.188	-0.259	-0.120
-731.981	-65.812	0.157	0.063
-730.966	-175.454	0.240	-0.007
-729.952	-149.735	-0.214	-0.017
-728.937	146.880	0.065	-0.089
-727.923	-90.165	-0.304	0.089
-726.908	-200.000	-0.007	-0.048
-725.894	673.472	0.068	-0.177
-724.879	56.579	-0.268	0.262
-723.864	-17.003	-0.044	-0.028
-722.850	-81.343	0.279	0.092
-721.835	-200.000	-0.002	0.113
-720.821	-133.416	-0.384	-0.049
-719.806	-138.281	-0.128	-0.014
-718.791	-200.000	-0.010	-0.104
-717.777	800.000	0.050	0.164
-716.762	-14.962	0.243	-0.157
-715.748	146.765	0.014	0.018
-714.733	-150.865	0.174	0.013
-713.718	-86.209	0.152	0.047
-712.704	800.000	0.080	-0.286
-711.689	92.520	-0.077	0.087
-710.675	46.633	0.273	-0.255
-709.660	800.000	-0.006	0.025
-708.645	-20.465	-0.131	0.081
-707.631	-48.383	0.248	-0.120
-706.616	-172.407	-0.128	-0.004
-705.602	227.769	0.060	-0.098
-704.587	-125.697	0.076	0.012
-703.572	3.752	0.204	0.150
-702.558	112.528	0.262	0.319
-701.543	-200.000	0.082	0.421
-700.529	248.422	-0.155	0.264
-699.514	317.041	-0.259	-0.492
-698.499	-200.000	0.115	0.547
-697.485	326.670	0.097	0.186
-696.470	-200.000	0.025	0.264
-695.456	-200.000	-0.011	-0.262
-694.441	52.616	0.301	0.289
-693.426	-200.000	0.002	-0.035
-692.412	-54.620	0.300	0.136
-691.397	77.572	-0.227	0.243
-690.383	800.000	-0.049	0.162
-689.368	-71.977	0.040	0.015
-688.354	800.000	-0.112	0.426
-687.339	-42.363	0.263	0.135
-686.324	-98.709	-0.065	0.017
-685.310	800.000	-0.073	-0.290
-684.295	-125.861	-0.161	0.024
-683.281	342.179	0.066	0.130
-682.266	-200.000	0.009	-0.161
-681.251	-159.138	-0.196	-0.011
-680.237	-29.099	-0.284	0.163
-679.222	-125.607	0.170	0.026
-678.208	-167.384	0.153	-0.006
-677.193	-64.967	0.265	-0.107
-676.178	800.000	-0.053	-0.157
-675.164	8.183	-0.115	-0.087
-674.149	-200.000	-0.008	0.490
-673.135	64.963	-0.133	-0.135
-672.120	800.000	0.031	-0.094
-671.105	44.273	-0.176	-0.163
-670.091	800.000	-0.092	0.302
-669.076	-200.000	0.025	0.118
-668.062	800.000	0.067	-0.251
-667.047	-200.000	0.051	0.223
-666.032	60.566	-0.024	-0.024
-665.018	439.797	0.123	-0.270
-664.003	-200.000	-0.003	-0.221
-662.989	664.413	0.115	0.299
-661.974	-200.000	-0.046	0.221
-660.959	-76.413	-0.223	0.079
-659.945	-75.706	0.080	-0.028
-658.930	-186.594	0.167	0.002
-657.916	558.561	0.028	0.068
-656.901	-114.629	-0.127	-0.024
-655.886	716.073	0.077	0.204
-654.872	294.665	0.111	-0.204
-653.857	-75.225	-0.144	0.052
-652.843	-65.838	0.150	-0.060
-651.828	800.000	-0.119	-0.379
-650.814	-200.000	0.011	-0.119
-649.799	0.759	0.036	-0.026
-648.784	800.000	0.042	-0.148
-647.770	-200.000	-0.009	-0.057
-646.755	-183.848	-0.139	-0.002
-645.741	12.303	0.271	-0.209
-644.726	-200.000	-0.008	-0.279
-643.711	346.006	0.136	-0.268
-642.697	130.000	0.043	0.055
-641.682	-100.250	0.114	-0.028
-640.668	-127.207	-0.046	0.007
-639.653	567.002	-0.023	-0.055
-638.638	-18.942	0.179	0.111
-637.624	800.000	0.133	0.507
-636.609	-200.000	0.053	0.442
-635.595	800.000	-0.074	-0.208
-634.580	-41.524	0.063	0.032
-633.565	-14.384	-0.158	-0.102
-632.551	-175.693	-0.236	0.006
-631.536	238.228	-0.143	-0.239
-630.522	68.965	-0.182	-0.187
-629.507	58.402	0.349	-0.344
-628.492	800.000	-0.046	-0.165
-627.478	-200.000	-0.024	-0.160
-626.463	-45.840	-0.169	-0.083
-625.449	-9.137	-0.395	0.265
-624.434	800.000	-0.056	0.207
-623.419	-200.000	0.004	-0.272
-622.405	800.000	-0.051	-0.180
-621.390	151.635	0.122	-0.167
-620.376	701.713	-0.093	-0.245
-619.361	212.833	-0.209	-0.330
-618.346	147.059	0.084	-0.113
-617.332	164.684	-0.244	-0.345
-616.317	189.739	-0.060	0.090
-615.303	550.464	-0.055	-0.133
-614.288	-150.438	0.146	-0.011
-613.273	-125.229	-0.266	0.041
-612.259	800.000	-0.081	-0.298
-611.244	-200.000	0.007	-0.181
-610.230	115.011	0.318	-0.389
-609.215	13.207	0.288	0.223
-608.201	-73.818	-0.104	0.038
-607.186	-200.000	0.004	-0.040
-606.171	98.837	0.060	-0.069
-605.157	-148.502	0.240	-0.020
-604.142	-200.000	-0.014	0.279
-603.128	711.168	0.154	0.409
-602.113	-136.079	-0.514	-0.060
-601.098	-152.035	-0.450	-0.033
-600.084	26.194	0.094	-0.079
-599.069	433.207	0.070	-0.151
-598.055	-200.000	-0.081	0.369
-597.040	771.261	-0.073	-0.200
-596.025	467.447	-0.067	-0.150
-595.011	-111.862	-0.322	0.065
-593.996	281.677	-0.222	-0.399
-592.982	-14.238	-0.119	-0.077
-591.967	76.537	0.197	-0.209
-590.952	-60.993	0.126	0.053
-589.938	-125.578	-0.210	0.032
-588.923	-65.687	0.091	-0.037
-587.909	31.513	0.226	-0.194
-586.894	-200.000	-0.046	0.248
-585.879	44.269	-0.073	-0.067
-584.865	-200.000	0.070	0.369
-583.850	341.520	-0.035	-0.069
-582.836	750.892	-0.059	0.160
-581.821	-64.897	0.046	-0.019
-580.806	785.070	-0.009	-0.025
-579.792	-200.000	-0.042	-0.448
-578.777	650.088	0.037	-0.094
-577.763	60.871	0.188	0.187
-576.748	-64.480	-0.085	-0.035
-575.733	23.084	-0.084	0.069
-574.719	68.281	-0.162	-0.166
-573.704	151.910	0.115	0.157
-572.690	-200.000	0.023	-0.154
-571.675	-200.000	-0.004	-0.230
-570.661	83.301	0.068	-0.074
-569.646	-200.000	-0.066	0.386
-568.631	122.688	-0.100	0.125
-567.617	-200.000	0.016	0.083
-566.602	-200.000	-0.006	0.038
-565.588	-90.489	-0.243	0.070
-564.573	-20.746	-0.126	-0.077
-563.558	-200.000	0.001	-0.397
-562.544	-127.146	0.285	0.042
-561.529	-138.127	-0.455	-0.051
-560.515	-147.634	0.163	-0.014
-559.500	122.363	0.265	-0.331
-558.485	-200.000	-0.020	-0.458
-557.471	-127.548	0.411	-0.060
-556.456	-200.000	0.016	-0.091
-555.442	-118.142	-0.243	-0.043
-554.427	-200.000	-0.044	0.000
-553.412	238.665	-0.144	-0.239
-552.398	105.372	0.301	0.355
-551.383	-183.410	-0.248	0.004
-550.369	349.739	-0.100	-0.197
-549.354	-40.453	-0.077	0.040
-548.339	-13.237	-0.169	0.109
-547.325	-181.988	-0.266	-0.005
-546.310	35.893	-0.098	-0.086
-545.296	63.002	0.094	0.094
-544.281	800.000	0.094	0.354
-543.266	-161.450	-0.086	-0.004
-542.252	-200.000	-0.025	-0.180
-541.237	91.456	0.228	0.256
-540.223	104.537	-0.127	0.149
-539.208	79.744	-0.097	-0.104
-538.193	-159.179	-0.067	-0.004
-537.179	-200.000	0.027	0.186
-536.164	-35.673	-0.227	0.123
-535.150	-32.101	-0.164	0.092
-534.135	13.781	-0.245	0.190
-533.121	240.880	-0.249	0.415
-532.106	-51.540	0.078	-0.036
-531.091	-42.323	0.031	-0.016
-530.077	638.230	-0.092	-0.234
-529.062	-200.000	-0.001	-0.236
-528.048	376.798	0.187	-0.382
-527.033	-200.000	0.015	0.103
-526.018	177.519	-0.130	-0.189
-525.004	-147.704	0.103	-0.009
-523.989	-39.585	-0.106	0.056
-522.975	108.978	-0.280	-0.334
-521.960	89.973	-0.220	0.245
-520.945	91.186	-0.202	0.226
-519.931	800.000	-0.115	0.319
-518.916	-200.000	-0.032	0.227
-517.902	141.017	-0.216	0.285
-516.887	-200.000	0.024	-0.211
-515.872	128.919	0.107	-0.136
-514.858	196.504	0.167	-0.254
-513.843	-200.000	-0.077	0.558
-512.829	67.200	-0.082	-0.083
-511.814	-79.390	-0.195	-0.066
-510.799	800.000	0.062	-0.222
-509.785	800.000	-0.066	0.216
-508.770	-64.571	-0.131	-0.053
-507.756	-200.000	0.022	-0.271
-506.741	489.318	0.121	0.277
-505.726	183.050	0.192	-0.283
-504.712	800.000	0.074	0.247
-503.697	800.000	0.102	0.342
-502.683	74.094	0.282	0.295
-501.668	322.884	0.047	-0.090
-500.653	-134.239	-0.232	-0.028
-499.639	-70.604	-0.090	0.034
-498.624	44.966	0.023	0.021
-497.610	13.600	0.180	-0.139
-496.595	800.000	-0.062	-0.268
-495.581	-86.166	0.046	-0.014
-494.566	158.343	-0.216	-0.299
-493.551	196.666	-0.101	-0.154
-492.537	-200.000	-0.019	-0.254
-491.522	800.000	0.018	-0.049
-490.508	-119.809	-0.273	-0.047
-489.493	800.000	-0.011	0.042
-488.478	-113.361	0.336	0.066
-487.464	145.750	0.073	0.097
-486.449	112.715	0.140	-0.169
-485.435	-154.889	-0.188	0.012
-484.420	-129.109	-0.095	-0.013
-483.405	-101.942	-0.202	0.049
-482.391	-200.000	-0.006	-0.114
-481.376	800.000	-0.148	-0.419
-480.362	75.443	0.229	0.241
-479.347	-200.000	-0.022	0.519
-478.332	107.505	-0.180	0.214
-477.318	-118.069	-0.086	-0.015
-476.303	-62.496	0.385	0.159
-475.289	-200.000	-0.012	0.086
-474.274	-60.079	-0.264	-0.112
-473.259	-64.834	0.131	0.053
-472.245	554.194	-0.078	-0.188
-471.230	-200.000	-0.018	0.180
-470.216	-45.311	-0.284	0.141
-469.201	-23.358	-0.094	0.056
-468.186	552.095	0.015	0.036
-467.172	81.393	-0.118	-0.127
-466.157	145.984	-0.263	-0.351
-465.143	32.468	0.396	-0.341
-464.128	-144.657	0.320	-0.029
-463.113	446.081	0.073	0.160
-462.099	217.743	0.093	-0.148
-461.084	-200.000	-0.077	0.351
-460.070	300.574	-0.113	-0.207
-459.055	-200.000	-0.017	-0.185
-458.040	-43.164	0.174	0.088
-457.026	-114.875	-0.194	0.037
-456.011	126.475	0.066	0.083
-454.997	504.471	-0.162	-0.373
-453.982	100.262	0.117	-0.135
-452.968	800.000	-0.069	-0.200
-451.953	602.886	0.113	-0.280
-450.938	-137.807	0.108	0.012
-449.924	-129.729	-0.158	0.022
-448.909	-125.629	0.204	0.031
-447.895	-200.000	-0.007	-0.154
-446.880	-1.113	-0.130	-0.092
-445.865	-113.298	0.327	-0.064
-444.851	38.654	-0.270	-0.240
-443.836	800.000	-0.083	-0.311
-442.822	-58.807	0.414	-0.178
-441.807	-200.000	-0.011	-0.059
-440.792	-49.337	0.203	-0.096
-439.778	800.000	0.105	-0.370
-438.763	-54.374	-0.156	0.070
-437.749	-89.046	0.173	0.051
-436.734	34.595	-0.101	-0.088
-435.719	800.000	0.047	-0.144
-434.705	52.033	0.307	-0.291
-433.690	202.998	0.134	-0.206
-432.676	-29.496	-0.261	-0.148
-431.661	-200.000	-0.087	0.380
-430.646	-200.000	-0.099	0.528
-429.632	-54.763	-0.189	0.085
-428.617	298.076	-0.137	0.250
-427.603	-117.471	0.127	-0.023
-426.588	285.641	-0.053	-0.096
-425.573	53.664	-0.089	-0.085
-424.559	298.450	0.093	-0.171
-423.544	-200.000	0.053	0.286
-422.530	-86.440	0.158	-0.048
-421.515	255.013	0.150	-0.256
-420.500	-1.024	-0.239	0.168
-419.486	418.501	-0.058	-0.124
-418.471	665.964	0.089	-0.229
-417.457	-143.708	-0.211	-0.020
-416.442	80.780	-0.080	-0.086
-415.428	631.814	-0.131	-0.329
-414.413	800.000	0.076	-0.255
-413.398	22.408	0.118	0.096
-412.384	428.657	-0.128	-0.275
-411.369	-131.707	0.071	0.009
-410.355	800.000	-0.030	0.123
-409.340	-122.954	0.208	-0.033
-408.325	800.000	0.063	-0.256
-407.311	15.055	0.059	0.046
-406.296	-129.627	-0.255	-0.035
-405.282	-80.557	0.388	0.129
-404.267	-113.735	0.187	-0.036
-403.252	315.485	-0.023	0.043
-402.238	-107.776	0.255	-0.055
-401.223	11.555	0.047	0.035
-400.209	106.050	0.134	-0.157
-399.194	-116.393	-0.239	-0.044
-398.179	-94.728	0.414	0.112
-397.165	-110.316	-0.224	-0.046
-396.150	88.343	-0.026	-0.029
-395.136	-156.158	0.168	0.011
-394.121	214.956	-0.088	-0.139
-393.106	-200.000	0.034	0.316
-392.092	-171.309	-0.216	-0.007
-391.077	-200.000	-0.071	-0.342
-390.063	50.596	-0.160	0.150
-389.048	800.000	-0.079	0.228
-388.033	128.121	0.157	0.198
-387.019	-200.000	0.014	0.185
-386.004	141.530	0.085	-0.112
-384.990	800.000	0.014	0.042
-383.975	-51.935	0.152	-0.070
-382.960	-21.289	-0.158	-0.096
-381.946	-104.493	0.234	0.054
-380.931	-59.374	0.105	0.045
-379.917	-200.000	-0.026	0.412
-378.902	-137.909	-0.143	0.016
-377.888	-137.684	-0.205	0.023
-376.873	-55.178	-0.087	0.039
-375.858	-200.000	-0.043	-0.190
-374.844	-51.722	0.429	-0.199
-373.829	-7.979	-0.067	-0.045
-372.815	800.000	0.068	-0.196
-371.800	800.000	0.045	-0.194
-370.785	633.523	0.087	0.219
-369.771	800.000	-0.106	0.357
-368.756	29.259	-0.173	-0.146
-367.742	800.000	0.087	0.238
-366.727	386.799	-0.201	0.412
-365.712	-77.788	0.212	0.073
-364.698	-200.000	0.012	0.313
-363.683	0.353	-0.157	0.111
-362.669	31.215	-0.170	-0.145
-361.654	800.000	-0.051	-0.175
-360.639	41.895	-0.100	-0.090
-359.625	162.029	0.166	-0.231
-358.610	-200.000	-0.020	0.352
-357.596	-200.000	0.100	0.000
-356.581	-200.000	0.001	-0.121
-355.566	-65.843	0.097	-0.038
-354.552	677.497	-0.132	0.341
-353.537	117.411	0.122	-0.149
-352.523	79.707	-0.011	0.012
-351.508	88.727	-0.104	-0.115
-350.493	-200.000	0.009	0.145
-349.479	521.685	0.077	0.180
-348.464	-11.964	0.400	-0.260
-347.450	-200.000	0.042	-0.224
-346.435	28.328	-0.074	0.062
-345.420	417.410	0.019	0.041
-344.406	-142.111	0.090	-0.009
-343.391	-141.394	0.296	0.030
-342.377	800.000	-0.057	-0.193
-341.362	6.975	0.065	0.048
-340.348	-19.252	0.053	-0.033
-339.333	-200.000	-0.019	0.111
-338.318	75.526	0.119	-0.124
-337.304	337.996	0.053	-0.102
-336.289	800.000	0.078	0.289
-335.275	28.898	-0.392	0.329
-334.260	-113.706	0.224	-0.043
-333.245	298.128	-0.014	0.026
-332.231	223.511	-0.074	-0.119
-331.216	-22.183	0.182	-0.110
-330.202	173.879	-0.146	0.209
-329.187	-200.000	-0.005	0.142
-328.172	67.545	-0.211	-0.214
-327.158	800.000	0.062	0.170
-326.143	39.869	0.331	0.294
-325.129	-9.861	-0.182	-0.120
-324.114	-74.146	0.181	0.065
-323.099	-50.481	-0.197	-0.092
-322.085	602.251	-0.049	0.121
-321.070	-29.233	0.253	0.144
-320.056	-160.113	0.375	-0.020
-319.041	77.761	0.161	-0.170
-318.026	280.509	0.090	0.160
-317.012	1.592	-0.176	-0.126
-315.997	290.262	-0.134	0.240
-314.983	800.000	-0.024	0.074
-313.968	-12.642	-0.132	-0.085
-312.953	-112.023	0.119	0.024
-311.939	-46.171	-0.249	-0.121
-310.924	74.513	0.134	0.139
-309.910	15.905	0.208	0.162
-308.895	-200.000	-0.033	-0.193
-307.880	-54.835	-0.052	-0.023
-306.866	800.000	0.073	-0.282
-305.851	-71.179	-0.098	0.036
-304.837	-154.118	-0.189	-0.013
-303.822	-200.000	0.011	0.175
-302.807	-200.000	0.037	-0.206
-301.793	186.728	0.093	-0.137
-300.778	481.084	-0.158	0.356
-299.764	381.900	0.164	0.334
-298.749	-106.905	0.297	0.065
-297.735	-200.000	-0.013	0.271
-296.720	-200.000	0.019	0.308
-295.705	176.946	-0.143	0.206
-294.691	800.000	0.074	-0.291
-293.676	800.000	-0.023	0.080
-292.662	-50.381	-0.155	0.073
-291.647	3.092	-0.096	-0.069
-290.632	359.542	-0.030	0.060
-289.618	257.096	0.081	0.138
-288.603	132.916	0.112	0.143
-287.589	-152.306	0.218	0.016
-286.574	-95.354	-0.487	-0.130
-285.559	17.865	0.107	-0.084
-284.545	101.962	0.248	-0.286
-283.530	-200.000	-0.041	-0.180
-282.516	-169.282	-0.201	-0.007
-281.501	246.773	0.174	0.291
-280.486	221.046	0.083	-0.132
-279.472	-200.000	0.033	-0.241
-278.457	-200.000	0.001	0.209
-277.443	499.721	-0.103	-0.234
-276.428	-169.321	0.299	0.011
-275.413	-200.000	0.001	-0.032
-274.399	45.236	0.082	0.075
-273.384	256.288	0.150	0.254
-272.370	-200.000	0.011	-0.317
-271.355	-91.297	-0.507	0.144
-270.340	-200.000	0.003	-0.192
-269.326	-200.000	0.025	-0.252
-268.311	41.324	-0.073	-0.065
-267.297	-182.575	0.099	0.002
-266.282	-37.743	0.038	-0.020
-265.267	11.339	-0.108	-0.082
-264.253	-62.583	0.186	0.076
-263.238	-113.206	-0.318	0.062
-262.224	-22.387	0.107	0.064
-261.209	-200.000	0.025	-0.128
-260.195	117.916	-0.199	-0.243
-259.180	-200.000	-0.037	0.359
-258.165	-200.000	0.020	0.095
-257.151	17.877	-0.038	0.030
-256.136	-200.000	-0.041	0.216
-255.122	-21.151	0.116	-0.070
-254.107	233.397	0.128	0.208
-253.092	206.671	0.034	-0.052
-252.078	-83.762	-0.233	0.073
-251.063	-130.994	0.206	-0.027
-250.049	-97.527	0.212	-0.054
-249.034	-200.000	0.013	0.245
-248.019	-125.636	0.058	0.009
-247.005	280.963	-0.120	-0.212
-245.990	128.874	0.233	0.294
-244.976	-200.000	0.020	-0.145
-243.961	-200.000	-0.015	-0.158
-242.946	-59.738	0.067	-0.028
-241.932	-200.000	0.028	0.326
-240.917	-142.457	-0.182	0.018
-239.903	550.576	-0.148	0.350
-238.888	-200.000	-0.012	-0.368
-237.873	198.485	-0.229	0.346
-236.859	384.002	-0.142	0.289
-235.844	-19.977	0.108	-0.066
-234.830	800.000	0.017	0.066
-233.815	-200.000	0.026	-0.260
-232.800	-140.614	0.381	-0.039
-231.786	-15.200	0.236	-0.149
-230.771	-87.668	0.318	0.095
-229.757	-8.411	0.269	0.178
-228.742	-200.000	-0.068	-0.384
-227.727	603.886	-0.030	0.075
-226.713	94.104	0.181	0.203
-225.698	-200.000	-0.007	-0.237
-224.684	675.268	0.153	-0.391
-223.669	-200.000	0.012	0.248
-222.655	-200.000	-0.030	0.305
-221.640	800.000	0.048	0.191
-220.625	-25.017	-0.149	0.087
-219.611	-72.751	0.168	0.061
-218.596	-115.045	0.082	-0.015
-217.582	800.000	-0.007	-0.021
-216.567	-125.007	0.191	0.029
-215.552	-16.157	0.083	0.052
-214.538	159.733	0.024	0.032
-213.523	-119.125	0.326	0.056
-212.509	-52.322	0.147	0.067
-211.494	-200.000	-0.041	-0.356
-210.479	800.000	-0.059	0.218
-209.465	800.000	0.061	-0.255
-208.450	48.391	0.156	-0.144
-207.436	191.870	-0.154	0.229
-206.421	-14.200	-0.078	-0.050
-205.406	-133.840	-0.176	0.022
-204.392	-28.426	-0.278	0.158
-203.377	-88.038	0.332	-0.098
-202.363	-200.000	-0.011	0.405
-201.348	463.057	-0.013	0.029
-200.333	-200.000	-0.001	-0.211
-199.319	101.186	-0.195	0.224
-198.304	791.239	0.088	-0.239
-197.290	-98.470	0.058	0.015
-196.275	-34.093	0.091	-0.049
-195.260	12.361	0.273	0.208
-194.246	43.282	0.133	0.120
-193.231	-0.711	-0.216	-0.151
-192.217	-200.000	-0.087	0.427
-191.202	270.031	0.160	0.278
-190.187	-39.908	-0.123	0.063
-189.173	800.000	0.020	-0.076
-188.158	-96.195	0.099	0.026
-187.144	525.698	-0.093	0.216
-186.129	589.476	-0.051	0.124
-185.114	422.984	-0.038	0.080
-184.100	-142.665	-0.139	0.013
-183.085	-157.507	-0.212	0.013
-182.071	-63.377	-0.224	-0.091
-181.056	162.262	0.178	0.246
-180.042	-118.258	0.113	0.020
-179.027	-52.906	-0.332	-0.151
-178.012	214.251	-0.226	0.352
-176.998	-200.000	0.068	0.471
-175.983	-102.688	-0.193	0.045
-174.969	90.553	-0.092	0.102
-173.954	66.288	0.121	-0.121
-172.939	41.746	-0.188	0.167
-171.925	-200.000	-0.002	0.076
-170.910	167.293	0.220	0.307
-169.896	84.501	0.253	-0.273
-168.881	-153.663	-0.119	0.008
-167.866	-3.069	0.376	0.258
-166.852	243.870	0.076	0.126
-165.837	-200.000	0.028	0.439
-164.823	447.337	-0.035	-0.077
-163.808	-115.417	-0.154	0.029
-162.793	-200.000	0.018	-0.150
-161.779	-113.073	0.350	-0.068
-160.764	64.067	-0.179	0.178
-159.750	-49.653	0.011	-0.005
-158.735	-10.698	0.356	-0.232
-157.720	-111.687	0.256	-0.051
-156.706	-200.000	0.001	0.379
-155.691	800.000	-0.046	0.175
-154.677	800.000	0.022	0.067
-153.662	-60.557	-0.217	0.090
-152.647	48.598	-0.322	-0.297
-151.633	188.306	-0.167	0.246
-150.618	800.000	0.035	-0.142
-149.604	-47.707	-0.153	0.073
-148.589	-200.000	0.084	-0.528
-147.574	114.872	-0.216	-0.259
-146.560	31.433	0.144	-0.122
-145.545	291.491	-0.065	0.116
-144.531	-200.000	0.030	0.249
-143.516	-200.000	0.012	0.195
-142.502	-81.635	0.296	-0.096
-141.487	-144.962	0.074	0.007
-140.472	-14.757	-0.167	0.105
-139.458	52.756	0.195	0.183
-138.443	-138.869	0.195	0.021
-137.429	-85.718	0.086	-0.026
-136.414	734.423	0.066	0.175
-135.399	133.356	-0.193	0.245
-134.385	-200.000	-0.003	0.193
-133.370	272.070	-0.094	-0.164
-132.356	-42.895	-0.347	-0.173
-131.341	36.799	0.364	-0.316
-130.326	-122.107	-0.107	0.017
-129.312	162.944	0.140	0.194
-128.297	800.000	-0.032	-0.095
-127.283	-29.513	-0.175	0.098
-126.268	-27.287	-0.347	-0.199
-125.253	-200.000	-0.024	0.445
-124.239	-161.038	-0.148	0.008
-123.224	51.740	-0.261	-0.244
-122.210	-55.479	0.086	0.038
-121.195	-158.386	0.309	0.018
-120.180	25.830	0.139	0.114
-119.166	800.000	-0.069	-0.243
-118.151	111.299	0.214	-0.253
-117.137	-90.440	-0.228	-0.065
-116.122	-46.405	0.347	0.168
-115.107	800.000	-0.066	0.283
-114.093	-200.000	-0.003	0.141
-113.078	-200.000	-0.019	0.182
-112.064	68.458	0.124	-0.125
-111.049	266.670	-0.101	-0.174
-110.034	-140.833	0.398	0.040
-109.020	325.706	0.110	-0.207
-108.005	-69.880	0.050	0.019
-106.991	-200.000	-0.045	0.469
-105.976	-138.599	-0.284	0.031
-104.962	441.106	0.059	-0.128
-103.947	30.942	0.126	0.106
-102.932	330.903	-0.077	-0.145
-101.918	-25.884	0.306	-0.177
-100.903	800.000	0.099	0.272
-99.889	-136.636	-0.211	0.024
-98.874	58.719	0.108	0.104
-97.859	800.000	-0.041	0.144
-96.845	-200.000	-0.092	0.401
-95.830	800.000	-0.058	0.209
-94.816	256.506	-0.187	0.316
-93.801	297.078	0.241	0.435
-92.786	800.000	-0.046	-0.167
-91.772	-25.061	0.207	0.120
-90.757	-200.000	-0.053	0.356
-89.743	4.851	-0.078	0.056
-88.728	-27.084	-0.030	0.017
-87.713	-34.600	0.087	0.046
-86.699	-172.969	-0.366	-0.011
-85.684	442.320	0.176	0.379
-84.670	-177.617	0.118	0.003
-83.655	-200.000	-0.001	-0.083
-82.640	62.822	0.127	0.125
-81.626	685.533	-0.077	0.198
-80.611	-90.448	-0.309	-0.088
-79.597	-46.612	-0.107	-0.051
-78.582	410.023	0.059	0.123
-77.567	-139.892	0.245	-0.025
-76.553	800.000	-0.100	0.403
-75.538	800.000	0.033	-0.101
-74.524	800.000	0.043	0.156
-73.509	52.326	-0.212	-0.198
-72.494	-117.977	-0.134	0.023
-71.480	61.156	-0.149	0.145
-70.465	-85.673	-0.274	0.083
-69.451	120.236	-0.108	0.131
-68.436	-127.561	0.178	0.025
-67.422	-200.000	0.010	0.175
-66.407	15.289	0.206	-0.159
-65.392	-8.684	0.182	0.120
-64.378	-188.095	0.201	0.003
-63.363	-200.000	-0.033	0.182
-62.349	58.503	-0.182	-0.175
-61.334	46.499	-0.936	-0.851
-60.319	-28.191	0.616	0.349
-59.305	800.000	-0.276	-0.877
-58.290	136.637	0.751	0.961
-57.276	800.000	0.501	1.697
-56.261	-200.000	102.093	617.202
-55.246	530.842	1460.352	3383.629
-54.232	182.065	2663.355	3845.623
-53.217	107.855	2282.596	2665.269
-52.203	39.670	1894.485	1665.321
-51.188	33.709	1682.247	1433.821
-50.173	31.041	1638.926	1377.173
-49.159	50.031	1690.084	1562.960
-48.144	50.596	1706.514	1582.330
-47.130	33.267	1665.426	1415.955
-46.115	30.635	1650.679	1383.806
-45.100	30.424	1645.241	1377.629
-44.086	30.457	1642.739	1375.723
-43.071	30.402	1640.400	1373.306
-42.057	30.383	1638.308	1371.359
-41.042	30.327	1636.449	1369.336
-40.027	30.411	1634.145	1367.968
-39.013	30.336	1632.716	1366.169
-37.998	30.366	1630.533	1364.507
-36.984	30.317	1630.096	1363.730
-35.969	30.414	1628.084	1362.700
-34.954	30.514	1626.060	1361.689
-33.940	30.481	1624.638	1360.202
-32.925	30.526	1623.244	1359.307
-31.911	30.551	1620.890	1357.468
-30.896	30.535	1619.048	1355.752
-29.881	30.522	1617.276	1354.118
-28.867	30.538	1615.643	1352.818
-27.852	30.510	1614.518	1351.614
-26.838	30.553	1613.137	1350.722
-25.823	30.575	1611.798	1349.702
-24.809	30.579	1610.392	1348.506
-23.794	30.465	1609.159	1346.588
-22.779	30.584	1606.960	1345.562
-21.765	30.557	1605.720	1344.273
-20.750	30.430	1604.702	1342.445
-19.736	30.591	1602.721	1341.901
-18.721	30.536	1601.742	1340.628
-17.706	30.520	1599.985	1338.988
-16.692	30.419	1598.292	1336.791
-15.677	30.563	1596.699	1336.444
-14.663	30.588	1596.182	1336.139
-13.648	30.571	1594.688	1334.713
-12.633	30.559	1592.650	1332.868
-11.619	30.555	1591.024	1331.425
-10.604	30.486	1589.785	1329.844
-9.590	30.533	1588.357	1328.934
-8.575	30.474	1587.610	1327.832
-7.560	30.515	1586.397	1327.057
-6.546	30.451	1585.483	1325.785
-5.531	30.537	1584.407	1325.443
-4.517	30.599	1583.032	1324.682
-3.502	30.521	1581.935	1323.159
-2.487	30.571	1580.226	1322.032
-1.473	30.267	1568.261	1309.822
-0.458	27.312	1548.819	1272.895
0.556	21.425	1550.044	1241.359
1.571	19.200	1574.196	1244.532
2.586	18.818	1587.808	1252.398
3.600	17.076	1536.096	1199.210
4.615	9.191	1426.178	1061.392
5.629	1.284	1362.158	963.606
6.644	-0.105	1353.683	948.754
7.659	-0.308	1353.280	947.109
8.673	-0.365	1351.970	945.747
9.688	-0.441	1350.056	943.845
10.702	-0.530	1346.499	940.716
11.717	2.709	1352.598	965.307
12.731	11.753	1370.266	1035.287
13.746	18.953	1382.214	1090.032
14.761	20.398	1383.722	1100.289
15.775	20.576	1383.875	1101.441
16.790	20.730	1383.266	1101.830
17.804	20.732	1382.252	1100.937
18.819	20.975	1382.110	1102.261
19.834	21.022	1381.575	1102.036
20.848	20.961	1381.123	1101.195
21.863	21.010	1379.994	1100.507
22.877	20.985	1379.333	1099.726
23.892	21.090	1378.406	1099.550
24.907	20.995	1377.366	1098.026
25.921	21.048	1376.787	1097.801
26.936	21.048	1375.476	1096.658
27.950	21.046	1374.301	1095.611
28.965	21.012	1373.607	1094.746
29.980	21.039	1371.566	1093.194
30.994	21.046	1370.457	1092.252
32.009	21.060	1369.973	1091.858
33.023	21.074	1368.325	1090.535
34.038	21.058	1367.133	1089.392
35.053	21.030	1366.219	1088.389
36.067	21.061	1364.828	1087.379
37.082	21.077	1364.125	1086.823
38.096	21.132	1363.170	1086.310
39.111	21.091	1362.357	1085.310
40.126	21.088	1361.656	1084.638
41.140	21.089	1361.060	1084.074
42.155	20.907	1361.564	1083.244
43.169	21.041	1360.941	1083.489
44.184	21.101	1360.777	1083.636
45.199	21.022	1360.531	1082.853
46.213	21.047	1359.753	1082.289
47.228	21.032	1358.657	1081.229
48.242	21.077	1357.420	1080.429
49.257	20.991	1356.146	1078.786
50.271	21.112	1354.387	1078.038
51.286	20.995	1353.425	1076.460
52.301	21.057	1352.041	1075.645
53.315	21.007	1351.220	1074.583
54.330	21.075	1349.955	1073.904
55.344	21.081	1349.274	1073.306
56.359	21.120	1347.814	1072.286
57.374	20.998	1347.993	1071.587
58.388	21.008	1347.189	1070.914
59.403	21.045	1346.719	1070.674
60.417	21.068	1345.906	1070.074
61.432	20.968	1345.067	1068.698
62.447	21.134	1343.662	1068.501
63.461	21.052	1342.864	1067.271
64.476	21.128	1341.821	1066.815
65.490	21.123	1340.043	1065.274
66.505	21.059	1339.153	1064.079
67.520	21.169	1337.554	1063.390
68.534	21.138	1336.600	1062.346
69.549	21.067	1335.899	1061.264
70.563	21.080	1335.451	1060.894
71.578	21.090	1333.721	1059.486
72.593	21.054	1333.417	1058.929
73.607	21.027	1332.633	1058.054
74.622	21.027	1331.745	1057.252
75.636	21.114	1331.123	1057.194
76.651	21.122	1330.385	1056.562
77.666	21.163	1329.325	1055.871
78.680	21.085	1329.220	1055.228
79.695	21.120	1328.157	1054.500
80.709	21.042	1328.034	1053.840
81.724	21.112	1326.696	1053.101
82.739	21.172	1325.671	1052.560
83.753	21.093	1325.136	1051.565
84.768	21.026	1323.893	1050.082
85.782	20.988	1322.781	1048.878
86.797	21.120	1321.454	1048.525
87.812	21.095	1320.179	1047.275
88.826	21.082	1319.363	1046.457
89.841	21.214	1318.480	1046.455
90.855	21.092	1317.210	1044.623
91.870	21.274	1316.049	1044.699
92.884	21.077	1315.644	1043.106
93.899	21.200	1314.143	1042.560
94.914	21.125	1314.009	1041.914
95.928	21.208	1312.940	1041.465
96.943	21.181	1311.778	1040.293
97.957	21.211	1311.515	1040.173
98.972	21.261	1310.428	1039.513
99.987	21.116	1309.672	1037.958
101.001	21.087	1308.652	1036.887
102.016	21.144	1307.684	1036.368
103.030	21.179	1306.911	1035.869
104.045	21.184	1306.064	1035.136
105.060	21.168	1304.635	1033.819
106.074	21.229	1303.346	1033.066
107.089	21.215	1302.581	1032.283
108.103	21.152	1301.418	1030.902
109.118	21.111	1300.398	1029.761
110.133	21.251	1299.062	1029.436
111.147	21.300	1298.128	1028.891
112.162	21.326	1296.419	1027.600
113.176	21.256	1295.824	1026.628
114.191	21.252	1294.660	1025.589
115.206	21.187	1294.166	1024.727
116.220	21.197	1292.516	1023.386
117.235	21.135	1291.967	1022.497
118.249	21.226	1290.638	1021.888
119.264	21.155	1289.851	1020.760
120.279	21.266	1289.028	1020.665
121.293	21.322	1287.710	1019.857
122.308	21.225	1286.715	1018.415
123.322	21.299	1286.120	1018.288
124.337	21.291	1285.063	1017.316
125.352	21.323	1284.346	1016.843
126.366	21.285	1283.239	1015.655
127.381	21.197	1282.786	1014.696
128.395	21.204	1281.637	1013.736
129.410	21.371	1280.351	1013.598
130.424	21.321	1279.792	1012.773
131.439	21.314	1278.820	1011.874
132.454	21.238	1278.100	1010.778
133.468	21.193	1277.603	1010.035
134.483	21.145	1277.068	1009.242
135.497	21.216	1276.223	1008.901
136.512	21.179	1275.217	1007.798
137.527	21.249	1273.691	1006.908
138.541	21.235	1272.431	1005.743
139.556	21.223	1271.031	1004.475
140.570	21.278	1270.124	1003.988
141.585	21.263	1268.842	1002.801
142.600	21.232	1267.923	1001.805
143.614	21.165	1267.137	1000.712
144.629	21.259	1265.762	1000.077
145.643	21.126	1264.785	998.455
146.658	21.213	1263.868	998.144
147.673	21.038	1263.081	996.433
148.687	21.199	1261.704	996.176
149.702	21.228	1260.674	995.439
150.716	21.156	1259.584	994.078
151.731	21.304	1258.581	994.042
152.746	21.209	1257.342	992.436
153.760	21.259	1256.414	991.899
154.775	21.290	1255.464	991.237
155.789	21.245	1254.679	990.278
156.804	21.237	1253.496	989.208
157.819	21.141	1252.811	988.041
158.833	21.174	1251.970	987.476
159.848	21.267	1250.970	987.125
160.862	21.339	1250.180	986.817
161.877	21.343	1249.262	986.030
162.892	21.354	1248.880	985.706
163.906	21.344	1248.066	984.918
164.921	21.382	1247.048	984.242
165.935	21.291	1246.639	983.319
166.950	21.343	1245.663	982.753
167.964	21.375	1244.872	982.221
168.979	21.323	1244.519	981.563
169.994	21.414	1243.863	981.473
171.008	21.329	1243.326	980.483
172.023	21.405	1242.330	980.038
173.037	21.358	1241.685	979.177
174.052	21.473	1240.772	979.018
175.067	21.302	1240.433	977.703
176.081	21.459	1238.899	977.288
177.096	21.385	1238.623	976.571
178.110	21.304	1237.563	975.193
179.125	21.356	1236.587	974.628
180.140	21.348	1235.882	973.943
181.154	21.444	1234.265	973.120
182.169	21.507	1233.303	972.625
183.183	21.459	1232.424	971.580
184.198	21.487	1231.344	970.794
185.213	21.418	1230.781	969.883
186.227	21.420	1230.066	969.242
187.242	21.411	1229.110	968.356
188.256	21.446	1228.250	967.789
189.271	21.424	1227.176	966.731
190.286	21.469	1226.457	966.328
191.300	21.379	1226.212	965.551
192.315	21.367	1225.903	965.157
193.329	21.491	1224.946	965.002
194.344	21.422	1224.826	964.444
195.359	21.531	1223.927	964.248
196.373	21.472	1223.575	963.565
197.388	21.385	1223.270	962.759
198.402	21.502	1222.612	962.798
199.417	21.409	1222.616	962.203
200.432	21.546	1221.395	961.914
201.446	21.455	1220.900	960.937
202.461	21.522	1219.863	960.407
203.475	21.367	1219.593	959.254
204.490	21.537	1218.145	958.964
205.504	21.488	1217.624	958.201
206.519	21.529	1216.649	957.576
207.534	21.577	1215.201	956.611
208.548	21.612	1214.479	956.148
209.563	21.468	1213.714	954.676
210.577	21.537	1213.226	954.582
211.592	21.481	1212.566	953.673
212.607	21.684	1211.179	953.607
213.621	21.654	1210.660	952.950
214.636	21.565	1210.228	952.040
215.650	21.545	1209.582	951.340
216.665	21.612	1208.321	950.627
217.680	21.552	1207.213	949.349
218.694	21.616	1206.883	949.349
219.709	21.648	1206.083	948.808
220.723	21.726	1205.237	948.484
221.738	21.620	1204.809	947.489
222.753	21.568	1203.936	946.435
223.767	21.572	1203.141	945.748
224.782	21.741	1202.760	946.277
225.796	21.611	1202.712	945.458
226.811	21.781	1201.470	945.311
227.826	21.714	1201.116	944.590
228.840	21.682	1200.518	943.863
229.855	21.686	1200.006	943.396
230.869	21.753	1198.814	942.737
231.884	21.769	1198.267	942.309
232.899	21.678	1197.854	941.415
233.913	21.706	1197.194	940.961
234.928	21.655	1197.066	940.503
235.942	21.748	1196.334	940.343
236.957	21.775	1194.782	939.189
237.972	21.619	1194.854	938.324
238.986	21.838	1193.689	938.500
240.001	21.828	1193.145	937.934
241.015	21.850	1192.475	937.439
242.030	21.937	1191.735	937.243
243.045	21.854	1191.037	936.165
244.059	21.905	1189.965	935.516
245.074	21.787	1189.564	934.488
246.088	21.761	1188.984	933.808
247.103	21.876	1187.692	933.324
248.117	21.870	1187.071	932.719
249.132	21.869	1186.405	932.113
250.147	21.930	1185.663	931.771
251.161	21.922	1184.972	931.101
252.176	21.844	1184.466	930.207
253.190	21.979	1183.525	930.103
254.205	22.029	1183.137	929.981
255.220	21.944	1182.658	929.071
256.234	21.927	1182.233	928.563
257.249	21.990	1181.421	928.178
258.263	21.989	1180.419	927.304
259.278	22.030	1180.021	927.127
260.293	22.013	1179.674	926.680
261.307	22.018	1179.123	926.189
262.322	22.052	1178.302	925.646
263.336	21.976	1177.713	924.697
264.351	21.981	1177.277	924.301
265.366	22.016	1176.401	923.718
266.380	21.958	1175.818	922.871
267.395	21.959	1175.419	922.480
268.409	21.924	1174.704	921.653
269.424	21.976	1173.965	921.267
270.439	22.071	1173.812	921.565
271.453	21.973	1173.141	920.443
272.468	21.984	1172.057	919.565
273.482	21.884	1171.602	918.607
274.497	22.041	1170.917	918.806
275.512	22.095	1170.358	918.571
276.526	22.065	1169.923	917.992
277.541	22.005	1169.280	917.090
278.555	22.006	1168.750	916.599
279.570	22.151	1167.648	916.411
280.585	22.044	1167.225	915.440
281.599	22.105	1165.819	914.574
282.614	22.190	1165.050	914.331
283.628	22.117	1164.369	913.338
284.643	22.158	1163.447	912.746
285.657	22.073	1162.841	911.747
286.672	22.241	1161.440	911.440
287.687	22.200	1160.925	910.745
288.701	22.238	1160.594	910.600
289.716	22.261	1159.247	909.582
290.730	22.212	1159.040	909.083
291.745	22.217	1158.335	908.480
292.760	22.268	1158.072	908.454
293.774	22.395	1157.080	908.250
294.789	22.283	1156.671	907.274
295.803	22.338	1156.077	907.007
296.818	22.260	1155.584	906.139
297.833	22.241	1154.824	905.369
298.847	22.294	1154.286	905.137
299.862	22.384	1153.327	904.769
300.876	22.259	1152.928	903.731
301.891	22.416	1152.135	903.836
302.906	22.397	1150.964	902.739
303.920	22.388	1150.543	902.286
304.935	22.299	1150.168	901.456
305.949	22.345	1149.441	901.040
306.964	22.424	1148.827	900.884
307.979	22.408	1148.300	900.310
308.993	22.512	1147.444	900.090
310.008	22.428	1146.907	899.160
311.022	22.323	1146.378	898.131
312.037	22.438	1145.278	897.776
313.052	22.513	1144.169	897.207
314.066	22.410	1143.595	896.152
315.081	22.485	1142.563	895.647
316.095	22.404	1142.614	895.196
317.110	22.384	1141.861	894.426
318.125	22.452	1141.291	894.246
319.139	22.617	1140.089	894.062
320.154	22.527	1139.993	893.453
321.168	22.463	1139.535	892.688
322.183	22.453	1139.236	892.325
323.197	22.604	1137.927	891.986
324.212	22.517	1137.289	890.967
325.227	22.614	1137.030	891.175
326.241	22.561	1136.606	890.497
327.256	22.658	1135.532	890.062
328.270	22.602	1135.018	889.301
329.285	22.598	1134.200	888.559
330.300	22.510	1133.542	887.524
331.314	22.631	1132.550	887.276
332.329	22.656	1131.846	886.773
333.343	22.555	1131.212	885.690
334.358	22.639	1130.630	885.576
335.373	22.816	1129.179	885.251
336.387	22.609	1129.243	884.183
337.402	22.632	1128.368	883.534
338.416	22.762	1127.683	883.573
339.431	22.821	1126.978	883.236
340.446	22.715	1126.641	882.366
341.460	22.686	1126.066	881.692
342.475	22.630	1124.994	880.494
343.489	22.701	1124.173	880.128
344.504	22.685	1123.448	879.402
345.519	22.827	1122.012	878.908
346.533	22.871	1121.540	878.680
347.548	22.915	1120.388	877.917
348.562	22.854	1120.061	877.281
349.577	22.787	1119.330	876.300
350.592	22.774	1118.833	875.766
351.606	22.822	1117.982	875.258
352.621	22.861	1117.665	875.130
353.635	22.818	1117.305	874.554
354.650	22.844	1116.419	873.916
355.665	22.852	1115.728	873.335
356.679	22.896	1115.311	873.147
357.694	22.854	1114.657	872.354
358.708	22.999	1113.898	872.398
359.723	22.926	1113.201	871.415
360.738	22.979	1112.034	870.682
361.752	22.782	1112.294	869.838
362.767	22.997	1111.526	870.220
363.781	22.971	1111.087	869.675
364.796	23.052	1110.352	869.420
365.810	23.041	1109.709	868.784
366.825	23.044	1109.108	868.250
367.840	23.073	1108.621	867.934
368.854	23.221	1108.082	868.163
369.869	23.215	1107.318	867.460
370.883	23.082	1106.464	866.059
371.898	23.084	1105.758	865.441
372.913	23.008	1105.410	864.721
373.927	23.116	1105.157	864.973
374.942	23.185	1104.526	864.742
375.956	23.149	1103.892	863.995
376.971	23.118	1103.315	863.315
377.986	23.026	1103.276	862.757
379.000	23.284	1102.078	863.004
380.015	23.248	1101.448	862.258
381.029	23.204	1101.113	861.704
382.044	23.140	1100.557	860.879
383.059	23.167	1099.796	860.339
384.073	23.160	1099.234	859.793
385.088	23.154	1098.155	858.843
386.102	23.359	1096.776	858.683
387.117	23.302	1096.320	857.971
388.132	23.216	1095.303	856.683
389.146	23.304	1095.008	856.802
390.161	23.346	1094.122	856.237
391.175	23.274	1093.703	855.486
392.190	23.307	1092.875	854.923
393.205	23.200	1092.077	853.705
394.219	23.396	1091.276	853.950
395.234	23.344	1090.809	853.258
396.248	23.362	1089.995	852.633
397.263	23.384	1088.955	851.846
398.278	23.510	1088.358	851.912
399.292	23.474	1087.750	851.188
400.307	23.432	1087.338	850.589
401.321	23.362	1086.860	849.805
402.336	23.413	1085.910	849.231
403.350	23.397	1085.316	848.614
404.365	23.503	1084.623	848.502
405.380	23.512	1084.021	848.001
406.394	23.463	1083.095	846.967
407.409	23.513	1082.281	846.493
408.423	23.552	1081.526	846.016
409.438	23.522	1080.801	845.231
410.453	23.591	1079.817	844.714
411.467	23.606	1079.478	844.448
412.482	23.558	1079.161	843.896
413.496	23.549	1078.182	843.013
414.511	23.664	1077.627	843.047
415.526	23.569	1077.481	842.407
416.540	23.580	1076.877	841.914
417.555	23.562	1076.275	841.284
418.569	23.634	1075.970	841.312
419.584	23.595	1075.682	840.830
420.599	23.579	1075.328	840.400
421.613	149.084	1400.235	1798.807
422.628	137.524	1447.524	1798.889
