DTS Sentinel unit serial number:	SN413079Multiplexer serial number:	ORYXHardware model number:	OX4-SRSoftware version number:	ORYX F/W v4.00 Oryx Data Collector v3.7.2.0data status	okinstallation	princeton_trtdifferential loss correction	single-endedforward channel	channel 2reverse channel	N/Adate	2019/09/17time	11:27:35forward acquisition time	60.00reverse acquisition time	0.00gamma	496.2192k internal	0.2323k external	0.2323temperature offset calibration	0.9986default loss term (dB/km)	0.3790temperature slope calibration	1.0000multiplexer offset coefficient	1.0000multiplexer slope coefficient	1.0000fibre end	0.00T internal ref (°C)	30.62T ext. ref 1 (°C)	0.34T ext. ref 2 (°C)	26.41length (m)	temperature (°C)	Stokes	anti-Stokes-747.200	280.346	0.045	0.080
-746.185	93.104	-0.255	0.291
-745.171	-15.129	-0.189	0.122
-744.156	25.104	-0.197	0.165
-743.142	-80.730	-0.115	-0.039
-742.127	260.685	0.169	-0.296
-741.112	-168.258	0.275	0.011
-740.098	800.000	0.082	-0.286
-739.083	-86.703	-0.111	0.034
-738.069	-54.364	-0.169	0.077
-737.054	-96.175	-0.187	0.050
-736.039	629.309	-0.070	-0.178
-735.025	800.000	-0.057	0.202
-734.010	-7.597	0.186	-0.127
-732.996	-200.000	-0.001	0.105
-731.981	-82.402	0.120	-0.039
-730.966	4.984	0.155	-0.115
-729.952	-70.113	-0.364	-0.140
-728.937	390.627	-0.085	0.179
-727.923	18.389	-0.396	0.319
-726.908	-83.612	-0.291	-0.094
-725.894	-200.000	-0.036	0.168
-724.879	-98.949	-0.077	0.020
-723.864	-117.284	0.320	-0.059
-722.850	676.937	-0.125	0.328
-721.835	238.710	0.036	-0.060
-720.821	-31.968	-0.127	0.072
-719.806	-145.918	-0.343	0.031
-718.791	-200.000	0.007	-0.464
-717.777	458.487	0.072	-0.161
-716.762	-200.000	-0.039	0.236
-715.748	-127.887	0.183	0.026
-714.733	-200.000	0.056	0.000
-713.718	220.167	-0.140	-0.226
-712.704	284.356	-0.139	-0.252
-711.689	-200.000	0.030	-0.137
-710.675	355.622	-0.133	-0.268
-709.660	-200.000	-0.001	-0.175
-708.645	800.000	0.048	-0.139
-707.631	-199.291	-0.324	0.002
-706.616	75.229	-0.180	0.191
-705.602	-78.353	0.166	-0.057
-704.587	-27.858	-0.207	0.121
-703.572	2.040	-0.369	-0.269
-702.558	346.693	-0.164	0.326
-701.543	-52.213	0.147	0.069
-700.529	800.000	-0.069	0.222
-699.514	800.000	-0.093	-0.293
-698.499	46.858	-0.284	-0.266
-697.485	-200.000	-0.011	-0.368
-696.470	495.327	-0.148	0.343
-695.456	59.653	-0.202	-0.201
-694.441	-81.292	0.316	-0.105
-693.426	-41.667	0.266	0.138
-692.412	-200.000	0.198	0.000
-691.397	-200.000	0.024	0.140
-690.383	-200.000	0.011	-0.158
-689.368	145.724	-0.103	-0.139
-688.354	-10.000	0.266	-0.178
-687.339	-42.382	0.083	-0.042
-686.324	800.000	0.106	0.332
-685.310	335.204	-0.116	-0.226
-684.295	444.858	0.112	-0.248
-683.281	-25.108	-0.222	0.132
-682.266	-56.335	-0.040	-0.018
-681.251	29.341	-0.157	0.134
-680.237	-99.845	0.083	-0.021
-679.222	27.591	-0.162	0.137
-678.208	42.411	-0.090	-0.082
-677.193	-200.000	0.020	-0.121
-676.178	-37.977	0.111	0.059
-675.164	-200.000	-0.075	-0.358
-674.149	-4.481	-0.101	-0.070
-673.135	-154.474	-0.252	0.017
-672.120	-37.922	0.320	-0.171
-671.105	-200.000	0.008	-0.197
-670.091	-35.083	0.248	0.136
-669.076	-71.183	0.107	-0.041
-668.062	437.341	0.178	-0.390
-667.047	88.649	0.228	-0.255
-666.032	800.000	0.125	0.365
-665.018	-55.004	-0.194	-0.088
-664.003	552.387	0.087	-0.209
-662.989	-74.440	-0.211	-0.077
-661.974	-87.549	-0.223	0.068
-660.959	-108.533	-0.257	0.056
-659.945	-92.722	0.157	0.044
-658.930	-83.101	-0.412	-0.134
-657.916	254.273	-0.164	-0.282
-656.901	-200.000	-0.007	-0.106
-655.886	-133.761	-0.226	0.028
-654.872	28.357	-0.140	0.119
-653.857	76.009	-0.258	-0.274
-652.843	61.675	-0.330	0.331
-651.828	602.618	0.244	0.610
-650.814	-51.726	-0.121	0.057
-649.799	594.099	-0.095	-0.236
-648.784	261.723	0.058	0.102
-647.770	-41.215	-0.228	0.118
-646.755	-200.000	-0.008	0.118
-645.741	-200.000	0.010	-0.501
-644.726	231.536	0.215	0.355
-643.711	-176.695	0.200	-0.005
-642.697	800.000	0.120	0.365
-641.682	422.097	0.144	0.312
-640.668	-47.756	-0.171	0.083
-639.653	718.651	-0.122	0.326
-638.638	-200.000	0.036	0.185
-637.624	169.356	0.013	0.019
-636.609	12.780	-0.083	0.065
-635.595	800.000	0.068	-0.203
-634.580	800.000	-0.044	-0.136
-633.565	800.000	-0.016	0.048
-632.551	-107.688	-0.256	-0.056
-631.536	354.370	-0.197	0.393
-630.522	-135.923	0.205	0.024
-629.507	-27.915	0.207	0.121
-628.492	-34.947	-0.113	0.062
-627.478	65.954	0.068	0.069
-626.463	-200.000	0.003	-0.056
-625.449	-38.946	-0.096	0.051
-624.434	-61.740	-0.070	0.030
-623.419	-93.398	-0.142	0.040
-622.405	100.311	-0.133	0.155
-621.390	437.919	0.127	0.278
-620.376	-152.786	-0.321	-0.023
-619.361	-200.000	0.003	-0.258
-618.346	-200.000	0.066	-0.442
-617.332	9.952	0.408	-0.311
-616.317	-138.435	-0.230	-0.025
-615.303	-96.619	0.158	0.042
-614.288	800.000	-0.062	0.182
-613.273	800.000	0.031	-0.133
-612.259	800.000	0.085	0.336
-611.244	-200.000	-0.071	0.325
-610.230	-53.524	0.243	-0.112
-609.215	-53.761	0.312	-0.143
-608.201	-114.588	0.132	-0.025
-607.186	-200.000	-0.106	0.000
-606.171	579.301	-0.106	-0.261
-605.157	-39.324	-0.180	-0.095
-604.142	800.000	0.026	0.089
-603.128	-55.994	-0.183	0.082
-602.113	113.159	-0.187	0.228
-601.098	166.018	0.211	0.300
-600.084	23.916	-0.308	0.255
-599.069	-46.912	0.303	0.148
-598.055	-33.502	-0.058	-0.032
-597.040	19.093	-0.240	0.193
-596.025	-200.000	-0.014	-0.113
-595.011	120.196	0.131	0.164
-593.996	208.372	0.130	0.203
-592.982	13.765	0.180	-0.140
-591.967	800.000	0.092	-0.317
-590.952	80.358	0.175	-0.189
-589.938	78.500	-0.501	-0.537
-588.923	123.398	0.128	-0.161
-587.909	142.930	-0.210	-0.280
-586.894	184.641	0.169	0.252
-585.879	104.549	-0.023	0.028
-584.865	-110.454	-0.064	-0.013
-583.850	-22.283	-0.415	-0.253
-582.836	-96.855	0.080	0.021
-581.821	-47.618	-0.233	0.114
-580.806	293.530	0.112	-0.205
-579.792	520.447	0.087	0.204
-578.777	696.240	0.033	-0.086
-577.763	-200.000	-0.021	-0.379
-576.748	-200.000	-0.025	-0.193
-575.733	77.663	-0.100	-0.107
-574.719	147.977	0.097	-0.131
-573.704	387.815	0.063	-0.130
-572.690	-113.668	-0.266	-0.052
-571.675	-80.404	0.258	-0.087
-570.661	99.758	0.065	-0.076
-569.646	235.501	0.141	0.234
-568.631	449.180	0.075	-0.165
-567.617	-200.000	0.063	-0.320
-566.602	-200.000	0.006	0.108
-565.588	-200.000	-0.016	-0.081
-564.573	-16.711	0.141	0.090
-563.558	69.237	-0.119	-0.123
-562.544	-200.000	0.058	0.326
-561.529	282.822	-0.015	-0.026
-560.515	184.760	-0.112	-0.166
-559.500	-186.039	0.224	-0.003
-558.485	-165.418	-0.330	-0.014
-557.471	-123.691	-0.085	-0.014
-556.456	498.510	-0.019	-0.044
-555.442	-43.699	-0.507	-0.256
-554.427	-109.366	0.276	-0.059
-553.412	-18.463	0.104	0.065
-552.398	56.299	-0.172	0.167
-551.383	296.589	-0.022	0.040
-550.369	792.705	-0.163	-0.449
-549.354	-34.004	0.288	0.159
-548.339	62.658	0.075	0.075
-547.325	-200.000	-0.011	-0.105
-546.310	259.486	0.062	0.108
-545.296	800.000	-0.147	-0.436
-544.281	-72.443	-0.158	-0.058
-543.266	-173.165	0.132	-0.004
-542.252	-200.000	0.011	-0.453
-541.237	90.260	-0.114	0.128
-540.223	16.576	0.032	0.025
-539.208	-71.378	-0.219	0.082
-538.193	18.519	-0.222	-0.178
-537.179	582.424	-0.111	-0.273
-536.164	319.630	0.110	-0.209
-535.150	584.316	0.020	-0.050
-534.135	-43.045	-0.122	0.062
-533.121	-104.178	-0.148	-0.034
-532.106	-74.812	-0.308	-0.111
-531.091	-124.888	0.256	0.040
-530.077	142.561	0.171	0.227
-529.062	454.533	-0.080	0.178
-528.048	-200.000	0.007	0.350
-527.033	-200.000	0.015	0.083
-526.018	303.122	-0.152	-0.283
-525.004	467.188	-0.230	-0.515
-523.989	1.806	0.229	0.165
-522.975	-200.000	-0.020	-0.248
-521.960	257.053	-0.086	-0.148
-520.945	-12.517	0.044	0.029
-519.931	159.379	0.150	-0.208
-518.916	90.145	-0.010	-0.011
-517.902	292.092	-0.076	0.139
-516.887	-200.000	0.011	-0.598
-515.872	45.985	-0.222	0.205
-514.858	124.293	-0.132	0.166
-513.843	-75.732	0.158	0.056
-512.829	-98.207	-0.246	-0.063
-511.814	-47.556	-0.265	0.129
-510.799	-25.120	0.081	-0.048
-509.785	-130.646	-0.093	0.013
-508.770	-58.987	0.072	0.031
-507.756	402.256	0.060	0.126
-506.741	-148.510	-0.202	0.017
-505.726	-143.484	-0.142	0.014
-504.712	-200.000	0.013	-0.071
-503.697	-200.000	-0.014	-0.122
-502.683	-126.620	-0.179	0.026
-501.668	190.923	-0.178	0.268
-500.653	40.659	0.140	-0.126
-499.639	-156.150	0.290	0.018
-498.624	-138.563	0.267	0.029
-497.610	271.123	0.102	-0.179
-496.595	800.000	-0.021	0.070
-495.581	404.190	-0.077	0.162
-494.566	4.773	0.281	-0.207
-493.551	-28.192	-0.218	0.126
-492.537	-183.588	0.192	-0.003
-491.522	-143.417	-0.325	0.031
-490.508	-131.512	-0.321	-0.042
-489.493	62.838	0.127	-0.127
-488.478	-87.961	-0.077	0.023
-487.464	-168.557	-0.351	0.013
-486.449	800.000	0.051	-0.193
-485.435	456.856	0.144	0.320
-484.420	83.275	0.145	-0.158
-483.405	-200.000	-0.005	-0.094
-482.391	-64.901	-0.215	-0.087
-481.376	107.826	0.135	-0.161
-480.362	-200.000	-0.035	0.224
-479.347	-88.810	0.076	0.023
-478.332	278.716	-0.103	-0.184
-477.318	-200.000	-0.166	0.000
-476.303	-53.676	0.334	-0.153
-475.289	-200.000	-0.001	0.055
-474.274	534.607	-0.089	0.210
-473.259	168.416	-0.077	0.110
-472.245	98.006	0.102	0.117
-471.230	100.013	-0.050	-0.058
-470.216	21.010	0.251	0.203
-469.201	-145.738	0.118	-0.010
-468.186	-200.000	0.044	0.364
-467.172	52.496	0.077	0.073
-466.157	145.003	-0.013	0.017
-465.143	-196.687	0.194	-0.001
-464.128	-200.000	-0.016	0.154
-463.113	199.957	-0.169	-0.258
-462.099	83.415	-0.121	-0.132
-461.084	800.000	-0.022	-0.090
-460.070	5.883	0.102	0.076
-459.055	-3.376	0.254	0.176
-458.040	272.193	0.120	-0.212
-457.026	-147.661	-0.281	-0.024
-456.011	-104.801	-0.114	-0.026
-454.997	-200.000	-0.035	0.158
-453.982	87.295	-0.192	-0.212
-452.968	177.260	-0.119	-0.173
-451.953	-85.131	-0.152	-0.047
-450.938	-39.408	-0.132	-0.069
-449.924	800.000	-0.039	-0.168
-448.909	21.493	0.083	-0.067
-447.895	-200.000	-0.042	0.209
-446.880	344.455	0.108	0.212
-445.865	-96.437	-0.435	-0.115
-444.851	-113.681	-0.181	-0.035
-443.836	-200.000	0.007	0.300
-442.822	-85.916	0.326	0.101
-441.807	-200.000	-0.011	-0.051
-440.792	55.197	-0.077	0.074
-439.778	27.821	0.068	0.057
-438.763	46.610	0.315	-0.292
-437.749	-200.000	-0.007	0.081
-436.734	-11.796	0.032	-0.021
-435.719	-186.662	-0.155	0.002
-434.705	49.075	0.141	-0.132
-433.690	-76.112	-0.303	0.107
-432.676	179.059	0.167	-0.244
-431.661	52.376	-0.094	0.089
-430.646	-21.003	0.144	-0.088
-429.632	45.520	-0.263	-0.242
-428.617	85.488	0.073	0.080
-427.603	-127.718	-0.240	-0.035
-426.588	67.978	0.221	-0.225
-425.573	-146.417	0.157	-0.014
-424.559	210.202	-0.206	0.323
-423.544	800.000	0.020	0.076
-422.530	225.854	0.066	-0.106
-421.515	268.930	0.055	-0.096
-420.500	-29.300	0.204	0.116
-419.486	147.343	0.106	0.143
-418.471	-200.000	-0.005	0.132
-417.457	-200.000	0.015	0.234
-416.442	238.756	-0.155	0.256
-415.428	-112.532	-0.171	-0.034
-414.413	70.425	0.167	-0.172
-413.398	-160.409	0.120	-0.006
-412.384	-200.000	0.018	0.082
-411.369	63.966	-0.106	0.106
-410.355	-200.000	-0.012	0.266
-409.340	68.728	-0.176	-0.180
-408.325	31.209	0.104	0.089
-407.311	-124.826	0.247	0.038
-406.296	-134.121	-0.296	-0.036
-405.282	412.205	0.100	-0.211
-404.267	-80.105	-0.175	-0.059
-403.252	-200.000	-0.003	0.060
-402.238	-9.452	0.022	-0.014
-401.223	800.000	-0.083	-0.334
-400.209	-57.844	-0.085	0.037
-399.194	-106.492	-0.228	0.051
-398.179	12.607	0.146	0.112
-397.165	800.000	-0.044	0.149
-396.150	800.000	0.034	0.101
-395.136	660.772	-0.153	-0.392
-394.121	379.564	0.079	0.161
-393.106	-145.372	-0.069	0.006
-392.092	222.033	-0.089	-0.142
-391.077	109.697	-0.078	-0.093
-390.063	702.725	-0.121	-0.316
-389.048	162.176	-0.008	0.012
-388.033	-200.000	-0.001	0.102
-387.019	85.402	0.112	-0.122
-386.004	107.518	0.051	-0.060
-384.990	-117.392	0.238	-0.043
-383.975	298.668	0.051	-0.094
-382.960	299.194	0.028	-0.051
-381.946	-84.188	-0.066	-0.021
-380.931	187.197	0.140	0.208
-379.917	203.444	0.076	-0.118
-378.902	475.884	0.199	-0.447
-377.888	800.000	0.023	0.078
-376.873	774.204	-0.141	-0.384
-375.858	49.209	0.103	-0.096
-374.844	186.058	-0.127	0.188
-373.829	-61.953	-0.504	0.210
-372.815	-158.453	0.105	0.006
-371.800	-19.185	-0.203	-0.126
-370.785	800.000	0.023	0.073
-369.771	-27.123	0.184	-0.107
-368.756	-161.420	-0.310	-0.016
-367.742	-72.366	-0.334	0.123
-366.727	-97.364	0.259	0.067
-365.712	101.805	0.188	-0.218
-364.698	76.057	-0.111	0.117
-363.683	3.604	0.130	-0.094
-362.669	800.000	0.031	0.127
-361.654	89.711	0.254	0.282
-360.639	-139.568	0.027	-0.003
-359.625	-18.441	0.126	-0.078
-358.610	-7.314	0.076	0.051
-357.596	-200.000	0.023	0.164
-356.581	800.000	-0.116	-0.458
-355.566	-35.589	-0.241	-0.130
-354.552	-0.133	0.202	0.143
-353.537	-126.559	0.578	0.085
-352.523	137.985	0.120	0.156
-351.508	-142.663	-0.304	0.030
-350.493	250.882	-0.032	-0.055
-349.479	75.416	-0.187	-0.196
-348.464	-104.190	0.176	0.041
-347.450	-200.000	0.023	0.187
-346.435	-8.753	-0.204	0.136
-345.420	-36.600	0.439	0.235
-344.406	-86.780	0.062	-0.019
-343.391	-45.381	0.244	0.120
-342.377	520.413	0.215	0.502
-341.362	-2.444	0.232	-0.162
-340.348	-200.000	-0.052	0.257
-339.333	94.522	-0.145	0.164
-338.318	-61.184	0.080	0.034
-337.304	52.878	-0.214	0.203
-336.289	-200.000	-0.018	-0.334
-335.275	4.839	-0.249	-0.182
-334.260	-22.712	-0.096	0.058
-333.245	10.418	-0.190	0.144
-332.231	-43.761	0.106	-0.053
-331.216	89.653	0.223	-0.247
-330.202	-73.043	0.284	-0.104
-329.187	-66.726	-0.292	-0.115
-328.172	-108.645	-0.369	0.079
-327.158	-38.594	0.383	0.201
-326.143	-5.214	0.088	-0.060
-325.129	-151.931	-0.261	-0.019
-324.114	-10.173	-0.092	-0.061
-323.099	-145.332	0.021	-0.002
-322.085	-200.000	-0.001	-0.039
-321.070	-43.703	-0.229	-0.114
-320.056	-128.402	0.304	-0.043
-319.041	-113.109	0.086	0.017
-318.026	203.764	-0.040	0.061
-317.012	-56.551	-0.134	-0.059
-315.997	-200.000	-0.040	0.443
-314.983	26.248	0.115	0.095
-313.968	-200.000	-0.025	-0.117
-312.953	131.162	0.144	0.183
-311.939	174.343	-0.100	0.143
-310.924	-56.380	-0.175	-0.077
-309.910	-27.636	0.117	-0.068
-308.895	153.089	-0.135	-0.184
-307.880	39.130	-0.145	0.129
-306.866	800.000	0.068	-0.277
-305.851	-34.177	-0.364	0.198
-304.837	89.879	0.146	0.162
-303.822	800.000	0.032	0.124
-302.807	18.219	-0.268	0.213
-301.793	-200.000	0.027	-0.381
-300.778	-178.919	0.253	0.006
-299.764	-200.000	-0.013	-0.069
-298.749	-38.216	-0.256	0.135
-297.735	-183.382	-0.080	-0.001
-296.720	138.017	-0.064	-0.083
-295.705	800.000	0.096	0.377
-294.691	800.000	0.051	0.176
-293.676	89.498	-0.043	0.047
-292.662	92.360	-0.195	-0.219
-291.647	800.000	-0.033	0.126
-290.632	-64.557	-0.185	-0.074
-289.618	800.000	0.084	-0.260
-288.603	27.934	0.247	0.207
-287.589	-200.000	-0.003	0.211
-286.574	148.507	-0.096	0.129
-285.559	-200.000	-0.002	0.285
-284.545	-200.000	0.004	-0.051
-283.530	-163.178	0.076	-0.004
-282.516	-142.623	-0.261	-0.025
-281.501	-200.000	0.031	0.000
-280.486	46.125	-0.159	0.146
-279.472	-19.947	0.328	0.201
-278.457	154.660	-0.136	0.186
-277.443	-50.158	0.425	0.200
-276.428	466.331	-0.155	-0.344
-275.413	-67.958	-0.140	-0.054
-274.399	302.667	0.011	0.021
-273.384	800.000	0.087	0.339
-272.370	-78.023	-0.442	0.151
-271.355	-117.828	-0.203	-0.036
-270.340	330.694	0.093	0.177
-269.326	20.801	0.209	0.168
-268.311	142.213	0.099	-0.130
-267.297	23.052	0.239	-0.195
-266.282	-18.386	-0.234	0.145
-265.267	271.644	0.103	0.180
-264.253	-200.000	0.044	-0.201
-263.238	-67.265	0.295	-0.115
-262.224	-89.766	-0.160	0.046
-261.209	182.566	-0.078	-0.114
-260.195	127.767	-0.060	0.076
-259.180	4.374	0.163	-0.119
-258.165	-79.685	0.129	-0.043
-257.151	511.819	-0.071	-0.164
-256.136	216.013	-0.158	-0.248
-255.122	800.000	-0.092	-0.317
-254.107	103.427	-0.097	0.112
-253.092	-200.000	-0.004	0.030
-252.078	-200.000	-0.013	-0.294
-251.063	-18.250	-0.335	-0.207
-250.049	319.955	-0.159	-0.298
-249.034	-152.848	0.154	0.011
-248.019	-70.587	0.162	0.061
-247.005	-97.270	-0.204	0.053
-245.990	-89.541	-0.324	0.094
-244.976	23.913	0.395	0.323
-243.961	385.739	0.033	0.067
-242.946	-98.992	0.075	-0.019
-241.932	-200.000	0.030	0.171
-240.917	-75.911	-0.155	0.054
-239.903	110.862	0.095	-0.113
-238.888	-75.127	-0.244	-0.086
-237.873	243.361	0.099	-0.165
-236.859	-153.902	-0.043	0.003
-235.844	-200.000	-0.011	-0.073
-234.830	-117.364	0.301	0.054
-233.815	64.157	0.103	-0.103
-232.800	-200.000	-0.010	-0.268
-231.786	800.000	-0.125	-0.400
-230.771	-44.626	-0.063	0.031
-229.757	-4.318	0.127	0.087
-228.742	-77.543	0.203	0.070
-227.727	223.879	-0.126	0.202
-226.713	-176.119	-0.440	-0.011
-225.698	22.845	0.146	-0.118
-224.684	-16.568	0.151	0.095
-223.669	-124.967	-0.082	0.013
-222.655	399.377	0.136	0.282
-221.640	37.308	-0.165	0.145
-220.625	707.626	0.047	-0.123
-219.611	-106.714	0.305	-0.067
-218.596	67.152	-0.335	-0.338
-217.582	-49.901	0.123	0.058
-216.567	-76.179	0.228	0.079
-215.552	127.355	0.131	0.164
-214.538	800.000	0.054	-0.161
-213.523	186.174	0.143	0.211
-212.509	-194.503	0.307	-0.002
-211.494	-80.340	0.180	0.059
-210.479	-162.644	-0.105	-0.005
-209.465	800.000	0.072	0.209
-208.450	737.516	0.017	0.046
-207.436	2.338	-0.198	-0.142
-206.421	-53.301	0.157	0.071
-205.406	130.813	-0.069	0.087
-204.392	145.501	-0.051	-0.067
-203.377	476.702	0.039	-0.087
-202.363	458.192	0.051	0.112
-201.348	117.659	0.159	-0.193
-200.333	386.376	0.097	0.197
-199.319	32.012	0.158	-0.135
-198.304	-70.165	-0.340	-0.128
-197.290	-200.000	0.000	-0.329
-196.275	-3.097	-0.281	0.193
-195.260	314.538	-0.121	-0.224
-194.246	-173.671	0.164	0.005
-193.231	800.000	0.038	-0.106
-192.217	800.000	0.040	0.166
-191.202	-200.000	-0.002	-0.120
-190.187	-44.676	-0.254	-0.125
-189.173	800.000	0.065	-0.272
-188.158	122.808	0.184	-0.228
-187.144	74.912	0.175	0.182
-186.129	-57.013	0.303	0.132
-185.114	-5.062	0.145	0.099
-184.100	187.638	0.238	0.351
-183.085	-200.000	0.016	-0.278
-182.071	800.000	0.081	0.301
-181.056	-200.000	-0.015	-0.069
-180.042	35.045	0.112	-0.097
-179.027	-12.422	0.177	0.114
-178.012	184.506	-0.079	0.115
-176.998	291.486	-0.144	0.259
-175.983	-200.000	0.092	-0.000
-174.969	5.246	0.028	-0.020
-173.954	-200.000	0.050	-0.241
-172.939	117.024	0.152	0.184
-171.925	62.860	-0.254	0.251
-170.910	-200.000	-0.006	0.119
-169.896	57.777	0.157	0.152
-168.881	-40.027	-0.228	-0.118
-167.866	-200.000	0.033	0.183
-166.852	232.284	0.066	-0.108
-165.837	36.851	0.301	-0.263
-164.823	36.814	0.241	0.210
-163.808	0.655	0.318	0.224
-162.793	292.669	-0.062	-0.111
-161.779	-115.559	0.175	-0.033
-160.764	-109.452	-0.108	-0.023
-159.750	372.064	0.100	0.201
-158.735	-171.188	0.091	0.003
-157.720	158.900	-0.037	0.051
-156.706	-30.119	0.159	0.089
-155.691	-58.546	0.317	0.136
-154.677	71.009	-0.057	0.058
-153.662	-200.000	-0.013	-0.095
-152.647	-13.969	-0.218	0.139
-151.633	-103.833	0.407	0.094
-150.618	800.000	0.036	-0.115
-149.604	-68.994	0.189	0.072
-148.589	-88.958	-0.031	-0.009
-147.574	793.086	-0.120	0.326
-146.560	-157.497	0.254	0.015
-145.545	-200.000	-0.021	0.194
-144.531	70.566	0.183	0.186
-143.516	269.311	-0.097	-0.167
-142.502	-124.231	0.499	0.077
-141.487	1.327	-0.311	-0.220
-140.472	-200.000	0.025	0.223
-139.458	-200.000	-0.107	-0.000
-138.443	-39.085	-0.191	0.099
-137.429	90.291	0.200	0.220
-136.414	-12.224	-0.136	0.088
-135.399	-21.288	0.279	0.168
-134.385	800.000	0.031	0.101
-133.370	331.318	-0.168	-0.319
-132.356	-98.919	-0.207	-0.052
-131.341	-147.152	-0.347	0.029
-130.326	-158.653	0.462	-0.026
-129.312	-76.289	-0.159	-0.055
-128.297	-43.216	0.324	-0.162
-127.283	-88.658	0.380	0.111
-126.268	37.483	0.029	-0.025
-125.253	800.000	0.067	0.246
-124.239	-200.000	0.011	-0.164
-123.224	436.185	0.066	0.142
-122.210	-107.187	-0.219	-0.048
-121.195	800.000	0.071	-0.240
-120.180	-87.981	-0.098	0.029
-119.166	244.207	-0.105	-0.174
-118.151	-96.575	0.324	-0.084
-117.137	90.398	-0.090	-0.099
-116.122	-72.127	0.141	0.052
-115.107	24.730	0.145	0.119
-114.093	70.648	-0.067	0.068
-113.078	52.990	-0.258	-0.244
-112.064	-108.190	0.273	0.058
-111.049	-200.000	0.004	0.185
-110.034	-89.983	-0.159	0.046
-109.020	-200.000	-0.008	0.255
-108.005	27.830	0.110	0.091
-106.991	-54.563	0.210	0.094
-105.976	-52.559	-0.383	0.174
-104.962	-71.186	0.397	0.147
-103.947	-137.462	-0.222	-0.025
-102.932	27.831	-0.087	0.072
-101.918	342.368	0.097	-0.188
-100.903	-200.000	-0.004	0.183
-99.889	365.601	0.116	0.229
-98.874	-128.142	-0.193	0.027
-97.859	620.727	0.027	-0.066
-96.845	-30.817	-0.185	-0.103
-95.830	-7.584	-0.133	-0.089
-94.816	-200.000	-0.032	-0.155
-93.801	3.229	-0.382	0.274
-92.786	124.689	0.213	-0.264
-91.772	-200.000	0.020	-0.247
-90.757	246.454	0.090	-0.149
-89.743	-200.000	0.004	0.271
-88.728	-87.490	-0.286	0.085
-87.713	-37.519	0.151	-0.079
-86.699	-200.000	-0.068	0.362
-85.684	-133.121	-0.320	0.040
-84.670	-187.037	0.222	-0.003
-83.655	26.066	-0.222	0.182
-82.640	-51.501	-0.126	0.058
-81.626	800.000	-0.052	0.199
-80.611	525.560	0.030	0.069
-79.597	275.814	-0.046	0.080
-78.582	-103.545	-0.351	0.081
-77.567	-135.796	0.533	-0.062
-76.553	13.533	-0.188	0.143
-75.538	653.784	0.106	0.267
-74.524	-200.000	-0.020	-0.256
-73.509	484.030	0.120	-0.269
-72.494	186.938	0.104	-0.153
-71.480	453.376	-0.148	-0.322
-70.465	-193.874	0.228	0.002
-69.451	-200.000	-0.007	0.520
-68.436	800.000	0.028	-0.092
-67.422	403.513	0.069	0.143
-66.407	1.039	0.196	0.138
-65.392	-200.000	-0.011	-0.131
-64.378	528.053	0.040	0.092
-63.363	-159.954	0.108	0.006
-62.349	18.519	0.232	0.182
-61.334	-7.625	-1.142	-0.759
-60.319	55.409	0.507	0.482
-59.305	800.000	-0.340	-1.009
-58.290	111.750	0.821	0.975
-57.276	232.323	0.638	1.030
-56.261	-200.000	101.517	582.837
-55.246	485.401	1437.310	3218.305
-54.232	150.660	2630.167	3512.759
-53.217	103.097	2299.171	2648.123
-52.203	39.875	1914.623	1689.468
-51.188	33.753	1702.744	1455.677
-50.173	31.212	1658.570	1398.846
-49.159	49.189	1708.306	1577.872
-48.144	50.257	1724.337	1600.734
-47.130	33.453	1684.044	1437.189
-46.115	30.755	1669.483	1404.376
-45.100	30.600	1665.255	1399.596
-44.086	30.507	1662.511	1396.539
-43.071	30.526	1660.208	1394.694
-42.057	30.511	1657.802	1392.506
-41.042	30.529	1655.521	1390.663
-40.027	30.551	1653.288	1388.897
-39.013	30.482	1651.563	1386.879
-37.998	30.396	1650.672	1385.433
-36.984	30.597	1649.034	1385.504
-35.969	30.648	1647.247	1384.325
-34.954	30.632	1645.823	1382.953
-33.940	30.518	1644.471	1380.916
-32.925	30.593	1642.558	1379.812
-31.911	30.668	1639.936	1378.110
-30.896	30.655	1638.687	1376.910
-29.881	30.713	1636.853	1375.741
-28.867	30.641	1635.241	1373.802
-27.852	30.590	1634.101	1372.414
-26.838	30.621	1632.294	1371.070
-25.823	30.731	1630.786	1370.563
-24.809	30.693	1630.191	1369.726
-23.794	30.653	1628.359	1367.836
-22.779	30.665	1626.863	1366.617
-21.765	30.709	1624.908	1365.239
-20.750	30.636	1623.848	1363.759
-19.736	30.673	1622.292	1362.671
-18.721	30.653	1620.731	1361.159
-17.706	30.617	1619.064	1359.446
-16.692	30.574	1617.557	1357.809
-15.677	30.619	1616.016	1356.788
-14.663	30.620	1615.230	1356.083
-13.648	30.681	1613.579	1355.089
-12.633	30.657	1612.055	1353.584
-11.619	30.659	1610.640	1352.355
-10.604	30.658	1608.908	1350.840
-9.590	30.659	1607.591	1349.684
-8.575	30.739	1606.251	1349.090
-7.560	30.676	1605.321	1347.799
-6.546	30.609	1604.383	1346.472
-5.531	30.567	1603.422	1345.304
-4.517	30.612	1602.154	1344.516
-3.502	30.616	1600.577	1343.163
-2.487	30.689	1599.047	1342.354
-1.473	30.500	1587.438	1331.201
-0.458	27.909	1568.245	1296.691
0.556	22.801	1569.808	1265.266
1.571	20.437	1594.047	1267.460
2.586	20.051	1607.586	1275.268
3.600	18.450	1554.951	1221.999
4.615	10.429	1443.385	1080.918
5.629	2.227	1377.051	978.788
6.644	0.429	1368.723	961.328
7.659	0.305	1367.383	959.511
8.673	0.364	1366.509	959.188
9.688	0.263	1364.702	957.195
10.702	0.128	1361.315	953.879
11.717	3.853	1368.438	982.484
12.731	12.639	1381.657	1048.048
13.746	17.641	1387.724	1084.465
14.761	17.412	1386.006	1081.569
15.775	16.458	1383.647	1073.581
16.790	15.427	1380.956	1064.859
17.804	14.581	1378.900	1057.813
18.819	14.305	1377.358	1054.794
19.834	14.026	1375.919	1051.829
20.848	13.757	1374.688	1049.099
21.863	13.518	1373.267	1046.408
22.877	13.257	1372.488	1044.074
23.892	13.237	1372.043	1043.517
24.907	13.250	1370.264	1042.156
25.921	13.320	1369.528	1041.943
26.936	13.316	1368.821	1041.288
27.950	13.332	1367.971	1040.648
28.965	13.407	1366.676	1040.047
29.980	13.459	1365.878	1039.672
30.994	13.549	1364.971	1039.456
32.009	13.617	1363.858	1038.939
33.023	13.596	1362.814	1037.919
34.038	13.541	1361.515	1036.493
35.053	13.493	1360.252	1035.143
36.067	13.508	1359.397	1034.496
37.082	13.399	1358.636	1033.140
38.096	13.453	1357.687	1032.666
39.111	13.539	1356.404	1032.138
40.126	13.393	1356.446	1031.165
41.140	13.383	1355.165	1030.041
42.155	13.330	1354.835	1029.365
43.169	13.253	1354.809	1028.778
44.184	13.242	1354.684	1028.521
45.199	13.305	1353.900	1028.230
46.213	13.336	1353.819	1028.266
47.228	13.319	1352.392	1026.989
48.242	13.454	1351.055	1026.719
49.257	13.469	1349.414	1025.478
50.271	13.474	1348.120	1024.434
51.286	13.455	1346.788	1023.211
52.301	13.478	1345.609	1022.366
53.315	13.348	1344.671	1020.762
54.330	13.498	1343.648	1020.822
55.344	13.359	1342.404	1018.928
56.359	13.258	1341.649	1017.642
57.374	13.333	1340.582	1017.206
58.388	13.249	1339.797	1016.000
59.403	13.377	1338.847	1015.976
60.417	13.317	1338.446	1015.218
61.432	13.301	1337.414	1014.245
62.447	13.218	1336.703	1013.107
63.461	13.170	1335.769	1012.014
64.476	13.151	1334.747	1011.035
65.490	13.314	1332.824	1010.488
66.505	13.223	1331.604	1008.919
67.520	13.310	1329.972	1008.123
68.534	13.278	1329.006	1007.107
69.549	13.273	1328.199	1006.372
70.563	13.183	1327.223	1004.998
71.578	13.179	1326.346	1004.221
72.593	13.264	1324.971	1003.606
73.607	13.148	1324.130	1002.174
74.622	13.122	1323.849	1001.719
75.636	13.169	1322.920	1001.212
76.651	13.175	1321.955	1000.430
77.666	13.230	1321.351	1000.217
78.680	13.127	1321.028	999.257
79.695	13.209	1319.667	998.639
80.709	13.209	1319.243	998.229
81.724	13.265	1318.754	998.108
82.739	13.312	1317.451	997.319
83.753	13.437	1316.406	997.188
84.768	13.397	1315.295	996.019
85.782	13.463	1314.586	995.791
86.797	13.363	1313.084	993.966
87.812	13.353	1311.932	992.943
88.826	13.350	1310.686	991.898
89.841	13.395	1309.826	991.428
90.855	13.514	1308.585	991.112
91.870	13.491	1307.687	990.206
92.884	13.525	1307.377	990.087
93.899	13.507	1306.574	989.284
94.914	13.575	1305.482	988.775
95.928	13.488	1304.810	987.659
96.943	13.454	1303.733	986.559
97.957	13.420	1303.259	985.909
98.972	13.437	1302.136	985.074
99.987	13.507	1300.990	984.534
101.001	13.573	1299.487	983.702
102.016	13.469	1298.799	982.475
103.030	13.450	1298.187	981.814
104.045	13.517	1297.546	981.637
105.060	13.430	1296.183	980.003
106.074	13.481	1294.729	979.121
107.089	13.342	1293.602	977.361
108.103	13.305	1292.458	976.192
109.118	13.220	1290.869	974.407
110.133	13.322	1289.763	974.082
111.147	13.277	1288.652	972.896
112.162	13.246	1287.178	971.515
113.176	13.367	1285.896	971.169
114.191	13.492	1285.011	971.148
115.206	13.390	1284.581	970.140
116.220	13.467	1282.767	969.136
117.235	13.315	1282.058	967.624
118.249	13.331	1281.002	966.837
119.264	13.364	1279.622	965.902
120.279	13.488	1278.255	965.505
121.293	13.317	1278.036	964.256
122.308	13.286	1276.812	963.070
123.322	13.274	1275.368	961.823
124.337	13.330	1274.767	961.612
125.352	13.368	1273.235	960.595
126.366	13.305	1272.404	959.517
127.381	13.304	1271.321	958.608
128.395	13.323	1270.363	957.912
129.410	13.353	1269.446	957.307
130.424	13.344	1268.666	956.585
131.439	13.426	1267.766	956.295
132.454	13.375	1266.767	955.160
133.468	13.435	1265.421	954.409
134.483	13.552	1264.730	954.477
135.497	13.423	1263.864	952.995
136.512	13.512	1262.334	952.267
137.527	13.490	1260.905	950.982
138.541	13.413	1259.781	949.607
139.556	13.443	1258.817	948.971
140.570	13.404	1257.810	947.900
141.585	13.571	1256.039	947.438
142.600	13.567	1255.205	946.702
143.614	13.586	1254.408	946.124
144.629	13.582	1253.402	945.263
145.643	13.545	1252.066	943.958
146.658	13.564	1250.738	942.984
147.673	13.537	1249.498	941.813
148.687	13.494	1248.439	940.683
149.702	13.485	1247.113	939.553
150.716	13.461	1245.483	938.103
151.731	13.572	1244.324	937.774
152.746	13.577	1243.152	936.838
153.760	13.438	1242.417	935.415
154.775	13.619	1240.735	935.088
155.789	13.654	1239.890	934.569
156.804	13.590	1238.985	933.443
157.819	13.701	1237.931	933.190
158.833	13.615	1237.288	932.137
159.848	13.807	1235.713	931.946
160.862	13.779	1234.741	930.974
161.877	13.677	1233.509	929.395
162.892	13.617	1232.695	928.358
163.906	13.549	1231.883	927.283
164.921	13.692	1230.555	927.004
165.935	13.622	1230.133	926.213
166.950	13.724	1229.065	925.895
167.964	13.673	1228.367	925.001
168.979	13.676	1228.036	924.687
169.994	13.739	1226.885	924.093
171.008	13.639	1226.627	923.257
172.023	13.702	1225.488	922.668
173.037	13.887	1224.564	922.922
174.052	13.788	1223.753	921.682
175.067	13.756	1222.651	920.587
176.081	13.742	1221.780	919.777
177.096	13.704	1220.737	918.697
178.110	13.770	1219.532	918.075
179.125	13.840	1218.286	917.445
180.140	13.777	1217.212	916.206
181.154	13.779	1216.044	915.257
182.169	13.875	1215.022	914.934
183.183	13.944	1213.605	914.167
184.198	13.866	1212.365	912.722
185.213	13.953	1211.522	912.484
186.227	13.941	1210.474	911.550
187.242	14.019	1209.221	910.953
188.256	14.017	1208.232	910.114
189.271	13.981	1208.081	909.726
190.286	13.908	1206.702	908.205
191.300	13.823	1205.731	906.933
192.315	13.764	1204.941	905.933
193.329	13.799	1204.111	905.421
194.344	13.885	1203.793	905.570
195.359	13.964	1202.838	905.202
196.373	13.981	1202.244	904.770
197.388	14.008	1202.184	904.792
198.402	14.103	1201.532	904.738
199.417	14.202	1200.449	904.378
200.432	14.245	1199.614	903.905
201.446	14.202	1199.284	903.340
202.461	14.285	1198.128	902.839
203.475	14.342	1197.008	902.225
204.490	14.259	1195.949	900.900
205.504	14.249	1194.775	899.881
206.519	14.178	1193.462	898.429
207.534	14.079	1192.483	897.077
208.548	14.192	1191.410	896.799
209.563	14.139	1190.850	896.014
210.577	14.176	1189.662	895.241
211.592	14.183	1189.330	894.949
212.607	14.412	1187.922	895.038
213.621	14.222	1187.338	893.501
214.636	14.305	1186.446	893.193
215.650	14.391	1185.574	892.922
216.665	14.384	1184.862	892.269
217.680	14.470	1183.403	891.550
218.694	14.506	1182.828	891.231
219.709	14.339	1182.311	889.872
220.723	14.390	1181.351	889.339
221.738	14.506	1180.311	889.097
222.753	14.433	1179.967	888.370
223.767	14.426	1179.191	887.670
224.782	14.482	1178.051	887.030
225.796	14.565	1177.764	887.177
226.811	14.509	1177.234	886.405
227.826	14.570	1176.306	885.948
228.840	14.503	1175.708	885.068
229.855	14.594	1174.734	884.736
230.869	14.510	1174.220	883.827
231.884	14.441	1173.699	882.990
232.899	14.512	1172.443	882.341
233.913	14.478	1172.289	881.967
234.928	14.505	1171.445	881.397
235.942	14.505	1170.341	880.488
236.957	14.482	1169.663	879.779
237.972	14.596	1168.897	879.727
238.986	14.454	1168.363	878.501
240.001	14.488	1167.598	878.025
241.015	14.470	1166.692	877.171
242.030	14.605	1165.816	877.148
243.045	14.693	1164.702	876.694
244.059	14.643	1164.492	876.194
245.074	14.651	1163.360	875.306
246.088	14.758	1162.427	875.090
247.103	14.721	1161.859	874.389
248.117	14.736	1161.173	873.872
249.132	14.872	1160.124	873.717
250.147	14.902	1159.775	873.536
251.161	14.957	1159.346	873.420
252.176	14.913	1158.434	872.430
253.190	14.892	1157.825	871.782
254.205	15.069	1157.184	872.147
255.220	15.062	1156.684	871.656
256.234	15.095	1155.778	871.064
257.249	15.147	1154.838	870.552
258.263	15.185	1154.291	870.259
259.278	15.111	1153.403	869.127
260.293	15.093	1153.459	869.002
261.307	15.087	1152.650	868.283
262.322	15.090	1152.280	867.943
263.336	15.174	1151.400	867.637
264.351	15.133	1151.041	867.077
265.366	15.263	1150.054	866.929
266.380	15.171	1149.402	865.888
267.395	15.149	1148.417	864.953
268.409	15.268	1147.601	864.877
269.424	15.186	1147.155	864.043
270.439	15.076	1146.548	862.939
271.453	15.161	1146.262	863.088
272.468	15.153	1144.823	861.887
273.482	15.172	1144.023	861.306
274.497	15.224	1143.865	861.377
275.512	15.248	1142.914	860.711
276.526	15.174	1142.469	859.917
277.541	15.306	1141.408	859.722
278.555	15.355	1140.744	859.396
279.570	15.386	1139.985	858.905
280.585	15.413	1139.170	858.355
281.599	15.433	1138.026	857.515
282.614	15.391	1137.403	856.756
283.628	15.450	1136.039	855.956
284.643	15.309	1135.298	854.604
285.657	15.379	1134.360	854.177
286.672	15.557	1133.409	854.291
287.687	15.504	1132.763	853.458
288.701	15.460	1132.214	852.748
289.716	15.396	1131.226	851.602
290.730	15.464	1130.676	851.458
291.745	15.505	1130.003	851.084
292.760	15.518	1129.067	850.368
293.774	15.539	1128.795	850.195
294.789	15.527	1128.202	849.615
295.803	15.580	1127.376	849.186
296.818	15.607	1126.834	848.837
297.833	15.447	1126.368	847.602
298.847	15.637	1125.153	847.570
299.862	15.692	1124.205	847.060
300.876	15.598	1123.429	845.929
301.891	15.714	1122.834	845.987
302.906	15.682	1122.126	845.219
303.920	15.826	1121.457	845.365
304.935	15.757	1121.186	844.736
305.949	15.842	1120.337	844.451
306.964	15.809	1119.732	843.755
307.979	15.850	1118.635	843.055
308.993	15.851	1118.167	842.635
310.008	15.885	1117.373	842.131
311.022	15.950	1116.114	841.432
312.037	15.868	1115.758	840.679
313.052	15.815	1114.513	839.406
314.066	15.804	1114.039	838.920
315.081	15.824	1113.033	838.186
316.095	15.802	1112.428	837.547
317.110	15.845	1112.015	837.378
318.125	15.844	1111.077	836.592
319.139	15.864	1110.318	836.043
320.154	15.819	1109.657	835.251
321.168	15.886	1108.892	834.932
322.183	15.779	1109.004	834.410
323.197	15.880	1107.926	834.027
324.212	15.913	1107.240	833.601
325.227	15.948	1106.434	833.095
326.241	15.863	1106.113	832.356
327.256	15.983	1105.098	832.113
328.270	15.984	1103.822	831.081
329.285	15.960	1103.646	830.760
330.300	15.954	1102.591	829.862
331.314	16.012	1101.374	829.159
332.329	15.988	1100.374	828.214
333.343	16.039	1099.736	827.910
334.358	16.024	1098.704	826.985
335.373	16.035	1098.337	826.690
336.387	16.126	1097.331	826.305
337.402	16.166	1096.432	825.751
338.416	16.195	1095.894	825.417
339.431	16.188	1095.548	825.046
340.446	16.186	1094.752	824.367
341.460	16.347	1093.511	824.144
342.475	16.252	1093.530	823.620
343.489	16.316	1092.030	822.729
344.504	16.367	1091.306	822.363
345.519	16.383	1090.819	822.000
346.533	16.424	1089.622	821.222
347.548	16.450	1088.917	820.744
348.562	16.480	1088.266	820.331
349.577	16.355	1087.741	819.253
350.592	16.327	1087.065	818.537
351.606	16.329	1086.382	817.959
352.621	16.362	1085.846	817.644
353.635	16.278	1085.087	816.594
354.650	16.378	1084.201	816.336
355.665	16.538	1083.368	816.410
356.679	16.450	1082.775	815.467
357.694	16.423	1082.358	814.951
358.708	16.550	1081.520	814.861
359.723	16.406	1081.058	813.744
360.738	16.490	1080.280	813.494
361.752	16.497	1080.073	813.296
362.767	16.548	1079.197	812.812
363.781	16.527	1079.034	812.514
364.796	16.535	1078.106	811.781
365.810	16.685	1077.491	811.968
366.825	16.686	1076.647	811.264
367.840	16.716	1076.378	811.135
368.854	16.814	1075.468	810.848
369.869	16.627	1075.064	809.573
370.883	16.738	1073.899	809.158
371.898	16.789	1073.243	808.832
372.913	16.719	1072.654	807.982
373.927	16.745	1072.232	807.718
374.942	16.874	1071.899	808.013
375.956	16.804	1071.219	807.092
376.971	16.735	1070.718	806.316
377.986	16.894	1069.967	806.436
379.000	16.892	1069.233	805.803
380.015	16.968	1068.591	805.608
381.029	16.879	1068.551	805.086
382.044	16.926	1067.521	804.460
383.059	17.017	1066.599	804.124
384.073	17.032	1065.829	803.542
385.088	17.101	1064.843	803.056
386.102	17.109	1064.171	802.516
387.117	16.950	1063.427	801.131
388.132	17.053	1062.091	800.541
389.146	16.928	1061.540	799.468
390.161	16.945	1061.329	799.316
391.175	16.992	1060.088	798.533
392.190	16.958	1059.790	798.079
393.205	17.167	1058.879	798.302
394.219	17.088	1058.167	797.325
395.234	17.007	1057.497	796.370
396.248	17.064	1056.499	795.812
397.263	17.086	1055.303	794.948
398.278	17.037	1054.641	794.146
399.292	17.137	1053.973	794.043
400.307	17.107	1053.185	793.236
401.321	17.169	1052.581	793.003
402.336	17.001	1052.135	791.813
403.350	17.036	1051.297	791.275
404.365	17.053	1050.946	791.020
405.380	17.263	1050.113	791.298
406.394	17.138	1049.091	789.881
407.409	17.211	1048.509	789.709
408.423	17.306	1047.786	789.535
409.438	17.464	1046.756	789.422
410.453	17.414	1046.304	788.781
411.467	17.237	1045.816	787.522
412.482	17.458	1045.208	788.018
413.496	17.440	1044.402	787.257
414.511	17.443	1043.663	786.648
415.526	17.466	1043.424	786.500
416.540	17.459	1042.865	785.978
417.555	17.445	1042.307	785.424
418.569	17.479	1042.052	785.321
419.584	17.552	1041.188	784.937
420.599	17.455	1041.244	784.461
421.613	102.530	1320.861	1464.775
422.628	94.137	1361.532	1464.858
