DTS Sentinel unit serial number:	SN413079Multiplexer serial number:	ORYXHardware model number:	OX4-SRSoftware version number:	ORYX F/W v4.00 Oryx Data Collector v3.7.2.0data status	okinstallation	princeton_trtdifferential loss correction	single-endedforward channel	channel 2reverse channel	N/Adate	2019/09/12time	00:21:11forward acquisition time	60.00reverse acquisition time	0.00gamma	496.2192k internal	0.2325k external	0.2325temperature offset calibration	1.0088default loss term (dB/km)	0.3790temperature slope calibration	1.0000multiplexer offset coefficient	1.0000multiplexer slope coefficient	1.0000fibre end	0.00T internal ref (°C)	33.50T ext. ref 1 (°C)	2.04T ext. ref 2 (°C)	28.10length (m)	temperature (°C)	Stokes	anti-Stokes-747.200	651.868	0.057	0.146
-746.185	-125.312	-0.236	-0.036
-745.171	-200.000	-0.036	-0.161
-744.156	-108.238	0.311	0.068
-743.142	-145.525	0.187	0.017
-742.127	-200.000	-0.028	0.176
-741.112	-52.737	-0.284	0.132
-740.098	800.000	-0.108	0.419
-739.083	800.000	-0.037	-0.107
-738.069	16.375	-0.143	-0.114
-737.054	-140.817	0.034	0.004
-736.039	-117.351	-0.527	-0.096
-735.025	404.277	-0.090	0.191
-734.010	193.940	-0.295	-0.451
-732.996	-107.636	-0.230	0.051
-731.981	-2.478	0.034	0.024
-730.966	246.207	-0.027	-0.045
-729.952	603.682	0.079	0.199
-728.937	-101.666	-0.437	-0.107
-727.923	-200.000	-0.021	-0.415
-726.908	-189.061	0.223	0.003
-725.894	800.000	-0.123	-0.417
-724.879	800.000	-0.130	-0.379
-723.864	-200.000	0.006	-0.154
-722.850	141.329	0.143	-0.191
-721.835	6.652	0.241	-0.180
-720.821	627.775	-0.060	-0.153
-719.806	-24.721	-0.038	-0.023
-718.791	17.255	0.085	-0.068
-717.777	153.135	-0.069	0.095
-716.762	12.191	-0.161	-0.125
-715.748	404.723	0.158	-0.335
-714.733	-119.635	0.038	-0.007
-713.718	87.219	-0.085	0.095
-712.704	-113.043	-0.083	-0.017
-711.689	-200.000	0.026	0.360
-710.675	-200.000	0.014	0.239
-709.660	-200.000	-0.031	-0.248
-708.645	441.396	-0.146	-0.323
-707.631	87.809	-0.208	0.232
-706.616	-13.560	0.136	0.089
-705.602	-23.349	0.102	0.062
-704.587	-200.000	0.040	-0.217
-703.572	61.112	-0.292	-0.292
-702.558	331.613	-0.070	-0.136
-701.543	800.000	-0.053	0.153
-700.529	61.281	-0.145	-0.145
-699.514	-8.800	-0.287	0.194
-698.499	6.713	0.370	0.277
-697.485	200.082	-0.101	-0.156
-696.470	800.000	0.035	0.149
-695.456	46.485	0.181	-0.169
-694.441	534.746	-0.176	0.420
-693.426	84.078	-0.143	0.157
-692.412	429.365	-0.062	-0.135
-691.397	-84.639	0.305	-0.097
-690.383	554.493	0.066	-0.160
-689.368	120.199	-0.161	0.201
-688.354	-33.785	-0.292	0.162
-687.339	405.375	-0.275	0.583
-686.324	-116.993	-0.118	0.022
-685.310	95.448	0.065	0.075
-684.295	-148.273	0.137	-0.011
-683.281	-166.501	0.331	0.014
-682.266	611.911	-0.143	-0.360
-681.251	-65.444	-0.158	-0.064
-680.237	-2.954	0.235	0.165
-679.222	-32.869	-0.197	-0.110
-678.208	-108.743	-0.399	-0.086
-677.193	107.969	0.207	-0.249
-676.178	-96.960	-0.120	-0.032
-675.164	-34.451	-0.178	0.098
-674.149	-200.000	-0.038	0.177
-673.135	-132.689	0.159	0.020
-672.120	800.000	0.054	0.175
-671.105	80.096	-0.077	0.083
-670.091	247.740	-0.097	-0.165
-669.076	31.439	-0.182	-0.157
-668.062	246.071	0.036	-0.062
-667.047	81.432	-0.233	0.253
-666.032	-72.396	0.239	0.089
-665.018	208.512	0.106	0.167
-664.003	5.029	0.410	0.304
-662.989	-103.585	0.211	-0.050
-661.974	-99.302	-0.159	-0.040
-660.959	-136.480	0.322	0.038
-659.945	800.000	-0.054	0.156
-658.930	129.626	0.096	-0.123
-657.916	-94.406	-0.104	0.029
-656.901	800.000	-0.118	-0.386
-655.886	-176.129	0.307	-0.008
-654.872	602.656	0.094	-0.234
-653.857	800.000	-0.038	0.132
-652.843	502.731	-0.029	0.067
-651.828	387.588	0.062	-0.130
-650.814	-22.241	-0.247	-0.151
-649.799	246.888	0.125	-0.212
-648.784	-200.000	0.014	-0.136
-647.770	-69.541	-0.104	-0.040
-646.755	800.000	0.049	0.162
-645.741	246.655	-0.102	-0.172
-644.726	-46.220	-0.074	0.037
-643.711	125.018	-0.148	-0.187
-642.697	-200.000	-0.022	0.133
-641.682	-78.279	0.189	0.065
-640.668	-25.274	0.276	0.164
-639.653	800.000	-0.107	-0.396
-638.638	-81.652	0.297	0.098
-637.624	-47.762	-0.295	-0.144
-636.609	-200.000	0.010	-0.128
-635.595	-200.000	0.002	0.234
-634.580	-69.419	0.110	-0.043
-633.565	800.000	-0.111	-0.395
-632.551	-113.793	-0.194	0.038
-631.536	-200.000	0.041	0.380
-630.522	-90.912	0.283	-0.082
-629.507	46.694	-0.221	-0.206
-628.492	-142.970	0.361	0.035
-627.478	-200.000	0.022	-0.125
-626.463	36.789	-0.212	0.188
-625.449	-112.032	-0.141	0.028
-624.434	117.886	0.088	-0.108
-623.419	146.982	-0.249	-0.336
-622.405	128.726	-0.125	0.160
-621.390	-96.599	-0.217	-0.058
-620.376	-33.187	-0.294	-0.164
-619.361	-70.318	0.156	0.060
-618.346	-200.000	-0.006	0.165
-617.332	85.430	0.046	0.051
-616.317	-200.000	-0.062	-0.357
-615.303	-200.000	0.016	-0.104
-614.288	797.156	-0.047	0.131
-613.273	-134.730	0.195	0.024
-612.259	800.000	0.017	-0.062
-611.244	-17.499	-0.186	0.117
-610.230	102.966	-0.100	0.118
-609.215	33.228	0.242	-0.210
-608.201	34.162	0.126	-0.110
-607.186	272.842	-0.107	-0.190
-606.171	42.760	0.145	0.133
-605.157	124.944	0.082	0.104
-604.142	157.243	-0.126	-0.175
-603.128	-200.000	0.055	-0.329
-602.113	-61.772	-0.144	-0.061
-601.098	697.706	-0.026	0.069
-600.084	87.292	0.122	-0.135
-599.069	-200.000	0.015	0.104
-598.055	11.062	0.129	-0.099
-597.040	-68.112	0.113	0.044
-596.025	-43.597	0.052	-0.026
-595.011	8.040	0.326	0.245
-593.996	-200.000	0.007	-0.296
-592.982	130.895	0.293	-0.377
-591.967	755.674	-0.041	0.110
-590.952	-200.000	-0.012	0.106
-589.938	137.463	-0.115	0.151
-588.923	-107.608	-0.022	-0.005
-587.909	-69.342	0.584	-0.225
-586.894	10.165	-0.021	-0.016
-585.879	265.597	0.146	0.255
-584.865	48.268	-0.325	-0.305
-583.850	800.000	-0.052	-0.155
-582.836	17.474	0.223	-0.178
-581.821	97.628	-0.277	0.319
-580.806	359.572	0.060	-0.121
-579.792	-200.000	0.047	0.220
-578.777	-200.000	-0.087	0.429
-577.763	721.396	-0.151	0.402
-576.748	87.543	0.074	-0.082
-575.733	-38.640	-0.043	-0.023
-574.719	169.001	-0.210	-0.301
-573.704	-40.824	-0.208	-0.108
-572.690	-44.371	0.256	0.129
-571.675	184.046	0.075	-0.111
-570.661	94.877	-0.091	-0.104
-569.646	202.588	0.026	-0.040
-568.631	229.649	-0.105	0.172
-567.617	92.050	-0.187	-0.211
-566.602	-44.038	0.085	0.043
-565.588	-49.871	0.146	-0.069
-564.573	-200.000	0.003	-0.255
-563.558	38.058	0.109	0.097
-562.544	316.521	0.003	0.006
-561.529	173.619	0.143	0.206
-560.515	-54.866	0.238	-0.107
-559.500	74.163	0.245	0.258
-558.485	-200.000	-0.029	0.315
-557.471	18.781	0.208	-0.167
-556.456	-149.712	0.162	-0.013
-555.442	177.700	-0.059	0.086
-554.427	-137.901	0.476	0.053
-553.412	156.503	-0.065	-0.089
-552.398	52.166	-0.249	-0.238
-551.383	-200.000	-0.018	0.123
-550.369	-200.000	0.058	-0.257
-549.354	-200.000	0.011	-0.052
-548.339	-200.000	-0.027	-0.181
-547.325	-152.716	-0.156	-0.011
-546.310	51.440	0.263	-0.251
-545.296	800.000	0.027	0.080
-544.281	86.965	-0.200	-0.221
-543.266	746.756	0.031	-0.084
-542.252	-200.000	-0.039	0.174
-541.237	-200.000	0.045	0.244
-540.223	-200.000	0.015	-0.412
-539.208	386.483	-0.045	0.094
-538.193	-9.162	-0.087	-0.058
-537.179	-200.000	-0.012	0.058
-536.164	27.051	-0.024	0.020
-535.150	800.000	0.116	0.328
-534.135	-200.000	0.161	-0.000
-533.121	-96.272	-0.256	-0.068
-532.106	138.427	-0.118	-0.155
-531.091	-22.889	-0.401	-0.242
-530.077	-76.551	-0.224	-0.079
-529.062	33.987	-0.010	0.008
-528.048	731.305	0.085	0.228
-527.033	800.000	0.109	-0.331
-526.018	-200.000	-0.010	0.125
-525.004	-36.054	0.174	-0.094
-523.989	167.637	0.147	-0.209
-522.975	176.616	-0.079	0.115
-521.960	800.000	0.018	-0.061
-520.945	-21.636	0.292	-0.178
-519.931	800.000	-0.110	-0.424
-518.916	89.673	0.065	0.072
-517.902	90.959	-0.091	-0.103
-516.887	336.319	0.010	0.019
-515.872	-44.820	0.243	0.121
-514.858	-112.962	-0.220	0.044
-513.843	-19.891	-0.162	-0.100
-512.829	-177.659	-0.445	0.011
-511.814	84.151	-0.223	0.244
-510.799	-16.558	-0.179	0.113
-509.785	-88.823	0.296	-0.088
-508.770	199.506	0.040	0.061
-507.756	-103.984	-0.108	0.025
-506.741	-7.979	0.250	0.168
-505.726	-151.197	-0.049	-0.004
-504.712	74.050	0.212	-0.222
-503.697	-92.094	-0.149	0.042
-502.683	218.412	0.014	0.022
-501.668	264.722	-0.145	0.253
-500.653	-200.000	-0.048	-0.299
-499.639	-142.814	0.299	-0.029
-498.624	-11.183	0.020	0.013
-497.610	-149.499	0.206	0.016
-496.595	171.894	-0.037	0.053
-495.581	-108.307	0.093	0.020
-494.566	124.107	0.303	-0.380
-493.551	-78.433	-0.129	-0.044
-492.537	-124.925	0.250	-0.038
-491.522	800.000	-0.024	-0.098
-490.508	75.251	-0.113	-0.119
-489.493	-33.293	-0.090	0.050
-488.478	-112.922	0.332	-0.066
-487.464	-51.129	-0.078	-0.036
-486.449	-111.245	0.186	-0.038
-485.435	299.450	-0.089	0.164
-484.420	-200.000	-0.045	0.202
-483.405	-80.770	0.096	0.032
-482.391	-200.000	-0.019	-0.155
-481.376	-121.660	-0.072	-0.012
-480.362	-150.265	0.303	0.023
-479.347	207.097	-0.204	-0.317
-478.332	-136.357	0.145	0.017
-477.318	-200.000	-0.008	-0.078
-476.303	-200.000	-0.069	-0.345
-475.289	-174.254	-0.296	-0.009
-474.274	800.000	0.091	-0.272
-473.259	-124.924	0.331	0.051
-472.245	-200.000	-0.002	0.304
-471.230	-78.251	-0.060	0.021
-470.216	-19.218	-0.240	0.149
-469.201	63.575	0.241	-0.242
-468.186	-94.641	0.362	-0.098
-467.172	800.000	-0.048	-0.131
-466.157	308.604	0.148	0.276
-465.143	0.169	0.039	-0.028
-464.128	6.774	0.208	-0.155
-463.113	379.657	0.022	0.044
-462.099	493.330	0.010	-0.023
-461.084	-200.000	-0.009	0.280
-460.070	-94.031	0.140	-0.038
-459.055	183.226	-0.117	-0.172
-458.040	-125.100	0.103	-0.016
-457.026	-126.914	-0.027	-0.004
-456.011	-147.522	0.222	-0.019
-454.997	226.074	0.203	0.328
-453.982	-96.616	-0.087	0.023
-452.968	508.570	-0.058	0.134
-451.953	77.615	0.089	-0.094
-450.938	-200.000	-0.006	-0.224
-449.924	35.532	0.170	0.149
-448.909	-49.897	-0.359	0.170
-447.895	-200.000	-0.008	-0.074
-446.880	800.000	0.084	0.238
-445.865	-200.000	0.015	0.169
-444.851	-37.861	0.206	-0.109
-443.836	-116.673	0.420	0.077
-442.822	800.000	-0.066	0.211
-441.807	-81.794	-0.256	-0.084
-440.792	-186.471	0.241	0.003
-439.778	160.434	0.217	-0.302
-438.763	-95.280	0.260	-0.070
-437.749	-200.000	-0.037	-0.185
-436.734	36.113	-0.107	0.094
-435.719	-200.000	-0.030	-0.216
-434.705	64.543	-0.120	-0.121
-433.690	2.127	-0.275	0.198
-432.676	-200.000	0.005	0.212
-431.661	-66.563	-0.289	0.114
-430.646	-200.000	0.045	-0.249
-429.632	37.302	-0.310	-0.274
-428.617	-80.593	-0.082	0.027
-427.603	-170.371	0.148	0.005
-426.588	-90.639	0.169	0.049
-425.573	-28.381	-0.341	0.196
-424.559	-92.062	-0.220	0.062
-423.544	-200.000	0.032	0.294
-422.530	-200.000	0.006	-0.042
-421.515	-200.000	-0.001	0.270
-420.500	-200.000	-0.025	0.191
-419.486	258.948	0.064	-0.110
-418.471	279.796	-0.219	-0.389
-417.457	800.000	-0.083	-0.266
-416.442	356.378	-0.081	0.162
-415.428	-200.000	-0.028	-0.295
-414.413	53.012	-0.244	0.233
-413.398	800.000	-0.071	-0.308
-412.384	-21.947	-0.474	0.287
-411.369	-200.000	-0.008	-0.051
-410.355	-200.000	-0.022	-0.211
-409.340	-134.919	-0.218	-0.026
-408.325	-73.036	0.221	-0.081
-407.311	195.811	-0.109	-0.166
-406.296	272.194	-0.112	0.197
-405.282	408.819	-0.126	-0.266
-404.267	44.129	0.226	0.206
-403.252	-148.345	0.188	0.015
-402.238	31.050	0.339	0.289
-401.223	800.000	0.063	0.231
-400.209	-1.714	0.144	0.101
-399.194	729.693	0.143	0.381
-398.179	241.872	0.093	0.156
-397.165	-175.556	-0.170	0.005
-396.150	-160.776	-0.031	-0.002
-395.136	-48.300	-0.222	-0.107
-394.121	281.355	-0.114	-0.204
-393.106	-43.383	-0.166	-0.083
-392.092	175.753	-0.034	-0.049
-391.077	-108.648	-0.291	0.062
-390.063	47.855	0.105	0.098
-389.048	53.595	-0.079	-0.076
-388.033	23.821	0.258	-0.211
-387.019	-176.455	-0.477	0.012
-386.004	-200.000	0.020	0.303
-384.990	800.000	-0.059	0.190
-383.975	-75.461	0.107	-0.038
-382.960	11.833	0.036	-0.027
-381.946	357.777	-0.079	-0.156
-380.931	-6.190	-0.254	-0.173
-379.917	132.503	-0.169	-0.217
-378.902	197.212	0.106	-0.160
-377.888	-126.883	-0.208	0.030
-376.873	800.000	0.084	0.297
-375.858	34.278	-0.220	-0.191
-374.844	-52.215	0.075	0.035
-373.829	-68.885	-0.173	0.067
-372.815	-44.836	0.075	0.037
-371.800	233.642	0.053	0.087
-370.785	-200.000	0.320	-0.000
-369.771	-128.683	0.250	-0.035
-368.756	-130.701	0.275	0.037
-367.742	-93.747	-0.184	0.050
-366.727	17.158	-0.107	-0.084
-365.712	-200.000	-0.070	-0.443
-364.698	-156.163	-0.217	0.014
-363.683	-84.982	-0.281	-0.087
-362.669	110.042	-0.254	0.303
-361.654	800.000	0.076	-0.214
-360.639	755.166	0.037	0.100
-359.625	-113.896	-0.084	-0.016
-358.610	-200.000	0.007	-0.036
-357.596	447.473	-0.033	-0.073
-356.581	-31.859	0.290	-0.162
-355.566	140.534	0.051	0.067
-354.552	-50.556	0.023	-0.011
-353.537	800.000	0.116	0.337
-352.523	47.726	-0.051	-0.047
-351.508	-11.714	0.112	-0.073
-350.493	17.409	-0.094	0.075
-349.479	800.000	0.034	-0.101
-348.464	-44.106	-0.226	0.113
-347.450	416.941	-0.098	-0.208
-346.435	800.000	0.042	-0.139
-345.420	-200.000	-0.058	0.557
-344.406	-11.705	-0.142	-0.093
-343.391	136.073	-0.099	0.129
-342.377	-42.466	-0.138	-0.070
-341.362	-148.617	-0.263	-0.021
-340.348	427.808	-0.149	0.321
-339.333	609.892	-0.157	0.390
-338.318	212.695	0.093	-0.146
-337.304	-142.396	0.370	0.036
-336.289	-149.628	-0.163	0.013
-335.275	800.000	-0.067	0.269
-334.260	114.631	-0.177	-0.214
-333.245	-200.000	0.031	0.587
-332.231	173.148	-0.051	-0.073
-331.216	800.000	-0.065	-0.209
-330.202	800.000	-0.077	0.235
-329.187	695.371	0.105	0.274
-328.172	191.441	0.038	-0.056
-327.158	189.270	0.229	-0.341
-326.143	290.282	-0.134	0.242
-325.129	-87.698	0.335	-0.100
-324.114	74.255	0.105	-0.109
-323.099	-11.464	0.062	0.041
-322.085	345.285	0.041	0.080
-321.070	-131.997	-0.469	0.061
-320.056	-23.112	-0.145	0.087
-319.041	38.277	0.191	-0.169
-318.026	-200.000	-0.049	-0.393
-317.012	448.496	-0.044	0.097
-315.997	35.621	-0.166	0.144
-314.983	25.809	0.327	-0.270
-313.968	112.712	-0.135	-0.162
-312.953	-200.000	0.061	0.317
-311.939	-17.383	0.176	-0.110
-310.924	-200.000	0.011	-0.276
-309.910	2.034	0.097	-0.070
-308.895	-67.888	0.069	0.027
-307.880	-41.981	0.072	0.036
-306.866	-96.808	-0.169	-0.044
-305.851	-200.000	-0.020	0.153
-304.837	29.758	0.182	-0.154
-303.822	202.511	-0.027	0.041
-302.807	800.000	-0.046	0.159
-301.793	708.801	-0.078	-0.205
-300.778	-146.285	-0.370	0.032
-299.764	-200.000	0.021	0.141
-298.749	-147.051	0.146	-0.012
-297.735	-25.828	-0.176	0.103
-296.720	800.000	0.102	0.313
-295.705	76.256	-0.159	0.167
-294.691	-169.891	0.101	0.004
-293.676	-99.323	0.145	-0.036
-292.662	644.047	-0.106	0.267
-291.647	274.200	0.073	0.127
-290.632	72.665	-0.086	-0.089
-289.618	-200.000	-0.035	-0.225
-288.603	188.017	0.044	-0.065
-287.589	-14.009	-0.067	-0.043
-286.574	-200.000	0.027	0.419
-285.559	800.000	0.077	-0.215
-284.545	-114.625	-0.569	0.108
-283.530	800.000	0.044	0.155
-282.516	-200.000	-0.059	-0.259
-281.501	-148.131	0.117	0.010
-280.486	-29.430	0.095	-0.054
-279.472	-113.821	-0.052	-0.010
-278.457	3.334	-0.088	-0.064
-277.443	-93.225	-0.112	-0.031
-276.428	-178.271	0.180	0.004
-275.413	42.890	-0.078	0.071
-274.399	237.874	-0.160	-0.263
-273.384	496.425	-0.068	-0.154
-272.370	-97.389	0.132	-0.034
-271.355	-112.247	-0.156	0.031
-270.340	-200.000	0.018	-0.237
-269.326	360.267	-0.029	0.058
-268.311	-64.372	0.150	0.060
-267.297	-149.831	0.139	0.011
-266.282	55.887	0.147	0.141
-265.267	-134.690	-0.145	0.017
-264.253	800.000	-0.024	-0.100
-263.238	-138.924	0.241	0.026
-262.224	125.579	0.068	0.085
-261.209	800.000	-0.011	0.043
-260.195	800.000	-0.047	-0.197
-259.180	-44.601	-0.199	-0.098
-258.165	-200.000	0.023	0.804
-257.151	-200.000	-0.032	0.243
-256.136	-200.000	0.052	0.301
-255.122	14.054	0.174	0.134
-254.107	-200.000	-0.022	0.124
-253.092	164.437	-0.252	0.352
-252.078	-17.272	0.389	0.242
-251.063	-30.716	-0.215	0.121
-250.049	134.924	0.235	-0.302
-249.034	-117.213	0.140	0.025
-248.019	-200.000	-0.001	-0.028
-247.005	-200.000	-0.006	-0.095
-245.990	-30.002	0.069	0.039
-244.976	-119.389	-0.236	0.041
-243.961	25.627	-0.064	-0.053
-242.946	585.825	-0.127	0.309
-241.932	69.167	0.216	-0.220
-240.917	800.000	-0.116	-0.322
-239.903	-112.642	-0.304	0.060
-238.888	-13.279	0.129	-0.083
-237.873	-177.563	-0.265	0.006
-236.859	-130.131	0.483	-0.065
-235.844	159.818	0.304	0.418
-234.830	389.659	-0.097	-0.199
-233.815	42.245	-0.076	-0.068
-232.800	-200.000	-0.015	-0.126
-231.786	-200.000	-0.016	0.437
-230.771	-59.791	-0.123	-0.052
-229.757	56.212	-0.199	-0.192
-228.742	2.410	0.381	0.273
-227.727	-63.394	-0.142	-0.058
-226.713	-200.000	-0.013	-0.332
-225.698	490.320	0.043	0.097
-224.684	95.447	0.058	0.066
-223.669	593.290	-0.154	-0.377
-222.655	800.000	-0.057	-0.157
-221.640	71.277	0.212	0.218
-220.625	-68.162	0.320	0.123
-219.611	-114.348	-0.181	-0.034
-218.596	-200.000	-0.001	-0.283
-217.582	-200.000	-0.005	-0.508
-216.567	-100.339	-0.325	0.080
-215.552	800.000	-0.130	0.471
-214.538	175.640	0.102	0.146
-213.523	240.484	-0.154	0.254
-212.509	176.551	0.029	0.042
-211.494	271.748	-0.087	0.152
-210.479	800.000	-0.099	0.328
-209.465	-153.526	-0.358	0.024
-208.450	-200.000	0.031	-0.217
-207.436	22.639	0.320	0.259
-206.421	-200.000	0.024	0.379
-205.406	521.217	0.064	-0.148
-204.392	-70.726	-0.297	-0.111
-203.377	127.942	0.196	-0.246
-202.363	800.000	0.117	0.398
-201.348	123.843	-0.154	0.192
-200.333	-200.000	0.017	0.236
-199.319	22.534	-0.189	-0.152
-198.304	-43.602	0.297	-0.148
-197.290	-104.178	0.114	0.026
-196.275	615.881	-0.113	-0.281
-195.260	-129.479	-0.272	-0.037
-194.246	-35.010	0.123	-0.066
-193.231	-200.000	-0.009	0.126
-192.217	800.000	0.051	0.215
-191.202	800.000	-0.054	-0.192
-190.187	-127.369	-0.085	0.012
-189.173	153.576	-0.058	0.078
-188.158	-200.000	-0.074	-0.416
-187.144	-80.031	0.216	0.072
-186.129	111.607	-0.282	0.336
-185.114	79.679	-0.087	0.093
-184.100	92.874	0.179	0.200
-183.085	68.476	0.120	0.121
-182.071	-200.000	-0.002	-0.039
-181.056	366.590	0.183	0.364
-180.042	-114.307	0.035	0.007
-179.027	-138.808	0.291	-0.031
-178.012	-24.890	-0.157	0.092
-176.998	399.785	0.096	0.199
-175.983	128.138	-0.069	0.087
-174.969	191.790	0.072	-0.107
-173.954	629.076	0.048	-0.120
-172.939	-72.093	-0.158	-0.058
-171.925	-12.407	-0.149	-0.096
-170.910	89.407	-0.294	0.323
-169.896	-91.574	0.361	-0.101
-168.881	800.000	-0.011	-0.044
-167.866	-200.000	0.029	-0.203
-166.852	-200.000	-0.006	0.228
-165.837	-39.146	0.214	0.111
-164.823	128.170	-0.095	0.120
-163.808	-143.062	0.072	-0.007
-162.793	27.895	0.187	0.155
-161.779	-48.992	0.128	-0.061
-160.764	55.983	0.167	-0.160
-159.750	298.937	0.137	0.248
-158.735	60.834	0.152	-0.149
-157.720	-75.766	-0.265	0.093
-156.706	-200.000	-0.044	-0.231
-155.691	-122.616	0.257	0.041
-154.677	63.419	0.227	-0.224
-153.662	-73.237	-0.237	-0.086
-152.647	460.451	0.027	-0.058
-151.633	-200.000	-0.038	-0.194
-150.618	-120.797	-0.299	0.050
-149.604	307.909	0.142	-0.261
-148.589	800.000	0.042	0.127
-147.574	-200.000	0.004	-0.068
-146.560	243.851	-0.061	-0.101
-145.545	267.268	0.166	0.286
-144.531	32.888	-0.086	0.073
-143.516	-200.000	-0.038	0.178
-142.502	10.593	0.226	0.170
-141.487	-149.345	0.123	-0.010
-140.472	-65.127	0.009	0.004
-139.458	-45.202	-0.194	-0.095
-138.443	-200.000	0.044	-0.244
-137.429	248.794	0.065	-0.108
-136.414	-200.000	-0.004	0.252
-135.399	496.593	-0.090	0.204
-134.385	26.181	0.168	-0.138
-133.370	-84.213	0.145	-0.045
-132.356	-151.048	-0.340	-0.025
-131.341	-69.866	-0.215	-0.081
-130.326	-200.000	-0.039	-0.316
-129.312	-18.548	-0.243	-0.149
-128.297	181.869	-0.163	0.237
-127.283	171.288	0.047	0.066
-126.268	-102.258	0.335	-0.079
-125.253	-39.987	-0.263	-0.135
-124.239	-110.863	0.395	-0.080
-123.224	-200.000	0.009	0.077
-122.210	-58.269	0.182	-0.078
-121.195	800.000	-0.025	-0.081
-120.180	565.007	-0.142	0.340
-119.166	-66.059	-0.091	-0.036
-118.151	128.212	-0.168	0.211
-117.137	118.623	0.106	0.129
-116.122	-200.000	0.014	-0.237
-115.107	-54.624	-0.096	-0.043
-114.093	97.194	0.252	0.285
-113.078	112.431	0.155	-0.184
-112.064	800.000	-0.086	0.240
-111.049	-61.118	-0.129	0.054
-110.034	-23.632	-0.124	-0.073
-109.020	75.376	-0.134	-0.139
-108.005	-40.679	-0.113	0.057
-106.991	-200.000	-0.020	-0.248
-105.976	65.222	0.013	-0.013
-104.962	153.165	-0.101	0.136
-103.947	7.383	-0.219	-0.161
-102.932	-20.200	-0.233	-0.141
-101.918	-155.130	-0.390	0.025
-100.903	-10.353	0.184	-0.120
-99.889	-190.434	-0.469	-0.005
-98.874	-51.821	-0.344	0.158
-97.859	262.560	-0.062	0.105
-96.845	-200.000	0.016	0.199
-95.830	800.000	0.112	-0.331
-94.816	529.654	-0.036	0.084
-93.801	579.914	0.114	-0.274
-92.786	-24.989	0.207	-0.121
-91.772	317.163	-0.075	-0.139
-90.757	800.000	-0.048	-0.180
-89.743	-31.382	0.330	-0.183
-88.728	-47.172	0.100	-0.048
-87.713	452.587	0.072	0.158
-86.699	-54.433	-0.285	0.127
-85.684	-44.216	-0.254	-0.125
-84.670	-87.367	0.191	0.057
-83.655	-52.076	-0.020	0.009
-82.640	44.291	-0.120	-0.109
-81.626	45.461	-0.133	-0.121
-80.611	-200.000	-0.074	0.343
-79.597	427.432	-0.073	0.154
-78.582	-22.618	0.318	0.189
-77.567	59.606	-0.127	-0.123
-76.553	-21.821	0.130	-0.078
-75.538	-16.880	-0.213	-0.132
-74.524	-75.071	-0.019	-0.007
-73.509	-167.417	-0.296	-0.012
-72.494	113.573	-0.073	-0.087
-71.480	800.000	0.100	0.315
-70.465	331.378	-0.132	0.251
-69.451	800.000	0.067	0.260
-68.436	-191.128	0.221	-0.002
-67.422	-200.000	-0.014	0.297
-66.407	33.438	-0.080	-0.068
-65.392	-200.000	0.003	-0.036
-64.378	86.034	0.097	-0.105
-63.363	25.956	0.099	-0.081
-62.349	-118.213	-0.367	0.064
-61.334	172.691	-0.690	-0.975
-60.319	70.245	0.497	0.504
-59.305	462.978	-0.487	-1.069
-58.290	346.962	0.388	0.751
-57.276	762.369	0.552	1.473
-56.261	-200.000	96.637	576.257
-55.246	545.472	1386.958	3256.341
-54.232	156.533	2580.929	3500.534
-53.217	105.624	2274.777	2641.619
-52.203	42.558	1897.147	1695.744
-51.188	36.835	1687.696	1465.326
-50.173	33.973	1643.334	1405.627
-49.159	51.348	1690.144	1576.241
-48.144	53.275	1706.767	1606.114
-47.130	36.302	1666.354	1442.579
-46.115	33.535	1651.951	1409.518
-45.100	33.389	1647.093	1404.236
-44.086	33.402	1644.379	1401.959
-43.071	33.390	1641.302	1399.194
-42.057	33.298	1638.761	1396.295
-41.042	33.338	1636.649	1394.727
-40.027	33.448	1634.735	1393.856
-39.013	33.417	1632.163	1391.375
-37.998	33.319	1631.436	1389.985
-36.984	33.509	1629.972	1390.072
-35.969	33.477	1628.580	1388.596
-34.954	33.631	1626.722	1388.085
-33.940	33.451	1625.239	1385.447
-32.925	33.542	1623.339	1384.442
-31.911	33.434	1621.696	1382.195
-30.896	33.455	1619.714	1380.601
-29.881	33.415	1618.326	1379.076
-28.867	33.558	1616.855	1378.810
-27.852	33.562	1614.820	1377.047
-26.838	33.459	1613.520	1375.137
-25.823	33.542	1611.676	1374.107
-24.809	33.520	1610.608	1372.983
-23.794	33.478	1609.234	1371.454
-22.779	33.611	1607.849	1371.182
-21.765	33.508	1606.416	1369.162
-20.750	33.482	1604.945	1367.667
-19.736	33.550	1602.959	1366.410
-18.721	33.517	1601.372	1364.762
-17.706	33.553	1600.513	1364.240
-16.692	33.517	1599.259	1362.855
-15.677	33.517	1597.427	1361.239
-14.663	33.568	1595.944	1360.287
-13.648	33.474	1594.869	1358.642
-12.633	33.511	1593.124	1357.368
-11.619	33.423	1591.649	1355.433
-10.604	33.548	1590.281	1355.105
-9.590	33.518	1588.831	1353.600
-8.575	33.607	1587.408	1352.968
-7.560	33.524	1586.733	1351.749
-6.546	33.519	1585.107	1350.277
-5.531	33.539	1583.897	1349.332
-4.517	33.519	1583.289	1348.622
-3.502	33.505	1582.199	1347.534
-2.487	33.540	1580.266	1346.085
-1.473	33.272	1568.551	1334.167
-0.458	30.662	1549.669	1299.842
0.556	27.633	1550.958	1270.429
1.571	25.596	1574.510	1275.178
2.586	25.220	1588.109	1283.392
3.600	22.630	1534.823	1222.290
4.615	12.871	1423.924	1070.794
5.629	3.902	1356.240	964.107
6.644	2.171	1348.166	947.547
7.659	2.099	1346.725	946.009
8.673	2.020	1345.574	944.626
9.688	1.880	1343.674	942.345
10.702	1.618	1340.841	938.657
11.717	5.300	1348.052	966.429
12.731	15.472	1367.614	1043.915
13.746	24.090	1381.676	1108.448
14.761	26.061	1384.312	1122.748
15.775	26.418	1383.839	1124.481
16.790	26.419	1383.650	1124.234
17.804	26.505	1383.149	1124.262
18.819	26.734	1383.026	1125.489
19.834	26.777	1382.325	1125.086
20.848	26.755	1381.969	1124.556
21.863	26.819	1380.562	1123.711
22.877	26.797	1379.714	1122.785
23.892	26.942	1378.431	1122.538
24.907	26.944	1377.790	1121.930
25.921	26.898	1377.032	1120.930
26.936	26.797	1376.450	1119.734
27.950	26.898	1374.744	1118.867
28.965	26.864	1373.984	1117.941
29.980	26.834	1372.389	1116.359
30.994	26.838	1371.108	1115.246
32.009	26.838	1370.050	1114.286
33.023	26.827	1368.776	1113.081
34.038	26.876	1368.094	1112.727
35.053	26.841	1366.869	1111.419
36.067	26.819	1365.416	1110.003
37.082	26.896	1364.690	1109.791
38.096	26.852	1364.073	1108.921
39.111	26.895	1363.186	1108.361
40.126	26.855	1362.699	1107.622
41.140	26.798	1362.315	1106.866
42.155	26.933	1361.716	1107.107
43.169	27.021	1361.078	1107.024
44.184	26.920	1361.510	1106.663
45.199	26.779	1361.455	1105.659
46.213	26.845	1360.531	1105.215
47.228	26.800	1359.819	1104.267
48.242	26.869	1358.205	1103.275
49.257	26.849	1356.876	1101.976
50.271	26.900	1355.289	1100.899
51.286	26.884	1353.952	1099.618
52.301	26.890	1352.947	1098.743
53.315	26.821	1352.074	1097.520
54.330	26.820	1351.268	1096.760
55.344	26.908	1349.973	1096.143
56.359	26.812	1348.922	1094.612
57.374	26.870	1348.008	1094.124
58.388	26.906	1347.579	1093.900
59.403	26.852	1347.415	1093.345
60.417	26.783	1346.874	1092.391
61.432	26.902	1346.077	1092.367
62.447	26.909	1344.741	1091.227
63.461	26.849	1343.914	1090.095
64.476	26.934	1343.049	1089.810
65.490	26.916	1341.734	1088.536
66.505	26.956	1340.130	1087.379
67.520	26.842	1339.263	1085.899
68.534	26.986	1337.680	1085.378
69.549	26.819	1337.309	1083.982
70.563	26.973	1335.945	1083.705
71.578	26.942	1334.881	1082.559
72.593	26.950	1334.309	1082.048
73.607	26.914	1333.986	1081.476
74.622	26.848	1333.089	1080.257
75.636	26.887	1332.554	1079.960
76.651	26.867	1331.949	1079.259
77.666	26.942	1330.972	1078.815
78.680	26.881	1331.074	1078.441
79.695	26.835	1330.594	1077.680
80.709	26.936	1329.078	1076.958
81.724	26.799	1328.439	1075.532
82.739	26.883	1327.742	1075.374
83.753	26.869	1326.322	1074.042
84.768	26.880	1325.566	1073.402
85.782	26.863	1324.197	1072.099
86.797	26.966	1323.255	1071.849
87.812	26.995	1322.008	1070.915
88.826	26.850	1321.550	1069.592
89.841	26.943	1320.232	1068.982
90.855	26.857	1319.590	1067.859
91.870	27.032	1317.750	1067.306
92.884	27.060	1317.390	1067.079
93.899	26.935	1316.663	1065.662
94.914	26.981	1316.100	1065.384
95.928	26.924	1315.470	1064.449
96.943	26.870	1315.080	1063.721
97.957	26.948	1314.082	1063.273
98.972	27.056	1312.579	1062.597
99.987	27.012	1312.215	1061.954
101.001	26.867	1311.301	1060.269
102.016	26.896	1310.370	1059.596
103.030	26.918	1309.205	1058.684
104.045	26.945	1309.044	1058.619
105.060	26.960	1307.756	1057.572
106.074	26.956	1306.844	1056.719
107.089	27.009	1305.885	1056.155
108.103	26.999	1304.422	1054.824
109.118	26.994	1303.260	1053.760
110.133	26.993	1302.399	1052.963
111.147	27.066	1301.134	1052.271
112.162	27.097	1300.458	1051.813
113.176	26.924	1299.571	1050.001
114.191	26.949	1298.569	1049.241
115.206	26.981	1297.398	1048.385
116.220	26.917	1296.526	1047.221
117.235	27.000	1295.824	1047.042
118.249	26.945	1294.749	1045.760
119.264	27.026	1293.812	1045.379
120.279	27.088	1293.309	1045.235
121.293	27.077	1292.159	1044.153
122.308	27.076	1291.651	1043.645
123.322	27.094	1290.791	1042.960
124.337	27.136	1289.750	1042.264
125.352	27.073	1289.161	1041.334
126.366	27.070	1288.166	1040.426
127.381	27.127	1287.268	1039.935
128.395	27.065	1286.623	1038.968
129.410	27.147	1285.607	1038.521
130.424	27.210	1285.286	1038.529
131.439	27.114	1284.336	1037.122
132.454	27.085	1283.362	1036.077
133.468	27.097	1282.885	1035.668
134.483	27.036	1282.412	1034.848
135.497	26.993	1281.776	1033.997
136.512	27.039	1280.663	1033.273
137.527	27.074	1279.710	1032.610
138.541	27.077	1277.954	1031.121
139.556	27.102	1276.993	1030.392
140.570	26.973	1276.427	1029.118
141.585	26.950	1275.774	1028.368
142.600	27.071	1274.197	1027.693
143.614	27.007	1273.517	1026.690
144.629	27.017	1272.156	1025.560
145.643	26.922	1271.607	1024.488
146.658	26.905	1270.527	1023.429
147.673	27.000	1269.544	1023.082
148.687	26.873	1268.621	1021.536
149.702	26.894	1267.436	1020.609
150.716	26.970	1266.195	1019.943
151.731	27.011	1265.246	1019.321
152.746	27.065	1264.093	1018.605
153.760	27.035	1263.550	1017.908
154.775	27.132	1262.063	1017.166
155.789	27.073	1261.171	1016.026
156.804	27.022	1260.293	1014.941
157.819	26.981	1260.220	1014.565
158.833	27.130	1258.875	1014.223
159.848	27.122	1258.684	1013.934
160.862	27.124	1257.756	1013.107
161.877	27.110	1256.603	1012.013
162.892	27.066	1256.317	1011.446
163.906	27.241	1255.131	1011.380
164.921	27.089	1254.766	1010.148
165.935	27.205	1253.673	1009.825
166.950	27.136	1253.242	1009.005
167.964	27.219	1252.604	1008.864
168.979	27.244	1251.837	1008.292
169.994	27.252	1251.444	1007.935
171.008	27.267	1250.739	1007.359
172.023	27.133	1249.932	1005.876
173.037	27.303	1248.999	1005.978
174.052	27.232	1248.771	1005.312
175.067	27.189	1247.845	1004.241
176.081	27.151	1246.643	1002.978
177.096	27.268	1245.676	1002.751
178.110	27.164	1245.251	1001.750
179.125	27.318	1243.766	1001.315
180.140	27.221	1243.276	1000.297
181.154	27.184	1242.523	999.398
182.169	27.237	1240.877	998.277
183.183	27.231	1240.181	997.598
184.198	27.179	1239.276	996.494
185.213	27.333	1238.121	996.324
186.227	27.204	1237.623	995.125
187.242	27.294	1236.695	994.784
188.256	27.129	1235.921	993.174
189.271	27.239	1234.670	992.679
190.286	27.338	1233.752	992.392
191.300	27.283	1233.704	991.968
192.315	27.189	1233.401	991.124
193.329	27.209	1233.039	990.852
194.344	27.296	1232.641	990.918
195.359	27.302	1231.730	990.133
196.373	27.235	1231.425	989.437
197.388	27.140	1231.078	988.554
198.402	27.262	1230.738	988.855
199.417	27.313	1230.058	988.498
200.432	27.322	1229.740	988.204
201.446	27.249	1229.171	987.261
202.461	27.219	1228.260	986.282
203.475	27.420	1227.061	986.320
204.490	27.419	1226.095	985.453
205.504	27.371	1225.241	984.418
206.519	27.410	1224.229	983.730
207.534	27.319	1223.386	982.473
208.548	27.349	1222.667	981.970
209.563	27.442	1221.913	981.778
210.577	27.431	1221.167	981.036
211.592	27.420	1220.352	980.234
212.607	27.453	1219.451	979.598
213.621	27.497	1218.780	979.214
214.636	27.439	1217.801	978.029
215.650	27.375	1217.572	977.413
216.665	27.387	1216.225	976.308
217.680	27.428	1215.815	976.116
218.694	27.511	1214.669	975.549
219.709	27.429	1213.670	974.224
220.723	27.393	1213.421	973.746
221.738	27.359	1212.745	972.934
222.753	27.445	1211.735	972.498
223.767	27.429	1211.265	971.948
224.782	27.516	1210.914	972.044
225.796	27.476	1210.421	971.350
226.811	27.463	1209.905	970.780
227.826	27.504	1209.081	970.252
228.840	27.409	1208.816	969.450
229.855	27.478	1207.874	968.976
230.869	27.627	1207.037	969.008
231.884	27.507	1206.538	967.884
232.899	27.501	1205.761	967.145
233.913	27.528	1205.347	966.869
234.928	27.532	1204.804	966.371
235.942	27.493	1204.380	965.738
236.957	27.591	1203.294	965.299
237.972	27.540	1202.840	964.581
238.986	27.537	1201.946	963.761
240.001	27.592	1201.464	963.579
241.015	27.746	1200.399	963.456
242.030	27.616	1200.140	962.473
243.045	27.701	1199.179	962.068
244.059	27.707	1198.363	961.361
245.074	27.793	1197.061	960.685
246.088	27.641	1196.957	959.713
247.103	27.687	1196.119	959.202
248.117	27.688	1195.715	958.795
249.132	27.720	1194.389	957.815
250.147	27.739	1194.030	957.543
251.161	27.729	1193.159	956.709
252.176	27.803	1192.541	956.513
253.190	27.848	1191.689	955.984
254.205	27.745	1191.227	954.990
255.220	27.793	1190.648	954.693
256.234	27.762	1190.073	953.981
257.249	27.791	1189.459	953.560
258.263	27.793	1188.711	952.887
259.278	27.806	1188.430	952.642
260.293	27.793	1187.941	952.099
261.307	27.784	1187.352	951.493
262.322	27.839	1186.561	951.065
263.336	27.840	1185.661	950.262
264.351	27.828	1185.351	949.871
265.366	27.766	1184.891	949.096
266.380	27.954	1183.637	948.982
267.395	27.794	1183.427	947.897
268.409	27.749	1182.631	946.943
269.424	27.709	1182.942	946.899
270.439	27.777	1182.169	946.553
271.453	27.811	1181.501	946.108
272.468	27.858	1180.153	945.191
273.482	27.837	1179.636	944.585
274.497	27.862	1179.466	944.490
275.512	27.936	1178.518	944.035
276.526	27.867	1178.112	943.264
277.541	27.851	1177.526	942.634
278.555	27.946	1176.875	942.515
279.570	27.923	1175.975	941.595
280.585	27.911	1175.126	940.771
281.599	27.917	1174.285	940.044
282.614	27.978	1173.272	939.463
283.628	27.979	1172.566	938.821
284.643	27.985	1171.786	938.143
285.657	27.922	1171.052	937.149
286.672	28.005	1169.861	936.540
287.687	27.994	1169.351	935.990
288.701	28.063	1168.804	935.823
289.716	27.931	1168.078	934.486
290.730	28.032	1167.155	934.182
291.745	28.028	1166.568	933.608
292.760	28.115	1166.180	933.657
293.774	27.982	1165.723	932.530
294.789	28.181	1165.233	933.069
295.803	28.025	1164.753	931.808
296.818	28.102	1163.960	931.487
297.833	28.153	1163.376	931.193
298.847	28.041	1162.828	930.103
299.862	28.124	1161.893	929.696
300.876	28.145	1161.284	929.234
301.891	28.182	1160.691	928.864
302.906	28.262	1159.767	928.445
303.920	28.283	1159.174	927.995
304.935	28.181	1159.033	927.284
305.949	28.124	1158.107	926.174
306.964	28.273	1157.151	926.081
307.979	28.192	1156.898	925.385
308.993	28.344	1155.662	925.085
310.008	28.276	1155.241	924.322
311.022	28.257	1154.575	923.609
312.037	28.375	1153.633	923.372
313.052	28.231	1152.909	921.982
314.066	28.172	1152.376	921.179
315.081	28.261	1151.408	920.773
316.095	28.338	1150.802	920.593
317.110	28.314	1150.388	920.060
318.125	28.139	1150.322	919.045
319.139	28.275	1149.007	918.595
320.154	28.353	1148.164	918.233
321.168	28.487	1147.572	918.351
322.183	28.438	1147.191	917.717
323.197	28.281	1146.804	916.541
324.212	28.285	1146.092	915.909
325.227	28.355	1145.641	915.821
326.241	28.394	1145.054	915.462
327.256	28.480	1144.536	915.398
328.270	28.350	1143.498	913.836
329.285	28.450	1142.396	913.377
330.300	28.551	1141.713	913.250
331.314	28.460	1140.883	912.052
332.329	28.498	1140.374	911.755
333.343	28.542	1139.451	911.153
334.358	28.583	1138.940	910.868
335.373	28.481	1138.533	909.958
336.387	28.463	1137.674	909.101
337.402	28.613	1136.708	908.990
338.416	28.683	1136.046	908.726
339.431	28.520	1135.801	907.647
340.446	28.538	1135.289	907.244
341.460	28.550	1134.789	906.825
342.475	28.642	1133.650	906.286
343.489	28.694	1133.000	905.946
344.504	28.551	1131.784	904.186
345.519	28.744	1130.805	904.277
346.533	28.627	1130.300	903.216
347.548	28.754	1129.703	903.282
348.562	28.714	1128.759	902.253
349.577	28.680	1128.310	901.646
350.592	28.722	1127.595	901.203
351.606	28.571	1126.933	899.852
352.621	28.647	1126.386	899.707
353.635	28.658	1126.157	899.500
354.650	28.611	1124.898	898.184
355.665	28.750	1124.465	898.437
356.679	28.728	1124.057	897.923
357.694	28.766	1123.904	897.912
358.708	28.754	1122.727	896.832
359.723	28.800	1122.007	896.402
360.738	28.669	1121.737	895.469
361.752	28.739	1121.033	895.166
362.767	28.847	1120.361	895.076
363.781	28.864	1120.000	894.793
364.796	28.887	1119.151	894.149
365.810	28.845	1118.711	893.512
366.825	28.897	1117.836	892.986
367.840	28.918	1118.020	893.155
368.854	28.914	1116.991	892.236
369.869	29.003	1116.033	891.826
370.883	28.969	1115.472	891.130
371.898	29.020	1114.800	890.765
372.913	29.006	1114.369	890.274
373.927	28.967	1114.197	889.869
374.942	29.029	1113.332	889.399
375.956	29.023	1112.515	888.637
376.971	28.976	1112.309	888.166
377.986	28.999	1111.809	887.802
379.000	29.079	1111.231	887.646
380.015	29.043	1110.799	887.047
381.029	29.073	1110.167	886.609
382.044	29.058	1109.191	885.679
383.059	29.101	1109.004	885.657
384.073	29.157	1107.750	884.850
385.088	29.148	1107.114	884.218
386.102	29.066	1106.390	883.169
387.117	29.132	1105.572	882.752
388.132	29.128	1105.035	882.230
389.146	28.941	1104.385	880.737
390.161	29.115	1103.627	880.886
391.175	29.188	1102.608	880.345
392.190	29.144	1102.228	879.751
393.205	29.062	1101.933	879.046
394.219	29.184	1100.937	878.758
395.234	29.263	1099.949	878.267
396.248	29.318	1098.855	877.580
397.263	29.195	1098.187	876.379
398.278	29.147	1097.928	875.867
399.292	29.331	1097.405	876.246
400.307	29.246	1096.822	875.300
401.321	29.294	1095.873	874.695
402.336	29.178	1095.830	874.030
403.350	29.214	1094.849	873.343
404.365	29.373	1093.988	873.332
405.380	29.267	1093.532	872.390
406.394	29.389	1092.537	872.095
407.409	29.467	1091.667	871.693
408.423	29.450	1091.326	871.261
409.438	29.460	1090.381	870.476
410.453	29.540	1089.734	870.262
411.467	29.570	1088.819	869.594
412.482	29.495	1088.367	868.802
413.496	29.490	1087.702	868.172
414.511	29.507	1087.236	867.803
415.526	29.571	1086.664	867.572
416.540	29.456	1086.860	867.109
417.555	29.500	1086.169	866.688
418.569	29.565	1085.139	866.096
419.584	29.361	1085.151	865.071
420.599	29.577	1084.692	865.643
421.613	103.314	1320.422	1452.578
422.628	96.170	1354.742	1452.689
