DTS Sentinel unit serial number:	SN413079Multiplexer serial number:	ORYXHardware model number:	OX4-SRSoftware version number:	ORYX F/W v4.00 Oryx Data Collector v3.7.2.0data status	okinstallation	princeton_trtdifferential loss correction	single-endedforward channel	channel 2reverse channel	N/Adate	2019/09/13time	05:39:35forward acquisition time	60.00reverse acquisition time	0.00gamma	496.2192k internal	0.2338k external	0.2338temperature offset calibration	1.0190default loss term (dB/km)	0.3790temperature slope calibration	1.0000multiplexer offset coefficient	1.0000multiplexer slope coefficient	1.0000fibre end	0.00T internal ref (°C)	26.20T ext. ref 1 (°C)	4.05T ext. ref 2 (°C)	20.88length (m)	temperature (°C)	Stokes	anti-Stokes-747.200	-200.000	-0.141	0.000
-746.185	-27.136	-0.148	0.086
-745.171	-47.020	-0.290	-0.142
-744.156	-53.976	-0.093	0.042
-743.142	-200.000	-0.004	0.127
-742.127	-50.323	-0.521	-0.247
-741.112	-88.434	-0.491	0.147
-740.098	800.000	-0.026	-0.083
-739.083	-178.234	0.153	0.004
-738.069	-48.127	0.234	0.113
-737.054	54.957	-0.185	0.180
-736.039	39.964	-0.098	0.089
-735.025	-89.004	0.295	0.088
-734.010	-18.624	-0.138	0.086
-732.996	96.491	0.179	-0.206
-731.981	4.001	-0.137	0.100
-730.966	36.398	0.267	-0.236
-729.952	93.041	-0.155	-0.175
-728.937	38.353	0.166	-0.149
-727.923	505.348	0.013	0.031
-726.908	193.912	0.045	0.068
-725.894	-158.853	-0.139	0.008
-724.879	-109.625	0.076	0.016
-723.864	582.181	0.138	-0.340
-722.850	-87.283	0.312	-0.095
-721.835	800.000	-0.071	-0.249
-720.821	446.702	0.041	0.091
-719.806	-11.611	-0.160	0.105
-718.791	-156.088	-0.031	0.002
-717.777	-71.694	-0.036	0.014
-716.762	-128.338	0.222	0.032
-715.748	203.387	0.057	-0.089
-714.733	-44.724	-0.329	0.165
-713.718	124.928	0.081	-0.102
-712.704	42.719	-0.182	0.166
-711.689	-200.000	0.015	-0.236
-710.675	11.139	-0.243	-0.186
-709.660	-57.080	-0.528	0.233
-708.645	-112.609	-0.187	0.037
-707.631	-11.144	0.294	-0.194
-706.616	271.879	0.084	0.149
-705.602	102.756	-0.089	-0.105
-704.587	9.218	-0.240	-0.181
-703.572	12.130	0.166	0.128
-702.558	73.776	-0.266	0.279
-701.543	782.631	0.069	0.189
-700.529	46.773	0.095	0.089
-699.514	566.368	0.129	-0.315
-698.499	-200.000	0.026	0.214
-697.485	573.270	-0.048	0.118
-696.470	-125.576	0.108	0.016
-695.456	-139.593	0.172	0.018
-694.441	63.250	0.473	-0.475
-693.426	94.925	0.069	-0.079
-692.412	800.000	0.065	0.205
-691.397	-200.000	-0.019	-0.130
-690.383	523.439	0.102	-0.241
-689.368	800.000	0.073	-0.296
-688.354	-134.205	0.249	0.031
-687.339	-162.924	-0.423	0.021
-686.324	-114.872	-0.121	0.023
-685.310	-200.000	0.008	0.172
-684.295	40.126	-0.057	-0.052
-683.281	-68.172	0.094	-0.037
-682.266	26.134	-0.468	0.391
-681.251	54.245	0.194	-0.187
-680.237	-200.000	0.053	-0.298
-679.222	39.135	-0.307	0.275
-678.208	777.582	-0.100	-0.273
-677.193	-46.327	-0.220	0.108
-676.178	800.000	-0.106	0.409
-675.164	-101.568	-0.254	0.062
-674.149	-107.320	-0.351	-0.077
-673.135	185.666	-0.051	-0.076
-672.120	27.029	0.203	0.170
-671.105	800.000	0.059	0.248
-670.091	-26.562	0.131	-0.077
-669.076	-39.793	0.151	0.079
-668.062	159.776	-0.109	0.151
-667.047	-101.445	0.397	-0.097
-666.032	-109.440	0.059	0.013
-665.018	186.430	-0.186	0.276
-664.003	-78.849	0.313	0.107
-662.989	256.874	0.005	0.008
-661.974	54.793	0.006	0.006
-660.959	2.705	0.169	-0.123
-659.945	-94.252	-0.169	-0.046
-658.930	-4.196	0.180	0.125
-657.916	-59.373	-0.232	-0.100
-656.901	373.869	-0.155	-0.315
-655.886	-73.779	-0.270	-0.098
-654.872	-125.976	0.277	0.042
-653.857	-138.080	-0.037	0.004
-652.843	-81.511	-0.056	0.019
-651.828	-142.777	-0.397	-0.039
-650.814	-84.840	-0.228	0.072
-649.799	-1.747	0.176	0.124
-648.784	800.000	0.006	-0.017
-647.770	-200.000	0.000	-0.082
-646.755	-94.425	0.290	0.079
-645.741	-117.550	-0.163	-0.029
-644.726	339.503	0.062	-0.121
-643.711	-200.000	0.020	0.220
-642.697	199.130	-0.108	-0.165
-641.682	564.766	-0.102	0.247
-640.668	331.965	-0.107	-0.206
-639.653	-128.176	-0.308	-0.044
-638.638	-115.315	-0.495	0.093
-637.624	800.000	0.041	-0.140
-636.609	-107.443	-0.218	-0.048
-635.595	-13.425	-0.416	0.269
-634.580	800.000	-0.077	-0.276
-633.565	-155.138	-0.333	0.022
-632.551	29.314	-0.058	0.050
-631.536	-200.000	-0.000	-0.018
-630.522	-155.887	-0.162	-0.010
-629.507	-147.282	0.097	-0.008
-628.492	-9.359	-0.380	-0.254
-627.478	-200.000	-0.038	-0.191
-626.463	-188.442	-0.222	0.003
-625.449	18.160	0.195	0.156
-624.434	-69.590	0.080	-0.030
-623.419	144.766	0.135	-0.181
-622.405	422.684	0.043	-0.091
-621.390	49.532	-0.327	-0.308
-620.376	-200.000	-0.061	0.285
-619.361	800.000	0.034	0.117
-618.346	42.816	0.211	0.192
-617.332	167.520	-0.041	0.058
-616.317	-147.602	0.326	0.027
-615.303	126.180	0.192	-0.242
-614.288	-200.000	0.071	-0.393
-613.273	-8.187	-0.304	-0.205
-612.259	-106.040	0.216	0.048
-611.244	-29.846	0.125	0.071
-610.230	116.666	0.070	0.086
-609.215	-133.277	-0.251	0.032
-608.201	183.212	-0.090	-0.133
-607.186	38.531	-0.212	-0.188
-606.171	444.786	0.124	0.272
-605.157	194.726	-0.189	-0.286
-604.142	424.001	0.116	-0.249
-603.128	338.608	-0.138	-0.269
-602.113	18.807	0.184	-0.147
-601.098	-200.000	-0.062	0.518
-600.084	360.320	-0.142	-0.284
-599.069	465.882	0.103	0.230
-598.055	-99.408	0.194	-0.049
-597.040	63.247	-0.138	0.138
-596.025	-62.517	-0.262	0.109
-595.011	56.700	0.233	-0.227
-593.996	-200.000	-0.048	0.237
-592.982	800.000	-0.066	0.229
-591.967	62.672	-0.143	0.143
-590.952	-200.000	0.098	0.565
-589.938	-200.000	-0.011	-0.095
-588.923	720.583	0.101	0.268
-587.909	-149.468	0.345	0.027
-586.894	258.567	-0.140	0.241
-585.879	339.731	0.050	-0.096
-584.865	-200.000	0.051	-0.597
-583.850	53.589	0.244	-0.233
-582.836	-88.994	0.394	-0.116
-581.821	-107.556	0.429	-0.094
-580.806	-115.933	-0.231	0.043
-579.792	800.000	0.034	0.109
-578.777	339.016	0.080	-0.155
-577.763	62.042	-0.149	-0.148
-576.748	-200.000	0.005	0.110
-575.733	-154.725	0.384	-0.025
-574.719	-62.084	-0.038	0.016
-573.704	-188.102	0.096	-0.001
-572.690	378.939	0.152	0.310
-571.675	-28.349	-0.351	-0.202
-570.661	800.000	0.049	-0.207
-569.646	-112.584	-0.166	0.033
-568.631	48.023	0.137	-0.128
-567.617	-25.894	-0.127	0.075
-566.602	-200.000	0.020	-0.404
-565.588	-88.523	0.280	0.083
-564.573	-53.241	-0.341	0.156
-563.558	-59.761	0.292	0.125
-562.544	-118.142	0.116	-0.021
-561.529	2.192	0.111	-0.080
-560.515	-196.491	0.317	0.002
-559.500	92.987	-0.082	-0.092
-558.485	175.639	0.125	0.181
-557.471	-200.000	-0.004	-0.068
-556.456	800.000	0.156	-0.508
-555.442	-5.349	0.264	0.181
-554.427	-200.000	-0.053	-0.262
-553.412	-159.519	-0.206	0.011
-552.398	276.084	-0.022	-0.039
-551.383	-200.000	0.017	0.077
-550.369	-121.306	0.191	0.032
-549.354	38.519	-0.096	0.085
-548.339	-6.981	0.163	-0.111
-547.325	9.982	0.185	-0.140
-546.310	1.563	0.234	-0.168
-545.296	-200.000	0.022	0.112
-544.281	-200.000	-0.009	-0.300
-543.266	656.255	0.078	-0.200
-542.252	-200.000	0.017	0.214
-541.237	-170.825	-0.266	-0.009
-540.223	-153.706	0.098	0.007
-539.208	405.061	0.054	0.114
-538.193	-200.000	0.027	-0.194
-537.179	8.420	-0.303	-0.227
-536.164	124.708	0.228	0.286
-535.150	62.443	0.132	0.131
-534.135	800.000	-0.069	-0.202
-533.121	-154.872	-0.230	0.015
-532.106	-71.168	-0.151	-0.056
-531.091	-129.760	-0.423	-0.058
-530.077	3.431	-0.239	0.173
-529.062	149.732	0.105	0.142
-528.048	-165.895	-0.333	-0.014
-527.033	-200.000	-0.007	-0.045
-526.018	-96.080	0.137	-0.036
-525.004	358.630	0.102	-0.204
-523.989	-68.056	-0.178	0.069
-522.975	-200.000	0.021	-0.143
-521.960	-143.610	0.266	0.025
-520.945	-200.000	-0.006	-0.221
-519.931	47.345	0.118	-0.109
-518.916	51.584	-0.161	-0.152
-517.902	-13.921	-0.371	-0.239
-516.887	35.229	-0.154	-0.134
-515.872	774.072	-0.047	-0.127
-514.858	29.141	-0.120	0.102
-513.843	-200.000	0.008	-0.092
-512.829	-200.000	0.015	0.257
-511.814	109.438	0.120	-0.143
-510.799	-59.671	0.157	-0.067
-509.785	-200.000	-0.011	0.156
-508.770	-120.260	0.334	-0.057
-507.756	-100.955	0.262	0.064
-506.741	-200.000	-0.007	-0.213
-505.726	-83.825	-0.385	0.122
-504.712	-200.000	-0.063	-0.281
-503.697	-200.000	0.077	-0.438
-502.683	310.694	0.087	0.162
-501.668	155.362	0.134	0.184
-500.653	-107.327	0.333	0.073
-499.639	-100.564	0.062	0.015
-498.624	-19.444	0.345	0.212
-497.610	-74.997	-0.229	0.082
-496.595	297.951	-0.150	0.273
-495.581	800.000	-0.021	0.080
-494.566	701.172	0.045	0.118
-493.551	406.100	0.137	0.287
-492.537	300.119	0.124	0.227
-491.522	-172.216	-0.193	0.006
-490.508	-181.238	-0.251	-0.005
-489.493	-68.567	0.414	-0.159
-488.478	151.120	-0.118	-0.160
-487.464	-49.795	-0.017	0.008
-486.449	50.048	-0.256	0.240
-485.435	5.578	0.103	0.076
-484.420	-39.351	-0.152	-0.079
-483.405	-98.228	0.114	0.029
-482.391	53.782	0.039	0.037
-481.376	139.277	0.138	0.181
-480.362	-30.808	-0.110	-0.062
-479.347	-141.732	0.092	-0.009
-478.332	217.333	-0.091	-0.144
-477.318	166.173	-0.186	-0.262
-476.303	58.289	-0.257	0.250
-475.289	-166.595	-0.114	-0.005
-474.274	121.308	-0.131	-0.162
-473.259	-42.071	0.149	-0.076
-472.245	-160.933	-0.438	-0.023
-471.230	-167.649	0.171	0.007
-470.216	-100.554	-0.082	-0.020
-469.201	-11.286	0.221	-0.145
-468.186	-124.499	-0.154	0.024
-467.172	486.127	0.073	0.165
-466.157	-71.388	-0.296	-0.110
-465.143	-128.221	-0.315	0.045
-464.128	163.134	0.047	0.065
-463.113	487.869	-0.074	0.167
-462.099	-167.007	0.109	0.004
-461.084	678.646	-0.051	-0.131
-460.070	18.169	-0.143	-0.113
-459.055	32.644	-0.140	0.120
-458.040	-200.000	-0.024	-0.436
-457.026	-74.918	-0.154	0.055
-456.011	-156.890	0.153	0.009
-454.997	233.990	-0.228	0.373
-453.982	-119.751	-0.139	0.024
-452.968	352.382	-0.106	-0.209
-451.953	190.233	0.097	0.144
-450.938	6.595	-0.178	-0.131
-449.924	-85.276	0.431	0.134
-448.909	178.936	-0.096	0.139
-447.895	-86.900	0.160	0.048
-446.880	108.219	0.099	-0.117
-445.865	-49.478	0.058	0.028
-444.851	-82.054	0.396	0.128
-443.836	0.348	0.164	0.116
-442.822	-200.000	-0.042	0.264
-441.807	-115.014	0.383	-0.072
-440.792	-161.154	-0.228	0.012
-439.778	-127.395	-0.220	-0.032
-438.763	800.000	0.062	-0.182
-437.749	388.840	0.067	0.137
-436.734	-79.659	-0.031	-0.010
-435.719	131.051	0.411	0.523
-434.705	-200.000	-0.057	-0.317
-433.690	140.451	0.071	0.093
-432.676	58.710	0.217	-0.212
-431.661	-200.000	0.002	-0.289
-430.646	14.971	0.245	-0.190
-429.632	149.630	-0.202	-0.271
-428.617	230.143	-0.177	0.287
-427.603	-200.000	-0.040	0.265
-426.588	146.527	-0.094	0.125
-425.573	193.603	-0.122	0.183
-424.559	-47.772	0.233	-0.112
-423.544	392.858	0.075	0.154
-422.530	446.773	0.070	0.153
-421.515	133.714	-0.114	0.147
-420.500	336.776	0.176	-0.338
-419.486	-7.305	0.165	-0.111
-418.471	-69.921	-0.089	0.034
-417.457	291.377	0.099	-0.178
-416.442	363.118	-0.028	-0.055
-415.428	17.253	0.260	0.204
-414.413	800.000	0.080	-0.312
-413.398	17.895	-0.354	0.280
-412.384	250.402	-0.101	0.169
-411.369	220.163	0.104	0.166
-410.355	35.748	0.033	0.028
-409.340	418.347	0.171	-0.362
-408.325	109.282	-0.136	0.161
-407.311	409.919	0.131	-0.276
-406.296	695.004	-0.078	-0.202
-405.282	800.000	-0.021	-0.074
-404.267	21.060	0.154	0.123
-403.252	-71.273	-0.237	-0.088
-402.238	71.397	-0.189	-0.194
-401.223	-35.078	-0.212	-0.114
-400.209	-36.215	0.093	0.050
-399.194	-200.000	-0.047	-0.349
-398.179	-58.402	-0.277	0.119
-397.165	-200.000	0.016	0.189
-396.150	-86.221	0.075	-0.023
-395.136	-200.000	-0.008	0.051
-394.121	-197.429	-0.153	0.001
-393.106	32.772	-0.256	-0.219
-392.092	-59.420	0.262	0.112
-391.077	-48.063	0.176	0.084
-390.063	18.347	0.084	-0.067
-389.048	-3.313	0.141	-0.097
-388.033	-72.241	-0.277	0.102
-387.019	800.000	0.039	0.136
-386.004	237.204	0.102	0.167
-384.990	-59.337	-0.384	0.163
-383.975	800.000	-0.143	0.600
-382.960	218.421	0.061	0.097
-381.946	-47.665	0.220	0.106
-380.931	-50.442	-0.348	-0.163
-379.917	102.662	-0.159	-0.184
-378.902	-200.000	0.004	-0.418
-377.888	800.000	0.048	-0.183
-376.873	800.000	0.119	0.383
-375.858	-197.806	-0.313	-0.002
-374.844	800.000	0.014	0.041
-373.829	-200.000	-0.019	-0.184
-372.815	-200.000	0.000	-0.076
-371.800	-75.133	-0.166	0.059
-370.785	-40.171	-0.322	0.166
-369.771	-25.769	-0.164	0.096
-368.756	-134.092	0.289	-0.035
-367.742	59.746	-0.115	-0.112
-366.727	-118.129	-0.089	0.016
-365.712	90.688	0.162	-0.180
-364.698	-65.163	0.185	-0.074
-363.683	-64.263	-0.284	0.114
-362.669	502.415	0.229	0.524
-361.654	-132.336	0.240	0.031
-360.639	-80.517	-0.105	0.035
-359.625	-6.192	0.061	0.041
-358.610	262.302	-0.059	0.101
-357.596	-200.000	0.000	-0.356
-356.581	168.269	0.067	0.095
-355.566	571.805	-0.066	-0.160
-354.552	800.000	-0.061	-0.167
-353.537	11.263	0.136	0.103
-352.523	413.459	-0.038	0.081
-351.508	800.000	0.018	0.071
-350.493	-35.257	-0.065	0.035
-349.479	51.459	0.047	-0.044
-348.464	343.646	0.076	-0.147
-347.450	-112.923	0.238	0.047
-346.435	-200.000	0.008	0.198
-345.420	-139.190	0.201	-0.021
-344.406	-175.144	0.262	-0.007
-343.391	-79.226	0.376	-0.126
-342.377	276.517	0.081	-0.142
-341.362	800.000	0.090	-0.281
-340.348	53.816	0.137	0.130
-339.333	385.560	-0.071	0.144
-338.318	-200.000	-0.004	-0.217
-337.304	-200.000	-0.005	0.214
-336.289	154.313	0.034	-0.047
-335.275	-32.737	0.276	-0.152
-334.260	88.291	0.116	-0.127
-333.245	-65.906	-0.191	0.075
-332.231	701.850	-0.012	0.032
-331.216	-46.506	-0.146	0.071
-330.202	-200.000	0.029	-0.133
-329.187	-17.385	0.123	0.076
-328.172	70.441	0.125	-0.127
-327.158	-137.988	-0.076	0.008
-326.143	-85.105	0.156	0.048
-325.129	-69.389	0.211	0.080
-324.114	-200.000	0.040	0.209
-323.099	530.069	-0.146	-0.341
-322.085	-59.746	-0.102	0.043
-321.070	-122.969	-0.313	-0.050
-320.056	560.782	-0.198	-0.472
-319.041	47.751	0.089	0.082
-318.026	-16.038	0.058	0.036
-317.012	-188.118	-0.418	-0.005
-315.997	800.000	-0.040	-0.142
-314.983	800.000	-0.061	0.196
-313.968	-90.291	0.252	-0.072
-312.953	-200.000	0.038	0.261
-311.939	144.763	-0.146	-0.193
-310.924	59.962	0.054	-0.053
-309.910	-200.000	0.051	-0.300
-308.895	118.850	0.275	0.335
-307.880	800.000	0.178	-0.487
-306.866	800.000	0.108	-0.373
-305.851	14.043	0.151	0.116
-304.837	-2.818	0.207	0.143
-303.822	359.093	0.160	-0.316
-302.807	72.397	0.152	-0.156
-301.793	1.356	0.128	0.091
-300.778	0.395	0.068	0.048
-299.764	-139.655	-0.053	0.006
-298.749	-96.583	0.275	-0.071
-297.735	-200.000	-0.028	-0.149
-296.720	-8.956	-0.196	0.129
-295.705	-4.072	-0.428	0.292
-294.691	-200.000	-0.027	-0.198
-293.676	-176.858	0.135	0.003
-292.662	-71.974	0.110	0.040
-291.647	55.680	-0.161	0.154
-290.632	77.616	0.216	0.227
-289.618	-4.088	-0.082	-0.056
-288.603	-200.000	0.010	-0.176
-287.589	-27.245	0.257	0.147
-286.574	46.932	0.115	0.105
-285.559	244.973	0.098	0.163
-284.545	-49.792	0.031	0.014
-283.530	-200.000	0.030	0.276
-282.516	-110.011	-0.203	0.042
-281.501	92.818	-0.168	0.187
-280.486	-78.853	-0.208	-0.070
-279.472	148.971	-0.050	0.066
-278.457	800.000	-0.071	-0.223
-277.443	800.000	-0.043	0.183
-276.428	-200.000	0.049	0.289
-275.413	657.591	0.059	-0.148
-274.399	441.760	0.133	-0.286
-273.384	-148.437	-0.147	0.012
-272.370	367.870	0.159	-0.316
-271.355	-200.000	0.008	-0.310
-270.340	-71.946	-0.268	-0.098
-269.326	289.453	0.187	0.335
-268.311	-180.075	-0.232	-0.005
-267.297	-2.582	-0.209	0.144
-266.282	800.000	0.121	-0.401
-265.267	42.523	-0.148	0.133
-264.253	11.607	0.222	0.168
-263.238	800.000	0.072	0.303
-262.224	-200.000	0.009	-0.161
-261.209	-49.382	-0.260	0.122
-260.195	-200.000	-0.031	0.159
-259.180	-90.056	0.038	0.011
-258.165	33.894	-0.190	0.163
-257.151	800.000	0.079	-0.294
-256.136	800.000	-0.102	0.283
-255.122	-200.000	-0.004	0.116
-254.107	187.762	-0.158	0.232
-253.092	-200.000	-0.018	0.384
-252.078	-200.000	0.015	-0.128
-251.063	-200.000	0.022	-0.223
-250.049	46.513	0.098	0.090
-249.034	368.100	0.174	-0.346
-248.019	-44.391	0.348	-0.172
-247.005	-116.062	0.240	0.044
-245.990	-31.203	-0.120	-0.066
-244.976	-64.532	0.119	-0.048
-243.961	800.000	-0.123	-0.506
-242.946	724.148	-0.103	0.269
-241.932	191.575	-0.289	0.429
-240.917	-72.902	0.127	-0.046
-239.903	800.000	0.043	0.127
-238.888	-137.141	-0.269	0.030
-237.873	-6.188	-0.041	-0.028
-236.859	-57.765	-0.102	0.044
-235.844	8.328	-0.121	0.089
-234.830	-56.153	0.320	-0.140
-233.815	30.220	-0.129	-0.109
-232.800	800.000	-0.028	-0.096
-231.786	132.085	-0.134	-0.169
-230.771	213.098	-0.121	0.188
-229.757	-143.641	-0.336	-0.031
-228.742	5.257	0.379	-0.275
-227.727	800.000	0.074	0.255
-226.713	102.339	-0.160	0.184
-225.698	19.510	-0.237	0.187
-224.684	254.075	-0.068	-0.114
-223.669	512.855	0.114	0.261
-222.655	375.282	-0.113	0.226
-221.640	-200.000	0.020	0.106
-220.625	-200.000	0.050	0.235
-219.611	195.288	-0.290	0.433
-218.596	7.555	-0.249	0.183
-217.582	232.256	-0.046	-0.074
-216.567	152.686	-0.147	0.197
-215.552	-124.287	-0.204	-0.031
-214.538	-94.991	0.270	-0.072
-213.523	257.833	0.049	-0.083
-212.509	-162.671	-0.101	0.005
-211.494	-10.354	0.274	0.179
-210.479	-85.585	-0.281	-0.086
-209.465	-200.000	-0.054	0.325
-208.450	-71.459	0.089	0.033
-207.436	144.376	0.036	-0.047
-206.421	155.632	-0.182	0.247
-205.406	-25.056	-0.234	0.136
-204.392	36.604	0.276	-0.240
-203.377	-200.000	-0.022	-0.141
-202.363	-102.274	-0.592	0.140
-201.348	-111.751	0.332	-0.066
-200.333	800.000	-0.024	0.092
-199.319	174.103	0.068	0.096
-198.304	188.557	-0.088	0.129
-197.290	-200.000	-0.017	-0.085
-196.275	-126.404	0.148	0.022
-195.260	-170.945	-0.167	-0.006
-194.246	-200.000	-0.032	-0.244
-193.231	-41.508	0.091	-0.046
-192.217	481.417	0.075	-0.168
-191.202	-200.000	0.049	-0.260
-190.187	-29.503	-0.103	0.058
-189.173	80.277	-0.108	0.114
-188.158	248.496	-0.074	-0.123
-187.144	-200.000	-0.069	-0.311
-186.129	30.334	-0.323	0.271
-185.114	-50.327	-0.315	0.146
-184.100	26.060	-0.152	-0.124
-183.085	227.614	-0.086	-0.138
-182.071	47.803	0.344	0.315
-181.056	-200.000	0.054	0.321
-180.042	151.656	0.103	0.138
-179.027	-43.038	0.362	-0.180
-178.012	-200.000	0.013	0.080
-176.998	-53.835	0.357	-0.160
-175.983	111.901	-0.101	0.119
-174.969	-34.471	0.079	-0.043
-173.954	-40.557	-0.202	-0.103
-172.939	704.318	0.085	0.221
-171.925	-57.760	0.033	-0.014
-170.910	-200.000	-0.022	-0.332
-169.896	-200.000	0.045	0.325
-168.881	-200.000	-0.040	0.300
-167.866	-138.423	0.238	-0.026
-166.852	45.649	-0.082	-0.074
-165.837	800.000	0.079	-0.234
-164.823	-97.031	0.301	0.077
-163.808	-200.000	-0.052	-0.265
-162.793	105.669	-0.048	0.056
-161.779	-200.000	-0.002	-0.064
-160.764	80.241	0.127	0.134
-159.750	-200.000	-0.001	0.157
-158.735	-57.472	0.389	-0.167
-157.720	-200.000	0.014	-0.139
-156.706	245.499	0.191	0.315
-155.691	-200.000	0.027	0.198
-154.677	-200.000	-0.024	0.269
-153.662	426.559	0.018	0.039
-152.647	98.376	-0.070	-0.079
-151.633	52.660	0.142	-0.133
-150.618	-29.940	-0.154	-0.086
-149.604	-200.000	0.021	0.210
-148.589	-24.723	0.149	0.087
-147.574	27.970	0.274	-0.226
-146.560	-191.569	0.233	0.002
-145.545	-124.534	-0.572	0.087
-144.531	469.927	-0.049	-0.108
-143.516	-200.000	-0.038	-0.250
-142.502	41.421	-0.147	-0.130
-141.487	-41.956	0.125	0.063
-140.472	-91.445	0.202	0.057
-139.458	98.050	0.272	0.307
-138.443	107.617	0.307	0.358
-137.429	-113.202	0.162	0.031
-136.414	-0.869	0.174	0.121
-135.399	5.923	-0.240	0.174
-134.385	800.000	-0.012	-0.037
-133.370	-105.052	-0.065	0.015
-132.356	233.734	-0.076	0.122
-131.341	82.033	-0.097	0.103
-130.326	-200.000	-0.017	0.365
-129.312	-37.116	0.236	-0.124
-128.297	-200.000	-0.049	0.233
-127.283	-200.000	-0.054	0.435
-126.268	472.894	-0.163	0.360
-125.253	107.155	0.292	-0.340
-124.239	793.676	-0.054	0.145
-123.224	105.304	0.216	-0.250
-122.210	4.507	0.062	0.045
-121.195	368.248	0.103	0.203
-120.180	-86.839	0.359	-0.107
-119.166	-78.542	-0.166	0.056
-118.151	-112.449	0.183	-0.036
-117.137	793.278	-0.058	-0.156
-116.122	-9.991	0.093	0.061
-115.107	17.605	0.051	-0.040
-114.093	22.407	-0.068	0.054
-113.078	-25.272	-0.184	0.107
-112.064	-100.373	-0.229	-0.056
-111.049	-200.000	-0.053	0.304
-110.034	-200.000	0.001	-0.031
-109.020	39.175	0.203	0.178
-108.005	-200.000	-0.084	-0.404
-106.991	68.257	0.273	0.273
-105.976	-86.767	0.154	-0.046
-104.962	-200.000	-0.002	0.154
-103.947	-200.000	0.017	0.090
-102.932	-34.523	0.121	0.065
-101.918	-37.093	-0.314	0.164
-100.903	237.926	0.054	-0.087
-99.889	14.212	-0.211	-0.161
-98.874	64.990	0.096	-0.095
-97.859	289.260	-0.018	0.033
-96.845	351.520	0.046	-0.089
-95.830	544.868	-0.093	0.217
-94.816	-200.000	0.005	-0.201
-93.801	127.041	0.062	-0.076
-92.786	422.197	-0.106	0.223
-91.772	191.394	-0.194	-0.285
-90.757	39.450	-0.211	-0.185
-89.743	-200.000	0.019	0.167
-88.728	19.030	-0.263	0.206
-87.713	-70.598	0.064	-0.024
-86.699	-65.598	-0.233	0.091
-85.684	-92.601	0.051	-0.014
-84.670	205.485	0.252	0.384
-83.655	-109.619	0.654	-0.135
-82.640	51.356	-0.179	-0.166
-81.626	25.765	0.096	0.079
-80.611	57.742	-0.179	0.171
-79.597	-163.356	0.291	0.014
-78.582	20.517	0.192	0.152
-77.567	236.284	0.103	0.166
-76.553	-126.149	-0.365	-0.053
-75.538	-178.652	0.354	-0.008
-74.524	238.400	-0.136	0.221
-73.509	429.584	-0.030	0.063
-72.494	87.802	-0.140	0.152
-71.480	154.569	-0.206	0.276
-70.465	-112.075	0.400	0.079
-69.451	-106.493	0.224	-0.049
-68.436	-59.244	-0.094	-0.039
-67.422	800.000	-0.096	-0.306
-66.407	-200.000	-0.005	-0.035
-65.392	-200.000	0.012	0.114
-64.378	-149.507	-0.397	0.031
-63.363	130.251	0.192	0.240
-62.349	-138.967	0.445	-0.047
-61.334	-19.872	-1.321	-0.797
-60.319	-9.149	0.772	0.504
-59.305	-200.000	-0.154	-1.142
-58.290	243.576	0.612	1.002
-57.276	294.191	0.894	1.597
-56.261	-200.000	116.744	640.001
-55.246	486.851	1550.137	3453.915
-54.232	173.200	2728.006	3841.602
-53.217	97.316	2294.181	2572.641
-52.203	35.123	1900.887	1626.792
-51.188	29.330	1694.377	1405.983
-50.173	26.986	1653.726	1354.729
-49.159	46.743	1711.877	1553.069
-48.144	45.572	1725.163	1556.163
-47.130	28.758	1682.239	1391.361
-46.115	26.231	1667.552	1360.158
-45.100	26.235	1662.273	1355.830
-44.086	26.156	1660.009	1353.331
-43.071	26.120	1657.903	1351.291
-42.057	26.116	1655.190	1349.002
-41.042	26.082	1653.091	1346.982
-40.027	26.156	1651.109	1345.867
-39.013	26.066	1649.230	1343.608
-37.998	26.022	1648.071	1342.287
-36.984	26.096	1646.523	1341.521
-35.969	26.143	1645.397	1340.899
-34.954	26.212	1643.567	1339.863
-33.940	26.168	1642.092	1338.285
-32.925	26.190	1640.079	1336.750
-31.911	26.177	1638.938	1335.671
-30.896	26.146	1636.977	1333.794
-29.881	26.168	1635.246	1332.492
-28.867	26.168	1633.632	1331.127
-27.852	26.166	1632.047	1329.767
-26.838	26.112	1631.075	1328.526
-25.823	26.144	1629.728	1327.606
-24.809	26.344	1627.786	1327.447
-23.794	26.213	1626.691	1325.537
-22.779	26.308	1624.635	1324.501
-21.765	26.220	1623.400	1322.799
-20.750	26.136	1621.579	1320.648
-19.736	26.274	1620.324	1320.583
-18.721	26.276	1618.964	1319.441
-17.706	26.275	1617.205	1317.947
-16.692	26.322	1615.279	1316.664
-15.677	26.242	1614.925	1315.740
-14.663	26.287	1613.232	1314.635
-13.648	26.208	1612.095	1313.081
-12.633	26.309	1610.014	1312.070
-11.619	26.224	1608.531	1310.193
-10.604	26.284	1606.983	1309.313
-9.590	26.240	1606.096	1308.219
-8.575	26.291	1603.937	1306.777
-7.560	26.279	1603.433	1306.231
-6.546	26.196	1601.919	1304.346
-5.531	26.238	1601.051	1303.890
-4.517	26.173	1600.368	1302.818
-3.502	26.318	1598.783	1302.518
-2.487	26.208	1597.184	1300.374
-1.473	25.933	1585.267	1288.649
-0.458	23.107	1566.010	1252.959
0.556	21.471	1567.398	1221.114
1.571	19.220	1590.988	1223.411
2.586	18.755	1603.628	1229.693
3.600	17.014	1549.998	1176.404
4.615	10.720	1442.986	1054.340
5.629	5.020	1383.764	975.408
6.644	3.999	1376.455	963.816
7.659	3.993	1375.176	962.800
8.673	4.130	1374.259	962.925
9.688	4.058	1372.543	961.186
10.702	3.996	1369.571	958.637
11.717	6.773	1374.408	979.177
12.731	14.071	1388.703	1034.855
13.746	20.822	1399.110	1084.712
14.761	22.730	1401.103	1098.048
15.775	22.149	1399.347	1092.961
16.790	21.331	1396.895	1085.867
17.804	20.462	1394.880	1078.811
18.819	20.173	1393.545	1075.891
19.834	20.088	1393.406	1075.159
20.848	20.147	1392.096	1074.420
21.863	19.930	1391.117	1072.224
22.877	19.817	1389.758	1070.385
23.892	19.720	1388.886	1069.020
24.907	19.753	1387.338	1067.937
25.921	19.782	1386.125	1067.089
26.936	19.706	1385.956	1066.393
27.950	19.811	1384.831	1066.082
28.965	19.943	1383.927	1066.105
29.980	20.074	1382.696	1065.868
30.994	20.164	1382.327	1066.040
32.009	20.171	1381.114	1065.052
33.023	20.156	1379.723	1063.794
34.038	20.064	1378.260	1062.010
35.053	19.988	1376.931	1060.427
36.067	19.862	1376.023	1058.861
37.082	19.940	1375.102	1058.533
38.096	19.976	1374.146	1057.925
39.111	20.020	1373.681	1057.743
40.126	19.983	1372.175	1056.262
41.140	19.490	1371.404	1052.574
42.155	19.461	1370.969	1051.970
43.169	19.407	1370.675	1051.318
44.184	19.391	1370.076	1050.668
45.199	19.410	1370.231	1050.813
46.213	19.662	1369.489	1051.683
47.228	19.835	1369.301	1052.501
48.242	19.918	1368.137	1052.013
49.257	19.813	1366.659	1050.152
50.271	19.798	1365.079	1048.752
51.286	19.840	1363.685	1047.840
52.301	19.755	1362.564	1046.375
53.315	19.679	1361.690	1045.152
54.330	19.619	1360.050	1043.434
55.344	19.487	1358.929	1041.687
56.359	19.505	1357.767	1040.810
57.374	19.443	1356.972	1039.738
58.388	19.377	1356.264	1038.707
59.403	19.313	1355.846	1037.909
60.417	19.344	1354.684	1037.113
61.432	19.218	1354.493	1036.117
62.447	19.093	1352.871	1034.033
63.461	19.185	1351.562	1033.496
64.476	19.130	1350.803	1032.492
65.490	19.107	1349.459	1031.235
66.505	19.201	1347.880	1030.499
67.520	19.206	1346.898	1029.689
68.534	19.247	1345.406	1028.704
69.549	19.150	1344.713	1027.499
70.563	18.987	1343.885	1025.809
71.578	18.942	1342.650	1024.507
72.593	18.744	1341.768	1022.562
73.607	18.737	1341.199	1021.996
74.622	18.900	1340.083	1022.023
75.636	18.991	1339.398	1021.951
76.651	18.983	1338.471	1021.106
77.666	18.946	1338.475	1020.797
78.680	19.104	1337.925	1021.229
79.695	19.231	1337.165	1021.313
80.709	19.318	1336.908	1021.542
81.724	19.498	1335.840	1021.701
82.739	19.489	1335.064	1020.964
83.753	19.662	1334.386	1021.376
84.768	19.854	1334.164	1022.251
85.782	20.047	1332.738	1022.209
86.797	20.107	1331.446	1021.479
87.812	19.767	1330.439	1018.610
88.826	19.820	1329.211	1017.892
89.841	19.911	1328.071	1017.465
90.855	19.991	1327.005	1017.032
91.870	20.041	1326.448	1016.806
92.884	20.074	1325.685	1016.325
93.899	20.138	1325.154	1016.201
94.914	20.179	1324.147	1015.583
95.928	20.207	1322.901	1014.697
96.943	20.096	1322.322	1013.516
97.957	19.893	1321.160	1011.349
98.972	19.931	1320.196	1010.743
99.987	19.953	1319.287	1010.084
101.001	20.006	1317.998	1009.320
102.016	19.938	1317.322	1008.316
103.030	20.002	1316.402	1007.894
104.045	19.972	1315.445	1006.901
105.060	19.811	1314.244	1004.958
106.074	19.561	1312.382	1001.989
107.089	19.196	1310.893	998.648
108.103	19.134	1309.352	997.030
109.118	19.158	1308.297	996.277
110.133	19.183	1306.880	995.253
111.147	19.256	1305.951	994.882
112.162	19.145	1304.977	993.412
113.176	19.362	1303.380	993.357
114.191	19.308	1302.597	992.360
115.206	19.368	1301.603	991.859
116.220	19.468	1300.283	991.342
117.235	19.316	1298.950	989.364
118.249	19.232	1298.158	988.191
119.264	19.234	1296.774	987.064
120.279	19.162	1295.699	985.748
121.293	18.991	1295.226	984.319
122.308	18.940	1293.569	982.680
123.322	18.972	1292.164	981.712
124.337	18.854	1291.116	980.152
125.352	18.787	1290.243	979.024
126.366	18.834	1288.788	978.100
127.381	18.811	1288.360	977.556
128.395	18.816	1287.011	976.476
129.410	18.809	1286.670	976.094
130.424	18.969	1285.787	976.243
131.439	19.118	1285.060	976.450
132.454	19.158	1284.121	975.875
133.468	19.282	1283.217	975.806
134.483	19.250	1282.898	975.297
135.497	19.268	1281.705	974.404
136.512	19.339	1280.505	973.809
137.527	19.457	1279.124	973.337
138.541	19.382	1277.992	971.969
139.556	19.351	1277.128	971.047
140.570	19.614	1275.602	971.279
141.585	19.685	1275.005	971.138
142.600	19.818	1273.717	970.821
143.614	19.882	1273.086	970.614
144.629	19.965	1272.192	970.310
145.643	19.940	1270.788	969.012
146.658	19.785	1269.502	967.080
147.673	19.492	1268.176	964.346
148.687	19.468	1266.447	962.810
149.702	19.337	1265.222	961.066
150.716	19.096	1264.426	959.031
151.731	19.277	1262.900	958.800
152.746	19.454	1261.208	958.411
153.760	19.574	1260.272	958.284
154.775	19.551	1259.692	957.632
155.789	19.691	1258.329	957.282
156.804	19.772	1257.642	957.127
157.819	19.767	1257.003	956.527
158.833	19.789	1256.326	956.046
159.848	19.987	1255.393	956.346
160.862	20.018	1253.753	955.182
161.877	19.578	1252.654	951.836
162.892	19.374	1251.498	949.750
163.906	19.389	1250.215	948.775
164.921	19.337	1249.806	948.096
165.935	19.427	1248.691	947.662
166.950	19.555	1248.429	948.079
167.964	19.514	1247.464	947.037
168.979	19.531	1246.730	946.492
169.994	19.433	1245.997	945.313
171.008	19.526	1245.353	945.252
172.023	19.704	1244.252	945.305
173.037	19.820	1244.247	945.855
174.052	19.915	1242.879	945.248
175.067	19.521	1241.869	942.248
176.081	19.324	1240.596	940.121
177.096	19.375	1239.327	939.353
178.110	19.421	1238.511	938.904
179.125	19.395	1237.517	937.924
180.140	19.709	1236.069	938.450
181.154	19.679	1235.648	937.887
182.169	19.832	1234.628	937.858
183.183	19.895	1233.395	937.179
184.198	19.990	1232.196	936.702
185.213	19.933	1231.168	935.529
186.227	19.994	1230.161	935.006
187.242	20.106	1229.433	934.975
188.256	20.129	1228.109	934.012
189.271	20.136	1227.330	933.375
190.286	19.916	1226.062	931.144
191.300	19.455	1224.636	927.501
192.315	19.283	1224.111	926.099
193.329	19.376	1224.060	926.477
194.344	19.501	1222.754	926.078
195.359	19.644	1222.635	926.672
196.373	19.751	1222.240	926.865
197.388	19.760	1222.359	926.920
198.402	20.039	1221.965	928.034
199.417	20.251	1221.181	928.491
200.432	20.362	1221.042	928.898
201.446	20.479	1219.948	928.606
202.461	20.520	1219.483	928.388
203.475	20.489	1218.044	927.048
204.490	20.119	1217.034	924.226
205.504	19.979	1215.534	922.260
206.519	19.948	1213.991	920.843
207.534	19.815	1213.053	919.342
208.548	19.938	1211.920	919.054
209.563	19.936	1211.214	918.427
210.577	19.896	1210.407	917.524
211.592	19.918	1209.911	917.180
212.607	20.214	1209.749	918.547
213.621	20.208	1208.143	917.211
214.636	20.220	1207.169	916.453
215.650	20.182	1206.490	915.658
216.665	20.293	1205.636	915.515
217.680	20.486	1204.739	915.772
218.694	20.591	1203.681	915.439
219.709	20.421	1202.946	913.905
220.723	20.386	1202.356	913.190
221.738	20.332	1201.663	912.299
222.753	20.364	1200.608	911.583
223.767	20.352	1200.004	910.980
224.782	20.543	1199.385	911.435
225.796	20.564	1199.148	911.285
226.811	20.579	1198.419	910.725
227.826	20.417	1197.483	909.088
228.840	20.298	1196.260	907.457
229.855	20.260	1195.519	906.613
230.869	20.215	1194.919	905.845
231.884	20.129	1193.981	904.607
232.899	19.993	1193.700	903.600
233.913	19.991	1192.420	902.541
234.928	19.962	1191.673	901.745
235.942	19.779	1191.398	900.508
236.957	19.928	1189.587	899.833
237.972	19.876	1189.193	899.187
238.986	19.859	1188.967	898.848
240.001	19.928	1187.823	898.257
241.015	20.010	1187.383	898.274
242.030	20.047	1186.665	897.844
243.045	20.210	1185.493	897.721
244.059	20.289	1184.761	897.493
245.074	20.305	1184.113	897.006
246.088	20.323	1183.719	896.722
247.103	20.603	1182.653	897.281
248.117	20.603	1182.092	896.776
249.132	20.740	1182.235	897.509
250.147	21.072	1181.170	898.331
251.161	21.354	1180.322	899.058
252.176	21.222	1180.411	898.369
253.190	21.356	1179.555	898.323
254.205	21.427	1179.121	898.281
255.220	21.463	1178.151	897.649
256.234	21.346	1177.563	896.520
257.249	21.472	1177.012	896.666
258.263	21.297	1176.314	895.159
259.278	21.346	1175.630	894.808
260.293	21.313	1175.202	894.237
261.307	21.339	1175.183	894.273
262.322	21.574	1173.884	894.408
263.336	21.484	1173.234	893.376
264.351	21.408	1173.061	892.774
265.366	21.465	1172.156	892.298
266.380	21.440	1171.593	891.665
267.395	21.386	1170.366	890.378
268.409	21.310	1169.779	889.461
269.424	21.264	1168.420	888.116
270.439	21.300	1167.903	887.827
271.453	21.182	1167.648	886.956
272.468	21.062	1165.885	884.930
273.482	20.948	1165.449	883.943
274.497	20.971	1165.294	883.865
275.512	20.880	1164.736	882.901
276.526	20.949	1163.300	882.087
277.541	21.027	1162.779	882.007
278.555	21.139	1162.589	882.348
279.570	21.415	1161.628	882.936
280.585	21.521	1161.146	883.025
281.599	21.494	1160.177	882.075
282.614	21.305	1158.799	880.001
283.628	21.044	1157.857	877.891
284.643	21.170	1156.729	877.591
285.657	21.160	1155.770	876.736
286.672	21.062	1155.435	875.912
287.687	21.131	1154.331	875.346
288.701	21.348	1153.197	875.492
289.716	21.191	1152.524	874.118
290.730	21.166	1151.833	873.394
291.745	21.204	1151.261	873.071
292.760	21.371	1150.189	873.015
293.774	21.390	1150.375	873.177
294.789	21.561	1149.687	873.429
295.803	21.564	1148.983	872.833
296.818	21.358	1147.852	870.871
297.833	21.162	1147.433	869.498
298.847	21.173	1146.238	868.571
299.862	21.258	1145.432	868.303
300.876	21.348	1145.209	868.507
301.891	21.432	1144.563	868.357
302.906	21.588	1143.790	868.466
303.920	21.711	1143.780	868.993
304.935	21.776	1143.280	868.858
305.949	21.917	1142.691	869.031
306.964	21.892	1141.771	868.134
307.979	21.646	1140.834	866.125
308.993	21.570	1140.308	865.273
310.008	21.686	1139.339	865.035
311.022	21.918	1138.448	865.426
312.037	21.824	1137.518	864.182
313.052	21.552	1136.966	862.345
314.066	21.395	1135.184	860.146
315.081	21.297	1134.424	859.011
316.095	21.181	1133.537	857.694
317.110	21.305	1133.189	857.964
318.125	21.268	1132.191	856.949
319.139	21.273	1131.265	856.200
320.154	21.294	1130.943	855.979
321.168	21.150	1130.625	854.957
322.183	21.297	1129.658	854.872
323.197	21.355	1129.307	854.813
324.212	21.359	1128.826	854.393
325.227	21.443	1128.275	854.313
326.241	21.470	1127.096	853.477
327.256	21.349	1126.669	852.486
328.270	21.335	1125.379	851.367
329.285	21.341	1124.585	850.718
330.300	21.461	1123.426	850.349
331.314	21.341	1122.885	849.283
332.329	21.294	1121.863	848.208
333.343	21.516	1120.819	848.418
334.358	21.509	1120.620	848.159
335.373	21.742	1119.866	848.642
336.387	21.756	1119.253	848.171
337.402	21.838	1118.405	847.848
338.416	21.876	1117.472	847.253
339.431	21.800	1117.803	847.060
340.446	21.986	1116.563	846.945
341.460	22.187	1116.362	847.685
342.475	22.206	1115.403	846.971
343.489	22.223	1114.789	846.513
344.504	22.244	1113.908	845.871
345.519	22.377	1113.185	845.886
346.533	22.381	1112.434	845.262
347.548	22.471	1111.218	844.693
348.562	22.492	1110.892	844.473
349.577	22.208	1109.615	842.067
350.592	21.979	1108.552	840.086
351.606	21.795	1107.559	838.381
352.621	21.772	1106.891	837.690
353.635	21.611	1105.796	836.022
354.650	21.765	1105.071	836.131
355.665	21.761	1104.801	835.837
356.679	21.891	1104.658	836.271
357.694	21.968	1103.949	836.031
358.708	22.075	1103.085	835.810
359.723	22.058	1102.699	835.361
360.738	22.143	1101.776	834.995
361.752	22.282	1100.967	834.967
362.767	22.139	1100.748	834.049
363.781	22.110	1100.467	833.625
364.796	22.350	1099.859	834.225
365.810	22.377	1099.535	834.035
366.825	22.562	1099.020	834.446
367.840	22.845	1098.210	835.097
368.854	22.850	1098.100	834.961
369.869	22.746	1097.453	833.904
370.883	22.590	1096.331	832.244
371.898	22.491	1095.460	831.041
372.913	22.389	1095.016	830.150
373.927	22.370	1095.024	829.991
374.942	22.723	1094.158	830.924
375.956	22.717	1093.409	830.253
376.971	22.562	1092.608	828.844
377.986	22.668	1091.935	828.758
379.000	22.796	1091.883	829.247
380.015	22.945	1091.560	829.630
381.029	22.919	1090.874	828.909
382.044	22.921	1090.111	828.268
383.059	22.909	1089.252	827.485
384.073	22.780	1088.187	825.997
385.088	22.797	1087.392	825.402
386.102	22.881	1086.321	824.907
387.117	22.589	1085.429	822.797
388.132	22.358	1084.265	820.763
389.146	22.442	1083.368	820.401
390.161	22.345	1083.183	819.740
391.175	22.532	1081.657	819.383
392.190	22.555	1081.566	819.348
393.205	22.750	1081.008	819.759
394.219	22.725	1080.099	818.882
395.234	22.690	1079.240	817.993
396.248	22.496	1077.886	815.997
397.263	22.507	1076.849	815.190
398.278	22.343	1076.185	813.857
399.292	22.317	1075.036	812.796
400.307	22.227	1074.484	811.890
401.321	22.253	1073.926	811.517
402.336	22.166	1073.680	810.858
403.350	22.235	1072.458	810.181
404.365	22.363	1072.241	810.536
405.380	22.459	1071.521	810.361
406.394	22.497	1070.914	810.006
407.409	22.748	1070.000	810.393
408.423	22.924	1069.484	810.739
409.438	23.029	1068.857	810.677
410.453	22.966	1068.653	810.158
411.467	23.262	1067.637	810.672
412.482	23.130	1067.032	809.536
413.496	23.276	1066.436	809.684
414.511	23.315	1065.980	809.441
415.526	23.433	1065.571	809.600
416.540	23.439	1065.123	809.213
417.555	23.335	1064.766	808.397
418.569	23.250	1064.010	807.364
419.584	23.299	1063.375	807.033
420.599	23.290	1062.639	806.361
421.613	157.705	1404.769	1796.836
422.628	145.091	1454.605	1796.905
