DTS Sentinel unit serial number:	SN413079Multiplexer serial number:	ORYXHardware model number:	OX4-SRSoftware version number:	ORYX F/W v4.00 Oryx Data Collector v3.7.2.0data status	okinstallation	princeton_trtdifferential loss correction	single-endedforward channel	channel 2reverse channel	N/Adate	2019/09/19time	14:43:34forward acquisition time	60.00reverse acquisition time	0.00gamma	496.2192k internal	0.2323k external	0.2323temperature offset calibration	1.0021default loss term (dB/km)	0.3790temperature slope calibration	1.0000multiplexer offset coefficient	1.0000multiplexer slope coefficient	1.0000fibre end	0.00T internal ref (°C)	32.61T ext. ref 1 (°C)	1.08T ext. ref 2 (°C)	29.59length (m)	temperature (°C)	Stokes	anti-Stokes-747.200	-200.000	-0.067	-0.318
-746.185	800.000	-0.060	0.242
-745.171	-200.000	-0.005	-0.120
-744.156	-30.449	-0.261	0.150
-743.142	-99.174	-0.061	0.016
-742.127	-38.433	0.295	-0.158
-741.112	-112.501	-0.227	0.046
-740.098	-200.000	0.014	0.256
-739.083	12.245	-0.250	0.194
-738.069	123.455	0.220	0.278
-737.054	34.291	-0.235	0.207
-736.039	800.000	-0.066	0.232
-735.025	157.424	0.108	0.151
-734.010	189.444	0.234	-0.354
-732.996	-200.000	-0.007	-0.160
-731.981	800.000	-0.052	-0.221
-730.966	-125.116	0.148	-0.023
-729.952	-69.724	0.203	0.078
-728.937	195.457	-0.086	0.132
-727.923	531.361	-0.098	0.234
-726.908	180.681	-0.240	-0.355
-725.894	2.303	-0.317	-0.231
-724.879	166.892	-0.052	0.074
-723.864	25.616	0.090	-0.076
-722.850	-155.389	-0.116	0.008
-721.835	-51.203	-0.060	-0.028
-720.821	-77.960	-0.318	-0.111
-719.806	-97.002	-0.155	0.041
-718.791	-200.000	-0.001	-0.022
-717.777	-162.371	-0.190	-0.010
-716.762	-54.888	-0.130	0.059
-715.748	-81.496	-0.430	-0.143
-714.733	-117.209	-0.276	0.051
-713.718	-192.753	-0.287	0.003
-712.704	8.876	-0.111	0.084
-711.689	-97.975	-0.248	-0.064
-710.675	368.328	-0.185	-0.377
-709.660	-200.000	-0.014	0.067
-708.645	389.214	0.133	0.278
-707.631	-129.570	-0.319	0.044
-706.616	-34.109	0.084	-0.046
-705.602	4.589	-0.190	-0.141
-704.587	-105.771	0.233	-0.053
-703.572	-87.107	-0.130	0.040
-702.558	-0.240	-0.157	-0.112
-701.543	-75.872	-0.138	-0.049
-700.529	235.647	-0.176	0.293
-699.514	-77.585	-0.413	0.144
-698.499	189.408	0.046	0.069
-697.485	800.000	0.102	-0.308
-696.470	-200.000	-0.002	-0.017
-695.456	19.030	0.114	-0.092
-694.441	-93.761	0.239	-0.066
-693.426	-123.931	-0.337	-0.053
-692.412	-65.084	0.206	-0.084
-691.397	-200.000	0.035	-0.270
-690.383	-200.000	0.041	-0.384
-689.368	800.000	-0.027	-0.111
-688.354	-51.837	0.139	-0.065
-687.339	21.728	0.063	0.051
-686.324	-200.000	-0.013	0.103
-685.310	264.051	-0.222	-0.389
-684.295	-124.283	0.233	0.037
-683.281	222.155	-0.028	0.046
-682.266	748.446	0.099	-0.268
-681.251	27.837	0.014	-0.012
-680.237	286.413	-0.063	-0.115
-679.222	32.376	-0.274	-0.238
-678.208	487.679	-0.068	-0.156
-677.193	100.368	0.043	-0.050
-676.178	-99.452	0.276	-0.070
-675.164	-200.000	-0.015	0.098
-674.149	71.052	-0.126	-0.132
-673.135	-14.429	-0.125	0.081
-672.120	800.000	-0.115	-0.352
-671.105	-94.462	-0.228	0.063
-670.091	-200.000	-0.002	0.026
-669.076	716.059	0.040	-0.106
-668.062	-163.786	0.217	0.010
-667.047	-49.308	0.115	-0.055
-666.032	498.519	-0.108	0.250
-665.018	288.429	0.101	0.184
-664.003	-200.000	0.067	-0.384
-662.989	-19.391	-0.183	0.114
-661.974	190.636	-0.041	0.062
-660.959	-120.073	0.221	-0.038
-659.945	-200.000	0.029	-0.327
-658.930	12.775	-0.184	-0.143
-657.916	-93.113	0.555	-0.156
-656.901	800.000	-0.041	0.120
-655.886	800.000	0.040	0.164
-654.872	178.934	-0.093	-0.137
-653.857	800.000	-0.092	0.263
-652.843	-200.000	0.058	0.363
-651.828	-136.177	0.257	-0.030
-650.814	56.464	0.262	-0.256
-649.799	-133.138	0.238	0.030
-648.784	197.648	0.165	-0.254
-647.770	137.741	0.131	-0.173
-646.755	-200.000	-0.001	-0.072
-645.741	-73.300	-0.269	-0.099
-644.726	-154.766	-0.377	-0.025
-643.711	681.153	0.089	0.234
-642.697	800.000	0.061	0.224
-641.682	21.417	-0.254	-0.208
-640.668	800.000	-0.011	-0.039
-639.653	-101.749	-0.089	0.022
-638.638	625.683	0.053	0.134
-637.624	-88.945	-0.119	0.035
-636.609	45.564	0.142	-0.132
-635.595	86.062	-0.134	-0.148
-634.580	36.499	0.150	-0.133
-633.565	-35.836	-0.219	-0.119
-632.551	-148.734	-0.480	-0.039
-631.536	1.797	-0.204	0.148
-630.522	800.000	0.085	-0.274
-629.507	800.000	-0.064	0.256
-628.492	-200.000	-0.028	0.326
-627.478	-121.729	-0.073	0.012
-626.463	-120.785	0.188	0.032
-625.449	33.999	0.085	0.074
-624.434	-0.446	0.117	0.084
-623.419	-0.566	-0.218	0.155
-622.405	267.952	-0.270	-0.474
-621.390	292.726	0.245	-0.449
-620.376	-42.375	0.104	-0.053
-619.361	-200.000	-0.005	-0.068
-618.346	-88.069	0.036	0.011
-617.332	-200.000	-0.055	-0.242
-616.317	-61.955	-0.189	-0.080
-615.303	800.000	-0.047	0.205
-614.288	-200.000	-0.001	-0.086
-613.273	-142.033	0.579	0.058
-612.259	-51.759	-0.498	-0.233
-611.244	90.386	-0.201	-0.226
-610.230	149.686	-0.017	0.023
-609.215	-103.556	-0.040	0.009
-608.201	-76.387	0.042	-0.015
-607.186	154.891	-0.253	-0.349
-606.171	-163.185	-0.443	-0.021
-605.157	-170.087	0.212	-0.008
-604.142	330.026	0.137	0.265
-603.128	-110.774	0.135	0.028
-602.113	-55.287	-0.034	-0.015
-601.098	-200.000	-0.010	0.080
-600.084	-200.000	-0.010	0.125
-599.069	-73.171	-0.250	0.092
-598.055	162.722	0.129	0.182
-597.040	-1.468	-0.347	-0.246
-596.025	748.071	0.055	-0.149
-595.011	800.000	0.091	0.293
-593.996	-200.000	-0.025	-0.212
-592.982	32.467	-0.084	-0.073
-591.967	117.581	-0.204	0.252
-590.952	-179.081	0.093	-0.002
-589.938	107.697	-0.187	0.223
-588.923	-149.020	-0.311	-0.025
-587.909	-166.724	0.342	0.014
-586.894	-18.573	-0.178	-0.111
-585.879	800.000	0.030	-0.121
-584.865	-200.000	-0.024	-0.212
-583.850	73.495	0.051	0.053
-582.836	-16.427	-0.086	0.055
-581.821	-17.039	-0.084	-0.053
-580.806	-200.000	-0.006	-0.271
-579.792	800.000	-0.063	-0.244
-578.777	122.656	0.157	0.196
-577.763	-142.354	0.174	0.017
-576.748	-135.433	-0.248	0.030
-575.733	-200.000	-0.024	0.117
-574.719	85.763	0.200	0.221
-573.704	-122.579	0.409	0.067
-572.690	-97.836	0.181	-0.047
-571.675	152.390	-0.197	-0.270
-570.661	82.825	0.074	0.080
-569.646	-24.016	0.107	0.064
-568.631	-53.867	-0.191	0.087
-567.617	278.996	-0.121	0.216
-566.602	-42.196	-0.196	-0.101
-565.588	-102.033	-0.198	-0.048
-564.573	-200.000	-0.023	-0.156
-563.558	51.453	0.217	-0.206
-562.544	-104.609	-0.071	-0.016
-561.529	77.134	0.176	-0.188
-560.515	800.000	0.046	-0.185
-559.500	-200.000	0.035	-0.301
-558.485	493.314	0.045	-0.104
-557.471	800.000	-0.073	0.251
-556.456	-200.000	0.006	0.082
-555.442	-200.000	0.046	-0.266
-554.427	144.680	0.062	0.084
-553.412	168.624	-0.174	0.248
-552.398	-200.000	0.009	0.143
-551.383	4.503	0.392	0.288
-550.369	-30.346	-0.084	0.048
-549.354	-31.933	-0.373	0.209
-548.339	-101.871	-0.037	-0.009
-547.325	16.281	0.289	-0.229
-546.310	85.692	-0.054	0.060
-545.296	257.730	-0.042	0.073
-544.281	224.195	0.277	0.448
-543.266	-34.298	0.069	0.038
-542.252	-29.685	-0.246	-0.141
-541.237	602.127	0.124	0.310
-540.223	-162.049	0.127	-0.006
-539.208	-60.052	0.529	-0.226
-538.193	-0.872	-0.273	-0.193
-537.179	326.495	0.240	-0.460
-536.164	800.000	0.079	-0.273
-535.150	800.000	-0.027	0.119
-534.135	177.071	-0.031	-0.045
-533.121	-44.252	-0.180	0.090
-532.106	58.447	-0.196	0.192
-531.091	-82.159	-0.174	-0.057
-530.077	-200.000	0.000	0.180
-529.062	71.722	-0.228	-0.238
-528.048	-200.000	0.046	0.284
-527.033	93.467	-0.233	-0.264
-526.018	110.144	0.087	-0.104
-525.004	482.015	-0.022	-0.049
-523.989	17.236	0.167	-0.132
-522.975	263.891	0.150	0.262
-521.960	800.000	-0.067	0.203
-520.945	-200.000	-0.011	0.101
-519.931	-200.000	0.015	-0.111
-518.916	227.066	0.046	-0.075
-517.902	-200.000	0.026	0.151
-516.887	800.000	0.057	-0.206
-515.872	-200.000	-0.006	-0.110
-514.858	-200.000	-0.027	-0.153
-513.843	800.000	0.103	-0.410
-512.829	130.962	-0.088	0.113
-511.814	-166.909	-0.180	0.007
-510.799	-44.477	-0.106	-0.053
-509.785	-72.469	-0.393	0.145
-508.770	295.301	-0.035	0.065
-507.756	-200.000	0.020	-0.108
-506.741	659.439	-0.105	-0.270
-505.726	-20.436	-0.128	-0.078
-504.712	183.680	0.226	-0.334
-503.697	-77.071	0.155	0.054
-502.683	236.908	0.049	-0.081
-501.668	87.462	-0.258	0.286
-500.653	193.563	0.144	0.218
-499.639	79.973	0.182	0.195
-498.624	67.559	-0.224	0.229
-497.610	-200.000	-0.008	-0.073
-496.595	-88.944	-0.377	-0.112
-495.581	-57.043	-0.196	-0.086
-494.566	-200.000	-0.019	-0.338
-493.551	-27.948	-0.183	0.106
-492.537	9.458	-0.163	-0.123
-491.522	-27.981	0.352	-0.204
-490.508	-16.751	0.171	0.108
-489.493	-110.858	-0.223	-0.046
-488.478	149.512	0.268	0.363
-487.464	150.542	-0.146	-0.198
-486.449	-200.000	0.012	-0.184
-485.435	-69.586	0.265	-0.101
-484.420	-67.438	0.253	-0.099
-483.405	374.264	-0.043	-0.088
-482.391	-200.000	0.054	0.429
-481.376	189.198	-0.098	-0.146
-480.362	82.177	-0.077	0.083
-479.347	-5.386	0.274	-0.188
-478.332	-42.456	-0.209	-0.106
-477.318	-102.023	-0.178	0.043
-476.303	118.431	-0.137	-0.169
-475.289	16.964	0.181	0.143
-474.274	105.342	-0.213	0.251
-473.259	-70.978	0.340	0.128
-472.245	512.761	0.077	0.179
-471.230	-145.155	0.288	0.026
-470.216	-97.248	-0.418	-0.109
-469.201	124.521	0.127	0.160
-468.186	-2.293	0.355	0.249
-467.172	-151.486	-0.182	-0.014
-466.157	-72.934	-0.218	-0.080
-465.143	-164.768	-0.274	0.012
-464.128	205.493	-0.134	-0.208
-463.113	778.981	0.077	0.209
-462.099	800.000	0.136	0.449
-461.084	800.000	0.040	0.166
-460.070	-129.433	-0.202	-0.028
-459.055	559.384	-0.196	0.473
-458.040	-67.688	0.209	0.082
-457.026	157.437	0.045	-0.062
-456.011	-18.847	-0.254	-0.158
-454.997	120.497	-0.176	-0.218
-453.982	-200.000	0.029	0.381
-452.968	-143.195	0.206	-0.020
-451.953	91.505	-0.117	0.132
-450.938	350.490	0.160	-0.315
-449.924	28.712	-0.074	-0.063
-448.909	-141.555	0.133	-0.013
-447.895	800.000	-0.033	0.094
-446.880	398.670	-0.085	0.177
-445.865	6.019	-0.085	0.063
-444.851	114.962	0.066	0.080
-443.836	-200.000	-0.051	0.316
-442.822	-24.781	0.223	0.132
-441.807	-200.000	-0.020	-0.151
-440.792	618.253	-0.070	-0.176
-439.778	-44.807	-0.248	0.124
-438.763	-200.000	-0.005	0.284
-437.749	-25.209	0.150	0.089
-436.734	4.090	-0.223	0.162
-435.719	-200.000	-0.051	-0.319
-434.705	-200.000	-0.010	-0.245
-433.690	92.149	0.039	0.044
-432.676	-7.952	-0.214	0.144
-431.661	46.677	0.339	0.314
-430.646	2.570	-0.081	-0.058
-429.632	88.036	-0.034	0.038
-428.617	-200.000	-0.066	-0.294
-427.603	43.407	-0.092	0.084
-426.588	263.057	0.146	0.253
-425.573	-106.340	0.283	0.063
-424.559	319.505	-0.075	-0.142
-423.544	21.621	-0.187	-0.152
-422.530	-140.793	-0.278	0.029
-421.515	-200.000	-0.025	0.202
-420.500	89.719	0.080	-0.089
-419.486	-200.000	-0.027	-0.419
-418.471	800.000	-0.030	0.087
-417.457	-22.315	0.132	-0.080
-416.442	-79.366	-0.232	-0.078
-415.428	-14.267	0.093	-0.060
-414.413	800.000	0.119	-0.380
-413.398	71.462	0.163	0.169
-412.384	150.750	-0.154	-0.209
-411.369	-200.000	0.035	0.203
-410.355	-101.162	0.335	0.082
-409.340	-82.710	0.315	-0.102
-408.325	161.778	0.171	-0.238
-407.311	-200.000	0.025	-0.150
-406.296	800.000	0.010	0.029
-405.282	-14.071	0.125	0.080
-404.267	-69.224	0.092	0.035
-403.252	1.029	-0.306	-0.219
-402.238	571.562	0.025	0.060
-401.223	-14.907	0.169	0.108
-400.209	-6.873	0.118	-0.080
-399.194	84.800	-0.058	-0.063
-398.179	169.147	-0.083	0.118
-397.165	800.000	0.106	0.313
-396.150	800.000	0.024	-0.093
-395.136	430.321	-0.289	0.622
-394.121	394.152	-0.099	0.206
-393.106	48.951	0.095	0.089
-392.092	60.086	-0.076	0.075
-391.077	-200.000	-0.008	-0.298
-390.063	35.145	-0.203	0.177
-389.048	45.999	0.164	0.151
-388.033	-126.933	0.089	0.013
-387.019	-38.269	0.097	0.051
-386.004	-200.000	-0.050	0.386
-384.990	-111.418	-0.456	0.093
-383.975	420.732	-0.083	-0.178
-382.960	35.643	-0.114	0.100
-381.946	707.914	-0.117	0.308
-380.931	-17.740	-0.218	-0.136
-379.917	51.718	0.260	-0.246
-378.902	447.309	-0.158	-0.347
-377.888	800.000	0.128	0.365
-376.873	-200.000	-0.030	0.304
-375.858	767.022	-0.064	0.172
-374.844	35.050	0.171	-0.149
-373.829	800.000	0.123	0.464
-372.815	151.792	-0.090	0.123
-371.800	379.520	-0.058	0.118
-370.785	-42.073	-0.409	-0.208
-369.771	-62.639	0.165	0.068
-368.756	-105.452	0.062	-0.014
-367.742	32.748	0.264	0.227
-366.727	54.307	0.172	0.164
-365.712	426.728	0.102	-0.219
-364.698	130.032	-0.151	0.192
-363.683	-44.304	0.249	-0.124
-362.669	313.767	0.041	0.076
-361.654	-85.005	0.386	-0.120
-360.639	538.770	0.050	-0.117
-359.625	800.000	0.113	-0.430
-358.610	-200.000	-0.053	-0.260
-357.596	197.410	0.126	-0.192
-356.581	800.000	-0.033	-0.096
-355.566	-200.000	-0.004	0.176
-354.552	-200.000	-0.008	0.067
-353.537	365.188	0.104	-0.209
-352.523	21.237	-0.153	-0.123
-351.508	377.980	-0.139	-0.282
-350.493	-66.390	-0.251	-0.099
-349.479	-200.000	-0.010	-0.161
-348.464	-65.390	-0.179	-0.072
-347.450	88.772	0.178	0.197
-346.435	-154.588	0.138	0.009
-345.420	45.202	-0.126	-0.115
-344.406	-79.101	0.024	-0.008
-343.391	-73.560	-0.435	0.158
-342.377	-69.282	0.269	-0.103
-341.362	-97.608	0.275	-0.071
-340.348	129.653	0.176	-0.223
-339.333	-200.000	-0.077	-0.502
-338.318	-200.000	-0.017	-0.198
-337.304	800.000	-0.093	-0.302
-336.289	800.000	0.057	0.225
-335.275	-4.412	-0.199	0.136
-334.260	119.191	-0.122	0.150
-333.245	-23.411	0.153	0.091
-332.231	3.988	0.339	-0.246
-331.216	-43.612	0.242	0.121
-330.202	226.436	0.077	-0.125
-329.187	-14.637	0.104	0.067
-328.172	-131.464	0.473	-0.062
-327.158	-42.794	-0.093	-0.047
-326.143	131.280	-0.034	-0.044
-325.129	-136.978	-0.211	0.024
-324.114	-36.580	-0.167	0.089
-323.099	747.859	-0.047	-0.126
-322.085	44.966	-0.031	0.028
-321.070	9.826	0.142	0.107
-320.056	-177.133	-0.348	-0.009
-319.041	800.000	-0.030	0.099
-318.026	-200.000	0.019	0.084
-317.012	800.000	0.085	0.286
-315.997	-149.911	0.351	0.027
-314.983	800.000	0.049	0.158
-313.968	218.655	-0.156	-0.247
-312.953	13.917	-0.265	-0.204
-311.939	-123.856	0.413	0.065
-310.924	552.665	0.065	0.155
-309.910	800.000	-0.035	-0.114
-308.895	51.823	0.158	-0.150
-307.880	-62.907	-0.131	-0.054
-306.866	42.547	0.097	-0.087
-305.851	32.628	0.071	0.061
-304.837	-200.000	-0.000	0.123
-303.822	800.000	-0.019	0.052
-302.807	-200.000	-0.005	-0.032
-301.793	-200.000	0.025	0.298
-300.778	-116.417	-0.215	-0.039
-299.764	9.685	-0.175	0.132
-298.749	12.796	-0.246	0.189
-297.735	174.419	-0.135	0.194
-296.720	-49.211	-0.270	0.128
-295.705	-1.006	-0.132	-0.093
-294.691	-79.619	0.219	-0.073
-293.676	-10.166	-0.173	0.114
-292.662	115.524	-0.037	-0.045
-291.647	800.000	0.093	-0.314
-290.632	25.873	0.150	-0.124
-289.618	-95.220	0.144	-0.039
-288.603	-200.000	-0.034	0.213
-287.589	657.008	0.014	-0.035
-286.574	70.030	0.220	-0.225
-285.559	49.243	0.223	0.208
-284.545	190.151	-0.243	0.361
-283.530	800.000	0.025	-0.081
-282.516	43.958	-0.106	0.096
-281.501	127.404	0.014	-0.018
-280.486	-10.171	0.294	-0.193
-279.472	-135.912	-0.513	0.060
-278.457	-200.000	-0.005	-0.231
-277.443	-200.000	-0.034	-0.176
-276.428	-200.000	-0.001	-0.322
-275.413	-41.479	-0.307	-0.156
-274.399	-200.000	-0.011	-0.364
-273.384	800.000	0.080	-0.252
-272.370	-109.373	0.271	-0.057
-271.355	-45.961	0.147	0.072
-270.340	582.670	0.071	-0.174
-269.326	-70.484	0.266	0.100
-268.311	-200.000	-0.018	0.128
-267.297	49.838	0.153	0.143
-266.282	800.000	0.110	0.328
-265.267	85.399	0.197	-0.214
-264.253	-20.108	-0.285	0.174
-263.238	-21.943	0.228	0.137
-262.224	154.069	-0.058	0.079
-261.209	108.396	-0.108	-0.127
-260.195	-117.120	0.197	-0.036
-259.180	0.459	-0.156	0.111
-258.165	-200.000	-0.020	-0.233
-257.151	85.790	-0.148	0.161
-256.136	81.719	0.170	0.182
-255.122	-56.643	-0.148	-0.065
-254.107	420.703	0.098	-0.207
-253.092	-200.000	-0.002	0.148
-252.078	158.346	0.107	0.147
-251.063	800.000	0.059	0.242
-250.049	800.000	0.054	-0.186
-249.034	-126.537	-0.186	0.027
-248.019	-122.530	-0.274	-0.044
-247.005	-42.854	-0.147	0.074
-245.990	78.682	-0.106	-0.112
-244.976	197.420	-0.205	-0.309
-243.961	8.859	-0.058	0.043
-242.946	50.028	-0.210	0.196
-241.932	-158.238	-0.313	-0.018
-240.917	-138.295	-0.168	-0.018
-239.903	-65.559	-0.282	0.112
-238.888	-78.685	0.278	0.094
-237.873	-200.000	0.021	0.150
-236.859	-101.842	-0.327	-0.078
-235.844	-200.000	0.399	-0.002
-234.830	-200.000	-0.005	0.193
-233.815	-63.394	-0.330	0.134
-232.800	36.818	0.301	0.263
-231.786	-115.860	0.255	0.047
-230.771	-83.236	0.142	0.045
-229.757	-200.000	-0.010	-0.411
-228.742	63.710	0.056	-0.056
-227.727	-31.882	0.165	0.091
-226.713	-28.791	0.281	-0.160
-225.698	9.994	0.233	0.175
-224.684	119.494	0.137	0.168
-223.669	-200.000	0.009	0.070
-222.655	133.486	0.217	-0.278
-221.640	40.248	-0.182	-0.162
-220.625	254.788	0.207	0.351
-219.611	800.000	0.088	0.314
-218.596	-122.865	-0.172	-0.027
-217.582	800.000	-0.089	0.333
-216.567	-200.000	-0.044	0.224
-215.552	-57.811	0.049	0.021
-214.538	295.470	0.074	0.134
-213.523	-52.711	0.229	-0.104
-212.509	800.000	-0.058	0.180
-211.494	439.938	-0.035	0.076
-210.479	49.786	0.167	-0.155
-209.465	-200.000	-0.075	0.328
-208.450	-200.000	0.002	-0.235
-207.436	800.000	-0.044	0.186
-206.421	309.623	-0.169	0.313
-205.406	-36.647	0.148	0.079
-204.392	800.000	-0.079	-0.325
-203.377	134.915	-0.145	-0.186
-202.363	67.019	0.048	0.048
-201.348	355.201	0.075	-0.148
-200.333	-200.000	-0.010	0.230
-199.319	136.199	-0.137	-0.176
-198.304	800.000	0.098	-0.325
-197.290	53.202	-0.284	-0.269
-196.275	115.074	0.067	-0.080
-195.260	-78.804	-0.406	-0.137
-194.246	800.000	-0.036	-0.105
-193.231	-121.088	0.289	0.048
-192.217	-200.000	0.059	-0.431
-191.202	800.000	0.068	0.193
-190.187	-200.000	-0.010	-0.098
-189.173	116.680	0.210	0.255
-188.158	800.000	-0.097	-0.284
-187.144	-112.656	0.261	-0.051
-186.129	102.333	0.155	0.179
-185.114	251.455	0.233	0.391
-184.100	372.888	0.116	-0.232
-183.085	-146.778	0.238	0.020
-182.071	173.949	0.198	-0.283
-181.056	689.138	-0.052	-0.135
-180.042	-29.914	0.164	-0.092
-179.027	117.599	-0.129	0.157
-178.012	61.306	0.078	0.076
-176.998	-52.203	0.056	-0.026
-175.983	-200.000	0.039	0.226
-174.969	-46.644	-0.295	0.143
-173.954	-12.383	0.059	-0.038
-172.939	-47.269	-0.070	0.034
-171.925	271.725	0.052	-0.090
-170.910	534.012	0.090	0.210
-169.896	46.435	0.274	0.251
-168.881	258.371	0.090	-0.153
-167.866	-200.000	0.018	0.149
-166.852	-106.503	0.153	-0.034
-165.837	195.361	-0.130	-0.194
-164.823	-200.000	-0.073	-0.326
-163.808	-140.651	0.379	0.039
-162.793	-27.198	0.041	0.024
-161.779	800.000	0.072	0.221
-160.764	-39.119	0.173	-0.090
-159.750	-200.000	0.026	0.154
-158.735	-115.794	-0.068	0.013
-157.720	-200.000	-0.010	0.307
-156.706	114.080	-0.070	0.084
-155.691	25.614	-0.179	-0.147
-154.677	205.651	0.033	-0.050
-153.662	-124.663	-0.120	-0.018
-152.647	33.907	0.211	-0.182
-151.633	-93.343	-0.131	0.036
-150.618	-200.000	-0.024	-0.182
-149.604	-19.948	-0.133	-0.081
-148.589	-103.586	0.220	-0.051
-147.574	452.305	-0.080	-0.174
-146.560	-180.966	-0.135	-0.003
-145.545	-200.000	-0.063	-0.304
-144.531	800.000	0.018	0.078
-143.516	-200.000	-0.017	0.180
-142.502	462.378	-0.136	-0.299
-141.487	-132.376	0.130	0.017
-140.472	53.386	-0.171	-0.162
-139.458	21.419	-0.336	-0.269
-138.443	82.252	0.192	0.205
-137.429	-197.221	0.209	0.001
-136.414	42.103	-0.071	-0.063
-135.399	58.202	-0.158	0.152
-134.385	-13.102	-0.228	0.146
-133.370	-110.037	0.199	0.041
-132.356	-53.170	-0.083	0.038
-131.341	431.956	-0.042	-0.091
-130.326	625.194	0.184	-0.458
-129.312	-200.000	-0.015	0.130
-128.297	78.021	-0.284	0.298
-127.283	105.789	0.107	-0.125
-126.268	373.961	-0.051	0.103
-125.253	-79.830	0.195	-0.065
-124.239	7.867	-0.033	0.024
-123.224	546.825	-0.036	0.085
-122.210	-11.967	-0.310	0.200
-121.195	-138.773	0.188	-0.020
-120.180	-85.135	-0.142	-0.044
-119.166	45.254	-0.276	0.251
-118.151	30.846	0.413	0.348
-117.137	-20.521	0.158	0.096
-116.122	-200.000	-0.017	-0.310
-115.107	186.705	0.084	0.123
-114.093	-100.077	-0.067	0.016
-113.078	69.035	0.184	0.186
-112.064	-87.498	0.212	-0.063
-111.049	343.359	0.160	-0.310
-110.034	800.000	-0.051	-0.152
-109.020	20.748	-0.165	-0.132
-108.005	-46.927	-0.258	0.124
-106.991	-160.429	0.433	-0.023
-105.976	126.575	0.202	-0.252
-104.962	4.575	-0.089	-0.064
-103.947	-200.000	-0.003	-0.323
-102.932	179.826	0.237	-0.343
-101.918	-11.375	-0.208	-0.135
-100.903	171.368	-0.152	-0.215
-99.889	-106.056	0.299	0.066
-98.874	106.065	-0.204	-0.238
-97.859	-179.694	-0.147	-0.003
-96.845	-151.947	-0.155	-0.011
-95.830	-140.740	-0.503	0.051
-94.816	-132.482	0.271	0.034
-93.801	-172.484	-0.291	-0.009
-92.786	-79.377	-0.294	0.098
-91.772	-200.000	-0.020	0.222
-90.757	237.581	-0.118	-0.193
-89.743	800.000	0.055	0.184
-88.728	-152.240	-0.262	0.019
-87.713	-8.084	0.231	-0.153
-86.699	154.362	-0.108	0.146
-85.684	668.641	0.117	0.298
-84.670	420.517	0.164	0.346
-83.655	800.000	-0.012	-0.045
-82.640	106.010	0.094	-0.110
-81.626	465.366	-0.133	0.293
-80.611	262.743	0.047	-0.080
-79.597	316.286	0.025	0.047
-78.582	-200.000	-0.028	0.153
-77.567	208.992	-0.004	0.006
-76.553	55.429	0.168	-0.160
-75.538	-41.318	-0.289	0.147
-74.524	357.513	0.095	0.186
-73.509	-183.083	-0.324	-0.006
-72.494	-200.000	-0.011	0.095
-71.480	-58.460	0.073	-0.031
-70.465	460.122	-0.086	0.187
-69.451	-200.000	-0.024	-0.158
-68.436	51.874	-0.175	-0.164
-67.422	159.379	0.038	-0.052
-66.407	231.582	0.035	0.057
-65.392	-200.000	0.019	0.181
-64.378	-49.475	-0.242	-0.113
-63.363	137.941	-0.086	-0.111
-62.349	800.000	-0.064	-0.199
-61.334	20.243	-1.041	-0.827
-60.319	-20.594	0.381	0.230
-59.305	248.392	-0.409	-0.681
-58.290	219.404	0.751	1.181
-57.276	312.082	0.758	1.399
-56.261	-200.000	94.990	547.697
-55.246	493.124	1431.090	3225.403
-54.232	147.799	2646.332	3506.152
-53.217	104.391	2342.896	2710.571
-52.203	42.091	1953.060	1742.599
-51.188	35.931	1738.285	1503.011
-50.173	33.100	1693.652	1442.788
-49.159	50.344	1738.267	1614.316
-48.144	51.903	1754.738	1641.579
-47.130	35.486	1716.306	1480.338
-46.115	32.812	1701.622	1447.140
-45.100	32.601	1696.774	1441.341
-44.086	32.478	1694.319	1438.260
-43.071	32.505	1691.698	1436.188
-42.057	32.580	1689.041	1434.443
-41.042	32.501	1686.803	1431.887
-40.027	32.535	1685.191	1430.722
-39.013	32.476	1683.046	1428.396
-37.998	32.424	1681.578	1426.699
-36.984	32.553	1680.426	1426.639
-35.969	32.577	1678.967	1425.527
-34.954	32.695	1677.403	1425.031
-33.940	32.618	1675.406	1422.699
-32.925	32.663	1673.370	1421.253
-31.911	32.521	1671.597	1418.624
-30.896	32.589	1669.815	1417.566
-29.881	32.590	1668.582	1416.468
-28.867	32.613	1666.895	1415.154
-27.852	32.603	1665.391	1413.743
-26.838	32.695	1663.337	1412.635
-25.823	32.592	1662.192	1410.836
-24.809	32.748	1660.209	1410.262
-23.794	32.657	1659.320	1408.773
-22.779	32.661	1657.639	1407.316
-21.765	32.542	1656.145	1405.106
-20.750	32.585	1654.213	1403.728
-19.736	32.643	1652.788	1402.897
-18.721	32.656	1651.526	1401.871
-17.706	32.570	1650.448	1400.260
-16.692	32.600	1648.158	1398.483
-15.677	32.600	1647.212	1397.624
-14.663	32.659	1645.753	1396.768
-13.648	32.662	1644.073	1395.312
-12.633	32.555	1643.030	1393.576
-11.619	32.758	1640.388	1392.781
-10.604	32.649	1639.247	1390.952
-9.590	32.664	1638.204	1390.120
-8.575	32.612	1637.013	1388.673
-7.560	32.679	1635.516	1387.839
-6.546	32.610	1635.000	1386.843
-5.531	32.649	1633.680	1385.951
-4.517	32.553	1632.507	1384.198
-3.502	32.647	1631.072	1383.619
-2.487	32.748	1629.656	1383.100
-1.473	32.678	1618.574	1373.133
-0.458	30.252	1599.676	1339.551
0.556	25.502	1598.938	1303.817
1.571	22.320	1621.761	1298.859
2.586	21.066	1633.484	1298.803
3.600	18.543	1579.251	1237.385
4.615	10.509	1465.080	1093.835
5.629	2.697	1399.070	993.980
6.644	1.264	1389.704	978.008
7.659	0.978	1389.128	975.672
8.673	0.983	1388.412	975.117
9.688	1.085	1386.005	973.992
10.702	0.763	1383.008	969.738
11.717	4.101	1387.570	994.299
12.731	11.686	1399.506	1051.713
13.746	16.652	1406.518	1088.916
14.761	17.362	1406.799	1093.605
15.775	16.888	1404.357	1088.569
16.790	15.944	1402.114	1080.682
17.804	15.167	1399.339	1073.466
18.819	14.708	1398.363	1069.682
19.834	14.431	1396.827	1066.642
20.848	14.129	1395.314	1063.459
21.863	13.914	1394.252	1061.185
22.877	13.766	1392.791	1059.034
23.892	13.581	1392.257	1057.355
24.907	13.701	1390.995	1057.063
25.921	13.707	1390.589	1056.702
26.936	13.690	1389.666	1055.798
27.950	13.837	1388.435	1055.708
28.965	13.813	1387.812	1054.986
29.980	13.857	1386.773	1054.381
30.994	13.912	1385.487	1053.660
32.009	13.912	1384.612	1052.902
33.023	13.830	1383.975	1051.802
34.038	13.835	1382.333	1050.497
35.053	13.945	1380.816	1049.943
36.067	13.914	1380.113	1049.122
37.082	13.857	1379.204	1047.979
38.096	13.915	1377.683	1047.098
39.111	13.917	1377.363	1046.771
40.126	13.745	1376.591	1045.007
41.140	13.700	1375.589	1043.872
42.155	13.762	1374.852	1043.612
43.169	13.573	1375.597	1042.891
44.184	13.653	1375.070	1042.905
45.199	13.673	1374.597	1042.582
46.213	13.764	1373.710	1042.387
47.228	13.800	1372.597	1041.679
48.242	13.764	1371.513	1040.536
49.257	13.749	1370.038	1039.231
50.271	13.779	1368.685	1038.299
51.286	13.780	1367.684	1037.458
52.301	13.742	1366.328	1036.095
53.315	13.770	1365.003	1035.176
54.330	13.686	1364.157	1033.919
55.344	13.769	1362.734	1033.269
56.359	13.735	1361.930	1032.356
57.374	13.703	1360.728	1031.155
58.388	13.612	1360.216	1030.109
59.403	13.668	1359.597	1029.893
60.417	13.706	1358.382	1029.122
61.432	13.661	1357.973	1028.442
62.447	13.626	1356.738	1027.195
63.461	13.615	1355.747	1026.286
64.476	13.662	1354.739	1025.724
65.490	13.669	1353.480	1024.725
66.505	13.677	1351.785	1023.402
67.520	13.622	1350.895	1022.297
68.534	13.677	1349.997	1021.861
69.549	13.625	1348.702	1020.475
70.563	13.682	1347.372	1019.728
71.578	13.681	1346.302	1018.819
72.593	13.703	1345.558	1018.305
73.607	13.616	1344.675	1017.013
74.622	13.512	1344.134	1015.873
75.636	13.481	1343.397	1015.037
76.651	13.524	1342.698	1014.683
77.666	13.550	1341.649	1013.959
78.680	13.653	1340.914	1013.945
79.695	13.576	1340.363	1012.968
80.709	13.612	1339.375	1012.349
81.724	13.624	1338.728	1011.844
82.739	13.690	1337.712	1011.392
83.753	13.761	1336.470	1010.791
84.768	13.730	1335.346	1009.663
85.782	13.825	1333.915	1009.071
86.797	13.792	1332.523	1007.727
87.812	13.733	1331.331	1006.383
88.826	13.643	1330.686	1005.256
89.841	13.794	1329.185	1004.948
90.855	13.825	1328.441	1004.489
91.870	13.750	1327.353	1003.119
92.884	13.729	1326.580	1002.319
93.899	13.823	1325.820	1002.223
94.914	13.852	1325.231	1001.867
95.928	13.868	1324.305	1001.176
96.943	13.846	1323.346	1000.229
97.957	13.811	1322.435	999.239
98.972	13.820	1321.465	998.472
99.987	13.779	1320.336	997.286
101.001	13.852	1319.066	996.680
102.016	13.764	1318.252	995.444
103.030	13.896	1317.108	995.285
104.045	13.829	1316.747	994.522
105.060	13.842	1315.747	993.759
106.074	13.733	1313.964	991.669
107.089	13.831	1312.774	991.269
108.103	13.713	1311.552	989.554
109.118	13.710	1310.089	988.348
110.133	13.722	1308.816	987.373
111.147	13.755	1307.423	986.428
112.162	13.749	1305.931	985.180
113.176	13.789	1305.066	984.676
114.191	13.765	1304.665	984.144
115.206	13.839	1302.710	983.020
116.220	13.660	1302.130	981.435
117.235	13.841	1300.621	981.281
118.249	13.622	1299.988	979.424
119.264	13.789	1298.104	978.905
120.279	13.752	1297.319	978.010
121.293	13.755	1295.805	976.796
122.308	13.746	1295.172	976.183
123.322	13.840	1293.974	975.744
124.337	13.814	1292.893	974.691
125.352	13.840	1291.683	973.844
126.366	13.759	1290.892	972.685
127.381	13.771	1289.346	971.508
128.395	13.795	1288.924	971.242
129.410	13.807	1287.290	969.994
130.424	13.765	1286.525	969.086
131.439	13.917	1285.446	969.079
132.454	13.805	1284.815	967.860
133.468	13.893	1283.940	967.629
134.483	13.781	1283.044	966.218
135.497	13.835	1281.730	965.456
136.512	13.800	1280.707	964.395
137.527	13.772	1279.388	963.154
138.541	13.927	1277.458	962.517
139.556	13.843	1276.516	961.237
140.570	13.920	1275.452	960.792
141.585	13.739	1274.136	958.669
142.600	13.943	1273.127	959.007
143.614	13.895	1272.185	957.932
144.629	13.987	1270.798	957.334
145.643	13.910	1269.749	956.017
146.658	13.912	1268.828	955.248
147.673	14.059	1266.596	954.330
148.687	13.833	1266.154	952.615
149.702	13.889	1264.561	951.652
150.716	13.905	1263.288	950.706
151.731	13.866	1262.122	949.520
152.746	13.910	1261.031	948.864
153.760	13.915	1259.974	948.015
154.775	13.918	1258.767	947.037
155.789	14.003	1257.779	946.694
156.804	13.925	1256.625	945.300
157.819	14.098	1255.494	945.348
158.833	14.088	1254.292	944.302
159.848	14.084	1253.369	943.502
160.862	14.081	1251.860	942.268
161.877	13.969	1251.475	941.255
162.892	14.004	1250.021	940.277
163.906	14.091	1249.360	940.194
164.921	14.038	1248.173	938.915
165.935	14.007	1247.604	938.227
166.950	14.004	1246.519	937.313
167.964	14.042	1246.148	937.165
168.979	14.030	1245.506	936.532
169.994	14.175	1244.557	936.552
171.008	14.169	1243.710	935.799
172.023	14.173	1243.276	935.410
173.037	14.261	1242.291	935.082
174.052	14.248	1240.973	933.933
175.067	14.172	1240.535	933.098
176.081	14.103	1239.484	931.835
177.096	14.154	1238.307	931.154
178.110	14.158	1237.403	930.413
179.125	14.149	1236.251	929.418
180.140	14.175	1235.042	928.572
181.154	14.179	1233.667	927.478
182.169	14.315	1232.466	927.247
183.183	14.199	1231.381	925.706
184.198	14.322	1229.761	925.086
185.213	14.289	1228.955	924.216
186.227	14.407	1227.757	923.888
187.242	14.371	1226.809	922.894
188.256	14.440	1225.775	922.418
189.271	14.374	1224.676	921.142
190.286	14.258	1224.217	920.077
191.300	14.183	1223.746	919.226
192.315	14.182	1222.925	918.523
193.329	14.141	1222.352	917.783
194.344	14.358	1221.195	918.029
195.359	14.304	1220.641	917.234
196.373	14.371	1220.125	917.135
197.388	14.413	1219.618	916.906
198.402	14.435	1219.145	916.586
199.417	14.446	1218.530	916.107
200.432	14.505	1217.957	915.915
201.446	14.634	1216.566	915.498
202.461	14.623	1215.686	914.697
203.475	14.647	1214.690	913.994
204.490	14.659	1213.339	912.965
205.504	14.577	1212.158	911.547
206.519	14.532	1211.441	910.681
207.534	14.558	1210.058	909.703
208.548	14.571	1209.373	909.176
209.563	14.650	1207.944	908.452
210.577	14.580	1207.691	907.800
211.592	14.606	1206.880	907.254
212.607	14.703	1205.526	906.678
213.621	14.710	1204.815	906.102
214.636	14.671	1204.136	905.301
215.650	14.772	1203.122	905.007
216.665	14.725	1202.158	903.945
217.680	14.837	1200.948	903.562
218.694	14.781	1200.272	902.673
219.709	14.831	1199.280	902.117
220.723	14.697	1198.888	901.015
221.738	14.815	1198.031	900.932
222.753	14.824	1197.122	900.214
223.767	14.773	1196.639	899.496
224.782	14.878	1196.207	899.657
225.796	14.922	1194.934	898.858
226.811	14.987	1194.231	898.601
227.826	14.931	1193.596	897.742
228.840	14.885	1193.519	897.359
229.855	14.887	1192.819	896.762
230.869	14.899	1191.695	895.900
231.884	14.840	1191.209	895.139
232.899	14.982	1189.930	894.858
233.913	14.990	1189.440	894.458
234.928	14.812	1189.166	893.219
235.942	14.876	1187.826	892.478
236.957	14.835	1187.164	891.681
237.972	14.867	1186.381	891.184
238.986	14.932	1185.758	890.982
240.001	14.990	1184.716	890.431
241.015	15.038	1183.496	889.688
242.030	14.944	1183.065	888.786
243.045	15.048	1182.276	888.668
244.059	14.979	1181.425	887.586
245.074	15.022	1180.705	887.194
246.088	15.148	1179.560	886.921
247.103	15.163	1178.999	886.498
248.117	15.099	1178.432	885.657
249.132	15.240	1177.506	885.625
250.147	15.261	1177.150	885.390
251.161	15.387	1176.058	885.156
252.176	15.303	1175.316	884.079
253.190	15.271	1175.006	883.596
254.205	15.336	1174.197	883.254
255.220	15.510	1172.981	883.176
256.234	15.311	1173.215	882.225
257.249	15.388	1172.145	881.750
258.263	15.403	1171.621	881.355
259.278	15.438	1170.786	880.833
260.293	15.479	1170.293	880.597
261.307	15.501	1169.635	880.143
262.322	15.565	1168.864	879.819
263.336	15.532	1168.046	878.953
264.351	15.600	1167.114	878.531
265.366	15.581	1166.712	878.049
266.380	15.617	1166.279	877.835
267.395	15.573	1165.327	876.809
268.409	15.552	1164.672	876.127
269.424	15.532	1164.337	875.697
270.439	15.602	1163.535	875.382
271.453	15.611	1162.560	874.618
272.468	15.596	1161.698	873.814
273.482	15.585	1161.087	873.220
274.497	15.569	1160.767	872.814
275.512	15.636	1159.539	872.162
276.526	15.686	1158.855	871.833
277.541	15.654	1158.374	871.225
278.555	15.770	1157.402	871.017
279.570	15.704	1156.972	870.277
280.585	15.758	1156.249	869.937
281.599	15.718	1155.192	868.854
282.614	15.810	1154.252	868.548
283.628	15.851	1153.155	867.859
284.643	15.797	1152.041	866.663
285.657	15.794	1151.283	866.001
286.672	15.750	1150.210	864.888
287.687	15.842	1149.549	864.787
288.701	15.868	1148.597	864.129
289.716	15.947	1147.864	863.907
290.730	15.870	1147.133	862.884
291.745	15.965	1146.061	862.493
292.760	15.908	1145.613	861.785
293.774	16.038	1144.705	861.690
294.789	15.980	1144.422	861.107
295.803	15.854	1143.828	859.937
296.818	15.993	1142.922	859.892
297.833	15.969	1142.182	859.137
298.847	16.091	1141.255	858.983
299.862	16.107	1140.326	858.290
300.876	16.101	1139.695	857.708
301.891	16.084	1139.179	857.158
302.906	16.153	1138.225	856.712
303.920	16.163	1137.977	856.504
304.935	16.242	1137.031	856.117
305.949	16.245	1136.260	855.474
306.964	16.259	1135.701	855.050
307.979	16.256	1135.028	854.449
308.993	16.152	1134.614	853.539
310.008	16.244	1133.343	852.971
311.022	16.140	1132.702	851.890
312.037	16.284	1131.751	851.824
313.052	16.297	1130.645	850.983
314.066	16.273	1129.674	850.053
315.081	16.345	1128.882	849.745
316.095	16.236	1128.344	848.718
317.110	16.322	1127.739	848.618
318.125	16.167	1127.239	847.390
319.139	16.210	1126.643	847.082
320.154	16.254	1125.492	846.365
321.168	16.100	1125.305	845.374
322.183	16.217	1124.810	845.513
323.197	16.343	1123.755	845.277
324.212	16.345	1122.935	844.594
325.227	16.445	1122.328	844.565
326.241	16.348	1121.909	843.688
327.256	16.405	1120.833	843.090
328.270	16.480	1119.876	842.671
329.285	16.367	1119.195	841.520
330.300	16.343	1118.401	840.731
331.314	16.357	1117.430	839.992
332.329	16.510	1115.902	839.534
333.343	16.379	1115.665	838.628
334.358	16.489	1114.743	838.405
335.373	16.485	1113.925	837.695
336.387	16.479	1113.091	836.965
337.402	16.438	1112.264	836.065
338.416	16.522	1111.992	836.205
339.431	16.541	1111.218	835.644
340.446	16.507	1110.820	835.103
341.460	16.663	1109.845	835.062
342.475	16.756	1108.795	834.659
343.489	16.716	1108.022	833.804
344.504	16.739	1107.468	833.430
345.519	16.696	1106.248	832.226
346.533	16.792	1105.275	831.889
347.548	16.725	1104.903	831.207
348.562	16.834	1103.751	830.803
349.577	16.824	1103.109	830.199
350.592	16.811	1102.577	829.659
351.606	16.748	1101.412	828.401
352.621	16.742	1100.947	827.949
353.635	16.818	1100.402	827.839
354.650	16.656	1099.904	826.600
355.665	16.815	1098.820	826.484
356.679	16.732	1098.595	825.841
357.694	16.855	1097.791	825.759
358.708	16.934	1097.068	825.527
359.723	16.867	1096.670	824.829
360.738	16.886	1095.805	824.196
361.752	16.945	1095.349	824.067
362.767	16.874	1094.686	823.151
363.781	16.996	1094.032	823.183
364.796	17.046	1093.308	822.804
365.810	17.026	1092.552	822.065
366.825	17.105	1091.990	821.953
367.840	17.106	1091.510	821.526
368.854	17.052	1090.852	820.697
369.869	17.125	1090.168	820.460
370.883	17.093	1089.368	819.634
371.898	17.198	1088.402	819.339
372.913	17.060	1088.083	818.359
373.927	17.090	1087.811	818.227
374.942	17.194	1086.873	817.952
375.956	17.262	1086.525	817.944
376.971	17.241	1085.735	817.177
377.986	17.186	1085.538	816.693
379.000	17.253	1084.555	816.201
380.015	17.268	1084.465	816.134
381.029	17.311	1083.433	815.490
382.044	17.403	1082.557	815.198
383.059	17.279	1082.034	814.140
384.073	17.500	1081.114	814.433
385.088	17.436	1080.199	813.365
386.102	17.420	1079.198	812.462
387.117	17.370	1078.444	811.583
388.132	17.324	1077.559	810.631
389.146	17.412	1076.711	810.336
390.161	17.377	1076.064	809.611
391.175	17.330	1075.457	808.860
392.190	17.400	1074.894	808.696
393.205	17.586	1073.882	808.747
394.219	17.491	1073.285	807.776
395.234	17.488	1072.058	806.769
396.248	17.443	1071.274	805.891
397.263	17.471	1070.092	805.067
398.278	17.439	1069.513	804.405
399.292	17.502	1068.868	804.146
400.307	17.473	1068.297	803.511
401.321	17.470	1067.535	802.851
402.336	17.532	1066.458	802.266
403.350	17.468	1066.077	801.603
404.365	17.502	1065.283	801.099
405.380	17.602	1064.493	800.904
406.394	17.656	1063.903	800.643
407.409	17.739	1063.283	800.494
408.423	17.749	1062.274	799.711
409.438	17.746	1061.345	798.927
410.453	17.692	1061.426	798.663
411.467	17.781	1059.982	797.924
412.482	17.810	1059.492	797.617
413.496	17.853	1058.729	797.175
414.511	17.735	1058.518	796.393
415.526	17.869	1057.778	796.391
416.540	17.879	1057.656	796.275
417.555	17.895	1056.992	795.780
418.569	17.836	1056.516	795.074
419.584	17.887	1056.121	794.946
420.599	17.927	1055.254	794.408
421.613	102.551	1319.451	1458.164
422.628	94.587	1357.935	1458.246
