DTS Sentinel unit serial number:	SN413079Multiplexer serial number:	ORYXHardware model number:	OX4-SRSoftware version number:	ORYX F/W v4.00 Oryx Data Collector v3.7.2.0data status	okinstallation	princeton_trtdifferential loss correction	single-endedforward channel	channel 2reverse channel	N/Adate	2019/09/12time	06:33:11forward acquisition time	60.00reverse acquisition time	0.00gamma	496.2192k internal	0.2324k external	0.2324temperature offset calibration	1.0062default loss term (dB/km)	0.3790temperature slope calibration	1.0000multiplexer offset coefficient	1.0000multiplexer slope coefficient	1.0000fibre end	0.00T internal ref (°C)	32.16T ext. ref 1 (°C)	1.57T ext. ref 2 (°C)	27.25length (m)	temperature (°C)	Stokes	anti-Stokes-747.200	-200.000	0.024	0.231
-746.185	541.705	0.108	0.261
-745.171	-200.000	0.005	0.142
-744.156	-200.000	-0.074	0.425
-743.142	72.700	0.206	0.217
-742.127	-74.668	-0.091	0.033
-741.112	2.931	0.190	-0.139
-740.098	-119.756	-0.340	-0.059
-739.083	-167.743	0.105	0.004
-738.069	-200.000	-0.039	0.570
-737.054	510.795	0.038	0.089
-736.039	5.602	-0.279	-0.208
-735.025	-132.886	0.474	-0.061
-734.010	65.485	-0.146	0.149
-732.996	-84.886	-0.296	-0.094
-731.981	162.947	0.317	0.450
-730.966	-168.713	0.232	-0.009
-729.952	69.029	-0.193	0.200
-728.937	84.120	-0.045	0.050
-727.923	-54.555	0.397	0.181
-726.908	47.696	-0.048	0.045
-725.894	-93.887	-0.289	0.080
-724.879	-22.862	-0.260	-0.158
-723.864	-11.144	-0.196	-0.130
-722.850	-200.000	-0.035	-0.268
-721.835	-0.751	-0.167	-0.119
-720.821	668.905	-0.156	-0.407
-719.806	389.887	0.097	-0.203
-718.791	193.358	0.212	-0.324
-717.777	-73.621	-0.086	-0.032
-716.762	-88.802	0.133	0.040
-715.748	94.391	-0.021	0.025
-714.733	8.363	-0.450	-0.341
-713.718	60.239	0.110	-0.110
-712.704	153.659	0.007	0.009
-711.689	83.310	-0.156	-0.171
-710.675	-84.780	-0.521	-0.165
-709.660	-42.408	0.225	0.116
-708.645	325.249	0.099	-0.191
-707.631	800.000	-0.051	-0.186
-706.616	-200.000	-0.000	0.056
-705.602	-62.284	-0.142	-0.060
-704.587	16.873	-0.061	0.049
-703.572	-10.286	-0.229	0.153
-702.558	-33.746	0.134	0.074
-701.543	7.281	-0.293	0.220
-700.529	488.069	0.099	0.227
-699.514	-71.304	0.330	0.125
-698.499	339.994	0.129	0.254
-697.485	800.000	0.020	-0.069
-696.470	-54.735	0.278	0.127
-695.456	800.000	0.031	-0.097
-694.441	800.000	0.050	-0.149
-693.426	671.151	-0.079	-0.205
-692.412	64.114	-0.096	-0.097
-691.397	-165.315	-0.029	-0.001
-690.383	286.804	-0.068	-0.124
-689.368	222.722	-0.010	0.016
-688.354	8.382	0.068	0.052
-687.339	-6.637	-0.037	0.026
-686.324	-126.925	-0.056	0.008
-685.310	38.894	0.024	-0.021
-684.295	353.105	0.067	0.135
-683.281	-99.261	0.195	-0.050
-682.266	-200.000	-0.006	0.105
-681.251	-103.727	-0.112	0.026
-680.237	-200.000	0.008	0.104
-679.222	-200.000	-0.022	0.205
-678.208	84.924	-0.142	0.157
-677.193	-40.833	-0.096	0.050
-676.178	-200.000	-0.015	-0.066
-675.164	-78.219	0.165	-0.057
-674.149	-35.671	-0.161	-0.088
-673.135	454.979	0.073	-0.164
-672.120	-90.321	-0.267	-0.078
-671.105	-200.000	-0.021	0.379
-670.091	713.683	0.071	-0.190
-669.076	-52.678	0.302	-0.140
-668.062	-200.000	-0.026	-0.202
-667.047	800.000	0.029	0.118
-666.032	107.790	-0.133	-0.159
-665.018	219.929	-0.069	0.111
-664.003	-200.000	-0.017	0.162
-662.989	395.066	-0.096	0.201
-661.974	800.000	-0.060	0.220
-660.959	266.004	0.160	0.281
-659.945	-117.019	0.269	0.049
-658.930	524.339	-0.051	0.121
-657.916	12.494	0.288	-0.223
-656.901	15.946	0.154	-0.122
-655.886	-200.000	0.004	-0.028
-654.872	-83.813	0.116	-0.037
-653.857	-29.791	-0.270	-0.155
-652.843	13.495	-0.059	0.046
-651.828	118.061	-0.102	0.126
-650.814	-29.525	-0.032	0.018
-649.799	188.128	0.064	-0.096
-648.784	448.043	-0.083	0.185
-647.770	-86.417	0.180	-0.056
-646.755	800.000	0.139	-0.404
-645.741	66.168	0.112	-0.115
-644.726	-200.000	-0.023	-0.277
-643.711	800.000	0.054	-0.151
-642.697	-37.474	-0.147	0.079
-641.682	-137.567	-0.157	0.018
-640.668	-88.241	-0.274	0.082
-639.653	27.749	-0.068	-0.058
-638.638	-10.378	-0.278	0.185
-637.624	103.576	-0.067	0.079
-636.609	-18.714	0.056	0.035
-635.595	54.519	-0.080	0.077
-634.580	35.113	-0.153	-0.135
-633.565	173.936	-0.096	0.139
-632.551	-95.814	0.201	0.054
-631.536	-73.703	0.241	0.088
-630.522	-200.000	0.006	-0.071
-629.507	305.261	0.118	0.221
-628.492	-200.000	0.008	0.266
-627.478	-200.000	0.019	0.346
-626.463	-87.191	0.257	0.079
-625.449	273.968	-0.191	-0.340
-624.434	-3.286	0.065	0.046
-623.419	67.165	0.025	0.026
-622.405	17.549	0.134	0.107
-621.390	-200.000	0.070	-0.413
-620.376	-200.000	0.043	-0.220
-619.361	-200.000	-0.045	-0.394
-618.346	-134.947	-0.263	-0.032
-617.332	59.228	-0.337	0.333
-616.317	-200.000	-0.054	0.338
-615.303	-200.000	-0.027	0.340
-614.288	78.034	-0.167	0.178
-613.273	94.278	0.229	0.261
-612.259	226.091	0.051	-0.083
-611.244	356.226	0.084	0.167
-610.230	-31.892	0.201	0.113
-609.215	-57.241	-0.316	-0.140
-608.201	65.365	-0.263	-0.268
-607.186	42.314	0.156	0.142
-606.171	800.000	-0.060	0.180
-605.157	-52.615	0.481	-0.223
-604.142	-126.206	-0.191	0.029
-603.128	429.025	0.037	0.080
-602.113	-13.573	-0.138	0.090
-601.098	-45.659	0.249	-0.124
-600.084	28.089	-0.136	0.115
-599.069	-39.454	0.146	-0.077
-598.055	-200.000	-0.021	-0.106
-597.040	237.279	0.075	-0.125
-596.025	135.902	-0.181	-0.237
-595.011	-103.222	0.051	-0.012
-593.996	-87.111	0.317	0.097
-592.982	-54.580	-0.209	-0.095
-591.967	-157.871	0.119	0.007
-590.952	128.424	0.054	0.069
-589.938	18.475	-0.122	-0.098
-588.923	-49.254	-0.145	-0.069
-587.909	187.960	0.050	0.075
-586.894	388.917	0.088	0.183
-585.879	-200.000	0.076	0.423
-584.865	-94.173	0.152	0.042
-583.850	-48.445	0.164	-0.079
-582.836	-143.818	0.188	0.018
-581.821	27.442	-0.192	0.162
-580.806	17.721	-0.126	-0.100
-579.792	-1.082	0.162	0.115
-578.777	-144.529	0.325	0.030
-577.763	454.861	-0.055	0.122
-576.748	-141.227	0.156	0.016
-575.733	-66.942	-0.188	0.075
-574.719	-136.595	-0.215	0.025
-573.704	29.904	-0.219	0.188
-572.690	-37.984	-0.294	0.157
-571.675	-100.910	0.178	-0.044
-570.661	100.610	-0.125	0.145
-569.646	-74.325	0.036	-0.013
-568.631	716.851	-0.049	0.130
-567.617	69.903	0.031	-0.032
-566.602	-23.642	0.075	-0.045
-565.588	29.642	0.117	-0.100
-564.573	-97.229	-0.269	-0.070
-563.558	88.624	0.044	-0.049
-562.544	-187.444	0.112	0.002
-561.529	-43.630	-0.185	-0.094
-560.515	-72.923	-0.305	0.113
-559.500	307.975	0.161	-0.302
-558.485	485.659	0.114	0.260
-557.471	-1.119	-0.171	-0.121
-556.456	-200.000	0.055	-0.285
-555.442	-77.281	-0.108	-0.038
-554.427	-161.076	-0.220	-0.012
-553.412	-200.000	-0.011	0.109
-552.398	-200.000	-0.004	-0.024
-551.383	-68.878	-0.173	-0.067
-550.369	-107.382	0.062	0.014
-549.354	-64.046	0.212	0.087
-548.339	-90.898	-0.122	0.035
-547.325	-66.161	-0.246	-0.098
-546.310	-0.876	-0.196	-0.139
-545.296	-69.148	-0.311	-0.120
-544.281	-150.459	-0.579	0.045
-543.266	-104.517	0.190	-0.044
-542.252	308.061	-0.016	0.029
-541.237	-30.083	0.272	0.155
-540.223	800.000	0.040	-0.149
-539.208	-140.967	-0.129	-0.013
-538.193	-103.237	-0.173	-0.041
-537.179	190.123	-0.107	-0.161
-536.164	75.596	0.093	0.099
-535.150	-184.327	0.204	-0.003
-534.135	-116.272	-0.076	-0.014
-533.121	1.693	-0.131	0.094
-532.106	-91.929	0.139	0.040
-531.091	-122.605	-0.274	-0.044
-530.077	108.176	-0.331	-0.395
-529.062	-99.775	0.398	0.100
-528.048	-200.000	-0.015	0.373
-527.033	-200.000	0.008	0.314
-526.018	294.686	0.151	-0.276
-525.004	91.810	0.230	-0.259
-523.989	273.110	0.148	-0.262
-522.975	163.087	0.204	0.286
-521.960	322.048	0.148	0.282
-520.945	-140.771	0.222	-0.023
-519.931	-56.477	0.324	-0.144
-518.916	-1.480	-0.135	-0.095
-517.902	70.093	0.175	-0.181
-516.887	22.090	-0.091	0.074
-515.872	-69.148	0.064	0.025
-514.858	560.739	0.165	-0.399
-513.843	-17.066	-0.184	0.116
-512.829	-26.279	0.041	0.024
-511.814	283.144	-0.083	0.149
-510.799	396.132	0.134	-0.279
-509.785	-133.227	-0.144	-0.018
-508.770	518.833	-0.040	0.093
-507.756	-83.452	-0.143	0.046
-506.741	-200.000	-0.076	0.409
-505.726	800.000	0.061	0.236
-504.712	788.384	-0.049	-0.136
-503.697	605.814	-0.076	0.190
-502.683	114.688	-0.105	-0.128
-501.668	-200.000	-0.025	0.202
-500.653	-134.063	0.098	0.012
-499.639	60.362	-0.173	-0.171
-498.624	-200.000	-0.051	0.363
-497.610	-78.927	0.081	0.027
-496.595	-102.050	-0.335	-0.081
-495.581	-200.000	0.025	0.135
-494.566	436.672	0.098	-0.214
-493.551	-148.762	-0.122	-0.010
-492.537	-17.545	-0.085	-0.053
-491.522	-200.000	-0.035	-0.193
-490.508	-119.603	-0.193	-0.033
-489.493	345.088	0.132	-0.259
-488.478	-25.668	-0.216	0.128
-487.464	41.246	0.395	0.357
-486.449	-172.859	0.308	0.010
-485.435	-200.000	0.005	0.077
-484.420	800.000	-0.056	0.193
-483.405	800.000	0.054	0.155
-482.391	-168.320	0.202	0.008
-481.376	-200.000	0.002	0.127
-480.362	476.155	0.088	-0.198
-479.347	800.000	0.018	0.054
-478.332	-15.632	-0.131	0.083
-477.318	-36.832	0.058	0.031
-476.303	268.431	0.087	-0.153
-475.289	61.620	-0.030	-0.029
-474.274	245.522	0.039	0.065
-473.259	108.895	0.051	-0.061
-472.245	-9.619	0.171	0.114
-471.230	-185.936	-0.353	0.005
-470.216	-50.851	0.199	0.093
-469.201	-168.872	0.221	-0.008
-468.186	377.685	0.095	-0.193
-467.172	134.287	-0.169	0.219
-466.157	189.145	-0.131	0.196
-465.143	1.478	0.083	-0.059
-464.128	48.552	-0.246	-0.231
-463.113	323.411	-0.140	-0.266
-462.099	-84.502	-0.167	0.053
-461.084	195.094	0.136	0.206
-460.070	-200.000	0.016	0.417
-459.055	800.000	-0.125	0.402
-458.040	800.000	-0.098	0.344
-457.026	-200.000	-0.006	0.166
-456.011	-82.947	0.202	0.065
-454.997	-88.871	-0.237	-0.070
-453.982	-98.443	-0.097	0.025
-452.968	110.918	0.017	0.021
-451.953	-108.447	0.275	0.059
-450.938	40.149	0.175	0.157
-449.924	87.798	-0.181	0.200
-448.909	-6.035	-0.126	0.086
-447.895	105.800	0.230	-0.271
-446.880	-200.000	-0.036	-0.162
-445.865	-173.571	0.200	0.006
-444.851	-53.638	-0.087	0.040
-443.836	183.506	-0.140	0.206
-442.822	-200.000	0.043	-0.449
-441.807	-200.000	-0.015	-0.129
-440.792	-170.473	-0.089	-0.003
-439.778	-109.733	0.225	-0.047
-438.763	571.470	0.084	-0.204
-437.749	162.984	-0.118	-0.165
-436.734	514.381	-0.028	0.066
-435.719	405.073	0.138	0.290
-434.705	3.132	0.173	0.125
-433.690	-174.925	-0.024	-0.001
-432.676	-32.341	0.083	-0.046
-431.661	-200.000	0.046	0.346
-430.646	88.940	-0.058	-0.064
-429.632	-13.592	0.050	0.032
-428.617	-144.297	-0.467	0.043
-427.603	66.836	0.098	-0.100
-426.588	0.117	0.132	0.094
-425.573	260.806	0.194	-0.334
-424.559	-200.000	0.020	-0.207
-423.544	304.443	0.121	0.225
-422.530	-125.608	0.212	-0.032
-421.515	207.941	-0.179	-0.279
-420.500	-140.424	-0.225	0.023
-419.486	-200.000	-0.002	0.097
-418.471	49.382	-0.316	0.297
-417.457	25.806	-0.217	-0.180
-416.442	-24.990	0.132	-0.078
-415.428	258.586	0.049	-0.083
-414.413	197.366	0.052	-0.078
-413.398	-200.000	-0.045	-0.223
-412.384	153.100	-0.177	-0.241
-411.369	800.000	-0.108	-0.402
-410.355	351.217	0.047	0.093
-409.340	-14.590	0.117	0.075
-408.325	-129.764	0.315	-0.043
-407.311	-200.000	-0.067	0.324
-406.296	-200.000	0.021	-0.245
-405.282	-200.000	-0.059	-0.282
-404.267	-71.155	-0.378	0.142
-403.252	-163.213	0.315	-0.015
-402.238	-155.347	0.117	-0.008
-401.223	-110.763	0.095	0.020
-400.209	-8.835	0.121	0.081
-399.194	414.773	-0.093	-0.196
-398.179	-200.000	0.019	-0.091
-397.165	-32.301	-0.060	0.033
-396.150	96.689	-0.186	0.212
-395.136	-83.831	-0.123	-0.039
-394.121	-200.000	0.056	-0.316
-393.106	-200.000	-0.004	0.088
-392.092	800.000	0.039	-0.121
-391.077	229.444	0.096	-0.156
-390.063	-113.951	0.245	-0.047
-389.048	167.033	0.042	0.059
-388.033	-200.000	-0.000	-0.490
-387.019	238.045	-0.040	-0.066
-386.004	-91.573	0.226	0.064
-384.990	-52.219	0.198	-0.091
-383.975	291.372	0.150	-0.272
-382.960	192.051	0.114	-0.171
-381.946	-130.358	0.370	0.050
-380.931	-51.664	-0.143	-0.066
-379.917	298.757	-0.151	0.277
-378.902	-200.000	-0.079	0.365
-377.888	-20.434	-0.106	-0.065
-376.873	59.304	0.291	-0.286
-375.858	-125.447	0.287	0.044
-374.844	91.552	0.110	0.123
-373.829	474.097	0.105	0.236
-372.815	-90.702	-0.071	-0.020
-371.800	143.659	-0.149	-0.198
-370.785	28.848	0.228	0.192
-369.771	182.153	0.277	0.406
-368.756	345.325	0.060	0.118
-367.742	-78.425	0.642	-0.219
-366.727	-47.674	-0.074	-0.036
-365.712	15.714	-0.196	0.153
-364.698	82.916	0.251	0.271
-363.683	800.000	-0.093	-0.265
-362.669	-200.000	-0.007	-0.087
-361.654	-112.691	0.082	0.016
-360.639	28.239	0.227	0.191
-359.625	639.887	0.074	0.187
-358.610	-65.337	-0.326	0.130
-357.596	164.030	-0.082	0.115
-356.581	800.000	-0.122	0.417
-355.566	127.021	-0.032	-0.041
-354.552	-200.000	-0.012	0.135
-353.537	55.474	0.086	0.083
-352.523	-23.112	0.218	0.130
-351.508	-200.000	0.002	-0.020
-350.493	35.498	0.194	0.169
-349.479	-200.000	0.024	0.260
-348.464	313.886	-0.108	-0.202
-347.450	-11.661	0.243	-0.159
-346.435	-141.498	0.222	-0.022
-345.420	-200.000	0.062	-0.355
-344.406	800.000	0.067	0.201
-343.391	181.954	0.056	0.083
-342.377	-28.359	-0.153	-0.088
-341.362	222.808	-0.122	0.195
-340.348	-160.158	0.249	0.013
-339.333	66.818	0.229	-0.232
-338.318	-67.575	-0.110	0.043
-337.304	-3.845	0.122	-0.084
-336.289	136.115	-0.062	-0.080
-335.275	-85.991	0.114	-0.035
-334.260	23.678	0.107	0.087
-333.245	222.582	-0.092	-0.147
-332.231	-63.744	-0.316	-0.129
-331.216	436.547	-0.130	0.282
-330.202	151.076	-0.060	0.081
-329.187	631.687	0.112	-0.281
-328.172	-87.677	-0.338	-0.101
-327.158	-184.969	0.292	-0.005
-326.143	-118.083	0.048	-0.009
-325.129	254.678	-0.109	0.185
-324.114	-200.000	0.034	0.199
-323.099	-69.115	0.062	0.024
-322.085	-60.621	0.089	0.038
-321.070	379.517	0.118	0.240
-320.056	-200.000	-0.005	-0.181
-319.041	-93.603	-0.238	0.065
-318.026	-43.644	0.304	-0.152
-317.012	-86.977	0.073	-0.022
-315.997	40.332	0.010	-0.009
-314.983	47.853	-0.137	-0.127
-313.968	-154.609	-0.243	0.016
-312.953	-59.616	-0.154	-0.066
-311.939	-8.300	-0.191	-0.127
-310.924	-62.335	-0.198	0.082
-309.910	-200.000	-0.055	-0.280
-308.895	54.923	0.264	-0.253
-307.880	-200.000	0.038	0.282
-306.866	-200.000	0.014	0.149
-305.851	-169.225	-0.451	0.017
-304.837	798.786	0.159	0.435
-303.822	-15.841	-0.130	-0.082
-302.807	-200.000	-0.007	-0.222
-301.793	123.174	-0.180	-0.224
-300.778	-15.320	-0.131	-0.083
-299.764	78.842	0.130	0.138
-298.749	24.319	0.154	-0.126
-297.735	221.067	0.035	-0.055
-296.720	800.000	-0.127	0.367
-295.705	382.916	0.087	-0.177
-294.691	320.141	-0.173	-0.326
-293.676	514.948	-0.165	-0.382
-292.662	-75.516	0.047	-0.016
-291.647	-200.000	0.055	-0.469
-290.632	-3.572	-0.328	-0.226
-289.618	82.046	0.343	0.369
-288.603	-61.761	0.313	-0.130
-287.589	13.183	-0.231	-0.177
-286.574	800.000	-0.028	-0.108
-285.559	-93.192	0.339	-0.093
-284.545	-200.000	-0.010	-0.066
-283.530	-82.201	-0.242	0.078
-282.516	-29.916	-0.376	-0.212
-281.501	-200.000	-0.003	-0.045
-280.486	510.075	-0.080	-0.185
-279.472	800.000	-0.047	-0.176
-278.457	-13.963	-0.159	-0.101
-277.443	1.842	0.057	0.041
-276.428	-200.000	-0.008	0.215
-275.413	-108.255	0.273	0.058
-274.399	641.110	-0.061	-0.155
-273.384	800.000	0.064	0.276
-272.370	423.577	-0.077	-0.165
-271.355	800.000	-0.044	0.178
-270.340	108.122	-0.119	-0.141
-269.326	-139.503	-0.291	0.031
-268.311	220.489	0.131	-0.209
-267.297	588.606	0.103	-0.251
-266.282	144.719	-0.162	0.215
-265.267	19.747	0.329	-0.263
-264.253	92.361	-0.263	0.294
-263.238	-133.071	0.258	0.032
-262.224	76.547	0.135	-0.142
-261.209	219.139	0.040	0.063
-260.195	-200.000	0.070	-0.312
-259.180	800.000	-0.060	-0.207
-258.165	-58.549	-0.133	-0.057
-257.151	8.680	-0.077	-0.058
-256.136	-200.000	-0.018	0.109
-255.122	-137.493	-0.181	-0.020
-254.107	-200.000	0.022	-0.146
-253.092	-26.829	0.017	-0.010
-252.078	-49.830	0.071	-0.033
-251.063	0.768	-0.228	-0.162
-250.049	-33.023	0.136	-0.075
-249.034	-36.341	0.107	-0.057
-248.019	-108.317	-0.287	-0.061
-247.005	320.454	-0.194	-0.365
-245.990	108.916	-0.196	-0.232
-244.976	800.000	-0.041	0.147
-243.961	78.801	-0.067	-0.071
-242.946	-17.058	0.029	0.018
-241.932	729.307	-0.103	-0.272
-240.917	-200.000	-0.003	-0.112
-239.903	-39.377	-0.230	0.119
-238.888	-200.000	0.031	-0.354
-237.873	-55.884	0.270	-0.119
-236.859	-115.328	0.183	-0.034
-235.844	-200.000	0.018	0.366
-234.830	598.489	0.093	0.229
-233.815	800.000	0.075	0.306
-232.800	-186.961	-0.351	0.005
-231.786	59.841	-0.063	0.062
-230.771	87.348	0.050	-0.055
-229.757	-110.719	-0.339	-0.069
-228.742	-200.000	-0.008	0.118
-227.727	674.979	0.070	-0.180
-226.713	48.587	0.106	-0.098
-225.698	-52.999	-0.387	0.176
-224.684	144.081	-0.070	0.092
-223.669	800.000	-0.027	0.093
-222.655	24.313	0.063	-0.051
-221.640	-58.652	0.362	-0.155
-220.625	-13.245	0.421	0.270
-219.611	-6.835	0.340	-0.229
-218.596	390.123	0.036	0.074
-217.582	177.682	-0.209	-0.302
-216.567	-48.727	0.229	0.109
-215.552	71.196	0.170	0.174
-214.538	-61.420	0.089	-0.037
-213.523	-177.354	0.354	0.009
-212.509	800.000	0.147	-0.522
-211.494	403.600	-0.153	0.317
-210.479	-92.878	-0.176	0.049
-209.465	42.953	0.225	-0.202
-208.450	567.924	0.103	-0.248
-207.436	-154.034	-0.260	-0.017
-206.421	229.561	-0.123	-0.198
-205.406	-200.000	0.022	-0.130
-204.392	-69.212	0.076	-0.029
-203.377	-200.000	0.049	-0.321
-202.363	-200.000	-0.001	0.066
-201.348	-200.000	-0.034	0.203
-200.333	-43.785	0.236	-0.117
-199.319	800.000	-0.035	0.098
-198.304	800.000	-0.072	0.202
-197.290	-12.229	-0.079	0.051
-196.275	91.462	-0.097	0.108
-195.260	800.000	-0.059	0.171
-194.246	-47.423	-0.131	-0.063
-193.231	144.131	0.099	-0.131
-192.217	800.000	-0.035	0.147
-191.202	171.242	-0.090	0.128
-190.187	131.383	-0.150	0.190
-189.173	53.496	-0.257	0.243
-188.158	525.299	0.062	0.145
-187.144	-200.000	0.003	-0.103
-186.129	-200.000	0.070	-0.384
-185.114	-109.888	-0.038	-0.008
-184.100	81.237	0.219	0.234
-183.085	-46.686	-0.112	0.054
-182.071	51.254	0.071	-0.067
-181.056	120.508	-0.164	-0.201
-180.042	-103.774	-0.203	-0.047
-179.027	-153.729	0.215	0.015
-178.012	-144.633	-0.175	-0.016
-176.998	-58.908	-0.235	0.100
-175.983	800.000	-0.104	0.287
-174.969	800.000	0.153	0.435
-173.954	-200.000	-0.003	0.177
-172.939	-200.000	0.003	0.285
-171.925	-52.170	0.117	-0.054
-170.910	57.078	0.108	-0.104
-169.896	-103.378	0.141	-0.033
-168.881	-200.000	0.021	0.306
-167.866	-84.232	-0.201	-0.063
-166.852	-17.687	-0.196	0.122
-165.837	-59.902	-0.354	-0.150
-164.823	101.322	0.131	-0.151
-163.808	-21.691	-0.263	0.158
-162.793	167.163	0.083	0.116
-161.779	238.258	0.170	0.278
-160.764	90.788	0.084	-0.093
-159.750	-125.342	-0.078	0.012
-158.735	539.373	-0.119	0.279
-157.720	-64.566	-0.253	0.101
-156.706	-66.563	0.248	0.097
-155.691	-90.077	-0.122	0.035
-154.677	90.175	0.147	-0.162
-153.662	-200.000	-0.048	-0.365
-152.647	-200.000	0.008	0.104
-151.633	754.333	0.065	0.172
-150.618	-200.000	-0.006	-0.215
-149.604	-143.449	0.172	0.016
-148.589	-200.000	-0.012	0.180
-147.574	132.257	0.054	0.068
-146.560	-200.000	0.079	0.479
-145.545	-81.863	0.072	0.023
-144.531	800.000	0.074	0.205
-143.516	-125.349	-0.238	0.036
-142.502	745.155	0.046	-0.121
-141.487	-200.000	-0.070	0.457
-140.472	139.012	-0.163	0.211
-139.458	32.446	-0.228	-0.194
-138.443	800.000	0.045	0.142
-137.429	-90.045	-0.165	-0.047
-136.414	800.000	-0.053	0.218
-135.399	-200.000	0.071	0.339
-134.385	-200.000	0.022	0.163
-133.370	125.662	0.044	-0.055
-132.356	114.676	0.149	-0.180
-131.341	134.707	0.089	0.113
-130.326	800.000	0.047	0.168
-129.312	52.446	0.208	0.196
-128.297	-135.841	0.162	0.019
-127.283	6.804	0.234	0.171
-126.268	-180.407	-0.255	0.005
-125.253	-30.936	-0.176	0.098
-124.239	-106.082	0.376	0.083
-123.224	-200.000	0.015	-0.175
-122.210	800.000	-0.031	0.128
-121.195	58.578	0.312	-0.302
-120.180	41.684	0.162	-0.145
-119.166	-200.000	0.042	-0.189
-118.151	3.114	-0.129	-0.093
-117.137	-54.188	-0.137	0.061
-116.122	-167.950	-0.138	-0.005
-115.107	11.792	-0.093	-0.070
-114.093	800.000	-0.058	0.216
-113.078	159.547	0.131	-0.180
-112.064	11.792	-0.052	0.039
-111.049	-104.025	-0.275	-0.063
-110.034	-27.004	-0.285	0.164
-109.020	595.083	0.034	0.082
-108.005	800.000	-0.135	0.426
-106.991	176.462	0.176	-0.251
-105.976	-119.970	-0.364	0.061
-104.962	25.407	-0.288	0.236
-103.947	-56.799	0.114	0.050
-102.932	134.169	-0.045	-0.057
-101.918	49.545	0.134	0.124
-100.903	-82.450	0.224	-0.072
-99.889	-200.000	0.001	0.119
-98.874	87.225	0.080	0.087
-97.859	120.248	0.209	0.255
-96.845	139.706	-0.095	0.123
-95.830	800.000	0.092	0.264
-94.816	-25.655	0.237	0.137
-93.801	5.412	-0.216	-0.157
-92.786	137.468	0.181	0.234
-91.772	-168.712	0.049	0.002
-90.757	162.785	-0.154	0.213
-89.743	-58.981	0.022	0.010
-88.728	-96.046	0.365	0.096
-87.713	-112.362	0.184	0.036
-86.699	56.236	-0.067	-0.064
-85.684	178.802	0.128	-0.185
-84.670	52.675	-0.212	-0.200
-83.655	-48.352	0.119	0.057
-82.640	46.359	-0.040	-0.037
-81.626	116.132	-0.144	0.173
-80.611	199.085	0.255	0.384
-79.597	-51.315	0.449	0.207
-78.582	-10.522	0.073	-0.047
-77.567	44.114	0.215	0.194
-76.553	22.936	0.058	-0.047
-75.538	-200.000	-0.005	-0.344
-74.524	-119.277	-0.282	0.048
-73.509	104.384	0.041	0.047
-72.494	72.235	0.073	0.075
-71.480	-200.000	-0.037	0.283
-70.465	-150.366	0.293	-0.022
-69.451	237.572	0.045	0.073
-68.436	-145.115	0.124	-0.011
-67.422	456.946	-0.158	0.345
-66.407	-200.000	-0.014	0.165
-65.392	800.000	-0.055	-0.201
-64.378	-127.890	0.205	0.029
-63.363	-200.000	0.043	0.334
-62.349	219.863	-0.079	-0.124
-61.334	77.596	-0.884	-0.925
-60.319	13.360	0.476	0.363
-59.305	800.000	-0.290	-0.944
-58.290	-200.000	0.229	1.156
-57.276	413.020	0.705	1.472
-56.261	-200.000	96.097	596.863
-55.246	569.028	1372.965	3279.562
-54.232	160.355	2558.904	3507.205
-53.217	106.700	2270.519	2647.250
-52.203	41.498	1897.322	1687.434
-51.188	35.420	1686.969	1454.402
-50.173	32.669	1643.258	1396.316
-49.159	50.265	1689.528	1568.076
-48.144	51.906	1705.667	1595.299
-47.130	35.175	1665.873	1434.153
-46.115	32.335	1651.695	1400.776
-45.100	32.137	1647.128	1395.376
-44.086	32.203	1643.959	1393.129
-43.071	32.082	1641.835	1390.378
-42.057	32.117	1639.031	1388.206
-41.042	32.078	1637.015	1386.156
-40.027	32.002	1635.770	1384.480
-39.013	31.975	1633.967	1382.705
-37.998	31.971	1632.171	1381.101
-36.984	32.054	1630.621	1380.343
-35.969	32.194	1629.366	1380.254
-34.954	32.165	1627.651	1378.537
-33.940	32.153	1625.810	1376.831
-32.925	32.201	1623.665	1375.315
-31.911	32.076	1622.696	1373.524
-30.896	32.087	1620.384	1371.593
-29.881	32.124	1619.256	1370.850
-28.867	32.151	1617.156	1369.218
-27.852	32.091	1616.164	1367.886
-26.838	32.163	1614.632	1367.056
-25.823	32.140	1613.285	1365.695
-24.809	32.183	1611.849	1364.740
-23.794	32.142	1610.465	1363.217
-22.779	32.133	1608.579	1361.502
-21.765	32.185	1607.176	1360.636
-20.750	32.224	1605.457	1359.406
-19.736	32.184	1604.216	1358.015
-18.721	32.238	1602.629	1357.005
-17.706	32.164	1601.192	1355.200
-16.692	32.226	1599.721	1354.348
-15.677	32.137	1598.687	1352.784
-14.663	32.169	1597.346	1351.822
-13.648	32.182	1595.731	1350.494
-12.633	32.278	1594.173	1349.814
-11.619	32.224	1592.393	1347.867
-10.604	32.245	1590.795	1346.606
-9.590	32.253	1589.596	1345.597
-8.575	32.212	1588.831	1344.606
-7.560	32.241	1587.476	1343.607
-6.546	32.241	1586.241	1342.514
-5.531	32.154	1585.439	1341.161
-4.517	32.156	1583.694	1339.645
-3.502	32.210	1582.561	1339.015
-2.487	32.194	1581.003	1337.533
-1.473	31.944	1569.813	1326.243
-0.458	29.288	1550.404	1291.223
0.556	25.768	1550.870	1260.950
1.571	23.461	1574.480	1263.614
2.586	22.950	1588.210	1270.846
3.600	20.201	1533.544	1207.873
4.615	10.957	1422.191	1060.087
5.629	2.919	1357.913	961.904
6.644	1.616	1349.346	947.638
7.659	1.629	1348.434	946.999
8.673	1.521	1347.262	945.420
9.688	1.513	1344.925	943.647
10.702	1.256	1342.127	940.007
11.717	4.580	1349.007	965.414
12.731	14.667	1367.815	1042.035
13.746	23.260	1382.994	1107.495
14.761	25.897	1385.964	1126.282
15.775	26.231	1385.849	1128.176
16.790	26.265	1385.592	1128.078
17.804	26.452	1384.817	1128.513
18.819	26.650	1384.819	1129.650
19.834	26.758	1384.219	1129.732
20.848	26.739	1383.594	1129.007
21.863	26.752	1382.599	1128.173
22.877	26.717	1381.873	1127.265
23.892	26.657	1381.122	1126.179
24.907	26.727	1379.651	1125.317
25.921	26.758	1378.789	1124.703
26.936	26.753	1378.127	1124.037
27.950	26.716	1376.923	1122.725
28.965	26.684	1375.906	1121.594
29.980	26.735	1374.648	1120.791
30.994	26.712	1373.282	1119.432
32.009	26.831	1371.877	1118.921
33.023	26.754	1371.510	1118.050
34.038	26.750	1370.098	1116.776
35.053	26.668	1369.312	1115.531
36.067	26.708	1368.062	1114.660
37.082	26.736	1367.333	1114.137
38.096	26.612	1366.610	1112.691
39.111	26.705	1365.546	1112.296
40.126	26.684	1365.159	1111.755
41.140	26.664	1364.575	1111.054
42.155	26.664	1364.538	1110.927
43.169	26.782	1364.311	1111.370
44.184	26.732	1363.829	1110.573
45.199	26.714	1363.600	1110.175
46.213	26.740	1362.708	1109.508
47.228	26.842	1361.800	1109.296
48.242	26.732	1360.442	1107.420
49.257	26.717	1359.555	1106.506
50.271	26.820	1357.921	1105.710
51.286	26.702	1356.467	1103.708
52.301	26.730	1355.268	1102.808
53.315	26.788	1354.446	1102.393
54.330	26.711	1353.624	1101.155
55.344	26.716	1352.452	1100.135
56.359	26.655	1351.369	1098.789
57.374	26.682	1350.848	1098.430
58.388	26.693	1350.411	1098.046
59.403	26.705	1349.973	1097.667
60.417	26.614	1349.406	1096.555
61.432	26.683	1348.309	1095.984
62.447	26.747	1347.031	1095.238
63.461	26.794	1346.609	1095.077
64.476	26.743	1345.328	1093.635
65.490	26.737	1344.292	1092.656
66.505	26.707	1342.929	1091.276
67.520	26.695	1341.659	1090.071
68.534	26.738	1340.773	1089.515
69.549	26.803	1339.235	1088.559
70.563	26.778	1338.582	1087.780
71.578	26.719	1338.232	1087.045
72.593	26.733	1336.950	1085.997
73.607	26.716	1336.274	1085.245
74.622	26.762	1335.673	1084.937
75.636	26.765	1334.620	1084.003
76.651	26.741	1334.467	1083.639
77.666	26.757	1333.742	1083.049
78.680	26.745	1333.266	1082.498
79.695	26.817	1332.477	1082.189
80.709	26.740	1331.793	1081.079
81.724	26.746	1331.296	1080.618
82.739	26.776	1329.675	1079.383
83.753	26.721	1328.613	1078.101
84.768	26.844	1327.453	1077.796
85.782	26.825	1326.837	1077.087
86.797	26.844	1325.534	1076.045
87.812	26.727	1324.373	1074.317
88.826	26.798	1323.806	1074.177
89.841	26.824	1322.620	1073.276
90.855	26.773	1321.936	1072.324
91.870	26.813	1320.675	1071.444
92.884	26.699	1320.022	1070.144
93.899	26.796	1319.078	1069.857
94.914	26.809	1318.382	1069.273
95.928	26.803	1317.727	1068.615
96.943	26.912	1316.709	1068.337
97.957	26.844	1316.443	1067.626
98.972	26.832	1315.054	1066.331
99.987	26.815	1314.473	1065.670
101.001	26.774	1313.329	1064.404
102.016	26.756	1312.745	1063.734
103.030	26.807	1311.615	1063.023
104.045	26.770	1311.311	1062.463
105.060	26.833	1309.952	1061.636
106.074	26.948	1309.157	1061.575
107.089	26.924	1307.639	1060.106
108.103	26.852	1307.081	1059.144
109.118	26.920	1305.749	1058.367
110.133	26.990	1304.716	1057.841
111.147	26.880	1303.628	1056.228
112.162	26.909	1302.391	1055.299
113.176	26.902	1301.598	1054.524
114.191	26.950	1301.012	1054.230
115.206	26.879	1300.059	1052.956
116.220	26.814	1299.097	1051.704
117.235	26.889	1297.889	1051.069
118.249	26.832	1297.055	1049.969
119.264	26.835	1296.270	1049.258
120.279	26.917	1295.872	1049.318
121.293	26.807	1295.383	1048.193
122.308	26.891	1293.677	1047.209
123.322	27.057	1292.796	1047.358
124.337	26.887	1292.762	1046.258
125.352	26.878	1291.512	1045.100
126.366	27.008	1290.347	1044.815
127.381	26.937	1289.606	1043.712
128.395	26.854	1288.981	1042.638
129.410	27.011	1287.597	1042.325
130.424	26.971	1287.117	1041.619
131.439	26.988	1286.432	1041.070
132.454	26.851	1285.642	1039.550
133.468	26.848	1285.115	1039.015
134.483	26.960	1284.381	1038.975
135.497	26.902	1283.765	1038.051
136.512	26.916	1282.706	1037.184
137.527	26.885	1281.589	1036.010
138.541	26.926	1280.076	1034.929
139.556	26.900	1278.917	1033.751
140.570	26.852	1278.470	1033.025
141.585	26.838	1277.447	1032.028
142.600	26.836	1276.411	1031.088
143.614	26.989	1275.595	1031.205
144.629	26.882	1274.647	1029.744
145.643	26.843	1273.151	1028.221
146.658	26.809	1272.392	1027.325
147.673	26.890	1271.757	1027.178
148.687	26.797	1270.310	1025.398
149.702	26.836	1269.434	1024.815
150.716	26.817	1268.360	1023.755
151.731	26.802	1267.971	1023.261
152.746	26.775	1266.576	1021.897
153.760	26.951	1265.234	1021.712
154.775	26.905	1264.356	1020.654
155.789	26.983	1263.025	1019.929
156.804	26.952	1262.645	1019.357
157.819	27.022	1261.590	1018.806
158.833	26.942	1261.269	1018.012
159.848	26.999	1260.610	1017.705
160.862	26.915	1260.117	1016.747
161.877	26.966	1259.062	1016.094
162.892	27.023	1257.871	1015.362
163.906	27.055	1257.166	1014.880
164.921	27.013	1256.672	1014.155
165.935	27.049	1256.069	1013.784
166.950	26.932	1255.400	1012.500
167.964	26.980	1254.474	1011.932
168.979	27.096	1253.836	1011.970
169.994	26.909	1253.796	1010.809
171.008	27.035	1253.130	1010.885
172.023	27.080	1251.804	1009.974
173.037	27.150	1250.841	1009.500
174.052	27.218	1250.054	1009.151
175.067	27.044	1249.730	1007.832
176.081	27.157	1248.712	1007.552
177.096	26.882	1248.705	1005.930
178.110	27.122	1247.383	1006.107
179.125	27.131	1246.476	1005.333
180.140	27.110	1245.077	1004.002
181.154	27.123	1244.206	1003.280
182.169	27.105	1243.514	1002.539
183.183	27.029	1242.163	1000.938
184.198	27.062	1241.183	1000.241
185.213	27.100	1240.832	1000.079
186.227	27.080	1239.790	999.044
187.242	27.128	1238.352	998.061
188.256	27.098	1238.001	997.526
189.271	27.169	1237.162	997.147
190.286	27.117	1236.684	996.389
191.300	27.025	1236.083	995.311
192.315	27.086	1234.973	994.667
193.329	27.049	1235.294	994.634
194.344	27.137	1234.810	994.638
195.359	27.154	1234.000	993.989
196.373	27.104	1233.411	993.152
197.388	27.080	1233.398	992.923
198.402	27.076	1233.154	992.618
199.417	27.192	1232.022	992.252
200.432	27.131	1231.587	991.482
201.446	27.135	1230.747	990.741
202.461	27.196	1230.131	990.490
203.475	27.197	1229.374	989.796
204.490	27.129	1228.784	988.863
205.504	27.133	1227.674	987.903
206.519	27.178	1226.430	987.058
207.534	27.233	1225.576	986.585
208.548	27.273	1224.389	985.757
209.563	27.258	1223.583	984.943
210.577	27.257	1223.497	984.777
211.592	27.332	1222.369	984.190
212.607	27.331	1221.550	983.439
213.621	27.206	1221.037	982.261
214.636	27.214	1220.059	981.434
215.650	27.227	1219.669	981.101
216.665	27.297	1218.235	980.240
217.680	27.322	1217.391	979.607
218.694	27.200	1216.995	978.546
219.709	27.344	1216.190	978.589
220.723	27.346	1215.589	978.026
221.738	27.274	1214.691	976.832
222.753	27.244	1213.985	976.017
223.767	27.252	1213.306	975.427
224.782	27.336	1212.716	975.315
225.796	27.356	1212.175	974.901
226.811	27.391	1211.699	974.622
227.826	27.381	1211.347	974.195
228.840	27.358	1210.558	973.353
229.855	27.419	1210.049	973.186
230.869	27.321	1209.370	972.027
231.884	27.441	1208.488	971.876
232.899	27.457	1207.456	971.043
233.913	27.293	1207.526	970.140
234.928	27.413	1206.856	970.156
235.942	27.439	1205.887	969.427
236.957	27.396	1205.483	968.789
237.972	27.436	1204.746	968.323
238.986	27.358	1204.188	967.374
240.001	27.389	1203.796	967.140
241.015	27.563	1202.763	967.146
242.030	27.541	1202.105	966.414
243.045	27.559	1200.752	965.337
244.059	27.535	1200.313	964.772
245.074	27.477	1199.634	963.837
246.088	27.545	1198.682	963.345
247.103	27.479	1198.195	962.519
248.117	27.530	1197.318	961.996
249.132	27.479	1196.479	960.971
250.147	27.620	1196.040	961.274
251.161	27.645	1195.102	960.570
252.176	27.640	1194.282	959.796
253.190	27.575	1194.120	959.239
254.205	27.477	1193.295	957.977
255.220	27.617	1192.845	958.270
256.234	27.676	1192.150	957.935
257.249	27.724	1191.326	957.439
258.263	27.754	1190.758	957.054
259.278	27.561	1190.732	955.938
260.293	27.640	1190.132	955.785
261.307	27.582	1189.888	955.203
262.322	27.659	1188.930	954.749
263.336	27.718	1187.926	954.168
264.351	27.598	1187.252	952.915
265.366	27.720	1187.041	953.301
266.380	27.741	1186.092	952.564
267.395	27.733	1185.419	951.897
268.409	27.590	1185.282	950.954
269.424	27.536	1184.590	950.035
270.439	27.723	1183.903	950.373
271.453	27.689	1183.311	949.636
272.468	27.710	1181.995	948.604
273.482	27.749	1181.587	948.396
274.497	27.666	1181.520	947.826
275.512	27.706	1180.803	947.380
276.526	27.689	1180.246	946.757
277.541	27.751	1179.485	946.388
278.555	27.665	1179.039	945.498
279.570	27.798	1177.979	945.251
280.585	27.768	1177.068	944.284
281.599	27.790	1176.178	943.601
282.614	27.818	1175.636	943.228
283.628	27.842	1174.821	942.614
284.643	27.877	1173.605	941.732
285.657	27.878	1173.197	941.331
286.672	27.871	1172.224	940.427
287.687	27.836	1171.387	939.495
288.701	27.890	1170.706	939.144
289.716	27.897	1170.299	938.766
290.730	27.956	1169.544	938.382
291.745	27.881	1169.193	937.635
292.760	27.999	1168.312	937.449
293.774	27.988	1167.482	936.642
294.789	27.933	1167.324	936.152
295.803	28.018	1166.437	935.794
296.818	27.950	1166.186	935.161
297.833	27.979	1165.212	934.444
298.847	28.070	1164.736	934.448
299.862	28.009	1163.583	933.124
300.876	27.888	1163.120	932.053
301.891	28.026	1162.635	932.289
302.906	28.104	1162.379	932.398
303.920	28.128	1161.280	931.557
304.935	28.145	1160.251	930.738
305.949	28.039	1160.062	929.960
306.964	28.103	1159.487	929.744
307.979	28.120	1158.744	929.153
308.993	28.184	1158.114	928.889
310.008	28.219	1157.156	928.219
311.022	28.125	1157.150	927.655
312.037	28.172	1155.917	926.820
313.052	28.082	1155.065	925.601
314.066	28.122	1154.265	925.078
315.081	28.119	1153.779	924.593
316.095	28.096	1153.097	923.850
317.110	28.096	1152.340	923.161
318.125	28.100	1152.422	923.165
319.139	28.209	1151.288	922.722
320.154	28.102	1150.829	921.734
321.168	28.176	1150.373	921.661
322.183	28.132	1149.678	920.801
323.197	28.277	1148.717	920.682
324.212	28.102	1148.382	919.451
325.227	28.152	1148.258	919.517
326.241	28.284	1147.487	919.486
327.256	28.260	1146.640	918.604
328.270	28.245	1145.583	917.600
329.285	28.305	1144.830	917.218
330.300	28.410	1143.968	916.970
331.314	28.181	1143.227	915.152
332.329	28.263	1142.528	914.917
333.343	28.237	1142.073	914.345
334.358	28.308	1141.333	914.026
335.373	28.361	1140.757	913.746
336.387	28.318	1139.989	912.839
337.402	28.346	1139.187	912.255
338.416	28.414	1138.890	912.274
339.431	28.236	1138.298	910.832
340.446	28.377	1137.339	910.687
341.460	28.567	1136.646	910.996
342.475	28.478	1136.006	909.960
343.489	28.437	1135.056	908.917
344.504	28.445	1134.139	908.141
345.519	28.546	1133.343	907.923
346.533	28.485	1132.733	907.048
347.548	28.489	1132.063	906.454
348.562	28.585	1131.331	906.260
349.577	28.600	1130.529	905.613
350.592	28.430	1129.863	904.158
351.606	28.358	1129.221	903.213
352.621	28.390	1129.202	903.272
353.635	28.553	1128.048	903.072
354.650	28.671	1127.462	903.107
355.665	28.587	1126.813	902.095
356.679	28.623	1126.286	901.770
357.694	28.742	1125.716	901.817
358.708	28.648	1124.685	900.449
359.723	28.558	1124.359	899.664
360.738	28.435	1124.070	898.753
361.752	28.626	1122.918	898.690
362.767	28.711	1122.493	898.684
363.781	28.639	1122.480	898.244
364.796	28.719	1121.729	897.954
365.810	28.688	1120.617	896.831
366.825	28.764	1120.138	896.742
367.840	28.797	1119.559	896.361
368.854	28.708	1119.311	895.644
369.869	28.812	1118.555	895.467
370.883	28.749	1117.460	894.208
371.898	28.761	1117.317	894.073
372.913	28.805	1116.640	893.665
373.927	28.893	1115.769	893.316
374.942	28.786	1115.538	892.532
375.956	28.767	1115.046	891.966
376.971	28.895	1114.382	891.979
377.986	28.888	1113.835	891.428
379.000	28.895	1113.501	891.113
380.015	28.931	1113.050	890.852
381.029	28.918	1112.122	889.963
382.044	28.929	1111.387	889.353
383.059	28.952	1110.910	889.004
384.073	29.010	1110.199	888.637
385.088	29.054	1109.015	887.819
386.102	29.060	1108.433	887.302
387.117	28.888	1107.851	885.934
388.132	28.896	1106.904	885.135
389.146	29.010	1106.201	885.043
390.161	28.986	1105.881	884.594
391.175	29.104	1104.786	884.207
392.190	28.990	1104.381	883.257
393.205	29.000	1103.849	882.801
394.219	29.009	1103.162	882.214
395.234	29.019	1102.475	881.634
396.248	29.114	1101.587	881.301
397.263	29.077	1100.613	880.268
398.278	29.160	1100.166	880.229
399.292	29.105	1099.704	879.520
400.307	29.148	1098.995	879.080
401.321	29.091	1098.217	878.110
402.336	29.104	1097.556	877.564
403.350	29.104	1097.283	877.266
404.365	29.156	1096.379	876.716
405.380	29.158	1095.823	876.200
406.394	29.316	1095.004	876.220
407.409	29.289	1094.055	875.254
408.423	29.330	1093.305	874.774
409.438	29.257	1092.906	874.028
410.453	29.373	1092.353	874.060
411.467	29.427	1091.404	873.482
412.482	29.279	1090.829	872.242
413.496	29.281	1090.495	871.905
414.511	29.397	1089.409	871.509
415.526	29.317	1089.231	870.912
416.540	29.319	1088.850	870.540
417.555	29.346	1088.139	870.021
418.569	29.331	1087.703	869.525
419.584	29.361	1087.687	869.577
420.599	29.325	1087.143	868.895
421.613	103.241	1322.988	1459.201
422.628	96.110	1357.319	1459.302
