DTS Sentinel unit serial number:	SN413079Multiplexer serial number:	ORYXHardware model number:	OX4-SRSoftware version number:	ORYX F/W v4.00 Oryx Data Collector v3.7.2.0data status	okinstallation	princeton_trtdifferential loss correction	single-endedforward channel	channel 2reverse channel	N/Adate	2019/09/11time	18:49:11forward acquisition time	60.00reverse acquisition time	0.00gamma	496.2192k internal	0.2291k external	0.2291temperature offset calibration	1.0031default loss term (dB/km)	0.3790temperature slope calibration	1.0000multiplexer offset coefficient	1.0000multiplexer slope coefficient	1.0000fibre end	0.00T internal ref (°C)	42.98T ext. ref 1 (°C)	1.24T ext. ref 2 (°C)	35.03length (m)	temperature (°C)	Stokes	anti-Stokes-747.200	53.301	0.159	0.156
-746.185	268.119	0.318	0.570
-745.171	-67.540	0.244	-0.098
-744.156	383.615	0.062	0.131
-743.142	29.481	-0.248	0.216
-742.127	116.978	-0.246	0.309
-741.112	-16.994	-0.202	-0.131
-740.098	-200.000	-0.003	0.149
-739.083	226.039	-0.094	0.157
-738.069	83.341	0.206	0.230
-737.054	-13.074	0.017	0.011
-736.039	509.100	-0.198	0.470
-735.025	23.184	0.141	0.119
-734.010	-132.755	-0.173	-0.023
-732.996	-1.691	-0.216	-0.155
-731.981	306.863	-0.139	-0.265
-730.966	-200.000	-0.047	0.320
-729.952	-4.071	-0.104	-0.074
-728.937	-52.309	0.085	-0.040
-727.923	-44.381	-0.082	-0.042
-726.908	800.000	0.057	-0.182
-725.894	-200.000	0.042	-0.285
-724.879	-200.000	-0.015	0.331
-723.864	157.312	0.169	-0.239
-722.850	-37.636	0.217	-0.119
-721.835	179.465	-0.129	-0.193
-720.821	43.405	0.259	0.242
-719.806	106.303	-0.101	0.122
-718.791	-200.000	-0.011	-0.295
-717.777	800.000	-0.021	-0.070
-716.762	-92.705	-0.111	-0.032
-715.748	184.953	0.079	0.120
-714.733	-62.759	-0.159	-0.067
-713.718	25.564	-0.185	0.157
-712.704	800.000	-0.075	-0.335
-711.689	-163.060	-0.355	0.018
-710.675	-200.000	-0.010	0.173
-709.660	-91.023	0.316	-0.093
-708.645	-121.342	0.401	-0.068
-707.631	-200.000	-0.011	-0.082
-706.616	-54.169	0.120	0.056
-705.602	-28.025	-0.102	-0.061
-704.587	-77.829	-0.256	0.090
-703.572	800.000	-0.060	0.191
-702.558	137.494	0.277	-0.371
-701.543	55.042	0.110	-0.108
-700.529	800.000	-0.009	0.042
-699.514	-200.000	-0.056	-0.441
-698.499	-60.002	0.157	-0.069
-697.485	-200.000	-0.016	0.096
-696.470	800.000	-0.026	0.095
-695.456	525.845	0.109	-0.262
-694.441	-102.384	-0.090	0.022
-693.426	-23.603	0.105	-0.064
-692.412	-62.082	-0.187	0.080
-691.397	770.363	0.036	0.101
-690.383	195.939	-0.040	0.063
-689.368	-63.402	-0.110	-0.046
-688.354	141.923	0.275	0.373
-687.339	144.247	-0.075	-0.102
-686.324	109.747	-0.079	-0.097
-685.310	-163.562	-0.212	0.010
-684.295	800.000	-0.054	-0.196
-683.281	164.196	-0.069	-0.099
-682.266	-200.000	-0.008	0.105
-681.251	-33.882	-0.137	0.077
-680.237	174.410	-0.023	0.034
-679.222	800.000	0.070	-0.229
-678.208	-64.771	-0.020	-0.008
-677.193	800.000	-0.125	-0.559
-676.178	759.180	0.079	-0.219
-675.164	800.000	-0.097	-0.324
-674.149	211.855	-0.128	0.205
-673.135	-148.227	0.130	-0.011
-672.120	-91.252	-0.274	0.080
-671.105	-31.185	-0.087	0.050
-670.091	20.282	-0.289	-0.238
-669.076	244.673	0.052	0.089
-668.062	-7.623	-0.232	0.160
-667.047	-72.712	-0.026	-0.010
-666.032	15.446	0.335	0.269
-665.018	-22.425	-0.174	0.108
-664.003	-120.932	-0.038	0.007
-662.989	-1.670	-0.306	0.220
-661.974	-200.000	-0.027	0.225
-660.959	-31.140	0.050	-0.029
-659.945	25.527	-0.327	-0.278
-658.930	310.829	-0.072	-0.138
-657.916	103.976	0.141	0.169
-656.901	-89.369	0.218	-0.065
-655.886	-105.295	0.084	-0.020
-654.872	-63.958	0.106	-0.044
-653.857	-95.778	-0.093	-0.025
-652.843	434.602	0.038	-0.084
-651.828	358.342	-0.046	-0.093
-650.814	-16.629	-0.204	-0.132
-649.799	641.398	0.025	-0.065
-648.784	-139.586	-0.314	0.034
-647.770	-77.002	0.260	-0.093
-646.755	-25.960	-0.173	-0.104
-645.741	152.319	0.107	0.149
-644.726	-126.796	-0.401	-0.060
-643.711	-200.000	-0.011	0.216
-642.697	505.794	0.061	0.145
-641.682	-111.236	0.187	-0.039
-640.668	-153.605	0.027	-0.002
-639.653	-89.648	-0.215	-0.064
-638.638	-10.168	0.044	-0.030
-637.624	800.000	0.074	-0.275
-636.609	43.202	0.178	-0.166
-635.595	-100.968	-0.219	0.055
-634.580	-200.000	0.006	-0.266
-633.565	388.902	0.009	0.018
-632.551	-87.468	0.155	-0.048
-631.536	130.486	-0.137	-0.179
-630.522	-32.419	-0.235	-0.134
-629.507	627.689	-0.092	0.237
-628.492	-126.911	0.165	0.025
-627.478	800.000	-0.056	0.243
-626.463	-38.544	-0.102	0.055
-625.449	-200.000	0.005	-0.166
-624.434	-10.830	-0.229	0.154
-623.419	244.535	-0.030	0.051
-622.405	800.000	-0.090	0.264
-621.390	-51.078	-0.063	-0.030
-620.376	255.277	0.023	0.041
-619.361	-200.000	0.015	-0.126
-618.346	-11.006	0.105	-0.070
-617.332	123.597	0.024	-0.031
-616.317	60.118	-0.130	0.131
-615.303	15.820	0.209	-0.168
-614.288	-29.465	-0.260	0.151
-613.273	230.114	0.043	-0.072
-612.259	186.867	-0.045	-0.069
-611.244	-71.045	-0.495	-0.190
-610.230	191.347	0.056	-0.086
-609.215	-105.859	-0.271	0.062
-608.201	-124.054	0.257	-0.041
-607.186	-111.939	-0.280	-0.057
-606.171	-200.000	-0.138	-0.000
-605.157	97.940	0.082	0.096
-604.142	-109.056	0.172	-0.037
-603.128	104.160	-0.188	-0.225
-602.113	-12.230	-0.208	0.138
-601.098	800.000	0.040	-0.156
-600.084	-74.967	0.228	-0.083
-599.069	-163.586	0.110	0.005
-598.055	-115.038	-0.134	-0.026
-597.040	-33.496	-0.279	-0.157
-596.025	800.000	0.116	-0.407
-595.011	-50.895	-0.156	-0.075
-593.996	-21.896	0.152	-0.094
-592.982	1.337	0.127	0.093
-591.967	-16.943	0.114	0.073
-590.952	-57.785	-0.117	0.052
-589.938	84.278	0.235	-0.262
-588.923	-200.000	-0.014	-0.172
-587.909	483.530	-0.039	0.091
-586.894	-80.994	-0.144	-0.048
-585.879	-200.000	-0.003	0.085
-584.865	71.125	-0.148	-0.157
-583.850	646.573	0.132	0.343
-582.836	-200.000	-0.012	-0.094
-581.821	63.428	-0.229	-0.234
-580.806	-163.063	0.074	0.004
-579.792	55.840	0.228	0.225
-578.777	-119.353	0.302	0.053
-577.763	-4.981	-0.065	-0.046
-576.748	-104.985	0.130	0.030
-575.733	-200.000	-0.003	-0.416
-574.719	27.424	-0.189	-0.162
-573.704	201.397	0.249	-0.390
-572.690	800.000	0.051	-0.183
-571.675	-78.662	0.376	0.131
-570.661	-107.675	0.014	0.003
-569.646	-200.000	-0.013	0.178
-568.631	86.324	0.141	-0.158
-567.617	-66.111	-0.205	-0.083
-566.602	800.000	0.023	0.101
-565.588	-127.160	0.357	-0.053
-564.573	243.421	0.070	0.119
-563.558	-200.000	-0.052	0.541
-562.544	-61.446	-0.177	0.076
-561.529	248.240	-0.239	0.411
-560.515	-15.529	0.411	-0.267
-559.500	800.000	-0.022	0.068
-558.485	326.690	-0.162	-0.316
-557.471	-200.000	0.003	-0.256
-556.456	-93.230	-0.284	-0.080
-555.442	-147.032	0.279	-0.024
-554.427	-98.711	0.131	0.034
-553.412	151.846	-0.133	-0.185
-552.398	800.000	-0.129	-0.448
-551.383	82.703	0.229	0.253
-550.369	-64.171	0.220	0.091
-549.354	-73.703	-0.248	-0.092
-548.339	42.780	0.122	-0.113
-547.325	800.000	-0.063	-0.196
-546.310	168.192	-0.188	-0.272
-545.296	-167.321	-0.336	-0.014
-544.281	46.882	0.061	-0.058
-543.266	13.483	0.144	0.114
-542.252	-200.000	0.001	0.316
-541.237	-23.904	-0.294	-0.179
-540.223	800.000	0.032	-0.117
-539.208	194.502	-0.068	-0.104
-538.193	168.319	-0.026	-0.037
-537.179	-125.534	0.122	0.019
-536.164	-14.512	-0.279	0.182
-535.150	20.955	-0.245	0.202
-534.135	227.684	-0.112	-0.186
-533.121	800.000	-0.041	-0.168
-532.106	100.865	-0.272	-0.321
-531.091	800.000	0.031	0.138
-530.077	-56.932	0.059	0.027
-529.062	-51.993	0.226	0.107
-528.048	-111.074	0.166	0.035
-527.033	-123.669	-0.106	0.017
-526.018	177.138	0.046	-0.067
-525.004	-200.000	0.020	-0.092
-523.989	-160.653	-0.141	-0.008
-522.975	-15.016	-0.179	0.116
-521.960	-200.000	0.008	-0.116
-520.945	178.300	0.290	0.430
-519.931	-71.239	-0.032	-0.012
-518.916	90.505	0.195	-0.221
-517.902	-74.926	0.529	0.192
-516.887	-46.306	0.098	-0.049
-515.872	-151.753	0.100	0.007
-514.858	454.361	0.078	-0.174
-513.843	520.516	0.087	0.207
-512.829	-76.124	0.328	0.118
-511.814	-27.550	-0.121	0.071
-510.799	-53.858	-0.042	-0.020
-509.785	170.038	0.210	-0.304
-508.770	800.000	-0.011	-0.037
-507.756	-154.081	-0.189	0.013
-506.741	-50.628	-0.248	0.118
-505.726	-200.000	-0.041	0.351
-504.712	-38.142	-0.167	-0.090
-503.697	-29.504	-0.063	0.036
-502.683	37.276	-0.136	0.122
-501.668	-72.183	-0.182	0.069
-500.653	-200.000	-0.059	-0.418
-499.639	327.188	0.127	-0.247
-498.624	58.042	0.223	-0.222
-497.610	-33.888	-0.150	-0.084
-496.595	581.136	0.127	-0.316
-495.581	-22.198	-0.261	-0.161
-494.566	154.251	0.077	-0.107
-493.551	-192.716	-0.152	0.001
-492.537	69.987	-0.145	0.152
-491.522	36.011	0.183	0.164
-490.508	-96.019	0.119	-0.032
-489.493	-200.000	-0.005	0.173
-488.478	-136.920	0.245	-0.028
-487.464	-200.000	0.032	-0.277
-486.449	-82.928	0.028	-0.009
-485.435	-16.853	0.180	-0.116
-484.420	54.671	-0.117	0.114
-483.405	-20.334	-0.091	-0.057
-482.391	267.479	0.030	-0.053
-481.376	200.529	-0.096	-0.149
-480.362	-55.042	0.078	0.035
-479.347	-70.620	-0.142	-0.054
-478.332	800.000	-0.055	-0.206
-477.318	-40.963	0.219	-0.115
-476.303	-88.672	0.241	-0.073
-475.289	-136.605	0.459	0.054
-474.274	-55.503	-0.207	-0.094
-473.259	-200.000	-0.003	-0.285
-472.245	-200.000	-0.015	-0.142
-471.230	800.000	-0.084	-0.339
-470.216	800.000	0.118	-0.358
-469.201	-200.000	-0.003	0.249
-468.186	589.361	0.043	0.107
-467.172	-134.127	-0.046	-0.006
-466.157	69.998	-0.198	0.207
-465.143	1.448	-0.183	-0.133
-464.128	24.218	-0.035	0.029
-463.113	-118.304	0.114	0.021
-462.099	62.880	-0.069	0.070
-461.084	29.361	0.142	-0.123
-460.070	5.172	-0.198	0.148
-459.055	800.000	0.081	0.277
-458.040	-47.897	-0.192	0.094
-457.026	56.047	0.145	0.142
-456.011	-39.997	-0.115	-0.061
-454.997	-79.257	0.446	-0.153
-453.982	-23.748	-0.231	0.140
-452.968	-84.564	-0.345	0.110
-451.953	-4.395	-0.282	0.197
-450.938	-10.658	0.360	0.241
-449.924	359.752	-0.119	-0.241
-448.909	23.108	-0.181	0.151
-447.895	-200.000	0.007	0.067
-446.880	-65.076	-0.247	-0.101
-445.865	-66.248	0.080	-0.032
-444.851	-136.443	-0.067	-0.008
-443.836	800.000	-0.029	-0.124
-442.822	69.207	-0.142	-0.148
-441.807	-200.000	0.068	0.467
-440.792	-200.000	0.015	-0.186
-439.778	181.913	-0.121	0.180
-438.763	800.000	0.056	-0.160
-437.749	-124.360	0.267	0.042
-436.734	-2.477	-0.017	0.012
-435.719	-200.000	0.021	0.185
-434.705	335.608	-0.103	-0.201
-433.690	622.504	0.048	-0.122
-432.676	-35.177	0.285	0.157
-431.661	231.269	-0.084	-0.140
-430.646	241.871	-0.165	0.279
-429.632	-57.529	-0.077	-0.034
-428.617	-85.810	-0.062	0.019
-427.603	800.000	0.039	0.128
-426.588	411.370	0.062	0.134
-425.573	-116.721	-0.046	0.008
-424.559	110.464	-0.137	0.167
-423.544	-8.738	0.095	0.065
-422.530	-62.975	-0.152	0.064
-421.515	94.682	-0.114	-0.131
-420.500	-96.231	0.259	-0.069
-419.486	-200.000	-0.056	0.302
-418.471	-10.763	-0.275	0.184
-417.457	82.215	0.066	-0.072
-416.442	14.126	-0.146	0.115
-415.428	345.848	0.071	-0.141
-414.413	640.732	0.073	0.189
-413.398	-82.875	-0.053	-0.017
-412.384	78.564	0.042	-0.046
-411.369	-97.996	-0.135	-0.035
-410.355	-200.000	0.045	-0.356
-409.340	-200.000	-0.014	-0.229
-408.325	102.556	0.135	0.160
-407.311	89.413	-0.215	0.242
-406.296	800.000	0.034	-0.144
-405.282	-93.142	0.128	-0.036
-404.267	181.825	-0.121	0.180
-403.252	-79.538	0.473	0.162
-402.238	-200.000	0.001	-0.086
-401.223	-136.700	0.178	-0.021
-400.209	53.688	-0.153	-0.148
-399.194	-55.782	0.137	-0.062
-398.179	-127.290	0.068	-0.010
-397.165	800.000	-0.074	-0.220
-396.150	-73.369	-0.070	-0.026
-395.136	-186.461	-0.388	-0.006
-394.121	-1.314	-0.042	-0.030
-393.106	127.309	-0.133	0.171
-392.092	-114.148	0.360	0.070
-391.077	-11.329	-0.217	-0.144
-390.063	-200.000	0.009	0.074
-389.048	-200.000	-0.026	-0.164
-388.033	-18.593	0.193	-0.122
-387.019	-200.000	0.024	0.190
-386.004	-200.000	0.039	0.208
-384.990	273.757	0.054	-0.097
-383.975	800.000	0.038	0.146
-382.960	-13.917	-0.132	-0.086
-381.946	-200.000	-0.015	-0.273
-380.931	-21.973	-0.151	0.092
-379.917	90.549	0.229	-0.259
-378.902	49.783	-0.098	-0.093
-377.888	-91.672	-0.074	-0.021
-376.873	-101.341	0.170	0.042
-375.858	88.650	-0.377	-0.423
-374.844	-97.466	-0.291	-0.076
-373.829	-6.458	-0.150	-0.103
-372.815	-44.314	-0.137	0.069
-371.800	253.114	0.034	-0.059
-370.785	21.503	0.180	-0.148
-369.771	-200.000	0.018	0.240
-368.756	-78.573	-0.178	-0.062
-367.742	-168.206	-0.256	0.010
-366.727	-200.000	-0.028	0.183
-365.712	-28.966	-0.360	0.208
-364.698	-200.000	-0.012	0.242
-363.683	-200.000	0.005	0.099
-362.669	-200.000	-0.009	0.168
-361.654	-113.185	0.326	-0.065
-360.639	800.000	0.039	0.112
-359.625	163.548	-0.090	0.127
-358.610	-200.000	-0.008	-0.294
-357.596	258.186	-0.024	-0.042
-356.581	-200.000	0.014	0.150
-355.566	-136.328	0.329	0.039
-354.552	-122.215	0.447	-0.074
-353.537	-6.760	0.207	0.142
-352.523	-57.109	0.104	0.046
-351.508	19.619	-0.189	-0.153
-350.493	570.183	0.069	0.170
-349.479	-124.700	-0.279	-0.044
-348.464	-200.000	-0.002	-0.180
-347.450	-127.523	0.163	-0.024
-346.435	-91.759	0.342	0.098
-345.420	166.056	0.122	0.173
-344.406	800.000	0.069	-0.292
-343.391	-18.485	0.357	-0.225
-342.377	181.076	0.209	0.310
-341.362	103.192	0.077	-0.091
-340.348	228.621	-0.013	-0.021
-339.333	-110.758	0.208	-0.043
-338.318	800.000	0.049	0.142
-337.304	788.714	0.066	0.182
-336.289	-60.406	-0.099	-0.042
-335.275	-200.000	-0.015	0.115
-334.260	800.000	-0.024	0.088
-333.245	199.171	0.120	0.186
-332.231	-83.115	0.302	0.098
-331.216	-61.435	-0.138	-0.059
-330.202	-173.057	-0.063	0.002
-329.187	-200.000	0.025	0.218
-328.172	-111.495	-0.083	0.017
-327.158	-115.229	-0.070	-0.013
-326.143	-45.994	0.302	-0.150
-325.129	-60.683	0.247	0.106
-324.114	-114.267	-0.211	-0.041
-323.099	470.724	-0.142	0.322
-322.085	-166.182	-0.152	-0.006
-321.070	-200.000	0.010	0.162
-320.056	136.529	-0.089	-0.117
-319.041	800.000	-0.070	-0.230
-318.026	-176.133	-0.060	-0.002
-317.012	200.475	0.072	-0.112
-315.997	-186.877	0.150	0.002
-314.983	-200.000	0.078	-0.502
-313.968	363.125	-0.237	-0.478
-312.953	800.000	0.101	0.340
-311.939	366.158	-0.094	-0.191
-310.924	58.783	-0.040	0.040
-309.910	-180.715	0.138	0.003
-308.895	-148.575	0.259	0.021
-307.880	-56.951	0.209	0.093
-306.866	800.000	0.152	-0.441
-305.851	181.955	0.136	-0.202
-304.837	-175.695	-0.244	0.007
-303.822	177.793	-0.171	0.251
-302.807	-46.191	0.038	0.019
-301.793	-17.092	0.013	0.008
-300.778	-35.228	-0.404	-0.221
-299.764	800.000	0.137	0.469
-298.749	385.068	0.074	-0.154
-297.735	-80.153	-0.166	-0.056
-296.720	540.917	0.034	-0.082
-295.705	-44.605	0.151	-0.076
-294.691	100.358	0.134	-0.157
-293.676	249.523	-0.064	-0.109
-292.662	800.000	0.012	0.052
-291.647	187.514	0.100	-0.150
-290.632	41.341	0.225	0.205
-289.618	-19.410	-0.218	-0.136
-288.603	-117.186	0.489	0.090
-287.589	-128.432	0.161	0.023
-286.574	129.483	0.156	-0.201
-285.559	-188.772	-0.255	0.003
-284.545	-106.238	0.212	-0.048
-283.530	64.346	0.267	0.271
-282.516	222.721	-0.145	-0.234
-281.501	227.461	-0.176	0.288
-280.486	-61.898	0.175	0.074
-279.472	-200.000	0.001	-0.012
-278.457	85.822	-0.125	-0.138
-277.443	237.681	0.109	-0.182
-276.428	-146.352	-0.245	0.022
-275.413	-98.766	0.242	0.062
-274.399	322.139	0.128	0.245
-273.384	19.742	-0.172	0.140
-272.370	590.460	-0.105	0.261
-271.355	381.342	-0.191	-0.395
-270.340	-23.723	-0.219	0.132
-269.326	412.810	-0.053	-0.114
-268.311	-62.487	0.235	0.098
-267.297	254.658	0.192	0.330
-266.282	-148.235	-0.339	0.028
-265.267	-35.709	-0.205	0.112
-264.253	119.262	0.041	0.051
-263.238	111.969	0.214	-0.260
-262.224	-86.807	0.088	0.027
-261.209	-200.000	0.020	0.249
-260.195	174.473	-0.226	0.328
-259.180	-55.023	-0.141	-0.064
-258.165	-200.000	-0.087	0.496
-257.151	115.050	0.271	0.332
-256.136	107.416	0.136	0.163
-255.122	39.434	-0.028	-0.025
-254.107	-200.000	-0.060	0.324
-253.092	-15.763	0.113	0.072
-252.078	401.121	-0.076	0.161
-251.063	800.000	-0.032	0.093
-250.049	-43.505	-0.310	0.157
-249.034	408.073	-0.198	0.420
-248.019	-93.521	0.102	-0.028
-247.005	-42.308	0.562	-0.288
-245.990	-200.000	0.047	0.209
-244.976	714.428	-0.064	-0.171
-243.961	55.242	-0.157	0.153
-242.946	-200.000	0.046	-0.455
-241.932	-138.583	-0.075	-0.008
-240.917	-34.957	-0.170	-0.093
-239.903	-12.237	-0.150	0.099
-238.888	-200.000	0.030	0.141
-237.873	-200.000	0.005	0.403
-236.859	-108.678	-0.340	0.073
-235.844	120.234	-0.107	0.133
-234.830	-200.000	0.032	-0.210
-233.815	-47.366	-0.138	-0.067
-232.800	-173.869	0.196	0.006
-231.786	-139.637	0.293	-0.031
-230.771	-115.518	-0.255	0.048
-229.757	-70.311	0.137	0.052
-228.742	72.342	0.244	0.255
-227.727	-159.318	0.091	0.005
-226.713	-146.590	0.133	0.012
-225.698	800.000	-0.082	0.247
-224.684	800.000	-0.058	-0.173
-223.669	-71.443	0.099	0.037
-222.655	-65.351	-0.083	0.033
-221.640	74.008	0.279	0.294
-220.625	229.064	-0.009	-0.014
-219.611	40.126	0.118	0.106
-218.596	-48.314	-0.237	0.115
-217.582	-89.080	-0.091	0.027
-216.567	1.958	0.025	0.018
-215.552	-200.000	0.024	-0.171
-214.538	-118.930	-0.074	-0.013
-213.523	-62.851	0.210	0.087
-212.509	-139.228	-0.339	-0.037
-211.494	800.000	0.014	0.053
-210.479	-200.000	-0.025	-0.120
-209.465	21.370	-0.256	-0.208
-208.450	104.818	-0.175	0.206
-207.436	272.743	-0.066	0.117
-206.421	376.315	0.047	-0.097
-205.406	364.045	0.069	0.138
-204.392	307.722	-0.127	0.237
-203.377	-200.000	0.076	-0.419
-202.363	-200.000	-0.044	0.296
-201.348	-144.577	-0.116	-0.011
-200.333	-9.254	0.143	0.096
-199.319	-30.176	0.207	0.118
-198.304	-40.448	-0.189	-0.099
-197.290	-200.000	-0.042	0.329
-196.275	355.171	0.030	-0.059
-195.260	-41.713	-0.013	0.007
-194.246	-200.000	-0.009	-0.160
-193.231	8.949	0.330	0.249
-192.217	158.914	-0.064	0.090
-191.202	99.057	0.152	0.176
-190.187	-124.251	-0.156	0.024
-189.173	-78.039	-0.249	0.086
-188.158	-200.000	-0.004	0.252
-187.144	-200.000	0.038	-0.248
-186.129	-137.679	-0.156	-0.018
-185.114	238.497	-0.314	0.523
-184.100	2.078	0.423	0.306
-183.085	684.747	-0.052	0.137
-182.071	-5.560	-0.283	-0.194
-181.056	-168.482	0.234	-0.009
-180.042	242.580	-0.137	0.230
-179.027	-200.000	0.038	-0.214
-178.012	-62.290	0.358	0.150
-176.998	69.269	0.064	-0.065
-175.983	-4.307	0.101	0.070
-174.969	79.191	0.163	0.174
-173.954	-76.355	0.252	0.089
-172.939	-120.501	0.217	-0.037
-171.925	-200.000	0.012	-0.138
-170.910	-108.707	-0.125	-0.027
-169.896	-200.000	0.011	-0.067
-168.881	-200.000	-0.041	-0.320
-167.866	462.262	0.118	-0.264
-166.852	-63.197	-0.362	-0.150
-165.837	-200.000	-0.022	-0.310
-164.823	800.000	-0.046	-0.141
-163.808	28.737	0.143	-0.121
-162.793	-1.126	0.237	0.168
-161.779	-21.314	0.194	-0.118
-160.764	-99.532	0.154	0.039
-159.750	23.752	0.199	0.164
-158.735	-80.752	-0.197	-0.066
-157.720	-42.744	0.128	0.065
-156.706	93.782	0.099	0.112
-155.691	800.000	0.046	-0.160
-154.677	-43.107	-0.402	-0.204
-153.662	800.000	-0.078	0.228
-152.647	-42.387	-0.272	-0.139
-151.633	111.977	-0.151	-0.182
-150.618	-200.000	0.457	-0.001
-149.604	55.612	0.104	0.101
-148.589	800.000	0.105	0.341
-147.574	800.000	0.070	-0.200
-146.560	-48.678	-0.230	-0.111
-145.545	-37.363	0.298	-0.159
-144.531	-76.436	0.387	-0.136
-143.516	677.541	-0.106	-0.277
-142.502	224.162	-0.059	0.095
-141.487	-200.000	0.057	-0.355
-140.472	-200.000	0.003	-0.220
-139.458	239.877	0.078	0.130
-138.443	-81.418	0.298	-0.098
-137.429	800.000	-0.066	-0.194
-136.414	82.954	0.036	0.039
-135.399	668.354	-0.074	0.191
-134.385	-121.802	0.228	-0.038
-133.370	-29.005	0.190	0.109
-132.356	-43.706	0.129	0.065
-131.341	39.294	0.174	-0.156
-130.326	-200.000	-0.081	0.383
-129.312	249.826	-0.003	-0.005
-128.297	69.320	-0.068	-0.070
-127.283	620.926	-0.072	0.181
-126.268	-200.000	-0.126	0.000
-125.253	-56.248	0.146	-0.065
-124.239	-200.000	0.019	-0.127
-123.224	337.771	-0.205	-0.399
-122.210	93.039	-0.065	-0.074
-121.195	800.000	0.044	0.156
-120.180	-136.408	-0.102	0.012
-119.166	120.493	0.119	0.148
-118.151	79.704	0.147	0.157
-117.137	-126.859	-0.055	0.008
-116.122	-200.000	0.018	-0.406
-115.107	634.715	0.116	-0.293
-114.093	268.713	0.147	-0.257
-113.078	670.607	-0.114	-0.295
-112.064	-200.000	-0.002	0.082
-111.049	453.789	-0.064	-0.141
-110.034	10.560	0.193	0.147
-109.020	-129.914	0.114	0.016
-108.005	238.547	0.170	-0.283
-106.991	-50.839	0.133	-0.062
-105.976	125.395	-0.249	-0.314
-104.962	800.000	-0.010	0.032
-103.947	-190.360	-0.060	-0.001
-102.932	104.473	-0.134	-0.158
-101.918	250.798	-0.160	0.272
-100.903	-125.690	0.209	0.032
-99.889	800.000	0.077	-0.248
-98.874	24.996	0.098	-0.081
-97.859	-200.000	0.041	-0.345
-96.845	32.061	0.079	0.068
-95.830	-50.323	-0.254	-0.120
-94.816	-200.000	0.030	0.398
-93.801	-164.352	-0.267	-0.012
-92.786	-31.219	-0.178	0.100
-91.772	-7.396	-0.173	-0.117
-90.757	800.000	-0.047	0.203
-89.743	-151.323	0.264	0.020
-88.728	89.537	-0.126	-0.140
-87.713	95.295	0.016	0.018
-86.699	800.000	0.035	0.130
-85.684	116.234	0.223	0.273
-84.670	-15.031	0.157	0.100
-83.655	192.356	-0.048	0.072
-82.640	-111.172	-0.105	-0.021
-81.626	-83.772	0.223	-0.071
-80.611	-66.709	-0.029	-0.012
-79.597	55.192	0.133	0.129
-78.582	-62.466	0.295	-0.122
-77.567	-78.119	0.100	0.034
-76.553	-17.380	-0.072	0.045
-75.538	-92.724	0.411	-0.115
-74.524	800.000	-0.032	0.137
-73.509	800.000	-0.051	0.212
-72.494	800.000	-0.032	-0.106
-71.480	-140.542	-0.091	0.009
-70.465	-27.012	0.280	-0.163
-69.451	800.000	-0.051	0.215
-68.436	244.694	-0.069	0.115
-67.422	295.879	0.169	-0.309
-66.407	74.682	-0.078	-0.082
-65.392	-66.123	-0.168	-0.067
-64.378	562.342	-0.075	0.180
-63.363	193.555	-0.187	0.282
-62.349	125.072	-0.190	0.238
-61.334	-34.906	-0.697	-0.379
-60.319	11.970	0.352	0.270
-59.305	-200.000	-0.120	-0.741
-58.290	68.683	0.780	0.798
-57.276	800.000	0.447	1.467
-56.261	-200.000	75.678	540.433
-55.246	567.624	1304.400	3157.102
-54.232	145.792	2536.575	3388.612
-53.217	115.219	2338.009	2845.174
-52.203	52.823	1955.966	1863.768
-51.188	46.590	1746.195	1615.170
-50.173	43.528	1700.095	1549.044
-49.159	58.333	1733.688	1694.095
-48.144	64.670	1751.488	1760.162
-47.130	46.453	1715.664	1585.619
-46.115	43.040	1702.586	1547.323
-45.100	42.899	1697.467	1541.529
-44.086	42.849	1695.072	1538.908
-43.071	42.816	1692.625	1536.377
-42.057	42.888	1689.922	1534.412
-41.042	42.844	1687.979	1532.247
-40.027	42.889	1686.364	1531.066
-39.013	42.836	1684.374	1528.794
-37.998	42.899	1682.217	1527.257
-36.984	42.869	1680.988	1525.849
-35.969	43.005	1679.548	1525.510
-34.954	43.007	1678.141	1524.185
-33.940	42.960	1676.477	1522.265
-32.925	43.008	1674.225	1520.519
-31.911	42.965	1672.857	1518.895
-30.896	43.004	1670.693	1517.160
-29.881	43.057	1668.634	1515.626
-28.867	42.973	1667.202	1513.640
-27.852	42.861	1666.228	1511.850
-26.838	42.910	1664.636	1510.712
-25.823	43.090	1662.424	1509.993
-24.809	42.951	1661.290	1507.864
-23.794	42.986	1659.831	1506.742
-22.779	42.925	1658.488	1505.008
-21.765	43.110	1656.273	1504.322
-20.750	43.067	1654.728	1502.537
-19.736	42.990	1653.501	1500.785
-18.721	43.039	1651.778	1499.532
-17.706	43.065	1650.183	1498.214
-16.692	43.046	1648.765	1496.724
-15.677	42.956	1647.697	1495.030
-14.663	43.000	1646.242	1493.980
-13.648	43.068	1644.172	1492.544
-12.633	43.039	1642.844	1491.066
-11.619	42.965	1641.550	1489.280
-10.604	42.961	1639.905	1487.700
-9.590	43.005	1638.753	1486.922
-8.575	43.000	1637.308	1485.513
-7.560	43.073	1635.855	1484.678
-6.546	43.041	1635.120	1483.718
-5.531	43.006	1633.983	1482.369
-4.517	43.003	1632.593	1481.024
-3.502	42.960	1631.791	1479.921
-2.487	43.100	1629.604	1478.909
-1.473	42.624	1617.921	1464.779
-0.458	39.161	1595.671	1419.623
0.556	33.691	1591.874	1374.464
1.571	30.490	1614.711	1370.492
2.586	29.436	1629.264	1374.873
3.600	25.793	1576.049	1303.535
4.615	14.342	1457.669	1128.391
5.629	3.552	1383.202	1000.961
6.644	1.351	1373.325	979.540
7.659	1.272	1371.150	977.391
8.673	1.199	1370.173	976.138
9.688	1.129	1368.719	974.566
10.702	0.885	1366.036	971.007
11.717	4.604	1373.432	1000.137
12.731	15.276	1394.429	1084.717
13.746	23.570	1407.887	1149.039
14.761	24.959	1409.795	1159.497
15.775	25.131	1409.459	1160.228
16.790	25.332	1408.437	1160.584
17.804	25.207	1408.219	1159.493
18.819	25.483	1407.803	1160.832
19.834	25.547	1407.268	1160.705
20.848	25.578	1405.834	1159.621
21.863	25.633	1405.129	1159.290
22.877	25.600	1404.245	1158.244
23.892	25.705	1403.309	1158.042
24.907	25.642	1402.863	1157.166
25.921	25.531	1401.833	1155.502
26.936	25.672	1400.591	1155.285
27.950	25.511	1400.167	1153.796
28.965	25.584	1398.579	1152.857
29.980	25.658	1396.548	1151.554
30.994	25.598	1395.698	1150.365
32.009	25.610	1394.872	1149.661
33.023	25.524	1394.237	1148.486
34.038	25.555	1392.417	1147.083
35.053	25.575	1391.753	1146.559
36.067	25.497	1390.783	1145.162
37.082	25.521	1389.776	1144.386
38.096	25.506	1388.743	1143.338
39.111	25.611	1387.370	1142.773
40.126	25.590	1387.170	1142.373
41.140	25.508	1386.885	1141.518
42.155	25.536	1386.189	1141.019
43.169	25.517	1386.080	1140.709
44.184	25.558	1385.870	1140.695
45.199	25.440	1385.556	1139.591
46.213	25.563	1384.660	1139.534
47.228	25.654	1383.615	1139.146
48.242	25.541	1382.829	1137.683
49.257	25.638	1381.320	1136.955
50.271	25.476	1380.064	1134.797
51.286	25.514	1378.513	1133.664
52.301	25.641	1376.916	1133.049
53.315	25.444	1376.223	1131.135
54.330	25.559	1375.853	1131.458
55.344	25.592	1374.573	1130.513
56.359	25.575	1373.225	1129.194
57.374	25.556	1372.500	1128.381
58.388	25.496	1372.189	1127.651
59.403	25.563	1371.365	1127.289
60.417	25.579	1370.568	1126.637
61.432	25.471	1370.302	1125.642
62.447	25.402	1369.596	1124.528
63.461	25.501	1367.956	1123.704
64.476	25.491	1367.180	1122.902
65.490	25.583	1365.770	1122.219
66.505	25.504	1364.086	1120.246
67.520	25.522	1363.284	1119.599
68.534	25.573	1362.038	1118.794
69.549	25.575	1360.830	1117.716
70.563	25.694	1359.686	1117.417
71.578	25.500	1359.289	1115.789
72.593	25.516	1358.622	1115.237
73.607	25.601	1357.933	1115.103
74.622	25.626	1356.678	1114.128
75.636	25.583	1355.972	1113.182
76.651	25.644	1355.512	1113.083
77.666	25.599	1354.953	1112.248
78.680	25.531	1354.367	1111.249
79.695	25.513	1353.357	1110.209
80.709	25.536	1353.102	1110.048
81.724	25.586	1351.585	1109.014
82.739	25.521	1350.916	1107.962
83.753	25.609	1349.576	1107.307
84.768	25.613	1348.703	1106.518
85.782	25.536	1348.319	1105.633
86.797	25.599	1346.858	1104.725
87.812	25.503	1345.920	1103.265
88.826	25.541	1344.838	1102.517
89.841	25.568	1343.872	1101.790
90.855	25.606	1342.687	1100.957
91.870	25.546	1341.904	1099.848
92.884	25.542	1340.795	1098.817
93.899	25.669	1339.888	1098.755
94.914	25.594	1339.431	1097.824
95.928	25.603	1338.920	1097.365
96.943	25.728	1337.355	1096.744
97.957	25.624	1337.008	1095.729
98.972	25.674	1336.119	1095.207
99.987	25.659	1335.243	1094.303
101.001	25.569	1334.364	1092.937
102.016	25.599	1333.439	1092.264
103.030	25.536	1333.076	1091.488
104.045	25.648	1331.464	1090.755
105.060	25.648	1330.693	1090.021
106.074	25.792	1329.373	1089.718
107.089	25.650	1328.855	1088.339
108.103	25.647	1327.359	1086.996
109.118	25.735	1326.146	1086.440
110.133	25.710	1325.130	1085.360
111.147	25.662	1324.409	1084.382
112.162	25.639	1323.332	1083.269
113.176	25.641	1322.059	1082.142
114.191	25.660	1321.347	1081.577
115.206	25.626	1320.077	1080.238
116.220	25.654	1318.912	1079.360
117.235	25.609	1318.158	1078.374
118.249	25.702	1317.299	1078.134
119.264	25.644	1316.233	1076.820
120.279	25.647	1315.655	1076.267
121.293	25.740	1314.463	1075.755
122.308	25.739	1313.867	1075.163
123.322	25.721	1313.323	1074.517
124.337	25.700	1312.493	1073.617
125.352	25.727	1311.583	1072.941
126.366	25.842	1310.202	1072.399
127.381	25.789	1309.731	1071.605
128.395	25.790	1309.138	1071.027
129.410	25.827	1307.735	1070.007
130.424	25.796	1307.403	1069.457
131.439	25.749	1306.611	1068.435
132.454	25.748	1305.259	1067.230
133.468	25.765	1305.068	1067.081
134.483	25.776	1304.358	1066.472
135.497	25.782	1303.980	1066.104
136.512	25.749	1302.843	1064.884
137.527	25.777	1301.449	1063.816
138.541	25.841	1299.710	1062.677
139.556	25.684	1299.290	1061.314
140.570	25.811	1297.757	1060.713
141.585	25.832	1296.166	1059.442
142.600	25.679	1295.776	1058.133
143.614	25.725	1295.025	1057.696
144.629	25.732	1294.078	1056.872
145.643	25.737	1292.585	1055.588
146.658	25.679	1291.790	1054.505
147.673	25.748	1290.418	1053.693
148.687	25.649	1289.895	1052.597
149.702	25.557	1288.934	1051.180
150.716	25.676	1287.374	1050.511
151.731	25.702	1286.248	1049.649
152.746	25.659	1285.423	1048.635
153.760	25.702	1284.131	1047.733
154.775	25.703	1283.666	1047.271
155.789	25.754	1282.987	1046.922
156.804	25.720	1281.690	1045.572
157.819	25.805	1280.950	1045.368
158.833	25.789	1279.961	1044.378
159.848	25.744	1279.406	1043.572
160.862	25.624	1278.633	1042.152
161.877	25.720	1277.721	1041.873
162.892	25.749	1277.311	1041.614
163.906	25.822	1276.115	1040.969
164.921	25.765	1275.628	1040.148
165.935	25.858	1274.272	1039.489
166.950	25.877	1273.573	1038.936
167.964	25.758	1273.218	1037.870
168.979	25.857	1272.387	1037.668
169.994	25.885	1272.039	1037.454
171.008	25.866	1271.091	1036.482
172.023	25.800	1270.689	1035.678
173.037	25.814	1270.014	1035.117
174.052	25.823	1268.891	1034.166
175.067	25.854	1268.385	1033.838
176.081	25.894	1267.103	1032.932
177.096	25.760	1266.941	1031.941
178.110	25.831	1266.014	1031.502
179.125	25.909	1264.837	1030.899
180.140	25.903	1263.505	1029.683
181.154	25.853	1262.605	1028.573
182.169	25.891	1261.460	1027.769
183.183	25.756	1260.808	1026.379
184.198	25.896	1259.229	1025.799
185.213	25.947	1258.612	1025.496
186.227	25.949	1257.720	1024.686
187.242	25.924	1256.754	1023.666
188.256	25.924	1256.093	1023.042
189.271	25.865	1255.186	1021.877
190.286	25.983	1254.364	1021.785
191.300	25.886	1254.147	1020.966
192.315	25.870	1253.439	1020.212
193.329	25.915	1253.043	1020.053
194.344	25.919	1252.423	1019.481
195.359	25.986	1252.016	1019.437
196.373	25.882	1251.289	1018.166
197.388	25.801	1251.085	1017.456
198.402	25.904	1250.407	1017.395
199.417	25.936	1249.987	1017.142
200.432	25.904	1249.695	1016.635
201.446	25.886	1249.195	1016.034
202.461	25.800	1248.777	1015.119
203.475	25.871	1247.628	1014.500
204.490	25.910	1246.528	1013.730
205.504	26.009	1245.250	1013.158
206.519	26.010	1244.411	1012.391
207.534	25.998	1243.501	1011.495
208.548	26.024	1242.058	1010.378
209.563	25.990	1241.536	1009.672
210.577	26.010	1240.724	1009.034
211.592	25.986	1240.327	1008.489
212.607	26.150	1239.310	1008.490
213.621	26.111	1238.607	1007.610
214.636	25.967	1237.878	1006.128
215.650	26.049	1236.681	1005.522
216.665	26.018	1235.999	1004.704
217.680	25.959	1235.545	1003.921
218.694	26.115	1234.268	1003.661
219.709	26.015	1233.867	1002.687
220.723	26.222	1232.627	1002.743
221.738	26.123	1232.091	1001.669
222.753	26.083	1231.634	1000.987
223.767	26.019	1231.147	1000.146
224.782	26.085	1230.449	999.854
225.796	26.155	1229.855	999.674
226.811	26.132	1229.441	999.120
227.826	26.164	1228.444	998.400
228.840	26.084	1228.050	997.547
229.855	26.162	1227.271	997.258
230.869	26.185	1226.504	996.672
231.884	26.126	1226.096	995.926
232.899	26.145	1225.475	995.439
233.913	26.127	1224.680	994.609
234.928	26.167	1224.463	994.564
235.942	26.216	1223.683	994.111
236.957	26.232	1223.073	993.614
237.972	26.233	1222.278	992.888
238.986	26.269	1221.470	992.341
240.001	26.300	1220.751	991.841
241.015	26.317	1220.282	991.462
242.030	26.427	1219.198	991.101
243.045	26.353	1218.560	990.084
244.059	26.329	1217.751	989.208
245.074	26.363	1217.118	988.794
246.088	26.240	1216.484	987.517
247.103	26.354	1215.395	987.170
248.117	26.289	1214.812	986.254
249.132	26.350	1214.278	986.065
250.147	26.492	1213.448	986.081
251.161	26.394	1212.548	984.726
252.176	26.242	1212.111	983.457
253.190	26.393	1211.244	983.491
254.205	26.332	1211.232	983.062
255.220	26.308	1210.192	981.999
256.234	26.302	1209.970	981.697
257.249	26.441	1208.860	981.468
258.263	26.409	1208.127	980.611
259.278	26.368	1207.972	980.177
260.293	26.469	1207.484	980.243
261.307	26.437	1206.992	979.582
262.322	26.398	1206.556	978.928
263.336	26.499	1205.414	978.459
264.351	26.420	1204.762	977.421
265.366	26.460	1204.384	977.240
266.380	26.401	1203.555	976.167
267.395	26.416	1203.052	975.750
268.409	26.351	1202.249	974.664
269.424	26.498	1201.654	974.885
270.439	26.478	1201.392	974.479
271.453	26.528	1200.622	974.039
272.468	26.460	1200.223	973.260
273.482	26.444	1198.949	972.057
274.497	26.562	1198.194	971.993
275.512	26.591	1197.562	971.551
276.526	26.562	1196.921	970.787
277.541	26.533	1196.610	970.297
278.555	26.546	1196.264	969.996
279.570	26.564	1194.977	968.965
280.585	26.637	1194.391	968.797
281.599	26.479	1193.684	967.290
282.614	26.594	1192.581	966.925
283.628	26.581	1191.672	966.032
284.643	26.627	1190.814	965.500
285.657	26.626	1190.039	964.781
286.672	26.593	1189.278	963.899
287.687	26.653	1188.452	963.464
288.701	26.725	1187.545	963.028
289.716	26.576	1187.376	962.014
290.730	26.715	1186.602	962.037
291.745	26.761	1185.657	961.432
292.760	26.664	1185.069	960.353
293.774	26.674	1184.951	960.225
294.789	26.757	1184.274	960.033
295.803	26.784	1183.342	959.338
296.818	26.699	1183.103	958.610
297.833	26.748	1182.308	958.140
298.847	26.843	1181.326	957.761
299.862	26.730	1180.877	956.712
300.876	26.727	1180.057	955.948
301.891	26.812	1179.734	956.053
302.906	26.918	1178.623	955.625
303.920	26.968	1177.979	955.280
304.935	26.686	1177.743	953.519
305.949	26.778	1177.146	953.436
306.964	26.915	1176.165	953.280
307.979	26.926	1175.409	952.636
308.993	26.938	1175.011	952.294
310.008	26.831	1174.965	951.609
311.022	26.910	1173.587	950.825
312.037	26.984	1172.646	950.365
313.052	27.031	1171.425	949.538
314.066	26.899	1171.350	948.701
315.081	26.888	1170.380	947.779
316.095	27.024	1169.702	947.851
317.110	26.968	1169.335	947.182
318.125	26.921	1168.496	946.169
319.139	27.012	1167.809	946.007
320.154	26.950	1167.454	945.309
321.168	26.990	1166.657	944.789
322.183	26.970	1166.328	944.339
323.197	27.008	1165.521	943.797
324.212	26.954	1164.832	942.877
325.227	27.046	1164.197	942.755
326.241	27.011	1163.985	942.319
327.256	27.049	1163.261	941.847
328.270	26.966	1162.506	940.721
329.285	26.971	1161.592	939.923
330.300	27.165	1160.926	940.308
331.314	26.902	1160.264	938.327
332.329	26.986	1159.186	937.806
333.343	27.134	1158.514	937.941
334.358	27.062	1158.193	937.228
335.373	27.115	1157.135	936.561
336.387	27.205	1156.440	936.383
337.402	27.139	1155.704	935.361
338.416	27.116	1155.185	934.741
339.431	27.263	1154.121	934.556
340.446	27.248	1153.312	933.736
341.460	27.246	1153.144	933.508
342.475	27.199	1152.669	932.800
343.489	27.178	1151.751	931.868
344.504	27.196	1150.500	930.863
345.519	27.295	1149.596	930.559
346.533	27.307	1148.925	929.996
347.548	27.408	1147.920	929.614
348.562	27.401	1147.355	929.039
349.577	27.333	1146.536	927.944
350.592	27.229	1146.140	927.014
351.606	27.228	1145.663	926.540
352.621	27.344	1144.971	926.487
353.635	27.382	1144.001	925.814
354.650	27.274	1143.567	924.834
355.665	27.416	1142.530	924.633
356.679	27.482	1141.975	924.441
357.694	27.338	1141.745	923.438
358.708	27.382	1141.069	923.033
359.723	27.332	1140.581	922.302
360.738	27.406	1139.595	921.803
361.752	27.398	1139.201	921.360
362.767	27.457	1138.881	921.321
363.781	27.426	1138.200	920.527
364.796	27.549	1137.136	920.210
365.810	27.500	1136.808	919.612
366.825	27.471	1135.852	918.612
367.840	27.538	1135.887	918.899
368.854	27.601	1135.004	918.422
369.869	27.479	1134.612	917.408
370.883	27.600	1133.682	917.183
371.898	27.646	1132.840	916.650
372.913	27.588	1132.482	915.987
373.927	27.597	1132.040	915.594
374.942	27.655	1131.579	915.435
375.956	27.617	1131.070	914.749
376.971	27.597	1130.350	913.984
377.986	27.617	1129.887	913.630
379.000	27.662	1129.282	913.288
380.015	27.637	1128.677	912.589
381.029	27.638	1128.067	912.024
382.044	27.708	1127.217	911.604
383.059	27.735	1126.629	911.185
384.073	27.715	1125.849	910.369
385.088	27.690	1125.061	909.531
386.102	27.764	1124.046	908.997
387.117	27.723	1123.699	908.434
388.132	27.743	1122.582	907.548
389.146	27.805	1121.955	907.269
390.161	27.831	1121.119	906.639
391.175	27.724	1120.891	905.843
392.190	27.765	1120.170	905.387
393.205	27.758	1119.502	904.730
394.219	27.930	1118.393	904.609
395.234	27.902	1117.558	903.711
396.248	27.834	1116.655	902.569
397.263	27.814	1116.127	901.962
398.278	27.944	1115.379	901.919
399.292	27.954	1114.988	901.575
400.307	27.848	1114.398	900.493
401.321	27.866	1113.983	900.164
402.336	27.769	1113.394	899.132
403.350	27.855	1112.600	898.835
404.365	28.012	1111.729	898.823
405.380	28.026	1110.908	898.149
406.394	27.932	1110.491	897.270
407.409	28.012	1109.577	896.846
408.423	28.105	1108.381	896.255
409.438	28.038	1108.211	895.710
410.453	28.130	1107.435	895.452
411.467	28.078	1107.013	894.781
412.482	28.101	1106.339	894.266
413.496	28.030	1105.450	893.126
414.511	28.151	1104.746	893.069
415.526	28.047	1104.618	892.375
416.540	28.128	1104.131	892.297
417.555	28.062	1103.675	891.532
418.569	28.172	1103.008	891.449
419.584	28.254	1102.443	891.310
420.599	28.180	1102.087	890.584
421.613	82.630	1289.408	1340.497
422.628	77.411	1316.708	1340.631
