DTS Sentinel unit serial number:	SN413079Multiplexer serial number:	ORYXHardware model number:	OX4-SRSoftware version number:	ORYX F/W v4.00 Oryx Data Collector v3.7.2.0data status	okinstallation	princeton_trtdifferential loss correction	single-endedforward channel	channel 2reverse channel	N/Adate	2019/09/17time	03:59:35forward acquisition time	60.00reverse acquisition time	0.00gamma	496.2192k internal	0.2327k external	0.2327temperature offset calibration	0.9975default loss term (dB/km)	0.3790temperature slope calibration	1.0000multiplexer offset coefficient	1.0000multiplexer slope coefficient	1.0000fibre end	0.00T internal ref (°C)	29.89T ext. ref 1 (°C)	0.14T ext. ref 2 (°C)	24.40length (m)	temperature (°C)	Stokes	anti-Stokes-747.200	-15.827	0.297	0.191
-746.185	-36.144	0.103	-0.056
-745.171	-34.328	-0.065	-0.036
-744.156	146.482	-0.101	0.137
-743.142	123.767	0.324	0.411
-742.127	39.000	-0.285	0.257
-741.112	-200.000	-0.054	0.393
-740.098	800.000	-0.150	0.493
-739.083	-200.000	0.034	-0.211
-738.069	235.092	-0.133	0.221
-737.054	504.327	-0.063	-0.146
-736.039	-33.983	-0.286	0.159
-735.025	-113.434	0.171	-0.034
-734.010	425.535	0.214	-0.465
-732.996	104.037	0.124	0.146
-731.981	412.772	-0.122	0.262
-730.966	42.013	-0.210	0.192
-729.952	-170.765	-0.076	0.003
-728.937	-69.774	-0.316	-0.122
-727.923	-185.048	-0.171	-0.003
-726.908	800.000	0.050	-0.200
-725.894	-200.000	0.027	0.124
-724.879	272.250	0.101	-0.180
-723.864	19.836	0.206	0.167
-722.850	-137.185	-0.208	0.024
-721.835	-200.000	0.034	-0.205
-720.821	-108.958	0.351	0.075
-719.806	137.346	0.092	-0.121
-718.791	800.000	-0.090	-0.258
-717.777	287.281	0.093	0.170
-716.762	-18.501	0.161	0.101
-715.748	281.781	-0.028	-0.050
-714.733	-1.940	0.042	0.030
-713.718	14.337	-0.132	0.103
-712.704	75.871	-0.158	0.169
-711.689	-200.000	-0.368	-0.002
-710.675	-34.194	-0.157	-0.087
-709.660	800.000	0.050	-0.152
-708.645	800.000	-0.033	-0.094
-707.631	-148.891	0.444	-0.036
-706.616	800.000	0.057	-0.199
-705.602	180.594	-0.109	-0.161
-704.587	800.000	0.041	0.123
-703.572	-147.266	0.040	-0.003
-702.558	-60.539	-0.135	0.058
-701.543	-146.609	0.099	-0.009
-700.529	-102.834	-0.206	-0.049
-699.514	136.176	0.088	0.115
-698.499	93.969	0.110	0.126
-697.485	179.326	0.210	-0.309
-696.470	-200.000	0.021	-0.155
-695.456	-200.000	0.034	0.352
-694.441	-129.069	0.179	-0.025
-693.426	-80.269	-0.068	-0.023
-692.412	156.655	0.048	0.067
-691.397	-76.608	0.089	0.031
-690.383	-41.820	-0.333	0.172
-689.368	-117.192	0.377	0.069
-688.354	800.000	-0.080	-0.284
-687.339	-200.000	0.022	-0.118
-686.324	-60.425	0.184	0.079
-685.310	-200.000	0.013	0.129
-684.295	-80.727	-0.301	-0.101
-683.281	-3.597	0.261	0.183
-682.266	-88.023	-0.134	0.040
-681.251	407.746	-0.090	-0.191
-680.237	753.309	-0.106	-0.289
-679.222	254.560	0.062	-0.107
-678.208	-200.000	-0.028	0.133
-677.193	47.483	-0.189	0.177
-676.178	-65.379	-0.221	-0.090
-675.164	67.270	0.219	0.225
-674.149	-200.000	-0.015	0.382
-673.135	-200.000	-0.025	0.193
-672.120	-54.350	-0.280	0.128
-671.105	-116.118	-0.178	0.033
-670.091	318.637	0.177	0.338
-669.076	-89.581	0.087	0.026
-668.062	11.366	-0.173	-0.133
-667.047	-200.000	0.028	-0.168
-666.032	746.414	-0.035	-0.095
-665.018	-73.491	-0.160	-0.059
-664.003	-103.319	0.183	-0.043
-662.989	48.467	-0.042	0.040
-661.974	-33.573	-0.112	0.062
-660.959	255.420	-0.102	-0.176
-659.945	50.377	-0.104	-0.099
-658.930	94.434	-0.165	0.188
-657.916	-140.493	-0.116	-0.012
-656.901	128.148	-0.206	0.264
-655.886	-200.000	0.016	-0.150
-654.872	-24.892	0.171	-0.102
-653.857	-144.550	0.241	-0.022
-652.843	-200.000	-0.029	0.226
-651.828	-49.687	-0.369	-0.176
-650.814	644.101	0.006	-0.015
-649.799	800.000	-0.048	-0.152
-648.784	-65.006	0.051	-0.021
-647.770	424.200	0.174	-0.376
-646.755	-200.000	-0.021	-0.258
-645.741	53.840	0.322	0.310
-644.726	800.000	-0.020	0.077
-643.711	108.485	-0.033	0.039
-642.697	19.565	0.029	-0.023
-641.682	-200.000	0.015	-0.110
-640.668	-200.000	0.009	-0.151
-639.653	135.253	-0.077	-0.101
-638.638	-63.488	-0.276	-0.114
-637.624	-130.450	-0.153	-0.021
-636.609	-175.710	-0.130	0.004
-635.595	88.306	-0.222	0.248
-634.580	-77.583	-0.343	0.119
-633.565	71.563	-0.254	0.264
-632.551	-5.481	-0.140	0.097
-631.536	-59.566	-0.140	0.060
-630.522	-83.521	-0.041	0.013
-629.507	-9.826	-0.082	0.055
-628.492	45.099	0.260	-0.240
-627.478	-164.367	-0.161	-0.007
-626.463	602.791	0.053	0.133
-625.449	455.450	0.099	0.219
-624.434	-71.367	-0.202	-0.076
-623.419	494.836	-0.153	0.354
-622.405	392.646	0.158	0.329
-621.390	-59.824	0.041	-0.018
-620.376	800.000	0.053	0.149
-619.361	-200.000	-0.029	-0.150
-618.346	-94.663	-0.093	-0.025
-617.332	-144.261	-0.139	-0.013
-616.317	61.949	-0.132	-0.132
-615.303	-102.745	-0.291	0.070
-614.288	-49.794	-0.114	-0.054
-613.273	-200.000	-0.001	0.099
-612.259	-200.000	0.024	0.414
-611.244	181.292	0.117	-0.172
-610.230	49.494	-0.177	0.167
-609.215	-200.000	0.047	-0.212
-608.201	-47.727	-0.553	-0.269
-607.186	135.594	0.110	-0.144
-606.171	-108.422	-0.413	-0.089
-605.157	207.289	-0.068	-0.106
-604.142	800.000	0.082	0.262
-603.128	206.576	-0.021	0.033
-602.113	-104.007	-0.263	0.062
-601.098	-130.672	0.129	-0.017
-600.084	800.000	-0.015	0.060
-599.069	-107.797	-0.451	-0.098
-598.055	-89.884	-0.226	0.066
-597.040	-77.450	0.052	0.018
-596.025	-200.000	-0.028	-0.126
-595.011	-7.675	-0.157	0.106
-593.996	327.273	-0.138	-0.265
-592.982	508.449	0.062	0.144
-591.967	800.000	-0.074	-0.270
-590.952	-180.904	0.375	0.008
-589.938	-109.441	0.335	0.071
-588.923	-200.000	-0.020	0.124
-587.909	-118.193	0.323	0.058
-586.894	800.000	-0.024	-0.079
-585.879	314.518	0.088	-0.167
-584.865	314.259	-0.119	-0.225
-583.850	10.032	-0.122	0.093
-582.836	-36.727	-0.377	-0.203
-581.821	-200.000	0.020	-0.176
-580.806	455.786	0.053	-0.117
-579.792	-153.012	0.223	-0.016
-578.777	-146.540	-0.429	0.037
-577.763	-112.853	0.257	0.051
-576.748	-81.165	-0.076	0.025
-575.733	-83.562	-0.161	0.052
-574.719	-12.517	0.180	-0.118
-573.704	-33.457	-0.232	-0.129
-572.690	66.198	-0.201	-0.204
-571.675	-154.004	-0.294	-0.020
-570.661	364.880	-0.039	0.078
-569.646	65.578	-0.215	0.218
-568.631	368.003	0.080	-0.161
-567.617	-67.709	0.102	0.040
-566.602	-80.784	-0.034	0.011
-565.588	254.511	0.117	0.200
-564.573	-107.760	0.088	-0.019
-563.558	800.000	0.121	0.354
-562.544	-200.000	-0.040	-0.228
-561.529	488.997	0.119	-0.272
-560.515	-101.698	-0.109	0.027
-559.500	800.000	-0.084	-0.266
-558.485	-113.740	-0.194	0.038
-557.471	66.500	0.185	0.189
-556.456	-14.614	0.210	-0.135
-555.442	314.082	0.153	-0.289
-554.427	-88.292	0.090	-0.027
-553.412	-158.835	0.376	0.021
-552.398	2.633	-0.281	-0.204
-551.383	-200.000	-0.024	0.138
-550.369	-66.072	-0.271	-0.108
-549.354	80.476	0.147	0.158
-548.339	-61.631	-0.063	0.026
-547.325	93.878	-0.161	-0.183
-546.310	-55.117	0.097	0.043
-545.296	-23.903	0.224	0.134
-544.281	-137.191	-0.257	-0.029
-543.266	-200.000	-0.025	0.206
-542.252	-68.350	-0.437	0.170
-541.237	-53.932	0.383	0.174
-540.223	332.127	0.046	-0.088
-539.208	-99.928	-0.305	-0.076
-538.193	-200.000	-0.022	0.233
-537.179	-200.000	-0.006	-0.029
-536.164	51.147	0.209	-0.199
-535.150	-157.246	-0.278	0.017
-534.135	1.356	0.196	0.141
-533.121	-55.792	0.365	0.163
-532.106	-13.949	0.083	-0.053
-531.091	124.291	0.059	0.075
-530.077	-43.074	0.249	0.126
-529.062	76.631	-0.129	0.136
-528.048	-200.000	0.020	0.132
-527.033	206.482	-0.325	-0.507
-526.018	-102.499	0.132	0.031
-525.004	103.107	-0.092	-0.108
-523.989	-67.495	-0.330	-0.129
-522.975	800.000	-0.068	0.193
-521.960	-83.511	0.142	-0.046
-520.945	-42.889	0.202	0.103
-519.931	569.628	-0.035	-0.086
-518.916	155.402	0.059	-0.082
-517.902	13.511	-0.114	-0.088
-516.887	-109.904	0.022	0.005
-515.872	800.000	0.017	0.053
-514.858	-50.388	0.236	-0.111
-513.843	-200.000	-0.006	-0.104
-512.829	186.978	0.135	0.201
-511.814	-4.614	-0.150	0.104
-510.799	800.000	-0.074	-0.281
-509.785	19.413	-0.035	-0.028
-508.770	85.752	0.117	-0.128
-507.756	-148.429	0.155	-0.013
-506.741	20.473	-0.319	-0.257
-505.726	-81.390	-0.076	-0.025
-504.712	46.158	0.282	0.261
-503.697	80.331	-0.253	0.272
-502.683	66.990	-0.029	0.029
-501.668	94.894	0.089	-0.101
-500.653	-17.479	0.081	-0.051
-499.639	101.878	0.270	-0.314
-498.624	800.000	0.018	0.051
-497.610	-43.370	-0.157	0.079
-496.595	-188.010	0.325	-0.004
-495.581	146.944	-0.050	0.067
-494.566	102.136	-0.138	-0.161
-493.551	-29.915	0.379	0.216
-492.537	385.906	0.103	-0.211
-491.522	-69.064	0.165	-0.064
-490.508	-200.000	0.022	-0.206
-489.493	251.730	0.117	0.200
-488.478	260.423	0.168	0.289
-487.464	-71.412	-0.328	-0.123
-486.449	34.420	-0.113	-0.099
-485.435	278.641	0.113	-0.201
-484.420	102.513	-0.096	-0.112
-483.405	22.291	0.285	-0.232
-482.391	55.653	0.152	0.147
-481.376	-200.000	0.023	-0.218
-480.362	-154.372	-0.222	-0.015
-479.347	-175.224	0.118	-0.003
-478.332	-45.860	-0.222	0.109
-477.318	-0.798	0.196	0.139
-476.303	51.212	-0.179	-0.169
-475.289	50.894	0.223	0.210
-474.274	-200.000	-0.044	-0.251
-473.259	55.067	-0.375	-0.361
-472.245	-200.000	0.009	-0.187
-471.230	70.088	-0.270	0.278
-470.216	5.066	-0.129	-0.095
-469.201	368.556	0.216	0.436
-468.186	-70.979	0.254	0.095
-467.172	-116.973	-0.273	0.050
-466.157	-56.812	-0.216	-0.095
-465.143	384.656	0.107	0.220
-464.128	74.017	-0.378	0.395
-463.113	-18.827	0.452	0.281
-462.099	-200.000	-0.005	0.061
-461.084	-95.343	0.230	0.062
-460.070	-200.000	0.020	-0.159
-459.055	-16.478	-0.255	-0.161
-458.040	229.482	-0.214	-0.349
-457.026	-111.006	0.101	-0.021
-456.011	-200.000	-0.058	0.337
-454.997	-113.365	0.299	0.059
-453.982	109.127	-0.214	-0.255
-452.968	-109.224	0.251	0.053
-451.953	-124.081	-0.143	-0.022
-450.938	297.948	-0.100	-0.183
-449.924	-146.411	-0.082	-0.007
-448.909	88.798	0.063	0.070
-447.895	-200.000	-0.026	-0.160
-446.880	-200.000	-0.017	-0.159
-445.865	800.000	0.075	-0.238
-444.851	38.585	0.176	-0.157
-443.836	-56.418	0.164	-0.072
-442.822	189.495	-0.129	0.192
-441.807	272.011	-0.061	-0.108
-440.792	-200.000	0.001	-0.459
-439.778	68.416	0.181	0.185
-438.763	-100.005	-0.213	0.053
-437.749	-200.000	-0.033	0.302
-436.734	252.051	0.027	-0.045
-435.719	-200.000	0.042	-0.221
-434.705	46.564	0.218	0.202
-433.690	-50.837	0.427	0.200
-432.676	129.257	-0.060	-0.077
-431.661	-153.450	-0.552	-0.038
-430.646	593.175	0.070	-0.172
-429.632	460.104	0.063	-0.140
-428.617	-111.244	0.079	0.016
-427.603	-40.732	-0.275	-0.142
-426.588	-13.916	0.080	0.052
-425.573	-6.351	0.138	-0.094
-424.559	312.006	0.149	-0.279
-423.544	-200.000	0.064	0.297
-422.530	2.754	-0.125	-0.090
-421.515	-13.239	-0.072	0.047
-420.500	63.082	0.102	0.102
-419.486	511.945	-0.027	0.063
-418.471	74.192	-0.177	0.185
-417.457	119.238	-0.187	0.231
-416.442	800.000	-0.060	0.166
-415.428	261.958	-0.113	-0.194
-414.413	392.074	-0.072	0.148
-413.398	28.815	-0.047	0.040
-412.384	-85.172	0.060	0.019
-411.369	74.575	-0.222	-0.232
-410.355	119.211	0.035	-0.043
-409.340	34.902	-0.148	0.129
-408.325	-146.458	0.235	-0.020
-407.311	-141.029	0.053	-0.005
-406.296	18.384	-0.151	0.120
-405.282	216.417	-0.015	0.024
-404.267	18.262	-0.256	-0.203
-403.252	138.641	-0.119	-0.155
-402.238	178.153	-0.069	0.100
-401.223	366.323	-0.084	-0.168
-400.209	58.603	-0.063	0.061
-399.194	-120.953	-0.215	-0.036
-398.179	138.928	-0.159	0.208
-397.165	-200.000	0.004	-0.061
-396.150	-20.065	0.081	-0.050
-395.136	-19.342	0.081	-0.050
-394.121	-200.000	0.028	0.244
-393.106	-83.993	-0.218	-0.069
-392.092	-67.323	-0.059	-0.023
-391.077	31.769	-0.206	0.176
-390.063	15.124	0.330	0.257
-389.048	-50.304	-0.101	0.048
-388.033	-63.638	-0.106	-0.043
-387.019	-57.239	0.414	0.181
-386.004	800.000	0.052	0.200
-384.990	104.372	-0.131	-0.153
-383.975	-75.667	0.134	-0.047
-382.960	-200.000	-0.010	0.065
-381.946	-156.443	0.301	-0.019
-380.931	-123.309	0.180	0.029
-379.917	63.598	0.086	-0.086
-378.902	128.978	-0.157	-0.199
-377.888	-200.000	0.021	0.152
-376.873	800.000	0.051	-0.180
-375.858	-96.964	0.068	-0.018
-374.844	38.940	0.043	-0.038
-373.829	380.555	0.165	-0.336
-372.815	800.000	0.024	0.080
-371.800	-102.984	0.280	-0.066
-370.785	44.094	0.330	-0.300
-369.771	499.129	-0.038	0.087
-368.756	300.675	-0.151	0.278
-367.742	-54.503	-0.212	0.095
-366.727	-200.000	0.004	0.211
-365.712	-153.889	0.465	-0.032
-364.698	55.021	-0.427	-0.409
-363.683	-38.008	-0.107	-0.056
-362.669	269.978	0.138	-0.240
-361.654	297.280	-0.128	0.233
-360.639	-34.225	0.068	0.037
-359.625	-200.000	0.046	-0.214
-358.610	264.478	-0.088	-0.152
-357.596	-90.345	0.330	-0.095
-356.581	-200.000	0.008	-0.296
-355.566	-40.441	0.166	-0.086
-354.552	480.514	0.083	-0.188
-353.537	800.000	-0.019	-0.076
-352.523	800.000	0.073	-0.267
-351.508	-1.362	-0.093	-0.065
-350.493	800.000	0.115	0.375
-349.479	-78.369	0.113	0.038
-348.464	-44.347	0.006	0.003
-347.450	-200.000	-0.036	0.288
-346.435	-176.592	0.095	-0.002
-345.420	-200.000	0.007	0.370
-344.406	95.167	-0.084	0.095
-343.391	22.375	-0.179	-0.145
-342.377	53.180	0.134	-0.127
-341.362	-82.162	0.273	0.088
-340.348	-100.314	-0.074	0.018
-339.333	-200.000	-0.007	0.402
-338.318	800.000	-0.065	-0.276
-337.304	-4.437	0.190	-0.130
-336.289	88.225	0.182	-0.201
-335.275	41.833	0.111	0.100
-334.260	161.955	-0.014	-0.020
-333.245	-131.470	-0.232	-0.030
-332.231	-200.000	0.006	0.350
-331.216	-109.707	0.261	-0.054
-330.202	583.935	-0.076	0.185
-329.187	622.646	0.104	-0.259
-328.172	800.000	-0.082	0.244
-327.158	-200.000	-0.015	0.086
-326.143	-124.740	0.523	0.080
-325.129	-200.000	0.010	0.179
-324.114	393.500	-0.123	-0.254
-323.099	312.334	-0.142	0.264
-322.085	-104.825	0.263	-0.060
-321.070	11.557	-0.235	0.178
-320.056	-200.000	0.017	-0.202
-319.041	800.000	0.032	0.090
-318.026	38.781	0.244	0.216
-317.012	36.159	0.186	0.163
-315.997	46.477	0.296	0.272
-314.983	349.739	-0.130	-0.254
-313.968	291.615	0.043	0.078
-312.953	-63.586	-0.471	0.192
-311.939	74.358	0.117	0.122
-310.924	14.280	0.073	-0.057
-309.910	-130.098	-0.170	-0.023
-308.895	302.620	0.099	0.181
-307.880	-200.000	0.060	-0.343
-306.866	27.013	0.190	-0.158
-305.851	7.303	0.110	-0.082
-304.837	-200.000	0.031	0.242
-303.822	141.336	0.335	0.439
-302.807	-135.446	0.152	-0.018
-301.793	-106.970	0.044	-0.010
-300.778	29.295	-0.301	-0.253
-299.764	33.774	0.223	0.192
-298.749	407.184	-0.079	0.166
-297.735	194.142	-0.085	-0.128
-296.720	233.599	-0.134	-0.218
-295.705	-67.120	0.306	0.119
-294.691	-138.307	0.119	0.013
-293.676	-85.593	0.195	-0.060
-292.662	298.499	0.121	0.220
-291.647	800.000	-0.086	0.274
-290.632	-86.119	-0.246	-0.075
-289.618	-10.973	-0.041	0.027
-288.603	-48.282	-0.205	0.098
-287.589	-99.244	0.251	-0.063
-286.574	208.855	0.226	0.351
-285.559	89.362	0.129	-0.143
-284.545	132.666	-0.169	0.216
-283.530	-200.000	-0.032	-0.178
-282.516	800.000	-0.034	-0.128
-281.501	214.103	0.095	0.150
-280.486	70.494	-0.210	-0.215
-279.472	59.581	-0.319	0.312
-278.457	62.149	-0.154	0.152
-277.443	274.059	-0.035	0.061
-276.428	-132.919	-0.183	0.023
-275.413	270.794	0.132	-0.230
-274.399	240.676	-0.034	0.055
-273.384	29.482	-0.150	0.127
-272.370	800.000	0.096	0.303
-271.355	-72.410	-0.073	-0.027
-270.340	-66.967	-0.178	0.070
-269.326	-106.948	-0.083	0.018
-268.311	101.079	0.069	-0.080
-267.297	-200.000	0.065	0.319
-266.282	-128.412	-0.078	-0.011
-265.267	557.877	0.097	0.231
-264.253	20.841	-0.065	0.052
-263.238	-200.000	0.061	-0.329
-262.224	-81.825	-0.104	0.034
-261.209	800.000	-0.048	-0.190
-260.195	-200.000	-0.027	0.233
-259.180	-97.820	-0.299	0.076
-258.165	-18.536	0.203	0.126
-257.151	-200.000	-0.010	0.227
-256.136	-93.071	-0.409	-0.113
-255.122	28.490	0.314	0.263
-254.107	29.372	-0.162	-0.136
-253.092	-200.000	0.009	0.337
-252.078	553.441	-0.040	0.094
-251.063	-168.244	-0.433	0.017
-250.049	-87.266	0.075	-0.023
-249.034	-114.110	0.178	0.034
-248.019	-154.839	-0.186	0.012
-247.005	-169.059	0.432	-0.016
-245.990	-35.748	0.390	-0.209
-244.976	-39.266	-0.097	0.050
-243.961	-96.868	0.122	0.032
-242.946	-112.546	-0.063	-0.012
-241.932	-123.389	-0.195	-0.031
-240.917	-110.940	-0.350	-0.071
-239.903	800.000	0.039	-0.157
-238.888	73.609	-0.139	0.144
-237.873	-130.667	0.482	0.064
-236.859	-35.727	-0.274	0.147
-235.844	800.000	0.020	0.061
-234.830	-40.286	0.062	-0.032
-233.815	-7.575	-0.121	0.081
-232.800	51.482	0.463	0.434
-231.786	58.488	-0.167	0.162
-230.771	-157.014	0.173	-0.010
-229.757	-200.000	0.011	0.061
-228.742	-136.769	-0.049	-0.006
-227.727	9.340	0.066	0.050
-226.713	54.094	0.202	-0.192
-225.698	-126.763	-0.299	-0.044
-224.684	-110.244	0.095	-0.019
-223.669	-66.970	0.214	0.083
-222.655	800.000	-0.034	0.141
-221.640	-169.165	0.044	-0.002
-220.625	-145.129	0.194	-0.017
-219.611	98.108	-0.181	-0.206
-218.596	-200.000	-0.006	0.038
-217.582	38.392	0.253	-0.222
-216.567	255.853	0.134	0.226
-215.552	538.333	-0.090	-0.212
-214.538	137.260	-0.209	-0.271
-213.523	-112.430	-0.071	0.014
-212.509	38.709	-0.040	-0.035
-211.494	394.044	-0.105	0.216
-210.479	163.354	0.072	-0.100
-209.465	-60.625	-0.253	-0.106
-208.450	70.698	-0.155	-0.159
-207.436	-40.016	0.478	0.246
-206.421	150.285	0.162	0.217
-205.406	-144.870	0.113	0.010
-204.392	-200.000	0.029	0.146
-203.377	-92.162	-0.249	0.069
-202.363	-200.000	0.008	0.047
-201.348	-57.029	0.140	0.061
-200.333	800.000	-0.076	-0.222
-199.319	-133.415	-0.158	0.020
-198.304	125.012	0.191	-0.238
-197.290	99.853	0.106	0.121
-196.275	433.066	0.050	-0.107
-195.260	462.143	0.061	0.134
-194.246	221.651	0.192	-0.305
-193.231	800.000	0.045	-0.188
-192.217	-12.424	-0.148	-0.095
-191.202	-68.254	-0.282	0.108
-190.187	15.844	-0.087	-0.068
-189.173	800.000	0.103	-0.326
-188.158	51.291	0.262	0.245
-187.144	148.221	-0.065	0.086
-186.129	-200.000	0.016	-0.167
-185.114	-64.619	0.220	0.088
-184.100	136.442	0.113	0.145
-183.085	172.463	0.052	-0.074
-182.071	96.704	-0.172	0.194
-181.056	196.462	0.235	-0.352
-180.042	-200.000	0.002	-0.035
-179.027	270.182	-0.109	-0.188
-178.012	300.044	0.036	-0.065
-176.998	-200.000	0.031	-0.392
-175.983	251.485	-0.016	0.026
-174.969	800.000	0.098	-0.390
-173.954	-65.805	0.181	0.071
-172.939	47.804	0.063	0.058
-171.925	45.210	-0.182	0.165
-170.910	-58.423	-0.153	-0.065
-169.896	-123.195	0.085	-0.013
-168.881	800.000	0.018	-0.069
-167.866	128.383	-0.149	0.187
-166.852	-47.146	0.071	-0.034
-165.837	800.000	-0.053	0.176
-164.823	67.847	-0.110	-0.111
-163.808	-200.000	-0.006	0.107
-162.793	178.242	0.062	-0.089
-161.779	800.000	0.084	-0.248
-160.764	125.919	0.080	-0.099
-159.750	-171.115	0.041	-0.001
-158.735	-200.000	-0.014	-0.241
-157.720	-200.000	-0.014	0.284
-156.706	-200.000	-0.002	0.097
-155.691	-200.000	-0.015	0.069
-154.677	-87.053	0.322	-0.097
-153.662	207.553	0.111	-0.170
-152.647	800.000	-0.099	-0.337
-151.633	-42.375	-0.060	-0.030
-150.618	-200.000	0.019	0.183
-149.604	-200.000	-0.023	-0.100
-148.589	-76.449	-0.545	-0.189
-147.574	-48.736	-0.211	0.100
-146.560	563.094	0.098	-0.233
-145.545	-7.206	0.172	-0.115
-144.531	309.871	-0.038	0.071
-143.516	54.052	-0.164	0.156
-142.502	-79.357	0.246	0.082
-141.487	-174.670	0.274	0.008
-140.472	-130.625	-0.052	-0.007
-139.458	-91.585	0.442	0.124
-138.443	78.873	-0.091	-0.095
-137.429	-200.000	-0.035	0.332
-136.414	-84.368	-0.168	-0.052
-135.399	800.000	-0.062	0.226
-134.385	800.000	-0.055	0.186
-133.370	159.952	-0.175	-0.241
-132.356	800.000	-0.042	0.151
-131.341	-122.527	0.130	0.021
-130.326	-192.113	0.191	0.002
-129.312	-61.423	0.035	0.014
-128.297	-46.428	0.337	0.163
-127.283	-200.000	0.056	0.284
-126.268	-76.670	-0.099	0.034
-125.253	96.487	-0.181	-0.203
-124.239	-200.000	0.022	0.213
-123.224	-90.277	-0.150	0.043
-122.210	335.286	-0.026	-0.049
-121.195	633.032	-0.143	0.357
-120.180	322.252	0.148	0.277
-119.166	-174.344	0.174	-0.005
-118.151	396.915	0.044	-0.091
-117.137	7.172	0.185	-0.136
-116.122	800.000	0.039	-0.114
-115.107	-173.225	0.403	0.012
-114.093	179.959	0.149	0.215
-113.078	-200.000	-0.051	-0.275
-112.064	-200.000	-0.258	0.001
-111.049	800.000	0.124	0.432
-110.034	281.135	-0.061	-0.108
-109.020	-109.197	0.324	-0.068
-108.005	800.000	0.056	-0.155
-106.991	-66.346	0.230	0.090
-105.976	89.291	0.397	0.435
-104.962	-200.000	0.013	-0.312
-103.947	-200.000	-0.024	-0.124
-102.932	-200.000	-0.010	0.194
-101.918	-200.000	0.001	0.207
-100.903	24.655	-0.006	-0.005
-99.889	800.000	0.012	-0.037
-98.874	-24.616	0.213	-0.125
-97.859	-54.552	-0.342	-0.152
-96.845	32.101	0.239	0.202
-95.830	132.194	-0.074	0.094
-94.816	-200.000	-0.021	0.162
-93.801	-200.000	-0.018	-0.315
-92.786	7.493	-0.057	0.042
-91.772	-134.393	-0.160	0.019
-90.757	-200.000	0.064	-0.343
-89.743	189.936	-0.110	-0.162
-88.728	-120.857	-0.136	0.023
-87.713	-134.187	-0.656	0.080
-86.699	-200.000	0.013	0.268
-85.684	-200.000	-0.024	-0.198
-84.670	-200.000	-0.023	0.115
-83.655	-5.846	-0.062	0.042
-82.640	20.765	-0.112	-0.089
-81.626	-11.105	-0.171	0.111
-80.611	459.110	0.052	-0.113
-79.597	3.645	-0.130	0.093
-78.582	-161.915	0.171	-0.008
-77.567	334.235	0.147	-0.279
-76.553	-200.000	0.023	0.185
-75.538	-22.301	0.092	0.055
-74.524	-33.904	0.154	-0.083
-73.509	-126.162	-0.396	-0.058
-72.494	-200.000	0.035	-0.192
-71.480	-40.749	-0.189	0.096
-70.465	-200.000	-0.022	-0.136
-69.451	-144.555	0.268	-0.024
-68.436	-73.406	0.301	-0.108
-67.422	-96.362	-0.201	-0.052
-66.407	800.000	-0.056	-0.182
-65.392	-140.168	0.132	-0.014
-64.378	-99.925	0.107	-0.026
-63.363	43.690	-0.197	0.177
-62.349	-92.092	-0.083	-0.023
-61.334	63.952	-1.001	-0.988
-60.319	86.019	0.582	0.629
-59.305	393.008	-0.403	-0.824
-58.290	800.000	0.424	1.283
-57.276	-200.000	0.181	1.760
-56.261	-200.000	106.979	585.490
-55.246	456.868	1465.534	3194.006
-54.232	147.868	2657.568	3516.783
-53.217	100.627	2291.352	2612.409
-52.203	38.954	1904.652	1670.390
-51.188	33.154	1693.291	1440.926
-50.173	30.490	1649.799	1384.047
-49.159	48.832	1701.691	1566.802
-48.144	49.445	1717.387	1585.828
-47.130	32.711	1675.853	1422.515
-46.115	30.031	1661.151	1389.902
-45.100	29.809	1656.520	1384.316
-44.086	29.798	1654.055	1382.116
-43.071	29.689	1651.934	1379.474
-42.057	29.730	1649.156	1377.409
-41.042	29.856	1646.604	1376.158
-40.027	29.809	1645.141	1374.529
-39.013	29.739	1643.027	1372.193
-37.998	29.796	1641.387	1371.188
-36.984	29.875	1640.269	1370.788
-35.969	29.883	1638.522	1369.329
-34.954	29.976	1636.940	1368.642
-33.940	29.889	1635.765	1366.965
-32.925	29.914	1633.877	1365.516
-31.911	29.871	1631.878	1363.477
-30.896	29.870	1630.350	1362.139
-29.881	29.881	1628.156	1360.332
-28.867	29.751	1626.785	1358.176
-27.852	29.837	1625.281	1357.500
-26.838	29.882	1623.769	1356.510
-25.823	29.977	1622.327	1355.946
-24.809	30.021	1621.144	1355.224
-23.794	29.901	1619.816	1353.186
-22.779	29.901	1618.333	1351.893
-21.765	29.866	1616.878	1350.367
-20.750	29.871	1615.320	1349.050
-19.736	29.919	1614.046	1348.284
-18.721	29.946	1612.325	1346.991
-17.706	29.930	1610.673	1345.439
-16.692	29.960	1609.292	1344.447
-15.677	29.886	1607.729	1342.551
-14.663	29.901	1606.809	1341.841
-13.648	29.947	1605.250	1340.818
-12.633	29.886	1603.687	1339.019
-11.619	29.899	1602.095	1337.732
-10.604	29.898	1600.818	1336.600
-9.590	29.999	1599.184	1335.916
-8.575	29.930	1598.586	1334.867
-7.560	29.972	1596.906	1333.707
-6.546	29.911	1596.367	1332.768
-5.531	29.840	1595.056	1331.114
-4.517	29.927	1593.595	1330.463
-3.502	29.867	1592.334	1328.929
-2.487	29.966	1590.886	1328.375
-1.473	29.642	1579.267	1316.313
-0.458	26.699	1560.338	1279.733
0.556	21.484	1560.682	1248.038
1.571	19.116	1584.640	1249.909
2.586	18.796	1597.855	1257.880
3.600	17.224	1545.404	1205.337
4.615	9.694	1435.870	1070.002
5.629	1.797	1370.686	971.151
6.644	0.206	1362.215	954.977
7.659	0.049	1361.051	953.081
8.673	0.174	1359.767	952.893
9.688	0.131	1357.707	951.094
10.702	-0.093	1354.826	947.578
11.717	3.683	1360.843	975.586
12.731	12.171	1374.291	1039.098
13.746	17.290	1381.285	1076.798
14.761	17.297	1379.492	1075.348
15.775	16.238	1377.042	1066.656
16.790	15.198	1374.512	1058.041
17.804	14.437	1372.353	1051.483
18.819	14.139	1370.825	1048.340
19.834	13.864	1369.672	1045.634
20.848	13.564	1368.068	1042.429
21.863	13.387	1366.988	1040.404
22.877	13.118	1366.115	1037.955
23.892	13.145	1364.670	1036.934
24.907	13.152	1364.055	1036.419
25.921	13.192	1363.328	1036.028
26.936	13.210	1362.360	1035.315
27.950	13.171	1361.509	1034.328
28.965	13.206	1360.292	1033.531
29.980	13.356	1359.277	1033.610
30.994	13.378	1358.094	1032.757
32.009	13.403	1357.489	1032.362
33.023	13.448	1356.799	1032.021
34.038	13.416	1354.925	1030.310
35.053	13.417	1353.947	1029.480
36.067	13.377	1352.963	1028.392
37.082	13.277	1352.375	1027.234
38.096	13.336	1351.225	1026.634
39.111	13.343	1350.571	1026.090
40.126	13.210	1349.870	1024.640
41.140	13.196	1348.831	1023.674
42.155	13.219	1348.248	1023.284
43.169	13.095	1348.339	1022.493
44.184	13.189	1348.156	1022.846
45.199	13.194	1347.237	1022.091
46.213	13.105	1347.295	1021.494
47.228	13.288	1345.831	1021.427
48.242	13.294	1345.235	1020.916
49.257	13.224	1343.450	1019.045
50.271	13.206	1342.109	1017.824
51.286	13.248	1341.140	1017.254
52.301	13.302	1339.371	1016.155
53.315	13.265	1338.478	1015.164
54.330	13.272	1337.352	1014.264
55.344	13.164	1336.267	1012.690
56.359	13.216	1335.203	1012.109
57.374	13.142	1334.410	1010.964
58.388	13.138	1333.765	1010.366
59.403	13.175	1333.073	1009.977
60.417	13.056	1332.422	1008.668
61.432	13.140	1331.513	1008.402
62.447	13.115	1329.946	1006.977
63.461	13.110	1329.036	1006.164
64.476	13.058	1327.885	1004.887
65.490	13.062	1326.690	1003.919
66.505	13.107	1325.431	1003.149
67.520	13.138	1324.212	1002.327
68.534	13.163	1322.760	1001.291
69.549	13.152	1322.087	1000.628
70.563	12.997	1321.343	999.038
71.578	13.060	1319.715	998.096
72.593	13.007	1319.171	997.277
73.607	12.990	1317.998	996.203
74.622	13.035	1317.269	995.831
75.636	13.046	1316.567	995.284
76.651	12.950	1315.890	994.101
77.666	12.953	1315.491	993.734
78.680	13.058	1314.891	993.820
79.695	13.111	1313.826	993.248
80.709	13.164	1312.781	992.688
81.724	13.118	1312.448	992.071
82.739	13.175	1311.274	991.437
83.753	13.235	1310.378	991.037
84.768	13.227	1309.047	989.895
85.782	13.304	1308.077	989.531
86.797	13.283	1307.261	988.699
87.812	13.247	1305.994	987.440
88.826	13.184	1304.858	986.121
89.841	13.299	1303.547	985.727
90.855	13.308	1302.602	984.976
91.870	13.297	1301.967	984.342
92.884	13.381	1301.217	984.190
93.899	13.435	1299.876	983.411
94.914	13.376	1299.948	983.024
95.928	13.348	1298.494	981.675
96.943	13.326	1297.666	980.831
97.957	13.392	1296.711	980.410
98.972	13.406	1295.687	979.635
99.987	13.418	1294.494	978.717
101.001	13.361	1293.817	977.781
102.016	13.419	1292.422	976.984
103.030	13.306	1292.328	976.157
104.045	13.298	1291.494	975.396
105.060	13.369	1289.564	974.268
106.074	13.184	1288.534	972.319
107.089	13.239	1287.072	971.453
108.103	13.202	1285.671	970.090
109.118	13.207	1284.972	969.504
110.133	13.095	1283.842	967.911
111.147	13.100	1282.604	966.924
112.162	13.204	1281.214	966.395
113.176	13.297	1279.509	965.566
114.191	13.306	1279.200	965.303
115.206	13.253	1278.545	964.415
116.220	13.212	1276.816	962.785
117.235	13.264	1275.669	962.138
118.249	13.256	1274.832	961.372
119.264	13.223	1273.493	960.087
120.279	13.214	1272.813	959.437
121.293	13.102	1271.918	958.031
122.308	13.156	1270.583	957.251
123.322	13.109	1269.819	956.320
124.337	13.134	1268.573	955.440
125.352	13.160	1267.547	954.735
126.366	13.215	1266.306	954.033
127.381	13.133	1265.616	952.955
128.395	13.198	1264.127	952.124
129.410	13.168	1262.982	951.007
130.424	13.193	1262.646	950.814
131.439	13.344	1261.055	950.396
132.454	13.321	1260.807	949.994
133.468	13.228	1259.774	948.595
134.483	13.240	1258.711	947.780
135.497	13.325	1257.659	947.394
136.512	13.281	1256.494	946.183
137.527	13.205	1255.410	944.845
138.541	13.272	1253.685	943.848
139.556	13.310	1252.170	942.837
140.570	13.310	1251.758	942.443
141.585	13.336	1250.556	941.603
142.600	13.402	1249.190	940.869
143.614	13.410	1248.342	940.189
144.629	13.427	1247.442	939.529
145.643	13.413	1246.282	938.490
146.658	13.431	1244.745	937.354
147.673	13.342	1243.629	935.925
148.687	13.296	1242.779	934.946
149.702	13.302	1240.836	933.432
150.716	13.321	1239.998	932.825
151.731	13.320	1239.000	931.989
152.746	13.360	1237.253	930.815
153.760	13.321	1236.258	929.764
154.775	13.499	1234.987	929.729
155.789	13.458	1233.950	928.634
156.804	13.482	1233.251	928.160
157.819	13.447	1232.371	927.220
158.833	13.477	1231.667	926.779
159.848	13.496	1230.470	925.901
160.862	13.547	1229.734	925.552
161.877	13.505	1228.358	924.200
162.892	13.505	1227.206	923.247
163.906	13.418	1226.570	922.203
164.921	13.550	1225.508	922.060
165.935	13.467	1224.789	920.972
166.950	13.501	1224.011	920.495
167.964	13.643	1222.915	920.379
168.979	13.601	1222.697	919.903
169.994	13.572	1221.634	918.857
171.008	13.579	1220.835	918.218
172.023	13.613	1219.757	917.511
173.037	13.583	1219.100	916.769
174.052	13.678	1218.219	916.553
175.067	13.633	1217.288	915.523
176.081	13.590	1216.702	914.761
177.096	13.565	1215.483	913.628
178.110	13.621	1214.454	913.081
179.125	13.550	1213.308	911.749
180.140	13.598	1212.121	911.040
181.154	13.711	1210.717	910.528
182.169	13.818	1209.326	909.987
183.183	13.768	1208.559	909.053
184.198	13.765	1207.242	907.965
185.213	13.856	1205.981	907.433
186.227	13.862	1205.096	906.723
187.242	13.926	1204.074	906.222
188.256	13.968	1202.930	905.510
189.271	13.950	1202.018	904.645
190.286	13.856	1201.147	903.397
191.300	13.693	1200.489	901.938
192.315	13.585	1199.898	900.826
193.329	13.666	1199.248	900.697
194.344	13.653	1198.892	900.277
195.359	13.664	1198.448	899.927
196.373	13.800	1197.625	899.965
197.388	13.888	1197.062	899.940
198.402	13.963	1196.288	899.686
199.417	14.044	1195.421	899.394
200.432	14.088	1194.879	899.142
201.446	14.071	1194.229	898.480
202.461	14.163	1193.120	898.068
203.475	14.153	1192.107	897.170
204.490	14.040	1190.709	895.427
205.504	14.089	1189.499	894.703
206.519	14.072	1188.635	893.883
207.534	13.974	1187.896	892.721
208.548	14.063	1186.453	892.036
209.563	14.144	1185.507	891.679
210.577	14.075	1184.851	890.737
211.592	14.173	1183.968	890.519
212.607	14.273	1183.028	890.266
213.621	14.124	1182.789	889.212
214.636	14.200	1181.556	888.613
215.650	14.044	1180.903	887.213
216.665	14.225	1179.451	887.009
217.680	14.197	1178.820	886.305
218.694	14.282	1178.044	886.094
219.709	14.310	1176.984	885.370
220.723	14.247	1176.829	884.836
221.738	14.297	1175.640	884.134
222.753	14.278	1175.043	883.505
223.767	14.314	1174.502	883.208
224.782	14.379	1173.590	882.792
225.796	14.482	1173.032	882.838
226.811	14.438	1172.206	881.907
227.826	14.335	1172.000	881.128
228.840	14.361	1171.109	880.518
229.855	14.395	1170.371	880.066
230.869	14.439	1169.278	879.395
231.884	14.446	1168.546	878.807
232.899	14.280	1168.238	877.618
233.913	14.240	1167.671	876.906
234.928	14.359	1166.685	876.712
235.942	14.396	1165.546	875.975
236.957	14.274	1164.927	874.793
237.972	14.344	1164.298	874.607
238.986	14.351	1163.819	874.210
240.001	14.420	1162.938	873.834
241.015	14.421	1161.555	872.721
242.030	14.413	1161.198	872.333
243.045	14.428	1160.253	871.627
244.059	14.569	1159.171	871.472
245.074	14.565	1158.831	871.119
246.088	14.498	1157.821	869.931
247.103	14.642	1157.139	870.092
248.117	14.660	1156.083	869.316
249.132	14.709	1155.455	869.019
250.147	14.618	1155.676	868.637
251.161	14.821	1154.359	868.625
252.176	14.883	1153.445	868.183
253.190	14.876	1153.071	867.788
254.205	14.845	1152.786	867.337
255.220	14.897	1151.744	866.746
256.234	14.860	1151.353	866.183
257.249	14.859	1150.416	865.394
258.263	14.941	1149.900	865.355
259.278	14.862	1149.283	864.403
260.293	14.957	1148.736	864.408
261.307	15.018	1148.025	864.115
262.322	14.996	1147.442	863.482
263.336	15.079	1146.820	863.369
264.351	15.012	1145.862	862.223
265.366	15.053	1145.489	862.076
266.380	14.997	1144.677	861.100
267.395	15.007	1143.936	860.518
268.409	15.070	1143.184	860.202
269.424	15.028	1142.618	859.484
270.439	15.139	1141.609	859.221
271.453	15.154	1141.082	858.825
272.468	15.139	1140.407	858.161
273.482	15.106	1139.533	857.259
274.497	15.148	1139.084	857.060
275.512	15.028	1138.714	856.096
276.526	15.061	1137.781	855.486
277.541	15.123	1136.584	854.828
278.555	15.126	1136.134	854.428
279.570	15.218	1135.654	854.460
280.585	15.279	1134.525	853.846
281.599	15.238	1133.536	852.818
282.614	15.230	1132.874	852.200
283.628	15.203	1132.080	851.393
284.643	15.154	1130.954	850.224
285.657	15.271	1129.907	849.954
286.672	15.298	1129.266	849.532
287.687	15.370	1127.998	848.869
288.701	15.233	1127.480	847.709
289.716	15.331	1126.824	847.638
290.730	15.287	1125.935	846.671
291.745	15.364	1125.806	846.885
292.760	15.399	1125.004	846.384
293.774	15.453	1124.275	846.032
294.789	15.591	1123.254	845.887
295.803	15.418	1123.065	844.796
296.818	15.424	1122.059	843.997
297.833	15.408	1121.526	843.444
298.847	15.513	1120.739	843.304
299.862	15.409	1120.158	842.268
300.876	15.540	1119.299	842.205
301.891	15.594	1118.700	841.951
302.906	15.653	1117.932	841.592
303.920	15.622	1117.403	840.965
304.935	15.652	1116.804	840.589
305.949	15.743	1115.556	840.032
306.964	15.631	1115.266	839.176
307.979	15.701	1114.858	839.145
308.993	15.674	1113.934	838.243
310.008	15.835	1112.451	837.852
311.022	15.724	1112.393	837.182
312.037	15.679	1111.898	836.512
313.052	15.661	1110.683	835.437
314.066	15.613	1109.616	834.320
315.081	15.612	1109.101	833.857
316.095	15.654	1108.475	833.516
317.110	15.647	1107.408	832.606
318.125	15.696	1106.504	832.097
319.139	15.549	1106.142	831.023
320.154	15.680	1105.518	831.130
321.168	15.713	1104.739	830.634
322.183	15.665	1104.136	829.869
323.197	15.743	1103.625	829.798
324.212	15.849	1103.025	829.796
325.227	15.850	1102.161	829.078
326.241	15.832	1101.673	828.547
327.256	15.850	1100.899	827.978
328.270	15.877	1100.132	827.461
329.285	15.765	1099.313	826.225
330.300	15.915	1098.095	825.969
331.314	15.879	1097.316	825.135
332.329	15.803	1096.530	824.101
333.343	15.944	1095.439	823.895
334.358	15.885	1094.960	823.174
335.373	15.973	1094.112	822.894
336.387	15.923	1093.401	822.041
337.402	15.933	1093.115	821.804
338.416	16.068	1091.790	821.392
339.431	16.066	1091.368	820.992
340.446	16.095	1090.692	820.553
341.460	16.080	1090.445	820.221
342.475	16.212	1089.469	820.057
343.489	16.129	1088.662	818.971
344.504	16.234	1087.332	818.407
345.519	16.186	1086.451	817.440
346.533	16.340	1085.501	817.401
347.548	16.207	1084.894	816.227
348.562	16.133	1084.313	815.358
349.577	16.170	1083.641	814.963
350.592	16.288	1082.725	814.768
351.606	16.234	1081.921	813.832
352.621	16.281	1081.557	813.711
353.635	16.198	1081.100	812.897
354.650	16.144	1080.334	811.986
355.665	16.113	1079.406	811.072
356.679	16.173	1078.513	810.616
357.694	16.293	1077.915	810.669
358.708	16.401	1077.282	810.643
359.723	16.379	1076.657	809.996
360.738	16.349	1075.862	809.182
361.752	16.373	1075.584	809.016
362.767	16.380	1074.897	808.460
363.781	16.532	1074.160	808.561
364.796	16.441	1073.776	807.763
365.810	16.472	1073.857	807.904
366.825	16.508	1072.570	807.033
367.840	16.603	1072.210	807.144
368.854	16.622	1071.461	806.599
369.869	16.620	1070.977	806.156
370.883	16.607	1070.078	805.345
371.898	16.521	1069.081	804.116
372.913	16.508	1068.884	803.835
373.927	16.594	1067.886	803.420
374.942	16.602	1067.669	803.222
375.956	16.741	1067.169	803.436
376.971	16.688	1065.805	802.087
377.986	16.675	1065.741	801.907
379.000	16.663	1065.517	801.609
380.015	16.718	1064.918	801.348
381.029	16.815	1063.975	801.026
382.044	16.863	1063.510	800.835
383.059	16.845	1062.910	800.227
384.073	16.779	1062.103	799.236
385.088	16.867	1060.990	798.743
386.102	16.833	1060.176	797.900
387.117	16.831	1059.398	797.235
388.132	16.982	1058.301	797.047
389.146	16.859	1057.367	795.696
390.161	16.792	1056.813	794.893
391.175	16.777	1056.200	794.293
392.190	16.937	1055.227	794.240
393.205	16.973	1054.829	794.040
394.219	16.924	1054.302	793.340
395.234	16.979	1052.872	792.453
396.248	16.957	1052.074	791.681
397.263	16.840	1051.577	790.690
398.278	16.977	1050.598	790.520
399.292	16.824	1049.904	789.218
400.307	16.784	1049.291	788.501
401.321	16.836	1048.538	788.108
402.336	16.775	1048.278	787.559
403.350	16.897	1047.556	787.510
404.365	16.928	1046.554	786.834
405.380	16.997	1045.795	786.513
406.394	16.913	1044.869	785.360
407.409	17.028	1044.498	785.540
408.423	17.179	1043.356	785.311
409.438	17.060	1043.011	784.434
410.453	17.235	1042.260	784.607
411.467	17.234	1041.300	783.810
412.482	17.230	1041.257	783.689
413.496	17.255	1040.121	782.882
414.511	17.257	1039.439	782.305
415.526	17.299	1039.059	782.143
416.540	17.383	1038.766	782.241
417.555	17.603	1037.530	782.254
418.569	17.360	1037.575	781.098
419.584	17.339	1037.196	780.651
420.599	17.382	1036.598	780.328
421.613	103.165	1322.096	1468.855
422.628	94.574	1363.679	1468.963
