DTS Sentinel unit serial number:	SN413079Multiplexer serial number:	ORYXHardware model number:	OX4-SRSoftware version number:	ORYX F/W v4.00 Oryx Data Collector v3.7.2.0data status	okinstallation	princeton_trtdifferential loss correction	single-endedforward channel	channel 2reverse channel	N/Adate	2019/09/11time	09:09:10forward acquisition time	60.00reverse acquisition time	0.00gamma	496.2192k internal	0.2318k external	0.2318temperature offset calibration	0.9967default loss term (dB/km)	0.3790temperature slope calibration	1.0000multiplexer offset coefficient	1.0000multiplexer slope coefficient	1.0000fibre end	0.00T internal ref (°C)	34.27T ext. ref 1 (°C)	0.09T ext. ref 2 (°C)	29.94length (m)	temperature (°C)	Stokes	anti-Stokes-747.200	63.684	0.195	-0.198
-746.185	-127.998	0.134	0.019
-745.171	-69.966	-0.169	0.065
-744.156	-200.000	0.061	0.378
-743.142	24.028	0.215	0.179
-742.127	50.539	-0.125	0.120
-741.112	4.947	-0.300	0.224
-740.098	174.241	0.062	0.091
-739.083	-10.092	-0.312	-0.210
-738.069	-128.721	0.370	0.053
-737.054	800.000	-0.048	-0.209
-736.039	21.193	-0.113	0.093
-735.025	-82.925	0.135	-0.044
-734.010	74.288	0.083	-0.089
-732.996	-76.481	-0.123	0.044
-731.981	-27.029	-0.050	0.030
-730.966	-81.242	-0.083	0.028
-729.952	198.305	-0.083	0.128
-728.937	213.519	-0.106	0.169
-727.923	165.116	0.014	0.020
-726.908	-16.160	-0.218	-0.140
-725.894	800.000	-0.048	-0.147
-724.879	144.600	-0.192	-0.260
-723.864	-200.000	-0.014	-0.074
-722.850	-33.313	-0.364	-0.204
-721.835	800.000	-0.011	-0.032
-720.821	-200.000	0.005	-0.029
-719.806	-142.359	0.141	-0.014
-718.791	-147.867	-0.500	-0.042
-717.777	800.000	0.006	0.021
-716.762	-200.000	0.013	-0.303
-715.748	800.000	0.017	-0.059
-714.733	408.933	0.055	-0.118
-713.718	112.170	-0.163	0.199
-712.704	117.235	0.122	0.151
-711.689	-124.587	0.202	0.032
-710.675	5.609	0.238	-0.178
-709.660	22.545	-0.262	-0.217
-708.645	-97.230	-0.387	-0.102
-707.631	800.000	0.041	-0.121
-706.616	-34.565	0.051	-0.028
-705.602	-62.075	-0.362	0.153
-704.587	23.879	-0.149	-0.124
-703.572	-180.614	-0.186	-0.004
-702.558	-200.000	0.011	0.197
-701.543	112.273	-0.207	-0.252
-700.529	-20.360	-0.073	-0.045
-699.514	568.944	0.095	-0.234
-698.499	-200.000	0.035	-0.275
-697.485	-34.299	-0.267	-0.148
-696.470	-200.000	0.005	0.158
-695.456	-32.757	0.158	0.089
-694.441	707.390	0.093	-0.248
-693.426	98.066	0.107	-0.124
-692.412	144.332	-0.120	0.162
-691.397	800.000	0.080	0.291
-690.383	101.624	-0.051	-0.060
-689.368	-200.000	0.000	0.281
-688.354	219.682	-0.084	0.136
-687.339	114.031	0.061	0.075
-686.324	-143.139	0.321	0.031
-685.310	603.261	-0.195	-0.491
-684.295	22.368	-0.356	-0.294
-683.281	-28.670	0.050	0.029
-682.266	-49.547	-0.293	-0.141
-681.251	-200.000	0.075	-0.364
-680.237	800.000	-0.078	-0.228
-679.222	171.115	-0.094	-0.136
-678.208	286.080	0.169	-0.308
-677.193	-114.966	0.229	-0.044
-676.178	-97.335	-0.150	-0.039
-675.164	-84.700	-0.064	0.020
-674.149	16.545	0.126	0.100
-673.135	-149.648	0.196	-0.016
-672.120	646.094	0.076	0.196
-671.105	741.757	0.085	0.231
-670.091	87.298	0.102	0.114
-669.076	-149.064	0.243	0.020
-668.062	800.000	0.141	-0.521
-667.047	469.365	0.031	-0.071
-666.032	-100.029	-0.201	-0.051
-665.018	800.000	-0.117	0.488
-664.003	40.954	-0.342	-0.312
-662.989	-200.000	0.018	-0.152
-661.974	90.325	0.073	-0.083
-660.959	800.000	-0.085	-0.362
-659.945	-71.147	0.241	-0.091
-658.930	186.597	-0.222	0.334
-657.916	114.833	0.032	0.039
-656.901	209.028	-0.064	0.101
-655.886	-74.497	-0.254	0.092
-654.872	-55.462	0.121	0.055
-653.857	8.684	-0.405	-0.308
-652.843	-20.808	-0.167	0.103
-651.828	-200.000	0.030	-0.214
-650.814	277.467	-0.108	-0.194
-649.799	455.427	0.054	0.120
-648.784	-195.348	0.316	0.002
-647.770	1.370	-0.158	0.115
-646.755	-91.415	-0.346	0.100
-645.741	800.000	-0.082	-0.333
-644.726	-200.000	-0.029	-0.282
-643.711	314.421	-0.110	-0.209
-642.697	-52.534	0.045	0.021
-641.682	10.088	0.110	0.084
-640.668	800.000	0.093	-0.266
-639.653	-87.973	0.108	0.033
-638.638	-1.183	-0.258	0.184
-637.624	800.000	-0.031	-0.134
-636.609	536.397	0.030	-0.071
-635.595	258.331	0.061	0.106
-634.580	274.246	0.101	-0.180
-633.565	-200.000	0.037	-0.287
-632.551	256.085	-0.072	-0.124
-631.536	209.040	-0.041	-0.064
-630.522	-7.856	0.237	0.161
-629.507	-120.577	-0.326	-0.056
-628.492	497.242	0.077	-0.178
-627.478	-200.000	-0.030	-0.398
-626.463	74.528	-0.092	0.098
-625.449	41.392	-0.281	-0.256
-624.434	156.707	-0.142	-0.197
-623.419	-200.000	0.049	0.229
-622.405	622.716	0.118	0.300
-621.390	429.505	-0.048	-0.104
-620.376	800.000	-0.050	-0.210
-619.361	-129.425	-0.283	-0.039
-618.346	181.696	0.097	-0.144
-617.332	193.684	-0.026	-0.039
-616.317	100.662	0.234	0.274
-615.303	800.000	0.080	-0.257
-614.288	-25.143	-0.238	0.142
-613.273	-136.164	0.020	-0.002
-612.259	500.809	0.124	-0.287
-611.244	564.131	0.157	0.383
-610.230	-116.208	0.112	0.021
-609.215	507.440	-0.095	0.223
-608.201	-85.232	0.379	0.119
-607.186	-52.045	0.055	-0.026
-606.171	137.711	0.241	-0.318
-605.157	-200.000	-0.031	-0.203
-604.142	-60.340	0.206	0.088
-603.128	186.117	-0.248	0.372
-602.113	-128.689	-0.173	0.025
-601.098	800.000	-0.127	-0.412
-600.084	35.367	0.034	-0.030
-599.069	177.706	0.133	-0.195
-598.055	800.000	-0.069	-0.294
-597.040	62.510	-0.109	-0.109
-596.025	210.192	-0.117	-0.186
-595.011	-200.000	-0.008	0.042
-593.996	-15.634	-0.227	-0.146
-592.982	8.471	0.205	-0.155
-591.967	9.615	-0.192	0.147
-590.952	-200.000	-0.033	-0.260
-589.938	198.671	-0.122	0.188
-588.923	800.000	-0.015	-0.051
-587.909	179.419	0.087	-0.128
-586.894	358.874	0.029	-0.059
-585.879	800.000	0.067	-0.221
-584.865	-67.502	-0.126	0.050
-583.850	-0.873	-0.059	0.042
-582.836	-29.190	0.068	0.039
-581.821	-144.757	-0.273	-0.025
-580.806	573.040	0.168	-0.412
-579.792	237.470	0.089	-0.149
-578.777	-90.074	-0.246	0.072
-577.763	657.938	0.109	-0.282
-576.748	-200.000	0.072	-0.392
-575.733	-11.553	-0.227	-0.150
-574.719	800.000	0.035	0.119
-573.704	-126.247	0.037	-0.006
-572.690	40.118	-0.140	-0.127
-571.675	-200.000	-0.068	-0.609
-570.661	239.124	0.088	0.147
-569.646	101.024	0.128	0.150
-568.631	567.926	0.031	-0.076
-567.617	-200.000	0.033	-0.217
-566.602	284.839	-0.191	0.345
-565.588	3.756	-0.133	-0.098
-564.573	-169.466	-0.201	0.007
-563.558	457.341	-0.103	0.230
-562.544	101.554	0.118	0.138
-561.529	-48.398	-0.084	0.041
-560.515	71.044	-0.177	0.185
-559.500	8.968	-0.228	-0.173
-558.485	-31.500	0.098	-0.055
-557.471	-40.396	-0.342	-0.178
-556.456	274.853	0.243	-0.433
-555.442	-26.187	-0.180	-0.106
-554.427	415.871	0.030	0.064
-553.412	-200.000	-0.066	0.293
-552.398	-123.014	0.087	-0.014
-551.383	-30.924	0.100	-0.057
-550.369	-5.478	-0.127	-0.087
-549.354	-136.067	-0.175	-0.021
-548.339	107.082	-0.196	-0.234
-547.325	-113.178	0.108	-0.021
-546.310	114.922	0.101	-0.124
-545.296	395.544	0.116	0.243
-544.281	-200.000	0.008	-0.175
-543.266	34.818	0.125	-0.110
-542.252	131.287	0.133	-0.171
-541.237	-41.861	0.242	0.125
-540.223	-143.449	-0.300	-0.029
-539.208	-8.451	-0.186	0.126
-538.193	-200.000	0.000	0.167
-537.179	35.020	-0.161	-0.141
-536.164	286.491	-0.204	0.369
-535.150	800.000	-0.153	0.430
-534.135	98.288	0.102	0.118
-533.121	278.676	-0.135	0.242
-532.106	-22.400	-0.132	0.080
-531.091	-41.737	0.490	-0.253
-530.077	-67.483	-0.186	-0.073
-529.062	-7.129	-0.291	-0.198
-528.048	-146.088	0.233	-0.021
-527.033	-160.965	0.377	0.020
-526.018	426.037	-0.208	0.449
-525.004	137.451	0.085	0.112
-523.989	427.942	-0.095	0.205
-522.975	-155.272	0.409	-0.027
-521.960	211.972	-0.180	0.284
-520.945	-200.000	0.028	-0.309
-519.931	-200.000	0.005	0.248
-518.916	97.931	0.180	0.208
-517.902	183.222	-0.047	-0.070
-516.887	291.881	0.094	0.171
-515.872	-200.000	-0.018	-0.102
-514.858	124.112	0.221	0.279
-513.843	-90.890	0.177	0.051
-512.829	-31.411	0.254	0.144
-511.814	-91.078	0.215	0.062
-510.799	-47.107	-0.159	-0.078
-509.785	-200.000	-0.004	-0.390
-508.770	-92.004	-0.270	-0.077
-507.756	68.886	-0.298	-0.307
-506.741	776.881	-0.049	-0.135
-505.726	-100.979	0.196	-0.048
-504.712	-50.685	0.233	-0.110
-503.697	-200.000	0.021	0.266
-502.683	185.588	-0.085	0.127
-501.668	82.726	0.173	0.188
-500.653	-77.033	0.424	0.148
-499.639	267.188	-0.028	-0.049
-498.624	800.000	0.068	-0.231
-497.610	710.922	0.071	-0.187
-496.595	-200.000	-0.222	0.001
-495.581	-167.510	-0.271	-0.011
-494.566	148.471	0.142	-0.192
-493.551	-63.887	-0.037	-0.015
-492.537	-51.250	-0.046	0.022
-491.522	33.043	0.171	0.149
-490.508	-149.150	-0.296	-0.024
-489.493	-86.146	0.070	0.022
-488.478	-200.000	-0.046	-0.219
-487.464	-168.909	-0.394	0.015
-486.449	-200.000	0.068	-0.300
-485.435	800.000	0.084	-0.278
-484.420	440.702	-0.104	0.228
-483.405	-102.518	-0.300	-0.072
-482.391	-134.952	0.116	0.014
-481.376	-110.023	0.141	0.029
-480.362	675.154	0.109	-0.283
-479.347	91.224	0.180	-0.202
-478.332	238.137	-0.048	-0.080
-477.318	-124.035	-0.282	0.044
-476.303	800.000	0.099	0.310
-475.289	610.634	-0.074	-0.186
-474.274	-200.000	0.008	0.341
-473.259	-87.843	0.381	0.115
-472.245	-33.447	-0.300	0.166
-471.230	88.828	-0.190	-0.212
-470.216	-104.889	0.220	0.051
-469.201	-153.998	0.357	-0.024
-468.186	4.606	-0.323	0.238
-467.172	89.644	0.134	-0.149
-466.157	-62.853	-0.010	0.004
-465.143	-200.000	0.023	-0.121
-464.128	300.987	-0.116	0.215
-463.113	-6.632	0.222	-0.151
-462.099	182.140	0.098	-0.144
-461.084	-145.975	-0.087	0.008
-460.070	-102.720	0.170	0.041
-459.055	-200.000	-0.061	-0.455
-458.040	-139.082	0.045	0.005
-457.026	-200.000	-0.058	0.412
-456.011	-20.370	0.052	0.032
-454.997	368.620	-0.076	0.154
-453.982	725.655	0.076	-0.202
-452.968	472.657	0.111	0.251
-451.953	-99.965	0.114	0.028
-450.938	-69.565	0.239	-0.091
-449.924	-130.444	-0.169	-0.023
-448.909	-36.242	0.071	0.038
-447.895	800.000	0.093	0.401
-446.880	-56.234	0.195	-0.087
-445.865	-200.000	0.034	-0.234
-444.851	-200.000	0.029	-0.226
-443.836	287.612	-0.135	-0.245
-442.822	-200.000	-0.018	-0.078
-441.807	800.000	-0.029	0.110
-440.792	-200.000	-0.048	-0.220
-439.778	537.550	0.031	-0.073
-438.763	296.981	-0.066	-0.121
-437.749	-200.000	-0.002	-0.193
-436.734	36.704	0.190	0.168
-435.719	-78.860	-0.146	-0.050
-434.705	55.802	0.233	-0.226
-433.690	-200.000	0.032	-0.308
-432.676	-29.591	0.258	0.147
-431.661	100.785	0.083	-0.096
-430.646	73.537	-0.028	-0.029
-429.632	-89.534	-0.050	0.015
-428.617	-44.402	0.157	0.078
-427.603	800.000	-0.029	-0.121
-426.588	-23.139	0.300	0.181
-425.573	80.600	-0.196	0.211
-424.559	-59.920	-0.109	0.047
-423.544	-117.983	-0.079	0.014
-422.530	73.522	0.099	0.104
-421.515	-102.591	0.183	0.044
-420.500	55.338	0.186	0.180
-419.486	785.651	0.037	0.102
-418.471	-36.109	0.241	0.130
-417.457	-176.416	-0.166	-0.004
-416.442	-200.000	0.079	-0.427
-415.428	589.885	0.069	0.170
-414.413	93.693	-0.184	0.208
-413.398	233.762	-0.042	0.070
-412.384	-12.482	-0.107	-0.070
-411.369	31.512	0.030	0.026
-410.355	-98.174	-0.163	0.042
-409.340	556.048	0.038	0.091
-408.325	-147.797	0.275	0.023
-407.311	-3.717	0.308	0.214
-406.296	352.591	-0.037	0.073
-405.282	405.567	0.086	0.180
-404.267	54.583	0.268	-0.258
-403.252	536.202	-0.102	-0.242
-402.238	-28.843	-0.200	0.115
-401.223	-200.000	0.265	-0.001
-400.209	164.298	0.153	-0.215
-399.194	800.000	-0.102	-0.375
-398.179	-44.205	-0.298	-0.149
-397.165	-200.000	-0.062	-0.390
-396.150	-6.077	0.060	0.041
-395.136	-105.800	0.284	0.064
-394.121	379.501	-0.071	-0.145
-393.106	-7.801	-0.125	-0.084
-392.092	-46.731	0.119	0.058
-391.077	800.000	0.080	-0.277
-390.063	-84.998	-0.268	-0.084
-389.048	800.000	-0.085	0.243
-388.033	-6.842	0.048	-0.032
-387.019	-67.988	-0.213	-0.083
-386.004	-146.976	0.116	0.010
-384.990	418.793	0.137	0.293
-383.975	100.914	-0.135	0.157
-382.960	800.000	0.021	-0.092
-381.946	179.068	0.132	-0.192
-380.931	-154.270	-0.421	0.028
-379.917	-200.000	0.009	-0.393
-378.902	412.738	-0.179	0.381
-377.888	-134.091	-0.199	-0.025
-376.873	169.049	0.400	0.570
-375.858	800.000	-0.063	0.263
-374.844	800.000	0.025	0.080
-373.829	-79.041	-0.287	-0.097
-372.815	230.007	0.068	0.110
-371.800	-200.000	-0.034	0.219
-370.785	-11.583	-0.156	0.102
-369.771	19.532	0.051	0.041
-368.756	-10.141	-0.061	-0.040
-367.742	-50.839	-0.169	0.079
-366.727	179.468	-0.178	0.259
-365.712	678.779	0.053	0.138
-364.698	50.223	-0.156	0.147
-363.683	236.205	-0.113	-0.186
-362.669	419.640	-0.101	-0.216
-361.654	-200.000	0.021	-0.186
-360.639	-173.978	-0.217	-0.006
-359.625	800.000	0.117	-0.374
-358.610	447.121	0.129	0.284
-357.596	-98.270	-0.239	-0.061
-356.581	-115.540	0.297	-0.056
-355.566	114.619	-0.059	-0.071
-354.552	-200.000	-0.014	0.145
-353.537	-200.000	-0.009	0.219
-352.523	-113.275	-0.126	0.025
-351.508	271.805	-0.059	0.104
-350.493	-200.000	-0.003	-0.211
-349.479	131.214	0.120	0.154
-348.464	-40.161	0.020	0.011
-347.450	-200.000	0.036	-0.282
-346.435	-6.477	-0.484	-0.329
-345.420	-149.670	-0.114	-0.009
-344.406	613.186	0.074	-0.185
-343.391	-151.714	0.040	0.003
-342.377	-200.000	-0.012	-0.112
-341.362	588.977	-0.153	-0.375
-340.348	105.830	0.282	-0.332
-339.333	-170.050	0.131	-0.005
-338.318	-123.569	0.116	-0.018
-337.304	795.640	0.104	0.285
-336.289	160.853	-0.083	-0.116
-335.275	489.467	0.097	0.220
-334.260	134.798	-0.276	-0.357
-333.245	283.679	0.204	0.364
-332.231	800.000	-0.014	0.059
-331.216	-200.000	0.006	-0.269
-330.202	222.782	-0.178	0.285
-329.187	-184.447	-0.231	-0.004
-328.172	800.000	0.121	-0.421
-327.158	121.583	0.216	-0.268
-326.143	-200.000	-0.031	0.184
-325.129	-81.849	0.076	0.025
-324.114	-79.202	-0.111	-0.038
-323.099	-200.000	0.029	0.279
-322.085	-176.962	0.018	0.000
-321.070	51.465	-0.133	0.125
-320.056	-57.923	-0.371	0.161
-319.041	-200.000	-0.019	0.098
-318.026	60.700	-0.351	0.346
-317.012	225.191	-0.046	-0.075
-315.997	89.074	-0.153	-0.170
-314.983	800.000	0.086	0.273
-313.968	-42.118	-0.230	0.117
-312.953	800.000	-0.064	-0.185
-311.939	119.410	-0.065	-0.079
-310.924	52.906	-0.072	0.069
-309.910	115.369	0.054	0.065
-308.895	-70.785	0.061	0.023
-307.880	-146.189	-0.439	0.038
-306.866	-10.858	-0.190	-0.125
-305.851	-111.140	-0.171	-0.035
-304.837	-22.248	0.254	0.153
-303.822	-21.614	-0.075	-0.045
-302.807	558.506	-0.084	0.201
-301.793	-144.806	0.293	-0.027
-300.778	-139.082	0.106	-0.011
-299.764	-146.434	0.338	-0.029
-298.749	-200.000	-0.023	0.121
-297.735	609.943	0.062	-0.153
-296.720	104.799	-0.214	0.251
-295.705	-13.415	-0.128	0.082
-294.691	-184.613	0.381	-0.006
-293.676	471.644	-0.026	0.058
-292.662	55.435	-0.146	-0.140
-291.647	58.279	0.210	-0.205
-290.632	64.650	0.146	-0.146
-289.618	82.703	0.111	0.120
-288.603	-144.147	0.314	0.029
-287.589	336.869	0.105	-0.202
-286.574	-10.254	0.145	-0.096
-285.559	-29.012	-0.189	-0.108
-284.545	-200.000	0.013	0.144
-283.530	-168.568	0.505	-0.019
-282.516	-200.000	-0.042	-0.452
-281.501	-147.369	-0.266	0.022
-280.486	-87.780	0.402	0.120
-279.472	-158.560	-0.168	0.010
-278.457	800.000	0.086	0.243
-277.443	242.455	0.126	0.209
-276.428	318.305	-0.103	0.193
-275.413	-106.553	-0.050	0.011
-274.399	-200.000	-0.023	0.237
-273.384	-200.000	0.037	0.168
-272.370	800.000	0.050	-0.141
-271.355	-104.656	-0.073	0.017
-270.340	150.479	-0.085	-0.115
-269.326	305.980	0.145	-0.267
-268.311	-67.073	0.162	-0.063
-267.297	100.149	-0.330	0.380
-266.282	41.572	0.144	0.130
-265.267	-200.000	0.006	0.137
-264.253	56.481	-0.241	0.233
-263.238	-200.000	-0.041	0.223
-262.224	116.717	-0.108	-0.132
-261.209	800.000	-0.038	0.133
-260.195	-19.255	0.211	0.130
-259.180	32.497	0.198	0.170
-258.165	-105.847	0.349	-0.078
-257.151	-112.589	0.190	0.038
-256.136	-200.000	-0.034	-0.210
-255.122	-200.000	0.005	-0.120
-254.107	800.000	0.066	0.274
-253.092	-200.000	-0.046	0.282
-252.078	-155.563	0.142	-0.009
-251.063	-93.015	-0.166	0.046
-250.049	-36.052	-0.096	0.052
-249.034	221.438	-0.114	-0.182
-248.019	697.186	0.085	0.221
-247.005	-45.909	0.362	-0.177
-245.990	23.411	-0.295	0.240
-244.976	139.607	0.196	0.257
-243.961	280.395	0.070	-0.124
-242.946	476.418	-0.060	0.134
-241.932	160.345	-0.103	0.143
-240.917	31.834	0.214	0.183
-239.903	-76.355	-0.133	0.047
-238.888	-104.428	-0.149	0.034
-237.873	-37.373	0.091	-0.048
-236.859	452.644	0.112	0.245
-235.844	-58.130	-0.326	0.141
-234.830	-159.842	-0.131	0.007
-233.815	-39.671	-0.231	-0.120
-232.800	-148.546	0.245	-0.020
-231.786	750.623	-0.115	0.309
-230.771	-100.971	0.198	-0.048
-229.757	183.246	-0.184	0.270
-228.742	80.434	0.232	0.247
-227.727	10.072	0.250	0.189
-226.713	-200.000	0.008	-0.101
-225.698	90.710	-0.125	0.139
-224.684	-172.784	-0.053	-0.002
-223.669	542.236	-0.119	0.280
-222.655	-83.580	-0.116	-0.037
-221.640	-22.846	0.123	-0.073
-220.625	194.137	-0.116	0.175
-219.611	61.900	0.157	0.155
-218.596	7.215	-0.158	-0.117
-217.582	-118.749	-0.094	0.016
-216.567	800.000	0.037	0.116
-215.552	800.000	0.023	0.095
-214.538	800.000	0.066	-0.241
-213.523	406.118	0.108	-0.226
-212.509	-5.340	0.369	0.252
-211.494	-58.673	0.352	0.151
-210.479	-71.343	-0.091	0.034
-209.465	-84.580	-0.233	0.073
-208.450	284.176	-0.143	0.256
-207.436	-25.657	0.403	0.236
-206.421	-157.410	0.169	0.010
-205.406	144.025	-0.058	-0.076
-204.392	-69.254	-0.113	0.043
-203.377	-200.000	-0.000	0.232
-202.363	-200.000	0.010	-0.128
-201.348	570.432	0.197	-0.475
-200.333	49.963	-0.182	-0.170
-199.319	-102.027	-0.088	-0.021
-198.304	-97.107	0.148	-0.038
-197.290	-29.561	-0.120	-0.068
-196.275	-160.583	0.045	0.002
-195.260	218.314	-0.218	0.344
-194.246	-200.000	0.025	0.238
-193.231	-28.876	-0.176	0.100
-192.217	-26.871	-0.375	-0.217
-191.202	-78.627	0.297	-0.101
-190.187	34.348	0.253	-0.219
-189.173	-128.317	0.251	0.035
-188.158	-200.000	-0.030	0.130
-187.144	-30.355	-0.126	-0.071
-186.129	73.271	-0.116	0.120
-185.114	22.457	-0.152	0.123
-184.100	178.588	-0.154	-0.222
-183.085	744.847	-0.032	0.085
-182.071	12.820	0.241	0.184
-181.056	-136.452	-0.349	0.040
-180.042	93.363	-0.212	-0.238
-179.027	324.168	-0.140	0.264
-178.012	800.000	0.040	-0.141
-176.998	-19.700	-0.153	-0.094
-175.983	800.000	0.081	-0.270
-174.969	98.072	-0.113	0.129
-173.954	-200.000	0.037	0.339
-172.939	142.639	-0.131	-0.173
-171.925	-84.939	0.145	-0.045
-170.910	-97.144	0.182	-0.047
-169.896	426.725	0.075	0.159
-168.881	-200.000	0.004	0.229
-167.866	-18.327	0.239	-0.148
-166.852	142.444	-0.087	-0.114
-165.837	37.259	0.377	0.330
-164.823	457.696	0.250	-0.551
-163.808	107.741	0.288	-0.339
-162.793	-91.109	0.078	0.022
-161.779	-95.904	-0.184	-0.048
-160.764	-200.000	-0.023	0.131
-159.750	42.340	-0.074	0.066
-158.735	-12.372	0.085	0.055
-157.720	-86.029	0.187	0.057
-156.706	-200.000	-0.074	0.384
-155.691	-44.378	-0.376	0.186
-154.677	28.332	0.124	-0.104
-153.662	-58.122	0.072	-0.031
-152.647	-62.090	-0.251	0.104
-151.633	91.014	-0.160	0.178
-150.618	-143.099	0.272	0.026
-149.604	30.814	-0.235	0.199
-148.589	58.921	-0.096	-0.094
-147.574	156.449	0.138	0.189
-146.560	71.454	-0.196	-0.202
-145.545	290.513	-0.131	-0.235
-144.531	-200.000	-0.043	0.288
-143.516	-18.388	-0.112	0.069
-142.502	12.671	0.203	-0.155
-141.487	59.378	-0.086	0.084
-140.472	-61.884	0.203	0.084
-139.458	-19.697	-0.166	-0.102
-138.443	800.000	0.052	-0.225
-137.429	-41.868	-0.109	0.055
-136.414	242.897	0.107	-0.177
-135.399	-129.005	0.208	-0.029
-134.385	71.329	0.106	0.109
-133.370	-70.278	0.246	-0.092
-132.356	800.000	-0.086	-0.285
-131.341	26.271	-0.162	-0.133
-130.326	-129.721	0.204	-0.028
-129.312	-60.656	-0.134	-0.056
-128.297	130.402	-0.175	-0.222
-127.283	-122.841	-0.124	-0.020
-126.268	800.000	0.053	-0.145
-125.253	-200.000	-0.031	-0.148
-124.239	-72.088	0.144	0.053
-123.224	157.255	-0.137	0.187
-122.210	132.553	0.254	0.323
-121.195	-84.782	-0.120	-0.037
-120.180	-78.787	-0.225	0.076
-119.166	406.272	0.080	0.166
-118.151	-188.936	0.295	0.004
-117.137	-122.571	-0.153	-0.024
-116.122	800.000	-0.080	0.325
-115.107	-12.280	-0.133	0.086
-114.093	-28.100	0.284	0.162
-113.078	30.370	-0.093	0.078
-112.064	-20.914	0.092	-0.055
-111.049	-107.553	0.358	-0.077
-110.034	-15.223	0.240	-0.151
-109.020	-56.482	-0.173	-0.076
-108.005	-200.000	-0.007	0.236
-106.991	18.922	0.203	0.161
-105.976	738.230	-0.083	0.219
-104.962	601.245	-0.078	-0.192
-103.947	36.781	-0.057	-0.050
-102.932	-130.713	0.253	-0.034
-101.918	-114.705	-0.211	0.040
-100.903	-27.736	0.116	-0.066
-99.889	-24.666	0.111	-0.065
-98.874	800.000	-0.046	-0.183
-97.859	-89.704	0.158	-0.046
-96.845	64.553	-0.143	-0.142
-95.830	-17.673	0.116	-0.072
-94.816	800.000	0.058	-0.159
-93.801	179.759	0.225	-0.326
-92.786	-62.031	0.212	0.087
-91.772	-28.559	0.168	0.095
-90.757	800.000	0.006	-0.019
-89.743	799.702	0.082	0.223
-88.728	-49.911	-0.061	-0.028
-87.713	-101.396	0.099	0.024
-86.699	103.621	-0.327	-0.378
-85.684	-1.209	0.051	0.035
-84.670	353.600	-0.078	0.154
-83.655	644.591	-0.026	-0.065
-82.640	528.438	0.050	-0.116
-81.626	737.531	-0.094	0.250
-80.611	800.000	0.049	0.189
-79.597	-77.298	0.231	0.079
-78.582	767.620	0.060	-0.161
-77.567	-200.000	-0.010	-0.187
-76.553	324.776	0.045	0.086
-75.538	153.200	0.203	-0.274
-74.524	-98.556	0.186	0.047
-73.509	-22.442	0.100	-0.060
-72.494	99.517	-0.068	0.078
-71.480	-151.729	0.168	-0.012
-70.465	97.316	-0.107	0.121
-69.451	213.104	0.156	0.242
-68.436	-164.607	0.126	-0.006
-67.422	-124.331	0.209	0.032
-66.407	-159.980	0.405	0.022
-65.392	264.450	-0.117	0.200
-64.378	192.506	-0.063	-0.093
-63.363	-97.660	0.333	0.085
-62.349	115.766	0.234	0.282
-61.334	0.015	-1.003	-0.704
-60.319	151.122	0.345	0.463
-59.305	-200.000	0.007	-1.187
-58.290	256.908	0.518	0.876
-57.276	800.000	0.478	1.374
-56.261	-200.000	97.321	547.668
-55.246	588.208	1397.631	3390.818
-54.232	183.350	2639.831	3842.213
-53.217	112.508	2330.159	2777.514
-52.203	43.848	1937.906	1748.051
-51.188	37.666	1722.021	1505.637
-50.173	34.834	1676.544	1444.455
-49.159	51.523	1726.068	1615.465
-48.144	54.569	1742.888	1654.477
-47.130	37.200	1698.793	1481.538
-46.115	34.321	1684.007	1446.763
-45.100	34.097	1679.140	1440.829
-44.086	34.137	1676.334	1438.666
-43.071	34.159	1673.739	1436.549
-42.057	34.024	1671.598	1433.634
-41.042	34.027	1669.400	1431.717
-40.027	34.118	1667.193	1430.450
-39.013	34.138	1665.338	1428.949
-37.998	34.066	1663.790	1427.023
-36.984	34.179	1662.229	1426.477
-35.969	34.284	1661.024	1426.175
-34.954	34.473	1658.465	1425.333
-33.940	34.206	1657.656	1422.587
-32.925	34.255	1655.498	1421.039
-31.911	34.379	1653.329	1420.046
-30.896	34.218	1652.584	1418.155
-29.881	34.230	1650.969	1416.796
-28.867	34.195	1649.240	1415.000
-27.852	34.170	1647.463	1413.230
-26.838	34.249	1646.022	1412.527
-25.823	34.294	1644.315	1411.338
-24.809	34.355	1642.729	1410.373
-23.794	34.319	1641.827	1409.280
-22.779	34.282	1640.371	1407.699
-21.765	34.232	1638.545	1405.702
-20.750	34.246	1636.860	1404.304
-19.736	34.316	1635.314	1403.444
-18.721	34.330	1633.493	1401.924
-17.706	34.304	1632.284	1400.641
-16.692	34.259	1631.169	1399.299
-15.677	34.312	1629.436	1398.144
-14.663	34.261	1628.280	1396.721
-13.648	34.263	1626.858	1395.464
-12.633	34.274	1624.767	1393.692
-11.619	34.300	1623.418	1392.675
-10.604	34.328	1622.072	1391.670
-9.590	34.364	1620.432	1390.466
-8.575	34.321	1619.483	1389.286
-7.560	34.252	1618.764	1388.109
-6.546	34.409	1616.519	1387.273
-5.531	34.222	1615.956	1385.374
-4.517	34.276	1614.805	1384.728
-3.502	34.364	1613.302	1384.023
-2.487	34.458	1611.077	1382.738
-1.473	34.220	1600.595	1371.970
-0.458	31.630	1581.067	1336.717
0.556	26.241	1582.145	1305.241
1.571	24.221	1606.353	1310.256
2.586	23.571	1620.334	1316.721
3.600	20.501	1565.479	1249.985
4.615	10.511	1450.258	1090.990
5.629	1.749	1382.265	983.357
6.644	0.145	1373.614	966.822
7.659	0.128	1371.914	965.432
8.673	0.040	1371.221	964.289
9.688	0.057	1369.212	962.900
10.702	-0.188	1366.182	959.121
11.717	3.265	1372.959	985.931
12.731	13.361	1392.634	1065.274
13.746	21.373	1406.633	1127.790
14.761	22.899	1408.736	1139.225
15.775	23.113	1408.687	1140.467
16.790	23.175	1407.871	1140.102
17.804	23.212	1407.459	1139.908
18.819	23.421	1407.371	1141.082
19.834	23.549	1406.644	1141.213
20.848	23.536	1405.871	1140.404
21.863	23.546	1405.102	1139.739
22.877	23.660	1403.697	1139.229
23.892	23.658	1403.103	1138.635
24.907	23.563	1402.428	1137.377
25.921	23.574	1401.073	1136.250
26.936	23.569	1400.276	1135.470
27.950	23.568	1399.529	1134.758
28.965	23.569	1397.851	1133.302
29.980	23.575	1396.653	1132.271
30.994	23.636	1395.114	1131.311
32.009	23.582	1393.991	1129.956
33.023	23.589	1392.693	1128.847
34.038	23.567	1391.780	1127.867
35.053	23.563	1390.726	1126.891
36.067	23.573	1389.696	1126.018
37.082	23.566	1388.757	1125.112
38.096	23.601	1387.869	1124.518
39.111	23.542	1387.385	1123.653
40.126	23.586	1386.331	1122.979
41.140	23.568	1385.697	1122.253
42.155	23.502	1385.924	1121.919
43.169	23.578	1385.597	1122.034
44.184	23.530	1385.431	1121.499
45.199	23.490	1384.909	1120.719
46.213	23.605	1384.515	1121.028
47.228	23.693	1382.871	1120.153
48.242	23.549	1382.074	1118.501
49.257	23.654	1380.361	1117.680
50.271	23.634	1378.999	1116.353
51.286	23.562	1378.400	1115.313
52.301	23.617	1376.755	1114.234
53.315	23.482	1376.154	1112.799
54.330	23.579	1374.894	1112.290
55.344	23.593	1373.572	1111.210
56.359	23.623	1372.556	1110.479
57.374	23.535	1371.763	1109.186
58.388	23.479	1371.529	1108.551
59.403	23.407	1371.314	1107.829
60.417	23.603	1370.117	1107.989
61.432	23.559	1369.931	1107.464
62.447	23.571	1368.826	1106.545
63.461	23.623	1367.752	1105.906
64.476	23.509	1366.854	1104.371
65.490	23.666	1365.642	1104.272
66.505	23.657	1363.912	1102.715
67.520	23.716	1362.421	1101.780
68.534	23.558	1361.974	1100.344
69.549	23.700	1360.231	1099.718
70.563	23.603	1359.409	1098.351
71.578	23.620	1358.497	1097.626
72.593	23.517	1358.037	1096.520
73.607	23.572	1357.090	1095.998
74.622	23.661	1356.279	1095.795
75.636	23.626	1355.889	1095.164
76.651	23.499	1355.188	1093.723
77.666	23.502	1355.127	1093.595
78.680	23.572	1353.773	1092.832
79.695	23.652	1353.003	1092.611
80.709	23.604	1352.403	1091.734
81.724	23.649	1351.363	1091.074
82.739	23.540	1350.628	1089.710
83.753	23.589	1349.455	1088.969
84.768	23.545	1348.457	1087.801
85.782	23.621	1346.872	1086.893
86.797	23.550	1346.383	1085.966
87.812	23.605	1345.094	1085.166
88.826	23.641	1343.975	1084.387
89.841	23.623	1342.907	1083.321
90.855	23.589	1342.202	1082.448
91.870	23.621	1341.154	1081.703
92.884	23.583	1340.318	1080.697
93.899	23.672	1339.263	1080.293
94.914	23.729	1338.531	1079.955
95.928	23.639	1337.979	1078.869
96.943	23.652	1336.968	1078.033
97.957	23.625	1336.422	1077.333
98.972	23.675	1335.177	1076.540
99.987	23.679	1334.188	1075.670
101.001	23.573	1333.598	1074.460
102.016	23.603	1332.421	1073.598
103.030	23.670	1331.468	1073.142
104.045	23.650	1330.494	1072.137
105.060	23.635	1329.570	1071.208
106.074	23.676	1328.701	1070.660
107.089	23.709	1327.003	1069.397
108.103	23.691	1326.542	1068.820
109.118	23.703	1325.363	1067.847
110.133	23.730	1324.290	1067.053
111.147	23.686	1323.067	1065.711
112.162	23.652	1321.605	1064.234
113.176	23.684	1320.828	1063.705
114.191	23.655	1319.982	1062.756
115.206	23.701	1318.866	1062.040
116.220	23.708	1318.022	1061.305
117.235	23.664	1317.282	1060.356
118.249	23.673	1315.907	1059.209
119.264	23.745	1314.782	1058.640
120.279	23.823	1314.158	1058.509
121.293	23.715	1313.602	1057.319
122.308	23.834	1312.456	1057.013
123.322	23.760	1311.565	1055.762
124.337	23.776	1310.935	1055.259
125.352	23.769	1309.919	1054.305
126.366	23.692	1309.353	1053.301
127.381	23.753	1307.961	1052.449
128.395	23.788	1307.305	1052.034
129.410	23.720	1306.786	1051.122
130.424	23.760	1305.903	1050.552
131.439	23.861	1304.787	1050.158
132.454	23.758	1304.312	1049.076
133.468	23.716	1303.867	1048.378
134.483	23.720	1303.149	1047.731
135.497	23.674	1302.242	1046.636
136.512	23.833	1301.012	1046.495
137.527	23.885	1299.583	1045.555
138.541	23.736	1298.550	1043.756
139.556	23.680	1297.380	1042.395
140.570	23.678	1296.763	1041.796
141.585	23.790	1295.367	1041.237
142.600	23.792	1294.347	1040.336
143.614	23.764	1293.471	1039.376
144.629	23.763	1292.314	1038.353
145.643	23.636	1291.367	1036.756
146.658	23.470	1290.677	1035.140
147.673	23.765	1289.175	1035.567
148.687	23.714	1288.192	1034.388
149.702	23.732	1286.806	1033.289
150.716	23.658	1286.231	1032.306
151.731	23.803	1284.728	1031.851
152.746	23.726	1284.187	1030.876
153.760	23.864	1283.038	1030.663
154.775	23.794	1281.834	1029.199
155.789	23.803	1281.134	1028.601
156.804	23.801	1280.605	1028.069
157.819	23.679	1279.577	1026.452
158.833	23.765	1279.003	1026.395
159.848	23.907	1277.710	1026.083
160.862	23.758	1277.225	1024.746
161.877	23.808	1276.339	1024.230
162.892	23.778	1275.793	1023.532
163.906	23.812	1274.525	1022.619
164.921	23.794	1274.274	1022.226
165.935	23.838	1273.006	1021.368
166.950	23.679	1273.133	1020.467
167.964	23.878	1272.213	1020.783
168.979	23.821	1271.787	1020.024
169.994	23.816	1270.973	1019.251
171.008	23.913	1270.176	1019.076
172.023	23.853	1269.431	1018.046
173.037	23.924	1268.334	1017.484
174.052	23.790	1268.131	1016.460
175.067	23.895	1266.779	1015.891
176.081	23.821	1266.335	1015.019
177.096	23.810	1265.469	1014.172
178.110	23.841	1264.582	1013.550
179.125	23.841	1263.821	1012.849
180.140	23.997	1262.478	1012.572
181.154	23.920	1260.935	1010.809
182.169	23.790	1260.829	1009.897
183.183	23.982	1259.261	1009.637
184.198	23.998	1258.265	1008.843
185.213	23.898	1257.537	1007.600
186.227	23.891	1256.779	1006.868
187.242	24.055	1255.220	1006.453
188.256	23.917	1254.932	1005.352
189.271	23.847	1254.278	1004.349
190.286	23.984	1253.052	1004.047
191.300	23.911	1252.841	1003.381
192.315	23.847	1252.425	1002.594
193.329	23.911	1252.633	1003.035
194.344	23.976	1251.689	1002.554
195.359	23.997	1250.629	1001.738
196.373	23.967	1250.384	1001.285
197.388	23.926	1249.981	1000.641
198.402	23.962	1249.488	1000.359
199.417	23.947	1248.608	999.484
200.432	23.958	1248.355	999.256
201.446	23.909	1247.906	998.531
202.461	23.991	1246.603	997.858
203.475	23.995	1246.307	997.556
204.490	23.947	1245.153	996.274
205.504	24.040	1243.986	995.777
206.519	24.183	1243.135	995.805
207.534	24.031	1242.366	994.251
208.548	23.979	1241.567	993.234
209.563	24.020	1240.756	992.728
210.577	24.046	1239.653	991.902
211.592	24.025	1239.592	991.648
212.607	24.074	1238.167	990.692
213.621	24.091	1237.840	990.437
214.636	24.099	1236.819	989.577
215.650	24.073	1236.255	988.891
216.665	24.203	1234.670	988.260
217.680	24.078	1234.088	987.013
218.694	24.206	1232.795	986.601
219.709	24.039	1233.070	985.807
220.723	24.163	1232.029	985.577
221.738	24.115	1230.870	984.296
222.753	24.097	1230.418	983.745
223.767	24.162	1229.549	983.322
224.782	24.240	1229.093	983.300
225.796	24.201	1229.129	983.032
226.811	24.100	1228.298	981.720
227.826	24.138	1227.795	981.440
228.840	24.210	1226.978	981.096
229.855	24.131	1226.430	980.137
230.869	24.069	1226.180	979.509
231.884	24.147	1225.008	978.917
232.899	24.157	1224.209	978.249
233.913	24.204	1223.634	977.956
234.928	24.229	1223.444	977.857
235.942	24.182	1222.643	976.870
236.957	24.196	1221.441	975.903
237.972	24.233	1221.201	975.826
238.986	24.118	1220.981	974.935
240.001	24.323	1219.798	975.023
241.015	24.329	1219.062	974.383
242.030	24.357	1218.275	973.819
243.045	24.288	1217.863	973.028
244.059	24.379	1216.351	972.233
245.074	24.319	1216.061	971.587
246.088	24.336	1215.360	971.035
247.103	24.335	1214.386	970.165
248.117	24.358	1213.863	969.787
249.132	24.463	1212.382	969.084
250.147	24.354	1212.299	968.343
251.161	24.484	1211.564	968.375
252.176	24.342	1210.881	966.973
253.190	24.463	1209.876	966.740
254.205	24.485	1209.039	966.102
255.220	24.336	1209.046	965.220
256.234	24.432	1208.520	965.230
257.249	24.481	1207.127	964.300
258.263	24.397	1207.459	964.024
259.278	24.386	1206.825	963.372
260.293	24.506	1206.491	963.671
261.307	24.480	1205.441	962.605
262.322	24.481	1204.805	962.016
263.336	24.484	1203.890	961.219
264.351	24.474	1203.574	960.827
265.366	24.522	1202.948	960.500
266.380	24.429	1202.229	959.342
267.395	24.509	1201.596	959.180
268.409	24.595	1200.598	958.760
269.424	24.487	1200.413	957.949
270.439	24.594	1199.870	958.007
271.453	24.506	1199.192	956.909
272.468	24.442	1198.462	955.898
273.482	24.494	1197.527	955.345
274.497	24.642	1197.016	955.643
275.512	24.575	1196.967	955.161
276.526	24.584	1195.729	954.140
277.541	24.577	1195.405	953.756
278.555	24.582	1194.737	953.167
279.570	24.522	1194.181	952.318
280.585	24.512	1193.287	951.467
281.599	24.658	1192.037	951.168
282.614	24.611	1191.423	950.342
283.628	24.633	1190.774	949.857
284.643	24.590	1189.682	948.671
285.657	24.427	1188.938	947.132
286.672	24.600	1187.715	946.989
287.687	24.636	1187.185	946.672
288.701	24.698	1186.516	946.386
289.716	24.706	1185.888	945.843
290.730	24.610	1185.273	944.759
291.745	24.754	1184.542	944.856
292.760	24.743	1184.332	944.548
293.774	24.687	1183.389	943.415
294.789	24.756	1183.042	943.419
295.803	24.731	1182.302	942.613
296.818	24.767	1181.752	942.281
297.833	24.762	1180.741	941.364
298.847	24.868	1179.762	941.058
299.862	24.685	1179.967	940.176
300.876	24.781	1178.809	939.677
301.891	24.821	1178.051	939.200
302.906	24.841	1177.820	939.036
303.920	24.889	1176.905	938.475
304.935	24.919	1176.278	938.047
305.949	24.871	1175.375	936.995
306.964	24.865	1174.644	936.299
307.979	24.930	1173.966	936.015
308.993	24.945	1174.166	936.166
310.008	24.915	1172.770	934.815
311.022	24.953	1171.992	934.311
312.037	24.872	1171.759	933.619
313.052	24.749	1170.894	932.206
314.066	24.906	1169.512	931.842
315.081	24.920	1168.744	931.220
316.095	24.891	1168.036	930.423
317.110	24.870	1168.025	930.225
318.125	24.897	1167.131	929.569
319.139	25.050	1166.384	929.687
320.154	24.949	1165.840	928.648
321.168	24.951	1165.434	928.251
322.183	24.899	1164.887	927.466
323.197	24.937	1164.580	927.334
324.212	25.001	1163.458	926.692
325.227	24.977	1163.415	926.448
326.241	25.086	1162.465	926.175
327.256	24.995	1161.998	925.248
328.270	24.929	1161.007	924.038
329.285	25.043	1160.029	923.764
330.300	25.123	1159.086	923.346
331.314	25.177	1157.824	922.535
332.329	25.178	1157.205	921.969
333.343	25.050	1156.843	920.938
334.358	25.066	1156.153	920.390
335.373	25.114	1155.294	919.869
336.387	25.121	1154.718	919.365
337.402	25.213	1154.002	919.185
338.416	25.179	1153.434	918.478
339.431	25.194	1153.094	918.206
340.446	25.163	1152.440	917.445
341.460	25.240	1151.467	916.983
342.475	25.295	1150.755	916.614
343.489	25.277	1149.700	915.598
344.504	25.234	1148.920	914.678
345.519	25.316	1148.165	914.417
346.533	25.276	1147.627	913.704
347.548	25.324	1146.579	913.029
348.562	25.294	1145.754	912.139
349.577	25.317	1145.358	911.864
350.592	25.172	1144.580	910.424
351.606	25.317	1143.689	910.373
352.621	25.307	1143.600	910.172
353.635	25.397	1142.757	909.873
354.650	25.290	1141.982	908.632
355.665	25.461	1141.441	908.992
356.679	25.402	1140.782	908.088
357.694	25.328	1140.285	907.234
358.708	25.530	1139.400	907.470
359.723	25.323	1139.011	906.036
360.738	25.433	1138.417	906.039
361.752	25.374	1137.753	905.132
362.767	25.524	1136.945	905.165
363.781	25.428	1136.519	904.262
364.796	25.532	1136.224	904.473
365.810	25.485	1135.660	903.704
366.825	25.501	1135.001	903.181
367.840	25.492	1134.582	902.725
368.854	25.637	1133.650	902.627
369.869	25.635	1132.411	901.554
370.883	25.507	1132.130	900.610
371.898	25.579	1131.473	900.368
372.913	25.650	1130.792	900.099
373.927	25.627	1130.432	899.620
374.942	25.551	1130.192	898.967
375.956	25.547	1129.795	898.555
376.971	25.605	1128.611	897.819
377.986	25.722	1128.259	898.048
379.000	25.754	1127.588	897.593
380.015	25.691	1127.217	896.903
381.029	25.551	1126.798	895.794
382.044	25.781	1125.765	896.037
383.059	25.798	1125.298	895.672
384.073	25.641	1124.433	894.123
385.088	25.646	1123.822	893.581
386.102	25.676	1123.064	893.047
387.117	25.708	1121.856	892.168
388.132	25.672	1121.175	891.369
389.146	25.788	1120.476	891.307
390.161	25.665	1120.076	890.304
391.175	25.749	1119.212	889.954
392.190	25.806	1118.722	889.766
393.205	25.729	1118.139	888.843
394.219	25.827	1117.050	888.382
395.234	25.919	1116.311	888.170
396.248	25.902	1115.256	887.168
397.263	25.861	1114.226	886.071
398.278	25.877	1113.898	885.806
399.292	25.975	1113.306	885.743
400.307	25.973	1112.486	884.999
401.321	25.843	1112.533	884.323
402.336	25.937	1111.637	883.990
403.350	25.880	1110.989	883.120
404.365	25.971	1110.049	882.737
405.380	25.913	1109.072	881.598
406.394	26.076	1108.166	881.599
407.409	25.924	1108.150	880.766
408.423	25.994	1107.265	880.323
409.438	26.129	1106.479	880.282
410.453	26.068	1105.959	879.490
411.467	26.145	1104.883	878.932
412.482	26.060	1104.457	878.106
413.496	26.089	1103.799	877.645
414.511	26.153	1103.145	877.359
415.526	26.138	1102.567	876.747
416.540	26.036	1102.533	876.146
417.555	26.072	1101.909	875.746
418.569	26.092	1101.150	875.163
419.584	26.182	1100.896	875.321
420.599	26.135	1100.443	874.656
421.613	146.929	1402.124	1795.036
422.628	136.284	1446.065	1795.139
