DTS Sentinel unit serial number:	SN413079Multiplexer serial number:	ORYXHardware model number:	OX4-SRSoftware version number:	ORYX F/W v4.00 Oryx Data Collector v3.7.2.0data status	okinstallation	princeton_trtdifferential loss correction	single-endedforward channel	channel 2reverse channel	N/Adate	2019/09/11time	23:05:11forward acquisition time	60.00reverse acquisition time	0.00gamma	496.2192k internal	0.2325k external	0.2325temperature offset calibration	1.0077default loss term (dB/km)	0.3790temperature slope calibration	1.0000multiplexer offset coefficient	1.0000multiplexer slope coefficient	1.0000fibre end	0.00T internal ref (°C)	34.55T ext. ref 1 (°C)	1.83T ext. ref 2 (°C)	29.24length (m)	temperature (°C)	Stokes	anti-Stokes-747.200	-23.176	0.040	0.024
-746.185	-119.593	-0.324	0.057
-745.171	-200.000	0.008	0.300
-744.156	41.195	-0.319	0.291
-743.142	-84.340	-0.272	0.087
-742.127	62.952	0.153	0.155
-741.112	230.030	0.279	-0.459
-740.098	789.876	-0.054	0.150
-739.083	-200.000	0.001	0.448
-738.069	-30.654	0.486	0.278
-737.054	11.901	-0.190	-0.148
-736.039	275.541	0.074	0.132
-735.025	-72.940	0.173	0.064
-734.010	-119.283	-0.314	-0.055
-732.996	23.309	-0.142	0.117
-731.981	-62.380	0.266	-0.112
-730.966	-15.168	-0.422	-0.273
-729.952	800.000	0.024	0.087
-728.937	-86.658	0.375	0.116
-727.923	-105.111	-0.287	-0.066
-726.908	17.557	0.110	-0.088
-725.894	-145.774	-0.061	0.005
-724.879	800.000	0.036	-0.109
-723.864	-87.897	-0.369	-0.112
-722.850	114.137	-0.197	0.241
-721.835	291.552	0.179	-0.328
-720.821	800.000	0.056	-0.185
-719.806	-56.387	0.254	0.114
-718.791	-161.646	-0.155	-0.008
-717.777	-200.000	0.017	0.090
-716.762	388.064	0.180	-0.375
-715.748	-200.000	0.029	0.228
-714.733	-178.154	-0.293	0.007
-713.718	787.466	0.081	-0.225
-712.704	800.000	0.017	-0.066
-711.689	-159.999	0.157	-0.009
-710.675	-126.599	-0.157	0.023
-709.660	-70.108	-0.162	-0.062
-708.645	150.493	-0.099	0.135
-707.631	-200.000	0.026	0.249
-706.616	-200.000	-0.026	0.221
-705.602	-80.961	0.019	0.006
-704.587	-127.339	-0.015	0.002
-703.572	-123.509	-0.238	-0.038
-702.558	-26.026	0.115	-0.068
-701.543	-166.914	-0.344	0.014
-700.529	800.000	0.029	0.120
-699.514	-200.000	-0.044	-0.320
-698.499	800.000	0.005	-0.014
-697.485	-200.000	-0.005	0.186
-696.470	800.000	-0.086	-0.271
-695.456	542.541	-0.010	-0.023
-694.441	617.904	-0.114	0.289
-693.426	-200.000	-0.007	-0.293
-692.412	-99.343	-0.042	-0.011
-691.397	453.474	0.114	-0.255
-690.383	8.000	0.198	-0.150
-689.368	-43.047	0.205	0.104
-688.354	-99.034	-0.273	-0.070
-687.339	-129.924	-0.112	0.015
-686.324	111.839	-0.259	-0.315
-685.310	467.027	-0.170	-0.384
-684.295	-42.655	-0.178	0.091
-683.281	36.323	0.094	0.084
-682.266	-200.000	-0.013	-0.224
-681.251	-82.526	0.258	-0.084
-680.237	-200.000	0.019	0.091
-679.222	-171.830	-0.158	-0.005
-678.208	-121.929	-0.135	0.022
-677.193	-83.086	-0.172	-0.056
-676.178	-37.010	0.255	-0.138
-675.164	513.373	0.040	0.093
-674.149	418.497	-0.044	0.095
-673.135	-99.152	0.356	-0.091
-672.120	23.870	-0.023	0.019
-671.105	-100.072	-0.293	-0.073
-670.091	-200.000	0.030	0.419
-669.076	-200.000	-0.011	-0.288
-668.062	-30.375	-0.081	-0.046
-667.047	67.432	-0.157	-0.162
-666.032	-85.589	0.267	-0.084
-665.018	19.584	0.198	0.160
-664.003	361.214	-0.040	0.080
-662.989	-91.114	-0.236	-0.068
-661.974	-92.120	-0.262	0.074
-660.959	522.717	0.161	-0.379
-659.945	-48.467	0.219	-0.106
-658.930	163.119	-0.058	-0.082
-657.916	75.536	-0.280	0.297
-656.901	535.147	-0.218	-0.520
-655.886	800.000	0.062	-0.172
-654.872	-131.650	0.199	0.026
-653.857	800.000	-0.022	-0.067
-652.843	130.438	-0.111	-0.144
-651.828	800.000	0.061	-0.223
-650.814	143.536	-0.195	-0.262
-649.799	-200.000	0.037	-0.240
-648.784	4.578	-0.226	-0.167
-647.770	32.392	0.192	-0.167
-646.755	168.563	0.193	0.276
-645.741	139.683	0.149	-0.197
-644.726	126.223	0.104	-0.133
-643.711	-4.649	0.399	-0.277
-642.697	800.000	0.074	-0.279
-641.682	-126.768	-0.075	0.011
-640.668	-35.260	-0.291	0.159
-639.653	205.614	0.065	-0.101
-638.638	20.588	-0.281	0.228
-637.624	-17.056	0.204	0.129
-636.609	-7.874	-0.109	0.074
-635.595	68.672	0.054	-0.056
-634.580	330.996	-0.152	-0.295
-633.565	184.411	-0.200	0.297
-632.551	-29.654	0.067	-0.039
-631.536	366.650	-0.068	0.137
-630.522	-154.521	0.201	0.013
-629.507	-14.604	-0.154	0.099
-628.492	573.409	-0.044	-0.107
-627.478	82.727	0.073	-0.080
-626.463	800.000	0.057	0.206
-625.449	-11.898	0.256	0.169
-624.434	60.912	0.107	0.107
-623.419	2.305	-0.066	-0.048
-622.405	88.100	-0.059	-0.066
-621.390	176.080	-0.162	-0.236
-620.376	367.416	-0.120	0.244
-619.361	-165.133	0.350	-0.016
-618.346	183.297	0.070	0.104
-617.332	-135.574	0.295	-0.035
-616.317	232.408	-0.090	-0.148
-615.303	56.032	-0.060	0.058
-614.288	-200.000	0.033	0.323
-613.273	437.136	-0.026	0.056
-612.259	42.857	0.104	-0.095
-611.244	800.000	-0.055	0.243
-610.230	566.601	-0.085	0.207
-609.215	-74.393	0.353	0.128
-608.201	347.668	0.098	-0.194
-607.186	8.822	0.124	-0.094
-606.171	42.412	-0.238	0.217
-605.157	314.751	-0.059	0.112
-604.142	-200.000	0.006	-0.097
-603.128	-200.000	-0.002	0.195
-602.113	162.480	-0.304	0.428
-601.098	-10.309	-0.243	-0.161
-600.084	25.483	0.132	0.110
-599.069	139.853	-0.083	-0.110
-598.055	102.278	-0.091	0.106
-597.040	118.480	-0.139	-0.172
-596.025	68.311	-0.370	-0.380
-595.011	-200.000	0.052	-0.252
-593.996	246.829	-0.109	0.185
-592.982	-200.000	0.022	-0.390
-591.967	-168.267	0.226	0.009
-590.952	-44.597	-0.320	-0.160
-589.938	58.997	0.139	0.138
-588.923	-125.037	-0.246	0.038
-587.909	14.988	0.075	-0.059
-586.894	-191.028	0.142	-0.001
-585.879	-200.000	0.036	-0.266
-584.865	326.087	-0.075	0.145
-583.850	-68.365	0.236	-0.092
-582.836	-22.252	0.200	0.122
-581.821	-80.867	0.223	0.074
-580.806	100.473	0.297	0.346
-579.792	111.708	-0.143	-0.173
-578.777	-118.368	0.188	0.034
-577.763	78.354	0.073	-0.078
-576.748	-48.660	0.206	-0.099
-575.733	-135.457	-0.108	-0.013
-574.719	175.006	-0.080	0.116
-573.704	463.292	0.227	0.507
-572.690	-200.000	0.032	0.258
-571.675	-81.136	0.223	0.074
-570.661	-90.393	0.269	-0.078
-569.646	-153.281	-0.153	0.011
-568.631	-59.174	0.268	0.116
-567.617	-74.553	0.480	0.173
-566.602	800.000	0.007	0.028
-565.588	800.000	-0.050	0.150
-564.573	138.559	0.102	0.134
-563.558	-126.592	-0.240	-0.036
-562.544	-93.495	-0.127	0.035
-561.529	-57.887	0.095	0.042
-560.515	232.419	0.047	-0.077
-559.500	-62.090	-0.077	0.032
-558.485	800.000	-0.059	0.207
-557.471	-200.000	0.014	-0.107
-556.456	240.930	0.185	-0.310
-555.442	-186.849	0.052	0.001
-554.427	800.000	-0.099	-0.307
-553.412	-23.001	0.200	-0.121
-552.398	174.195	0.198	-0.286
-551.383	-123.738	-0.287	-0.045
-550.369	-123.285	-0.196	0.031
-549.354	83.827	-0.163	0.179
-548.339	-199.385	0.199	0.001
-547.325	-145.586	0.223	0.020
-546.310	800.000	-0.082	-0.289
-545.296	25.611	-0.379	0.316
-544.281	800.000	-0.059	-0.193
-543.266	-80.151	-0.066	-0.022
-542.252	-17.231	0.297	-0.187
-541.237	-200.000	-0.007	0.355
-540.223	4.055	0.118	-0.086
-539.208	77.926	0.063	-0.068
-538.193	-99.003	-0.036	0.009
-537.179	42.086	-0.240	-0.218
-536.164	-69.691	-0.264	-0.101
-535.150	-200.000	0.029	0.217
-534.135	-152.659	0.196	0.014
-533.121	-55.090	-0.156	0.070
-532.106	-127.257	-0.121	0.018
-531.091	-102.845	-0.254	-0.060
-530.077	-200.000	-0.013	-0.173
-529.062	-12.486	-0.271	0.177
-528.048	241.845	-0.098	0.164
-527.033	23.962	0.214	0.176
-526.018	800.000	0.084	0.320
-525.004	560.758	-0.034	-0.082
-523.989	-40.639	-0.247	0.128
-522.975	273.815	-0.052	0.093
-521.960	-200.000	-0.024	0.258
-520.945	-40.060	0.093	-0.048
-519.931	-77.823	-0.120	-0.041
-518.916	-200.000	0.047	0.244
-517.902	-29.975	-0.276	0.157
-516.887	-46.958	-0.153	-0.075
-515.872	-200.000	0.017	-0.109
-514.858	-69.276	0.301	-0.116
-513.843	800.000	-0.127	0.492
-512.829	-43.599	0.121	0.061
-511.814	122.552	-0.230	0.287
-510.799	-46.632	0.132	0.065
-509.785	119.341	-0.290	0.359
-508.770	288.687	0.077	-0.139
-507.756	-119.436	0.185	-0.032
-506.741	-77.182	0.280	0.097
-505.726	-51.287	-0.313	0.147
-504.712	369.477	-0.112	-0.226
-503.697	10.021	-0.287	-0.218
-502.683	302.747	0.097	0.180
-501.668	-200.000	-0.054	0.283
-500.653	337.549	0.112	-0.218
-499.639	800.000	0.075	0.265
-498.624	-60.122	0.442	-0.188
-497.610	174.845	-0.131	0.189
-496.595	-138.942	-0.075	0.008
-495.581	-127.697	-0.242	-0.035
-494.566	800.000	-0.031	-0.087
-493.551	-89.594	-0.087	-0.026
-492.537	-134.925	-0.141	-0.017
-491.522	-47.066	-0.189	-0.092
-490.508	-137.082	0.350	0.040
-489.493	115.553	0.111	-0.135
-488.478	-61.018	0.258	-0.109
-487.464	-200.000	0.071	0.368
-486.449	-104.288	-0.173	0.040
-485.435	123.729	-0.179	-0.225
-484.420	-200.000	-0.003	0.071
-483.405	800.000	0.120	-0.355
-482.391	377.954	-0.013	0.027
-481.376	800.000	-0.068	-0.231
-480.362	-50.228	0.223	0.105
-479.347	267.185	-0.208	0.363
-478.332	-9.543	0.113	0.075
-477.318	-15.197	-0.039	-0.025
-476.303	-105.061	-0.211	-0.048
-475.289	-200.000	-0.001	0.218
-474.274	589.921	0.084	-0.207
-473.259	-39.207	-0.104	-0.055
-472.245	-114.226	0.237	0.046
-471.230	-8.986	-0.389	-0.260
-470.216	251.292	-0.060	-0.102
-469.201	-104.469	0.059	0.014
-468.186	228.795	-0.222	-0.361
-467.172	372.538	0.098	0.199
-466.157	23.809	-0.286	-0.235
-465.143	81.098	-0.282	0.304
-464.128	-200.000	-0.036	-0.347
-463.113	-195.178	-0.158	0.001
-462.099	800.000	0.023	-0.064
-461.084	-63.375	0.135	-0.056
-460.070	624.068	-0.169	0.426
-459.055	-151.483	0.259	0.019
-458.040	-106.694	-0.327	0.073
-457.026	-90.533	-0.151	-0.043
-456.011	-39.196	-0.225	-0.118
-454.997	-200.000	-0.003	0.018
-453.982	-58.902	-0.239	-0.103
-452.968	800.000	-0.112	-0.371
-451.953	310.500	-0.086	-0.160
-450.938	-88.180	-0.060	-0.018
-449.924	-110.198	-0.307	0.064
-448.909	-200.000	-0.042	0.403
-447.895	-200.000	0.022	0.110
-446.880	-112.490	0.087	0.017
-445.865	83.901	0.327	-0.356
-444.851	-116.452	0.149	0.027
-443.836	-30.847	-0.255	0.144
-442.822	-200.000	-0.016	-0.140
-441.807	-114.895	0.246	0.047
-440.792	-56.917	0.074	0.033
-439.778	-99.876	-0.265	0.066
-438.763	32.879	-0.131	-0.113
-437.749	-200.000	-0.005	0.111
-436.734	103.194	0.116	-0.136
-435.719	-200.000	-0.021	0.123
-434.705	-175.823	0.256	0.007
-433.690	62.592	-0.238	0.237
-432.676	104.131	0.260	-0.305
-431.661	-3.415	-0.522	-0.362
-430.646	79.550	-0.189	-0.202
-429.632	-200.000	0.012	0.078
-428.617	-89.611	-0.149	0.044
-427.603	121.382	0.291	0.362
-426.588	-200.000	0.068	-0.453
-425.573	-200.000	0.052	-0.325
-424.559	34.412	-0.215	-0.187
-423.544	88.752	-0.113	0.125
-422.530	-200.000	0.006	0.076
-421.515	226.401	0.242	-0.392
-420.500	411.644	0.077	-0.162
-419.486	92.984	0.066	-0.074
-418.471	-200.000	-0.006	-0.060
-417.457	-112.485	-0.033	0.007
-416.442	76.872	0.176	-0.186
-415.428	800.000	0.034	0.103
-414.413	-126.190	-0.158	0.024
-413.398	-200.000	-0.071	0.314
-412.384	24.217	-0.179	0.147
-411.369	7.347	-0.122	0.091
-410.355	-23.207	-0.059	-0.036
-409.340	9.962	-0.227	0.172
-408.325	-200.000	0.032	0.322
-407.311	163.886	0.193	-0.271
-406.296	-131.961	0.225	-0.029
-405.282	-25.082	-0.157	-0.093
-404.267	-200.000	0.023	0.137
-403.252	800.000	0.006	-0.026
-402.238	211.569	-0.091	-0.143
-401.223	30.442	0.068	-0.058
-400.209	12.483	0.124	-0.096
-399.194	186.323	-0.125	0.185
-398.179	800.000	-0.071	0.264
-397.165	56.892	0.225	0.218
-396.150	-200.000	0.008	0.213
-395.136	106.818	0.096	0.113
-394.121	-41.452	0.110	-0.056
-393.106	-87.065	0.193	-0.059
-392.092	-52.194	-0.312	-0.144
-391.077	-200.000	-0.032	-0.205
-390.063	-200.000	-0.026	0.239
-389.048	163.087	-0.024	-0.033
-388.033	-107.451	-0.022	0.005
-387.019	-4.494	-0.267	0.184
-386.004	-144.853	-0.016	-0.001
-384.990	13.493	0.096	0.074
-383.975	-90.904	-0.321	0.092
-382.960	610.462	0.049	-0.121
-381.946	-22.277	-0.026	-0.016
-380.931	800.000	0.042	-0.180
-379.917	140.004	-0.261	-0.342
-378.902	745.344	-0.082	-0.219
-377.888	-136.895	-0.171	-0.020
-376.873	20.583	-0.087	0.070
-375.858	-109.559	-0.136	-0.029
-374.844	-200.000	0.000	-0.067
-373.829	74.541	0.244	0.255
-372.815	70.895	0.121	-0.125
-371.800	-36.207	-0.092	0.050
-370.785	-119.654	0.066	0.011
-369.771	19.008	-0.235	-0.188
-368.756	47.866	-0.118	-0.109
-367.742	223.082	-0.094	0.150
-366.727	-111.045	-0.130	0.027
-365.712	-87.456	-0.108	-0.033
-364.698	66.798	-0.043	-0.044
-363.683	-200.000	0.010	-0.193
-362.669	-119.723	0.280	0.048
-361.654	800.000	0.017	0.061
-360.639	-88.025	0.277	0.083
-359.625	29.776	0.399	-0.338
-358.610	121.428	-0.246	-0.305
-357.596	28.295	0.186	0.156
-356.581	257.252	0.283	0.484
-355.566	-46.972	0.244	-0.119
-354.552	-46.080	0.105	0.052
-353.537	-132.599	0.357	-0.046
-352.523	-200.000	0.008	-0.094
-351.508	-164.244	0.179	0.008
-350.493	30.468	0.215	0.183
-349.479	-200.000	0.048	-0.227
-348.464	-200.000	0.001	-0.129
-347.450	-53.111	-0.108	-0.049
-346.435	-200.000	0.025	-0.110
-345.420	117.960	-0.173	-0.212
-344.406	276.238	0.205	-0.362
-343.391	-139.556	-0.246	0.026
-342.377	132.233	-0.027	-0.034
-341.362	273.197	0.124	-0.218
-340.348	-200.000	-0.045	0.255
-339.333	-127.924	0.258	0.037
-338.318	-200.000	-0.012	-0.133
-337.304	183.844	0.111	-0.164
-336.289	553.666	0.076	0.181
-335.275	800.000	0.028	-0.079
-334.260	762.330	0.055	-0.147
-333.245	-102.880	-0.109	0.026
-332.231	-82.066	0.174	-0.056
-331.216	56.780	0.156	0.150
-330.202	160.252	-0.100	0.138
-329.187	-30.301	0.192	-0.108
-328.172	-200.000	-0.005	0.129
-327.158	-200.000	0.035	0.226
-326.143	97.546	0.069	0.079
-325.129	-180.481	0.202	0.004
-324.114	-200.000	-0.018	-0.126
-323.099	-94.224	-0.181	-0.049
-322.085	168.745	-0.223	-0.316
-321.070	-23.145	0.609	-0.364
-320.056	-71.056	-0.052	-0.019
-319.041	-70.404	-0.177	-0.067
-318.026	161.051	0.241	0.334
-317.012	800.000	-0.101	-0.335
-315.997	61.356	0.190	-0.187
-314.983	68.398	0.169	0.171
-313.968	-200.000	0.004	0.091
-312.953	115.592	0.183	0.223
-311.939	-65.567	0.057	0.023
-310.924	237.050	0.072	-0.119
-309.910	-44.419	0.170	0.084
-308.895	-200.000	-0.013	-0.183
-307.880	-22.268	0.272	-0.164
-306.866	225.424	0.124	0.199
-305.851	-21.976	-0.156	0.094
-304.837	-200.000	-0.002	0.132
-303.822	-2.359	0.286	0.199
-302.807	68.857	0.107	0.109
-301.793	-200.000	0.005	-0.097
-300.778	-58.071	0.207	0.089
-299.764	-155.442	0.081	-0.005
-298.749	-200.000	0.076	0.335
-297.735	319.491	-0.048	0.090
-296.720	-47.424	0.362	0.175
-295.705	-200.000	0.028	0.160
-294.691	-105.958	0.160	0.036
-293.676	97.143	-0.191	-0.217
-292.662	800.000	-0.067	-0.238
-291.647	-80.370	-0.369	-0.122
-290.632	789.943	0.067	-0.183
-289.618	-133.916	0.338	-0.042
-288.603	228.632	0.047	0.076
-287.589	-3.907	-0.303	-0.208
-286.574	-122.137	-0.062	-0.010
-285.559	-200.000	-0.002	-0.079
-284.545	-139.175	0.266	-0.028
-283.530	217.236	0.064	-0.101
-282.516	208.777	0.098	-0.151
-281.501	-142.895	-0.493	0.047
-280.486	-55.398	-0.207	0.092
-279.472	277.387	-0.081	-0.143
-278.457	-20.265	0.140	0.085
-277.443	202.421	0.016	0.025
-276.428	-200.000	0.025	0.230
-275.413	81.200	-0.142	0.152
-274.399	21.544	0.166	0.134
-273.384	-200.000	0.030	-0.482
-272.370	406.689	0.157	-0.329
-271.355	180.748	-0.075	-0.109
-270.340	70.929	-0.270	0.277
-269.326	-200.000	-0.020	-0.122
-268.311	54.058	0.446	0.425
-267.297	-90.812	0.197	-0.056
-266.282	-80.921	-0.185	-0.061
-265.267	81.917	0.391	-0.419
-264.253	1.086	0.183	0.130
-263.238	45.117	-0.222	0.203
-262.224	143.310	0.139	-0.183
-261.209	-12.280	-0.210	-0.136
-260.195	410.902	-0.027	0.057
-259.180	800.000	-0.078	0.240
-258.165	367.789	-0.106	-0.211
-257.151	-5.956	-0.193	0.131
-256.136	-41.354	-0.315	-0.161
-255.122	-179.838	0.543	0.012
-254.107	-111.803	0.130	-0.026
-253.092	126.543	-0.106	0.132
-252.078	59.427	-0.044	0.043
-251.063	213.156	-0.245	0.382
-250.049	800.000	-0.080	0.264
-249.034	-6.029	0.230	0.156
-248.019	-65.980	-0.398	-0.157
-247.005	-200.000	0.017	0.276
-245.990	202.088	0.107	-0.163
-244.976	-200.000	0.015	-0.096
-243.961	14.912	0.066	0.051
-242.946	-10.594	0.087	-0.057
-241.932	-200.000	0.020	-0.227
-240.917	63.231	0.082	0.081
-239.903	-81.291	0.063	-0.020
-238.888	-161.417	0.329	-0.017
-237.873	50.577	-0.159	-0.149
-236.859	390.725	-0.222	-0.455
-235.844	-62.938	-0.083	0.034
-234.830	237.806	0.110	0.181
-233.815	123.742	0.317	-0.393
-232.800	-124.151	-0.197	0.031
-231.786	-11.522	-0.218	0.142
-230.771	-200.000	-0.006	-0.033
-229.757	-8.172	-0.152	0.101
-228.742	-53.170	0.247	0.112
-227.727	-111.777	-0.150	0.030
-226.713	366.752	-0.074	0.147
-225.698	800.000	-0.024	-0.090
-224.684	133.582	-0.069	-0.089
-223.669	-164.424	0.164	-0.007
-222.655	-166.626	0.123	-0.005
-221.640	324.626	0.069	0.129
-220.625	-112.742	0.392	0.077
-219.611	-106.667	-0.373	0.082
-218.596	800.000	0.063	-0.180
-217.582	-8.228	-0.117	0.078
-216.567	258.438	-0.062	0.106
-215.552	-99.399	0.219	0.055
-214.538	800.000	0.060	-0.190
-213.523	800.000	-0.043	-0.186
-212.509	-200.000	0.017	-0.107
-211.494	30.119	0.221	-0.187
-210.479	42.423	0.130	0.117
-209.465	800.000	-0.046	0.126
-208.450	-69.492	-0.026	-0.010
-207.436	-178.085	0.127	-0.003
-206.421	-98.968	0.252	-0.063
-205.406	800.000	-0.076	-0.289
-204.392	-137.256	-0.137	0.015
-203.377	-200.000	-0.009	0.061
-202.363	6.918	0.063	0.047
-201.348	652.895	0.091	0.231
-200.333	800.000	-0.040	-0.142
-199.319	-200.000	0.043	0.429
-198.304	-73.251	0.150	-0.054
-197.290	-118.067	-0.428	0.076
-196.275	446.173	-0.034	-0.073
-195.260	159.328	0.098	-0.134
-194.246	-200.000	-0.048	0.222
-193.231	104.216	-0.115	0.134
-192.217	44.063	0.269	-0.243
-191.202	54.673	-0.082	-0.078
-190.187	-32.537	-0.337	0.186
-189.173	42.474	-0.107	0.096
-188.158	-160.905	-0.223	-0.012
-187.144	-75.016	-0.063	0.022
-186.129	-61.632	0.126	0.052
-185.114	-9.405	-0.295	0.194
-184.100	-10.534	-0.118	0.077
-183.085	-177.183	0.199	-0.005
-182.071	-32.276	0.120	-0.066
-181.056	-200.000	0.049	0.307
-180.042	-63.742	0.144	-0.058
-179.027	-190.910	-0.187	0.002
-178.012	-22.317	0.079	0.047
-176.998	19.537	-0.058	0.046
-175.983	-200.000	0.030	-0.232
-174.969	-200.000	-0.008	-0.058
-173.954	-58.185	0.195	-0.084
-172.939	-46.707	-0.197	-0.095
-171.925	-182.929	-0.270	-0.005
-170.910	368.878	-0.104	0.207
-169.896	-24.853	0.044	0.026
-168.881	-193.871	0.089	-0.001
-167.866	-200.000	-0.039	-0.290
-166.852	567.783	-0.063	0.150
-165.837	-20.455	-0.257	0.156
-164.823	-126.471	0.154	-0.023
-163.808	-200.000	-0.041	0.354
-162.793	-102.421	-0.071	0.017
-161.779	152.629	-0.284	-0.383
-160.764	800.000	-0.030	0.084
-159.750	-200.000	0.002	0.092
-158.735	-71.470	-0.184	0.068
-157.720	-200.000	0.032	-0.301
-156.706	800.000	-0.046	-0.148
-155.691	-120.186	-0.180	0.030
-154.677	-15.060	-0.041	-0.026
-153.662	237.948	-0.207	0.339
-152.647	-187.293	-0.234	0.003
-151.633	800.000	-0.021	-0.059
-150.618	800.000	0.021	0.077
-149.604	-51.309	-0.070	-0.032
-148.589	-60.668	0.238	0.099
-147.574	800.000	0.020	-0.076
-146.560	-114.460	-0.650	-0.123
-145.545	800.000	0.060	0.231
-144.531	76.369	-0.207	0.216
-143.516	-83.058	-0.157	-0.050
-142.502	176.976	-0.224	0.322
-141.487	-74.580	-0.124	0.044
-140.472	68.038	-0.201	-0.202
-139.458	-121.772	0.361	0.059
-138.443	-200.000	0.048	-0.233
-137.429	-20.553	-0.267	0.161
-136.414	11.566	-0.130	0.098
-135.399	800.000	0.089	0.298
-134.385	-187.051	-0.142	-0.002
-133.370	147.410	-0.189	-0.250
-132.356	-200.000	-0.037	0.175
-131.341	465.913	0.064	-0.142
-130.326	-151.070	0.248	-0.018
-129.312	81.923	0.112	0.119
-128.297	-200.000	0.066	-0.400
-127.283	-200.000	-0.009	-0.228
-126.268	-200.000	0.011	0.201
-125.253	-98.697	-0.523	-0.131
-124.239	-29.326	-0.304	-0.171
-123.224	18.486	0.089	0.070
-122.210	-169.430	-0.387	-0.014
-121.195	-78.213	-0.075	-0.025
-120.180	-73.638	0.298	-0.107
-119.166	-11.381	0.191	0.124
-118.151	67.590	-0.120	0.121
-117.137	-113.296	-0.088	-0.017
-116.122	-200.000	-0.008	-0.106
-115.107	59.253	0.163	-0.158
-114.093	-200.000	0.083	0.368
-113.078	683.933	0.068	-0.175
-112.064	-159.777	-0.041	0.002
-111.049	-200.000	0.051	-0.318
-110.034	-200.000	-0.011	-0.254
-109.020	57.716	0.189	0.182
-108.005	800.000	0.030	0.098
-106.991	-200.000	0.034	0.213
-105.976	-200.000	-0.021	0.136
-104.962	800.000	0.059	-0.173
-103.947	175.496	-0.058	-0.083
-102.932	-123.807	-0.204	0.032
-101.918	-15.087	-0.160	0.101
-100.903	157.614	0.084	-0.114
-99.889	295.884	-0.195	0.351
-98.874	-118.623	-0.084	-0.015
-97.859	440.477	-0.132	-0.284
-96.845	-200.000	-0.037	-0.234
-95.830	-62.410	0.038	0.016
-94.816	-11.174	-0.062	0.040
-93.801	-165.327	-0.096	0.004
-92.786	19.049	-0.239	-0.189
-91.772	-46.834	-0.214	0.103
-90.757	800.000	0.042	-0.146
-89.743	777.720	-0.110	0.297
-88.728	-14.009	0.068	0.043
-87.713	-54.845	-0.257	-0.114
-86.699	-17.217	0.405	0.251
-85.684	29.416	0.249	0.208
-84.670	249.042	0.068	-0.114
-83.655	800.000	-0.130	0.368
-82.640	-200.000	-0.022	-0.228
-81.626	172.964	0.142	0.201
-80.611	33.635	0.248	0.212
-79.597	-200.000	-0.029	0.222
-78.582	-137.445	0.211	-0.023
-77.567	154.792	0.332	0.449
-76.553	-39.163	0.317	0.164
-75.538	-200.000	-0.015	0.076
-74.524	-131.131	0.176	-0.023
-73.509	258.263	0.136	-0.230
-72.494	606.378	-0.048	-0.119
-71.480	173.705	0.037	0.053
-70.465	458.017	-0.164	-0.358
-69.451	186.118	-0.255	-0.373
-68.436	800.000	0.079	-0.268
-67.422	24.331	0.066	-0.054
-66.407	140.742	-0.043	0.056
-65.392	275.101	0.133	0.232
-64.378	-10.880	0.245	-0.159
-63.363	-133.875	-0.537	0.066
-62.349	166.026	-0.117	0.163
-61.334	203.622	-0.737	-1.121
-60.319	182.262	0.389	0.563
-59.305	293.042	-0.329	-0.589
-58.290	188.351	0.726	1.067
-57.276	800.000	0.580	1.628
-56.261	-200.000	98.066	589.204
-55.246	562.884	1387.393	3298.582
-54.232	153.708	2596.078	3494.102
-53.217	109.322	2281.278	2682.801
-52.203	44.122	1898.222	1709.819
-51.188	37.888	1687.889	1473.380
-50.173	35.080	1643.364	1413.762
-49.159	53.849	1692.734	1597.144
-48.144	56.953	1710.229	1636.774
-47.130	37.642	1665.628	1451.882
-46.115	34.691	1650.460	1416.753
-45.100	34.415	1646.230	1411.026
-44.086	34.470	1643.482	1409.020
-43.071	34.429	1640.589	1406.182
-42.057	34.429	1638.430	1404.275
-41.042	34.502	1636.427	1403.038
-40.027	34.441	1634.662	1401.021
-39.013	34.461	1632.159	1398.966
-37.998	34.381	1630.490	1396.893
-36.984	34.427	1629.383	1396.226
-35.969	34.553	1627.578	1395.550
-34.954	34.673	1626.139	1395.138
-33.940	34.504	1624.797	1392.693
-32.925	34.569	1622.396	1391.057
-31.911	34.566	1621.132	1389.898
-30.896	34.521	1619.378	1388.009
-29.881	34.468	1617.903	1386.303
-28.867	34.412	1616.477	1384.618
-27.852	34.521	1614.680	1383.817
-26.838	34.599	1612.886	1382.787
-25.823	34.575	1611.439	1381.319
-24.809	34.562	1610.364	1380.250
-23.794	34.508	1609.310	1378.903
-22.779	34.490	1607.914	1377.523
-21.765	34.568	1606.061	1376.439
-20.750	34.475	1604.860	1374.691
-19.736	34.585	1603.586	1374.336
-18.721	34.608	1601.477	1372.639
-17.706	34.617	1599.743	1371.160
-16.692	34.519	1598.334	1369.196
-15.677	34.577	1597.013	1368.427
-14.663	34.547	1595.720	1367.050
-13.648	34.624	1594.069	1366.131
-12.633	34.599	1592.881	1364.879
-11.619	34.625	1591.332	1363.686
-10.604	34.662	1589.610	1362.419
-9.590	34.612	1588.284	1360.874
-8.575	34.625	1586.750	1359.594
-7.560	34.579	1585.865	1358.458
-6.546	34.616	1584.871	1357.817
-5.531	34.613	1583.470	1356.539
-4.517	34.508	1582.799	1355.166
-3.502	34.628	1581.339	1354.712
-2.487	34.671	1579.499	1353.388
-1.473	34.290	1568.638	1341.341
-0.458	31.635	1549.302	1306.259
0.556	28.163	1549.408	1274.204
1.571	25.763	1573.511	1276.918
2.586	25.280	1587.582	1284.763
3.600	22.512	1534.920	1222.851
4.615	12.788	1423.619	1071.164
5.629	3.680	1356.489	963.926
6.644	2.033	1347.235	947.049
7.659	1.854	1345.658	944.749
8.673	1.734	1344.693	943.241
9.688	1.689	1343.079	941.747
10.702	1.554	1340.021	938.690
11.717	5.093	1347.222	965.582
12.731	15.348	1366.787	1043.619
13.746	23.782	1381.025	1107.189
14.761	25.906	1383.245	1122.110
15.775	26.151	1383.122	1123.435
16.790	26.269	1382.288	1123.392
17.804	26.161	1382.259	1122.601
18.819	26.590	1381.634	1124.658
19.834	26.548	1381.290	1124.017
20.848	26.647	1380.015	1123.496
21.863	26.642	1379.414	1122.877
22.877	26.554	1378.863	1121.780
23.892	26.615	1378.070	1121.418
24.907	26.564	1377.229	1120.318
25.921	26.596	1376.205	1119.583
26.936	26.668	1374.858	1118.835
27.950	26.644	1374.192	1118.045
28.965	26.539	1373.189	1116.478
29.980	26.563	1371.449	1115.113
30.994	26.590	1370.404	1114.332
32.009	26.668	1368.970	1113.549
33.023	26.622	1367.923	1112.313
34.038	26.514	1367.249	1111.003
35.053	26.601	1366.037	1110.456
36.067	26.541	1365.172	1109.284
37.082	26.647	1363.890	1108.796
38.096	26.590	1363.355	1107.912
39.111	26.604	1362.515	1107.217
40.126	26.561	1361.842	1106.311
41.140	26.569	1361.118	1105.671
42.155	26.722	1360.312	1105.855
43.169	26.676	1360.415	1105.560
44.184	26.563	1360.668	1104.979
45.199	26.650	1360.116	1104.965
46.213	26.512	1359.971	1103.906
47.228	26.451	1358.950	1102.606
48.242	26.564	1357.379	1101.924
49.257	26.657	1355.787	1101.096
50.271	26.664	1354.206	1099.759
51.286	26.614	1353.667	1098.920
52.301	26.583	1351.896	1097.201
53.315	26.554	1351.405	1096.524
54.330	26.554	1350.535	1095.721
55.344	26.557	1349.317	1094.655
56.359	26.545	1348.119	1093.516
57.374	26.607	1347.195	1093.044
58.388	26.559	1347.137	1092.609
59.403	26.526	1347.124	1092.306
60.417	26.492	1346.257	1091.301
61.432	26.518	1345.035	1090.370
62.447	26.471	1344.509	1089.565
63.461	26.618	1343.362	1089.419
64.476	26.653	1342.405	1088.757
65.490	26.651	1340.665	1087.242
66.505	26.599	1338.875	1085.382
67.520	26.582	1338.329	1084.738
68.534	26.695	1336.813	1084.094
69.549	26.584	1336.224	1082.852
70.563	26.613	1335.357	1082.228
71.578	26.652	1334.252	1081.471
72.593	26.636	1333.827	1080.932
73.607	26.652	1333.225	1080.449
74.622	26.584	1332.253	1079.155
75.636	26.643	1331.602	1078.887
76.651	26.583	1330.804	1077.786
77.666	26.570	1330.527	1077.393
78.680	26.587	1329.911	1076.898
79.695	26.648	1329.340	1076.703
80.709	26.578	1328.451	1075.473
81.724	26.609	1327.433	1074.735
82.739	26.618	1326.116	1073.630
83.753	26.590	1325.607	1072.953
84.768	26.520	1324.848	1071.833
85.782	26.622	1323.265	1071.060
86.797	26.650	1322.410	1070.437
87.812	26.621	1321.110	1069.119
88.826	26.671	1319.971	1068.395
89.841	26.645	1318.624	1067.060
90.855	26.720	1318.229	1067.089
91.870	26.612	1317.557	1065.810
92.884	26.736	1316.111	1065.278
93.899	26.609	1315.901	1064.266
94.914	26.725	1314.938	1064.077
95.928	26.589	1314.609	1062.915
96.943	26.672	1313.559	1062.458
97.957	26.747	1312.928	1062.293
98.972	26.719	1311.997	1061.287
99.987	26.634	1310.981	1059.873
101.001	26.654	1310.040	1059.133
102.016	26.621	1309.266	1058.219
103.030	26.603	1308.723	1057.584
104.045	26.641	1307.445	1056.678
105.060	26.605	1306.990	1056.008
106.074	26.711	1305.855	1055.616
107.089	26.724	1304.595	1054.580
108.103	26.721	1303.481	1053.570
109.118	26.699	1302.298	1052.391
110.133	26.715	1301.407	1051.671
111.147	26.677	1300.384	1050.533
112.162	26.700	1299.266	1049.670
113.176	26.747	1298.249	1049.024
114.191	26.787	1297.258	1048.362
115.206	26.731	1296.350	1047.211
116.220	26.730	1295.321	1046.281
117.235	26.679	1294.445	1045.191
118.249	26.650	1293.844	1044.446
119.264	26.621	1293.055	1043.546
120.279	26.761	1291.846	1043.282
121.293	26.804	1291.167	1042.892
122.308	26.828	1290.596	1042.474
123.322	26.734	1289.721	1041.136
124.337	26.700	1288.983	1040.252
125.352	26.888	1287.767	1040.258
126.366	26.797	1286.822	1038.880
127.381	26.838	1286.159	1038.490
128.395	26.716	1285.410	1037.097
129.410	26.690	1284.636	1036.228
130.424	26.733	1283.999	1035.868
131.439	26.827	1282.895	1035.424
132.454	26.753	1282.291	1034.424
133.468	26.828	1281.801	1034.363
134.483	26.742	1281.177	1033.276
135.497	26.792	1280.507	1032.933
136.512	26.822	1279.401	1032.121
137.527	26.687	1278.355	1030.416
138.541	26.718	1277.065	1029.460
139.556	26.795	1275.908	1028.877
140.570	26.644	1275.395	1027.513
141.585	26.788	1273.988	1027.107
142.600	26.633	1273.167	1025.476
143.614	26.836	1272.106	1025.677
144.629	26.729	1271.123	1024.187
145.643	26.739	1269.903	1023.175
146.658	26.618	1269.026	1021.693
147.673	26.730	1267.965	1021.380
148.687	26.711	1267.150	1020.524
149.702	26.669	1266.014	1019.287
150.716	26.641	1264.829	1018.081
151.731	26.782	1263.743	1017.907
152.746	26.704	1263.102	1016.867
153.760	26.797	1261.694	1016.163
154.775	26.834	1260.714	1015.492
155.789	26.935	1259.888	1015.302
156.804	26.783	1259.153	1013.770
157.819	26.778	1258.171	1012.861
158.833	26.833	1257.743	1012.732
159.848	26.923	1256.541	1012.180
160.862	26.900	1256.108	1011.611
161.877	26.809	1255.693	1010.682
162.892	26.785	1254.424	1009.438
163.906	26.919	1253.902	1009.673
164.921	26.814	1253.314	1008.525
165.935	26.874	1252.169	1007.850
166.950	26.887	1251.766	1007.507
167.964	26.863	1251.134	1006.773
168.979	26.803	1250.942	1006.202
169.994	26.893	1250.233	1006.041
171.008	26.962	1249.158	1005.469
172.023	26.965	1248.282	1004.689
173.037	26.828	1248.136	1003.728
174.052	26.890	1247.141	1003.181
175.067	26.862	1246.155	1002.144
176.081	26.897	1245.282	1001.547
177.096	26.880	1244.392	1000.650
178.110	26.971	1243.385	1000.249
179.125	26.913	1242.823	999.389
180.140	26.927	1241.753	998.520
181.154	26.960	1240.514	997.613
182.169	26.918	1239.363	996.373
183.183	26.885	1238.923	995.748
184.198	26.922	1237.827	994.980
185.213	27.034	1236.729	994.624
186.227	26.938	1236.451	993.787
187.242	26.985	1235.247	992.990
188.256	26.996	1234.445	992.318
189.271	27.007	1233.442	991.482
190.286	27.046	1233.094	991.327
191.300	26.995	1232.471	990.463
192.315	26.958	1232.000	989.793
193.329	26.907	1231.794	989.261
194.344	27.040	1230.811	989.108
195.359	26.985	1230.552	988.513
196.373	27.062	1230.150	988.521
197.388	27.038	1229.221	987.556
198.402	26.945	1228.972	986.765
199.417	26.955	1228.472	986.332
200.432	26.916	1228.053	985.696
201.446	26.965	1227.422	985.366
202.461	26.977	1226.752	984.806
203.475	27.056	1225.713	984.314
204.490	26.943	1224.697	982.800
205.504	26.985	1224.048	982.421
206.519	27.073	1222.723	981.744
207.534	27.145	1221.695	981.224
208.548	27.094	1220.685	980.050
209.563	27.061	1220.638	979.745
210.577	26.957	1220.194	978.741
211.592	26.972	1218.712	977.548
212.607	27.073	1218.238	977.623
213.621	27.083	1217.429	976.942
214.636	27.177	1216.904	976.939
215.650	27.098	1215.840	975.575
216.665	27.094	1215.038	974.824
217.680	27.100	1213.839	973.807
218.694	26.994	1213.260	972.691
219.709	27.104	1212.324	972.444
220.723	27.043	1212.163	971.901
221.738	27.071	1211.290	971.264
222.753	27.024	1210.548	970.334
223.767	27.045	1210.085	969.988
224.782	27.323	1208.727	970.293
225.796	27.314	1208.688	970.129
226.811	27.175	1208.271	968.969
227.826	27.290	1207.341	968.747
228.840	27.197	1207.106	967.980
229.855	27.184	1206.398	967.256
230.869	27.251	1205.670	966.942
231.884	27.164	1205.190	966.008
232.899	27.215	1204.394	965.560
233.913	27.223	1203.587	964.867
234.928	27.239	1203.140	964.510
235.942	27.275	1202.609	964.188
236.957	27.247	1202.043	963.504
237.972	27.294	1201.001	962.829
238.986	27.324	1200.374	962.404
240.001	27.329	1199.936	961.990
241.015	27.266	1199.019	960.840
242.030	27.336	1198.339	960.580
243.045	27.402	1197.508	960.175
244.059	27.444	1196.998	959.904
245.074	27.361	1195.945	958.536
246.088	27.381	1195.207	957.965
247.103	27.426	1194.719	957.724
248.117	27.322	1193.993	956.511
249.132	27.353	1193.386	956.105
250.147	27.466	1192.328	955.767
251.161	27.438	1191.720	955.048
252.176	27.434	1190.920	954.301
253.190	27.446	1190.344	953.819
254.205	27.360	1190.130	953.111
255.220	27.416	1189.339	952.683
256.234	27.437	1188.998	952.437
257.249	27.442	1188.070	951.634
258.263	27.485	1187.645	951.439
259.278	27.369	1187.498	950.631
260.293	27.504	1186.496	950.448
261.307	27.685	1185.793	950.744
262.322	27.547	1185.354	949.589
263.336	27.499	1184.830	948.836
264.351	27.463	1184.137	948.006
265.366	27.407	1183.777	947.342
266.380	27.683	1182.468	947.647
267.395	27.505	1181.955	946.226
268.409	27.374	1181.801	945.338
269.424	27.456	1181.229	945.226
270.439	27.507	1180.428	944.766
271.453	27.566	1179.762	944.452
272.468	27.572	1178.941	943.746
273.482	27.513	1178.305	942.844
274.497	27.544	1178.039	942.708
275.512	27.546	1177.434	942.154
276.526	27.561	1176.698	941.558
277.541	27.656	1175.760	941.213
278.555	27.524	1175.561	940.292
279.570	27.649	1174.557	940.048
280.585	27.547	1173.690	938.744
281.599	27.617	1172.688	938.220
282.614	27.708	1171.486	937.646
283.628	27.730	1171.284	937.514
284.643	27.648	1170.322	936.238
285.657	27.720	1169.567	935.921
286.672	27.734	1168.570	935.115
287.687	27.636	1167.890	933.986
288.701	27.798	1167.067	934.073
289.716	27.786	1166.437	933.424
290.730	27.653	1166.268	932.525
291.745	27.806	1165.481	932.595
292.760	27.917	1164.734	932.484
293.774	27.795	1164.445	931.544
294.789	27.820	1163.467	930.808
295.803	27.901	1162.996	930.763
296.818	27.831	1162.415	929.858
297.833	27.900	1161.555	929.439
298.847	27.836	1161.188	928.738
299.862	27.762	1160.512	927.741
300.876	27.906	1159.441	927.535
301.891	27.914	1159.009	927.146
302.906	27.913	1158.715	926.824
303.920	28.034	1157.516	926.396
304.935	27.949	1157.382	925.777
305.949	27.862	1156.639	924.659
306.964	27.951	1155.975	924.495
307.979	27.913	1155.588	923.915
308.993	27.839	1155.093	923.062
310.008	28.121	1153.602	923.212
311.022	27.939	1153.342	922.005
312.037	27.984	1152.665	921.609
313.052	27.971	1151.446	920.488
314.066	27.960	1150.690	919.742
315.081	28.047	1149.840	919.423
316.095	28.051	1148.964	918.662
317.110	27.912	1148.881	917.816
318.125	28.016	1148.096	917.627
319.139	28.195	1147.360	917.854
320.154	28.105	1147.118	917.130
321.168	28.053	1146.780	916.516
322.183	27.965	1145.908	915.301
323.197	27.975	1145.893	915.256
324.212	28.029	1145.072	914.788
325.227	28.107	1144.060	914.292
326.241	28.125	1144.035	914.280
327.256	28.117	1143.348	913.609
328.270	28.163	1142.144	912.794
329.285	28.115	1141.493	911.955
330.300	28.192	1140.789	911.696
331.314	28.103	1140.227	910.724
332.329	28.117	1139.462	910.101
333.343	28.158	1138.417	909.388
334.358	28.270	1137.619	909.227
335.373	28.267	1136.990	908.628
336.387	28.350	1136.354	908.455
337.402	28.244	1135.893	907.479
338.416	28.322	1135.016	907.086
339.431	28.214	1134.700	906.214
340.446	28.319	1133.832	905.963
341.460	28.381	1133.279	905.745
342.475	28.275	1132.484	904.510
343.489	28.410	1131.602	904.389
344.504	28.325	1130.894	903.324
345.519	28.337	1129.855	902.474
346.533	28.267	1129.348	901.642
347.548	28.338	1128.594	901.313
348.562	28.326	1127.930	900.642
349.577	28.456	1127.004	900.462
350.592	28.293	1126.548	899.216
351.606	28.426	1125.259	898.762
352.621	28.333	1125.407	898.345
353.635	28.333	1125.027	897.961
354.650	28.363	1124.067	897.262
355.665	28.463	1123.222	896.998
356.679	28.541	1122.467	896.699
357.694	28.431	1121.992	895.702
358.708	28.468	1121.192	895.162
359.723	28.388	1120.803	894.382
360.738	28.439	1120.395	894.230
361.752	28.446	1119.683	893.616
362.767	28.509	1119.451	893.657
363.781	28.551	1118.593	893.098
364.796	28.591	1118.285	892.969
365.810	28.498	1117.608	891.895
366.825	28.611	1116.683	891.626
367.840	28.677	1116.357	891.608
368.854	28.602	1116.164	891.013
369.869	28.704	1114.848	890.377
370.883	28.491	1114.697	889.146
371.898	28.706	1113.481	889.138
372.913	28.699	1113.208	888.807
373.927	28.681	1112.829	888.336
374.942	28.662	1112.275	887.727
375.956	28.681	1111.863	887.412
376.971	28.678	1111.258	886.835
377.986	28.700	1110.468	886.232
379.000	28.721	1110.061	885.931
380.015	28.764	1109.630	885.716
381.029	28.772	1108.814	885.024
382.044	28.761	1108.059	884.288
383.059	28.851	1107.659	884.325
384.073	28.746	1107.041	883.246
385.088	28.976	1105.571	883.103
386.102	28.882	1105.300	882.355
387.117	28.745	1104.572	881.041
388.132	28.703	1103.896	880.222
389.146	28.894	1103.024	880.364
390.161	28.786	1102.723	879.525
391.175	28.800	1101.909	878.869
392.190	28.953	1101.058	878.840
393.205	28.923	1100.323	878.032
394.219	29.017	1099.583	877.814
395.234	28.927	1098.746	876.640
396.248	28.814	1098.252	875.628
397.263	28.984	1096.853	875.247
398.278	28.984	1096.563	874.937
399.292	29.037	1096.074	874.721
400.307	28.992	1095.539	874.003
401.321	29.056	1094.865	873.691
402.336	28.993	1094.145	872.740
403.350	29.022	1093.513	872.298
404.365	28.995	1093.189	871.833
405.380	28.992	1092.543	871.225
406.394	29.211	1091.279	871.176
407.409	29.139	1090.637	870.246
408.423	29.090	1090.015	869.441
409.438	29.074	1089.760	869.089
410.453	29.142	1088.665	868.460
411.467	29.227	1088.043	868.284
412.482	29.236	1087.532	867.845
413.496	29.130	1086.870	866.737
414.511	29.256	1085.884	866.470
415.526	29.223	1085.454	865.893
416.540	29.186	1085.382	865.584
417.555	29.239	1084.759	865.260
418.569	29.371	1084.127	865.300
419.584	29.276	1083.913	864.608
420.599	29.347	1083.768	864.748
421.613	102.377	1317.450	1446.090
422.628	95.309	1351.480	1446.184
