DTS Sentinel unit serial number:	SN413079Multiplexer serial number:	ORYXHardware model number:	OX4-SRSoftware version number:	ORYX F/W v4.00 Oryx Data Collector v3.7.2.0data status	okinstallation	princeton_trtdifferential loss correction	single-endedforward channel	channel 2reverse channel	N/Adate	2019/09/18time	01:43:34forward acquisition time	60.00reverse acquisition time	0.00gamma	496.2192k internal	0.2350k external	0.2350temperature offset calibration	0.9986default loss term (dB/km)	0.3790temperature slope calibration	1.0000multiplexer offset coefficient	1.0000multiplexer slope coefficient	1.0000fibre end	0.00T internal ref (°C)	23.02T ext. ref 1 (°C)	0.17T ext. ref 2 (°C)	16.67length (m)	temperature (°C)	Stokes	anti-Stokes-747.200	-78.976	-0.292	-0.099
-746.185	105.406	-0.100	-0.119
-745.171	-30.010	0.136	0.077
-744.156	800.000	0.074	0.285
-743.142	68.834	-0.113	-0.116
-742.127	22.489	-0.218	0.178
-741.112	-200.000	-0.040	0.301
-740.098	165.059	-0.251	0.354
-739.083	-153.730	0.162	-0.011
-738.069	-2.547	0.100	-0.070
-737.054	-98.679	-0.261	0.066
-736.039	349.656	-0.078	-0.153
-735.025	-33.916	-0.345	-0.189
-734.010	800.000	-0.052	0.187
-732.996	800.000	-0.029	0.087
-731.981	-72.152	0.077	-0.028
-730.966	-128.769	0.043	0.006
-729.952	-106.552	-0.146	-0.033
-728.937	800.000	-0.099	0.334
-727.923	-10.405	-0.228	-0.151
-726.908	-200.000	0.013	-0.142
-725.894	800.000	-0.058	0.162
-724.879	127.954	-0.103	-0.130
-723.864	-61.377	-0.236	0.099
-722.850	-18.523	-0.059	-0.036
-721.835	-44.809	-0.373	0.185
-720.821	-5.388	0.104	0.071
-719.806	-41.674	-0.315	0.161
-718.791	14.170	0.193	-0.150
-717.777	-145.729	0.298	0.027
-716.762	17.920	-0.111	0.088
-715.748	264.744	-0.064	-0.112
-714.733	1.566	-0.197	-0.142
-713.718	800.000	-0.041	-0.168
-712.704	-200.000	-0.046	-0.249
-711.689	106.659	0.190	-0.225
-710.675	800.000	0.061	0.177
-709.660	-172.809	0.244	-0.008
-708.645	-15.217	0.241	-0.154
-707.631	-60.609	-0.203	-0.086
-706.616	46.361	0.107	-0.098
-705.602	-93.665	-0.280	-0.077
-704.587	-59.203	0.184	-0.079
-703.572	-98.364	-0.289	-0.074
-702.558	-200.000	-0.072	-0.324
-701.543	800.000	-0.013	-0.043
-700.529	46.570	0.246	-0.227
-699.514	-163.028	0.314	-0.015
-698.499	800.000	-0.049	0.166
-697.485	-200.000	0.012	0.169
-696.470	-79.054	-0.277	0.094
-695.456	-155.734	-0.251	0.016
-694.441	479.233	-0.015	-0.034
-693.426	-200.000	-0.044	-0.211
-692.412	39.394	-0.356	-0.318
-691.397	-200.000	-0.028	-0.169
-690.383	-55.548	0.459	-0.205
-689.368	-200.000	0.028	-0.399
-688.354	5.147	0.271	-0.199
-687.339	-45.409	-0.170	0.084
-686.324	-77.191	-0.104	-0.036
-685.310	-20.696	0.189	0.116
-684.295	245.177	-0.044	0.074
-683.281	-108.184	-0.176	-0.038
-682.266	36.734	0.228	0.201
-681.251	71.154	0.081	-0.084
-680.237	232.588	0.237	-0.387
-679.222	800.000	0.051	0.213
-678.208	-156.450	0.082	0.005
-677.193	20.717	0.090	-0.072
-676.178	800.000	-0.010	-0.034
-675.164	27.723	0.036	-0.030
-674.149	-4.378	0.154	-0.106
-673.135	-96.413	0.203	-0.053
-672.120	-39.067	0.048	-0.025
-671.105	-200.000	0.011	-0.094
-670.091	120.806	-0.228	0.282
-669.076	-79.537	-0.172	0.058
-668.062	-200.000	0.031	-0.147
-667.047	-2.451	0.024	0.017
-666.032	264.849	0.209	0.362
-665.018	182.973	0.040	-0.059
-664.003	555.669	-0.055	0.132
-662.989	147.492	0.152	-0.203
-661.974	343.637	-0.056	-0.109
-660.959	413.984	-0.079	0.167
-659.945	400.217	0.165	-0.345
-658.930	42.804	-0.209	0.189
-657.916	-41.560	-0.114	0.058
-656.901	-101.672	-0.306	0.074
-655.886	53.862	-0.077	-0.074
-654.872	61.965	0.270	0.268
-653.857	-81.857	-0.242	-0.079
-652.843	-101.118	0.177	-0.043
-651.828	93.140	-0.230	-0.258
-650.814	-114.554	0.177	0.034
-649.799	-142.809	0.255	0.025
-648.784	-164.309	0.103	0.005
-647.770	800.000	-0.078	0.242
-646.755	56.025	-0.227	-0.219
-645.741	-43.830	0.432	0.216
-644.726	264.273	-0.136	0.236
-643.711	-133.467	0.008	-0.001
-642.697	-200.000	-0.053	0.316
-641.682	-23.883	0.174	-0.104
-640.668	571.511	0.100	0.243
-639.653	-82.188	-0.109	-0.035
-638.638	24.890	0.318	0.262
-637.624	762.472	-0.061	0.166
-636.609	530.475	0.113	0.267
-635.595	42.245	-0.159	-0.144
-634.580	29.511	0.069	-0.058
-633.565	-94.704	0.157	0.042
-632.551	-200.000	-0.015	0.443
-631.536	-154.999	-0.345	-0.023
-630.522	-27.914	-0.287	-0.165
-629.507	26.388	-0.063	0.052
-628.492	-36.413	-0.127	-0.068
-627.478	19.862	-0.232	-0.186
-626.463	-147.185	-0.305	-0.026
-625.449	-45.513	-0.317	-0.156
-624.434	-117.726	0.144	0.026
-623.419	-200.000	-0.016	0.156
-622.405	73.818	-0.168	0.175
-621.390	-62.842	0.253	0.104
-620.376	-200.000	0.061	0.299
-619.361	-200.000	-0.066	-0.295
-618.346	25.520	0.131	-0.108
-617.332	79.822	0.081	-0.086
-616.317	-163.983	0.132	-0.006
-615.303	244.819	0.053	-0.088
-614.288	-42.369	-0.181	-0.092
-613.273	-184.279	0.075	0.001
-612.259	459.272	-0.120	-0.265
-611.244	481.733	-0.149	-0.336
-610.230	75.233	0.212	0.222
-609.215	6.151	0.169	0.124
-608.201	800.000	0.083	-0.257
-607.186	49.070	-0.286	-0.267
-606.171	23.359	0.103	0.084
-605.157	34.677	0.066	-0.057
-604.142	-200.000	0.057	-0.324
-603.128	800.000	-0.064	0.222
-602.113	332.941	0.112	-0.214
-601.098	-200.000	-0.019	0.241
-600.084	-108.204	-0.407	0.087
-599.069	-200.000	0.013	0.102
-598.055	-69.279	-0.182	-0.069
-597.040	-72.037	-0.095	0.035
-596.025	800.000	-0.067	-0.262
-595.011	516.782	0.154	0.358
-593.996	36.837	0.264	-0.231
-592.982	153.044	-0.030	0.041
-591.967	800.000	-0.073	0.218
-590.952	-200.000	0.019	-0.543
-589.938	-113.940	0.145	0.028
-588.923	-139.924	-0.118	-0.012
-587.909	378.350	-0.024	-0.049
-586.894	-200.000	0.011	-0.084
-585.879	-26.669	-0.335	-0.194
-584.865	-3.817	-0.193	0.133
-583.850	-200.000	0.005	0.055
-582.836	367.724	-0.122	-0.245
-581.821	392.342	0.149	-0.308
-580.806	543.643	0.134	0.317
-579.792	406.739	0.050	0.105
-578.777	-86.108	-0.277	-0.085
-577.763	-200.000	0.021	0.205
-576.748	541.314	0.124	0.293
-575.733	180.365	-0.019	-0.028
-574.719	73.131	-0.141	-0.146
-573.704	44.047	0.119	-0.108
-572.690	-200.000	-0.021	0.147
-571.675	800.000	0.048	-0.174
-570.661	402.506	-0.125	-0.261
-569.646	-200.000	0.007	-0.088
-568.631	-109.409	0.202	-0.042
-567.617	-88.139	-0.036	0.011
-566.602	25.107	-0.204	0.168
-565.588	-161.132	-0.252	0.013
-564.573	800.000	0.078	0.286
-563.558	800.000	-0.049	0.156
-562.544	-200.000	-0.000	0.028
-561.529	3.120	0.130	0.094
-560.515	-14.115	-0.188	-0.120
-559.500	11.713	-0.182	-0.139
-558.485	92.819	-0.200	-0.224
-557.471	77.459	0.168	-0.177
-556.456	-103.412	0.063	-0.015
-555.442	376.818	0.091	-0.185
-554.427	800.000	0.045	0.179
-553.412	-61.290	0.187	-0.078
-552.398	-200.000	0.010	-0.101
-551.383	674.304	0.137	-0.352
-550.369	-175.249	0.102	-0.003
-549.354	30.770	-0.223	0.189
-548.339	-13.611	-0.138	-0.089
-547.325	-64.420	-0.134	-0.054
-546.310	-36.321	0.112	0.060
-545.296	-48.886	-0.498	0.237
-544.281	-108.579	-0.237	0.050
-543.266	200.342	-0.156	0.238
-542.252	142.963	0.164	-0.216
-541.237	-150.845	-0.055	0.004
-540.223	21.131	0.215	-0.173
-539.208	-133.114	-0.326	0.041
-538.193	-200.000	0.018	0.282
-537.179	34.634	-0.038	0.033
-536.164	800.000	0.065	0.181
-535.150	43.601	0.282	-0.255
-534.135	-66.935	0.244	0.095
-533.121	-200.000	-0.052	-0.247
-532.106	-200.000	-0.010	-0.189
-531.091	-153.051	0.372	0.026
-530.077	-95.889	-0.306	0.081
-529.062	-63.862	0.114	0.046
-528.048	11.804	0.296	-0.225
-527.033	800.000	-0.027	-0.109
-526.018	-51.063	-0.474	-0.220
-525.004	65.232	-0.117	-0.117
-523.989	34.884	0.019	-0.017
-522.975	252.194	-0.082	0.137
-521.960	800.000	0.100	-0.298
-520.945	201.950	-0.106	0.161
-519.931	-200.000	-0.011	-0.177
-518.916	96.188	0.194	0.219
-517.902	-153.209	-0.385	-0.027
-516.887	-32.102	-0.036	0.020
-515.872	57.173	0.108	-0.105
-514.858	-161.982	-0.128	-0.006
-513.843	-72.217	-0.014	-0.005
-512.829	800.000	-0.057	-0.238
-511.814	-200.000	0.028	0.173
-510.799	-200.000	-0.014	-0.190
-509.785	84.182	-0.321	-0.347
-508.770	102.917	-0.108	-0.125
-507.756	800.000	0.191	-0.550
-506.741	-68.578	-0.140	0.054
-505.726	-200.000	-0.010	0.098
-504.712	-18.472	0.195	0.121
-503.697	-10.127	-0.150	0.099
-502.683	-200.000	0.019	0.107
-501.668	-37.942	0.114	0.060
-500.653	261.049	-0.079	0.135
-499.639	-159.473	-0.216	0.012
-498.624	-99.957	-0.128	-0.032
-497.610	-25.368	-0.360	-0.211
-496.595	-200.000	-0.155	-0.674
-495.581	-121.586	0.097	-0.016
-494.566	139.934	-0.132	0.172
-493.551	-200.000	0.008	-0.067
-492.537	10.987	-0.248	-0.187
-491.522	-200.000	-0.002	-0.119
-490.508	83.879	0.150	-0.162
-489.493	800.000	0.024	-0.068
-488.478	80.252	0.196	-0.208
-487.464	73.714	-0.179	-0.185
-486.449	434.053	-0.046	-0.100
-485.435	-200.000	-0.023	0.119
-484.420	-72.822	-0.148	-0.054
-483.405	-21.881	0.288	0.173
-482.391	206.651	0.164	0.253
-481.376	357.466	0.180	0.354
-480.362	-200.000	0.009	-0.078
-479.347	-55.355	-0.210	0.093
-478.332	-95.471	-0.202	0.054
-477.318	-15.261	0.040	-0.025
-476.303	-173.101	0.287	0.009
-475.289	-52.506	-0.220	0.100
-474.274	173.943	0.122	0.173
-473.259	4.677	-0.269	0.195
-472.245	-64.996	-0.208	0.083
-471.230	83.678	0.247	-0.266
-470.216	-200.000	-0.049	-0.284
-469.201	-170.610	-0.138	-0.005
-468.186	608.584	0.053	-0.132
-467.172	800.000	-0.139	-0.384
-466.157	800.000	0.034	-0.095
-465.143	-9.368	0.089	-0.059
-464.128	658.856	0.155	-0.395
-463.113	-27.217	-0.176	0.101
-462.099	-200.000	0.050	-0.412
-461.084	-158.202	0.057	0.003
-460.070	-200.000	-0.028	-0.195
-459.055	-87.244	-0.286	0.086
-458.040	-41.476	0.308	-0.157
-457.026	236.057	0.044	0.071
-456.011	24.306	-0.215	0.176
-454.997	-175.147	0.115	0.003
-453.982	-52.642	0.064	-0.029
-452.968	-114.150	0.301	-0.057
-451.953	355.483	-0.123	-0.242
-450.938	56.428	-0.479	-0.460
-449.924	26.248	0.240	-0.198
-448.909	-200.000	-0.034	-0.196
-447.895	206.072	-0.020	-0.030
-446.880	-200.000	0.037	0.261
-445.865	59.147	0.147	0.142
-444.851	-89.904	-0.353	0.102
-443.836	327.838	-0.085	0.162
-442.822	32.113	0.382	0.325
-441.807	-55.374	0.115	-0.051
-440.792	-75.198	-0.159	-0.056
-439.778	-49.222	-0.127	0.060
-438.763	-6.503	0.334	0.224
-437.749	-91.621	0.212	-0.059
-436.734	-7.805	0.132	0.088
-435.719	-76.925	0.079	0.027
-434.705	-123.793	0.496	0.077
-433.690	471.019	0.085	-0.188
-432.676	-200.000	-0.008	0.135
-431.661	-133.173	0.336	0.042
-430.646	259.963	0.029	0.050
-429.632	248.770	-0.054	-0.090
-428.617	123.460	-0.253	0.313
-427.603	579.426	-0.096	-0.231
-426.588	85.351	0.281	0.304
-425.573	11.788	0.106	0.080
-424.559	80.729	0.215	0.228
-423.544	-200.000	0.021	0.100
-422.530	-186.844	0.105	-0.001
-421.515	-200.000	0.035	0.216
-420.500	-200.000	0.057	0.559
-419.486	-147.998	-0.068	0.006
-418.471	-200.000	0.035	-0.162
-417.457	74.536	0.169	0.175
-416.442	124.624	-0.145	-0.180
-415.428	127.410	-0.138	0.172
-414.413	63.981	-0.295	-0.292
-413.398	66.768	-0.161	0.161
-412.384	-16.673	0.409	0.255
-411.369	-114.158	0.308	0.059
-410.355	314.280	0.213	-0.396
-409.340	38.776	0.116	0.102
-408.325	38.372	-0.323	-0.283
-407.311	362.266	0.134	0.266
-406.296	-51.914	-0.135	-0.062
-405.282	-198.274	0.394	-0.002
-404.267	-102.444	-0.256	-0.060
-403.252	114.355	0.187	0.224
-402.238	-89.445	0.259	-0.075
-401.223	-15.848	0.102	0.064
-400.209	372.194	-0.094	-0.188
-399.194	-36.845	-0.208	0.110
-398.179	-200.000	-0.020	-0.143
-397.165	-43.547	0.143	0.071
-396.150	-4.856	0.167	-0.113
-395.136	180.798	-0.136	-0.196
-394.121	-16.479	-0.230	0.144
-393.106	-200.000	0.028	0.242
-392.092	129.969	0.200	0.252
-391.077	627.951	-0.103	0.255
-390.063	-26.829	0.296	-0.171
-389.048	-200.000	0.009	-0.042
-388.033	635.365	-0.097	-0.243
-387.019	-81.188	-0.098	-0.032
-386.004	-3.448	-0.128	-0.088
-384.990	-95.450	0.069	-0.018
-383.975	-86.641	-0.240	-0.072
-382.960	-98.209	0.278	-0.070
-381.946	-9.170	0.174	0.114
-380.931	-95.022	-0.146	-0.039
-379.917	-200.000	-0.096	0.419
-378.902	-66.954	0.161	-0.063
-377.888	-200.000	-0.011	0.351
-376.873	-148.349	-0.648	-0.052
-375.858	-130.100	0.061	0.008
-374.844	-57.033	0.088	-0.038
-373.829	800.000	0.025	-0.078
-372.815	-100.558	-0.277	-0.067
-371.800	245.463	0.043	0.071
-370.785	431.409	-0.187	0.398
-369.771	-50.304	0.108	0.050
-368.756	-200.000	0.024	-0.120
-367.742	-66.389	0.540	-0.211
-366.727	-200.000	0.041	-0.193
-365.712	220.162	-0.134	-0.211
-364.698	115.510	0.109	-0.131
-363.683	-76.853	-0.072	-0.025
-362.669	-16.908	-0.107	0.066
-361.654	-125.000	-0.330	0.050
-360.639	116.667	0.055	0.066
-359.625	-119.859	0.341	-0.058
-358.610	102.287	0.217	0.250
-357.596	-65.290	0.209	0.083
-356.581	-179.654	0.321	-0.007
-355.566	64.551	0.124	-0.123
-354.552	800.000	0.107	0.422
-353.537	24.687	-0.187	-0.152
-352.523	-24.266	0.215	-0.126
-351.508	-50.587	0.042	-0.019
-350.493	800.000	0.032	0.088
-349.479	284.406	-0.088	0.156
-348.464	800.000	-0.037	0.104
-347.450	196.405	0.123	0.184
-346.435	-15.114	-0.201	-0.127
-345.420	-47.344	0.198	0.094
-344.406	166.237	-0.124	-0.172
-343.391	-200.000	-0.010	0.104
-342.377	135.017	0.107	-0.137
-341.362	-200.000	-0.057	0.416
-340.348	-200.000	-0.027	0.196
-339.333	-200.000	-0.042	0.316
-338.318	800.000	0.084	-0.256
-337.304	519.123	0.179	-0.412
-336.289	-91.947	-0.088	0.025
-335.275	59.833	0.150	-0.146
-334.260	-136.234	0.091	-0.010
-333.245	-17.951	-0.460	0.283
-332.231	587.354	-0.108	0.261
-331.216	-150.842	0.527	-0.039
-330.202	-29.893	0.363	0.203
-329.187	-90.372	-0.277	0.079
-328.172	754.547	0.084	0.223
-327.158	-200.000	-0.004	-0.413
-326.143	38.598	-0.075	0.066
-325.129	-74.769	-0.068	-0.024
-324.114	-82.737	0.186	0.059
-323.099	-9.223	0.228	-0.149
-322.085	800.000	0.070	-0.196
-321.070	-17.741	-0.111	-0.068
-320.056	800.000	-0.043	0.149
-319.041	355.866	-0.068	-0.133
-318.026	-77.876	0.349	0.118
-317.012	-173.194	-0.107	-0.003
-315.997	35.588	0.094	-0.081
-314.983	-6.343	-0.183	0.122
-313.968	-200.000	-0.002	-0.019
-312.953	102.668	-0.272	-0.312
-311.939	-200.000	0.030	0.452
-310.924	16.472	-0.307	-0.238
-309.910	84.036	0.247	-0.265
-308.895	142.596	0.073	0.096
-307.880	-87.150	0.106	-0.032
-306.866	-81.404	-0.272	-0.088
-305.851	-54.556	0.112	-0.050
-304.837	671.361	0.100	0.255
-303.822	800.000	-0.064	0.217
-302.807	-200.000	-0.020	-0.276
-301.793	-36.986	0.093	0.049
-300.778	-104.252	-0.274	0.062
-299.764	800.000	-0.127	0.400
-298.749	-120.372	-0.277	-0.046
-297.735	59.677	0.070	-0.068
-296.720	77.747	-0.033	-0.034
-295.705	-172.724	0.170	-0.005
-294.691	-200.000	0.004	-0.055
-293.676	395.982	-0.064	0.132
-292.662	218.881	0.113	0.177
-291.647	139.193	0.206	0.266
-290.632	-122.041	0.268	-0.043
-289.618	-95.406	-0.055	-0.015
-288.603	-144.250	0.442	-0.040
-287.589	-155.480	0.204	-0.013
-286.574	-127.399	0.265	0.038
-285.559	-99.817	-0.207	-0.051
-284.545	-200.000	-0.035	0.455
-283.530	-200.000	0.020	-0.280
-282.516	800.000	0.030	-0.098
-281.501	376.972	0.095	-0.190
-280.486	203.923	-0.087	0.132
-279.472	-200.000	0.027	-0.162
-278.457	800.000	-0.069	0.250
-277.443	-12.082	-0.205	0.132
-276.428	-123.821	0.031	0.005
-275.413	192.602	-0.126	0.187
-274.399	115.911	0.062	0.075
-273.384	643.260	-0.153	0.382
-272.370	-174.300	0.250	-0.007
-271.355	-151.254	-0.218	0.016
-270.340	-152.226	-0.193	0.014
-269.326	249.049	0.211	-0.350
-268.311	53.780	-0.117	0.110
-267.297	-79.801	-0.291	-0.096
-266.282	406.835	0.051	0.105
-265.267	174.460	0.059	-0.084
-264.253	217.355	-0.071	-0.111
-263.238	-36.187	-0.147	0.078
-262.224	19.184	0.133	-0.104
-261.209	-128.970	0.136	-0.019
-260.195	369.376	0.108	-0.215
-259.180	800.000	0.057	0.196
-258.165	-88.858	-0.305	-0.088
-257.151	-200.000	-0.068	0.398
-256.136	-50.673	-0.328	0.151
-255.122	-120.278	0.173	-0.029
-254.107	-139.499	0.042	-0.004
-253.092	-125.338	-0.135	0.020
-252.078	5.122	-0.303	-0.219
-251.063	197.681	0.160	-0.239
-250.049	131.755	-0.123	0.155
-249.034	-200.000	-0.022	0.311
-248.019	136.118	0.153	-0.196
-247.005	-0.937	-0.274	-0.190
-245.990	-200.000	0.062	0.332
-244.976	-164.985	0.323	-0.014
-243.961	-200.000	-0.005	0.083
-242.946	301.679	0.038	-0.070
-241.932	-86.913	-0.123	0.037
-240.917	-142.535	0.439	-0.042
-239.903	-200.000	0.003	-0.048
-238.888	800.000	0.109	-0.329
-237.873	253.345	-0.109	-0.182
-236.859	-134.124	-0.271	0.033
-235.844	140.474	0.109	0.140
-234.830	-200.000	-0.005	0.220
-233.815	140.796	0.153	0.198
-232.800	232.138	0.191	0.307
-231.786	92.550	-0.130	-0.144
-230.771	261.135	-0.021	0.035
-229.757	458.573	0.091	-0.199
-228.742	-200.000	0.037	-0.436
-227.727	-62.411	0.169	-0.069
-226.713	-200.000	0.002	-0.165
-225.698	-200.000	0.019	-0.100
-224.684	-163.223	-0.399	-0.019
-223.669	116.749	0.150	0.180
-222.655	-58.424	-0.093	-0.040
-221.640	-32.944	-0.091	-0.049
-220.625	146.097	-0.293	-0.384
-219.611	-93.567	0.200	-0.054
-218.596	-15.061	-0.171	-0.107
-217.582	-111.136	0.229	-0.046
-216.567	69.717	0.092	-0.093
-215.552	-135.536	0.328	0.038
-214.538	-200.000	-0.048	0.433
-213.523	329.497	-0.089	0.166
-212.509	-124.232	0.073	-0.011
-211.494	146.644	-0.126	0.166
-210.479	-200.000	0.051	-0.299
-209.465	277.910	-0.153	0.267
-208.450	108.622	-0.067	-0.078
-207.436	163.240	-0.131	-0.180
-206.421	-43.699	-0.201	0.099
-205.406	-10.127	0.124	0.080
-204.392	101.389	-0.178	-0.203
-203.377	-75.360	0.450	0.157
-202.363	84.616	0.057	-0.061
-201.348	7.510	0.129	-0.094
-200.333	-168.622	0.272	-0.010
-199.319	-118.168	-0.199	-0.035
-198.304	-129.232	-0.248	0.034
-197.290	-98.552	0.213	-0.053
-196.275	-200.000	0.003	-0.014
-195.260	-153.401	-0.301	-0.020
-194.246	-39.503	-0.243	0.124
-193.231	246.770	0.125	-0.207
-192.217	-200.000	0.004	-0.106
-191.202	-200.000	0.011	0.113
-190.187	-25.543	-0.168	-0.097
-189.173	92.251	0.230	0.253
-188.158	121.901	-0.074	-0.090
-187.144	-141.524	0.117	-0.012
-186.129	-34.026	-0.167	0.090
-185.114	-51.773	0.253	-0.115
-184.100	-103.787	-0.346	0.079
-183.085	-200.000	0.040	-0.392
-182.071	-117.071	-0.487	-0.087
-181.056	-10.108	0.299	0.194
-180.042	-85.222	0.175	0.054
-179.027	800.000	-0.023	-0.098
-178.012	800.000	0.032	-0.090
-176.998	800.000	-0.092	0.394
-175.983	133.356	-0.060	-0.075
-174.969	-113.290	-0.411	-0.079
-173.954	-119.534	0.106	-0.018
-172.939	-142.481	0.025	0.002
-171.925	-23.654	0.073	-0.043
-170.910	-108.389	0.433	-0.091
-169.896	-200.000	-0.011	0.105
-168.881	-200.000	-0.028	0.154
-167.866	78.916	0.108	0.113
-166.852	10.098	-0.123	0.091
-165.837	800.000	-0.125	-0.362
-164.823	800.000	-0.099	0.380
-163.808	45.569	-0.132	0.119
-162.793	100.589	0.140	-0.158
-161.779	793.715	-0.062	0.166
-160.764	57.600	-0.127	0.121
-159.750	226.408	0.379	0.600
-158.735	-200.000	0.024	0.203
-157.720	48.505	-0.228	-0.209
-156.706	-200.000	-0.046	-0.234
-155.691	-136.872	0.120	0.013
-154.677	651.492	0.054	0.135
-153.662	41.220	-0.038	-0.034
-152.647	348.018	0.133	-0.257
-151.633	-200.000	-0.036	0.262
-150.618	-47.730	-0.168	0.079
-149.604	174.605	0.086	-0.122
-148.589	-71.089	0.156	-0.057
-147.574	-20.902	0.208	0.125
-146.560	60.011	-0.106	-0.102
-145.545	800.000	0.026	0.106
-144.531	41.487	-0.234	-0.206
-143.516	-51.215	0.269	-0.123
-142.502	198.152	0.161	-0.240
-141.487	-74.374	-0.263	-0.092
-140.472	-200.000	-0.012	0.229
-139.458	800.000	0.014	-0.061
-138.443	-120.706	0.352	0.058
-137.429	800.000	-0.112	0.353
-136.414	-147.624	-0.124	-0.010
-135.399	132.514	-0.153	-0.193
-134.385	-5.074	0.200	-0.134
-133.370	800.000	0.090	0.271
-132.356	599.754	-0.043	-0.105
-131.341	467.907	0.069	0.152
-130.326	613.181	-0.058	-0.142
-129.312	-31.284	0.357	0.196
-128.297	79.112	0.337	-0.351
-127.283	-200.000	0.033	-0.162
-126.268	-143.079	0.323	0.030
-125.253	-136.050	0.045	0.005
-124.239	122.076	0.106	-0.129
-123.224	-72.518	0.171	0.062
-122.210	-200.000	0.017	-0.116
-121.195	77.398	-0.147	0.153
-120.180	419.669	0.041	0.086
-119.166	-200.000	0.011	0.188
-118.151	-47.539	0.212	0.100
-117.137	-107.789	0.154	0.033
-116.122	-45.468	-0.143	0.069
-115.107	-80.263	-0.139	0.045
-114.093	84.395	0.129	-0.137
-113.078	309.341	-0.129	0.235
-112.064	194.088	-0.072	-0.106
-111.049	-114.856	0.307	-0.057
-110.034	114.732	0.174	0.206
-109.020	42.533	-0.304	-0.269
-108.005	-144.870	0.388	0.035
-106.991	77.116	-0.266	0.275
-105.976	-102.641	0.068	-0.016
-104.962	-200.000	-0.017	-0.177
-103.947	800.000	-0.025	0.081
-102.932	-25.829	0.033	0.019
-101.918	800.000	-0.023	0.090
-100.903	76.600	-0.081	-0.083
-99.889	-37.214	-0.157	0.082
-98.874	-147.471	0.267	-0.022
-97.859	-200.000	-0.023	-0.227
-96.845	-200.000	-0.005	0.352
-95.830	800.000	0.041	0.160
-94.816	-200.000	0.013	0.185
-93.801	24.759	-0.331	0.267
-92.786	-38.351	0.166	-0.085
-91.772	800.000	-0.091	0.323
-90.757	19.835	0.120	-0.094
-89.743	34.357	0.120	0.102
-88.728	-81.089	0.107	0.035
-87.713	39.356	0.060	-0.053
-86.699	-122.525	0.056	0.009
-85.684	-40.943	0.224	0.113
-84.670	-46.647	0.048	-0.023
-83.655	46.748	0.026	0.024
-82.640	37.359	0.161	-0.138
-81.626	-70.130	0.218	-0.080
-80.611	-200.000	-0.039	0.223
-79.597	-55.822	-0.205	0.089
-78.582	-15.634	-0.142	-0.088
-77.567	-83.758	-0.180	0.056
-76.553	-99.710	0.084	0.020
-75.538	-9.775	0.298	-0.193
-74.524	190.711	-0.098	-0.144
-73.509	-120.714	-0.259	0.043
-72.494	57.322	-0.192	0.182
-71.480	-200.000	0.122	0.543
-70.465	-100.177	0.310	0.075
-69.451	485.029	0.203	-0.449
-68.436	-47.655	0.427	0.201
-67.422	-176.811	0.053	-0.001
-66.407	78.658	-0.100	-0.104
-65.392	52.537	0.212	-0.196
-64.378	-145.530	-0.182	-0.016
-63.363	62.219	-0.103	-0.100
-62.349	-35.871	0.333	0.175
-61.334	52.694	-1.438	-1.336
-60.319	-29.802	0.874	0.485
-59.305	800.000	-0.392	-1.265
-58.290	163.283	0.935	1.277
-57.276	800.000	0.546	1.894
-56.261	-200.000	127.315	674.553
-55.246	421.715	1592.684	3320.182
-54.232	140.454	2756.310	3535.419
-53.217	90.488	2296.599	2497.968
-52.203	32.082	1902.267	1593.511
-51.188	26.004	1698.675	1376.677
-50.173	23.940	1659.626	1329.563
-49.159	45.891	1729.953	1554.619
-48.144	43.398	1740.664	1545.141
-47.130	25.684	1691.848	1368.490
-46.115	23.158	1676.002	1336.562
-45.100	22.950	1671.613	1331.446
-44.086	22.968	1668.795	1329.286
-43.071	22.939	1666.604	1327.265
-42.057	22.935	1664.341	1325.382
-41.042	22.876	1662.278	1323.245
-40.027	22.914	1660.541	1322.094
-39.013	22.910	1658.505	1320.390
-37.998	22.903	1657.217	1319.259
-36.984	22.931	1656.445	1318.804
-35.969	22.943	1654.703	1317.454
-34.954	23.026	1652.853	1316.548
-33.940	22.936	1651.092	1314.422
-32.925	22.992	1648.938	1313.069
-31.911	23.076	1647.572	1312.553
-30.896	22.996	1646.686	1311.199
-29.881	22.943	1645.112	1309.505
-28.867	22.975	1643.115	1308.096
-27.852	23.028	1642.250	1307.752
-26.838	23.023	1640.435	1306.213
-25.823	22.997	1639.699	1305.387
-24.809	23.069	1638.020	1304.530
-23.794	22.963	1636.411	1302.417
-22.779	23.051	1634.966	1301.864
-21.765	23.004	1633.093	1299.971
-20.750	22.968	1631.852	1298.671
-19.736	23.120	1630.155	1298.380
-18.721	23.072	1628.994	1297.055
-17.706	23.097	1627.563	1296.046
-16.692	23.008	1625.961	1294.071
-15.677	23.079	1624.591	1293.446
-14.663	23.044	1623.581	1292.334
-13.648	23.055	1621.743	1290.902
-12.633	23.063	1620.463	1289.888
-11.619	22.986	1619.163	1288.244
-10.604	23.110	1617.330	1287.636
-9.590	23.038	1616.316	1286.252
-8.575	23.095	1614.734	1285.359
-7.560	23.121	1613.339	1284.384
-6.546	23.055	1612.756	1283.392
-5.531	23.088	1611.360	1282.468
-4.517	23.039	1610.554	1281.423
-3.502	23.106	1608.534	1280.245
-2.487	23.137	1607.000	1279.202
-1.473	22.766	1594.983	1266.922
-0.458	19.715	1575.986	1230.099
0.556	14.792	1577.629	1199.739
1.571	12.524	1601.442	1201.192
2.586	12.246	1613.519	1208.103
3.600	11.191	1559.078	1159.731
4.615	6.056	1453.092	1046.654
5.629	1.130	1395.270	973.350
6.644	0.229	1387.811	962.303
7.659	0.157	1387.289	961.398
8.673	0.153	1386.017	960.405
9.688	0.152	1384.084	958.976
10.702	-0.009	1380.771	955.572
11.717	2.472	1383.636	973.254
12.731	9.224	1393.612	1023.308
13.746	14.989	1402.588	1066.659
14.761	16.865	1404.707	1080.141
15.775	16.254	1402.527	1074.478
16.790	15.287	1399.944	1066.262
17.804	14.371	1398.101	1058.943
18.819	14.108	1396.176	1055.723
19.834	13.900	1395.195	1053.567
20.848	13.667	1394.074	1051.148
21.863	13.405	1392.863	1048.484
22.877	13.355	1390.984	1046.656
23.892	13.109	1390.389	1044.564
24.907	13.158	1389.511	1044.123
25.921	13.265	1388.546	1043.979
26.936	13.304	1387.746	1043.532
27.950	13.283	1386.764	1042.565
28.965	13.388	1385.614	1042.273
29.980	13.399	1384.870	1041.689
30.994	13.461	1383.995	1041.331
32.009	13.499	1383.043	1040.756
33.023	13.456	1381.650	1039.348
34.038	13.498	1380.150	1038.395
35.053	13.394	1379.441	1037.113
36.067	13.328	1378.600	1035.976
37.082	13.424	1377.045	1035.316
38.096	13.527	1376.516	1035.473
39.111	13.482	1375.688	1034.475
40.126	13.378	1374.873	1033.123
41.140	13.314	1373.921	1031.918
42.155	13.208	1373.797	1031.072
43.169	13.238	1373.744	1031.127
44.184	13.135	1373.769	1030.414
45.199	13.214	1372.986	1030.227
46.213	13.181	1372.331	1029.439
47.228	13.377	1370.916	1029.508
48.242	13.464	1369.750	1029.081
49.257	13.296	1368.470	1026.986
50.271	13.242	1367.259	1025.648
51.286	13.386	1365.704	1025.284
52.301	13.322	1364.616	1023.978
53.315	13.321	1363.409	1022.980
54.330	13.318	1361.922	1021.753
55.344	13.261	1361.227	1020.788
56.359	13.302	1360.150	1020.148
57.374	13.241	1359.260	1019.010
58.388	13.247	1358.701	1018.536
59.403	13.169	1357.911	1017.375
60.417	13.238	1357.334	1017.279
61.432	13.154	1356.164	1015.792
62.447	13.098	1355.315	1014.727
63.461	13.070	1354.139	1013.585
64.476	13.107	1352.450	1012.457
65.490	13.189	1351.572	1012.209
66.505	13.153	1350.445	1011.058
67.520	13.177	1348.921	1009.975
68.534	13.244	1347.445	1009.191
69.549	13.187	1346.778	1008.248
70.563	13.136	1345.975	1007.250
71.578	13.191	1344.137	1006.120
72.593	13.073	1342.990	1004.457
73.607	13.112	1342.701	1004.385
74.622	13.059	1342.238	1003.629
75.636	13.090	1341.369	1003.078
76.651	13.038	1340.281	1001.859
77.666	13.110	1339.661	1001.744
78.680	13.126	1339.007	1001.268
79.695	13.084	1338.269	1000.372
80.709	13.031	1337.751	999.574
81.724	13.271	1336.306	999.854
82.739	13.217	1335.813	999.072
83.753	13.238	1334.263	997.955
84.768	13.286	1333.813	997.816
85.782	13.453	1332.322	997.622
86.797	13.403	1330.794	996.086
87.812	13.266	1329.654	994.319
88.826	13.233	1328.679	993.306
89.841	13.327	1327.765	993.098
90.855	13.301	1326.454	991.873
91.870	13.400	1325.640	991.774
92.884	13.332	1324.779	990.635
93.899	13.429	1323.769	990.369
94.914	13.463	1323.049	989.950
95.928	13.450	1321.824	988.864
96.943	13.423	1321.346	988.258
97.957	13.418	1320.393	987.430
98.972	13.344	1319.413	986.170
99.987	13.368	1318.105	985.247
101.001	13.430	1317.425	985.020
102.016	13.426	1315.818	983.705
103.030	13.512	1315.353	983.782
104.045	13.452	1314.260	982.520
105.060	13.297	1313.411	980.880
106.074	13.294	1312.260	979.920
107.089	13.244	1310.699	978.369
108.103	13.292	1309.306	977.528
109.118	13.253	1307.956	976.202
110.133	13.324	1306.531	975.469
111.147	13.214	1305.534	973.995
112.162	13.292	1304.108	973.299
113.176	13.242	1303.428	972.415
114.191	13.225	1302.492	971.527
115.206	13.402	1300.752	971.184
116.220	13.338	1299.375	969.692
117.235	13.383	1298.288	969.061
118.249	13.390	1297.533	968.454
119.264	13.297	1296.669	967.181
120.279	13.193	1295.822	965.853
121.293	13.261	1294.365	965.082
122.308	13.246	1293.390	964.180
123.322	13.226	1292.695	963.458
124.337	13.225	1291.352	962.368
125.352	13.093	1290.652	960.993
126.366	13.142	1289.195	960.105
127.381	13.191	1288.449	959.750
128.395	13.246	1286.728	958.702
129.410	13.210	1285.814	957.729
130.424	13.316	1285.053	957.694
131.439	13.283	1283.977	956.615
132.454	13.295	1283.213	956.027
133.468	13.285	1282.316	955.219
134.483	13.317	1281.352	954.600
135.497	13.312	1280.577	953.908
136.512	13.349	1279.002	952.864
137.527	13.304	1277.697	951.550
138.541	13.304	1276.097	950.273
139.556	13.330	1274.979	949.505
140.570	13.452	1273.721	949.185
141.585	13.409	1272.546	947.981
142.600	13.478	1271.439	947.469
143.614	13.453	1270.202	946.316
144.629	13.587	1269.293	946.325
145.643	13.634	1268.085	945.603
146.658	13.482	1266.653	943.589
147.673	13.425	1265.719	942.484
148.687	13.481	1264.599	941.887
149.702	13.467	1263.164	940.656
150.716	13.443	1261.912	939.501
151.731	13.487	1260.837	938.867
152.746	13.484	1259.508	937.776
153.760	13.524	1258.682	937.309
154.775	13.597	1257.080	936.441
155.789	13.599	1255.988	935.557
156.804	13.548	1255.282	934.665
157.819	13.554	1254.531	934.054
158.833	13.625	1253.532	933.629
159.848	13.715	1252.607	933.362
160.862	13.683	1251.283	932.114
161.877	13.611	1250.212	930.828
162.892	13.668	1249.236	930.338
163.906	13.575	1248.225	928.983
164.921	13.663	1247.225	928.650
165.935	13.626	1246.414	927.757
166.950	13.651	1245.241	926.942
167.964	13.648	1245.005	926.666
168.979	13.571	1244.449	925.742
169.994	13.668	1243.287	925.336
171.008	13.667	1242.502	924.662
172.023	13.752	1241.982	924.667
173.037	13.794	1240.796	923.938
174.052	13.744	1240.305	923.215
175.067	13.694	1239.044	921.915
176.081	13.797	1237.757	921.449
177.096	13.780	1237.083	920.769
178.110	13.745	1235.519	919.332
179.125	13.777	1234.564	918.717
180.140	13.765	1233.455	917.740
181.154	13.723	1232.269	916.546
182.169	13.862	1230.983	916.277
183.183	13.882	1229.657	915.319
184.198	13.914	1228.553	914.594
185.213	13.934	1227.463	913.810
186.227	13.843	1226.672	912.637
187.242	13.942	1225.492	912.224
188.256	14.021	1224.415	911.778
189.271	14.012	1223.534	910.992
190.286	13.891	1222.563	909.523
191.300	13.871	1221.566	908.591
192.315	13.736	1221.353	907.612
193.329	13.810	1220.629	907.403
194.344	13.792	1219.375	906.291
195.359	13.881	1218.780	906.254
196.373	13.797	1218.727	905.676
197.388	13.848	1218.566	905.752
198.402	14.090	1217.093	905.899
199.417	14.065	1216.388	905.157
200.432	14.202	1215.786	905.372
201.446	14.147	1214.814	904.270
202.461	14.284	1214.116	904.415
203.475	14.242	1213.015	903.287
204.490	14.234	1211.706	902.191
205.504	14.164	1210.394	900.752
206.519	14.164	1208.998	899.636
207.534	14.114	1208.331	898.786
208.548	14.247	1207.333	898.684
209.563	14.129	1206.781	897.560
210.577	14.120	1205.636	896.576
211.592	14.304	1204.726	896.812
212.607	14.233	1204.092	895.879
213.621	14.250	1203.101	895.154
214.636	14.267	1201.894	894.270
215.650	14.361	1200.585	893.723
216.665	14.310	1200.080	892.990
217.680	14.398	1199.137	892.681
218.694	14.342	1198.811	892.062
219.709	14.412	1197.958	891.722
220.723	14.444	1197.173	891.227
221.738	14.404	1195.896	889.985
222.753	14.504	1195.197	889.923
223.767	14.455	1194.834	889.313
224.782	14.578	1193.645	889.003
225.796	14.488	1193.438	888.290
226.811	14.473	1192.847	887.689
227.826	14.566	1191.978	887.459
228.840	14.459	1191.672	886.587
229.855	14.434	1190.625	885.597
230.869	14.397	1189.887	884.771
231.884	14.549	1188.561	884.514
232.899	14.543	1187.901	883.914
233.913	14.396	1187.525	882.777
234.928	14.402	1186.374	881.873
235.942	14.436	1186.005	881.701
236.957	14.529	1185.007	881.373
237.972	14.537	1184.677	881.092
238.986	14.572	1183.525	880.344
240.001	14.568	1182.998	879.849
241.015	14.524	1181.985	878.788
242.030	14.503	1181.262	878.063
243.045	14.631	1180.347	877.976
244.059	14.725	1179.287	877.604
245.074	14.621	1179.160	876.884
246.088	14.686	1178.099	876.360
247.103	14.773	1177.347	876.183
248.117	14.718	1176.882	875.467
249.132	14.819	1175.546	874.928
250.147	14.873	1175.251	874.910
251.161	14.863	1174.489	874.216
252.176	14.892	1173.863	873.825
253.190	14.978	1173.047	873.590
254.205	14.979	1172.771	873.313
255.220	14.947	1172.096	872.565
256.234	15.016	1170.986	872.021
257.249	15.119	1170.258	871.936
258.263	14.965	1169.907	870.798
259.278	14.951	1169.391	870.263
260.293	15.018	1168.728	870.042
261.307	15.052	1168.135	869.696
262.322	15.168	1167.104	869.456
263.336	15.163	1166.423	868.844
264.351	15.145	1166.208	868.517
265.366	15.163	1165.504	868.004
266.380	15.155	1164.949	867.478
267.395	15.140	1163.738	866.418
268.409	15.252	1162.681	866.132
269.424	15.213	1162.089	865.416
270.439	15.135	1162.321	865.108
271.453	15.091	1161.461	864.164
272.468	15.184	1160.432	863.803
273.482	15.163	1159.408	862.857
274.497	15.174	1159.159	862.653
275.512	15.232	1158.336	862.261
276.526	15.276	1157.219	861.579
277.541	15.292	1156.391	860.969
278.555	15.224	1156.078	860.308
279.570	15.238	1155.535	859.901
280.585	15.396	1154.288	859.708
281.599	15.408	1153.283	858.942
282.614	15.352	1152.579	858.057
283.628	15.338	1151.504	857.107
284.643	15.336	1150.308	856.135
285.657	15.454	1149.173	855.813
286.672	15.334	1148.835	854.873
287.687	15.368	1147.856	854.246
288.701	15.399	1147.378	853.973
289.716	15.450	1146.268	853.327
290.730	15.467	1145.710	852.924
291.745	15.386	1145.284	852.118
292.760	15.497	1144.041	851.681
293.774	15.539	1143.759	851.610
294.789	15.523	1143.115	850.976
295.803	15.522	1142.665	850.558
296.818	15.552	1141.699	849.917
297.833	15.646	1140.951	849.762
298.847	15.538	1140.280	848.641
299.862	15.617	1139.285	848.220
300.876	15.545	1138.751	847.384
301.891	15.581	1138.190	847.076
302.906	15.708	1137.406	847.059
303.920	15.675	1136.767	846.341
304.935	15.748	1136.243	846.244
305.949	15.762	1135.292	845.530
306.964	15.878	1134.612	845.530
307.979	15.755	1134.006	844.389
308.993	15.799	1132.848	843.669
310.008	15.893	1132.472	843.787
311.022	15.833	1131.819	842.925
312.037	15.884	1131.048	842.531
313.052	15.769	1129.968	841.077
314.066	15.771	1129.097	840.366
315.081	15.857	1128.150	840.017
316.095	15.741	1127.522	838.893
317.110	15.931	1126.453	838.973
318.125	15.902	1125.792	838.259
319.139	15.828	1125.152	837.340
320.154	15.945	1124.431	837.313
321.168	15.876	1123.894	836.498
322.183	15.842	1123.660	836.078
323.197	15.814	1123.008	835.383
324.212	15.883	1122.108	834.977
325.227	15.900	1121.385	834.454
326.241	15.943	1120.790	834.150
327.256	15.908	1120.061	833.357
328.270	15.906	1118.838	832.368
329.285	15.881	1118.288	831.756
330.300	15.989	1117.071	831.312
331.314	15.920	1116.609	830.554
332.329	15.925	1115.447	829.642
333.343	16.041	1114.177	829.196
334.358	16.052	1113.605	828.751
335.373	16.093	1112.416	827.994
336.387	16.149	1111.766	827.709
337.402	16.119	1111.366	827.194
338.416	16.116	1110.631	826.560
339.431	16.043	1110.378	825.940
340.446	16.210	1109.380	825.942
341.460	16.246	1108.604	825.468
342.475	16.235	1108.127	824.982
343.489	16.356	1106.899	824.588
344.504	16.383	1106.294	824.195
345.519	16.364	1105.050	823.101
346.533	16.382	1104.448	822.669
347.548	16.474	1103.438	822.294
348.562	16.344	1102.945	821.221
349.577	16.369	1102.077	820.623
350.592	16.259	1101.499	819.586
351.606	16.250	1100.743	818.907
352.621	16.272	1100.148	818.497
353.635	16.312	1099.506	818.143
354.650	16.343	1099.008	817.847
355.665	16.332	1098.457	817.314
356.679	16.301	1097.634	816.480
357.694	16.407	1096.809	816.304
358.708	16.496	1095.835	815.939
359.723	16.428	1095.488	815.279
360.738	16.491	1094.483	814.762
361.752	16.488	1094.204	814.471
362.767	16.624	1093.429	814.476
363.781	16.533	1093.063	813.691
364.796	16.606	1092.446	813.509
365.810	16.605	1091.945	813.063
366.825	16.603	1090.978	812.260
367.840	16.707	1090.634	812.431
368.854	16.767	1089.895	812.094
369.869	16.618	1089.403	810.943
370.883	16.693	1088.511	810.566
371.898	16.716	1088.010	810.233
372.913	16.608	1087.323	809.133
373.927	16.792	1086.742	809.510
374.942	16.726	1086.264	808.766
375.956	16.719	1085.846	808.347
376.971	16.660	1085.273	807.570
377.986	16.854	1084.369	807.749
379.000	16.878	1083.789	807.361
380.015	16.994	1083.412	807.559
381.029	16.864	1082.460	806.160
382.044	16.995	1081.736	806.175
383.059	16.935	1081.003	805.270
384.073	16.882	1080.570	804.626
385.088	17.008	1079.556	804.396
386.102	16.953	1078.653	803.390
387.117	16.901	1077.685	802.353
388.132	16.998	1076.938	802.186
389.146	17.033	1075.785	801.419
390.161	16.990	1075.067	800.614
391.175	17.042	1074.226	800.160
392.190	17.029	1073.502	799.487
393.205	17.017	1072.963	798.961
394.219	17.001	1072.565	798.516
395.234	17.045	1071.613	797.946
396.248	17.031	1070.485	796.967
397.263	17.057	1069.607	796.369
398.278	17.052	1069.290	796.039
399.292	16.981	1068.537	795.073
400.307	17.075	1067.393	794.589
401.321	17.066	1067.188	794.328
402.336	17.040	1066.431	793.572
403.350	17.067	1065.732	793.107
404.365	17.104	1064.785	792.506
405.380	17.150	1063.929	792.012
406.394	17.120	1063.610	791.564
407.409	17.216	1062.543	791.149
408.423	17.314	1061.403	790.687
409.438	17.362	1060.934	790.488
410.453	17.372	1060.645	790.251
411.467	17.338	1059.675	789.301
412.482	17.395	1059.206	789.145
413.496	17.248	1058.868	788.138
414.511	17.330	1058.040	787.836
415.526	17.485	1057.647	788.190
416.540	17.480	1056.893	787.534
417.555	17.629	1056.018	787.502
418.569	17.516	1055.902	786.824
419.584	17.632	1055.223	786.784
420.599	17.525	1055.007	786.057
421.613	108.113	1331.324	1487.995
422.628	99.642	1371.490	1488.084
