DTS Sentinel unit serial number:	SN413079Multiplexer serial number:	ORYXHardware model number:	OX4-SRSoftware version number:	ORYX F/W v4.00 Oryx Data Collector v3.7.2.0data status	okinstallation	princeton_trtdifferential loss correction	single-endedforward channel	channel 2reverse channel	N/Adate	2019/09/11time	09:57:11forward acquisition time	60.00reverse acquisition time	0.00gamma	496.2192k internal	0.2315k external	0.2315temperature offset calibration	0.9966default loss term (dB/km)	0.3790temperature slope calibration	1.0000multiplexer offset coefficient	1.0000multiplexer slope coefficient	1.0000fibre end	0.00T internal ref (°C)	35.27T ext. ref 1 (°C)	0.12T ext. ref 2 (°C)	32.90length (m)	temperature (°C)	Stokes	anti-Stokes-747.200	-200.000	0.021	0.146
-746.185	189.135	0.153	0.232
-745.171	359.107	0.123	-0.248
-744.156	313.947	-0.120	-0.230
-743.142	178.581	0.181	0.267
-742.127	800.000	-0.166	0.532
-741.112	-96.017	0.118	-0.032
-740.098	-200.000	0.008	0.116
-739.083	33.592	-0.247	-0.218
-738.069	-26.374	0.051	0.030
-737.054	107.987	0.085	0.102
-736.039	39.584	-0.153	-0.139
-735.025	30.169	0.299	0.258
-734.010	32.781	-0.061	-0.054
-732.996	-67.364	0.213	-0.085
-731.981	236.760	-0.065	0.109
-730.966	-200.000	-0.052	-0.428
-729.952	69.796	-0.275	-0.287
-728.937	-200.000	-0.012	0.250
-727.923	-63.243	-0.051	-0.021
-726.908	800.000	-0.057	-0.248
-725.894	-41.244	-0.396	0.207
-724.879	170.845	-0.149	-0.217
-723.864	-200.000	-0.005	0.030
-722.850	-154.098	0.031	-0.002
-721.835	293.573	0.234	0.433
-720.821	-200.000	-0.060	0.312
-719.806	-200.000	-0.005	-0.054
-718.791	-45.634	-0.156	0.078
-717.777	-200.000	-0.024	-0.110
-716.762	800.000	0.073	0.266
-715.748	17.505	0.096	-0.077
-714.733	255.543	-0.226	0.393
-713.718	-200.000	0.001	0.088
-712.704	-84.408	0.237	-0.076
-711.689	-63.208	-0.139	0.058
-710.675	155.899	0.115	-0.160
-709.660	-22.544	-0.303	0.185
-708.645	606.304	-0.121	-0.306
-707.631	108.916	-0.138	-0.167
-706.616	-50.442	-0.433	0.207
-705.602	-31.111	0.188	-0.107
-704.587	-45.048	-0.303	-0.152
-703.572	-200.000	-0.082	-0.594
-702.558	800.000	-0.106	-0.297
-701.543	-36.760	-0.202	0.110
-700.529	177.568	0.103	0.151
-699.514	-102.498	0.151	-0.037
-698.499	-89.040	0.285	-0.085
-697.485	-132.168	0.090	0.012
-696.470	22.464	-0.192	-0.159
-695.456	-191.927	0.109	0.001
-694.441	-63.436	-0.259	0.108
-693.426	800.000	0.030	0.130
-692.412	-103.391	0.224	-0.053
-691.397	-152.061	-0.183	-0.013
-690.383	-89.861	-0.292	-0.086
-689.368	-200.000	-0.025	0.149
-688.354	-14.365	0.283	-0.184
-687.339	800.000	-0.085	0.266
-686.324	26.566	0.392	-0.332
-685.310	-54.014	-0.124	0.057
-684.295	114.293	0.299	-0.368
-683.281	47.513	-0.168	-0.158
-682.266	-200.000	0.000	0.058
-681.251	-38.078	0.255	0.137
-680.237	-27.156	0.249	0.147
-679.222	574.416	-0.053	0.132
-678.208	47.254	0.259	0.244
-677.193	-200.000	-0.010	0.052
-676.178	-107.288	-0.198	0.044
-675.164	-110.800	-0.114	-0.024
-674.149	-13.816	-0.157	0.102
-673.135	-9.448	0.140	0.095
-672.120	-41.812	-0.246	0.127
-671.105	126.218	-0.091	-0.117
-670.091	-33.002	0.191	0.107
-669.076	-4.289	0.080	0.056
-668.062	-77.485	0.109	-0.038
-667.047	-200.000	0.010	-0.198
-666.032	-200.000	0.017	-0.203
-665.018	131.773	0.179	0.233
-664.003	-84.010	-0.179	-0.058
-662.989	-145.376	-0.206	0.019
-661.974	-116.076	-0.119	-0.022
-660.959	-114.876	-0.236	0.045
-659.945	-128.267	0.027	-0.004
-658.930	396.915	-0.040	-0.084
-657.916	800.000	0.107	-0.318
-656.901	-200.000	0.029	0.259
-655.886	87.096	0.090	-0.100
-654.872	-200.000	0.047	0.339
-653.857	-200.000	-0.044	0.252
-652.843	9.738	0.036	0.027
-651.828	-125.384	-0.311	0.048
-650.814	800.000	-0.047	0.166
-649.799	-130.355	-0.259	-0.036
-648.784	-82.633	-0.150	0.049
-647.770	-15.460	-0.049	0.031
-646.755	-108.197	0.080	0.017
-645.741	-200.000	-0.006	0.039
-644.726	29.469	-0.114	-0.098
-643.711	-85.344	0.105	-0.033
-642.697	40.961	-0.276	-0.251
-641.682	456.820	0.098	-0.220
-640.668	-200.000	0.016	-0.174
-639.653	28.318	-0.165	-0.141
-638.638	-104.170	0.312	-0.073
-637.624	-30.241	0.083	-0.047
-636.609	152.815	0.058	-0.080
-635.595	-73.571	0.434	0.160
-634.580	23.236	0.087	0.072
-633.565	800.000	-0.072	-0.306
-632.551	143.213	0.086	0.115
-631.536	-54.192	-0.258	-0.118
-630.522	-10.778	-0.078	0.052
-629.507	-112.907	-0.457	-0.091
-628.492	-200.000	-0.010	0.093
-627.478	-86.195	0.266	0.083
-626.463	333.686	-0.209	-0.407
-625.449	-93.271	-0.079	0.022
-624.434	-110.157	0.081	0.017
-623.419	100.955	-0.076	-0.089
-622.405	161.444	0.059	-0.084
-621.390	5.367	0.184	0.137
-620.376	-90.303	-0.388	-0.114
-619.361	-112.216	-0.190	-0.038
-618.346	-200.000	0.014	-0.116
-617.332	-138.434	-0.172	0.019
-616.317	-13.362	-0.270	0.176
-615.303	107.347	0.043	0.052
-614.288	-40.962	0.292	-0.152
-613.273	-17.620	-0.190	0.120
-612.259	800.000	0.052	0.155
-611.244	2.713	-0.031	0.023
-610.230	-200.000	0.013	0.060
-609.215	-75.974	0.511	0.182
-608.201	-37.132	0.165	0.089
-607.186	-10.522	0.153	-0.102
-606.171	-103.990	0.334	-0.078
-605.157	-17.986	-0.266	-0.168
-604.142	128.777	-0.026	-0.034
-603.128	15.223	0.050	0.039
-602.113	-196.181	0.080	-0.001
-601.098	253.066	-0.022	-0.037
-600.084	-200.000	-0.033	0.383
-599.069	24.711	-0.188	-0.157
-598.055	-200.000	-0.017	0.110
-597.040	-46.089	-0.283	-0.140
-596.025	-102.676	-0.233	0.056
-595.011	-27.430	0.255	-0.149
-593.996	-21.823	0.224	-0.137
-592.982	526.902	0.089	0.211
-591.967	-200.000	-0.021	0.267
-590.952	19.960	-0.161	-0.131
-589.938	-200.000	-0.002	0.057
-588.923	346.946	-0.128	0.254
-587.909	-55.009	0.066	0.030
-586.894	-10.427	-0.331	0.221
-585.879	-200.000	0.044	0.204
-584.865	281.823	0.056	0.100
-583.850	245.242	-0.105	-0.177
-582.836	-43.860	-0.179	-0.091
-581.821	-64.428	-0.084	-0.035
-580.806	-200.000	0.063	0.329
-579.792	-20.933	0.391	0.241
-578.777	216.011	0.148	0.237
-577.763	-141.976	0.337	-0.034
-576.748	115.555	0.277	-0.341
-575.733	197.503	-0.120	-0.184
-574.719	-94.755	-0.214	0.059
-573.704	58.180	-0.130	-0.129
-572.690	-135.890	-0.015	0.002
-571.675	96.817	-0.135	0.156
-570.661	112.034	-0.120	0.146
-569.646	-153.757	0.131	-0.009
-568.631	-40.804	-0.163	-0.085
-567.617	-5.945	0.226	-0.156
-566.602	-127.604	0.076	-0.011
-565.588	58.592	-0.109	-0.108
-564.573	320.066	-0.039	0.075
-563.558	153.815	0.307	-0.424
-562.544	800.000	0.048	-0.156
-561.529	-101.472	-0.394	-0.096
-560.515	-200.000	0.003	-0.120
-559.500	-98.427	-0.085	0.022
-558.485	800.000	0.034	0.107
-557.471	-150.648	0.164	-0.013
-556.456	-118.743	-0.282	0.050
-555.442	24.847	-0.126	0.105
-554.427	800.000	-0.034	0.107
-553.412	-200.000	0.008	0.104
-552.398	-90.863	-0.069	-0.020
-551.383	173.268	-0.088	0.128
-550.369	196.488	-0.096	0.148
-549.354	-200.000	-0.172	0.001
-548.339	-200.000	-0.063	0.283
-547.325	-110.680	0.320	0.067
-546.310	-1.735	-0.139	0.098
-545.296	349.015	0.058	0.114
-544.281	-200.000	-0.001	0.083
-543.266	-38.492	-0.091	0.048
-542.252	-164.449	0.143	-0.007
-541.237	150.190	-0.277	0.378
-540.223	-150.847	-0.233	0.018
-539.208	-18.760	0.239	-0.150
-538.193	-69.034	-0.201	0.078
-537.179	-200.000	0.016	0.297
-536.164	-10.281	-0.105	-0.070
-535.150	-39.100	-0.197	0.104
-534.135	-200.000	0.074	-0.554
-533.121	800.000	-0.154	-0.454
-532.106	-153.198	-0.307	0.022
-531.091	-200.000	-0.017	0.084
-530.077	6.434	0.194	0.145
-529.062	405.204	-0.109	0.230
-528.048	-200.000	0.083	0.000
-527.033	41.089	-0.047	0.043
-526.018	-36.774	0.112	-0.060
-525.004	-112.622	0.358	0.072
-523.989	40.829	-0.125	-0.113
-522.975	120.499	0.053	-0.066
-521.960	-200.000	-0.018	-0.151
-520.945	-55.910	-0.311	-0.139
-519.931	123.201	0.122	-0.153
-518.916	-200.000	0.059	0.301
-517.902	98.469	-0.087	0.101
-516.887	-139.638	-0.115	0.012
-515.872	192.661	-0.154	-0.234
-514.858	800.000	0.031	-0.121
-513.843	-72.728	-0.145	0.054
-512.829	-40.591	0.221	0.115
-511.814	168.597	-0.057	-0.081
-510.799	153.985	0.303	-0.418
-509.785	398.943	-0.167	-0.351
-508.770	-25.461	-0.125	0.074
-507.756	-148.974	-0.224	-0.018
-506.741	-10.401	0.087	-0.058
-505.726	249.838	0.192	-0.327
-504.712	105.322	-0.002	-0.002
-503.697	-102.981	0.222	0.053
-502.683	-105.635	-0.255	0.058
-501.668	341.980	0.103	-0.203
-500.653	-37.645	0.087	0.046
-499.639	180.125	-0.262	-0.385
-498.624	800.000	0.054	0.152
-497.610	-113.454	-0.166	-0.033
-496.595	800.000	-0.042	-0.156
-495.581	800.000	-0.097	0.411
-494.566	-200.000	-0.002	0.115
-493.551	800.000	0.046	0.127
-492.537	542.221	0.119	0.284
-491.522	-200.000	0.027	0.194
-490.508	232.544	0.136	-0.223
-489.493	72.338	-0.281	0.294
-488.478	-54.586	-0.121	0.055
-487.464	50.037	-0.167	-0.158
-486.449	84.435	0.151	-0.166
-485.435	-200.000	0.043	-0.288
-484.420	-145.495	0.160	0.014
-483.405	-200.000	-0.008	0.181
-482.391	394.696	-0.124	0.260
-481.376	-130.563	0.141	-0.019
-480.362	800.000	-0.026	-0.104
-479.347	-200.000	0.006	0.132
-478.332	-144.908	0.406	0.037
-477.318	242.041	0.112	-0.189
-476.303	-200.000	-0.024	0.226
-475.289	-85.831	-0.077	0.024
-474.274	-25.430	0.032	-0.019
-473.259	752.761	-0.021	-0.057
-472.245	-131.510	-0.398	0.053
-471.230	86.818	0.027	-0.030
-470.216	-14.687	0.297	-0.192
-469.201	-108.189	0.308	0.067
-468.186	-88.039	0.218	-0.066
-467.172	-200.000	0.016	0.295
-466.157	-19.940	0.204	0.126
-465.143	-200.000	-0.007	-0.063
-464.128	411.613	0.088	0.187
-463.113	-181.354	-0.366	0.007
-462.099	233.652	-0.128	-0.211
-461.084	-200.000	-0.032	-0.333
-460.070	-196.415	-0.321	-0.002
-459.055	-200.000	0.019	0.410
-458.040	-9.724	-0.184	0.123
-457.026	81.967	0.115	0.125
-456.011	53.142	-0.270	0.259
-454.997	-200.000	0.016	-0.227
-453.982	-200.000	0.020	-0.145
-452.968	-190.177	-0.076	0.001
-451.953	-96.300	-0.235	-0.062
-450.938	592.026	-0.139	0.344
-449.924	800.000	0.055	0.208
-448.909	414.254	0.203	-0.432
-447.895	800.000	0.025	-0.104
-446.880	-103.406	-0.121	-0.029
-445.865	-200.000	-0.010	-0.400
-444.851	-4.060	-0.270	0.187
-443.836	800.000	0.061	0.240
-442.822	-166.747	-0.087	-0.004
-441.807	218.604	-0.141	-0.226
-440.792	49.033	-0.191	0.180
-439.778	-98.189	-0.354	-0.091
-438.763	-71.616	0.182	-0.068
-437.749	39.513	-0.157	-0.141
-436.734	29.910	0.326	0.279
-435.719	-64.140	-0.392	0.160
-434.705	106.560	-0.216	0.256
-433.690	166.221	0.020	0.029
-432.676	86.709	0.161	0.178
-431.661	-200.000	0.022	-0.266
-430.646	-78.319	-0.187	0.064
-429.632	-66.605	-0.127	0.050
-428.617	166.765	0.049	0.070
-427.603	-50.218	0.132	-0.063
-426.588	-84.042	0.142	-0.045
-425.573	-120.563	0.171	-0.029
-424.559	-65.907	0.327	0.131
-423.544	-44.237	0.157	-0.079
-422.530	-149.692	-0.076	-0.006
-421.515	-173.810	0.049	-0.001
-420.500	-200.000	0.014	0.208
-419.486	-52.951	0.143	-0.066
-418.471	249.159	0.054	-0.091
-417.457	800.000	-0.051	0.190
-416.442	7.873	-0.261	0.196
-415.428	800.000	-0.079	0.326
-414.413	-29.382	-0.165	0.094
-413.398	392.134	-0.043	-0.089
-412.384	800.000	0.042	-0.118
-411.369	174.689	0.095	0.138
-410.355	-200.000	-0.109	-0.527
-409.340	-200.000	0.019	0.177
-408.325	62.765	0.122	-0.122
-407.311	-194.810	-0.405	0.003
-406.296	-29.468	-0.109	-0.062
-405.282	-200.000	-0.007	-0.226
-404.267	86.389	-0.162	0.178
-403.252	800.000	-0.030	0.097
-402.238	-155.341	0.083	-0.005
-401.223	-200.000	-0.020	0.206
-400.209	768.676	-0.053	0.145
-399.194	126.442	-0.058	0.073
-398.179	-108.470	-0.264	0.057
-397.165	769.896	0.102	0.277
-396.150	401.438	0.131	-0.274
-395.136	-200.000	-0.024	0.253
-394.121	41.762	-0.147	-0.133
-393.106	-169.451	-0.131	0.005
-392.092	756.049	0.183	-0.495
-391.077	36.301	0.311	-0.274
-390.063	-63.226	0.356	-0.147
-389.048	92.865	0.079	0.089
-388.033	466.904	0.142	0.318
-387.019	236.443	-0.207	-0.343
-386.004	-200.000	-0.007	0.218
-384.990	-152.460	-0.084	-0.006
-383.975	484.976	0.073	0.166
-382.960	-9.855	0.241	-0.160
-381.946	-28.614	0.181	0.104
-380.931	-200.000	0.011	0.069
-379.917	-200.000	-0.003	0.022
-378.902	-200.000	0.051	-0.287
-377.888	154.988	0.162	0.222
-376.873	-69.039	0.036	0.014
-375.858	123.000	-0.029	-0.036
-374.844	-200.000	-0.029	0.340
-373.829	-137.122	-0.142	-0.016
-372.815	2.706	-0.212	0.154
-371.800	142.262	-0.182	-0.241
-370.785	-200.000	0.002	0.109
-369.771	800.000	-0.166	-0.525
-368.756	-35.994	-0.145	-0.078
-367.742	127.127	0.163	-0.207
-366.727	187.151	-0.237	0.353
-365.712	-150.288	0.110	-0.009
-364.698	800.000	-0.050	0.184
-363.683	129.442	0.185	-0.236
-362.669	112.282	-0.210	0.254
-361.654	-200.000	0.009	-0.129
-360.639	253.625	0.039	-0.066
-359.625	-105.625	0.252	-0.057
-358.610	37.206	0.072	0.064
-357.596	222.965	-0.252	0.405
-356.581	-75.208	0.272	-0.097
-355.566	-19.458	0.182	-0.113
-354.552	800.000	0.063	-0.253
-353.537	-84.060	0.182	0.058
-352.523	214.810	-0.169	0.268
-351.508	-18.330	-0.109	0.068
-350.493	43.237	-0.307	0.279
-349.479	-19.209	0.188	0.117
-348.464	217.456	-0.030	-0.048
-347.450	38.928	-0.269	0.240
-346.435	800.000	0.046	-0.168
-345.420	-200.000	0.000	-0.090
-344.406	437.145	-0.200	0.434
-343.391	-32.133	0.133	-0.074
-342.377	-129.580	0.172	-0.024
-341.362	-42.646	-0.314	0.159
-340.348	42.580	-0.188	0.170
-339.333	-34.373	0.118	-0.064
-338.318	800.000	0.127	-0.448
-337.304	-200.000	-0.007	0.167
-336.289	-119.381	0.287	-0.050
-335.275	-5.119	0.157	-0.108
-334.260	-136.592	-0.173	0.020
-333.245	87.908	0.150	0.166
-332.231	-1.283	-0.070	0.050
-331.216	29.474	0.230	-0.195
-330.202	-82.949	-0.200	-0.064
-329.187	800.000	-0.054	-0.173
-328.172	-159.611	-0.044	0.002
-327.158	-200.000	0.010	0.129
-326.143	-98.268	-0.253	0.065
-325.129	-178.964	0.202	0.005
-324.114	-144.957	0.402	-0.037
-323.099	82.216	-0.235	0.254
-322.085	-84.847	0.200	-0.063
-321.070	-200.000	-0.010	0.054
-320.056	450.104	0.116	0.255
-319.041	-179.278	-0.184	-0.004
-318.026	-200.000	0.024	0.146
-317.012	96.281	0.085	-0.097
-315.997	-200.000	0.002	-0.032
-314.983	52.174	-0.272	0.259
-313.968	-154.694	0.233	-0.015
-312.953	-111.424	-0.253	0.051
-311.939	194.227	0.092	0.140
-310.924	182.063	0.138	0.202
-309.910	-20.131	0.235	-0.144
-308.895	492.756	-0.037	-0.085
-307.880	212.013	-0.084	0.132
-306.866	144.171	0.083	0.111
-305.851	-200.000	0.036	-0.195
-304.837	65.392	0.157	-0.158
-303.822	41.704	-0.047	-0.042
-302.807	-110.132	-0.218	-0.045
-301.793	-200.000	-0.102	0.491
-300.778	-200.000	0.033	-0.394
-299.764	-84.370	-0.360	-0.114
-298.749	-116.838	0.028	0.005
-297.735	-200.000	0.071	-0.423
-296.720	-78.442	0.119	0.041
-295.705	-67.864	0.276	-0.108
-294.691	2.703	-0.196	-0.141
-293.676	-91.449	-0.143	-0.041
-292.662	17.162	0.040	-0.032
-291.647	-200.000	0.010	0.217
-290.632	-200.000	0.042	0.211
-289.618	57.820	-0.148	-0.144
-288.603	-200.000	-0.009	0.093
-287.589	-162.009	-0.301	-0.015
-286.574	-200.000	-0.018	0.386
-285.559	284.203	-0.046	-0.083
-284.545	-137.522	-0.129	-0.014
-283.530	104.760	0.128	0.150
-282.516	-21.177	0.084	0.051
-281.501	724.167	0.083	-0.221
-280.486	300.297	-0.027	-0.050
-279.472	369.101	0.139	0.281
-278.457	169.534	0.298	0.424
-277.443	-129.289	0.368	-0.051
-276.428	285.983	-0.012	0.022
-275.413	-48.085	0.209	-0.101
-274.399	58.004	-0.072	0.071
-273.384	185.592	0.099	-0.146
-272.370	-200.000	-0.021	-0.264
-271.355	-60.959	-0.196	-0.082
-270.340	32.582	-0.309	0.266
-269.326	144.005	-0.117	0.155
-268.311	157.117	0.061	0.084
-267.297	31.804	0.119	0.102
-266.282	-56.542	0.221	0.097
-265.267	-200.000	0.073	-0.412
-264.253	-69.133	0.246	-0.094
-263.238	-86.575	-0.314	-0.096
-262.224	-54.558	-0.090	-0.041
-261.209	49.931	-0.138	-0.130
-260.195	-33.804	0.018	-0.010
-259.180	-182.950	-0.311	0.006
-258.165	-81.322	0.091	0.030
-257.151	3.598	0.142	-0.103
-256.136	480.363	-0.135	0.305
-255.122	-183.568	0.297	0.005
-254.107	39.626	0.147	-0.131
-253.092	-117.401	-0.034	-0.006
-252.078	22.331	0.215	-0.175
-251.063	-200.000	-0.033	-0.149
-250.049	-200.000	0.059	-0.448
-249.034	-200.000	0.067	-0.298
-248.019	-200.000	0.054	0.249
-247.005	383.754	-0.016	-0.032
-245.990	-104.630	-0.212	0.048
-244.976	89.695	-0.074	-0.082
-243.961	61.203	-0.185	-0.182
-242.946	61.317	0.167	-0.165
-241.932	800.000	-0.038	-0.139
-240.917	-126.618	0.085	-0.013
-239.903	12.276	0.190	0.145
-238.888	-64.395	0.155	-0.063
-237.873	5.158	-0.132	0.097
-236.859	12.571	0.129	0.099
-235.844	-72.736	-0.174	-0.064
-234.830	40.522	-0.104	0.093
-233.815	-81.539	-0.194	-0.063
-232.800	-142.341	0.140	-0.014
-231.786	800.000	-0.065	0.195
-230.771	-200.000	0.006	0.233
-229.757	-83.740	0.238	-0.075
-228.742	-200.000	-0.003	-0.203
-227.727	-28.881	0.238	-0.136
-226.713	-76.479	0.354	-0.124
-225.698	-56.561	0.100	-0.044
-224.684	-15.838	-0.137	0.087
-223.669	-40.601	-0.064	0.033
-222.655	360.442	0.042	-0.084
-221.640	710.810	0.077	0.201
-220.625	-127.633	-0.188	0.027
-219.611	328.946	0.180	-0.344
-218.596	-200.000	-0.031	-0.438
-217.582	-120.106	0.195	-0.033
-216.567	4.467	0.033	-0.024
-215.552	-200.000	0.013	0.067
-214.538	-142.935	0.228	0.022
-213.523	-73.785	0.168	-0.061
-212.509	63.640	0.126	-0.126
-211.494	-200.000	-0.023	0.149
-210.479	76.104	-0.180	-0.189
-209.465	77.498	-0.120	0.127
-208.450	-200.000	0.003	-0.150
-207.436	-164.908	0.085	-0.004
-206.421	175.275	-0.187	-0.269
-205.406	-33.036	0.178	0.098
-204.392	-36.327	-0.265	0.142
-203.377	477.232	0.199	-0.446
-202.363	800.000	0.063	0.193
-201.348	262.219	-0.174	-0.299
-200.333	69.726	-0.113	-0.116
-199.319	-177.187	0.118	0.003
-198.304	-126.942	0.258	0.038
-197.290	-40.715	0.250	0.128
-196.275	-127.328	-0.249	0.036
-195.260	595.700	0.107	0.262
-194.246	3.109	0.427	0.308
-193.231	370.706	-0.206	0.414
-192.217	800.000	-0.026	0.098
-191.202	-40.005	-0.163	0.085
-190.187	-4.704	-0.258	-0.177
-189.173	-200.000	-0.004	-0.485
-188.158	-39.866	-0.136	0.071
-187.144	31.427	-0.245	-0.208
-186.129	-89.694	-0.136	0.040
-185.114	-200.000	0.009	-0.117
-184.100	-96.988	-0.169	-0.044
-183.085	-7.083	-0.146	0.098
-182.071	800.000	0.106	0.426
-181.056	247.397	0.041	-0.069
-180.042	123.316	0.190	-0.236
-179.027	-39.388	0.143	0.074
-178.012	82.418	0.276	-0.297
-176.998	-105.746	0.130	0.029
-175.983	800.000	0.095	-0.267
-174.969	-108.614	-0.053	0.011
-173.954	-102.781	-0.056	-0.013
-172.939	89.503	0.219	0.242
-171.925	691.945	0.099	0.258
-170.910	-99.102	0.464	0.116
-169.896	800.000	0.012	-0.043
-168.881	90.205	0.106	-0.118
-167.866	37.462	0.163	-0.143
-166.852	-106.874	0.037	0.008
-165.837	-3.243	-0.192	0.132
-164.823	46.258	0.080	0.074
-163.808	-70.099	0.326	-0.123
-162.793	85.431	0.119	-0.129
-161.779	8.064	-0.179	0.133
-160.764	-15.404	0.219	0.139
-159.750	-31.988	-0.326	0.181
-158.735	-60.143	0.252	-0.106
-157.720	-50.449	0.011	-0.005
-156.706	-200.000	0.103	-0.463
-155.691	329.903	0.085	0.162
-154.677	125.527	0.124	0.155
-153.662	616.392	0.081	-0.201
-152.647	-152.649	-0.205	-0.014
-151.633	-40.760	-0.103	0.053
-150.618	800.000	-0.033	0.109
-149.604	-106.952	-0.069	-0.015
-148.589	-20.834	0.259	-0.157
-147.574	200.619	0.223	-0.340
-146.560	-118.011	-0.132	0.023
-145.545	-163.248	0.194	0.009
-144.531	-200.000	-0.040	0.407
-143.516	800.000	0.081	-0.238
-142.502	678.705	0.086	-0.221
-141.487	39.261	0.187	0.165
-140.472	-200.000	-0.005	0.032
-139.458	800.000	-0.040	0.144
-138.443	561.982	-0.071	-0.170
-137.429	-137.941	0.096	0.011
-136.414	-92.831	0.078	-0.022
-135.399	22.739	0.047	0.038
-134.385	800.000	-0.063	0.220
-133.370	123.179	-0.121	-0.151
-132.356	65.691	0.104	0.104
-131.341	-139.538	0.357	0.038
-130.326	77.843	-0.147	-0.155
-129.312	800.000	-0.086	-0.314
-128.297	-96.151	0.244	-0.064
-127.283	3.025	-0.305	-0.219
-126.268	6.753	0.136	0.100
-125.253	-12.869	0.287	0.185
-124.239	-200.000	0.003	0.137
-123.224	800.000	-0.023	0.073
-122.210	138.918	0.121	-0.157
-121.195	426.659	0.086	0.184
-120.180	51.646	0.170	0.160
-119.166	-149.270	-0.379	-0.030
-118.151	-46.823	0.193	-0.094
-117.137	105.848	0.150	-0.176
-116.122	164.303	-0.132	0.184
-115.107	-200.000	-0.001	0.124
-114.093	145.878	0.162	0.215
-113.078	496.554	-0.080	0.181
-112.064	3.207	-0.095	0.069
-111.049	452.611	0.042	0.092
-110.034	-6.463	0.056	-0.038
-109.020	-200.000	-0.023	-0.217
-108.005	-4.606	-0.092	0.063
-106.991	-177.736	-0.123	-0.003
-105.976	38.803	0.113	0.100
-104.962	244.241	0.179	0.298
-103.947	-102.433	-0.111	-0.026
-102.932	-121.689	-0.256	-0.042
-101.918	-108.488	0.376	0.080
-100.903	24.919	0.365	0.299
-99.889	-86.954	-0.245	0.074
-98.874	93.505	0.291	0.325
-97.859	-18.474	0.406	-0.250
-96.845	96.840	-0.189	0.214
-95.830	741.349	-0.085	0.226
-94.816	-121.965	-0.192	-0.031
-93.801	-147.386	0.197	-0.017
-92.786	-56.616	-0.320	-0.140
-91.772	-170.544	0.171	0.006
-90.757	44.909	-0.362	-0.329
-89.743	800.000	0.014	0.041
-88.728	80.653	0.166	-0.176
-87.713	-200.000	0.044	0.207
-86.699	-200.000	-0.012	0.329
-85.684	19.104	0.061	-0.048
-84.670	-41.100	0.015	-0.008
-83.655	-63.161	0.374	-0.152
-82.640	-200.000	-0.056	-0.278
-81.626	185.271	0.114	0.168
-80.611	-68.162	-0.017	-0.007
-79.597	313.076	0.177	-0.328
-78.582	-91.730	0.182	-0.051
-77.567	271.456	0.120	0.209
-76.553	-92.013	-0.395	-0.111
-75.538	800.000	-0.104	0.332
-74.524	-164.707	-0.136	-0.006
-73.509	203.382	0.249	-0.381
-72.494	82.218	-0.057	-0.061
-71.480	-180.264	-0.031	-0.001
-70.465	546.842	-0.145	0.342
-69.451	202.143	0.121	-0.184
-68.436	-200.000	-0.063	-0.352
-67.422	245.080	-0.027	-0.046
-66.407	800.000	0.024	0.084
-65.392	-161.173	0.169	0.009
-64.378	-113.186	-0.444	0.086
-63.363	800.000	-0.039	0.123
-62.349	134.259	0.201	0.257
-61.334	179.853	-0.643	-0.930
-60.319	-17.961	0.539	0.334
-59.305	568.505	-0.406	-0.973
-58.290	32.032	0.686	0.584
-57.276	187.792	0.966	1.424
-56.261	-200.000	90.695	506.751
-55.246	558.605	1366.548	3253.306
-54.232	185.827	2616.655	3837.004
-53.217	110.948	2336.941	2775.504
-52.203	44.396	1946.697	1763.538
-51.188	38.515	1730.156	1521.767
-50.173	35.774	1683.754	1460.125
-49.159	51.047	1730.047	1618.136
-48.144	54.237	1748.251	1659.674
-47.130	38.172	1705.939	1497.600
-46.115	35.277	1690.536	1461.986
-45.100	35.149	1685.931	1456.972
-44.086	35.108	1683.343	1454.367
-43.071	35.065	1680.829	1451.812
-42.057	35.031	1678.439	1449.431
-41.042	35.123	1676.046	1447.999
-40.027	35.112	1674.146	1446.222
-39.013	35.148	1672.361	1444.892
-37.998	35.103	1670.562	1442.937
-36.984	35.102	1669.770	1442.190
-35.969	35.285	1667.665	1441.691
-34.954	35.240	1666.441	1440.240
-33.940	35.140	1664.673	1437.901
-32.925	35.236	1662.856	1437.000
-31.911	35.292	1661.196	1435.921
-30.896	35.278	1659.322	1434.142
-29.881	35.216	1657.930	1432.419
-28.867	35.284	1656.229	1431.397
-27.852	35.268	1654.744	1429.944
-26.838	35.296	1653.437	1428.962
-25.823	35.326	1651.646	1427.583
-24.809	35.292	1650.562	1426.336
-23.794	35.331	1649.250	1425.434
-22.779	35.331	1647.488	1423.853
-21.765	35.272	1645.925	1422.008
-20.750	35.193	1644.334	1419.991
-19.736	35.301	1642.569	1419.210
-18.721	35.326	1640.867	1417.869
-17.706	35.403	1639.474	1417.179
-16.692	35.257	1638.324	1415.050
-15.677	35.291	1636.702	1413.842
-14.663	35.394	1635.220	1413.269
-13.648	35.325	1633.745	1411.432
-12.633	35.275	1632.325	1409.781
-11.619	35.308	1630.684	1408.548
-10.604	35.272	1629.424	1407.142
-9.590	35.266	1627.788	1405.625
-8.575	35.350	1626.107	1404.734
-7.560	35.316	1624.987	1403.461
-6.546	35.275	1624.009	1402.263
-5.531	35.299	1623.006	1401.517
-4.517	35.283	1621.894	1400.381
-3.502	35.371	1620.781	1400.012
-2.487	35.403	1618.954	1398.607
-1.473	35.390	1607.665	1388.706
-0.458	33.129	1589.321	1356.608
0.556	28.150	1589.879	1327.689
1.571	26.026	1615.258	1333.080
2.586	25.563	1629.257	1341.066
3.600	22.161	1574.553	1271.358
4.615	11.326	1456.915	1103.345
5.629	1.921	1386.579	989.192
6.644	0.291	1377.937	972.427
7.659	0.118	1376.207	970.006
8.673	0.076	1374.950	968.765
9.688	0.016	1373.264	967.103
10.702	-0.214	1370.055	963.285
11.717	3.301	1377.635	991.178
12.731	13.752	1398.130	1073.799
13.746	21.686	1411.650	1135.737
14.761	23.138	1413.068	1146.192
15.775	23.295	1412.547	1146.680
16.790	23.272	1412.372	1146.288
17.804	23.387	1411.360	1146.110
18.819	23.583	1411.400	1147.307
19.834	23.586	1411.068	1146.955
20.848	23.700	1409.694	1146.474
21.863	23.707	1408.945	1145.813
22.877	23.701	1407.995	1144.895
23.892	23.551	1407.571	1143.487
24.907	23.703	1406.269	1143.301
25.921	23.658	1405.404	1142.209
26.936	23.698	1404.587	1141.702
27.950	23.628	1403.373	1140.162
28.965	23.619	1402.555	1139.343
29.980	23.694	1400.963	1138.430
30.994	23.575	1399.776	1136.602
32.009	23.675	1398.675	1136.244
33.023	23.646	1397.118	1134.694
34.038	23.667	1395.729	1133.603
35.053	23.657	1395.043	1132.883
36.067	23.708	1393.972	1132.238
37.082	23.657	1393.336	1131.295
38.096	23.663	1392.503	1130.553
39.111	23.723	1391.134	1129.729
40.126	23.671	1390.951	1129.148
41.140	23.645	1390.425	1128.456
42.155	23.557	1390.858	1128.145
43.169	23.629	1390.131	1127.912
44.184	23.668	1389.635	1127.662
45.199	23.569	1389.628	1126.924
46.213	23.696	1388.476	1126.700
47.228	23.569	1387.968	1125.382
48.242	23.681	1386.686	1124.949
49.257	23.567	1385.011	1122.772
50.271	23.633	1383.357	1121.748
51.286	23.636	1382.469	1120.948
52.301	23.723	1380.654	1119.927
53.315	23.626	1380.179	1118.828
54.330	23.719	1379.053	1118.402
55.344	23.594	1378.350	1116.950
56.359	23.588	1377.182	1115.867
57.374	23.615	1376.235	1115.171
58.388	23.708	1375.366	1114.952
59.403	23.729	1375.023	1114.704
60.417	23.685	1374.353	1113.784
61.432	23.648	1373.848	1113.047
62.447	23.711	1372.894	1112.571
63.461	23.725	1371.799	1111.670
64.476	23.693	1370.706	1110.486
65.490	23.710	1369.667	1109.655
66.505	23.672	1368.262	1108.179
67.520	23.742	1366.895	1107.410
68.534	23.694	1365.862	1106.178
69.549	23.626	1365.083	1105.026
70.563	23.692	1363.898	1104.380
71.578	23.597	1363.037	1102.995
72.593	23.704	1361.882	1102.628
73.607	23.660	1361.530	1101.968
74.622	23.643	1360.497	1100.931
75.636	23.675	1359.898	1100.545
76.651	23.688	1358.876	1099.704
77.666	23.724	1358.713	1099.699
78.680	23.718	1357.826	1098.842
79.695	23.728	1357.164	1098.273
80.709	23.701	1356.397	1097.391
81.724	23.679	1355.530	1096.451
82.739	23.692	1354.655	1095.729
83.753	23.657	1353.874	1094.784
84.768	23.734	1352.582	1094.118
85.782	23.768	1351.398	1093.271
86.797	23.681	1350.467	1091.889
87.812	23.734	1348.885	1090.835
88.826	23.698	1348.195	1089.961
89.841	23.682	1347.187	1088.951
90.855	23.765	1345.831	1088.267
91.870	23.758	1345.288	1087.691
92.884	23.664	1344.872	1086.682
93.899	23.793	1343.974	1086.650
94.914	23.802	1342.952	1085.783
95.928	23.697	1342.210	1084.444
96.943	23.745	1341.286	1083.898
97.957	23.676	1340.790	1082.978
98.972	23.702	1339.601	1082.082
99.987	23.699	1338.299	1080.915
101.001	23.750	1337.671	1080.622
102.016	23.778	1336.548	1079.791
103.030	23.686	1336.082	1078.757
104.045	23.733	1335.283	1078.304
105.060	23.727	1334.490	1077.529
106.074	23.755	1332.943	1076.355
107.089	23.841	1332.056	1076.067
108.103	23.791	1330.705	1074.577
109.118	23.744	1329.661	1073.352
110.133	23.723	1328.709	1072.366
111.147	23.790	1327.677	1071.839
112.162	23.768	1326.368	1070.554
113.176	23.809	1325.262	1069.815
114.191	23.786	1324.426	1068.908
115.206	23.799	1323.375	1068.044
116.220	23.726	1322.360	1066.688
117.235	23.752	1321.384	1065.964
118.249	23.764	1320.544	1065.268
119.264	23.800	1319.332	1064.407
120.279	23.916	1317.845	1063.808
121.293	23.842	1318.064	1063.450
122.308	23.835	1317.116	1062.546
123.322	23.886	1316.421	1062.196
124.337	23.998	1315.150	1061.749
125.352	23.947	1314.417	1060.757
126.366	23.809	1313.905	1059.431
127.381	23.824	1313.240	1058.890
128.395	23.872	1311.378	1057.579
129.410	23.946	1311.069	1057.676
130.424	23.930	1310.206	1056.787
131.439	23.830	1309.499	1055.531
132.454	23.856	1308.514	1054.799
133.468	23.881	1308.289	1054.673
134.483	23.879	1307.524	1053.949
135.497	23.889	1306.232	1052.873
136.512	23.853	1305.239	1051.771
137.527	23.939	1304.411	1051.516
138.541	23.816	1302.878	1049.462
139.556	23.733	1301.724	1047.948
140.570	23.831	1300.422	1047.389
141.585	23.878	1299.541	1046.863
142.600	23.790	1298.373	1045.308
143.614	23.864	1297.442	1044.900
144.629	23.818	1296.673	1043.923
145.643	23.670	1295.493	1042.009
146.658	23.727	1294.439	1041.405
147.673	23.701	1293.763	1040.614
148.687	23.711	1292.252	1039.366
149.702	23.650	1291.515	1038.327
150.716	23.712	1290.037	1037.406
151.731	23.830	1289.217	1037.345
152.746	23.781	1288.132	1036.098
153.760	23.762	1287.121	1035.080
154.775	23.848	1285.924	1034.526
155.789	23.866	1285.365	1034.091
156.804	23.877	1284.105	1033.045
157.819	23.737	1283.583	1031.720
158.833	23.677	1282.918	1030.751
159.848	23.855	1281.731	1030.738
160.862	23.928	1280.647	1030.196
161.877	23.879	1280.369	1029.597
162.892	23.941	1279.465	1029.139
163.906	23.857	1278.629	1027.887
164.921	23.837	1278.418	1027.513
165.935	23.818	1277.514	1026.585
166.950	23.875	1276.741	1026.202
167.964	23.981	1275.893	1026.040
168.979	23.945	1275.435	1025.375
169.994	24.078	1274.636	1025.408
171.008	23.938	1274.337	1024.273
172.023	23.936	1273.218	1023.268
173.037	23.995	1272.611	1023.031
174.052	23.895	1272.223	1022.052
175.067	23.983	1270.854	1021.371
176.081	23.887	1270.226	1020.224
177.096	23.797	1269.911	1019.363
178.110	23.930	1268.717	1019.077
179.125	23.891	1267.635	1017.893
180.140	23.908	1266.401	1016.908
181.154	23.889	1265.335	1015.857
182.169	23.991	1264.317	1015.529
183.183	23.999	1263.479	1014.815
184.198	23.935	1262.366	1013.466
185.213	24.010	1261.426	1013.048
186.227	24.141	1260.018	1012.572
187.242	24.126	1259.156	1011.704
188.256	24.006	1258.986	1010.798
189.271	24.165	1257.226	1010.198
190.286	23.938	1257.353	1008.918
191.300	24.040	1256.757	1008.929
192.315	23.946	1256.327	1007.966
193.329	23.998	1256.031	1007.930
194.344	24.115	1255.121	1007.775
195.359	24.014	1254.854	1006.899
196.373	24.081	1253.940	1006.456
197.388	24.013	1253.612	1005.717
198.402	23.968	1253.492	1005.281
199.417	23.987	1252.963	1004.873
200.432	23.974	1252.458	1004.309
201.446	23.980	1251.640	1003.596
202.461	23.938	1250.655	1002.479
203.475	24.051	1249.953	1002.464
204.490	23.907	1249.038	1000.832
205.504	24.039	1247.864	1000.544
206.519	24.085	1247.044	1000.055
207.534	24.055	1246.169	999.102
208.548	24.021	1245.219	998.059
209.563	24.000	1244.444	997.231
210.577	24.105	1243.015	996.585
211.592	24.059	1242.781	996.053
212.607	24.109	1242.252	995.823
213.621	24.235	1240.701	995.195
214.636	24.119	1240.636	994.404
215.650	24.093	1239.441	993.215
216.665	24.082	1238.462	992.282
217.680	24.051	1237.799	991.489
218.694	24.163	1237.008	991.393
219.709	24.146	1236.119	990.493
220.723	24.062	1235.981	989.828
221.738	24.117	1235.115	989.353
222.753	24.135	1233.958	988.440
223.767	24.097	1233.610	987.861
224.782	24.149	1233.336	987.842
225.796	24.189	1232.500	987.307
226.811	24.217	1231.783	986.803
227.826	24.159	1231.573	986.224
228.840	24.182	1230.722	985.584
229.855	24.187	1230.164	985.079
230.869	24.215	1229.172	984.353
231.884	24.182	1228.772	983.762
232.899	24.213	1227.783	983.055
233.913	24.214	1227.503	982.745
234.928	24.317	1226.579	982.490
235.942	24.407	1225.795	982.269
236.957	24.316	1225.164	981.176
237.972	24.321	1224.785	980.813
238.986	24.339	1223.918	980.131
240.001	24.413	1223.309	979.963
241.015	24.424	1222.560	979.338
242.030	24.398	1221.651	978.377
243.045	24.448	1221.051	978.084
244.059	24.451	1220.056	977.221
245.074	24.383	1219.846	976.593
246.088	24.435	1218.514	975.726
247.103	24.386	1217.677	974.701
248.117	24.451	1217.198	974.587
249.132	24.372	1216.405	973.430
250.147	24.443	1216.010	973.416
251.161	24.512	1215.014	972.910
252.176	24.509	1214.484	972.385
253.190	24.513	1213.548	971.567
254.205	24.472	1213.310	971.070
255.220	24.578	1212.502	970.914
256.234	24.496	1212.123	970.077
257.249	24.522	1211.101	969.316
258.263	24.504	1210.591	968.727
259.278	24.573	1210.074	968.601
260.293	24.506	1209.946	968.047
261.307	24.410	1209.196	966.842
262.322	24.615	1208.019	966.924
263.336	24.454	1208.244	966.147
264.351	24.588	1206.989	965.786
265.366	24.641	1206.050	965.234
266.380	24.527	1205.882	964.399
267.395	24.474	1205.284	963.546
268.409	24.501	1204.042	962.617
269.424	24.517	1203.954	962.546
270.439	24.531	1203.607	962.259
271.453	24.571	1202.783	961.733
272.468	24.486	1202.083	960.628
273.482	24.587	1201.020	960.236
274.497	24.573	1200.893	959.974
275.512	24.592	1200.229	959.462
276.526	24.584	1199.818	959.004
277.541	24.579	1198.984	958.225
278.555	24.666	1198.273	958.042
279.570	24.681	1197.372	957.317
280.585	24.624	1196.571	956.284
281.599	24.740	1195.593	956.037
282.614	24.662	1194.940	955.012
283.628	24.698	1193.861	954.260
284.643	24.639	1193.404	953.496
285.657	24.722	1192.424	953.068
286.672	24.645	1191.798	952.078
287.687	24.784	1190.958	952.058
288.701	24.662	1190.517	950.976
289.716	24.701	1189.545	950.320
290.730	24.737	1188.694	949.749
291.745	24.745	1188.430	949.494
292.760	24.789	1187.125	948.602
293.774	24.811	1186.631	948.240
294.789	24.836	1186.443	948.140
295.803	24.899	1185.747	947.830
296.818	24.902	1184.691	946.919
297.833	24.929	1183.925	946.366
298.847	24.919	1183.577	945.954
299.862	24.768	1183.061	944.661
300.876	24.845	1182.615	944.624
301.891	24.920	1181.837	944.314
302.906	24.837	1181.239	943.316
303.920	24.872	1180.684	942.977
304.935	24.994	1179.789	942.817
305.949	24.889	1179.310	941.799
306.964	24.920	1178.597	941.310
307.979	24.995	1178.176	941.284
308.993	24.933	1177.287	940.166
310.008	24.932	1176.630	939.554
311.022	25.033	1175.473	939.076
312.037	25.081	1174.713	938.635
313.052	25.038	1174.286	937.986
314.066	25.025	1173.510	937.218
315.081	24.967	1172.486	936.013
316.095	25.028	1171.903	935.783
317.110	25.077	1171.159	935.361
318.125	25.008	1170.961	934.760
319.139	24.989	1169.924	933.749
320.154	25.033	1169.621	933.656
321.168	24.983	1169.392	933.129
322.183	25.095	1168.423	932.857
323.197	24.980	1167.877	931.742
324.212	25.043	1166.997	931.284
325.227	25.090	1166.903	931.369
326.241	25.131	1166.227	930.964
327.256	25.087	1165.662	930.202
328.270	25.116	1164.298	929.179
329.285	25.165	1163.569	928.766
330.300	25.270	1162.764	928.587
331.314	25.155	1161.817	927.157
332.329	25.141	1161.471	926.725
333.343	25.207	1160.387	926.115
334.358	25.187	1159.776	925.446
335.373	25.309	1159.009	925.380
336.387	25.314	1158.159	924.647
337.402	25.189	1157.709	923.562
338.416	25.275	1157.289	923.584
339.431	25.250	1156.537	922.776
340.446	25.299	1155.672	922.258
341.460	25.417	1154.887	922.154
342.475	25.368	1154.219	921.290
343.489	25.335	1153.402	920.385
344.504	25.407	1152.469	919.929
345.519	25.349	1151.581	918.841
346.533	25.372	1150.804	918.259
347.548	25.381	1149.988	917.571
348.562	25.308	1149.476	916.706
349.577	25.449	1148.571	916.625
350.592	25.429	1148.021	916.005
351.606	25.386	1147.068	914.943
352.621	25.396	1146.916	914.790
353.635	25.435	1146.298	914.416
354.650	25.341	1145.786	913.447
355.665	25.408	1144.923	913.018
356.679	25.587	1143.903	913.033
357.694	25.428	1144.114	912.317
358.708	25.471	1143.115	911.654
359.723	25.492	1142.353	911.074
360.738	25.359	1141.862	909.928
361.752	25.413	1141.487	909.823
362.767	25.538	1140.719	909.761
363.781	25.523	1140.175	909.172
364.796	25.631	1139.803	909.340
365.810	25.710	1138.597	908.697
366.825	25.558	1138.298	907.611
367.840	25.716	1137.942	908.043
368.854	25.520	1137.360	906.511
369.869	25.634	1136.636	906.429
370.883	25.727	1135.573	905.966
371.898	25.658	1135.060	905.129
372.913	25.658	1134.365	904.495
373.927	25.699	1134.044	904.368
374.942	25.675	1133.631	903.834
375.956	25.582	1133.252	902.988
376.971	25.659	1132.263	902.505
377.986	25.651	1131.875	902.073
379.000	25.627	1131.830	901.840
380.015	25.666	1130.811	901.144
381.029	25.699	1130.234	900.768
382.044	25.663	1129.333	899.791
383.059	25.816	1128.836	900.080
384.073	25.836	1127.919	899.371
385.088	25.845	1127.109	898.690
386.102	25.851	1126.184	897.901
387.117	25.772	1125.438	896.831
388.132	25.741	1124.309	895.703
389.146	25.792	1123.886	895.536
390.161	25.926	1123.179	895.563
391.175	25.824	1122.786	894.661
392.190	25.931	1122.290	894.721
393.205	25.899	1121.148	893.571
394.219	25.985	1120.058	893.047
395.234	26.095	1119.700	893.226
396.248	25.999	1118.380	891.623
397.263	25.931	1118.313	891.155
398.278	25.986	1117.265	890.511
399.292	26.116	1116.764	890.677
400.307	26.054	1116.008	889.689
401.321	25.879	1116.102	888.820
402.336	25.954	1115.172	888.369
403.350	25.942	1114.123	887.400
404.365	26.044	1113.698	887.484
405.380	26.086	1112.836	886.924
406.394	26.027	1112.396	886.206
407.409	26.107	1111.516	885.817
408.423	26.117	1110.627	885.078
409.438	26.221	1109.825	884.871
410.453	26.253	1109.251	884.494
411.467	26.160	1108.601	883.440
412.482	26.078	1108.007	882.486
413.496	26.130	1107.561	882.307
414.511	26.259	1106.505	882.021
415.526	26.204	1106.230	881.455
416.540	26.101	1106.179	880.831
417.555	26.116	1105.370	880.182
418.569	26.177	1104.968	880.084
419.584	26.220	1104.578	879.904
420.599	26.273	1103.801	879.466
421.613	144.901	1403.982	1790.138
422.628	134.425	1447.706	1790.262
