DTS Sentinel unit serial number:	SN413079Multiplexer serial number:	ORYXHardware model number:	OX4-SRSoftware version number:	ORYX F/W v4.00 Oryx Data Collector v3.7.2.0data status	okinstallation	princeton_trtdifferential loss correction	single-endedforward channel	channel 2reverse channel	N/Adate	2019/09/11time	17:41:11forward acquisition time	60.00reverse acquisition time	0.00gamma	496.2192k internal	0.2284k external	0.2284temperature offset calibration	1.0021default loss term (dB/km)	0.3790temperature slope calibration	1.0000multiplexer offset coefficient	1.0000multiplexer slope coefficient	1.0000fibre end	0.00T internal ref (°C)	43.83T ext. ref 1 (°C)	1.10T ext. ref 2 (°C)	39.08length (m)	temperature (°C)	Stokes	anti-Stokes-747.200	-59.283	-0.352	0.156
-746.185	-54.273	0.104	0.049
-745.171	357.442	0.051	-0.105
-744.156	103.059	-0.379	0.457
-743.142	133.918	0.157	0.209
-742.127	22.301	-0.386	0.324
-741.112	-200.000	0.070	0.381
-740.098	667.451	-0.042	0.111
-739.083	-33.340	0.183	-0.104
-738.069	-6.039	-0.093	0.065
-737.054	-200.000	0.006	0.040
-736.039	-119.369	-0.046	-0.008
-735.025	121.437	-0.156	0.199
-734.010	-62.519	-0.193	0.082
-732.996	-115.249	-0.241	0.047
-731.981	-169.415	-0.594	0.022
-730.966	296.644	0.092	0.173
-729.952	-34.710	0.230	0.129
-728.937	36.855	-0.028	0.025
-727.923	-122.202	-0.114	-0.019
-726.908	95.593	0.419	0.491
-725.894	-44.924	-0.278	-0.142
-724.879	-200.000	-0.060	-0.333
-723.864	-63.921	0.146	-0.061
-722.850	390.393	0.062	-0.132
-721.835	-200.000	-0.011	0.323
-720.821	8.496	0.086	-0.067
-719.806	705.850	-0.070	-0.189
-718.791	-31.108	0.071	-0.041
-717.777	25.675	-0.324	-0.277
-716.762	619.160	-0.076	-0.196
-715.748	-176.399	-0.382	-0.010
-714.733	-35.878	-0.222	-0.123
-713.718	289.720	0.120	-0.224
-712.704	28.822	-0.259	-0.225
-711.689	61.031	-0.123	0.125
-710.675	212.980	0.107	-0.173
-709.660	364.085	-0.010	-0.021
-708.645	-84.816	-0.079	-0.025
-707.631	-170.716	0.095	0.003
-706.616	-200.000	0.001	0.192
-705.602	-200.000	0.032	-0.166
-704.587	-92.525	-0.254	-0.073
-703.572	36.771	-0.255	-0.231
-702.558	65.942	-0.222	0.231
-701.543	100.006	0.072	0.085
-700.529	274.427	-0.167	-0.302
-699.514	437.206	0.035	-0.079
-698.499	164.851	-0.175	-0.253
-697.485	-60.360	-0.035	-0.015
-696.470	-200.000	0.002	0.050
-695.456	-90.879	-0.081	-0.024
-694.441	-158.411	0.033	0.002
-693.426	-110.933	0.302	-0.064
-692.412	-110.150	0.152	-0.032
-691.397	-200.000	-0.027	-0.248
-690.383	26.084	0.149	-0.127
-689.368	-93.376	0.241	-0.068
-688.354	-200.000	0.019	-0.100
-687.339	373.763	0.104	-0.216
-686.324	230.216	0.037	0.063
-685.310	219.697	-0.107	-0.175
-684.295	162.602	0.059	-0.085
-683.281	134.725	0.109	-0.145
-682.266	-105.211	-0.252	0.059
-681.251	69.315	-0.225	0.237
-680.237	-15.189	-0.327	0.215
-679.222	800.000	-0.029	0.103
-678.208	-139.882	0.255	0.028
-677.193	166.704	-0.029	-0.043
-676.178	-54.325	-0.040	0.019
-675.164	147.778	0.048	0.066
-674.149	-79.941	-0.141	-0.048
-673.135	-85.974	-0.059	0.019
-672.120	-58.388	-0.071	-0.031
-671.105	-200.000	-0.044	-0.206
-670.091	330.073	0.065	0.128
-669.076	-111.965	0.184	0.038
-668.062	-123.535	-0.075	0.012
-667.047	210.527	-0.179	0.288
-666.032	492.142	0.144	0.339
-665.018	-200.000	-0.011	0.144
-664.003	-200.000	-0.027	0.148
-662.989	-85.234	-0.132	0.042
-661.974	800.000	-0.064	-0.246
-660.959	255.033	0.045	-0.078
-659.945	550.954	0.057	0.141
-658.930	112.617	-0.205	0.255
-657.916	-121.725	0.031	0.005
-656.901	27.104	-0.173	0.148
-655.886	-88.099	-0.332	0.102
-654.872	-200.000	0.022	-0.155
-653.857	155.397	-0.094	0.132
-652.843	49.065	-0.368	0.354
-651.828	-200.000	0.002	0.322
-650.814	-92.553	-0.182	0.052
-649.799	-200.000	0.041	0.323
-648.784	-14.625	-0.043	-0.028
-647.770	21.900	-0.134	0.111
-646.755	-48.302	-0.208	-0.102
-645.741	1.240	-0.170	0.125
-644.726	116.209	0.168	0.211
-643.711	395.111	-0.155	-0.332
-642.697	-128.286	0.238	0.035
-641.682	-114.866	-0.154	-0.030
-640.668	149.922	-0.069	0.096
-639.653	266.427	-0.113	-0.202
-638.638	56.719	0.069	-0.069
-637.624	-188.179	-0.133	-0.002
-636.609	174.105	0.021	0.030
-635.595	90.668	-0.247	0.283
-634.580	-156.468	0.302	0.019
-633.565	-200.000	-0.003	-0.181
-632.551	-82.988	-0.111	-0.037
-631.536	14.967	0.040	0.032
-630.522	-140.830	0.316	-0.033
-629.507	-200.000	-0.004	-0.055
-628.492	83.920	0.184	0.206
-627.478	13.515	0.131	-0.104
-626.463	-35.660	-0.223	0.124
-625.449	19.760	0.244	0.201
-624.434	800.000	0.080	-0.273
-623.419	188.969	-0.153	-0.233
-622.405	3.359	0.228	-0.169
-621.390	107.164	-0.159	-0.193
-620.376	-47.016	-0.191	0.096
-619.361	669.800	0.182	-0.482
-618.346	23.649	-0.118	0.099
-617.332	95.485	-0.150	-0.175
-616.317	177.525	-0.180	-0.268
-615.303	800.000	-0.037	-0.134
-614.288	-120.770	-0.200	-0.035
-613.273	-200.000	0.065	-0.426
-612.259	-8.946	-0.079	0.054
-611.244	55.261	0.419	-0.414
-610.230	32.419	-0.073	-0.065
-609.215	99.566	-0.146	-0.172
-608.201	-5.021	-0.305	0.215
-607.186	-134.899	-0.416	-0.051
-606.171	-200.000	-0.012	-0.209
-605.157	-200.000	-0.007	-0.226
-604.142	71.640	0.092	-0.098
-603.128	497.677	-0.095	0.223
-602.113	524.895	-0.103	0.246
-601.098	-46.988	0.364	0.182
-600.084	-65.407	-0.200	0.082
-599.069	-129.147	0.239	-0.034
-598.055	-57.797	-0.041	0.018
-597.040	-33.552	0.088	-0.050
-596.025	-200.000	0.014	0.124
-595.011	800.000	0.008	-0.029
-593.996	-141.850	0.130	0.013
-592.982	-93.168	0.146	0.041
-591.967	137.303	-0.361	-0.482
-590.952	800.000	-0.113	0.404
-589.938	-28.183	-0.380	-0.224
-588.923	54.862	-0.079	-0.078
-587.909	-200.000	0.010	0.093
-586.894	143.325	-0.107	-0.146
-585.879	-40.968	-0.079	-0.041
-584.865	236.237	0.113	0.191
-583.850	-161.259	-0.197	-0.010
-582.836	28.601	0.254	0.219
-581.821	-173.949	0.145	-0.004
-580.806	57.104	-0.150	-0.150
-579.792	160.955	-0.026	-0.037
-578.777	-200.000	0.046	0.228
-577.763	-200.000	0.085	-0.406
-576.748	-200.000	-0.574	0.000
-575.733	-200.000	-0.044	-0.400
-574.719	-70.143	-0.223	-0.087
-573.704	41.678	0.326	-0.301
-572.690	800.000	0.093	-0.311
-571.675	-15.583	-0.239	0.156
-570.661	24.956	0.049	-0.041
-569.646	57.617	0.102	-0.101
-568.631	-200.000	-0.016	0.114
-567.617	290.152	-0.014	-0.025
-566.602	-200.000	0.002	0.102
-565.588	53.026	-0.169	-0.165
-564.573	355.017	0.097	0.196
-563.558	800.000	0.044	0.132
-562.544	-44.634	-0.205	0.104
-561.529	800.000	0.033	-0.110
-560.515	-21.209	0.040	-0.025
-559.500	800.000	-0.044	0.184
-558.485	800.000	-0.011	-0.031
-557.471	-27.513	-0.036	0.021
-556.456	152.608	-0.100	-0.139
-555.442	800.000	-0.015	-0.044
-554.427	-116.626	-0.325	0.061
-553.412	-130.738	0.331	-0.045
-552.398	-200.000	-0.005	-0.208
-551.383	800.000	0.112	-0.325
-550.369	-200.000	-0.051	-0.332
-549.354	756.005	0.022	0.060
-548.339	-200.000	-0.048	0.251
-547.325	-152.977	-0.158	-0.011
-546.310	-161.853	0.136	0.007
-545.296	800.000	-0.014	-0.064
-544.281	56.184	0.174	0.172
-543.266	584.940	-0.053	-0.133
-542.252	-200.000	-0.053	-0.000
-541.237	-50.830	-0.304	0.146
-540.223	186.721	-0.067	-0.101
-539.208	-9.320	0.246	-0.167
-538.193	800.000	0.078	-0.233
-537.179	87.182	-0.019	0.021
-536.164	-104.379	0.273	0.064
-535.150	-200.000	0.011	0.126
-534.135	-102.098	-0.349	-0.086
-533.121	122.606	-0.209	0.267
-532.106	275.524	0.159	0.288
-531.091	800.000	-0.081	-0.320
-530.077	20.299	0.347	-0.286
-529.062	124.140	0.061	0.078
-528.048	-67.046	0.264	0.106
-527.033	-113.603	-0.126	-0.025
-526.018	-61.261	0.130	-0.056
-525.004	-29.929	0.118	0.069
-523.989	3.512	-0.290	0.215
-522.975	800.000	0.054	-0.164
-521.960	-200.000	-0.005	-0.220
-520.945	470.252	0.022	0.051
-519.931	-55.434	0.217	0.099
-518.916	638.933	-0.129	0.333
-517.902	81.089	-0.101	0.112
-516.887	628.826	0.057	-0.146
-515.872	125.062	-0.163	0.209
-514.858	800.000	0.050	-0.201
-513.843	724.869	0.096	-0.262
-512.829	667.057	-0.097	-0.255
-511.814	-106.511	0.230	0.052
-510.799	-36.389	0.249	-0.137
-509.785	-86.864	0.247	0.077
-508.770	-54.962	-0.033	0.015
-507.756	-200.000	-0.164	0.000
-506.741	-85.191	-0.056	-0.018
-505.726	-106.675	-0.148	0.033
-504.712	-7.235	0.072	0.050
-503.697	142.380	-0.155	-0.209
-502.683	183.380	0.061	0.091
-501.668	-184.813	0.406	0.007
-500.653	85.573	0.211	-0.235
-499.639	800.000	-0.067	0.211
-498.624	-200.000	0.040	-0.207
-497.610	441.361	0.141	-0.315
-496.595	42.460	0.075	-0.070
-495.581	-200.000	-0.011	0.155
-494.566	22.705	-0.227	-0.189
-493.551	181.070	0.217	0.325
-492.537	-200.000	0.002	0.018
-491.522	-2.014	-0.322	-0.230
-490.508	209.335	-0.148	0.235
-489.493	-200.000	-0.034	-0.317
-488.478	-186.270	0.227	0.003
-487.464	-40.394	0.180	0.095
-486.449	-140.040	-0.457	0.049
-485.435	-30.758	-0.257	-0.148
-484.420	40.241	0.272	-0.249
-483.405	-39.993	0.110	-0.058
-482.391	-187.063	0.101	0.001
-481.376	-200.000	0.009	0.114
-480.362	-200.000	-0.001	0.242
-479.347	-85.753	0.186	0.059
-478.332	-200.000	0.025	0.119
-477.318	800.000	0.041	-0.160
-476.303	355.419	0.091	-0.183
-475.289	4.533	0.248	-0.185
-474.274	343.113	-0.166	-0.331
-473.259	800.000	0.024	-0.076
-472.245	183.059	-0.060	0.089
-471.230	51.526	-0.209	0.202
-470.216	-109.484	0.112	0.024
-469.201	421.019	-0.127	0.276
-468.186	188.473	0.106	0.161
-467.172	-32.069	0.026	0.015
-466.157	42.028	0.190	0.175
-465.143	-13.516	0.076	-0.050
-464.128	-121.161	-0.225	0.038
-463.113	6.259	-0.127	0.095
-462.099	-53.588	0.247	0.115
-461.084	2.719	0.064	0.047
-460.070	-200.000	-0.002	-0.295
-459.055	-67.213	0.116	0.047
-458.040	123.863	0.150	-0.191
-457.026	574.744	-0.049	0.122
-456.011	175.890	-0.101	-0.149
-454.997	-120.544	0.493	0.085
-453.982	-107.108	0.125	0.028
-452.968	800.000	-0.055	0.163
-451.953	-165.944	0.244	0.011
-450.938	-200.000	-0.019	-0.212
-449.924	-96.767	0.104	-0.028
-448.909	-110.025	0.147	-0.031
-447.895	377.201	-0.117	-0.242
-446.880	162.071	0.136	-0.193
-445.865	197.189	-0.080	0.124
-444.851	800.000	-0.117	0.465
-443.836	-17.711	0.073	0.047
-442.822	482.360	-0.143	-0.329
-441.807	-59.965	-0.253	-0.110
-440.792	-200.000	-0.023	-0.320
-439.778	-200.000	-0.040	-0.225
-438.763	800.000	0.016	-0.056
-437.749	-71.205	0.128	0.049
-436.734	249.599	0.101	-0.174
-435.719	-200.000	0.025	0.145
-434.705	-200.000	-0.013	0.071
-433.690	-79.337	0.241	-0.083
-432.676	235.069	-0.163	0.273
-431.661	47.714	-0.120	0.114
-430.646	800.000	-0.069	-0.289
-429.632	191.109	0.156	-0.238
-428.617	-40.124	-0.273	-0.144
-427.603	13.732	0.032	-0.025
-426.588	-200.000	-0.005	-0.237
-425.573	-200.000	0.009	-0.358
-424.559	588.711	-0.014	0.035
-423.544	169.408	-0.090	0.130
-422.530	-200.000	-0.013	-0.125
-421.515	-194.523	-0.376	-0.003
-420.500	-52.222	-0.210	-0.099
-419.486	-91.124	0.057	0.017
-418.471	-22.813	-0.301	0.184
-417.457	138.434	0.134	0.178
-416.442	304.509	-0.099	0.186
-415.428	-83.506	-0.520	-0.169
-414.413	183.538	-0.068	0.102
-413.398	-200.000	-0.065	-0.475
-412.384	-13.936	0.447	-0.293
-411.369	60.321	0.199	0.199
-410.355	0.269	-0.340	-0.246
-409.340	800.000	0.102	-0.288
-408.325	-11.999	0.117	-0.077
-407.311	47.593	0.177	-0.167
-406.296	-9.856	-0.120	-0.081
-405.282	7.795	-0.142	0.108
-404.267	507.437	-0.063	-0.148
-403.252	-56.568	0.269	-0.121
-402.238	-200.000	-0.073	0.386
-401.223	-8.265	-0.310	0.211
-400.209	800.000	-0.149	-0.469
-399.194	-132.274	-0.131	-0.017
-398.179	20.960	-0.226	0.186
-397.165	-143.986	-0.222	0.021
-396.150	-200.000	-0.040	-0.194
-395.136	-98.817	-0.292	0.075
-394.121	4.071	0.102	0.075
-393.106	183.654	-0.132	0.198
-392.092	-173.701	-0.272	0.008
-391.077	-125.477	-0.146	-0.022
-390.063	202.209	0.128	0.200
-389.048	-96.445	-0.149	-0.040
-388.033	43.403	-0.176	0.163
-387.019	-105.534	0.106	-0.024
-386.004	404.676	0.128	0.273
-384.990	231.062	-0.056	0.093
-383.975	163.711	0.086	0.122
-382.960	388.944	0.083	-0.175
-381.946	-85.818	0.156	0.049
-380.931	-102.177	0.249	0.061
-379.917	-55.578	0.265	0.120
-378.902	110.490	-0.070	0.086
-377.888	-200.000	-0.024	0.108
-376.873	-200.000	-0.058	-0.305
-375.858	-79.315	0.128	-0.044
-374.844	247.140	0.013	0.023
-373.829	510.184	-0.086	0.201
-372.815	1.181	-0.227	0.165
-371.800	158.892	-0.179	0.252
-370.785	800.000	-0.089	0.333
-369.771	-200.000	0.030	0.169
-368.756	-200.000	0.005	0.267
-367.742	355.776	0.029	-0.058
-366.727	59.758	0.358	0.358
-365.712	-15.161	-0.085	0.055
-364.698	-200.000	-0.028	0.160
-363.683	-200.000	0.031	0.156
-362.669	20.693	0.158	-0.129
-361.654	-200.000	0.000	-0.119
-360.639	300.223	-0.014	-0.026
-359.625	469.910	-0.084	0.192
-358.610	-200.000	0.026	-0.350
-357.596	-36.969	-0.255	0.138
-356.581	-126.676	-0.226	0.034
-355.566	87.057	0.235	0.263
-354.552	134.312	0.115	0.151
-353.537	-200.000	-0.036	0.289
-352.523	-80.949	0.137	0.046
-351.508	57.409	0.183	0.181
-350.493	-200.000	0.025	0.160
-349.479	-200.000	0.037	-0.333
-348.464	26.347	-0.302	-0.255
-347.450	800.000	-0.017	0.058
-346.435	538.333	-0.115	0.276
-345.420	49.401	-0.129	0.123
-344.406	751.398	0.075	-0.204
-343.391	30.089	0.112	0.097
-342.377	-129.458	0.239	-0.033
-341.362	800.000	-0.056	0.210
-340.348	-166.540	0.372	0.016
-339.333	-74.188	-0.158	0.058
-338.318	-0.976	-0.253	-0.181
-337.304	175.857	0.080	-0.118
-336.289	77.020	0.272	-0.292
-335.275	371.531	-0.103	-0.212
-334.260	150.166	-0.004	0.006
-333.245	-23.194	0.112	0.068
-332.231	160.390	0.124	0.174
-331.216	800.000	-0.083	0.356
-330.202	182.895	-0.129	0.192
-329.187	50.253	-0.092	0.088
-328.172	-115.476	0.256	0.049
-327.158	-76.257	0.351	-0.125
-326.143	-200.000	-0.081	0.423
-325.129	669.769	0.095	0.247
-324.114	-44.703	-0.175	-0.088
-323.099	47.728	0.101	-0.095
-322.085	-200.000	0.060	-0.294
-321.070	96.019	0.139	-0.160
-320.056	32.777	0.166	-0.145
-319.041	-60.461	0.163	-0.070
-318.026	437.986	0.155	0.341
-317.012	800.000	-0.093	0.318
-315.997	-55.271	-0.195	-0.089
-314.983	-131.964	-0.457	0.060
-313.968	281.246	0.057	-0.103
-312.953	340.702	0.211	-0.415
-311.939	46.632	-0.154	0.145
-310.924	81.244	0.145	0.158
-309.910	8.707	0.161	0.123
-308.895	-76.486	0.273	-0.097
-307.880	-98.730	-0.390	0.100
-306.866	11.655	0.260	0.201
-305.851	-140.193	-0.198	0.021
-304.837	165.923	-0.188	-0.268
-303.822	-24.597	-0.117	0.070
-302.807	57.809	0.146	0.144
-301.793	800.000	0.029	0.123
-300.778	-108.492	-0.157	0.034
-299.764	364.767	0.148	-0.301
-298.749	-157.212	-0.276	-0.017
-297.735	-3.791	-0.180	-0.126
-296.720	-200.000	0.005	0.445
-295.705	-134.781	0.289	-0.035
-294.691	-3.913	-0.124	0.087
-293.676	-109.233	-0.072	-0.016
-292.662	-93.671	0.191	0.053
-291.647	-120.789	-0.102	0.017
-290.632	54.272	0.143	-0.139
-289.618	-200.000	-0.047	0.218
-288.603	-114.161	-0.220	0.043
-287.589	800.000	0.058	-0.214
-286.574	136.348	0.137	-0.181
-285.559	-200.000	-0.028	0.158
-284.545	-9.597	-0.166	0.111
-283.530	-200.000	-0.003	0.156
-282.516	-200.000	0.015	0.262
-281.501	205.773	0.095	-0.150
-280.486	-200.000	-0.070	-0.449
-279.472	-66.949	-0.322	0.128
-278.457	482.339	0.122	-0.280
-277.443	344.873	0.097	0.193
-276.428	270.639	0.107	-0.190
-275.413	-200.000	0.038	-0.444
-274.399	-114.084	-0.117	-0.023
-273.384	-200.000	-0.016	-0.180
-272.370	315.216	0.192	-0.365
-271.355	56.501	-0.184	-0.180
-270.340	-151.931	0.290	-0.021
-269.326	88.141	-0.258	0.288
-268.311	800.000	0.012	0.043
-267.297	229.234	0.058	0.096
-266.282	56.648	-0.166	0.163
-265.267	117.378	0.238	0.295
-264.253	-200.000	0.020	0.108
-263.238	-200.000	-0.043	0.296
-262.224	728.648	0.032	-0.085
-261.209	146.306	0.169	-0.228
-260.195	800.000	0.031	0.090
-259.180	443.355	0.088	0.194
-258.165	-200.000	0.023	-0.109
-257.151	800.000	0.056	0.216
-256.136	87.137	-0.087	0.097
-255.122	-102.400	-0.160	-0.039
-254.107	-64.982	-0.199	0.081
-253.092	800.000	0.089	0.270
-252.078	-37.997	0.192	-0.103
-251.063	113.053	0.091	-0.111
-250.049	-5.571	0.273	0.189
-249.034	-132.865	0.223	0.029
-248.019	231.159	-0.178	0.293
-247.005	147.054	-0.071	-0.096
-245.990	6.069	0.158	-0.118
-244.976	-72.111	-0.127	0.047
-243.961	-200.000	-0.036	-0.216
-242.946	136.950	-0.220	0.290
-241.932	-26.917	0.188	0.110
-240.917	285.675	0.079	0.144
-239.903	-54.474	-0.100	0.046
-238.888	348.558	0.090	-0.179
-237.873	344.051	-0.166	-0.327
-236.859	800.000	0.059	-0.180
-235.844	40.863	-0.271	-0.246
-234.830	-73.946	-0.246	0.090
-233.815	135.082	-0.093	-0.121
-232.800	800.000	-0.080	-0.249
-231.786	-200.000	0.024	-0.139
-230.771	-200.000	0.058	0.269
-229.757	226.799	-0.066	-0.108
-228.742	-144.261	0.176	-0.017
-227.727	128.436	-0.190	-0.244
-226.713	81.952	0.219	-0.238
-225.698	27.391	0.159	0.135
-224.684	608.999	-0.059	-0.149
-223.669	130.824	-0.168	-0.217
-222.655	17.853	-0.278	0.223
-221.640	244.806	-0.100	0.168
-220.625	629.520	0.030	-0.075
-219.611	24.254	-0.063	-0.053
-218.596	-70.779	0.076	0.029
-217.582	26.816	0.061	-0.052
-216.567	-68.388	0.093	0.036
-215.552	194.203	-0.121	0.184
-214.538	609.950	-0.058	0.146
-213.523	-200.000	0.020	0.197
-212.509	81.275	0.053	0.058
-211.494	694.336	0.032	0.084
-210.479	-42.457	0.245	-0.126
-209.465	4.191	-0.111	0.081
-208.450	-175.625	-0.047	0.001
-207.436	-160.810	0.200	-0.011
-206.421	-79.539	0.096	0.033
-205.406	-16.986	-0.133	-0.084
-204.392	493.709	-0.186	0.430
-203.377	-105.767	0.332	0.075
-202.363	482.598	-0.143	0.328
-201.348	-200.000	-0.017	0.223
-200.333	-74.120	0.274	0.100
-199.319	226.555	0.070	0.115
-198.304	-17.169	-0.216	-0.137
-197.290	302.768	-0.158	0.294
-196.275	-35.276	-0.265	0.145
-195.260	-69.710	-0.257	-0.099
-194.246	-94.442	0.330	0.090
-193.231	-200.000	0.014	0.200
-192.217	-29.866	0.215	-0.123
-191.202	-57.761	0.001	-0.001
-190.187	-200.000	0.032	-0.191
-189.173	-38.020	0.245	-0.131
-188.158	-103.452	-0.297	-0.070
-187.144	-52.754	-0.333	0.154
-186.129	59.960	0.261	0.259
-185.114	532.392	0.129	0.308
-184.100	116.241	0.116	-0.143
-183.085	800.000	-0.075	-0.309
-182.071	-93.066	0.291	0.082
-181.056	-29.750	0.187	0.107
-180.042	172.837	0.150	0.217
-179.027	-82.737	0.197	-0.064
-178.012	24.673	-0.019	-0.016
-176.998	-3.298	-0.176	0.123
-175.983	-35.071	0.095	0.052
-174.969	-200.000	0.022	0.107
-173.954	-49.076	0.292	0.140
-172.939	6.989	0.217	0.163
-171.925	-61.706	0.240	0.101
-170.910	9.669	0.164	-0.125
-169.896	49.015	0.141	-0.133
-168.881	-53.823	0.290	-0.133
-167.866	2.883	-0.366	0.267
-166.852	129.963	0.134	-0.172
-165.837	-184.693	0.234	-0.004
-164.823	38.583	0.129	-0.115
-163.808	-70.364	0.149	-0.057
-162.793	188.447	-0.096	-0.144
-161.779	-200.000	-0.015	0.302
-160.764	-38.207	-0.078	0.042
-159.750	-145.555	0.235	-0.021
-158.735	155.079	0.048	0.067
-157.720	-178.849	0.101	-0.002
-156.706	-178.511	0.034	0.001
-155.691	-82.203	-0.401	0.131
-154.677	-81.662	0.055	-0.018
-153.662	34.751	-0.306	0.268
-152.647	-72.735	-0.223	0.083
-151.633	48.208	-0.075	0.071
-150.618	-162.818	-0.049	0.002
-149.604	-125.971	0.181	0.027
-148.589	800.000	-0.069	-0.253
-147.574	-152.040	0.086	0.006
-146.560	25.255	-0.168	0.140
-145.545	-0.950	-0.271	0.193
-144.531	-70.492	0.256	-0.097
-143.516	258.680	0.117	-0.203
-142.502	-165.381	-0.050	-0.002
-141.487	469.273	-0.054	0.122
-140.472	1.416	-0.220	0.159
-139.458	-21.587	0.108	0.066
-138.443	19.670	-0.071	0.057
-137.429	98.235	0.040	0.047
-136.414	107.957	-0.030	0.036
-135.399	-200.000	0.059	0.306
-134.385	-200.000	0.025	-0.121
-133.370	-200.000	-0.001	0.112
-132.356	-126.395	-0.079	-0.012
-131.341	-1.760	0.104	0.074
-130.326	-130.322	-0.260	-0.035
-129.312	-200.000	-0.066	-0.390
-128.297	317.107	-0.132	-0.251
-127.283	-136.417	0.192	-0.022
-126.268	-148.429	0.185	0.015
-125.253	48.793	-0.277	-0.260
-124.239	-200.000	-0.038	-0.232
-123.224	16.266	0.201	-0.159
-122.210	-200.000	-0.006	0.102
-121.195	-44.535	0.029	-0.015
-120.180	-157.523	0.401	0.024
-119.166	-43.943	0.290	-0.146
-118.151	-200.000	-0.063	0.392
-117.137	193.737	-0.111	0.168
-116.122	800.000	-0.019	0.057
-115.107	209.526	0.067	-0.105
-114.093	800.000	0.037	0.124
-113.078	118.557	0.233	0.288
-112.064	777.283	-0.153	0.418
-111.049	-24.579	0.021	0.012
-110.034	-82.190	-0.172	0.056
-109.020	17.499	0.344	0.274
-108.005	156.812	0.127	0.176
-106.991	87.718	-0.020	-0.022
-105.976	-17.054	0.233	0.147
-104.962	468.147	0.138	-0.311
-103.947	-96.566	0.330	-0.087
-102.932	-14.362	0.113	-0.073
-101.918	-9.467	-0.230	-0.154
-100.903	-200.000	0.023	0.378
-99.889	118.734	-0.073	0.090
-98.874	-75.355	-0.306	-0.109
-97.859	800.000	0.035	0.108
-96.845	178.123	0.082	0.120
-95.830	-200.000	-0.005	0.216
-94.816	65.123	-0.112	0.114
-93.801	-74.647	-0.067	0.024
-92.786	-200.000	0.007	0.076
-91.772	-200.000	-0.024	0.176
-90.757	-60.011	-0.229	-0.098
-89.743	32.093	-0.041	-0.035
-88.728	800.000	0.035	-0.101
-87.713	-123.361	0.245	0.039
-86.699	-200.000	-0.023	-0.243
-85.684	-50.120	0.183	-0.087
-84.670	15.426	-0.130	0.102
-83.655	-33.962	0.118	-0.065
-82.640	-200.000	0.003	-0.117
-81.626	-57.116	0.411	0.181
-80.611	-93.441	0.350	-0.097
-79.597	-112.870	-0.375	0.074
-78.582	261.305	0.232	0.402
-77.567	81.171	-0.317	-0.342
-76.553	-116.090	-0.119	0.022
-75.538	621.231	-0.016	0.041
-74.524	-75.059	0.048	-0.017
-73.509	-85.862	-0.244	0.076
-72.494	141.896	0.140	-0.186
-71.480	-133.584	0.105	-0.013
-70.465	-36.365	0.088	-0.048
-69.451	800.000	0.030	-0.103
-68.436	162.169	-0.116	-0.163
-67.422	-44.427	-0.218	-0.109
-66.407	40.607	-0.511	0.461
-65.392	-17.113	0.048	-0.030
-64.378	-78.162	0.341	-0.117
-63.363	800.000	-0.031	-0.120
-62.349	-62.988	-0.143	-0.059
-61.334	-97.638	-0.797	-0.207
-60.319	-103.811	0.150	0.035
-59.305	-200.000	0.022	-0.738
-58.290	268.928	0.365	0.640
-57.276	-200.000	0.302	1.344
-56.261	-200.000	71.055	524.964
-55.246	602.927	1272.556	3163.857
-54.232	145.360	2500.258	3346.273
-53.217	115.102	2343.215	2859.173
-52.203	53.786	1961.670	1883.375
-51.188	47.474	1748.686	1629.399
-50.173	44.312	1701.074	1560.731
-49.159	58.067	1731.502	1695.124
-48.144	64.878	1750.861	1766.540
-47.130	47.187	1715.519	1596.026
-46.115	43.883	1701.713	1557.770
-45.100	43.647	1697.598	1552.134
-44.086	43.671	1694.782	1549.680
-43.071	43.713	1691.784	1547.198
-42.057	43.624	1689.335	1544.214
-41.042	43.684	1687.450	1542.893
-40.027	43.679	1685.538	1541.043
-39.013	43.688	1683.379	1539.074
-37.998	43.673	1681.464	1537.153
-36.984	43.743	1680.405	1536.650
-35.969	43.821	1678.538	1535.472
-34.954	43.835	1677.006	1534.116
-33.940	43.758	1675.765	1532.341
-32.925	43.939	1672.950	1531.069
-31.911	43.791	1672.136	1529.148
-30.896	43.859	1670.193	1527.825
-29.881	43.854	1667.836	1525.568
-28.867	43.799	1666.726	1524.083
-27.852	43.799	1665.037	1522.475
-26.838	43.815	1663.681	1521.293
-25.823	43.840	1662.357	1520.215
-24.809	43.943	1660.522	1519.246
-23.794	43.933	1659.083	1517.795
-22.779	43.814	1657.717	1515.590
-21.765	43.891	1655.829	1514.386
-20.750	43.835	1654.404	1512.599
-19.736	43.817	1653.057	1511.178
-18.721	43.925	1651.302	1510.315
-17.706	43.872	1649.506	1508.220
-16.692	43.793	1647.976	1506.176
-15.677	43.853	1646.868	1505.550
-14.663	43.784	1645.903	1504.094
-13.648	43.865	1644.275	1503.144
-12.633	43.835	1643.169	1501.852
-11.619	43.883	1640.872	1500.050
-10.604	43.916	1639.332	1498.823
-9.590	43.883	1637.678	1497.010
-8.575	43.837	1636.719	1495.735
-7.560	43.834	1635.758	1494.771
-6.546	43.781	1634.568	1493.239
-5.531	43.907	1632.938	1492.619
-4.517	43.842	1632.075	1491.287
-3.502	43.934	1630.347	1490.327
-2.487	43.995	1629.178	1489.646
-1.473	43.981	1617.971	1479.239
-0.458	41.623	1598.167	1444.052
0.556	36.617	1595.609	1404.632
1.571	33.575	1617.773	1401.570
2.586	32.564	1633.189	1407.259
3.600	28.530	1579.165	1331.369
4.615	15.554	1458.035	1141.549
5.629	3.647	1380.875	1003.994
6.644	1.334	1370.004	981.071
7.659	1.028	1368.434	977.886
8.673	0.978	1367.569	976.859
9.688	1.040	1365.821	975.918
10.702	0.793	1362.674	972.001
11.717	4.649	1371.942	1003.438
12.731	16.083	1393.186	1093.434
13.746	23.837	1406.337	1154.217
14.761	24.787	1406.803	1160.667
15.775	24.982	1405.852	1161.043
16.790	25.016	1405.525	1160.894
17.804	25.029	1404.954	1160.401
18.819	25.259	1404.439	1161.362
19.834	25.256	1404.059	1160.927
20.848	25.261	1403.119	1160.077
21.863	25.297	1402.272	1159.510
22.877	25.272	1401.251	1158.399
23.892	25.191	1400.580	1157.219
24.907	25.199	1399.727	1156.465
25.921	25.329	1398.739	1156.379
26.936	25.305	1397.547	1155.141
27.950	25.266	1396.912	1154.259
28.965	25.305	1395.159	1152.962
29.980	25.310	1394.120	1152.035
30.994	25.309	1393.068	1151.055
32.009	25.273	1391.299	1149.265
33.023	25.255	1390.337	1148.252
34.038	25.318	1389.277	1147.675
35.053	25.294	1388.288	1146.602
36.067	25.285	1387.435	1145.743
37.082	25.286	1386.390	1144.782
38.096	25.275	1385.480	1143.859
39.111	25.214	1384.587	1142.633
40.126	25.252	1383.802	1142.124
41.140	25.233	1383.305	1141.495
42.155	25.218	1383.260	1141.258
43.169	25.248	1383.175	1141.277
44.184	25.138	1382.940	1140.285
45.199	25.184	1382.261	1139.917
46.213	25.300	1381.866	1140.225
47.228	25.315	1380.934	1139.455
48.242	25.321	1379.866	1138.510
49.257	25.324	1378.328	1137.159
50.271	25.239	1377.169	1135.566
51.286	25.332	1375.441	1134.625
52.301	25.298	1373.921	1133.055
53.315	25.252	1373.425	1132.257
54.330	25.271	1372.726	1131.698
55.344	25.213	1371.797	1130.469
56.359	25.305	1369.873	1129.364
57.374	25.237	1370.079	1129.004
58.388	25.243	1369.254	1128.264
59.403	25.278	1368.783	1127.993
60.417	25.264	1367.490	1126.744
61.432	25.296	1366.734	1126.220
62.447	25.259	1366.043	1125.316
63.461	25.158	1365.655	1124.269
64.476	25.238	1364.474	1123.693
65.490	25.351	1363.162	1123.220
66.505	25.263	1361.509	1121.208
67.520	25.308	1359.892	1120.061
68.534	25.328	1359.412	1119.692
69.549	25.268	1358.251	1118.265
70.563	25.425	1356.785	1117.936
71.578	25.237	1356.390	1116.342
72.593	25.219	1355.801	1115.647
73.607	25.331	1354.468	1115.147
74.622	25.300	1354.144	1114.585
75.636	25.312	1353.366	1113.923
76.651	25.181	1352.788	1112.537
77.666	25.353	1351.923	1112.789
78.680	25.259	1352.138	1112.286
79.695	25.288	1351.013	1111.442
80.709	25.286	1350.167	1110.638
81.724	25.258	1349.057	1109.454
82.739	25.372	1348.320	1109.450
83.753	25.297	1347.176	1107.951
84.768	25.302	1345.909	1106.841
85.782	25.314	1345.198	1106.232
86.797	25.347	1343.966	1105.322
87.812	25.339	1342.379	1103.870
88.826	25.367	1341.666	1103.359
89.841	25.374	1340.589	1102.419
90.855	25.389	1339.742	1101.714
91.870	25.457	1338.828	1101.287
92.884	25.332	1338.115	1099.832
93.899	25.355	1337.095	1099.039
94.914	25.376	1336.409	1098.509
95.928	25.240	1335.833	1097.107
96.943	25.366	1334.997	1097.092
97.957	25.358	1334.234	1096.316
98.972	25.387	1333.055	1095.429
99.987	25.392	1332.423	1094.844
101.001	25.321	1331.563	1093.607
102.016	25.234	1330.843	1092.388
103.030	25.415	1329.392	1092.201
104.045	25.293	1328.664	1090.765
105.060	25.395	1327.886	1090.652
106.074	25.344	1326.986	1089.504
107.089	25.444	1325.420	1088.732
108.103	25.436	1324.542	1087.861
109.118	25.372	1323.735	1086.715
110.133	25.390	1322.624	1085.817
111.147	25.457	1321.405	1085.127
112.162	25.431	1320.384	1084.037
113.176	25.388	1319.453	1082.914
114.191	25.478	1318.549	1082.619
115.206	25.448	1317.481	1081.464
116.220	25.448	1316.201	1080.321
117.235	25.376	1315.546	1079.256
118.249	25.445	1315.012	1079.133
119.264	25.385	1313.881	1077.753
120.279	25.422	1312.776	1076.973
121.293	25.438	1312.340	1076.613
122.308	25.485	1311.150	1075.824
123.322	25.580	1310.503	1075.766
124.337	25.492	1309.835	1074.595
125.352	25.538	1308.588	1073.754
126.366	25.394	1308.030	1072.339
127.381	25.553	1307.001	1072.351
128.395	25.510	1306.029	1071.201
129.410	25.544	1305.211	1070.637
130.424	25.463	1304.890	1069.799
131.439	25.464	1303.971	1068.959
132.454	25.430	1303.344	1068.145
133.468	25.531	1302.499	1067.961
134.483	25.504	1302.502	1067.707
135.497	25.373	1301.522	1066.032
136.512	25.424	1300.404	1065.324
137.527	25.493	1298.982	1064.469
138.541	25.504	1297.745	1063.429
139.556	25.443	1296.560	1062.004
140.570	25.467	1295.893	1061.506
141.585	25.560	1294.349	1060.697
142.600	25.467	1293.352	1059.235
143.614	25.510	1292.724	1058.881
144.629	25.473	1291.597	1057.649
145.643	25.443	1290.491	1056.474
146.658	25.511	1289.087	1055.630
147.673	25.522	1288.050	1054.751
148.687	25.454	1287.362	1053.696
149.702	25.477	1286.141	1052.735
150.716	25.346	1285.361	1051.239
151.731	25.405	1284.538	1050.818
152.746	25.433	1283.444	1049.994
153.760	25.414	1282.132	1048.719
154.775	25.561	1281.124	1048.655
155.789	25.405	1280.227	1046.919
156.804	25.362	1279.642	1046.096
157.819	25.350	1278.833	1045.277
158.833	25.458	1277.596	1044.799
159.848	25.474	1276.797	1044.147
160.862	25.492	1276.304	1043.755
161.877	25.527	1275.114	1042.894
162.892	25.429	1274.591	1041.807
163.906	25.473	1273.547	1041.112
164.921	25.525	1273.057	1040.923
165.935	25.558	1272.116	1040.250
166.950	25.500	1271.477	1039.299
167.964	25.431	1270.954	1038.381
168.979	25.538	1270.263	1038.346
169.994	25.579	1269.788	1038.102
171.008	25.611	1268.761	1037.356
172.023	25.585	1268.109	1036.579
173.037	25.649	1267.434	1036.307
174.052	25.544	1266.904	1035.178
175.067	25.515	1265.797	1034.012
176.081	25.583	1264.970	1033.636
177.096	25.540	1264.530	1032.939
178.110	25.586	1263.375	1032.167
179.125	25.564	1262.264	1031.044
180.140	25.602	1261.129	1030.244
181.154	25.675	1259.884	1029.552
182.169	25.559	1259.350	1028.359
183.183	25.528	1258.559	1027.445
184.198	25.556	1257.376	1026.547
185.213	25.587	1256.146	1025.630
186.227	25.661	1255.419	1025.367
187.242	25.533	1254.755	1024.005
188.256	25.602	1254.058	1023.739
189.271	25.619	1252.891	1022.791
190.286	25.751	1252.190	1022.878
191.300	25.571	1251.974	1021.590
192.315	25.600	1251.245	1021.072
193.329	25.555	1250.943	1020.478
194.344	25.641	1250.333	1020.376
195.359	25.744	1249.640	1020.305
196.373	25.692	1249.171	1019.537
197.388	25.551	1248.909	1018.435
198.402	25.656	1248.317	1018.455
199.417	25.562	1248.314	1017.832
200.432	25.620	1247.708	1017.578
201.446	25.674	1247.063	1017.267
202.461	25.632	1245.899	1015.989
203.475	25.690	1245.040	1015.527
204.490	25.562	1244.120	1013.964
205.504	25.673	1242.927	1013.527
206.519	25.765	1241.822	1013.052
207.534	25.748	1241.012	1012.206
208.548	25.738	1240.232	1011.426
209.563	25.718	1239.332	1010.488
210.577	25.752	1238.589	1009.988
211.592	25.741	1237.916	1009.288
212.607	25.750	1237.117	1008.598
213.621	25.734	1236.524	1007.935
214.636	25.723	1235.519	1006.966
215.650	25.726	1234.781	1006.290
216.665	25.785	1233.652	1005.610
217.680	25.807	1232.993	1005.104
218.694	25.826	1232.178	1004.461
219.709	25.777	1231.514	1003.554
220.723	25.824	1230.759	1003.114
221.738	25.746	1230.035	1002.003
222.753	25.732	1229.264	1001.204
223.767	25.783	1228.927	1001.125
224.782	25.827	1228.257	1000.738
225.796	25.682	1228.118	999.728
226.811	25.836	1227.265	999.803
227.826	25.813	1226.663	999.096
228.840	25.909	1225.556	998.636
229.855	25.836	1225.012	997.699
230.869	25.785	1224.483	996.902
231.884	25.812	1223.694	996.316
232.899	25.762	1223.230	995.576
233.913	25.820	1222.576	995.276
234.928	25.951	1221.839	995.310
235.942	25.990	1221.553	995.204
236.957	25.992	1220.346	994.147
237.972	25.924	1219.898	993.320
238.986	25.849	1219.594	992.567
240.001	25.992	1218.798	992.622
241.015	26.021	1218.021	992.057
242.030	26.068	1217.145	991.515
243.045	26.042	1216.497	990.757
244.059	26.050	1215.751	990.109
245.074	26.007	1214.742	988.963
246.088	26.072	1214.199	988.790
247.103	26.125	1213.186	988.168
248.117	26.005	1212.540	986.896
249.132	26.071	1211.724	986.507
250.147	26.032	1211.455	985.983
251.161	26.184	1210.005	985.546
252.176	26.027	1209.831	984.460
253.190	26.055	1209.212	984.024
254.205	26.132	1208.218	983.550
255.220	26.099	1208.198	983.263
256.234	26.027	1207.715	982.394
257.249	26.174	1206.448	982.071
258.263	26.084	1205.926	981.071
259.278	26.116	1205.489	980.807
260.293	26.123	1205.365	980.655
261.307	26.166	1204.381	980.002
262.322	26.178	1203.637	979.374
263.336	26.208	1202.970	978.905
264.351	26.250	1202.211	978.429
265.366	26.140	1202.000	977.575
266.380	26.228	1201.172	977.294
267.395	26.284	1200.590	977.034
268.409	26.146	1199.953	975.687
269.424	26.248	1199.504	975.785
270.439	26.240	1198.765	975.054
271.453	26.194	1198.024	974.117
272.468	26.211	1197.258	973.502
273.482	26.083	1196.878	972.413
274.497	26.207	1196.362	972.577
275.512	26.147	1195.883	971.780
276.526	26.222	1195.206	971.549
277.541	26.269	1194.365	971.029
278.555	26.252	1193.687	970.299
279.570	26.257	1192.933	969.631
280.585	26.298	1191.912	968.935
281.599	26.365	1190.730	968.244
282.614	26.322	1190.279	967.563
283.628	26.363	1189.432	967.008
284.643	26.305	1188.712	966.028
285.657	26.437	1187.593	965.735
286.672	26.247	1187.636	964.674
287.687	26.391	1186.073	964.082
288.701	26.451	1185.441	963.805
289.716	26.433	1184.892	963.179
290.730	26.297	1184.333	961.913
291.745	26.393	1183.533	961.693
292.760	26.337	1183.191	961.031
293.774	26.344	1182.447	960.379
294.789	26.525	1181.540	960.515
295.803	26.496	1181.128	959.942
296.818	26.452	1180.407	959.040
297.833	26.400	1179.889	958.255
298.847	26.573	1179.263	958.580
299.862	26.437	1178.316	957.006
300.876	26.389	1177.829	956.272
301.891	26.555	1177.281	956.621
302.906	26.593	1176.356	955.985
303.920	26.616	1175.874	955.629
304.935	26.606	1175.064	954.834
305.949	26.612	1174.440	954.273
306.964	26.542	1174.060	953.511
307.979	26.466	1173.499	952.573
308.993	26.588	1172.515	952.328
310.008	26.629	1171.863	951.933
311.022	26.550	1171.390	951.048
312.037	26.581	1170.663	950.537
313.052	26.597	1169.640	949.706
314.066	26.591	1168.626	948.769
315.081	26.510	1167.980	947.734
316.095	26.639	1167.401	947.856
317.110	26.620	1166.944	947.301
318.125	26.650	1166.317	946.866
319.139	26.628	1165.313	945.851
320.154	26.616	1165.021	945.471
321.168	26.800	1164.227	945.701
322.183	26.668	1164.048	944.783
323.197	26.708	1163.372	944.357
324.212	26.666	1162.657	943.476
325.227	26.758	1162.189	943.492
326.241	26.721	1161.950	943.022
327.256	26.798	1160.500	942.159
328.270	26.796	1159.858	941.549
329.285	26.775	1159.152	940.780
330.300	26.815	1158.439	940.325
331.314	26.708	1157.775	939.152
332.329	26.817	1157.000	939.002
333.343	26.841	1156.012	938.242
334.358	26.861	1155.101	937.523
335.373	26.906	1154.638	937.296
336.387	26.876	1153.962	936.513
337.402	26.801	1153.594	935.742
338.416	26.931	1152.385	935.348
339.431	26.897	1151.737	934.565
340.446	27.006	1151.242	934.641
341.460	26.931	1150.712	933.742
342.475	26.961	1149.952	933.197
343.489	26.956	1149.131	932.422
344.504	26.939	1148.736	931.931
345.519	27.012	1147.092	930.889
346.533	26.995	1146.747	930.441
347.548	26.998	1145.795	929.604
348.562	27.101	1144.872	929.297
349.577	27.108	1144.249	928.746
350.592	26.968	1143.578	927.405
351.606	26.893	1143.250	926.674
352.621	27.013	1142.495	926.591
353.635	27.057	1141.770	926.145
354.650	27.072	1141.037	925.545
355.665	27.103	1140.728	925.368
356.679	27.044	1140.237	924.588
357.694	27.023	1139.778	924.027
358.708	27.118	1139.063	923.853
359.723	27.028	1138.162	922.578
360.738	27.156	1137.456	922.579
361.752	27.166	1136.942	922.131
362.767	27.138	1136.102	921.223
363.781	27.118	1135.941	920.908
364.796	27.148	1135.193	920.374
365.810	27.202	1134.878	920.310
366.825	27.236	1133.841	919.562
367.840	27.337	1133.561	919.762
368.854	27.237	1133.162	918.850
369.869	27.251	1132.344	918.179
370.883	27.296	1131.369	917.534
371.898	27.248	1130.733	916.695
372.913	27.270	1129.879	916.029
373.927	27.223	1129.687	915.556
374.942	27.292	1129.070	915.327
375.956	27.230	1128.616	914.563
376.971	27.358	1128.117	914.724
377.986	27.314	1127.471	913.894
379.000	27.349	1127.082	913.678
380.015	27.429	1126.369	913.418
381.029	27.373	1125.912	912.688
382.044	27.341	1125.171	911.842
383.059	27.529	1124.477	912.143
384.073	27.457	1123.865	911.207
385.088	27.397	1123.265	910.337
386.102	27.322	1122.224	909.038
387.117	27.418	1121.255	908.651
388.132	27.427	1120.438	907.953
389.146	27.382	1119.793	907.127
390.161	27.443	1119.183	906.856
391.175	27.520	1118.621	906.706
392.190	27.498	1117.863	905.900
393.205	27.506	1117.081	905.227
394.219	27.482	1116.260	904.361
395.234	27.522	1115.615	903.957
396.248	27.566	1114.813	903.447
397.263	27.642	1113.489	902.668
398.278	27.645	1113.564	902.663
399.292	27.650	1112.924	902.090
400.307	27.594	1112.432	901.336
401.321	27.682	1111.692	901.090
402.336	27.584	1110.930	899.912
403.350	27.535	1110.388	899.150
404.365	27.744	1109.437	899.332
405.380	27.709	1108.817	898.576
406.394	27.646	1108.300	897.767
407.409	27.700	1107.228	897.088
408.423	27.701	1106.751	896.624
409.438	27.784	1106.056	896.391
410.453	27.744	1105.485	895.650
411.467	27.959	1104.476	895.806
412.482	27.827	1104.055	894.743
413.496	27.935	1102.950	894.295
414.511	27.759	1102.845	893.269
415.526	27.843	1101.942	892.869
416.540	27.857	1101.768	892.720
417.555	27.815	1101.197	891.973
418.569	27.747	1100.887	891.308
419.584	27.861	1100.529	891.496
420.599	27.895	1099.945	891.111
421.613	75.684	1278.635	1298.193
422.628	70.850	1304.684	1298.309
