DTS Sentinel unit serial number:	SN413079Multiplexer serial number:	ORYXHardware model number:	OX4-SRSoftware version number:	ORYX F/W v4.00 Oryx Data Collector v3.7.2.0data status	okinstallation	princeton_trtdifferential loss correction	single-endedforward channel	channel 2reverse channel	N/Adate	2019/09/15time	17:35:35forward acquisition time	60.00reverse acquisition time	0.00gamma	496.2192k internal	0.2284k external	0.2284temperature offset calibration	0.9921default loss term (dB/km)	0.3790temperature slope calibration	1.0000multiplexer offset coefficient	1.0000multiplexer slope coefficient	1.0000fibre end	0.00T internal ref (°C)	44.87T ext. ref 1 (°C)	6.20T ext. ref 2 (°C)	40.27length (m)	temperature (°C)	Stokes	anti-Stokes-747.200	800.000	0.104	-0.421
-746.185	-200.000	-0.000	0.153
-745.171	32.671	0.095	0.085
-744.156	-200.000	0.021	0.357
-743.142	42.077	-0.181	-0.168
-742.127	800.000	-0.117	0.496
-741.112	-33.763	0.166	0.094
-740.098	-181.043	-0.499	-0.010
-739.083	144.541	0.133	0.183
-738.069	800.000	0.099	0.310
-737.054	-200.000	0.009	0.106
-736.039	173.310	0.054	0.080
-735.025	152.155	0.132	0.185
-734.010	-200.000	0.049	-0.310
-732.996	-36.541	0.220	-0.122
-731.981	-136.368	-0.076	0.009
-730.966	-97.795	-0.430	-0.114
-729.952	-76.795	-0.193	-0.070
-728.937	222.500	0.070	-0.115
-727.923	800.000	0.014	-0.047
-726.908	272.062	-0.020	-0.037
-725.894	-200.000	-0.041	-0.253
-724.879	600.481	0.094	0.240
-723.864	-200.000	-0.002	-0.133
-722.850	142.681	-0.085	0.116
-721.835	-25.460	-0.115	-0.070
-720.821	149.694	-0.358	-0.497
-719.806	-73.539	-0.156	0.058
-718.791	-200.000	-0.013	-0.261
-717.777	-74.873	-0.281	0.104
-716.762	24.776	-0.267	-0.227
-715.748	-105.781	0.222	0.052
-714.733	5.675	-0.173	-0.131
-713.718	115.973	0.152	0.191
-712.704	-153.900	0.452	0.032
-711.689	-37.689	-0.144	-0.079
-710.675	-200.000	0.028	-0.161
-709.660	164.176	0.145	0.209
-708.645	-24.016	0.160	-0.098
-707.631	232.789	-0.092	0.155
-706.616	-93.478	0.169	0.048
-705.602	800.000	0.140	0.479
-704.587	116.373	-0.186	0.233
-703.572	1.998	0.305	-0.226
-702.558	8.419	0.246	0.190
-701.543	-200.000	0.016	-0.353
-700.529	-59.784	-0.300	-0.132
-699.514	-134.775	-0.255	-0.032
-698.499	25.845	-0.176	-0.151
-697.485	-200.000	0.008	-0.083
-696.470	35.477	-0.084	-0.076
-695.456	36.419	-0.056	0.050
-694.441	-0.403	0.149	-0.109
-693.426	-17.194	0.235	0.152
-692.412	2.563	-0.075	0.056
-691.397	133.632	0.198	-0.263
-690.383	-129.390	-0.119	-0.017
-689.368	-200.000	0.031	-0.157
-688.354	-131.147	-0.101	-0.014
-687.339	255.866	0.121	0.213
-686.324	-92.207	0.261	0.075
-685.310	39.211	-0.145	0.133
-684.295	-200.000	-0.007	-0.110
-683.281	-145.982	-0.157	-0.014
-682.266	-65.735	-0.022	0.009
-681.251	533.067	0.113	0.275
-680.237	-119.045	0.203	-0.036
-679.222	800.000	-0.077	-0.249
-678.208	104.430	0.137	-0.166
-677.193	-200.000	0.080	-0.387
-676.178	-200.000	0.019	-0.121
-675.164	-30.071	0.250	0.146
-674.149	800.000	0.095	-0.373
-673.135	224.953	0.074	-0.122
-672.120	77.674	-0.104	0.113
-671.105	-61.305	-0.328	-0.142
-670.091	199.060	-0.042	-0.066
-669.076	800.000	0.082	0.359
-668.062	-19.852	-0.205	-0.130
-667.047	-131.818	0.259	-0.035
-666.032	-200.000	-0.033	-0.280
-665.018	-1.645	-0.107	-0.077
-664.003	800.000	0.099	0.305
-662.989	103.281	0.168	-0.201
-661.974	-46.531	0.235	0.118
-660.959	-200.000	-0.012	0.384
-659.945	-29.296	0.367	0.215
-658.930	-116.970	0.124	0.023
-657.916	157.760	0.169	0.240
-656.901	-200.000	0.038	0.311
-655.886	319.004	0.050	-0.096
-654.872	-84.588	0.213	-0.069
-653.857	87.482	-0.164	-0.185
-652.843	800.000	0.048	-0.213
-651.828	-200.000	-0.050	-0.232
-650.814	239.509	-0.076	-0.130
-649.799	33.390	0.244	0.217
-648.784	-200.000	-0.006	-0.105
-647.770	-36.520	-0.089	0.049
-646.755	-200.000	-0.009	-0.089
-645.741	-136.891	-0.208	0.024
-644.726	-130.067	-0.129	-0.018
-643.711	-105.684	0.325	-0.075
-642.697	-17.682	-0.205	-0.132
-641.682	800.000	0.072	-0.230
-640.668	800.000	-0.037	0.156
-639.653	800.000	0.049	0.161
-638.638	376.116	0.071	-0.149
-637.624	53.575	0.143	0.140
-636.609	-18.441	0.166	0.106
-635.595	5.299	0.199	-0.150
-634.580	108.860	0.044	0.054
-633.565	167.190	0.102	-0.149
-632.551	-200.000	0.023	-0.106
-631.536	176.657	-0.029	0.043
-630.522	-66.044	0.148	-0.061
-629.507	-200.000	0.017	0.156
-628.492	-52.372	-0.195	-0.092
-627.478	-54.082	0.147	-0.068
-626.463	139.691	-0.079	-0.107
-625.449	-200.000	-0.090	-0.530
-624.434	144.782	0.171	0.233
-623.419	-200.000	0.047	-0.377
-622.405	-200.000	-0.073	-0.380
-621.390	41.843	-0.301	-0.279
-620.376	-200.000	0.017	-0.087
-619.361	-200.000	0.001	-0.023
-618.346	-195.929	-0.222	-0.002
-617.332	-160.143	0.441	0.024
-616.317	150.777	-0.233	0.324
-615.303	-200.000	-0.010	-0.105
-614.288	-200.000	-0.006	-0.241
-613.273	394.603	0.007	-0.015
-612.259	170.444	-0.005	0.007
-611.244	-135.643	-0.200	-0.024
-610.230	800.000	-0.039	0.166
-609.215	-200.000	-0.009	0.103
-608.201	642.153	0.074	0.192
-607.186	44.231	0.323	-0.303
-606.171	800.000	-0.039	-0.115
-605.157	47.540	-0.071	-0.068
-604.142	42.514	-0.225	-0.210
-603.128	-103.268	-0.276	0.067
-602.113	800.000	-0.046	-0.194
-601.098	-136.201	0.197	-0.024
-600.084	611.099	-0.066	-0.169
-599.069	524.398	-0.103	0.247
-598.055	-200.000	-0.026	-0.325
-597.040	133.937	0.184	-0.244
-596.025	-200.000	-0.013	-0.117
-595.011	-44.904	-0.076	0.039
-593.996	-200.000	-0.009	0.134
-592.982	-155.834	0.246	0.016
-591.967	-200.000	0.021	0.263
-590.952	95.272	-0.174	0.202
-589.938	14.572	0.295	-0.235
-588.923	-14.314	0.086	0.057
-587.909	-84.581	0.152	-0.049
-586.894	505.500	-0.129	-0.306
-585.879	402.344	0.098	0.210
-584.865	58.804	-0.388	0.389
-583.850	-200.000	0.005	0.036
-582.836	-118.337	0.458	-0.083
-581.821	256.640	-0.274	-0.480
-580.806	-32.856	0.101	0.057
-579.792	-113.227	-0.239	0.048
-578.777	15.642	0.207	-0.166
-577.763	-18.312	-0.169	0.108
-576.748	-64.241	-0.278	0.116
-575.733	564.372	0.093	-0.230
-574.719	-65.712	-0.308	0.126
-573.704	-200.000	0.003	0.206
-572.690	425.669	0.027	0.059
-571.675	146.035	-0.099	0.135
-570.661	32.481	0.168	0.148
-569.646	13.973	-0.198	0.157
-568.631	-53.594	0.174	0.081
-567.617	800.000	0.110	-0.318
-566.602	142.006	0.193	0.261
-565.588	533.536	0.034	-0.082
-564.573	64.879	-0.173	-0.179
-563.558	725.306	0.051	-0.138
-562.544	240.127	-0.041	-0.070
-561.529	33.722	0.084	-0.075
-560.515	30.994	0.282	0.247
-559.500	-109.453	0.269	0.058
-558.485	-200.000	-0.003	0.105
-557.471	-9.248	-0.168	0.115
-556.456	-200.000	0.045	-0.205
-555.442	-52.677	-0.222	-0.104
-554.427	-200.000	-0.166	0.000
-553.412	202.458	0.113	0.179
-552.398	650.557	0.064	-0.168
-551.383	-134.619	0.389	0.048
-550.369	153.214	0.073	-0.102
-549.354	91.753	-0.074	-0.085
-548.339	8.969	-0.048	0.037
-547.325	-144.084	-0.163	0.016
-546.310	-200.000	-0.008	-0.119
-545.296	1.730	-0.014	0.011
-544.281	69.550	-0.065	-0.068
-543.266	698.951	0.095	-0.255
-542.252	283.318	0.033	-0.061
-541.237	113.549	-0.156	0.193
-540.223	-123.403	0.138	-0.022
-539.208	-28.315	0.239	0.141
-538.193	-15.692	0.238	-0.154
-537.179	69.769	0.221	0.232
-536.164	-42.315	-0.076	-0.039
-535.150	-76.962	-0.085	-0.030
-534.135	-42.717	-0.047	-0.025
-533.121	-23.614	0.306	-0.187
-532.106	-130.374	-0.339	-0.047
-531.091	-121.205	0.277	0.047
-530.077	-171.215	-0.201	0.007
-529.062	-200.000	0.038	-0.277
-528.048	-79.058	0.149	-0.052
-527.033	-200.000	0.043	0.288
-526.018	800.000	0.126	0.473
-525.004	-94.188	-0.068	0.019
-523.989	58.736	0.187	0.187
-522.975	22.299	0.308	-0.256
-521.960	-96.181	-0.041	-0.011
-520.945	-200.000	-0.031	-0.327
-519.931	-91.221	0.194	0.057
-518.916	127.087	-0.098	-0.127
-517.902	-53.926	0.281	0.130
-516.887	-54.474	0.156	-0.072
-515.872	156.525	-0.033	0.046
-514.858	254.093	0.116	-0.202
-513.843	73.254	-0.327	-0.348
-512.829	2.069	-0.200	-0.147
-511.814	800.000	-0.081	-0.240
-510.799	257.042	-0.104	-0.182
-509.785	-39.827	0.171	0.091
-508.770	4.972	0.237	0.177
-507.756	131.942	0.100	-0.131
-506.741	104.394	-0.233	-0.279
-505.726	16.762	0.141	-0.113
-504.712	-128.647	-0.220	-0.032
-503.697	-152.850	0.172	0.012
-502.683	-200.000	-0.008	0.194
-501.668	-182.692	-0.177	0.003
-500.653	400.944	0.162	0.346
-499.639	-104.978	-0.242	-0.056
-498.624	-164.262	0.476	0.022
-497.610	-8.400	0.252	-0.172
-496.595	-200.000	-0.005	-0.283
-495.581	-200.000	0.015	0.312
-494.566	3.862	0.103	-0.077
-493.551	-200.000	0.021	0.268
-492.537	-80.881	-0.396	0.134
-491.522	122.761	-0.159	0.202
-490.508	-200.000	-0.001	0.060
-489.493	135.987	0.237	0.314
-488.478	-22.600	-0.314	-0.193
-487.464	-96.966	0.266	-0.071
-486.449	-200.000	-0.024	0.312
-485.435	-38.842	0.368	-0.197
-484.420	-94.020	-0.067	-0.019
-483.405	-173.547	0.132	0.004
-482.391	111.238	-0.148	-0.181
-481.376	7.644	0.114	0.087
-480.362	-5.259	0.176	-0.123
-479.347	-120.706	0.185	0.032
-478.332	75.344	0.276	0.296
-477.318	772.522	0.051	0.142
-476.303	82.679	0.077	-0.085
-475.289	-200.000	0.038	-0.177
-474.274	-78.137	-0.029	-0.010
-473.259	800.000	-0.042	-0.132
-472.245	-10.878	0.255	-0.171
-471.230	68.239	-0.192	0.200
-470.216	-200.000	-0.002	0.420
-469.201	95.678	0.162	0.188
-468.186	166.250	-0.138	-0.199
-467.172	-42.898	0.032	-0.016
-466.157	800.000	-0.030	0.125
-465.143	124.601	-0.059	-0.076
-464.128	64.988	-0.327	-0.335
-463.113	800.000	-0.120	-0.446
-462.099	474.730	0.063	-0.144
-461.084	-200.000	-0.004	0.048
-460.070	255.873	0.127	0.221
-459.055	-71.443	0.160	0.061
-458.040	1.883	0.025	0.018
-457.026	-23.335	-0.244	-0.149
-456.011	-63.941	-0.140	-0.058
-454.997	200.610	-0.281	-0.438
-453.982	94.211	-0.232	0.267
-452.968	-85.576	0.160	-0.051
-451.953	-200.000	0.034	-0.165
-450.938	34.838	-0.168	-0.149
-449.924	-200.000	0.016	0.185
-448.909	39.463	0.112	0.102
-447.895	-200.000	0.061	0.319
-446.880	-200.000	-0.001	-0.237
-445.865	-171.906	0.308	-0.010
-444.851	329.247	-0.152	-0.298
-443.836	-139.028	0.163	-0.018
-442.822	184.215	-0.128	-0.192
-441.807	76.080	0.380	-0.409
-440.792	-200.000	0.000	-0.107
-439.778	299.413	0.044	-0.082
-438.763	-126.297	-0.281	0.043
-437.749	-38.135	-0.142	0.077
-436.734	-98.531	0.161	-0.042
-435.719	121.391	0.159	0.201
-434.705	310.385	-0.043	-0.081
-433.690	-110.515	0.198	-0.042
-432.676	641.345	0.009	-0.023
-431.661	-200.000	0.008	-0.096
-430.646	473.858	0.091	0.209
-429.632	-102.498	0.387	0.094
-428.617	-94.383	0.057	0.016
-427.603	82.419	-0.051	-0.056
-426.588	-157.380	-0.319	0.020
-425.573	-107.890	-0.141	0.031
-424.559	-200.000	0.002	0.398
-423.544	709.813	0.095	0.256
-422.530	-31.873	-0.205	0.116
-421.515	-128.785	0.302	0.043
-420.500	-79.019	0.240	-0.083
-419.486	-63.019	-0.222	0.093
-418.471	-200.000	-0.017	-0.196
-417.457	-5.628	-0.142	0.099
-416.442	194.525	0.024	0.038
-415.428	-171.045	0.287	0.010
-414.413	-200.000	-0.044	-0.407
-413.398	93.514	0.355	0.408
-412.384	-105.817	0.036	-0.008
-411.369	176.879	-0.154	-0.228
-410.355	-200.000	0.051	0.373
-409.340	800.000	0.111	-0.329
-408.325	39.372	-0.249	-0.226
-407.311	-82.572	-0.022	-0.007
-406.296	358.550	0.257	0.520
-405.282	-24.643	-0.461	0.278
-404.267	-200.000	-0.033	-0.234
-403.252	-101.337	0.244	0.060
-402.238	-44.338	0.285	-0.145
-401.223	-200.000	-0.022	0.192
-400.209	-200.000	0.024	0.399
-399.194	-17.329	-0.076	-0.049
-398.179	-66.664	-0.128	-0.051
-397.165	-34.143	0.267	0.149
-396.150	-73.605	0.360	0.133
-395.136	-200.000	-0.053	-0.319
-394.121	-143.083	-0.398	-0.039
-393.106	-200.000	0.037	-0.167
-392.092	-55.196	-0.235	0.107
-391.077	470.061	-0.176	-0.401
-390.063	-73.081	-0.336	0.125
-389.048	-81.257	0.264	-0.088
-388.033	800.000	0.006	0.028
-387.019	123.916	0.083	0.106
-386.004	105.147	-0.124	-0.148
-384.990	306.414	0.069	-0.130
-383.975	151.296	0.182	-0.251
-382.960	-131.033	-0.459	-0.062
-381.946	147.408	-0.142	-0.193
-380.931	-83.873	-0.476	0.154
-379.917	-182.373	-0.023	-0.000
-378.902	320.813	-0.139	0.268
-377.888	-0.793	-0.064	-0.046
-376.873	-118.087	0.057	-0.010
-375.858	-200.000	0.014	-0.061
-374.844	-200.000	-0.022	0.305
-373.829	-84.219	-0.079	0.025
-372.815	-173.558	-0.169	0.005
-371.800	-200.000	0.007	0.130
-370.785	67.674	-0.044	0.045
-369.771	705.156	-0.080	0.214
-368.756	62.857	-0.170	-0.172
-367.742	-155.851	0.201	0.013
-366.727	49.192	-0.162	-0.154
-365.712	-142.880	-0.203	-0.020
-364.698	736.749	0.017	0.046
-363.683	-200.000	0.154	-0.000
-362.669	800.000	0.085	0.262
-361.654	-70.325	0.123	-0.047
-360.639	-2.954	0.131	0.092
-359.625	91.980	0.127	0.145
-358.610	-107.751	0.102	0.023
-357.596	58.511	0.156	0.155
-356.581	-200.000	-0.073	-0.360
-355.566	391.854	-0.155	-0.326
-354.552	-7.179	-0.063	-0.043
-353.537	800.000	-0.049	-0.201
-352.523	-105.220	-0.136	-0.031
-351.508	-200.000	0.013	0.185
-350.493	95.863	-0.054	0.062
-349.479	-200.000	0.002	0.225
-348.464	800.000	0.026	0.072
-347.450	-136.992	-0.267	-0.031
-346.435	-82.814	-0.229	-0.075
-345.420	362.863	0.067	-0.137
-344.406	-200.000	0.010	-0.193
-343.391	55.882	-0.386	-0.379
-342.377	-97.001	-0.291	0.077
-341.362	78.325	0.215	-0.232
-340.348	-74.933	0.377	-0.137
-339.333	72.033	-0.094	-0.099
-338.318	-154.021	0.055	-0.004
-337.304	432.851	-0.132	0.290
-336.289	211.549	0.055	0.088
-335.275	-49.952	-0.119	0.057
-334.260	-14.420	0.253	0.164
-333.245	249.310	-0.105	0.179
-332.231	-101.965	0.222	0.054
-331.216	-142.336	-0.302	-0.030
-330.202	-200.000	0.067	-0.301
-329.187	-167.967	0.072	0.003
-328.172	-69.749	0.191	0.074
-327.158	467.936	0.012	-0.027
-326.143	174.923	0.088	0.129
-325.129	800.000	-0.148	0.472
-324.114	324.157	0.061	0.118
-323.099	-200.000	0.013	0.130
-322.085	4.701	-0.181	0.135
-321.070	-135.129	0.187	-0.023
-320.056	229.918	0.184	0.304
-319.041	-200.000	-0.004	-0.231
-318.026	608.518	0.125	0.316
-317.012	81.076	-0.073	0.079
-315.997	-99.048	0.234	-0.060
-314.983	369.659	-0.086	0.177
-313.968	-200.000	0.025	-0.183
-312.953	56.397	0.253	-0.249
-311.939	-2.937	-0.076	0.053
-310.924	-200.000	-0.001	0.024
-309.910	375.393	0.028	-0.057
-308.895	800.000	0.030	0.126
-307.880	800.000	-0.084	0.273
-306.866	-96.887	-0.093	-0.025
-305.851	-200.000	0.021	0.108
-304.837	-149.908	-0.253	-0.020
-303.822	164.767	0.117	-0.166
-302.807	107.203	0.156	0.187
-301.793	177.555	-0.127	0.187
-300.778	98.955	-0.070	-0.081
-299.764	11.579	0.159	0.123
-298.749	800.000	0.121	0.426
-297.735	-106.393	-0.372	-0.084
-296.720	147.796	0.198	-0.269
-295.705	-161.080	-0.086	0.005
-294.691	35.781	-0.095	0.084
-293.676	-54.608	-0.044	-0.020
-292.662	33.573	0.185	-0.162
-291.647	-7.682	-0.173	-0.118
-290.632	-200.000	0.051	-0.343
-289.618	-26.208	-0.222	-0.132
-288.603	-200.000	-0.031	-0.235
-287.589	-142.375	0.029	-0.003
-286.574	-200.000	-0.014	0.080
-285.559	-200.000	0.015	0.217
-284.545	-104.945	-0.101	-0.023
-283.530	-21.653	0.034	0.021
-282.516	613.218	0.071	-0.179
-281.501	483.074	0.052	0.119
-280.486	750.023	0.158	0.431
-279.472	800.000	0.086	0.308
-278.457	-7.672	-0.171	0.116
-277.443	267.861	-0.125	0.220
-276.428	800.000	-0.078	0.249
-275.413	-84.717	0.126	-0.040
-274.399	-186.459	0.124	0.002
-273.384	578.869	0.037	0.091
-272.370	-200.000	-0.047	-0.251
-271.355	800.000	0.085	0.258
-270.340	-200.000	0.000	0.351
-269.326	-21.777	0.223	-0.137
-268.311	-200.000	0.036	0.167
-267.297	41.763	-0.068	-0.062
-266.282	-153.905	0.257	-0.018
-265.267	228.133	-0.180	0.296
-264.253	361.158	-0.072	0.146
-263.238	-200.000	0.000	0.253
-262.224	-68.289	-0.480	0.188
-261.209	-136.164	0.154	0.018
-260.195	-200.000	-0.015	0.177
-259.180	106.424	0.160	0.192
-258.165	-200.000	0.005	0.162
-257.151	72.659	-0.186	0.195
-256.136	-5.975	-0.139	-0.095
-255.122	-200.000	-0.008	-0.195
-254.107	-159.290	-0.321	-0.018
-253.092	-104.685	-0.191	0.044
-252.078	114.023	-0.153	0.188
-251.063	123.645	-0.265	0.335
-250.049	10.184	-0.039	0.030
-249.034	26.358	0.076	-0.064
-248.019	76.550	-0.174	0.186
-247.005	-84.874	-0.151	-0.048
-245.990	-55.454	0.118	0.053
-244.976	-77.059	0.231	0.081
-243.961	800.000	0.085	0.321
-242.946	214.756	0.105	-0.168
-241.932	92.199	-0.070	0.079
-240.917	-37.148	0.038	-0.021
-239.903	264.070	0.135	-0.237
-238.888	-200.000	-0.003	0.017
-237.873	-39.969	-0.070	0.037
-236.859	-31.613	0.139	0.079
-235.844	589.959	0.080	0.199
-234.830	-79.087	-0.107	-0.036
-233.815	16.700	-0.086	-0.069
-232.800	295.797	-0.127	0.234
-231.786	-42.324	0.055	0.028
-230.771	-14.420	-0.191	0.124
-229.757	298.594	0.147	-0.273
-228.742	64.488	-0.175	-0.178
-227.727	110.986	0.032	0.039
-226.713	-200.000	0.019	-0.309
-225.698	-200.000	0.024	-0.213
-224.684	112.790	-0.077	0.094
-223.669	16.697	-0.215	0.171
-222.655	-200.000	-0.050	0.308
-221.640	-128.909	-0.370	-0.052
-220.625	169.835	-0.071	0.101
-219.611	-113.155	-0.200	0.040
-218.596	-177.246	-0.106	-0.003
-217.582	26.402	0.124	-0.104
-216.567	-11.509	-0.242	-0.160
-215.552	-81.390	0.097	0.032
-214.538	-200.000	-0.025	0.371
-213.523	-64.112	0.321	0.132
-212.509	800.000	-0.012	-0.044
-211.494	-148.902	-0.139	-0.011
-210.479	-43.450	-0.154	-0.078
-209.465	-88.034	0.264	0.080
-208.450	135.237	-0.108	0.141
-207.436	-79.436	-0.500	0.170
-206.421	-200.000	-0.009	0.106
-205.406	294.813	-0.069	0.127
-204.392	56.010	0.227	0.221
-203.377	-155.307	0.069	-0.005
-202.363	-200.000	0.022	-0.183
-201.348	-38.351	-0.120	-0.064
-200.333	-129.496	-0.117	-0.016
-199.319	51.766	-0.038	0.036
-198.304	-156.879	-0.183	0.011
-197.290	20.388	-0.120	-0.098
-196.275	92.752	-0.129	-0.147
-195.260	-89.569	-0.118	0.035
-194.246	11.377	0.288	0.222
-193.231	-12.366	-0.420	0.276
-192.217	684.931	0.103	-0.270
-191.202	-50.123	0.228	0.109
-190.187	112.620	-0.275	-0.335
-189.173	137.825	0.189	-0.249
-188.158	-200.000	0.034	-0.177
-187.144	552.155	0.102	-0.247
-186.129	-131.461	0.222	-0.029
-185.114	263.399	-0.024	0.042
-184.100	-200.000	-0.009	0.077
-183.085	-79.654	-0.103	-0.035
-182.071	-200.000	-0.033	-0.275
-181.056	800.000	-0.094	0.301
-180.042	521.502	-0.060	-0.142
-179.027	-200.000	0.030	-0.147
-178.012	-200.000	-0.009	-0.047
-176.998	-80.999	-0.168	-0.056
-175.983	-200.000	0.009	-0.171
-174.969	-39.988	-0.050	0.026
-173.954	456.553	0.145	-0.324
-172.939	-112.620	-0.184	-0.037
-171.925	312.989	-0.145	-0.274
-170.910	-196.246	0.147	-0.001
-169.896	113.162	-0.138	0.168
-168.881	50.068	0.205	-0.195
-167.866	-200.000	0.006	-0.178
-166.852	166.119	0.049	-0.070
-165.837	-150.354	0.234	-0.018
-164.823	-118.545	0.285	-0.051
-163.808	55.943	0.155	-0.151
-162.793	588.864	-0.054	-0.133
-161.779	373.905	-0.130	0.265
-160.764	565.251	-0.096	-0.232
-159.750	-72.305	0.237	0.088
-158.735	-14.821	0.260	-0.167
-157.720	800.000	0.064	-0.192
-156.706	81.528	0.095	0.104
-155.691	800.000	-0.013	0.057
-154.677	111.168	-0.028	0.034
-153.662	-45.060	-0.284	0.142
-152.647	20.382	0.168	0.136
-151.633	-11.983	-0.121	0.079
-150.618	-200.000	0.005	0.066
-149.604	800.000	0.087	0.374
-148.589	-200.000	0.015	0.176
-147.574	-39.050	0.131	-0.069
-146.560	800.000	0.063	-0.178
-145.545	-73.614	-0.443	0.162
-144.531	26.125	0.123	0.103
-143.516	173.439	-0.026	0.037
-142.502	59.946	-0.070	-0.070
-141.487	800.000	0.116	-0.468
-140.472	-200.000	0.009	-0.336
-139.458	159.608	0.036	0.050
-138.443	-110.778	-0.205	-0.042
-137.429	24.153	0.251	0.208
-136.414	346.142	-0.033	0.065
-135.399	-200.000	-0.007	0.325
-134.385	800.000	-0.077	-0.274
-133.370	191.144	0.123	-0.185
-132.356	800.000	-0.047	-0.158
-131.341	-159.679	0.280	0.016
-130.326	8.535	0.315	0.238
-129.312	243.611	0.255	-0.429
-128.297	-79.412	0.274	-0.093
-127.283	128.659	0.291	-0.372
-126.268	-57.845	-0.298	-0.131
-125.253	-60.294	-0.269	-0.115
-124.239	230.788	0.221	-0.363
-123.224	49.117	-0.441	0.415
-122.210	29.607	-0.198	0.169
-121.195	435.309	0.062	0.135
-120.180	-153.403	-0.142	-0.010
-119.166	480.847	-0.091	-0.207
-118.151	-200.000	-0.001	0.319
-117.137	-200.000	0.059	-0.432
-116.122	-69.063	0.107	0.041
-115.107	-153.214	-0.538	-0.038
-114.093	570.068	0.103	0.252
-113.078	1.160	0.284	0.204
-112.064	800.000	-0.036	-0.156
-111.049	-75.006	-0.082	0.029
-110.034	-147.477	0.368	-0.031
-109.020	800.000	0.067	-0.196
-108.005	-68.269	-0.203	0.079
-106.991	76.669	-0.186	-0.198
-105.976	-64.575	0.305	-0.124
-104.962	19.834	0.090	-0.073
-103.947	-200.000	-0.006	-0.040
-102.932	-10.858	-0.152	0.101
-101.918	-183.096	-0.260	0.005
-100.903	-22.405	0.444	-0.270
-99.889	37.617	0.108	0.096
-98.874	218.637	0.144	0.230
-97.859	-47.847	0.383	-0.186
-96.845	-42.448	0.379	0.194
-95.830	800.000	0.018	-0.077
-94.816	-114.236	0.148	0.029
-93.801	10.642	-0.253	0.193
-92.786	-200.000	-0.050	0.387
-91.772	800.000	0.088	0.305
-90.757	556.753	-0.035	0.085
-89.743	-155.953	0.195	0.012
-88.728	-39.687	-0.060	-0.031
-87.713	10.877	-0.166	-0.127
-86.699	-132.321	0.194	0.025
-85.684	-139.698	0.085	0.009
-84.670	81.391	0.205	-0.222
-83.655	-39.921	-0.223	-0.117
-82.640	-86.122	-0.206	0.064
-81.626	-64.825	0.215	0.087
-80.611	509.098	0.135	0.314
-79.597	-120.235	-0.282	-0.048
-78.582	103.345	-0.031	0.036
-77.567	98.899	0.149	0.172
-76.553	-32.173	-0.090	0.050
-75.538	28.509	0.112	0.095
-74.524	800.000	-0.045	0.142
-73.509	28.037	-0.048	-0.040
-72.494	-24.121	-0.388	0.232
-71.480	-92.228	0.219	-0.062
-70.465	-95.467	-0.122	0.033
-69.451	800.000	-0.058	-0.197
-68.436	590.911	0.135	-0.333
-67.422	282.678	-0.088	0.157
-66.407	-76.762	0.540	-0.189
-65.392	-200.000	-0.024	-0.268
-64.378	-117.245	-0.281	0.051
-63.363	-114.788	0.342	0.065
-62.349	-187.320	-0.212	-0.003
-61.334	103.741	-0.706	-0.829
-60.319	464.941	-0.171	0.382
-59.305	313.439	-0.198	-0.372
-58.290	800.000	0.166	0.542
-57.276	800.000	0.615	1.880
-56.261	-200.000	70.219	516.341
-55.246	568.806	1254.305	3048.288
-54.232	134.070	2514.950	3257.710
-53.217	110.769	2365.002	2844.971
-52.203	54.812	1985.175	1915.372
-51.188	48.395	1771.311	1658.130
-50.173	45.421	1722.902	1589.682
-49.159	58.586	1752.788	1720.314
-48.144	65.575	1772.311	1793.927
-47.130	48.234	1736.337	1623.872
-46.115	44.879	1723.119	1585.416
-45.100	44.822	1718.712	1580.854
-44.086	44.706	1715.396	1576.841
-43.071	44.809	1712.566	1574.975
-42.057	44.638	1710.645	1571.826
-41.042	44.645	1708.924	1570.234
-40.027	44.776	1706.650	1569.096
-39.013	44.785	1704.300	1566.938
-37.998	44.788	1702.798	1565.517
-36.984	44.730	1701.227	1563.566
-35.969	44.822	1700.024	1563.105
-34.954	44.865	1698.361	1561.847
-33.940	44.873	1696.362	1560.005
-32.925	44.940	1694.430	1558.678
-31.911	44.950	1692.682	1557.089
-30.896	44.818	1691.155	1554.612
-29.881	44.906	1688.655	1552.924
-28.867	44.942	1687.074	1551.679
-27.852	44.929	1685.324	1549.909
-26.838	44.909	1684.113	1548.585
-25.823	44.890	1682.673	1547.053
-24.809	44.879	1681.523	1545.857
-23.794	44.975	1679.531	1544.687
-22.779	44.930	1678.108	1542.978
-21.765	44.889	1676.346	1540.984
-20.750	44.869	1674.817	1539.369
-19.736	44.840	1673.469	1537.846
-18.721	44.905	1671.804	1536.746
-17.706	44.857	1670.228	1534.875
-16.692	44.843	1668.486	1533.106
-15.677	44.826	1667.128	1531.675
-14.663	44.951	1665.115	1530.705
-13.648	44.886	1664.454	1529.547
-12.633	44.980	1662.229	1528.144
-11.619	44.900	1660.779	1526.149
-10.604	44.869	1659.455	1524.640
-9.590	44.864	1657.950	1523.164
-8.575	44.924	1656.535	1522.249
-7.560	44.879	1655.293	1520.710
-6.546	44.867	1654.415	1519.754
-5.531	44.946	1652.834	1518.834
-4.517	44.893	1651.785	1517.411
-3.502	44.931	1650.595	1516.543
-2.487	44.987	1649.022	1515.452
-1.473	45.012	1638.179	1505.612
-0.458	42.544	1617.174	1468.234
0.556	34.690	1612.431	1419.683
1.571	30.504	1631.926	1405.144
2.586	28.814	1644.549	1402.996
3.600	25.316	1592.152	1332.268
4.615	16.232	1477.889	1173.669
5.629	8.072	1406.153	1062.403
6.644	6.387	1395.892	1043.400
7.659	6.249	1394.447	1041.316
8.673	6.211	1392.806	1039.742
9.688	5.944	1391.536	1036.941
10.702	5.794	1389.140	1034.076
11.717	9.284	1395.528	1061.824
12.731	16.538	1409.208	1120.360
13.746	19.119	1412.594	1140.067
14.761	17.266	1407.772	1123.833
15.775	15.945	1403.872	1111.907
16.790	14.908	1401.402	1103.018
17.804	13.940	1398.790	1094.490
18.819	13.576	1397.556	1091.026
19.834	13.364	1395.982	1088.307
20.848	13.028	1395.038	1085.271
21.863	12.865	1393.064	1082.564
22.877	12.647	1391.689	1079.968
23.892	12.575	1391.426	1079.202
24.907	12.598	1390.298	1078.380
25.921	12.689	1389.592	1078.332
26.936	12.598	1389.042	1077.213
27.950	12.693	1387.664	1076.674
28.965	12.780	1386.716	1076.409
29.980	12.878	1385.420	1075.949
30.994	12.904	1384.047	1074.955
32.009	12.927	1383.192	1074.345
33.023	12.879	1381.838	1072.889
34.038	12.871	1380.283	1071.531
35.053	12.759	1379.173	1069.852
36.067	12.679	1378.248	1068.515
37.082	12.789	1376.947	1068.129
38.096	12.832	1375.997	1067.576
39.111	12.805	1374.718	1066.312
40.126	12.713	1374.299	1065.296
41.140	12.654	1373.005	1063.819
42.155	12.498	1372.678	1062.465
43.169	12.498	1372.755	1062.427
44.184	12.496	1372.408	1062.053
45.199	12.524	1371.554	1061.482
46.213	12.600	1371.267	1061.654
47.228	12.722	1370.468	1061.728
48.242	12.657	1369.241	1060.264
49.257	12.635	1367.838	1058.945
50.271	12.649	1366.259	1057.717
51.286	12.716	1364.613	1056.781
52.301	12.677	1363.231	1055.369
53.315	12.657	1362.115	1054.284
54.330	12.645	1361.148	1053.360
55.344	12.692	1359.820	1052.544
56.359	12.627	1358.781	1051.226
57.374	12.542	1357.929	1049.932
58.388	12.529	1357.238	1049.225
59.403	12.513	1356.720	1048.628
60.417	12.437	1356.298	1047.728
61.432	12.427	1355.297	1046.796
62.447	12.420	1354.123	1045.752
63.461	12.401	1352.657	1044.409
64.476	12.420	1351.832	1043.801
65.490	12.431	1350.759	1042.947
66.505	12.347	1349.388	1041.263
67.520	12.447	1347.626	1040.442
68.534	12.529	1346.805	1040.238
69.549	12.517	1346.351	1039.719
70.563	12.479	1344.375	1037.863
71.578	12.368	1343.525	1036.414
72.593	12.261	1342.937	1035.191
73.607	12.420	1341.899	1035.302
74.622	12.366	1341.226	1034.353
75.636	12.308	1340.563	1033.382
76.651	12.408	1339.458	1033.069
77.666	12.473	1338.936	1032.984
78.680	12.381	1338.836	1032.238
79.695	12.433	1337.534	1031.466
80.709	12.577	1336.824	1031.734
81.724	12.490	1336.430	1030.792
82.739	12.466	1335.427	1029.780
83.753	12.552	1334.924	1029.836
84.768	12.668	1333.543	1029.404
85.782	12.680	1332.432	1028.534
86.797	12.644	1331.271	1027.321
87.812	12.574	1329.888	1025.725
88.826	12.694	1328.729	1025.488
89.841	12.618	1327.749	1024.166
90.855	12.700	1326.593	1023.696
91.870	12.750	1326.006	1023.464
92.884	12.755	1325.133	1022.732
93.899	12.804	1324.126	1022.165
94.914	12.832	1323.291	1021.604
95.928	12.876	1322.561	1021.223
96.943	12.887	1321.233	1020.178
97.957	12.734	1320.479	1018.559
98.972	12.763	1319.827	1018.145
99.987	12.723	1319.051	1017.208
101.001	12.804	1317.321	1016.284
102.016	12.757	1316.373	1015.174
103.030	12.779	1315.596	1014.621
104.045	12.845	1314.425	1014.033
105.060	12.708	1313.540	1012.417
106.074	12.584	1312.454	1010.731
107.089	12.505	1310.899	1008.955
108.103	12.499	1309.675	1007.886
109.118	12.483	1308.245	1006.599
110.133	12.479	1306.838	1005.408
111.147	12.485	1305.738	1004.507
112.162	12.548	1304.188	1003.610
113.176	12.502	1303.256	1002.525
114.191	12.704	1302.097	1002.776
115.206	12.591	1301.146	1001.263
116.220	12.520	1300.025	999.881
117.235	12.571	1298.421	998.867
118.249	12.601	1297.276	998.084
119.264	12.528	1296.442	996.907
120.279	12.504	1295.475	995.930
121.293	12.466	1294.471	994.840
122.308	12.490	1293.381	994.064
123.322	12.476	1292.447	993.170
124.337	12.474	1291.506	992.346
125.352	12.459	1290.204	991.169
126.366	12.412	1288.751	989.686
127.381	12.396	1288.025	988.941
128.395	12.517	1286.929	988.737
129.410	12.577	1285.636	988.018
130.424	12.570	1285.260	987.601
131.439	12.637	1283.887	986.858
132.454	12.536	1283.556	985.911
133.468	12.663	1282.004	985.396
134.483	12.661	1281.363	984.803
135.497	12.632	1280.532	983.900
136.512	12.701	1279.060	983.100
137.527	12.729	1277.800	982.206
138.541	12.659	1276.730	980.883
139.556	12.673	1275.208	979.709
140.570	12.837	1274.318	979.915
141.585	12.771	1272.946	978.382
142.600	12.966	1271.346	978.219
143.614	12.938	1271.135	977.806
144.629	12.886	1269.897	976.457
145.643	12.802	1268.897	975.104
146.658	12.726	1267.745	973.685
147.673	12.736	1266.020	972.334
148.687	12.782	1264.808	971.587
149.702	12.571	1263.717	969.422
150.716	12.682	1261.959	968.641
151.731	12.755	1260.776	968.076
152.746	12.694	1259.630	966.751
153.760	12.629	1258.521	965.435
154.775	12.772	1257.566	965.454
155.789	12.807	1256.177	964.506
156.804	12.916	1254.879	964.063
157.819	12.852	1254.260	963.128
158.833	12.917	1253.276	962.665
159.848	12.914	1252.363	961.862
160.862	12.881	1251.353	960.809
161.877	12.826	1250.470	959.725
162.892	12.767	1249.008	958.174
163.906	12.689	1248.022	956.883
164.921	12.707	1247.535	956.528
165.935	12.766	1246.307	955.842
166.950	12.841	1245.559	955.618
167.964	12.809	1244.679	954.673
168.979	12.823	1244.189	954.297
169.994	12.860	1243.397	953.817
171.008	12.904	1242.467	953.277
172.023	12.970	1241.204	952.600
173.037	12.966	1240.673	952.089
174.052	12.993	1239.465	951.233
175.067	12.953	1238.570	950.229
176.081	12.966	1237.601	949.480
177.096	12.877	1237.048	948.455
178.110	12.851	1235.887	947.335
179.125	12.969	1234.443	946.819
180.140	13.029	1233.199	946.125
181.154	12.985	1231.987	944.861
182.169	13.061	1230.549	944.107
183.183	13.169	1229.679	943.975
184.198	13.079	1228.493	942.467
185.213	13.138	1227.186	941.718
186.227	13.126	1226.775	941.250
187.242	13.207	1224.959	940.236
188.256	13.135	1224.560	939.435
189.271	13.277	1223.310	939.200
190.286	12.964	1222.689	936.866
191.300	12.821	1221.833	935.313
192.315	12.817	1220.774	934.400
193.329	12.785	1220.188	933.683
194.344	12.976	1219.443	934.112
195.359	13.068	1218.587	933.897
196.373	13.108	1218.144	933.699
197.388	13.176	1217.772	933.717
198.402	13.189	1217.689	933.646
199.417	13.297	1216.685	933.402
200.432	13.287	1216.161	932.857
201.446	13.342	1215.493	932.576
202.461	13.443	1214.517	932.312
203.475	13.470	1213.243	931.405
204.490	13.386	1211.936	929.846
205.504	13.318	1210.823	928.528
206.519	13.371	1209.486	927.717
207.534	13.309	1208.470	926.507
208.548	13.331	1207.598	925.880
209.563	13.286	1207.038	925.117
210.577	13.412	1205.809	924.800
211.592	13.450	1205.220	924.477
212.607	13.476	1204.387	923.903
213.621	13.434	1203.718	923.072
214.636	13.424	1202.643	922.114
215.650	13.471	1201.535	921.443
216.665	13.523	1200.486	920.846
217.680	13.587	1200.018	920.763
218.694	13.538	1199.131	919.723
219.709	13.580	1198.553	919.432
220.723	13.624	1197.520	918.806
221.738	13.594	1196.863	918.053
222.753	13.625	1196.251	917.673
223.767	13.645	1195.595	917.201
224.782	13.706	1194.624	916.710
225.796	13.745	1194.119	916.460
226.811	13.617	1193.153	914.929
227.826	13.713	1192.562	914.924
228.840	13.628	1192.092	914.014
229.855	13.804	1190.864	913.962
230.869	13.641	1190.093	912.390
231.884	13.623	1189.258	911.571
232.899	13.684	1188.449	911.206
233.913	13.564	1187.615	909.826
234.928	13.596	1186.954	909.418
235.942	13.667	1185.992	908.986
236.957	13.562	1185.351	907.838
237.972	13.653	1184.748	907.795
238.986	13.671	1183.961	907.210
240.001	13.668	1183.600	906.838
241.015	13.699	1182.183	905.842
242.030	13.659	1182.016	905.416
243.045	13.751	1180.600	904.752
244.059	13.858	1179.871	904.695
245.074	13.719	1179.645	903.686
246.088	13.764	1178.515	902.985
247.103	13.891	1177.617	902.907
248.117	13.898	1177.224	902.566
249.132	14.118	1176.089	902.808
250.147	14.139	1175.414	902.326
251.161	14.200	1174.813	902.113
252.176	14.113	1174.245	901.126
253.190	14.160	1173.174	900.482
254.205	14.193	1173.035	900.471
255.220	14.224	1172.528	900.173
256.234	14.223	1171.841	899.559
257.249	14.225	1171.150	898.960
258.263	14.202	1170.608	898.340
259.278	14.203	1169.942	897.757
260.293	14.165	1169.740	897.313
261.307	14.318	1168.868	897.391
262.322	14.355	1168.015	896.857
263.336	14.385	1167.347	896.428
264.351	14.342	1166.800	895.696
265.366	14.372	1166.073	895.219
266.380	14.457	1164.826	894.636
267.395	14.391	1164.377	893.859
268.409	14.282	1163.836	892.783
269.424	14.382	1162.866	892.493
270.439	14.428	1162.233	892.175
271.453	14.430	1161.745	891.731
272.468	14.424	1160.283	890.498
273.482	14.183	1160.090	888.985
274.497	14.376	1159.339	889.361
275.512	14.329	1158.771	888.594
276.526	14.297	1158.156	887.878
277.541	14.252	1157.690	887.200
278.555	14.363	1156.438	886.754
279.570	14.615	1155.363	887.193
280.585	14.525	1154.922	886.293
281.599	14.538	1154.100	885.652
282.614	14.533	1153.008	884.711
283.628	14.450	1151.917	883.357
284.643	14.596	1150.672	883.095
285.657	14.483	1150.106	881.984
286.672	14.611	1149.056	881.777
287.687	14.625	1147.996	880.960
288.701	14.605	1147.618	880.488
289.716	14.541	1146.840	879.473
290.730	14.633	1145.801	879.084
291.745	14.559	1145.401	878.311
292.760	14.559	1144.536	877.572
293.774	14.670	1143.922	877.607
294.789	14.773	1143.507	877.749
295.803	14.786	1142.663	877.095
296.818	14.681	1141.696	875.724
297.833	14.552	1141.584	874.885
298.847	14.736	1140.304	874.787
299.862	14.767	1139.647	874.371
300.876	14.724	1138.477	873.171
301.891	14.779	1138.225	873.188
302.906	14.897	1137.107	872.866
303.920	14.888	1136.926	872.604
304.935	14.901	1136.263	872.086
305.949	15.002	1135.403	871.873
306.964	14.945	1134.864	871.090
307.979	14.967	1133.760	870.278
308.993	14.846	1133.358	869.261
310.008	14.919	1132.610	868.993
311.022	15.065	1131.542	868.853
312.037	15.105	1130.429	868.130
313.052	14.960	1129.804	866.819
314.066	14.906	1128.869	865.748
315.081	14.690	1128.076	863.943
316.095	14.881	1127.103	864.107
317.110	14.881	1126.565	863.619
318.125	14.991	1125.601	863.374
319.139	14.865	1124.971	862.163
320.154	14.871	1124.285	861.592
321.168	14.904	1123.751	861.276
322.183	14.858	1123.345	860.654
323.197	15.056	1122.490	860.940
324.212	15.011	1121.769	860.079
325.227	15.023	1121.314	859.718
326.241	15.030	1120.868	859.336
327.256	14.957	1120.113	858.305
328.270	14.940	1119.113	857.374
329.285	14.983	1118.197	856.820
330.300	15.031	1116.932	856.020
331.314	14.995	1116.200	855.199
332.329	15.114	1115.085	854.877
333.343	15.188	1114.022	854.362
334.358	15.147	1113.210	853.456
335.373	15.235	1112.517	853.294
336.387	15.082	1112.475	852.407
337.402	15.114	1111.580	851.812
338.416	15.178	1110.881	851.528
339.431	15.283	1109.987	851.300
340.446	15.409	1109.163	851.231
341.460	15.304	1109.219	850.663
342.475	15.432	1107.930	850.252
343.489	15.460	1106.940	849.557
344.504	15.594	1105.645	849.167
345.519	15.437	1105.249	847.991
346.533	15.526	1104.198	847.560
347.548	15.541	1103.605	847.105
348.562	15.466	1103.191	846.335
349.577	15.370	1102.253	845.059
350.592	15.471	1101.058	844.577
351.606	15.419	1100.655	843.930
352.621	15.351	1099.866	842.906
353.635	15.329	1099.091	842.129
354.650	15.409	1098.377	841.908
355.665	15.309	1097.713	840.825
356.679	15.356	1097.597	840.895
357.694	15.477	1096.639	840.693
358.708	15.520	1095.784	840.179
359.723	15.549	1095.235	839.829
360.738	15.595	1094.514	839.432
361.752	15.589	1093.766	838.755
362.767	15.509	1093.858	838.349
363.781	15.510	1093.120	837.717
364.796	15.578	1092.803	837.736
365.810	15.747	1091.621	837.599
366.825	15.667	1091.449	836.995
367.840	15.794	1091.024	837.225
368.854	15.742	1090.323	836.358
369.869	15.748	1089.315	835.540
370.883	15.708	1088.872	834.923
371.898	15.797	1087.654	834.360
372.913	15.781	1087.182	833.845
373.927	15.856	1086.133	833.337
374.942	15.863	1086.032	833.219
375.956	15.798	1085.758	832.615
376.971	15.912	1084.630	832.238
377.986	15.918	1084.356	831.986
379.000	16.092	1083.632	832.217
380.015	16.052	1083.066	831.510
381.029	16.082	1082.276	830.980
382.044	16.110	1081.672	830.579
383.059	16.152	1080.747	830.002
384.073	16.263	1079.858	829.791
385.088	16.094	1079.040	828.261
386.102	16.173	1077.948	827.734
387.117	16.081	1077.403	826.794
388.132	16.093	1076.562	826.132
389.146	16.123	1075.763	825.594
390.161	15.953	1075.246	824.292
391.175	15.926	1074.311	823.367
392.190	16.101	1073.652	823.645
393.205	16.197	1072.817	823.400
394.219	16.038	1072.217	822.092
395.234	16.087	1071.111	821.411
396.248	16.074	1070.322	820.668
397.263	16.166	1068.915	819.964
398.278	16.120	1067.955	818.930
399.292	16.109	1067.795	818.682
400.307	16.021	1066.960	817.543
401.321	15.989	1066.418	816.902
402.336	16.152	1065.614	817.002
403.350	16.112	1064.875	816.171
404.365	16.012	1064.482	815.316
405.380	16.111	1063.724	815.137
406.394	16.153	1062.807	814.570
407.409	16.128	1062.129	813.855
408.423	16.363	1060.922	813.990
409.438	16.311	1060.283	813.178
410.453	16.373	1059.918	813.125
411.467	16.457	1059.062	812.799
412.482	16.540	1058.711	812.859
413.496	16.523	1057.818	812.020
414.511	16.497	1057.314	811.436
415.526	16.544	1056.852	811.233
416.540	16.681	1056.533	811.575
417.555	16.629	1055.811	810.699
418.569	16.494	1055.761	809.943
419.584	16.586	1055.159	809.848
420.599	16.574	1054.567	809.265
421.613	61.244	1253.972	1209.570
422.628	56.210	1283.035	1209.740
