DTS Sentinel unit serial number:	SN413079Multiplexer serial number:	ORYXHardware model number:	OX4-SRSoftware version number:	ORYX F/W v4.00 Oryx Data Collector v3.7.2.0data status	okinstallation	princeton_trtdifferential loss correction	single-endedforward channel	channel 2reverse channel	N/Adate	2019/09/17time	15:15:35forward acquisition time	60.00reverse acquisition time	0.00gamma	496.2192k internal	0.2307k external	0.2307temperature offset calibration	0.9985default loss term (dB/km)	0.3790temperature slope calibration	1.0000multiplexer offset coefficient	1.0000multiplexer slope coefficient	1.0000fibre end	0.00T internal ref (°C)	37.81T ext. ref 1 (°C)	0.39T ext. ref 2 (°C)	34.71length (m)	temperature (°C)	Stokes	anti-Stokes-747.200	-200.000	-0.050	0.386
-746.185	-17.178	-0.300	0.193
-745.171	156.813	0.321	0.451
-744.156	-110.668	-0.162	-0.034
-743.142	1.711	-0.180	-0.132
-742.127	-200.000	-0.002	0.141
-741.112	-200.000	0.008	0.120
-740.098	800.000	-0.094	0.399
-739.083	631.100	0.063	0.162
-738.069	73.796	-0.229	0.244
-737.054	40.578	-0.197	0.181
-736.039	-200.000	-0.007	-0.118
-735.025	168.589	-0.120	-0.174
-734.010	-116.401	-0.531	-0.100
-732.996	140.715	-0.111	-0.148
-731.981	-200.000	0.040	-0.222
-730.966	800.000	-0.093	-0.262
-729.952	-200.000	-0.315	0.001
-728.937	-118.383	-0.315	0.057
-727.923	-89.465	0.070	-0.021
-726.908	21.309	-0.040	-0.033
-725.894	282.059	-0.094	-0.171
-724.879	-51.498	-0.603	-0.286
-723.864	-137.281	-0.271	-0.031
-722.850	800.000	0.026	-0.089
-721.835	-139.906	-0.196	0.021
-720.821	-64.349	-0.430	0.178
-719.806	-200.000	-0.006	0.144
-718.791	-101.886	0.293	-0.072
-717.777	593.574	-0.027	-0.068
-716.762	800.000	-0.191	0.572
-715.748	-35.744	-0.204	0.112
-714.733	-77.074	-0.101	-0.036
-713.718	-70.187	0.116	-0.045
-712.704	107.936	-0.107	0.130
-711.689	800.000	-0.014	-0.042
-710.675	-140.903	0.083	-0.009
-709.660	209.260	0.189	0.301
-708.645	-16.373	-0.582	-0.375
-707.631	61.034	0.131	-0.132
-706.616	217.432	0.080	-0.130
-705.602	198.828	0.098	0.152
-704.587	55.957	0.064	-0.063
-703.572	-103.619	0.044	-0.010
-702.558	-153.957	-0.181	-0.013
-701.543	277.629	-0.050	0.091
-700.529	491.230	0.101	0.234
-699.514	-160.241	0.246	-0.014
-698.499	354.034	-0.086	-0.173
-697.485	-94.359	-0.239	0.066
-696.470	107.782	0.127	0.153
-695.456	-200.000	0.005	0.173
-694.441	599.016	-0.083	-0.209
-693.426	57.238	-0.113	0.112
-692.412	350.771	-0.106	-0.214
-691.397	800.000	-0.112	0.324
-690.383	-120.768	-0.294	-0.050
-689.368	-6.376	0.140	0.097
-688.354	-54.467	0.170	-0.078
-687.339	800.000	0.046	-0.132
-686.324	190.000	0.080	0.121
-685.310	416.328	-0.105	-0.227
-684.295	-162.196	-0.229	0.012
-683.281	-184.558	0.036	-0.001
-682.266	-200.000	-0.017	0.123
-681.251	267.918	-0.171	-0.304
-680.237	-163.247	-0.045	-0.002
-679.222	-12.099	-0.115	0.076
-678.208	-20.311	-0.163	-0.102
-677.193	800.000	-0.069	0.239
-676.178	-200.000	0.024	0.199
-675.164	519.541	0.046	0.109
-674.149	218.110	0.084	0.136
-673.135	56.127	-0.167	0.165
-672.120	-200.000	-0.042	0.199
-671.105	210.739	0.084	0.133
-670.091	708.526	0.059	-0.159
-669.076	-42.307	0.292	-0.151
-668.062	-200.000	-0.004	-0.158
-667.047	-200.000	-0.030	-0.265
-666.032	91.989	-0.139	-0.159
-665.018	455.580	-0.050	0.113
-664.003	116.937	-0.117	-0.146
-662.989	370.493	-0.034	-0.070
-661.974	367.785	0.167	0.342
-660.959	800.000	0.024	0.082
-659.945	800.000	-0.064	-0.194
-658.930	533.977	0.111	-0.265
-657.916	-16.501	-0.242	-0.155
-656.901	-200.000	-0.019	-0.131
-655.886	189.465	0.157	-0.239
-654.872	-144.570	0.089	0.008
-653.857	10.861	-0.184	0.142
-652.843	-200.000	-0.030	0.145
-651.828	66.467	0.081	0.083
-650.814	-200.000	0.001	0.114
-649.799	533.057	0.061	-0.147
-648.784	-200.000	0.026	-0.127
-647.770	-147.789	-0.300	-0.025
-646.755	-67.442	-0.187	0.074
-645.741	55.914	-0.089	-0.088
-644.726	-154.698	-0.040	0.003
-643.711	-57.222	0.203	-0.090
-642.697	800.000	0.045	0.150
-641.682	800.000	-0.100	-0.323
-640.668	132.422	0.278	-0.362
-639.653	-78.943	-0.133	-0.046
-638.638	800.000	-0.028	-0.094
-637.624	41.794	0.295	0.271
-636.609	227.414	-0.032	-0.053
-635.595	-20.720	-0.240	-0.149
-634.580	800.000	-0.051	-0.198
-633.565	-16.713	0.110	-0.070
-632.551	-86.697	0.116	-0.036
-631.536	117.880	-0.101	0.126
-630.522	-200.000	0.004	-0.217
-629.507	316.134	0.064	-0.123
-628.492	-104.540	-0.343	0.080
-627.478	73.108	-0.077	0.082
-626.463	150.462	0.054	0.075
-625.449	-155.418	-0.291	-0.019
-624.434	558.233	0.049	-0.119
-623.419	-200.000	0.016	-0.225
-622.405	-56.835	0.210	0.094
-621.390	13.733	-0.123	0.097
-620.376	90.947	-0.224	-0.254
-619.361	-117.628	-0.217	-0.040
-618.346	-109.156	0.190	-0.041
-617.332	165.961	0.167	0.240
-616.317	800.000	-0.056	-0.187
-615.303	19.728	-0.313	-0.255
-614.288	31.973	-0.013	-0.011
-613.273	427.570	0.071	-0.154
-612.259	800.000	0.062	0.221
-611.244	69.916	-0.277	-0.289
-610.230	35.302	0.212	-0.188
-609.215	-120.711	-0.037	0.006
-608.201	-48.751	-0.285	-0.139
-607.186	-34.464	0.090	0.050
-606.171	206.503	0.109	-0.172
-605.157	-3.238	-0.156	-0.110
-604.142	-64.439	0.281	-0.116
-603.128	-200.000	-0.024	0.315
-602.113	-70.166	0.097	-0.037
-601.098	425.967	0.038	-0.082
-600.084	-186.860	0.284	-0.004
-599.069	800.000	-0.071	0.260
-598.055	24.241	0.046	0.038
-597.040	-200.000	0.095	0.485
-596.025	14.911	0.022	0.017
-595.011	800.000	-0.074	-0.231
-593.996	61.275	-0.056	0.057
-592.982	-200.000	0.018	0.119
-591.967	-35.266	-0.186	-0.102
-590.952	800.000	0.019	-0.076
-589.938	-200.000	-0.008	-0.201
-588.923	46.689	-0.188	-0.176
-587.909	-93.040	0.253	-0.071
-586.894	-66.282	-0.179	0.072
-585.879	-181.609	0.182	0.004
-584.865	-200.000	0.002	-0.159
-583.850	172.848	-0.154	0.224
-582.836	-35.290	-0.146	0.080
-581.821	-54.024	0.280	0.129
-580.806	86.303	-0.099	-0.110
-579.792	3.750	0.105	-0.077
-578.777	238.841	0.109	0.183
-577.763	800.000	-0.055	-0.168
-576.748	-79.916	-0.185	0.063
-575.733	486.559	-0.189	-0.436
-574.719	-200.000	-0.014	-0.277
-573.704	-27.700	0.328	-0.192
-572.690	-104.882	-0.252	-0.058
-571.675	-152.677	0.085	-0.006
-570.661	-13.377	-0.204	0.134
-569.646	-200.000	-0.062	0.340
-568.631	-65.918	-0.183	0.074
-567.617	99.164	-0.110	-0.128
-566.602	157.190	0.214	-0.299
-565.588	79.406	0.045	-0.049
-564.573	-87.707	0.272	0.083
-563.558	-20.133	0.064	0.040
-562.544	49.501	-0.254	-0.241
-561.529	-200.000	-0.014	0.157
-560.515	-200.000	-0.023	-0.346
-559.500	-158.246	0.307	0.018
-558.485	-43.017	0.145	0.074
-557.471	-68.142	-0.400	-0.157
-556.456	190.213	0.206	0.312
-555.442	-82.462	-0.065	0.021
-554.427	166.882	-0.115	-0.164
-553.412	-99.155	0.235	0.060
-552.398	98.241	-0.072	-0.083
-551.383	800.000	0.068	-0.242
-550.369	800.000	-0.039	0.154
-549.354	3.375	-0.106	-0.078
-548.339	-50.986	0.151	0.072
-547.325	-200.000	0.044	0.203
-546.310	800.000	0.112	-0.358
-545.296	800.000	-0.028	-0.105
-544.281	46.447	-0.159	-0.149
-543.266	-200.000	-0.009	-0.061
-542.252	125.882	-0.040	0.051
-541.237	-149.241	-0.534	-0.043
-540.223	48.543	0.224	-0.212
-539.208	-134.999	-0.202	-0.025
-538.193	-160.439	-0.287	-0.016
-537.179	800.000	-0.013	-0.039
-536.164	-136.225	-0.159	0.019
-535.150	26.687	-0.126	-0.107
-534.135	-52.139	-0.233	0.109
-533.121	-197.595	0.143	0.001
-532.106	-200.000	0.037	0.174
-531.091	-100.249	-0.169	0.042
-530.077	-50.159	-0.180	-0.086
-529.062	355.868	-0.031	-0.062
-528.048	297.990	-0.094	-0.174
-527.033	-200.000	-0.011	-0.190
-526.018	-200.000	0.023	0.164
-525.004	112.950	0.066	0.080
-523.989	633.703	0.025	0.063
-522.975	800.000	-0.037	0.107
-521.960	-34.400	-0.184	0.102
-520.945	8.907	0.225	-0.172
-519.931	153.233	-0.222	-0.306
-518.916	4.016	-0.133	0.098
-517.902	20.939	0.207	-0.170
-516.887	87.864	-0.140	-0.157
-515.872	410.047	0.071	0.152
-514.858	58.467	0.093	-0.092
-513.843	-114.606	0.250	0.048
-512.829	621.577	0.136	0.345
-511.814	-140.162	-0.066	0.007
-510.799	-127.381	0.159	-0.023
-509.785	327.290	0.087	0.168
-508.770	-128.263	-0.046	-0.007
-507.756	145.884	-0.188	-0.254
-506.741	-84.393	0.121	0.038
-505.726	114.107	-0.287	0.352
-504.712	-180.018	0.298	0.006
-503.697	800.000	0.026	0.090
-502.683	-200.000	0.027	-0.161
-501.668	-28.995	-0.110	-0.064
-500.653	-200.000	0.073	-0.339
-499.639	-97.692	0.515	0.134
-498.624	-123.968	-0.282	-0.045
-497.610	800.000	0.081	-0.256
-496.595	-126.955	0.176	0.026
-495.581	-38.599	0.152	0.081
-494.566	-3.325	-0.237	0.166
-493.551	-77.025	0.427	-0.150
-492.537	-103.788	0.263	-0.062
-491.522	-102.986	-0.354	-0.085
-490.508	170.127	-0.082	-0.118
-489.493	-200.000	0.031	-0.212
-488.478	-71.842	-0.250	0.094
-487.464	-200.000	0.003	0.165
-486.449	-27.389	0.216	0.127
-485.435	79.493	0.225	-0.243
-484.420	-20.244	-0.125	-0.077
-483.405	-56.623	-0.181	0.081
-482.391	-115.278	-0.298	-0.057
-481.376	3.851	-0.309	0.228
-480.362	-110.870	-0.248	0.051
-479.347	209.277	-0.180	-0.283
-478.332	28.194	0.239	0.203
-477.318	-135.331	0.333	0.040
-476.303	-57.043	-0.296	-0.131
-475.289	12.722	-0.124	-0.097
-474.274	-200.000	0.023	0.464
-473.259	-200.000	0.020	-0.144
-472.245	-200.000	-0.026	0.148
-471.230	-11.547	-0.095	0.063
-470.216	2.345	-0.065	0.047
-469.201	800.000	0.048	-0.191
-468.186	-171.419	-0.318	0.011
-467.172	-32.586	-0.201	0.113
-466.157	1.260	-0.356	-0.258
-465.143	-132.231	-0.338	-0.044
-464.128	800.000	-0.073	0.305
-463.113	72.151	0.233	-0.244
-462.099	16.937	0.102	-0.081
-461.084	135.592	-0.179	0.234
-460.070	-74.866	0.063	-0.023
-459.055	53.152	-0.231	-0.223
-458.040	10.807	-0.150	-0.115
-457.026	-5.581	0.176	0.121
-456.011	91.867	-0.329	0.372
-454.997	-10.242	-0.314	-0.210
-453.982	800.000	-0.050	0.142
-452.968	-72.342	-0.319	0.119
-451.953	44.116	-0.035	-0.032
-450.938	-153.308	0.408	-0.029
-449.924	-196.136	-0.043	-0.000
-448.909	-200.000	0.030	-0.222
-447.895	-200.000	0.017	-0.446
-446.880	-200.000	-0.011	0.126
-445.865	-175.708	0.494	-0.013
-444.851	-162.525	0.148	-0.007
-443.836	800.000	-0.055	-0.187
-442.822	19.495	-0.241	0.195
-441.807	6.553	-0.318	0.238
-440.792	-200.000	-0.010	0.118
-439.778	-91.337	-0.093	0.027
-438.763	-46.071	0.298	0.147
-437.749	117.727	0.068	0.084
-436.734	-200.000	0.013	-0.493
-435.719	-7.625	-0.196	-0.133
-434.705	300.561	0.076	-0.140
-433.690	-54.949	0.285	-0.129
-432.676	-46.423	-0.122	-0.060
-431.661	-200.000	-0.035	0.481
-430.646	-200.000	-0.060	0.316
-429.632	30.962	0.227	0.196
-428.617	238.644	-0.023	0.039
-427.603	40.203	-0.228	-0.206
-426.588	-200.000	-0.022	-0.202
-425.573	800.000	-0.073	0.233
-424.559	-200.000	0.006	-0.186
-423.544	10.160	0.257	0.196
-422.530	562.300	-0.064	0.155
-421.515	-78.679	-0.137	-0.047
-420.500	90.711	0.213	-0.239
-419.486	-88.941	-0.335	0.100
-418.471	712.939	-0.052	0.138
-417.457	-6.207	-0.300	0.206
-416.442	-36.946	-0.134	-0.072
-415.428	800.000	-0.032	-0.125
-414.413	800.000	0.079	0.273
-413.398	800.000	0.071	-0.219
-412.384	327.474	-0.224	-0.432
-411.369	479.564	-0.045	-0.101
-410.355	-18.622	0.152	0.095
-409.340	-0.922	0.333	0.236
-408.325	800.000	0.094	0.378
-407.311	103.627	-0.127	0.150
-406.296	28.080	-0.157	-0.133
-405.282	-7.827	0.271	0.184
-404.267	-25.716	0.195	-0.116
-403.252	26.780	-0.165	0.139
-402.238	-25.016	-0.125	-0.074
-401.223	800.000	0.075	0.256
-400.209	308.037	0.098	-0.184
-399.194	779.303	0.075	0.206
-398.179	272.919	0.069	-0.123
-397.165	-70.683	0.222	-0.084
-396.150	-147.254	0.284	0.024
-395.136	584.654	-0.076	-0.188
-394.121	800.000	-0.106	0.392
-393.106	-56.932	0.082	0.036
-392.092	3.810	-0.323	-0.236
-391.077	130.582	0.232	-0.298
-390.063	-153.049	0.182	-0.013
-389.048	667.296	-0.049	0.128
-388.033	-48.587	-0.271	-0.131
-387.019	135.430	-0.046	0.060
-386.004	-11.843	0.215	0.141
-384.990	21.822	0.222	0.182
-383.975	-200.000	-0.008	-0.150
-382.960	83.564	0.081	-0.089
-381.946	-200.000	0.003	-0.085
-380.931	-200.000	0.027	-0.219
-379.917	-52.606	-0.113	0.052
-378.902	-200.000	0.038	-0.169
-377.888	-176.737	0.432	0.011
-376.873	-200.000	-0.075	-0.339
-375.858	-150.318	0.049	-0.004
-374.844	-106.549	-0.299	0.067
-373.829	-96.162	-0.424	-0.113
-372.815	-200.000	-0.011	0.082
-371.800	-200.000	0.037	-0.328
-370.785	-200.000	0.016	-0.196
-369.771	433.282	-0.109	-0.238
-368.756	-172.287	-0.162	-0.005
-367.742	-86.611	0.253	-0.078
-366.727	120.353	0.131	-0.163
-365.712	50.937	0.203	0.192
-364.698	-200.000	0.019	-0.274
-363.683	-200.000	-0.002	0.247
-362.669	-57.746	-0.284	0.125
-361.654	143.853	0.169	0.225
-360.639	-110.260	0.131	-0.027
-359.625	82.521	0.038	-0.041
-358.610	170.229	-0.162	0.233
-357.596	194.155	0.095	-0.145
-356.581	62.534	-0.265	0.265
-355.566	223.617	-0.020	-0.032
-354.552	3.681	0.214	0.156
-353.537	-35.225	0.255	0.139
-352.523	-200.000	0.024	-0.164
-351.508	-123.132	0.055	-0.009
-350.493	-200.000	0.014	0.078
-349.479	263.237	-0.090	-0.157
-348.464	-51.120	0.311	-0.146
-347.450	431.376	-0.040	-0.087
-346.435	429.004	0.171	0.370
-345.420	-157.207	0.304	-0.018
-344.406	-200.000	-0.029	-0.226
-343.391	-200.000	-0.019	-0.171
-342.377	-24.338	-0.140	0.083
-341.362	-114.008	-0.316	0.061
-340.348	800.000	0.201	-0.688
-339.333	-145.852	-0.079	-0.007
-338.318	-200.000	-0.007	-0.184
-337.304	127.689	-0.089	-0.113
-336.289	621.895	0.046	-0.115
-335.275	-33.445	-0.125	-0.069
-334.260	-131.233	0.189	-0.025
-333.245	123.394	0.190	0.238
-332.231	-23.763	0.183	-0.109
-331.216	69.055	-0.112	-0.115
-330.202	-39.697	-0.322	0.169
-329.187	-169.577	-0.149	-0.005
-328.172	-8.453	-0.220	0.148
-327.158	27.734	0.056	0.047
-326.143	67.820	0.053	0.054
-325.129	-98.858	0.131	-0.033
-324.114	-102.357	0.361	0.086
-323.099	-5.515	-0.123	0.084
-322.085	367.585	-0.155	0.313
-321.070	800.000	-0.050	0.147
-320.056	96.507	-0.111	0.127
-319.041	80.126	-0.222	-0.239
-318.026	711.392	-0.004	-0.009
-317.012	99.059	-0.021	-0.024
-315.997	-60.126	-0.285	0.122
-314.983	734.126	-0.100	0.267
-313.968	-200.000	0.078	-0.439
-312.953	-88.602	0.163	-0.049
-311.939	-187.959	-0.160	0.002
-310.924	36.580	-0.045	-0.040
-309.910	800.000	0.052	-0.202
-308.895	31.158	0.058	-0.050
-307.880	-200.000	-0.016	0.332
-306.866	626.024	-0.038	0.097
-305.851	-92.393	0.122	0.034
-304.837	302.561	0.209	0.386
-303.822	-200.000	0.016	0.071
-302.807	44.961	-0.146	-0.135
-301.793	-174.559	0.244	-0.007
-300.778	-32.488	-0.044	-0.025
-299.764	800.000	-0.070	0.243
-298.749	117.920	0.041	0.050
-297.735	46.735	-0.212	0.197
-296.720	-4.056	-0.124	0.086
-295.705	800.000	0.079	0.269
-294.691	-200.000	0.059	0.306
-293.676	-200.000	-0.032	-0.196
-292.662	-4.995	0.134	0.092
-291.647	-132.804	-0.172	-0.022
-290.632	-19.627	-0.358	0.222
-289.618	419.112	-0.045	-0.096
-288.603	-200.000	0.010	-0.281
-287.589	235.807	0.139	0.230
-286.574	-200.000	0.001	-0.390
-285.559	-1.966	0.112	-0.078
-284.545	-63.605	-0.283	0.116
-283.530	4.201	-0.253	-0.185
-282.516	-3.380	0.107	0.074
-281.501	-107.855	-0.139	-0.030
-280.486	-18.692	0.239	0.149
-279.472	-92.937	0.409	-0.114
-278.457	150.581	0.133	0.181
-277.443	160.646	-0.092	0.128
-276.428	-19.692	0.381	-0.236
-275.413	-93.250	0.313	-0.087
-274.399	800.000	0.036	0.131
-273.384	130.601	0.055	0.071
-272.370	162.868	0.104	-0.145
-271.355	-200.000	-0.024	0.217
-270.340	73.739	0.177	0.185
-269.326	-59.349	-0.150	-0.064
-268.311	144.926	-0.071	0.095
-267.297	-147.224	-0.143	0.012
-266.282	-200.000	0.011	-0.104
-265.267	-116.416	-0.214	-0.039
-264.253	144.989	0.250	0.333
-263.238	10.245	0.074	-0.057
-262.224	64.315	-0.104	-0.105
-261.209	13.751	-0.126	0.098
-260.195	156.211	-0.134	-0.185
-259.180	639.831	-0.017	-0.044
-258.165	165.156	-0.084	-0.119
-257.151	333.251	-0.162	0.312
-256.136	800.000	0.123	0.443
-255.122	208.456	-0.213	0.332
-254.107	213.999	-0.093	0.147
-253.092	-137.062	-0.090	-0.010
-252.078	0.577	0.229	0.163
-251.063	-65.906	-0.161	0.064
-250.049	15.142	-0.063	-0.050
-249.034	163.283	-0.173	-0.243
-248.019	-16.846	-0.057	0.036
-247.005	-133.423	0.260	-0.033
-245.990	-200.000	0.003	-0.216
-244.976	-159.158	-0.164	0.009
-243.961	-200.000	0.105	-0.000
-242.946	245.332	0.226	0.380
-241.932	800.000	0.049	0.195
-240.917	-44.336	0.161	0.081
-239.903	266.742	-0.108	-0.187
-238.888	-110.249	-0.138	-0.029
-237.873	-177.849	0.190	-0.005
-236.859	800.000	0.023	0.078
-235.844	-200.000	-0.003	0.120
-234.830	55.089	-0.061	-0.059
-233.815	13.653	0.194	0.151
-232.800	-200.000	0.000	0.011
-231.786	-200.000	0.052	0.338
-230.771	-153.422	0.244	-0.017
-229.757	-88.966	0.402	-0.119
-228.742	-33.126	0.096	0.053
-227.727	-99.794	-0.200	-0.050
-226.713	191.548	-0.086	-0.130
-225.698	800.000	-0.052	-0.143
-224.684	430.445	0.115	0.247
-223.669	55.265	-0.203	0.196
-222.655	74.984	-0.139	0.146
-221.640	432.447	-0.084	0.182
-220.625	-141.611	-0.095	0.009
-219.611	286.381	-0.128	-0.231
-218.596	707.966	-0.029	0.075
-217.582	118.922	0.159	0.195
-216.567	-62.521	0.084	-0.035
-215.552	-200.000	-0.062	0.324
-214.538	259.265	0.125	0.215
-213.523	-156.121	0.376	0.024
-212.509	100.542	-0.147	0.170
-211.494	634.819	0.010	0.026
-210.479	476.943	-0.099	0.223
-209.465	-64.235	-0.081	0.033
-208.450	-47.089	0.369	-0.179
-207.436	43.664	0.185	-0.168
-206.421	291.656	0.104	0.189
-205.406	206.410	0.169	0.261
-204.392	-130.835	0.560	-0.075
-203.377	-200.000	-0.024	0.133
-202.363	132.006	-0.125	0.160
-201.348	-84.267	0.162	0.051
-200.333	800.000	-0.065	-0.191
-199.319	423.182	0.132	0.283
-198.304	15.986	0.251	0.197
-197.290	-144.920	-0.071	-0.006
-196.275	-75.710	-0.311	0.110
-195.260	-26.126	0.108	-0.063
-194.246	201.646	0.128	-0.197
-193.231	-105.143	-0.200	0.045
-192.217	-200.000	0.005	0.264
-191.202	25.669	-0.099	-0.082
-190.187	-200.000	-0.033	-0.176
-189.173	471.125	-0.038	-0.086
-188.158	79.191	0.094	0.100
-187.144	-200.000	0.034	0.178
-186.129	590.205	0.083	-0.203
-185.114	366.334	0.138	0.278
-184.100	12.097	-0.372	0.285
-183.085	115.371	0.152	-0.185
-182.071	-163.680	0.161	0.008
-181.056	276.332	-0.130	-0.229
-180.042	800.000	-0.096	-0.289
-179.027	68.950	-0.092	-0.094
-178.012	-53.882	-0.121	-0.055
-176.998	-31.749	-0.400	0.223
-175.983	-64.031	0.347	0.141
-174.969	-77.168	0.130	-0.045
-173.954	90.014	0.167	-0.185
-172.939	305.704	0.079	0.147
-171.925	86.236	-0.093	-0.102
-170.910	-102.675	0.410	0.097
-169.896	-26.778	-0.224	0.130
-168.881	-168.254	0.110	0.004
-167.866	-129.854	0.322	-0.044
-166.852	-81.587	0.186	0.061
-165.837	-200.000	0.007	-0.200
-164.823	-200.000	-0.010	0.186
-163.808	76.259	-0.064	0.067
-162.793	153.687	0.205	-0.279
-161.779	69.309	-0.297	-0.304
-160.764	281.584	-0.042	-0.074
-159.750	684.241	0.118	-0.307
-158.735	1.986	0.252	0.181
-157.720	48.226	-0.060	-0.055
-156.706	681.837	0.130	0.337
-155.691	85.121	0.122	-0.133
-154.677	-136.114	0.315	-0.037
-153.662	7.315	0.143	0.106
-152.647	800.000	0.054	0.175
-151.633	800.000	0.083	0.319
-150.618	800.000	0.069	0.299
-149.604	-200.000	-0.008	0.183
-148.589	800.000	0.108	0.334
-147.574	-65.804	-0.398	-0.158
-146.560	671.238	0.080	-0.206
-145.545	-109.318	-0.087	-0.018
-144.531	90.049	-0.100	-0.111
-143.516	-6.678	0.345	-0.233
-142.502	-33.560	0.073	0.040
-141.487	95.188	0.282	0.319
-140.472	800.000	0.047	-0.132
-139.458	-200.000	0.023	-0.167
-138.443	-82.801	0.526	0.169
-137.429	-179.938	0.259	0.005
-136.414	118.248	-0.138	0.168
-135.399	188.383	0.116	-0.172
-134.385	-165.393	-0.192	0.008
-133.370	695.277	-0.034	-0.089
-132.356	501.114	0.072	0.166
-131.341	63.904	0.066	-0.066
-130.326	779.171	0.039	0.106
-129.312	-140.620	-0.153	-0.016
-128.297	48.426	0.227	0.211
-127.283	644.352	-0.054	-0.137
-126.268	800.000	0.026	-0.087
-125.253	780.612	0.075	0.204
-124.239	800.000	-0.154	0.432
-123.224	32.240	-0.037	-0.032
-122.210	19.670	0.211	0.169
-121.195	-90.414	0.188	-0.054
-120.180	-128.143	0.150	0.021
-119.166	98.186	-0.073	0.084
-118.151	-173.185	-0.154	-0.005
-117.137	-29.761	0.210	0.119
-116.122	-79.332	-0.176	-0.059
-115.107	307.989	-0.060	0.112
-114.093	800.000	0.065	0.271
-113.078	-200.000	0.026	0.157
-112.064	5.059	-0.163	0.119
-111.049	101.351	0.192	0.222
-110.034	-85.899	0.112	-0.034
-109.020	-153.223	0.319	-0.022
-108.005	800.000	-0.114	0.462
-106.991	131.705	-0.266	0.339
-105.976	-168.729	0.168	0.006
-104.962	-183.278	0.333	0.006
-103.947	-200.000	0.013	-0.185
-102.932	-39.717	-0.245	0.127
-101.918	-146.585	-0.261	0.022
-100.903	-196.673	0.135	-0.001
-99.889	-33.354	-0.150	0.083
-98.874	800.000	-0.040	0.151
-97.859	679.842	0.041	0.105
-96.845	351.878	0.111	0.218
-95.830	184.990	0.151	0.223
-94.816	-200.000	0.049	0.241
-93.801	61.254	-0.214	-0.211
-92.786	-149.850	-0.159	-0.012
-91.772	-200.000	-0.002	-0.046
-90.757	-92.158	-0.038	-0.011
-89.743	-37.040	0.487	-0.259
-88.728	465.729	-0.063	-0.141
-87.713	-200.000	-0.008	-0.179
-86.699	168.443	0.090	0.127
-85.684	-200.000	0.002	0.229
-84.670	-200.000	-0.005	0.100
-83.655	-200.000	0.011	0.110
-82.640	-97.604	0.137	-0.035
-81.626	-24.539	-0.146	0.086
-80.611	318.614	0.035	0.065
-79.597	800.000	-0.051	0.151
-78.582	172.460	0.019	0.026
-77.567	-120.595	0.352	-0.059
-76.553	24.176	-0.222	0.182
-75.538	-200.000	0.013	0.156
-74.524	52.616	0.080	-0.076
-73.509	-49.838	0.123	-0.058
-72.494	-200.000	-0.052	-0.487
-71.480	348.576	0.027	-0.053
-70.465	10.062	-0.224	0.169
-69.451	-123.980	0.387	-0.060
-68.436	717.754	0.086	0.226
-67.422	-49.404	-0.384	-0.182
-66.407	393.983	0.046	0.094
-65.392	-200.000	-0.048	-0.256
-64.378	106.909	-0.068	-0.080
-63.363	57.369	0.451	-0.436
-62.349	433.469	0.084	0.181
-61.334	51.712	-0.607	-0.572
-60.319	-30.792	0.318	0.178
-59.305	-200.000	-0.058	-0.866
-58.290	161.709	0.547	0.758
-57.276	-200.000	0.378	1.723
-56.261	-200.000	84.595	508.171
-55.246	447.424	1405.287	3061.924
-54.232	141.568	2638.950	3459.992
-53.217	103.489	2380.279	2765.142
-52.203	46.411	1984.304	1821.716
-51.188	40.827	1769.575	1580.269
-50.173	38.187	1723.528	1518.599
-49.159	52.758	1764.714	1669.664
-48.144	56.397	1783.271	1715.761
-47.130	40.887	1743.659	1557.349
-46.115	37.820	1729.493	1520.752
-45.100	37.667	1724.588	1515.181
-44.086	37.727	1721.415	1512.802
-43.071	37.634	1718.962	1509.863
-42.057	37.618	1716.482	1507.505
-41.042	37.758	1714.254	1506.572
-40.027	37.608	1712.577	1503.879
-39.013	37.620	1710.322	1501.927
-37.998	37.530	1709.276	1500.260
-36.984	37.749	1706.920	1499.820
-35.969	37.842	1705.196	1498.957
-34.954	37.847	1704.115	1497.983
-33.940	37.862	1701.941	1496.129
-32.925	37.740	1700.444	1493.823
-31.911	37.812	1698.773	1492.844
-30.896	37.720	1697.286	1490.771
-29.881	37.836	1695.424	1489.967
-28.867	37.817	1693.744	1488.284
-27.852	37.888	1691.814	1487.070
-26.838	37.797	1690.898	1485.511
-25.823	37.859	1688.991	1484.253
-24.809	37.954	1687.424	1483.541
-23.794	37.808	1686.368	1481.440
-22.779	37.840	1684.855	1480.299
-21.765	37.827	1683.198	1478.685
-20.750	37.794	1681.593	1476.964
-19.736	37.847	1679.954	1475.866
-18.721	37.888	1679.053	1475.331
-17.706	37.907	1676.628	1473.284
-16.692	37.793	1675.519	1471.392
-15.677	37.863	1673.945	1470.479
-14.663	37.872	1672.634	1469.334
-13.648	37.839	1671.780	1468.274
-12.633	37.835	1669.985	1466.613
-11.619	37.911	1667.800	1465.206
-10.604	37.876	1666.586	1463.822
-9.590	37.721	1665.596	1461.728
-8.575	37.912	1663.715	1461.451
-7.560	37.816	1662.796	1459.869
-6.546	37.835	1661.693	1458.981
-5.531	37.816	1660.690	1457.904
-4.517	37.741	1659.439	1456.185
-3.502	37.764	1658.098	1455.121
-2.487	37.918	1656.392	1454.718
-1.473	37.956	1645.369	1445.258
-0.458	35.676	1626.008	1411.481
0.556	30.005	1624.590	1372.580
1.571	26.688	1647.712	1367.010
2.586	25.669	1659.865	1369.227
3.600	22.869	1606.065	1304.084
4.615	12.830	1486.928	1138.250
5.629	2.658	1412.797	1014.373
6.644	0.568	1402.402	993.081
7.659	0.298	1401.684	990.710
8.673	0.378	1399.662	989.719
9.688	0.306	1398.409	988.275
10.702	0.123	1395.574	984.982
11.717	4.182	1403.618	1017.249
12.731	13.673	1418.836	1090.906
13.746	18.447	1424.188	1126.380
14.761	17.467	1421.154	1117.446
15.775	16.449	1418.697	1108.743
16.790	15.430	1415.565	1099.522
17.804	14.627	1413.087	1092.253
18.819	14.220	1411.636	1088.370
19.834	13.874	1410.403	1085.066
20.848	13.652	1409.363	1082.716
21.863	13.411	1407.641	1079.725
22.877	13.272	1406.275	1077.678
23.892	13.167	1405.661	1076.428
24.907	13.092	1405.180	1075.473
25.921	13.234	1403.736	1075.199
26.936	13.268	1403.032	1074.782
27.950	13.251	1401.830	1073.661
28.965	13.248	1401.086	1072.972
29.980	13.353	1399.693	1072.493
30.994	13.507	1398.962	1072.839
32.009	13.454	1397.895	1071.580
33.023	13.464	1396.828	1070.733
34.038	13.466	1395.655	1069.751
35.053	13.364	1394.417	1068.052
36.067	13.422	1393.520	1067.639
37.082	13.382	1392.718	1066.673
38.096	13.334	1391.817	1065.578
39.111	13.320	1390.846	1064.656
40.126	13.283	1390.422	1063.998
41.140	13.330	1389.024	1063.132
42.155	13.211	1388.846	1062.139
43.169	13.162	1388.766	1061.670
44.184	13.193	1388.289	1061.412
45.199	13.159	1387.840	1060.754
46.213	13.258	1387.212	1060.815
47.228	13.412	1385.815	1060.639
48.242	13.346	1384.933	1059.446
49.257	13.335	1383.409	1058.117
50.271	13.285	1382.331	1056.879
51.286	13.254	1381.221	1055.743
52.301	13.288	1379.643	1054.660
53.315	13.236	1378.210	1053.138
54.330	13.170	1377.537	1052.109
55.344	13.264	1375.799	1051.290
56.359	13.277	1374.773	1050.495
57.374	13.235	1374.083	1049.604
58.388	13.216	1373.203	1048.724
59.403	13.232	1372.887	1048.486
60.417	13.212	1371.745	1047.398
61.432	13.156	1371.186	1046.520
62.447	13.160	1370.296	1045.776
63.461	13.166	1368.924	1044.674
64.476	13.125	1367.572	1043.289
65.490	13.256	1365.790	1042.666
66.505	13.163	1364.919	1041.324
67.520	13.102	1364.171	1040.278
68.534	13.253	1362.458	1039.827
69.549	13.179	1361.646	1038.649
70.563	13.193	1360.674	1037.903
71.578	13.131	1359.231	1036.322
72.593	13.010	1358.888	1035.213
73.607	13.022	1357.973	1034.496
74.622	13.072	1357.087	1034.044
75.636	13.032	1356.435	1033.209
76.651	13.126	1355.611	1033.075
77.666	13.114	1355.026	1032.465
78.680	13.052	1354.424	1031.526
79.695	13.095	1353.548	1031.032
80.709	13.130	1352.805	1030.594
81.724	13.165	1351.810	1029.962
82.739	13.153	1351.053	1029.221
83.753	13.266	1349.724	1028.823
84.768	13.395	1348.825	1028.845
85.782	13.394	1347.464	1027.711
86.797	13.372	1345.967	1026.346
87.812	13.267	1345.047	1024.899
88.826	13.155	1344.295	1023.542
89.841	13.213	1343.087	1022.894
90.855	13.382	1341.588	1022.706
91.870	13.325	1340.899	1021.734
92.884	13.364	1340.140	1021.310
93.899	13.396	1339.261	1020.747
94.914	13.509	1338.047	1020.426
95.928	13.478	1337.641	1019.837
96.943	13.461	1336.889	1019.068
97.957	13.366	1336.175	1017.847
98.972	13.407	1334.858	1017.006
99.987	13.418	1333.732	1016.128
101.001	13.355	1332.683	1014.849
102.016	13.356	1331.917	1014.181
103.030	13.412	1330.418	1013.293
104.045	13.300	1329.947	1012.165
105.060	13.417	1328.727	1011.856
106.074	13.200	1327.518	1009.524
107.089	13.198	1326.084	1008.331
108.103	13.214	1324.897	1007.436
109.118	13.260	1323.142	1006.295
110.133	13.227	1322.124	1005.231
111.147	13.273	1320.410	1004.118
112.162	13.329	1319.502	1003.678
113.176	13.345	1317.842	1002.424
114.191	13.294	1317.341	1001.643
115.206	13.245	1316.128	1000.336
116.220	13.207	1315.015	999.173
117.235	13.255	1314.194	998.750
118.249	13.179	1313.334	997.548
119.264	13.255	1312.123	997.000
120.279	13.305	1310.134	995.702
121.293	13.338	1309.127	995.048
122.308	13.211	1308.194	993.487
123.322	13.284	1307.084	992.995
124.337	13.235	1306.007	991.796
125.352	13.193	1304.820	990.551
126.366	13.250	1303.762	990.005
127.381	13.274	1302.515	989.112
128.395	13.220	1301.683	988.068
129.410	13.269	1301.048	987.794
130.424	13.283	1299.431	986.564
131.439	13.442	1299.052	987.132
132.454	13.343	1297.514	985.288
133.468	13.364	1296.847	984.823
134.483	13.426	1296.437	984.794
135.497	13.327	1295.377	983.310
136.512	13.326	1294.240	982.353
137.527	13.366	1292.352	981.071
138.541	13.408	1291.393	980.508
139.556	13.375	1289.708	978.942
140.570	13.443	1288.756	978.535
141.585	13.462	1287.508	977.612
142.600	13.434	1286.528	976.621
143.614	13.509	1285.604	976.274
144.629	13.479	1284.780	975.383
145.643	13.462	1283.479	974.210
146.658	13.362	1282.267	972.614
147.673	13.417	1280.872	971.795
148.687	13.449	1279.509	970.863
149.702	13.395	1278.099	969.392
150.716	13.443	1276.805	968.602
151.731	13.353	1275.534	967.030
152.746	13.523	1274.185	966.915
153.760	13.421	1273.157	965.452
154.775	13.380	1271.902	964.175
155.789	13.484	1270.673	963.768
156.804	13.461	1269.820	962.901
157.819	13.474	1268.858	962.158
158.833	13.640	1267.175	961.763
159.848	13.591	1266.644	960.989
160.862	13.596	1265.790	960.284
161.877	13.486	1264.698	958.734
162.892	13.463	1263.601	957.688
163.906	13.472	1262.508	956.823
164.921	13.438	1262.302	956.386
165.935	13.550	1261.086	956.029
166.950	13.531	1260.297	955.236
167.964	13.513	1259.731	954.619
168.979	13.527	1258.767	953.886
169.994	13.440	1258.311	952.956
171.008	13.564	1257.140	952.696
172.023	13.755	1255.774	952.673
173.037	13.674	1255.180	951.670
174.052	13.676	1254.431	951.030
175.067	13.610	1253.598	949.936
176.081	13.590	1252.534	948.936
177.096	13.568	1251.617	948.029
178.110	13.653	1250.609	947.666
179.125	13.641	1249.124	946.388
180.140	13.742	1247.589	945.718
181.154	13.619	1246.674	944.240
182.169	13.678	1245.469	943.579
183.183	13.759	1244.061	942.891
184.198	13.779	1243.191	942.263
185.213	13.770	1241.696	940.997
186.227	13.804	1240.526	940.216
187.242	13.866	1239.380	939.618
188.256	13.858	1238.674	938.953
189.271	13.881	1237.586	938.173
190.286	13.727	1236.644	936.510
191.300	13.666	1235.839	935.470
192.315	13.630	1235.324	934.796
193.329	13.627	1234.404	933.999
194.344	13.657	1233.678	933.540
195.359	13.731	1233.207	933.517
196.373	13.907	1232.066	933.560
197.388	13.838	1231.681	932.794
198.402	13.956	1231.466	933.215
199.417	14.015	1230.629	932.829
200.432	13.950	1229.669	931.650
201.446	13.976	1229.205	931.365
202.461	14.222	1227.660	931.487
203.475	14.047	1226.688	929.692
204.490	13.986	1225.669	928.496
205.504	14.006	1224.241	927.444
206.519	14.006	1223.150	926.533
207.534	13.986	1222.115	925.553
208.548	14.087	1220.823	925.058
209.563	13.978	1220.291	923.965
210.577	14.227	1218.991	924.284
211.592	14.201	1218.270	923.511
212.607	14.164	1217.666	922.765
213.621	14.152	1216.682	921.873
214.636	14.139	1215.702	920.974
215.650	14.237	1214.780	920.737
216.665	14.143	1213.906	919.473
217.680	14.237	1213.206	919.382
218.694	14.275	1212.593	919.048
219.709	14.203	1211.683	917.878
220.723	14.212	1210.813	917.186
221.738	14.175	1210.055	916.327
222.753	14.319	1209.352	916.506
223.767	14.363	1208.156	915.764
224.782	14.450	1207.530	915.685
225.796	14.283	1207.331	914.536
226.811	14.433	1206.182	914.407
227.826	14.392	1205.892	913.883
228.840	14.439	1204.632	913.101
229.855	14.416	1203.492	912.032
230.869	14.409	1203.388	911.832
231.884	14.355	1202.745	910.969
232.899	14.432	1201.280	910.202
233.913	14.346	1201.284	909.655
234.928	14.397	1200.236	909.058
235.942	14.347	1199.725	908.318
236.957	14.354	1198.894	907.644
237.972	14.377	1197.898	906.938
238.986	14.295	1197.507	906.114
240.001	14.396	1196.518	905.839
241.015	14.539	1195.207	905.537
242.030	14.437	1194.777	904.580
243.045	14.528	1194.075	904.464
244.059	14.502	1193.023	903.444
245.074	14.576	1192.497	903.368
246.088	14.554	1191.550	902.453
247.103	14.604	1190.392	901.762
248.117	14.565	1189.950	901.138
249.132	14.659	1189.551	901.263
250.147	14.745	1188.803	901.083
251.161	14.802	1187.424	900.266
252.176	14.727	1186.864	899.358
253.190	14.796	1186.384	899.283
254.205	14.849	1186.009	899.203
255.220	14.920	1185.183	898.883
256.234	14.875	1184.419	897.981
257.249	14.794	1184.000	897.150
258.263	14.815	1183.563	896.849
259.278	14.863	1182.849	896.488
260.293	15.022	1181.422	896.175
261.307	14.943	1181.482	895.719
262.322	14.963	1180.775	895.212
263.336	14.896	1180.283	894.402
264.351	14.929	1179.572	893.958
265.366	15.027	1178.578	893.650
266.380	15.119	1177.712	893.407
267.395	15.095	1177.020	892.676
268.409	15.035	1176.363	891.778
269.424	15.007	1176.147	891.386
270.439	14.948	1175.356	890.394
271.453	15.110	1174.415	890.461
272.468	14.974	1173.665	889.094
273.482	14.992	1172.585	888.291
274.497	15.128	1171.980	888.479
275.512	14.976	1171.622	887.321
276.526	15.081	1170.584	887.011
277.541	15.126	1169.799	886.578
278.555	15.170	1169.192	886.273
279.570	15.168	1168.788	885.878
280.585	15.276	1167.877	885.680
281.599	15.288	1166.714	884.782
282.614	15.261	1166.115	884.108
283.628	15.172	1164.733	882.510
284.643	15.257	1163.450	881.907
285.657	15.273	1162.623	881.286
286.672	15.154	1162.034	880.136
287.687	15.280	1161.088	880.007
288.701	15.299	1160.496	879.577
289.716	15.256	1159.470	878.497
290.730	15.249	1159.123	878.122
291.745	15.387	1158.295	878.136
292.760	15.367	1157.411	877.284
293.774	15.441	1156.825	877.152
294.789	15.525	1156.087	876.953
295.803	15.414	1155.907	876.156
296.818	15.406	1155.128	875.449
297.833	15.390	1154.129	874.530
298.847	15.371	1153.333	873.749
299.862	15.506	1152.155	873.482
300.876	15.450	1151.947	872.954
301.891	15.487	1150.922	872.294
302.906	15.483	1150.512	871.887
303.920	15.560	1149.330	871.311
304.935	15.541	1149.012	870.896
305.949	15.691	1148.416	871.143
306.964	15.672	1147.469	870.252
307.979	15.657	1146.703	869.517
308.993	15.594	1146.105	868.660
310.008	15.558	1145.619	868.031
311.022	15.636	1144.815	867.743
312.037	15.675	1143.632	866.971
313.052	15.710	1142.715	866.379
314.066	15.604	1141.803	865.068
315.081	15.639	1140.834	864.437
316.095	15.654	1140.405	864.113
317.110	15.598	1139.595	863.132
318.125	15.636	1139.066	862.851
319.139	15.680	1138.077	862.250
320.154	15.630	1137.367	861.382
321.168	15.764	1136.778	861.547
322.183	15.679	1136.344	860.707
323.197	15.740	1135.384	860.212
324.212	15.704	1135.008	859.669
325.227	15.779	1134.594	859.661
326.241	15.823	1133.538	859.010
327.256	15.793	1132.889	858.290
328.270	15.706	1132.099	857.174
329.285	15.724	1130.916	856.293
330.300	15.756	1129.944	855.644
331.314	15.862	1128.857	855.281
332.329	15.814	1128.069	854.367
333.343	15.766	1127.146	853.351
334.358	15.772	1126.056	852.478
335.373	15.873	1125.438	852.447
336.387	15.996	1124.638	852.388
337.402	15.970	1123.818	851.558
338.416	15.988	1123.265	851.157
339.431	16.039	1122.495	850.755
340.446	16.015	1121.977	850.164
341.460	16.067	1121.395	849.911
342.475	16.076	1120.160	848.944
343.489	16.193	1119.006	848.586
344.504	16.162	1118.080	847.654
345.519	16.137	1117.695	847.161
346.533	16.136	1116.554	846.216
347.548	16.378	1115.814	846.791
348.562	16.212	1115.412	845.582
349.577	16.259	1114.545	845.085
350.592	16.166	1113.630	843.851
351.606	16.074	1113.008	842.846
352.621	16.047	1112.317	842.111
353.635	16.102	1111.627	841.788
354.650	16.189	1110.633	841.394
355.665	16.182	1109.810	840.662
356.679	16.108	1109.275	839.813
357.694	16.321	1108.716	840.378
358.708	16.264	1107.939	839.432
359.723	16.236	1107.364	838.780
360.738	16.354	1106.826	838.886
361.752	16.427	1106.100	838.625
362.767	16.417	1105.153	837.779
363.781	16.340	1104.891	837.126
364.796	16.343	1104.219	836.557
365.810	16.465	1103.673	836.673
366.825	16.431	1103.057	835.966
367.840	16.482	1102.746	835.909
368.854	16.481	1101.965	835.235
369.869	16.550	1101.120	834.865
370.883	16.596	1100.266	834.367
371.898	16.570	1099.277	833.416
372.913	16.567	1098.819	832.983
373.927	16.605	1098.542	832.884
374.942	16.729	1097.783	832.844
375.956	16.762	1097.256	832.534
376.971	16.568	1096.737	831.115
377.986	16.742	1096.051	831.375
379.000	16.587	1095.762	830.322
380.015	16.731	1094.904	830.304
381.029	16.725	1094.346	829.779
382.044	16.735	1093.817	829.351
383.059	16.736	1093.052	828.703
384.073	16.782	1091.953	828.023
385.088	16.877	1090.815	827.551
386.102	16.821	1090.160	826.708
387.117	16.768	1089.308	825.728
388.132	16.751	1088.413	824.891
389.146	16.668	1087.530	823.746
390.161	16.750	1086.625	823.389
391.175	16.811	1086.093	823.208
392.190	16.737	1085.554	822.366
393.205	16.799	1084.954	822.143
394.219	16.953	1083.859	821.987
395.234	16.778	1083.300	820.639
396.248	16.956	1081.563	820.114
397.263	16.922	1080.603	819.149
398.278	16.817	1080.329	818.359
399.292	16.791	1079.630	817.636
400.307	16.798	1078.695	816.887
401.321	16.748	1078.018	816.061
402.336	16.828	1077.711	816.141
403.350	16.834	1076.972	815.539
404.365	16.883	1076.076	815.025
405.380	16.898	1075.548	814.625
406.394	17.024	1074.492	814.356
407.409	17.136	1073.967	814.422
408.423	17.000	1073.324	813.214
409.438	17.139	1072.414	813.116
410.453	17.156	1071.914	812.746
411.467	17.153	1071.305	812.198
412.482	17.093	1070.666	811.353
413.496	17.264	1070.028	811.618
414.511	17.201	1069.095	810.537
415.526	17.205	1069.265	810.613
416.540	17.223	1068.500	810.047
417.555	17.279	1067.575	809.540
418.569	17.415	1067.167	809.808
419.584	17.239	1067.008	808.779
420.599	17.376	1066.236	808.771
421.613	92.839	1309.031	1411.987
422.628	85.824	1344.396	1412.089
