DTS Sentinel unit serial number:	SN413079Multiplexer serial number:	ORYXHardware model number:	OX4-SRSoftware version number:	ORYX F/W v4.00 Oryx Data Collector v3.7.2.0data status	okinstallation	princeton_trtdifferential loss correction	single-endedforward channel	channel 2reverse channel	N/Adate	2019/09/10time	16:49:11forward acquisition time	60.00reverse acquisition time	0.00gamma	496.2192k internal	0.2311k external	0.2311temperature offset calibration	0.9938default loss term (dB/km)	0.3790temperature slope calibration	1.0000multiplexer offset coefficient	1.0000multiplexer slope coefficient	1.0000fibre end	0.00T internal ref (°C)	37.62T ext. ref 1 (°C)	-0.28T ext. ref 2 (°C)	31.89length (m)	temperature (°C)	Stokes	anti-Stokes-747.200	800.000	-0.085	-0.274
-746.185	176.559	-0.109	0.161
-745.171	-55.988	-0.340	0.154
-744.156	800.000	-0.099	0.427
-743.142	222.145	0.098	-0.160
-742.127	800.000	-0.016	0.049
-741.112	-89.952	0.249	-0.074
-740.098	-200.000	-0.009	0.102
-739.083	116.224	-0.081	-0.100
-738.069	337.992	-0.022	0.043
-737.054	800.000	0.049	-0.179
-736.039	33.111	0.214	-0.188
-735.025	249.789	0.008	0.014
-734.010	-175.962	-0.242	-0.007
-732.996	-46.744	-0.333	-0.165
-731.981	496.287	-0.063	-0.146
-730.966	-106.879	-0.089	0.020
-729.952	800.000	0.011	0.031
-728.937	-98.339	-0.110	-0.029
-727.923	-111.104	-0.248	-0.052
-726.908	64.472	-0.087	0.089
-725.894	-8.164	-0.317	0.216
-724.879	-150.250	0.274	0.022
-723.864	-200.000	0.112	-0.000
-722.850	-200.000	0.011	0.069
-721.835	-114.013	0.024	0.005
-720.821	77.471	-0.232	0.251
-719.806	253.448	0.169	-0.293
-718.791	-200.000	0.049	-0.301
-717.777	614.724	-0.122	-0.309
-716.762	800.000	-0.015	-0.056
-715.748	-171.064	0.225	0.008
-714.733	-200.000	-0.014	0.222
-713.718	108.061	0.027	-0.033
-712.704	800.000	-0.074	0.291
-711.689	-166.729	-0.085	0.004
-710.675	-200.000	0.015	-0.370
-709.660	-200.000	0.014	-0.093
-708.645	-200.000	-0.016	0.223
-707.631	-157.756	-0.195	-0.012
-706.616	-200.000	0.010	-0.155
-705.602	79.991	0.240	-0.261
-704.587	-49.866	-0.128	-0.062
-703.572	800.000	-0.061	-0.184
-702.558	-80.976	0.044	-0.015
-701.543	800.000	0.019	0.082
-700.529	-143.519	-0.561	-0.054
-699.514	800.000	-0.016	-0.073
-698.499	800.000	0.067	-0.264
-697.485	-200.000	-0.005	-0.251
-696.470	0.371	-0.078	-0.057
-695.456	-169.611	0.097	-0.004
-694.441	-83.065	0.182	-0.059
-693.426	800.000	-0.014	0.055
-692.412	-59.127	-0.218	-0.095
-691.397	94.706	0.036	0.042
-690.383	63.412	0.106	0.108
-689.368	800.000	0.008	0.033
-688.354	-108.380	0.118	-0.026
-687.339	358.962	-0.129	0.262
-686.324	-30.209	0.110	0.064
-685.310	-200.000	0.057	0.309
-684.295	800.000	0.068	-0.239
-683.281	736.014	0.051	-0.139
-682.266	175.256	0.270	-0.396
-681.251	28.431	0.152	-0.130
-680.237	0.603	0.191	0.138
-679.222	98.469	0.101	0.118
-678.208	177.316	-0.078	0.114
-677.193	-200.000	0.010	0.181
-676.178	85.249	0.071	-0.079
-675.164	-50.440	-0.228	0.109
-674.149	139.505	0.140	0.187
-673.135	-87.344	0.143	0.044
-672.120	-59.561	-0.120	0.052
-671.105	423.957	-0.051	-0.112
-670.091	-108.477	-0.504	0.110
-669.076	800.000	-0.048	-0.141
-668.062	-174.399	0.223	0.007
-667.047	-200.000	0.015	-0.084
-666.032	-16.540	0.254	0.163
-665.018	157.098	0.141	0.198
-664.003	43.246	0.192	-0.177
-662.989	36.961	-0.197	0.176
-661.974	49.044	-0.143	-0.136
-660.959	-80.202	-0.094	0.032
-659.945	52.334	-0.128	0.124
-658.930	800.000	0.074	0.245
-657.916	134.772	-0.209	-0.274
-656.901	-200.000	-0.017	0.181
-655.886	659.098	-0.054	-0.139
-654.872	-86.686	-0.173	0.054
-653.857	-200.000	-0.037	-0.177
-652.843	-1.425	0.082	0.059
-651.828	-10.590	-0.066	-0.044
-650.814	-56.403	-0.127	-0.057
-649.799	-120.310	0.192	-0.033
-648.784	30.815	0.105	0.091
-647.770	-114.025	0.130	-0.025
-646.755	286.012	-0.104	-0.190
-645.741	-167.010	-0.374	-0.015
-644.726	-129.928	0.183	0.025
-643.711	664.006	0.060	0.157
-642.697	800.000	0.095	-0.280
-641.682	328.669	0.271	0.525
-640.668	-84.068	-0.149	0.048
-639.653	800.000	-0.024	-0.069
-638.638	-110.763	0.185	-0.039
-637.624	-142.870	0.182	-0.018
-636.609	800.000	0.041	-0.117
-635.595	11.756	-0.029	-0.022
-634.580	-200.000	-0.002	0.090
-633.565	105.318	-0.056	-0.066
-632.551	-160.863	0.190	0.010
-631.536	393.529	-0.153	0.323
-630.522	-164.973	0.217	-0.010
-629.507	-76.975	0.109	-0.038
-628.492	381.014	0.281	0.583
-627.478	5.747	0.127	-0.095
-626.463	91.053	0.066	0.074
-625.449	800.000	0.016	0.069
-624.434	-48.501	0.184	0.089
-623.419	-200.000	0.031	-0.229
-622.405	118.792	-0.203	-0.253
-621.390	-54.708	-0.169	-0.077
-620.376	26.630	-0.176	0.149
-619.361	-65.744	-0.160	0.065
-618.346	-41.324	-0.098	0.051
-617.332	-21.218	-0.087	0.053
-616.317	155.985	0.057	-0.079
-615.303	-144.415	0.354	-0.033
-614.288	13.386	0.069	0.054
-613.273	56.912	-0.249	-0.245
-612.259	711.371	0.098	0.262
-611.244	-46.350	0.199	-0.099
-610.230	697.552	-0.130	0.344
-609.215	-132.715	-0.340	-0.044
-608.201	34.901	0.219	-0.193
-607.186	561.057	-0.054	0.132
-606.171	-200.000	0.000	0.159
-605.157	39.497	0.128	-0.116
-604.142	146.263	-0.279	-0.379
-603.128	-0.729	0.313	-0.224
-602.113	800.000	-0.135	-0.394
-601.098	196.534	0.066	0.102
-600.084	284.936	0.038	0.070
-599.069	800.000	-0.053	-0.193
-598.055	-158.600	0.113	0.007
-597.040	-95.821	-0.340	-0.092
-596.025	-98.455	-0.112	-0.029
-595.011	683.698	0.083	0.218
-593.996	72.660	-0.115	0.121
-592.982	-112.516	-0.032	0.006
-591.967	-200.000	-0.004	-0.087
-590.952	-65.701	-0.428	0.173
-589.938	71.365	-0.318	-0.333
-588.923	410.333	-0.119	0.254
-587.909	-164.014	-0.041	-0.002
-586.894	800.000	0.039	-0.164
-585.879	-123.344	0.087	0.014
-584.865	-200.000	0.046	0.290
-583.850	75.693	0.034	0.036
-582.836	-70.307	-0.070	0.027
-581.821	-120.916	-0.068	0.012
-580.806	-200.000	-0.040	0.235
-579.792	109.034	0.232	0.279
-578.777	-30.635	-0.169	0.097
-577.763	16.500	-0.132	0.105
-576.748	329.592	0.130	-0.252
-575.733	-107.924	-0.115	-0.025
-574.719	-82.758	-0.147	-0.048
-573.704	-107.232	-0.037	-0.008
-572.690	353.810	0.224	-0.448
-571.675	-111.030	0.410	-0.085
-570.661	-0.234	-0.120	0.086
-569.646	68.822	0.156	0.161
-568.631	61.138	0.106	-0.106
-567.617	-27.107	0.465	0.273
-566.602	205.472	0.183	0.287
-565.588	60.887	-0.222	-0.222
-564.573	-200.000	0.013	0.354
-563.558	-40.741	0.106	-0.055
-562.544	800.000	0.025	0.098
-561.529	-200.000	0.010	-0.217
-560.515	9.688	-0.381	-0.291
-559.500	-8.733	-0.240	-0.162
-558.485	-88.295	-0.286	0.086
-557.471	-95.389	-0.241	0.065
-556.456	4.241	-0.392	-0.289
-555.442	465.734	0.111	-0.250
-554.427	800.000	-0.133	-0.415
-553.412	-200.000	-0.015	0.269
-552.398	-58.274	0.024	-0.011
-551.383	514.582	-0.180	0.423
-550.369	179.905	-0.158	-0.233
-549.354	-70.022	-0.366	-0.140
-548.339	258.127	0.125	-0.216
-547.325	-200.000	0.003	0.070
-546.310	-200.000	0.021	0.173
-545.296	-1.451	0.250	0.178
-544.281	59.010	-0.091	-0.090
-543.266	10.254	0.123	0.094
-542.252	-57.129	0.040	-0.018
-541.237	207.326	0.060	-0.094
-540.223	126.774	-0.129	0.165
-539.208	-16.456	0.134	-0.086
-538.193	259.928	-0.105	-0.183
-537.179	-200.000	-0.002	-0.392
-536.164	-200.000	0.016	-0.253
-535.150	325.365	0.182	-0.351
-534.135	-66.020	0.101	0.041
-533.121	-41.284	-0.176	-0.091
-532.106	-86.043	0.215	-0.067
-531.091	140.644	0.092	-0.123
-530.077	202.913	-0.056	-0.088
-529.062	800.000	-0.049	0.154
-528.048	-26.760	0.056	0.033
-527.033	800.000	0.067	-0.187
-526.018	94.678	-0.104	0.119
-525.004	97.549	-0.099	0.114
-523.989	-148.542	0.116	-0.010
-522.975	800.000	0.116	-0.474
-521.960	-56.390	0.279	0.125
-520.945	-200.000	0.031	-0.172
-519.931	-75.395	0.198	0.071
-518.916	-17.405	0.281	-0.178
-517.902	-200.000	-0.048	-0.283
-516.887	135.392	-0.170	-0.223
-515.872	366.496	-0.169	-0.343
-514.858	-130.136	0.545	0.075
-513.843	301.088	-0.176	-0.327
-512.829	446.420	0.048	0.105
-511.814	-8.709	-0.184	-0.124
-510.799	-85.181	0.260	-0.082
-509.785	172.273	-0.155	-0.224
-508.770	115.536	0.037	0.045
-507.756	-69.636	-0.180	-0.069
-506.741	65.148	0.116	0.118
-505.726	-156.971	0.251	-0.015
-504.712	21.637	-0.182	0.149
-503.697	-176.506	-0.039	0.001
-502.683	62.386	-0.218	0.219
-501.668	-24.608	0.291	0.174
-500.653	595.452	0.048	0.120
-499.639	-147.767	-0.203	-0.017
-498.624	-200.000	0.039	0.179
-497.610	-115.494	-0.159	0.030
-496.595	-52.430	-0.127	0.059
-495.581	45.192	0.205	-0.190
-494.566	-117.441	-0.549	0.100
-493.551	-200.000	0.039	0.229
-492.537	-114.873	0.218	0.042
-491.522	-73.069	0.084	0.031
-490.508	115.866	-0.082	0.101
-489.493	-200.000	-0.061	-0.322
-488.478	800.000	0.027	-0.104
-487.464	630.509	0.151	0.383
-486.449	58.047	-0.368	0.362
-485.435	-200.000	0.017	-0.261
-484.420	-104.065	-0.135	-0.032
-483.405	-200.000	-0.058	0.268
-482.391	-148.145	0.141	0.012
-481.376	-200.000	-0.002	-0.165
-480.362	-200.000	0.027	0.127
-479.347	-188.896	0.205	0.003
-478.332	800.000	0.107	0.411
-477.318	-200.000	0.018	-0.179
-476.303	-200.000	0.050	0.237
-475.289	-113.570	0.244	-0.048
-474.274	-30.932	-0.080	0.045
-473.259	-132.001	-0.157	-0.021
-472.245	800.000	-0.110	0.424
-471.230	-200.000	-0.014	0.198
-470.216	68.621	0.367	0.378
-469.201	9.104	-0.205	-0.155
-468.186	800.000	-0.012	-0.048
-467.172	-6.019	-0.188	0.129
-466.157	1.925	-0.164	-0.119
-465.143	120.133	0.115	-0.144
-464.128	-200.000	0.026	-0.133
-463.113	461.958	0.062	-0.139
-462.099	-21.549	-0.124	-0.076
-461.084	800.000	0.017	-0.066
-460.070	94.510	0.192	0.219
-459.055	-80.176	0.176	-0.059
-458.040	-200.000	-0.007	0.113
-457.026	305.363	-0.102	-0.190
-456.011	71.336	0.099	-0.103
-454.997	-49.441	-0.348	-0.167
-453.982	232.632	0.054	0.089
-452.968	800.000	-0.027	0.089
-451.953	800.000	-0.032	-0.134
-450.938	250.849	-0.050	-0.086
-449.924	-68.994	0.206	0.080
-448.909	393.589	-0.059	0.123
-447.895	111.030	-0.064	0.077
-446.880	1.388	0.160	0.116
-445.865	-127.404	0.142	-0.021
-444.851	-7.737	0.177	0.120
-443.836	-200.000	-0.010	-0.052
-442.822	800.000	-0.053	-0.200
-441.807	-109.618	0.385	-0.081
-440.792	800.000	-0.082	0.279
-439.778	-200.000	-0.065	-0.413
-438.763	487.892	0.079	-0.181
-437.749	-83.552	-0.118	0.038
-436.734	-179.604	-0.359	0.008
-435.719	140.638	0.088	0.117
-434.705	-91.285	0.101	0.029
-433.690	-200.000	0.012	-0.179
-432.676	-63.226	-0.272	-0.112
-431.661	800.000	-0.077	-0.226
-430.646	-200.000	0.030	-0.221
-429.632	-30.317	0.041	0.023
-428.617	-3.706	0.201	-0.140
-427.603	-25.670	-0.307	-0.182
-426.588	-92.529	0.060	0.017
-425.573	1.464	0.148	0.107
-424.559	102.230	0.194	0.227
-423.544	137.439	0.020	-0.026
-422.530	-87.747	-0.212	0.064
-421.515	10.890	-0.113	0.087
-420.500	699.247	-0.082	0.216
-419.486	-200.000	0.023	0.311
-418.471	247.072	-0.060	0.102
-417.457	-120.692	-0.156	-0.026
-416.442	-200.000	0.032	-0.272
-415.428	800.000	-0.053	0.169
-414.413	-200.000	-0.013	0.065
-413.398	-200.000	-0.009	-0.065
-412.384	800.000	0.080	0.251
-411.369	386.607	-0.041	-0.085
-410.355	-75.077	0.343	0.123
-409.340	283.889	0.033	-0.060
-408.325	-171.404	-0.275	0.009
-407.311	231.860	-0.031	-0.051
-406.296	-200.000	0.041	-0.269
-405.282	800.000	-0.013	-0.041
-404.267	65.566	0.082	-0.083
-403.252	198.982	-0.022	-0.034
-402.238	-62.079	-0.066	-0.028
-401.223	-145.053	-0.132	0.012
-400.209	80.511	0.155	0.168
-399.194	-101.025	-0.389	0.096
-398.179	-82.652	0.297	-0.096
-397.165	280.676	0.066	-0.119
-396.150	226.465	0.084	0.136
-395.136	111.256	-0.348	0.420
-394.121	-44.110	-0.151	-0.076
-393.106	800.000	0.040	0.123
-392.092	-161.962	0.085	0.004
-391.077	372.468	0.072	-0.147
-390.063	800.000	0.061	-0.263
-389.048	800.000	0.073	0.239
-388.033	97.695	-0.032	0.036
-387.019	-46.190	0.033	-0.016
-386.004	555.118	-0.204	0.492
-384.990	510.399	-0.091	0.211
-383.975	56.807	0.018	-0.018
-382.960	-70.319	0.059	0.022
-381.946	-96.410	-0.063	-0.017
-380.931	190.027	0.148	-0.222
-379.917	107.162	-0.109	-0.130
-378.902	639.278	0.010	-0.026
-377.888	-164.326	-0.155	0.007
-376.873	35.008	-0.138	-0.121
-375.858	800.000	-0.040	0.165
-374.844	-133.096	0.207	-0.026
-373.829	-87.646	-0.184	-0.056
-372.815	71.523	-0.377	0.392
-371.800	800.000	-0.062	0.174
-370.785	-21.194	0.342	-0.209
-369.771	-200.000	-0.016	-0.290
-368.756	112.382	0.251	0.304
-367.742	-42.822	0.125	-0.064
-366.727	-200.000	0.004	-0.103
-365.712	-17.920	0.164	0.103
-364.698	-90.098	-0.250	0.073
-363.683	241.964	-0.066	0.110
-362.669	-14.862	-0.264	-0.169
-361.654	-102.915	0.059	0.014
-360.639	-200.000	-0.018	-0.130
-359.625	-200.000	0.055	0.267
-358.610	381.725	-0.158	0.325
-357.596	-26.631	0.091	-0.053
-356.581	-122.237	0.337	0.055
-355.566	-63.184	0.177	-0.073
-354.552	800.000	0.086	0.264
-353.537	-62.338	0.142	-0.059
-352.523	-92.040	0.194	-0.055
-351.508	-200.000	-0.020	-0.279
-350.493	582.466	0.048	-0.118
-349.479	-185.734	-0.365	0.005
-348.464	-79.005	-0.263	0.089
-347.450	-200.000	-0.028	-0.236
-346.435	800.000	0.021	-0.077
-345.420	-23.383	-0.218	-0.131
-344.406	-200.000	0.033	-0.404
-343.391	-13.143	0.339	-0.220
-342.377	47.989	0.111	-0.103
-341.362	504.826	-0.058	-0.134
-340.348	-105.326	0.208	-0.047
-339.333	800.000	0.075	-0.265
-338.318	-200.000	-0.024	-0.197
-337.304	-200.000	-0.008	0.243
-336.289	-26.744	0.306	0.179
-335.275	288.912	0.173	0.313
-334.260	-200.000	0.003	0.037
-333.245	-99.670	0.400	-0.100
-332.231	-80.321	0.098	0.033
-331.216	235.842	-0.125	0.206
-330.202	-200.000	-0.050	-0.375
-329.187	176.310	-0.150	-0.218
-328.172	199.193	-0.139	0.213
-327.158	-138.582	-0.195	-0.021
-326.143	-135.675	-0.188	-0.022
-325.129	-19.667	0.386	-0.238
-324.114	355.838	-0.248	-0.493
-323.099	46.165	-0.136	0.126
-322.085	35.992	-0.126	-0.111
-321.070	-131.566	0.193	0.025
-320.056	203.946	-0.132	-0.204
-319.041	800.000	-0.065	-0.195
-318.026	90.476	-0.072	-0.080
-317.012	-200.000	-0.016	-0.096
-315.997	474.866	-0.042	-0.094
-314.983	54.196	-0.075	0.072
-313.968	-127.990	0.253	-0.036
-312.953	211.993	0.229	-0.361
-311.939	-31.133	0.232	-0.131
-310.924	-160.953	0.118	0.006
-309.910	191.087	0.064	-0.096
-308.895	-8.698	0.163	0.109
-307.880	800.000	-0.068	-0.222
-306.866	82.754	-0.103	-0.111
-305.851	-152.218	-0.292	0.021
-304.837	-200.000	-0.040	-0.344
-303.822	800.000	0.027	-0.100
-302.807	85.497	0.124	-0.135
-301.793	148.091	-0.239	0.321
-300.778	-200.000	-0.004	0.033
-299.764	83.334	-0.045	0.049
-298.749	-17.164	-0.078	-0.049
-297.735	58.024	-0.271	-0.264
-296.720	-96.118	0.196	-0.052
-295.705	800.000	-0.084	0.286
-294.691	372.679	0.095	0.193
-293.676	71.457	0.117	0.121
-292.662	-193.923	-0.211	0.002
-291.647	-170.713	0.228	-0.008
-290.632	-164.683	-0.135	0.006
-289.618	9.146	0.224	0.168
-288.603	-53.210	0.393	0.180
-287.589	-30.457	0.039	-0.022
-286.574	-141.538	-0.144	0.015
-285.559	32.044	0.104	-0.089
-284.545	390.614	-0.068	0.140
-283.530	-85.943	0.098	-0.030
-282.516	-200.000	-0.030	0.167
-281.501	94.159	0.097	0.110
-280.486	28.706	0.269	-0.227
-279.472	-55.812	0.091	0.041
-278.457	-172.660	-0.157	-0.005
-277.443	-200.000	0.007	0.158
-276.428	-10.491	0.298	0.196
-275.413	220.861	-0.096	-0.153
-274.399	208.454	-0.139	-0.217
-273.384	-90.870	0.101	0.029
-272.370	800.000	0.161	0.540
-271.355	-87.801	0.339	0.102
-270.340	-200.000	-0.033	0.300
-269.326	-136.745	-0.230	-0.026
-268.311	-168.757	0.311	0.012
-267.297	-159.637	-0.178	0.010
-266.282	-153.522	0.052	-0.004
-265.267	-200.000	-0.010	-0.283
-264.253	-102.532	0.220	0.052
-263.238	-118.704	0.287	-0.050
-262.224	-132.667	0.102	0.013
-261.209	134.833	-0.140	-0.181
-260.195	-152.470	-0.264	-0.019
-259.180	-200.000	-0.031	0.140
-258.165	88.805	0.090	0.100
-257.151	-84.811	-0.333	-0.104
-256.136	-3.065	-0.285	0.198
-255.122	-55.144	0.249	-0.112
-254.107	-127.901	-0.168	-0.024
-253.092	16.524	-0.123	0.096
-252.078	800.000	-0.028	0.095
-251.063	-90.744	-0.222	-0.064
-250.049	-200.000	0.025	0.280
-249.034	-61.377	0.112	-0.047
-248.019	-82.861	0.192	0.062
-247.005	84.749	-0.178	0.194
-245.990	-14.662	-0.348	-0.223
-244.976	-48.503	-0.139	-0.066
-243.961	40.526	0.108	0.097
-242.946	650.703	-0.047	-0.121
-241.932	27.461	-0.212	-0.178
-240.917	-97.011	0.169	-0.044
-239.903	362.900	-0.197	-0.394
-238.888	-11.526	-0.079	0.052
-237.873	733.122	-0.083	-0.221
-236.859	-153.904	-0.221	0.015
-235.844	-200.000	-0.034	0.269
-234.830	98.601	0.033	0.038
-233.815	745.965	-0.083	-0.221
-232.800	-200.000	0.083	0.425
-231.786	800.000	0.090	0.313
-230.771	-78.395	0.318	0.108
-229.757	-200.000	0.074	0.343
-228.742	9.224	-0.182	-0.137
-227.727	90.737	-0.045	-0.050
-226.713	-0.713	-0.144	0.102
-225.698	-200.000	-0.004	0.054
-224.684	-114.501	0.098	0.019
-223.669	6.768	-0.034	0.025
-222.655	-49.098	0.185	-0.088
-221.640	278.087	-0.095	0.168
-220.625	-127.111	0.208	-0.030
-219.611	-200.000	-0.028	0.153
-218.596	-6.041	0.361	-0.245
-217.582	87.834	0.250	-0.275
-216.567	-200.000	-0.058	-0.328
-215.552	16.398	-0.183	0.144
-214.538	-18.861	-0.078	0.048
-213.523	-3.075	0.044	0.030
-212.509	137.143	-0.161	0.209
-211.494	166.156	-0.045	0.063
-210.479	468.174	-0.129	-0.288
-209.465	-169.082	0.209	-0.008
-208.450	138.822	-0.198	-0.259
-207.436	-200.000	-0.023	0.274
-206.421	800.000	-0.166	0.505
-205.406	-200.000	0.057	-0.266
-204.392	-39.352	-0.210	-0.110
-203.377	-200.000	0.009	0.083
-202.363	672.944	0.026	-0.067
-201.348	-100.061	-0.308	-0.076
-200.333	-9.460	-0.160	-0.106
-199.319	178.850	0.126	0.182
-198.304	-181.998	-0.261	0.005
-197.290	121.831	0.060	0.075
-196.275	65.036	0.116	0.116
-195.260	-12.021	-0.332	0.216
-194.246	-96.780	-0.202	-0.053
-193.231	8.455	0.174	-0.130
-192.217	-200.000	-0.017	0.139
-191.202	800.000	0.160	0.446
-190.187	800.000	0.038	-0.130
-189.173	-200.000	0.027	0.365
-188.158	166.777	0.182	0.256
-187.144	800.000	-0.010	-0.032
-186.129	-59.994	-0.245	-0.104
-185.114	-119.150	-0.088	0.015
-184.100	800.000	0.078	0.303
-183.085	-200.000	-0.006	-0.315
-182.071	-200.000	-0.043	0.235
-181.056	-26.979	0.349	0.202
-180.042	-118.840	-0.046	-0.008
-179.027	-176.956	0.185	-0.005
-178.012	-7.516	-0.175	0.118
-176.998	366.490	0.123	0.247
-175.983	-75.186	-0.100	0.036
-174.969	-102.036	0.216	0.052
-173.954	409.166	-0.135	-0.285
-172.939	800.000	0.130	0.488
-171.925	209.289	0.130	-0.202
-170.910	-76.067	-0.423	-0.148
-169.896	-200.000	-0.002	0.127
-168.881	134.559	-0.085	-0.110
-167.866	-140.002	0.128	-0.013
-166.852	68.688	0.206	0.209
-165.837	-9.285	0.092	-0.061
-164.823	-49.476	-0.114	-0.054
-163.808	-15.405	0.267	0.169
-162.793	321.254	-0.018	0.034
-161.779	-200.000	-0.008	-0.396
-160.764	310.017	-0.038	0.071
-159.750	495.603	0.075	-0.171
-158.735	404.056	0.112	0.234
-157.720	-109.888	0.196	0.041
-156.706	-200.000	-0.037	-0.217
-155.691	-134.921	-0.317	-0.038
-154.677	-154.370	-0.087	0.006
-153.662	-200.000	0.024	-0.137
-152.647	-200.000	-0.012	-0.058
-151.633	-200.000	-0.054	0.267
-150.618	-200.000	-0.004	0.038
-149.604	-126.991	0.295	-0.043
-148.589	256.911	0.105	-0.178
-147.574	-14.877	-0.324	-0.206
-146.560	99.501	0.166	-0.191
-145.545	230.293	0.167	-0.271
-144.531	-40.087	0.320	0.165
-143.516	152.898	-0.103	0.140
-142.502	-140.231	-0.181	0.019
-141.487	800.000	0.038	-0.144
-140.472	-6.645	-0.125	-0.084
-139.458	-96.781	0.247	-0.064
-138.443	231.681	-0.092	0.149
-137.429	-200.000	-0.030	-0.423
-136.414	-103.235	0.121	-0.028
-135.399	122.919	-0.397	0.493
-134.385	192.898	0.144	-0.215
-133.370	200.709	-0.124	-0.188
-132.356	-200.000	-0.011	0.162
-131.341	253.677	0.094	-0.158
-130.326	324.841	0.098	0.185
-129.312	-81.142	-0.223	0.073
-128.297	-89.093	0.357	-0.105
-127.283	37.325	0.027	-0.024
-126.268	737.899	0.122	0.324
-125.253	-200.000	0.029	-0.217
-124.239	127.881	-0.117	0.147
-123.224	-38.232	0.197	-0.104
-122.210	-200.000	-0.028	0.124
-121.195	800.000	-0.126	0.368
-120.180	-34.226	-0.261	-0.142
-119.166	-31.814	0.210	0.117
-118.151	511.196	-0.134	0.308
-117.137	-120.041	0.417	0.071
-116.122	-118.994	-0.115	0.020
-115.107	106.411	-0.084	-0.098
-114.093	-200.000	-0.016	0.198
-113.078	223.977	0.246	0.393
-112.064	-74.537	0.248	0.088
-111.049	-30.768	0.428	-0.240
-110.034	-199.109	-0.219	0.001
-109.020	-71.324	0.235	-0.087
-108.005	800.000	0.039	0.116
-106.991	-95.500	-0.130	-0.035
-105.976	137.667	-0.052	-0.067
-104.962	-77.029	0.215	0.074
-103.947	678.792	-0.092	0.237
-102.932	800.000	-0.029	0.098
-101.918	-200.000	-0.073	-0.391
-100.903	59.070	-0.102	0.099
-99.889	-59.525	0.234	0.100
-98.874	163.967	-0.210	-0.293
-97.859	24.842	-0.158	-0.130
-96.845	-200.000	-0.033	0.283
-95.830	163.526	0.118	0.165
-94.816	-200.000	0.014	0.113
-93.801	671.379	0.159	0.407
-92.786	111.615	0.192	0.229
-91.772	-71.847	-0.073	-0.027
-90.757	-142.311	0.083	-0.008
-89.743	-200.000	-0.049	0.225
-88.728	-200.000	-0.008	0.160
-87.713	-51.280	-0.286	0.133
-86.699	152.589	0.218	-0.295
-85.684	-8.465	-0.234	0.156
-84.670	94.461	0.209	-0.235
-83.655	153.475	0.161	-0.218
-82.640	-96.591	0.239	-0.062
-81.626	85.727	0.117	-0.127
-80.611	-127.167	0.115	0.017
-79.597	-93.857	0.336	0.091
-78.582	62.330	0.203	-0.201
-77.567	-14.739	0.231	-0.147
-76.553	-50.206	-0.143	0.067
-75.538	92.779	0.293	-0.327
-74.524	-91.282	-0.169	-0.048
-73.509	-126.691	-0.203	-0.030
-72.494	164.248	0.082	-0.114
-71.480	-113.182	-0.365	-0.071
-70.465	89.201	-0.104	0.115
-69.451	-106.630	-0.354	-0.078
-68.436	-81.516	-0.175	0.057
-67.422	-137.250	0.252	0.028
-66.407	-200.000	-0.042	0.253
-65.392	301.250	-0.071	0.129
-64.378	135.851	0.199	-0.257
-63.363	-69.809	0.046	0.018
-62.349	800.000	0.065	0.266
-61.334	-0.015	-1.331	-0.937
-60.319	-8.130	0.517	0.344
-59.305	-200.000	-0.117	-1.104
-58.290	235.290	0.644	1.050
-57.276	273.735	0.874	1.527
-56.261	-200.000	86.499	506.521
-55.246	553.959	1379.274	3277.838
-54.232	180.461	2639.561	3827.504
-53.217	113.614	2376.729	2852.556
-52.203	46.705	1984.123	1820.740
-51.188	40.818	1767.913	1575.754
-50.173	38.045	1722.021	1513.325
-49.159	53.328	1763.370	1669.698
-48.144	56.890	1781.505	1714.702
-47.130	40.543	1741.660	1549.964
-46.115	37.680	1727.380	1514.960
-45.100	37.457	1722.712	1509.069
-44.086	37.472	1720.241	1506.963
-43.071	37.505	1717.477	1504.736
-42.057	37.465	1714.907	1502.116
-41.042	37.348	1712.924	1499.420
-40.027	37.459	1710.551	1498.134
-39.013	37.461	1708.502	1496.302
-37.998	37.406	1706.951	1494.458
-36.984	37.577	1705.224	1494.201
-35.969	37.617	1703.627	1493.048
-34.954	37.623	1702.140	1491.735
-33.940	37.669	1700.316	1490.428
-32.925	37.628	1698.411	1488.387
-31.911	37.614	1696.878	1486.872
-30.896	37.688	1694.720	1485.492
-29.881	37.647	1693.393	1483.957
-28.867	37.696	1691.555	1482.660
-27.852	37.640	1690.460	1481.211
-26.838	37.650	1688.762	1479.739
-25.823	37.663	1687.406	1478.597
-24.809	37.641	1686.232	1477.343
-23.794	37.688	1684.225	1475.881
-22.779	37.647	1682.800	1474.258
-21.765	37.575	1681.346	1472.385
-20.750	37.597	1679.705	1471.052
-19.736	37.586	1678.293	1469.678
-18.721	37.635	1676.823	1468.701
-17.706	37.603	1675.639	1467.362
-16.692	37.628	1673.490	1465.614
-15.677	37.610	1672.659	1464.694
-14.663	37.667	1670.887	1463.509
-13.648	37.727	1669.282	1462.494
-12.633	37.631	1668.019	1460.612
-11.619	37.704	1665.988	1459.324
-10.604	37.605	1664.990	1457.646
-9.590	37.648	1663.626	1456.716
-8.575	37.661	1661.794	1455.154
-7.560	37.640	1660.504	1453.813
-6.546	37.764	1659.296	1453.618
-5.531	37.673	1658.116	1451.852
-4.517	37.738	1656.971	1451.272
-3.502	37.677	1655.781	1449.717
-2.487	37.668	1654.497	1448.474
-1.473	37.471	1643.070	1436.951
-0.458	34.943	1622.239	1400.204
0.556	28.710	1622.362	1364.967
1.571	26.146	1647.701	1366.776
2.586	25.538	1662.385	1374.192
3.600	22.863	1608.921	1310.063
4.615	12.415	1488.710	1139.968
5.629	2.078	1414.623	1014.709
6.644	-0.069	1404.584	993.235
7.659	-0.258	1403.020	990.794
8.673	-0.425	1402.386	989.158
9.688	-0.386	1400.122	987.729
10.702	-0.614	1397.178	984.069
11.717	2.765	1404.030	1011.102
12.731	11.894	1421.716	1084.447
13.746	16.403	1428.291	1119.302
14.761	15.031	1424.436	1107.113
15.775	14.669	1423.207	1103.664
16.790	14.669	1422.655	1103.142
17.804	14.759	1421.776	1102.957
18.819	14.934	1421.421	1103.737
19.834	14.918	1420.919	1103.142
20.848	14.845	1420.525	1102.257
21.863	14.930	1419.148	1101.650
22.877	14.986	1417.911	1100.961
23.892	14.879	1417.611	1099.929
24.907	14.778	1416.725	1098.483
25.921	14.821	1415.534	1097.741
26.936	14.872	1414.857	1097.454
27.950	14.980	1413.120	1096.718
28.965	14.904	1412.286	1095.477
29.980	14.927	1410.335	1094.013
30.994	14.836	1409.237	1092.470
32.009	14.833	1407.751	1091.204
33.023	14.868	1406.319	1090.224
34.038	14.914	1404.752	1089.214
35.053	14.902	1403.443	1088.022
36.067	14.881	1402.360	1086.950
37.082	14.771	1401.986	1085.853
38.096	14.896	1400.312	1085.272
39.111	14.844	1399.633	1084.313
40.126	14.767	1398.655	1082.958
41.140	14.795	1397.986	1082.523
42.155	14.848	1397.394	1082.318
43.169	14.850	1397.409	1082.241
44.184	14.763	1397.557	1081.701
45.199	14.847	1396.610	1081.415
46.213	14.877	1396.104	1081.117
47.228	14.831	1394.998	1079.874
48.242	14.813	1393.932	1078.834
49.257	14.743	1392.488	1077.171
50.271	14.753	1390.766	1075.804
51.286	14.739	1389.315	1074.499
52.301	14.706	1388.299	1073.404
53.315	14.796	1386.851	1072.767
54.330	14.707	1386.112	1071.532
55.344	14.760	1384.726	1070.707
56.359	14.814	1383.441	1069.960
57.374	14.796	1382.850	1069.294
58.388	14.776	1382.343	1068.682
59.403	14.756	1381.785	1068.030
60.417	14.841	1380.375	1067.389
61.432	14.712	1379.564	1065.843
62.447	14.707	1378.495	1064.888
63.461	14.859	1376.656	1064.344
64.476	14.790	1376.354	1063.577
65.490	14.714	1375.076	1062.007
66.505	14.751	1372.986	1060.538
67.520	14.683	1371.938	1059.204
68.534	14.822	1370.232	1058.671
69.549	14.691	1369.071	1056.854
70.563	14.762	1367.750	1056.189
71.578	14.728	1366.860	1055.190
72.593	14.781	1365.915	1054.707
73.607	14.784	1365.240	1054.106
74.622	14.655	1364.108	1052.330
75.636	14.686	1363.385	1051.871
76.651	14.754	1362.369	1051.421
77.666	14.617	1362.270	1050.394
78.680	14.709	1361.338	1050.157
79.695	14.636	1360.860	1049.241
80.709	14.755	1359.168	1048.586
81.724	14.646	1357.903	1046.836
82.739	14.733	1356.850	1046.474
83.753	14.766	1355.774	1045.764
84.768	14.638	1354.733	1044.063
85.782	14.649	1353.087	1042.773
86.797	14.689	1352.183	1042.231
87.812	14.722	1350.630	1041.153
88.826	14.695	1348.989	1039.626
89.841	14.660	1348.220	1038.725
90.855	14.687	1347.100	1037.932
91.870	14.694	1346.101	1037.120
92.884	14.682	1344.699	1035.873
93.899	14.602	1343.935	1034.696
94.914	14.628	1342.779	1033.875
95.928	14.649	1342.088	1033.383
96.943	14.642	1341.044	1032.443
97.957	14.725	1339.930	1032.009
98.972	14.682	1338.306	1030.400
99.987	14.667	1337.193	1029.358
101.001	14.674	1335.916	1028.325
102.016	14.557	1334.983	1026.800
103.030	14.622	1333.196	1025.733
104.045	14.637	1332.380	1025.103
105.060	14.717	1331.196	1024.592
106.074	14.667	1329.548	1022.931
107.089	14.693	1328.130	1021.906
108.103	14.724	1326.823	1021.000
109.118	14.701	1325.290	1019.587
110.133	14.720	1323.984	1018.610
111.147	14.637	1322.454	1016.838
112.162	14.660	1321.091	1015.841
113.176	14.678	1319.617	1014.726
114.191	14.722	1318.381	1013.956
115.206	14.675	1317.335	1012.774
116.220	14.652	1316.100	1011.593
117.235	14.754	1314.378	1010.799
118.249	14.691	1313.545	1009.691
119.264	14.561	1312.521	1008.027
120.279	14.627	1311.248	1007.358
121.293	14.630	1310.451	1006.675
122.308	14.710	1308.686	1005.709
123.322	14.622	1307.429	1004.128
124.337	14.679	1306.193	1003.432
125.352	14.680	1304.789	1002.268
126.366	14.624	1303.761	1001.059
127.381	14.703	1302.255	1000.286
128.395	14.758	1301.481	999.930
129.410	14.650	1300.414	998.376
130.424	14.719	1298.749	997.424
131.439	14.622	1298.039	996.210
132.454	14.680	1296.573	995.342
133.468	14.577	1295.948	994.161
134.483	14.606	1295.295	993.743
135.497	14.591	1293.969	992.548
136.512	14.557	1292.676	991.269
137.527	14.490	1291.322	989.747
138.541	14.645	1288.903	988.723
139.556	14.640	1287.748	987.719
140.570	14.522	1286.971	986.335
141.585	14.658	1284.973	985.522
142.600	14.597	1283.698	984.098
143.614	14.584	1282.504	983.017
144.629	14.496	1281.500	981.641
145.643	14.536	1280.553	981.066
146.658	14.503	1278.901	979.521
147.673	14.467	1277.600	978.227
148.687	14.534	1276.257	977.501
149.702	14.502	1274.931	976.212
150.716	14.513	1274.242	975.663
151.731	14.519	1272.317	974.142
152.746	14.438	1271.771	973.161
153.760	14.608	1270.097	972.790
154.775	14.406	1268.981	970.668
155.789	14.437	1268.122	970.105
156.804	14.525	1267.273	969.885
157.819	14.343	1266.418	968.088
158.833	14.465	1264.933	967.574
159.848	14.496	1263.918	966.892
160.862	14.491	1262.567	965.743
161.877	14.450	1261.761	964.804
162.892	14.380	1261.093	963.802
163.906	14.490	1259.765	963.339
164.921	14.544	1259.000	962.979
165.935	14.383	1258.218	961.366
166.950	14.518	1257.213	961.291
167.964	14.489	1256.764	960.695
168.979	14.449	1255.798	959.643
169.994	14.471	1255.306	959.308
171.008	14.377	1254.907	958.377
172.023	14.482	1253.781	958.035
173.037	14.471	1252.435	956.860
174.052	14.525	1251.808	956.604
175.067	14.506	1250.832	955.667
176.081	14.497	1249.942	954.852
177.096	14.460	1249.097	953.907
178.110	14.511	1247.738	953.077
179.125	14.435	1247.084	952.061
180.140	14.449	1245.463	950.818
181.154	14.421	1244.355	949.727
182.169	14.404	1243.040	948.542
183.183	14.328	1242.097	947.312
184.198	14.486	1240.657	947.026
185.213	14.495	1239.922	946.432
186.227	14.437	1238.943	945.272
187.242	14.471	1237.600	944.355
188.256	14.402	1236.821	943.284
189.271	14.441	1236.139	942.903
190.286	14.463	1235.336	942.331
191.300	14.458	1234.488	941.574
192.315	14.377	1234.332	940.916
193.329	14.570	1233.374	941.189
194.344	14.482	1232.744	940.128
195.359	14.450	1232.480	939.664
196.373	14.456	1231.783	939.083
197.388	14.391	1231.063	938.085
198.402	14.397	1230.551	937.646
199.417	14.427	1229.789	937.150
200.432	14.343	1229.192	936.141
201.446	14.485	1227.965	935.921
202.461	14.414	1227.266	934.908
203.475	14.434	1226.782	934.565
204.490	14.352	1224.769	932.495
205.504	14.368	1224.082	931.975
206.519	14.463	1223.084	931.668
207.534	14.462	1222.052	930.791
208.548	14.399	1220.669	929.305
209.563	14.379	1219.856	928.494
210.577	14.387	1219.483	928.168
211.592	14.376	1218.524	927.296
212.607	14.422	1217.490	926.683
213.621	14.514	1216.724	926.529
214.636	14.410	1215.922	925.258
215.650	14.332	1214.960	924.015
216.665	14.319	1213.652	922.866
217.680	14.464	1212.718	922.878
218.694	14.549	1211.941	922.672
219.709	14.406	1211.502	921.465
220.723	14.371	1210.963	920.783
221.738	14.289	1210.303	919.747
222.753	14.408	1208.992	919.321
223.767	14.383	1208.417	918.667
224.782	14.385	1207.970	918.259
225.796	14.501	1207.038	918.105
226.811	14.435	1206.562	917.299
227.826	14.365	1205.861	916.303
228.840	14.423	1205.080	915.943
229.855	14.364	1203.994	914.716
230.869	14.415	1203.527	914.556
231.884	14.458	1202.813	914.172
232.899	14.436	1202.261	913.551
233.913	14.397	1201.211	912.459
234.928	14.251	1201.114	911.503
235.942	14.457	1200.008	911.709
236.957	14.460	1199.333	911.133
237.972	14.432	1198.224	910.060
238.986	14.314	1197.827	909.032
240.001	14.381	1197.285	908.904
241.015	14.459	1196.379	908.563
242.030	14.440	1195.049	907.371
243.045	14.489	1194.153	906.877
244.059	14.450	1193.817	906.327
245.074	14.439	1192.926	905.508
246.088	14.455	1192.356	905.084
247.103	14.365	1191.659	903.985
248.117	14.404	1191.134	903.722
249.132	14.526	1189.785	903.279
250.147	14.537	1188.912	902.593
251.161	14.472	1188.353	901.740
252.176	14.472	1187.399	900.936
253.190	14.443	1187.080	900.457
254.205	14.429	1186.177	899.617
255.220	14.492	1185.610	899.448
256.234	14.470	1185.423	899.104
257.249	14.510	1184.212	898.323
258.263	14.449	1183.530	897.397
259.278	14.548	1182.960	897.418
260.293	14.495	1182.252	896.518
261.307	14.439	1182.065	895.995
262.322	14.451	1181.434	895.505
263.336	14.491	1180.345	894.812
264.351	14.421	1179.682	893.857
265.366	14.512	1179.421	894.065
266.380	14.492	1178.226	892.972
267.395	14.444	1178.024	892.485
268.409	14.442	1176.875	891.526
269.424	14.539	1176.453	891.648
270.439	14.476	1176.142	890.993
271.453	14.529	1175.435	890.665
272.468	14.527	1174.307	889.718
273.482	14.540	1173.646	889.209
274.497	14.565	1172.992	888.767
275.512	14.681	1172.419	888.872
276.526	14.637	1172.001	888.244
277.541	14.618	1170.906	887.231
278.555	14.744	1169.660	886.880
279.570	14.701	1169.131	886.170
280.585	14.620	1168.405	885.115
281.599	14.536	1168.163	884.405
282.614	14.732	1166.608	884.190
283.628	14.711	1165.601	883.237
284.643	14.705	1164.640	882.397
285.657	14.783	1163.829	882.115
286.672	14.700	1162.991	880.965
287.687	14.663	1162.154	880.059
288.701	14.747	1161.558	879.969
289.716	14.762	1160.598	879.244
290.730	14.753	1160.257	878.861
291.745	14.757	1159.612	878.316
292.760	14.799	1158.485	877.606
293.774	14.844	1158.296	877.624
294.789	14.886	1157.588	877.229
295.803	14.842	1156.743	876.280
296.818	14.817	1155.993	875.503
297.833	14.900	1155.289	875.329
298.847	14.873	1154.608	874.592
299.862	14.899	1153.820	874.051
300.876	14.921	1153.028	873.489
301.891	14.924	1152.635	873.131
302.906	14.949	1151.553	872.366
303.920	14.991	1151.192	872.236
304.935	14.937	1150.348	871.234
305.949	14.908	1150.166	870.868
306.964	14.938	1149.494	870.441
307.979	14.905	1148.520	869.453
308.993	14.910	1148.285	869.225
310.008	14.947	1147.316	868.609
311.022	15.006	1145.943	867.798
312.037	15.044	1145.147	867.313
313.052	15.123	1144.076	866.836
314.066	14.986	1143.645	865.722
315.081	15.031	1142.916	865.326
316.095	15.069	1142.359	865.026
317.110	15.118	1141.720	864.719
318.125	15.117	1140.573	863.770
319.139	15.075	1140.005	863.047
320.154	15.040	1139.564	862.453
321.168	15.069	1138.947	862.059
322.183	15.079	1138.235	861.497
323.197	15.162	1137.639	861.396
324.212	15.040	1136.996	860.204
325.227	15.084	1136.448	859.941
326.241	15.111	1135.782	859.501
327.256	15.087	1135.206	858.864
328.270	15.207	1134.250	858.679
329.285	15.154	1133.104	857.463
330.300	15.196	1132.146	856.879
331.314	15.223	1131.354	856.341
332.329	15.224	1130.396	855.546
333.343	15.277	1129.318	854.923
334.358	15.287	1128.620	854.373
335.373	15.312	1127.848	853.837
336.387	15.332	1127.121	853.315
337.402	15.268	1126.661	852.566
338.416	15.374	1126.030	852.554
339.431	15.298	1125.595	851.760
340.446	15.455	1124.822	851.895
341.460	15.464	1123.861	851.141
342.475	15.350	1123.199	849.987
343.489	15.305	1122.474	849.133
344.504	15.327	1121.205	848.208
345.519	15.415	1119.958	847.635
346.533	15.508	1119.349	847.569
347.548	15.392	1118.634	846.370
348.562	15.437	1117.708	845.820
349.577	15.365	1117.521	845.239
350.592	15.356	1116.604	844.427
351.606	15.424	1115.814	844.094
352.621	15.466	1115.038	843.645
353.635	15.508	1114.580	843.436
354.650	15.443	1114.166	842.719
355.665	15.474	1112.997	841.919
356.679	15.499	1112.772	841.800
357.694	15.559	1112.026	841.461
358.708	15.474	1111.484	840.550
359.723	15.495	1110.621	839.927
360.738	15.535	1109.453	839.172
361.752	15.566	1109.281	839.122
362.767	15.581	1108.798	838.758
363.781	15.645	1108.068	838.451
364.796	15.583	1107.796	837.857
365.810	15.583	1107.076	837.240
366.825	15.580	1106.397	836.638
367.840	15.679	1105.788	836.599
368.854	15.715	1104.761	835.927
369.869	15.601	1104.433	835.037
370.883	15.684	1103.380	834.576
371.898	15.725	1102.748	834.232
372.913	15.733	1102.356	833.898
373.927	15.638	1101.863	832.983
374.942	15.761	1101.362	833.138
375.956	15.569	1101.521	832.234
376.971	15.698	1100.423	831.967
377.986	15.711	1099.638	831.365
379.000	15.794	1098.940	831.173
380.015	15.794	1098.364	830.666
381.029	15.688	1097.765	829.614
382.044	15.756	1096.894	829.222
383.059	15.675	1096.392	828.368
384.073	15.720	1095.624	827.934
385.088	15.760	1094.373	827.116
386.102	15.858	1093.803	827.090
387.117	15.777	1092.775	825.842
388.132	15.840	1091.894	825.414
389.146	15.816	1091.192	824.694
390.161	15.862	1090.808	824.556
391.175	15.845	1090.072	823.842
392.190	15.809	1089.294	823.006
393.205	15.782	1088.372	822.101
394.219	15.814	1087.582	821.589
395.234	15.924	1086.529	821.260
396.248	15.924	1085.406	820.336
397.263	15.907	1084.523	819.516
398.278	15.883	1084.358	819.202
399.292	16.009	1083.453	819.058
400.307	16.033	1082.816	818.618
401.321	16.042	1082.121	818.063
402.336	16.026	1081.316	817.305
403.350	15.874	1080.947	816.219
404.365	16.142	1079.443	816.309
405.380	16.083	1079.223	815.785
406.394	16.066	1078.174	814.835
407.409	16.009	1077.647	814.092
408.423	16.126	1076.827	813.962
409.438	16.134	1075.936	813.255
410.453	16.086	1075.228	812.420
411.467	16.084	1074.700	811.937
412.482	16.085	1074.129	811.437
413.496	16.081	1073.323	810.738
414.511	16.059	1072.609	810.022
415.526	16.111	1072.433	810.069
416.540	16.116	1072.076	809.749
417.555	16.187	1071.242	809.389
418.569	16.259	1070.533	809.126
419.584	16.187	1070.402	808.614
420.599	16.242	1069.810	808.355
421.613	144.626	1390.996	1780.031
422.628	133.355	1437.790	1780.150
