DTS Sentinel unit serial number:	SN413079Multiplexer serial number:	ORYXHardware model number:	OX4-SRSoftware version number:	ORYX F/W v4.00 Oryx Data Collector v3.7.2.0data status	okinstallation	princeton_trtdifferential loss correction	single-endedforward channel	channel 2reverse channel	N/Adate	2019/09/18time	12:15:35forward acquisition time	60.00reverse acquisition time	0.00gamma	496.2192k internal	0.2325k external	0.2325temperature offset calibration	0.9990default loss term (dB/km)	0.3790temperature slope calibration	1.0000multiplexer offset coefficient	1.0000multiplexer slope coefficient	1.0000fibre end	0.00T internal ref (°C)	31.75T ext. ref 1 (°C)	0.50T ext. ref 2 (°C)	27.81length (m)	temperature (°C)	Stokes	anti-Stokes-747.200	-200.000	0.005	0.139
-746.185	-200.000	0.024	0.106
-745.171	462.523	0.140	-0.316
-744.156	21.598	0.220	0.181
-743.142	-60.245	0.215	-0.093
-742.127	259.850	0.069	0.121
-741.112	-20.100	0.280	0.174
-740.098	-200.000	-0.022	0.381
-739.083	682.592	0.190	-0.499
-738.069	-200.000	-0.001	0.195
-737.054	125.179	0.214	0.272
-736.039	-65.106	-0.374	-0.152
-735.025	144.478	0.219	0.295
-734.010	86.817	-0.212	-0.236
-732.996	-200.000	-0.011	-0.231
-731.981	-85.925	-0.345	0.108
-730.966	-170.649	-0.035	-0.001
-729.952	800.000	-0.065	0.214
-728.937	145.551	0.099	0.134
-727.923	-200.000	-0.026	0.179
-726.908	81.385	0.155	0.169
-725.894	-200.000	-0.086	-0.629
-724.879	111.564	-0.273	-0.332
-723.864	-96.008	0.096	-0.026
-722.850	-136.905	-0.082	0.009
-721.835	-59.793	-0.103	-0.045
-720.821	31.185	-0.105	0.090
-719.806	-37.683	-0.289	0.155
-718.791	189.727	-0.070	-0.106
-717.777	-200.000	0.015	-0.150
-716.762	-48.653	-0.265	-0.129
-715.748	-200.000	0.003	-0.116
-714.733	-200.000	-0.010	-0.128
-713.718	-159.213	-0.127	0.007
-712.704	-200.000	-0.000	-0.166
-711.689	-141.163	0.223	-0.023
-710.675	-70.358	0.209	0.080
-709.660	-36.964	-0.225	-0.122
-708.645	-73.962	-0.117	-0.043
-707.631	-200.000	-0.005	-0.127
-706.616	73.495	0.225	-0.238
-705.602	-200.000	0.054	-0.299
-704.587	-153.174	-0.092	0.006
-703.572	-70.482	-0.449	-0.171
-702.558	225.002	-0.096	-0.157
-701.543	172.240	-0.128	0.186
-700.529	116.813	0.151	0.187
-699.514	-67.819	-0.199	-0.078
-698.499	-147.027	-0.114	-0.010
-697.485	219.602	-0.233	0.376
-696.470	85.157	0.059	0.065
-695.456	101.073	0.057	0.067
-694.441	491.640	-0.073	0.169
-693.426	155.997	-0.357	0.496
-692.412	-130.260	-0.084	0.012
-691.397	-47.841	-0.140	-0.068
-690.383	-37.635	-0.138	-0.074
-689.368	124.640	-0.126	0.159
-688.354	79.422	0.116	-0.125
-687.339	16.136	-0.102	-0.081
-686.324	113.270	-0.280	-0.342
-685.310	-114.903	-0.343	0.066
-684.295	-200.000	0.040	-0.177
-683.281	176.107	-0.185	-0.271
-682.266	-200.000	-0.045	-0.482
-681.251	-165.773	-0.269	-0.012
-680.237	-200.000	-0.043	-0.199
-679.222	-25.626	-0.116	0.069
-678.208	-116.422	-0.357	0.066
-677.193	-200.000	-0.019	-0.088
-676.178	-54.355	-0.222	-0.101
-675.164	16.366	0.209	-0.166
-674.149	60.086	0.212	-0.211
-673.135	84.006	0.123	0.136
-672.120	-200.000	0.005	0.091
-671.105	-86.556	0.249	-0.077
-670.091	193.579	0.374	-0.569
-669.076	-94.099	0.260	-0.072
-668.062	-45.125	0.185	-0.092
-667.047	-45.535	-0.136	-0.068
-666.032	561.084	0.142	-0.345
-665.018	502.277	0.114	0.266
-664.003	-11.682	-0.068	0.045
-662.989	-119.918	-0.439	0.076
-661.974	92.565	0.199	0.226
-660.959	-200.000	-0.021	-0.097
-659.945	-116.908	-0.191	0.035
-658.930	-30.398	-0.259	-0.148
-657.916	-57.410	-0.250	-0.110
-656.901	50.424	0.198	-0.188
-655.886	160.212	0.104	0.146
-654.872	-17.729	-0.180	-0.113
-653.857	-109.844	0.134	0.028
-652.843	-200.000	0.006	-0.399
-651.828	-75.810	0.166	0.059
-650.814	-117.431	-0.312	0.057
-649.799	-200.000	-0.013	-0.185
-648.784	800.000	0.101	-0.323
-647.770	91.448	-0.074	-0.084
-646.755	-200.000	-0.050	0.266
-645.741	197.528	-0.136	-0.209
-644.726	75.679	-0.245	0.260
-643.711	-200.000	0.016	-0.397
-642.697	-200.000	0.015	-0.215
-641.682	15.109	0.063	0.050
-640.668	406.137	0.053	-0.112
-639.653	-165.431	0.290	0.013
-638.638	372.653	-0.047	0.096
-637.624	211.486	-0.032	-0.051
-636.609	-200.000	-0.035	-0.373
-635.595	-105.876	-0.138	-0.031
-634.580	458.890	-0.182	0.406
-633.565	-200.000	0.019	-0.131
-632.551	-59.722	0.411	-0.177
-631.536	56.349	-0.134	-0.131
-630.522	51.391	-0.117	0.111
-629.507	800.000	-0.020	0.062
-628.492	-43.069	0.051	0.026
-627.478	-109.645	0.367	-0.078
-626.463	97.085	0.111	0.128
-625.449	-15.362	0.140	0.090
-624.434	298.742	-0.055	0.102
-623.419	-6.233	-0.147	-0.101
-622.405	12.167	-0.089	-0.069
-621.390	-20.919	-0.165	0.101
-620.376	154.709	0.217	0.299
-619.361	87.503	0.089	0.099
-618.346	41.993	0.200	0.182
-617.332	36.823	0.096	-0.085
-616.317	58.852	0.043	-0.042
-615.303	138.760	-0.057	0.076
-614.288	-61.636	0.235	0.099
-613.273	-200.000	0.042	-0.255
-612.259	69.273	0.028	-0.029
-611.244	723.178	-0.044	-0.118
-610.230	426.569	0.036	0.078
-609.215	-92.172	0.075	0.021
-608.201	-70.134	0.139	-0.053
-607.186	-59.873	-0.210	0.090
-606.171	-200.000	-0.003	-0.124
-605.157	304.117	-0.089	-0.166
-604.142	135.890	0.150	-0.196
-603.128	66.343	0.127	0.130
-602.113	519.600	0.056	-0.132
-601.098	-37.275	-0.345	-0.185
-600.084	-27.317	0.197	-0.115
-599.069	-79.762	-0.266	-0.090
-598.055	-115.675	-0.244	-0.046
-597.040	110.150	-0.204	0.246
-596.025	800.000	-0.055	0.219
-595.011	-23.466	0.180	0.109
-593.996	-99.560	0.146	-0.037
-592.982	527.526	0.158	-0.373
-591.967	-46.318	0.197	0.097
-590.952	-200.000	-0.026	-0.267
-589.938	-200.000	0.013	-0.399
-588.923	17.689	-0.192	0.154
-587.909	83.260	-0.174	0.190
-586.894	179.290	-0.183	0.269
-585.879	-98.017	-0.306	0.079
-584.865	-181.627	0.281	0.005
-583.850	-64.371	0.148	-0.060
-582.836	-38.690	0.141	0.075
-581.821	-17.517	0.356	-0.225
-580.806	-38.076	-0.143	0.076
-579.792	-72.958	0.212	-0.078
-578.777	609.143	-0.093	-0.233
-577.763	800.000	0.019	-0.069
-576.748	-200.000	-0.026	0.132
-575.733	-151.691	-0.373	-0.028
-574.719	800.000	-0.085	-0.370
-573.704	-200.000	0.007	-0.215
-572.690	-75.608	-0.132	-0.047
-571.675	-151.860	-0.138	0.010
-570.661	-122.999	-0.424	-0.068
-569.646	302.703	-0.208	0.386
-568.631	329.024	0.087	0.168
-567.617	-158.903	0.142	-0.008
-566.602	-90.125	-0.241	0.070
-565.588	215.222	-0.268	0.426
-564.573	-90.725	-0.351	0.102
-563.558	-200.000	-0.005	0.037
-562.544	-1.657	-0.062	0.043
-561.529	36.007	-0.195	-0.172
-560.515	293.693	-0.163	0.298
-559.500	-123.998	0.160	-0.025
-558.485	-18.346	0.385	-0.241
-557.471	800.000	0.094	-0.286
-556.456	340.814	0.057	-0.112
-555.442	58.764	-0.150	0.148
-554.427	128.223	-0.256	-0.327
-553.412	113.924	0.135	-0.164
-552.398	-200.000	-0.057	0.256
-551.383	22.058	0.104	0.085
-550.369	-2.330	0.063	0.044
-549.354	-136.635	-0.113	0.013
-548.339	245.479	-0.228	-0.383
-547.325	22.532	0.272	-0.223
-546.310	800.000	0.077	-0.281
-545.296	-66.102	0.116	0.046
-544.281	-200.000	0.056	-0.406
-543.266	-200.000	0.007	-0.241
-542.252	-200.000	0.066	0.346
-541.237	-19.453	-0.509	-0.316
-540.223	-64.981	0.206	0.083
-539.208	33.093	0.072	0.062
-538.193	248.863	-0.156	-0.264
-537.179	800.000	-0.061	0.171
-536.164	-95.368	-0.172	-0.046
-535.150	6.142	0.035	0.026
-534.135	92.820	0.250	-0.283
-533.121	674.848	0.140	-0.364
-532.106	37.561	-0.086	0.076
-531.091	-200.000	-0.056	-0.369
-530.077	68.873	0.109	-0.112
-529.062	-90.270	-0.340	0.099
-528.048	33.422	0.063	0.054
-527.033	175.160	-0.165	0.239
-526.018	86.421	0.083	-0.091
-525.004	-81.013	0.155	-0.051
-523.989	79.551	-0.177	-0.190
-522.975	491.657	-0.131	-0.300
-521.960	800.000	0.014	-0.054
-520.945	800.000	-0.082	0.285
-519.931	-35.864	-0.111	0.060
-518.916	-32.809	0.215	-0.120
-517.902	361.591	0.116	-0.232
-516.887	-54.243	-0.315	-0.143
-515.872	-200.000	-0.052	0.405
-514.858	190.553	0.172	-0.258
-513.843	308.448	0.060	-0.112
-512.829	266.942	0.083	-0.144
-511.814	64.535	0.030	0.030
-510.799	-109.668	0.338	0.071
-509.785	433.910	-0.070	-0.152
-508.770	-26.405	0.334	0.196
-507.756	-66.385	0.249	-0.099
-506.741	-200.000	0.005	-0.064
-505.726	-200.000	-0.089	0.481
-504.712	-114.750	0.093	-0.018
-503.697	7.812	-0.078	0.058
-502.683	123.098	0.074	0.092
-501.668	-108.259	-0.320	0.069
-500.653	-200.000	0.048	0.243
-499.639	-98.711	-0.034	-0.009
-498.624	461.545	0.024	0.054
-497.610	-143.175	0.211	0.020
-496.595	230.321	-0.148	-0.242
-495.581	165.202	0.261	0.368
-494.566	93.785	-0.211	0.239
-493.551	202.473	0.090	-0.139
-492.537	-67.358	-0.340	0.134
-491.522	46.971	-0.362	0.336
-490.508	-171.796	0.311	-0.010
-489.493	-41.879	-0.164	0.084
-488.478	9.503	0.102	0.077
-487.464	24.968	0.322	-0.267
-486.449	-74.794	0.281	0.101
-485.435	434.964	-0.212	0.459
-484.420	13.410	0.169	0.131
-483.405	98.008	0.105	0.121
-482.391	110.482	-0.276	-0.331
-481.376	-200.000	0.011	0.111
-480.362	241.203	-0.100	0.167
-479.347	-200.000	-0.008	-0.050
-478.332	3.598	-0.145	-0.106
-477.318	-200.000	0.051	0.307
-476.303	160.927	-0.067	0.093
-475.289	288.914	0.129	0.233
-474.274	-136.305	-0.546	-0.064
-473.259	1.959	0.168	-0.121
-472.245	75.388	-0.248	0.261
-471.230	-98.014	0.394	0.101
-470.216	800.000	-0.067	-0.191
-469.201	-200.000	-0.018	0.235
-468.186	-154.966	-0.438	-0.029
-467.172	-200.000	-0.008	-0.158
-466.157	277.335	0.189	0.335
-465.143	330.909	-0.012	-0.024
-464.128	288.564	-0.115	0.207
-463.113	63.765	0.187	-0.188
-462.099	347.120	0.206	-0.405
-461.084	-200.000	0.013	-0.330
-460.070	1.045	-0.139	0.099
-459.055	-115.002	0.353	-0.067
-458.040	20.930	-0.081	-0.065
-457.026	-73.746	-0.241	0.088
-456.011	-34.368	0.253	0.138
-454.997	18.151	0.125	0.100
-453.982	235.292	-0.087	0.144
-452.968	-165.579	0.179	-0.008
-451.953	-200.000	0.041	0.217
-450.938	-89.005	0.413	-0.122
-449.924	-19.615	-0.221	0.136
-448.909	-200.000	-0.026	0.176
-447.895	-22.287	0.038	-0.023
-446.880	4.828	-0.269	-0.197
-445.865	-128.356	0.220	0.031
-444.851	22.625	0.200	-0.163
-443.836	77.393	0.169	-0.180
-442.822	301.431	0.209	0.386
-441.807	59.374	-0.195	0.191
-440.792	-120.029	-0.130	0.022
-439.778	251.197	-0.092	-0.157
-438.763	147.281	0.165	0.222
-437.749	-14.700	0.190	0.121
-436.734	46.569	0.124	0.115
-435.719	-82.061	0.280	-0.091
-434.705	25.625	0.105	-0.087
-433.690	767.139	-0.046	0.124
-432.676	216.758	0.110	0.174
-431.661	-90.762	0.277	0.080
-430.646	-200.000	0.003	0.088
-429.632	169.420	0.180	0.256
-428.617	49.130	0.309	0.289
-427.603	18.782	0.024	0.019
-426.588	-169.841	0.117	-0.004
-425.573	270.427	-0.055	-0.096
-424.559	-35.089	0.165	0.089
-423.544	-200.000	0.000	0.145
-422.530	-131.152	0.017	0.002
-421.515	-28.037	-0.285	-0.164
-420.500	-37.067	0.034	0.018
-419.486	422.246	-0.087	0.187
-418.471	-89.853	0.210	-0.061
-417.457	396.954	0.167	0.348
-416.442	-12.843	-0.100	0.065
-415.428	-86.171	0.074	0.023
-414.413	800.000	-0.066	0.222
-413.398	-118.599	-0.202	-0.036
-412.384	69.269	0.031	-0.032
-411.369	513.990	0.044	-0.101
-410.355	-200.000	-0.041	-0.310
-409.340	-43.426	-0.123	0.062
-408.325	-79.541	0.153	0.051
-407.311	-52.254	0.314	0.145
-406.296	70.597	-0.044	0.046
-405.282	-128.958	-0.494	0.069
-404.267	-200.000	-0.035	0.194
-403.252	-174.645	-0.166	-0.005
-402.238	274.196	-0.168	0.296
-401.223	26.530	0.112	-0.093
-400.209	602.816	0.094	0.233
-399.194	-137.747	0.171	-0.019
-398.179	-200.000	0.001	-0.119
-397.165	800.000	0.033	-0.116
-396.150	94.282	0.235	0.266
-395.136	557.456	0.051	0.123
-394.121	-3.330	-0.256	-0.178
-393.106	38.104	0.165	0.146
-392.092	-153.197	0.092	-0.006
-391.077	-200.000	-0.038	-0.226
-390.063	80.642	0.112	0.120
-389.048	157.794	-0.037	0.051
-388.033	-42.023	-0.108	0.055
-387.019	-200.000	-0.059	0.259
-386.004	266.168	0.092	-0.160
-384.990	289.296	0.093	-0.167
-383.975	26.931	-0.151	-0.126
-382.960	245.562	-0.209	-0.350
-381.946	-200.000	0.022	-0.197
-380.931	-200.000	0.009	0.230
-379.917	800.000	-0.049	0.189
-378.902	727.477	-0.140	-0.372
-377.888	-64.274	-0.121	-0.049
-376.873	-113.494	-0.291	0.057
-375.858	-98.578	0.131	-0.033
-374.844	-116.077	-0.360	0.067
-373.829	10.234	-0.203	-0.153
-372.815	-89.993	-0.117	-0.034
-371.800	-12.695	0.063	-0.041
-370.785	-200.000	0.039	-0.340
-369.771	-4.709	-0.032	0.022
-368.756	-75.907	-0.264	-0.093
-367.742	-93.252	0.387	-0.107
-366.727	-179.772	0.122	-0.003
-365.712	-85.843	-0.095	0.029
-364.698	-62.905	0.120	0.049
-363.683	800.000	0.014	0.041
-362.669	-200.000	-0.034	0.253
-361.654	-53.482	-0.139	-0.063
-360.639	-130.355	0.100	0.013
-359.625	-5.300	-0.095	-0.065
-358.610	800.000	-0.052	0.186
-357.596	150.387	0.167	0.225
-356.581	-200.000	0.057	0.418
-355.566	196.839	0.186	-0.282
-354.552	-116.417	0.155	0.028
-353.537	-34.574	0.090	-0.049
-352.523	-200.000	-0.055	0.298
-351.508	252.588	-0.143	-0.242
-350.493	-200.000	0.051	0.520
-349.479	-200.000	0.002	0.082
-348.464	50.271	-0.191	-0.179
-347.450	164.896	0.021	0.029
-346.435	-200.000	-0.001	0.098
-345.420	-200.000	0.003	0.090
-344.406	10.710	0.248	0.188
-343.391	550.924	0.040	0.095
-342.377	-42.072	-0.051	-0.026
-341.362	-74.455	-0.458	0.164
-340.348	589.475	-0.071	-0.173
-339.333	-104.837	0.157	0.036
-338.318	-200.000	0.002	-0.186
-337.304	-58.237	0.207	0.090
-336.289	-197.557	-0.087	-0.001
-335.275	160.350	-0.032	-0.045
-334.260	-0.987	0.196	0.138
-333.245	-200.000	-0.001	0.190
-332.231	-41.251	0.033	0.017
-331.216	240.586	-0.033	-0.055
-330.202	800.000	0.058	-0.250
-329.187	-79.281	0.140	-0.047
-328.172	-91.794	-0.030	0.009
-327.158	-86.923	0.085	-0.026
-326.143	-108.237	-0.101	-0.022
-325.129	115.385	-0.314	0.381
-324.114	0.754	-0.260	-0.184
-323.099	233.728	-0.178	0.291
-322.085	252.307	-0.094	0.158
-321.070	-136.049	-0.258	-0.030
-320.056	-117.111	0.244	0.044
-319.041	208.333	0.073	-0.112
-318.026	-79.497	-0.364	-0.122
-317.012	-200.000	0.007	0.263
-315.997	-68.844	0.166	0.063
-314.983	121.804	0.107	0.132
-313.968	-104.037	-0.071	-0.016
-312.953	-176.710	-0.054	-0.001
-311.939	-41.943	-0.169	-0.086
-310.924	-200.000	-0.020	0.123
-309.910	-133.303	-0.194	0.024
-308.895	-181.331	0.124	-0.002
-307.880	-127.434	-0.178	-0.026
-306.866	166.335	0.183	-0.257
-305.851	-0.568	-0.248	0.175
-304.837	-111.750	-0.105	0.021
-303.822	16.197	-0.159	-0.124
-302.807	556.802	-0.078	-0.187
-301.793	249.153	-0.033	-0.055
-300.778	201.802	0.063	-0.096
-299.764	800.000	-0.081	-0.245
-298.749	-86.641	0.350	-0.106
-297.735	800.000	-0.076	-0.208
-296.720	-129.319	0.160	-0.022
-295.705	-158.811	0.143	0.008
-294.691	501.892	-0.115	-0.263
-293.676	800.000	0.063	0.183
-292.662	-189.009	0.078	-0.001
-291.647	-200.000	0.053	0.258
-290.632	224.582	-0.037	0.059
-289.618	-29.476	-0.063	-0.036
-288.603	-200.000	-0.015	0.309
-287.589	479.584	-0.082	0.183
-286.574	-60.882	-0.213	-0.089
-285.559	-23.433	0.226	0.135
-284.545	-116.230	0.086	-0.016
-283.530	-51.181	-0.207	0.096
-282.516	0.018	-0.189	0.133
-281.501	690.738	0.045	0.118
-280.486	670.772	0.095	-0.244
-279.472	-200.000	-0.027	-0.401
-278.457	-102.077	0.185	0.044
-277.443	18.575	0.154	-0.122
-276.428	800.000	0.049	-0.207
-275.413	503.298	-0.013	-0.030
-274.399	56.041	-0.267	-0.256
-273.384	22.188	0.175	-0.142
-272.370	7.115	0.058	-0.043
-271.355	-117.239	-0.303	-0.055
-270.340	73.053	0.193	0.200
-269.326	-38.577	0.116	0.061
-268.311	-49.669	-0.091	0.043
-267.297	174.395	0.037	0.054
-266.282	-200.000	0.058	0.289
-265.267	260.424	0.126	-0.215
-264.253	23.409	-0.417	-0.340
-263.238	800.000	0.061	-0.194
-262.224	-149.323	0.131	0.010
-261.209	-55.663	-0.077	0.034
-260.195	-174.318	-0.116	-0.003
-259.180	-69.698	-0.094	0.036
-258.165	126.226	-0.088	0.111
-257.151	800.000	0.041	-0.144
-256.136	-163.220	0.181	0.009
-255.122	-63.324	0.390	-0.159
-254.107	-154.278	-0.230	-0.015
-253.092	222.548	0.104	0.166
-252.078	190.503	-0.057	-0.085
-251.063	31.921	-0.174	-0.148
-250.049	-163.512	-0.066	0.003
-249.034	-92.691	-0.259	0.072
-248.019	-144.759	0.076	0.007
-247.005	230.331	0.238	-0.385
-245.990	270.564	-0.170	0.296
-244.976	469.869	0.211	0.470
-243.961	-200.000	0.002	-0.126
-242.946	38.152	0.140	-0.123
-241.932	104.733	-0.067	-0.078
-240.917	112.714	0.108	0.129
-239.903	-105.040	-0.217	-0.049
-238.888	82.572	0.152	0.163
-237.873	-67.136	0.179	0.070
-236.859	-89.595	0.139	0.040
-235.844	-47.415	-0.408	-0.196
-234.830	-200.000	0.027	-0.198
-233.815	-200.000	-0.026	-0.252
-232.800	-26.321	0.077	-0.045
-231.786	-11.961	0.228	0.148
-230.771	278.175	-0.125	0.220
-229.757	242.362	0.048	0.079
-228.742	96.976	-0.234	0.266
-227.727	-200.000	0.022	0.197
-226.713	800.000	0.034	-0.140
-225.698	30.350	0.134	0.113
-224.684	800.000	-0.100	0.338
-223.669	-200.000	-0.013	0.091
-222.655	-42.855	0.219	0.110
-221.640	800.000	0.008	-0.025
-220.625	397.572	0.011	-0.022
-219.611	-200.000	-0.042	0.312
-218.596	-114.665	0.171	0.032
-217.582	12.647	0.234	-0.179
-216.567	144.721	-0.169	0.223
-215.552	231.118	0.100	0.161
-214.538	-104.558	0.319	-0.073
-213.523	465.857	-0.042	-0.092
-212.509	-60.755	-0.252	-0.106
-211.494	214.989	-0.225	0.353
-210.479	275.803	0.063	-0.111
-209.465	15.195	-0.266	-0.206
-208.450	112.155	0.105	0.125
-207.436	-134.542	0.090	-0.011
-206.421	-94.536	-0.234	-0.063
-205.406	-200.000	-0.042	-0.213
-204.392	-200.000	0.039	-0.213
-203.377	47.829	-0.251	0.231
-202.363	800.000	-0.036	-0.103
-201.348	16.224	-0.160	-0.124
-200.333	138.655	0.153	0.199
-199.319	534.868	-0.168	-0.394
-198.304	68.609	0.227	0.230
-197.290	-74.102	0.190	-0.068
-196.275	800.000	-0.052	-0.163
-195.260	-200.000	-0.053	-0.332
-194.246	-200.000	0.018	-0.193
-193.231	50.273	-0.102	0.095
-192.217	573.191	0.073	-0.175
-191.202	-200.000	-0.033	0.186
-190.187	-30.210	-0.381	0.214
-189.173	-84.821	-0.125	-0.039
-188.158	-200.000	0.050	-0.217
-187.144	-200.000	0.040	0.262
-186.129	-90.653	-0.578	0.165
-185.114	-7.177	0.334	0.223
-184.100	-200.000	-0.031	0.326
-183.085	-56.752	-0.132	0.057
-182.071	-145.186	0.150	-0.013
-181.056	332.044	-0.092	0.175
-180.042	-200.000	-0.009	-0.306
-179.027	16.400	0.141	0.110
-178.012	-62.564	0.355	-0.145
-176.998	-110.637	-0.179	-0.037
-175.983	224.496	0.182	-0.290
-174.969	399.387	0.093	-0.192
-173.954	-200.000	-0.005	-0.240
-172.939	-138.274	0.149	-0.016
-171.925	265.069	0.071	0.121
-170.910	800.000	0.142	-0.451
-169.896	-146.381	0.153	-0.013
-168.881	-200.000	0.020	-0.359
-167.866	113.964	-0.084	0.101
-166.852	-124.571	-0.160	-0.025
-165.837	-147.903	0.057	-0.005
-164.823	325.891	0.090	-0.170
-163.808	-1.030	0.219	-0.153
-162.793	-20.503	-0.182	-0.110
-161.779	800.000	0.062	0.185
-160.764	-200.000	-0.010	-0.079
-159.750	-200.000	-0.018	-0.362
-158.735	235.788	0.223	0.363
-157.720	696.527	-0.083	-0.215
-156.706	505.036	0.164	0.375
-155.691	-29.847	0.275	-0.155
-154.677	-90.128	-0.055	0.016
-153.662	57.769	0.221	0.213
-152.647	-2.388	-0.208	-0.143
-151.633	30.189	-0.278	-0.234
-150.618	-117.877	0.133	0.023
-149.604	80.521	0.097	-0.103
-148.589	165.043	-0.167	-0.232
-147.574	-200.000	-0.006	0.165
-146.560	-48.828	-0.028	-0.013
-145.545	-84.367	0.063	-0.020
-144.531	-200.000	0.015	0.174
-143.516	62.189	-0.158	-0.156
-142.502	-4.894	0.158	-0.107
-141.487	324.948	-0.045	-0.085
-140.472	-200.000	-0.023	-0.292
-139.458	-200.000	0.038	0.179
-138.443	34.659	0.070	0.060
-137.429	-200.000	-0.017	0.189
-136.414	-200.000	0.045	0.390
-135.399	-98.030	0.205	-0.052
-134.385	78.421	0.060	-0.063
-133.370	181.540	-0.086	0.125
-132.356	-70.898	0.094	-0.035
-131.341	-200.000	0.024	-0.447
-130.326	143.712	0.131	0.173
-129.312	22.146	-0.178	-0.143
-128.297	-80.809	-0.123	0.040
-127.283	4.145	-0.097	0.070
-126.268	45.089	-0.128	0.117
-125.253	-1.935	-0.196	0.136
-124.239	10.841	0.091	0.069
-123.224	-140.102	-0.219	0.023
-122.210	-36.581	-0.238	0.126
-121.195	-200.000	-0.044	0.384
-120.180	-91.925	0.190	-0.053
-119.166	-121.852	0.223	-0.036
-118.151	644.613	0.177	0.443
-117.137	365.778	-0.127	0.253
-116.122	262.660	-0.094	-0.161
-115.107	800.000	-0.075	-0.257
-114.093	23.942	0.155	0.126
-113.078	-74.716	0.439	-0.155
-112.064	107.685	0.107	-0.126
-111.049	143.921	-0.215	-0.282
-110.034	-152.204	0.420	-0.030
-109.020	226.864	-0.087	0.139
-108.005	-60.687	0.029	-0.012
-106.991	-200.000	0.000	0.252
-105.976	-159.055	-0.411	-0.023
-104.962	-35.086	0.259	0.139
-103.947	-200.000	0.052	0.331
-102.932	-135.189	0.409	-0.048
-101.918	-122.217	0.121	0.019
-100.903	229.043	0.115	0.185
-99.889	-200.000	-0.061	-0.395
-98.874	-200.000	0.004	0.226
-97.859	33.493	-0.334	0.285
-96.845	-100.733	0.235	-0.057
-95.830	-75.885	-0.170	0.059
-94.816	-74.305	-0.316	0.112
-93.801	-90.499	0.427	0.121
-92.786	800.000	-0.044	0.183
-91.772	-143.668	0.066	0.006
-90.757	2.139	-0.153	-0.109
-89.743	568.748	0.101	0.243
-88.728	-23.124	-0.240	-0.142
-87.713	-200.000	0.248	0.000
-86.699	-65.389	0.237	-0.094
-85.684	211.169	0.086	0.134
-84.670	-113.434	-0.252	-0.049
-83.655	738.742	0.080	0.211
-82.640	466.689	0.049	-0.108
-81.626	37.988	-0.128	0.112
-80.611	-122.549	0.053	0.009
-79.597	6.607	-0.106	-0.077
-78.582	195.537	-0.206	-0.307
-77.567	61.117	0.157	0.154
-76.553	695.902	-0.044	0.114
-75.538	121.683	0.197	0.241
-74.524	-200.000	-0.008	0.095
-73.509	-12.711	-0.086	0.055
-72.494	-57.137	0.168	0.073
-71.480	-70.271	-0.139	-0.052
-70.465	272.487	-0.055	-0.095
-69.451	83.086	-0.167	0.179
-68.436	-11.053	-0.145	0.094
-67.422	-38.865	0.239	0.124
-66.407	-81.349	0.148	0.048
-65.392	192.187	-0.152	-0.225
-64.378	267.321	0.091	0.156
-63.363	-200.000	-0.003	0.284
-62.349	80.366	-0.072	0.076
-61.334	2.210	-1.040	-0.738
-60.319	48.419	0.595	0.547
-59.305	-200.000	-0.072	-1.077
-58.290	64.355	0.800	0.792
-57.276	421.886	0.507	1.068
-56.261	-200.000	94.675	574.093
-55.246	521.708	1404.375	3236.901
-54.232	153.967	2607.563	3510.992
-53.217	104.841	2322.017	2688.240
-52.203	41.249	1942.948	1724.757
-51.188	34.959	1731.095	1487.917
-50.173	32.321	1686.905	1429.848
-49.159	49.789	1732.502	1603.302
-48.144	51.144	1748.754	1628.700
-47.130	34.658	1710.702	1467.839
-46.115	31.940	1696.269	1434.644
-45.100	31.728	1691.133	1428.628
-44.086	31.693	1688.696	1426.242
-43.071	31.638	1686.083	1423.559
-42.057	31.671	1683.593	1421.654
-41.042	31.678	1681.803	1420.136
-40.027	31.733	1679.608	1418.647
-39.013	31.613	1678.079	1416.392
-37.998	31.616	1676.049	1414.641
-36.984	31.701	1674.642	1414.038
-35.969	31.757	1673.161	1413.160
-34.954	31.775	1671.516	1411.845
-33.940	31.711	1669.795	1409.859
-32.925	31.740	1668.118	1408.600
-31.911	31.714	1666.681	1407.135
-30.896	31.729	1664.925	1405.709
-29.881	31.765	1662.864	1404.187
-28.867	31.709	1661.325	1402.409
-27.852	31.773	1659.733	1401.492
-26.838	31.810	1657.602	1399.909
-25.823	31.783	1656.503	1398.727
-24.809	31.690	1655.356	1397.010
-23.794	31.741	1654.205	1396.363
-22.779	31.719	1652.358	1394.581
-21.765	31.717	1650.939	1393.316
-20.750	31.783	1648.792	1391.941
-19.736	31.841	1647.852	1391.520
-18.721	31.804	1646.431	1389.989
-17.706	31.779	1644.649	1388.243
-16.692	31.825	1643.161	1387.275
-15.677	31.763	1642.194	1385.942
-14.663	31.744	1640.824	1384.593
-13.648	31.868	1638.886	1383.821
-12.633	31.757	1637.959	1382.159
-11.619	31.743	1636.094	1380.428
-10.604	31.794	1634.419	1379.339
-9.590	31.806	1633.092	1378.254
-8.575	31.804	1631.400	1376.755
-7.560	31.810	1630.468	1375.954
-6.546	31.814	1629.789	1375.359
-5.531	31.757	1629.068	1374.279
-4.517	31.767	1627.315	1372.814
-3.502	31.744	1626.166	1371.626
-2.487	31.772	1624.456	1370.332
-1.473	31.724	1612.792	1360.089
-0.458	29.059	1593.445	1324.575
0.556	23.897	1593.923	1290.984
1.571	21.427	1617.525	1291.764
2.586	20.629	1630.255	1295.871
3.600	18.481	1575.958	1237.111
4.615	10.384	1463.102	1093.954
5.629	2.218	1396.363	991.159
6.644	0.655	1387.555	974.741
7.659	0.481	1386.768	972.978
8.673	0.488	1385.227	971.857
9.688	0.397	1383.782	970.172
10.702	0.233	1380.290	966.589
11.717	3.927	1386.763	994.816
12.731	12.315	1400.052	1058.528
13.746	17.144	1405.603	1093.805
14.761	17.303	1404.192	1093.634
15.775	16.422	1402.566	1086.608
16.790	15.522	1399.494	1078.352
17.804	14.748	1397.312	1071.613
18.819	14.312	1396.327	1067.965
19.834	14.036	1394.525	1064.727
20.848	13.748	1393.530	1062.029
21.863	13.484	1392.521	1059.475
22.877	13.290	1391.028	1057.009
23.892	13.310	1389.989	1056.255
24.907	13.271	1389.035	1055.186
25.921	13.255	1388.334	1054.456
26.936	13.407	1387.358	1054.590
27.950	13.473	1385.937	1053.837
28.965	13.370	1385.050	1052.414
29.980	13.466	1384.758	1052.712
30.994	13.548	1383.734	1052.360
32.009	13.437	1383.140	1051.113
33.023	13.477	1381.764	1050.223
34.038	13.497	1380.240	1049.099
35.053	13.477	1379.262	1048.138
36.067	13.499	1377.883	1047.134
37.082	13.493	1376.768	1046.157
38.096	13.462	1376.462	1045.639
39.111	13.335	1375.598	1044.084
40.126	13.500	1374.230	1043.996
41.140	13.293	1373.601	1042.124
42.155	13.291	1373.014	1041.572
43.169	13.294	1373.467	1041.844
44.184	13.312	1372.745	1041.319
45.199	13.281	1372.427	1040.788
46.213	13.295	1372.052	1040.501
47.228	13.339	1370.813	1039.743
48.242	13.433	1369.745	1039.432
49.257	13.367	1367.992	1037.596
50.271	13.375	1366.552	1036.465
51.286	13.492	1365.173	1036.056
52.301	13.454	1363.719	1034.626
53.315	13.408	1362.769	1033.522
54.330	13.274	1362.350	1032.280
55.344	13.253	1360.967	1031.011
56.359	13.421	1358.909	1030.403
57.374	13.324	1358.451	1029.362
58.388	13.316	1357.997	1028.875
59.403	13.252	1358.136	1028.492
60.417	13.188	1357.131	1027.244
61.432	13.210	1356.006	1026.437
62.447	13.218	1354.655	1025.372
63.461	13.176	1353.561	1024.194
64.476	13.224	1352.601	1023.674
65.490	13.205	1351.235	1022.433
66.505	13.214	1349.870	1021.366
67.520	13.302	1348.109	1020.484
68.534	13.330	1347.373	1020.008
69.549	13.257	1346.451	1018.771
70.563	13.191	1345.211	1017.339
71.578	13.237	1343.992	1016.606
72.593	13.208	1342.910	1015.523
73.607	13.119	1342.262	1014.396
74.622	13.118	1341.707	1013.881
75.636	13.129	1340.634	1013.046
76.651	13.177	1339.861	1012.670
77.666	13.098	1339.673	1011.953
78.680	13.113	1338.946	1011.403
79.695	13.175	1338.443	1011.314
80.709	13.137	1337.318	1010.146
81.724	13.314	1336.192	1010.288
82.739	13.250	1335.711	1009.442
83.753	13.323	1334.433	1008.833
84.768	13.478	1333.042	1008.634
85.782	13.280	1332.212	1006.714
86.797	13.369	1330.481	1005.855
87.812	13.427	1329.110	1005.081
88.826	13.271	1328.324	1003.454
89.841	13.379	1327.130	1003.116
90.855	13.363	1326.190	1002.222
91.870	13.335	1325.464	1001.416
92.884	13.436	1324.387	1001.124
93.899	13.450	1323.617	1000.535
94.914	13.459	1323.044	1000.072
95.928	13.549	1321.732	999.534
96.943	13.458	1321.259	998.535
97.957	13.559	1320.083	998.166
98.972	13.443	1319.228	996.735
99.987	13.443	1318.001	995.719
101.001	13.438	1316.673	994.599
102.016	13.446	1316.255	994.241
103.030	13.521	1314.835	993.533
104.045	13.469	1314.348	992.761
105.060	13.386	1313.287	991.376
106.074	13.320	1311.850	989.810
107.089	13.266	1310.394	988.300
108.103	13.283	1309.176	987.397
109.118	13.316	1308.338	986.874
110.133	13.338	1306.221	985.319
111.147	13.341	1304.977	984.312
112.162	13.262	1304.093	983.089
113.176	13.457	1302.735	983.138
114.191	13.346	1301.879	981.744
115.206	13.439	1300.466	981.145
116.220	13.510	1298.922	980.316
117.235	13.405	1298.322	979.154
118.249	13.429	1297.196	978.357
119.264	13.266	1296.237	976.587
120.279	13.347	1295.118	976.133
121.293	13.402	1294.222	975.698
122.308	13.332	1293.307	974.511
123.322	13.266	1291.986	973.036
124.337	13.200	1291.325	972.065
125.352	13.263	1290.005	971.359
126.366	13.384	1288.639	970.955
127.381	13.321	1287.837	969.895
128.395	13.314	1286.679	968.896
129.410	13.334	1285.660	968.160
130.424	13.414	1285.089	968.113
131.439	13.307	1284.085	966.643
132.454	13.414	1282.880	966.275
133.468	13.476	1281.715	965.676
134.483	13.355	1281.161	964.465
135.497	13.310	1280.169	963.371
136.512	13.369	1278.919	962.688
137.527	13.520	1277.182	962.174
138.541	13.416	1275.645	960.328
139.556	13.389	1274.534	959.247
140.570	13.506	1273.931	959.386
141.585	13.575	1272.210	958.406
142.600	13.544	1271.541	957.640
143.614	13.544	1270.371	956.672
144.629	13.569	1269.066	955.750
145.643	13.504	1267.870	954.388
146.658	13.473	1267.265	953.671
147.673	13.511	1265.247	952.289
148.687	13.413	1264.584	951.140
149.702	13.455	1262.928	950.050
150.716	13.493	1261.727	949.280
151.731	13.603	1260.055	948.568
152.746	13.551	1258.809	947.252
153.760	13.484	1258.204	946.330
154.775	13.610	1256.896	945.983
155.789	13.690	1255.830	945.549
156.804	13.603	1255.026	944.365
157.819	13.619	1253.875	943.508
158.833	13.571	1253.269	942.693
159.848	13.677	1252.058	942.303
160.862	13.681	1251.049	941.486
161.877	13.660	1249.991	940.485
162.892	13.622	1248.883	939.354
163.906	13.673	1248.268	939.097
164.921	13.726	1247.058	938.401
165.935	13.738	1246.223	937.757
166.950	13.654	1245.749	936.843
167.964	13.692	1244.767	936.235
168.979	13.614	1244.176	935.271
169.994	13.598	1243.832	934.837
171.008	13.716	1242.618	934.510
172.023	13.772	1241.516	933.913
173.037	13.871	1240.682	933.761
174.052	13.805	1239.644	932.526
175.067	13.748	1238.666	931.383
176.081	13.730	1237.846	930.584
177.096	13.683	1237.104	929.681
178.110	13.806	1235.888	929.372
179.125	13.726	1234.733	927.977
180.140	13.770	1233.486	927.205
181.154	13.795	1231.824	926.011
182.169	13.877	1230.373	925.294
183.183	13.852	1229.926	924.741
184.198	13.857	1228.860	923.883
185.213	13.867	1227.418	922.770
186.227	13.854	1226.742	922.113
187.242	13.938	1225.456	921.531
188.256	14.021	1224.036	920.841
189.271	13.900	1223.411	919.615
190.286	13.902	1222.279	918.697
191.300	13.836	1221.301	917.517
192.315	13.868	1220.656	917.125
193.329	13.870	1219.845	916.445
194.344	13.790	1219.547	915.699
195.359	13.879	1219.001	915.698
196.373	14.008	1218.123	915.669
197.388	14.013	1217.807	915.382
198.402	13.992	1217.405	914.879
199.417	14.027	1216.219	914.100
200.432	14.179	1215.500	914.317
201.446	14.142	1214.784	913.495
202.461	14.156	1213.973	912.881
203.475	14.224	1213.231	912.615
204.490	14.151	1211.642	910.939
205.504	14.239	1210.077	910.161
206.519	14.198	1209.243	909.227
207.534	14.225	1207.800	908.209
208.548	14.190	1207.162	907.458
209.563	14.125	1206.464	906.498
210.577	14.146	1205.675	905.941
211.592	14.164	1204.781	905.290
212.607	14.250	1203.636	904.816
213.621	14.341	1202.736	904.554
214.636	14.336	1201.949	903.852
215.650	14.273	1201.172	902.850
216.665	14.357	1199.938	902.297
217.680	14.366	1198.966	901.533
218.694	14.497	1198.310	901.669
219.709	14.382	1197.576	900.413
220.723	14.343	1196.785	899.532
221.738	14.330	1196.857	899.432
222.753	14.368	1195.325	898.408
223.767	14.351	1194.565	897.669
224.782	14.540	1193.638	897.909
225.796	14.541	1193.311	897.590
226.811	14.499	1192.601	896.748
227.826	14.444	1192.232	896.098
228.840	14.504	1191.351	895.675
229.855	14.542	1190.229	894.957
230.869	14.501	1189.721	894.276
231.884	14.548	1188.520	893.547
232.899	14.467	1188.002	892.647
233.913	14.449	1187.251	891.904
234.928	14.478	1186.474	891.399
235.942	14.484	1185.356	890.512
236.957	14.537	1184.810	890.303
237.972	14.386	1184.063	888.859
238.986	14.504	1182.992	888.606
240.001	14.529	1182.717	888.453
241.015	14.482	1181.726	887.377
242.030	14.404	1181.208	886.497
243.045	14.635	1180.063	886.785
244.059	14.530	1179.181	885.487
245.074	14.635	1178.218	885.244
246.088	14.649	1177.488	884.694
247.103	14.765	1176.437	884.439
248.117	14.795	1175.655	883.931
249.132	14.740	1175.137	883.174
250.147	14.864	1174.470	883.248
251.161	14.924	1173.541	882.788
252.176	14.888	1173.072	882.166
253.190	14.865	1172.381	881.448
254.205	14.937	1171.817	881.325
255.220	14.962	1171.666	881.264
256.234	14.963	1170.953	880.657
257.249	15.030	1170.004	880.218
258.263	15.036	1169.210	879.573
259.278	15.051	1168.566	879.091
260.293	15.060	1167.762	878.456
261.307	15.043	1167.718	878.256
262.322	15.023	1167.004	877.535
263.336	15.126	1165.866	877.139
264.351	15.186	1165.748	877.288
265.366	15.231	1164.745	876.689
266.380	15.177	1164.325	876.016
267.395	15.174	1163.109	875.006
268.409	15.186	1162.454	874.502
269.424	15.290	1162.150	874.735
270.439	15.179	1161.372	873.493
271.453	15.115	1160.826	872.675
272.468	15.228	1159.448	872.146
273.482	15.121	1158.785	871.015
274.497	15.231	1158.452	871.261
275.512	15.154	1157.935	870.394
276.526	15.200	1156.955	869.820
277.541	15.172	1156.091	868.947
278.555	15.324	1155.419	869.154
279.570	15.279	1154.853	868.419
280.585	15.434	1153.836	868.380
281.599	15.317	1153.157	867.186
282.614	15.346	1152.259	866.584
283.628	15.404	1151.059	865.901
284.643	15.419	1149.948	865.067
285.657	15.418	1149.199	864.424
286.672	15.523	1148.120	864.077
287.687	15.374	1147.350	862.651
288.701	15.439	1146.890	862.564
289.716	15.472	1145.861	861.886
290.730	15.528	1144.750	861.261
291.745	15.565	1144.084	860.872
292.760	15.452	1143.692	859.923
293.774	15.555	1143.384	860.143
294.789	15.625	1142.488	859.751
295.803	15.504	1142.414	858.997
296.818	15.566	1141.361	858.450
297.833	15.574	1140.361	857.660
298.847	15.501	1139.891	856.857
299.862	15.556	1138.697	856.166
300.876	15.594	1138.256	855.954
301.891	15.638	1137.467	855.509
302.906	15.570	1137.088	854.798
303.920	15.735	1136.020	854.761
304.935	15.841	1135.218	854.620
305.949	15.930	1134.450	854.418
306.964	15.753	1134.306	853.335
307.979	15.727	1133.401	852.447
308.993	15.902	1132.269	852.409
310.008	15.829	1131.767	851.584
311.022	15.916	1131.039	851.403
312.037	15.817	1130.232	850.217
313.052	15.835	1128.931	849.253
314.066	15.859	1127.720	848.387
315.081	15.802	1127.027	847.506
316.095	15.804	1126.635	847.146
317.110	15.774	1125.929	846.387
318.125	15.851	1125.260	846.197
319.139	15.831	1124.727	845.625
320.154	15.923	1123.462	845.059
321.168	15.849	1123.042	844.298
322.183	15.880	1122.502	843.971
323.197	15.842	1122.142	843.438
324.212	15.895	1121.203	842.922
325.227	15.933	1120.401	842.431
326.241	15.936	1120.301	842.300
327.256	15.907	1119.393	841.394
328.270	15.836	1118.393	840.214
329.285	15.905	1117.445	839.774
330.300	15.982	1116.240	839.178
331.314	16.044	1115.021	838.496
332.329	16.027	1114.770	838.148
333.343	15.993	1113.623	837.040
334.358	15.999	1112.695	836.302
335.373	16.033	1112.264	836.071
336.387	16.057	1111.453	835.507
337.402	16.129	1110.320	834.939
338.416	16.084	1110.513	834.784
339.431	16.162	1109.565	834.384
340.446	16.102	1109.187	833.730
341.460	16.187	1108.422	833.503
342.475	16.261	1107.005	832.728
343.489	16.325	1105.967	832.190
344.504	16.392	1105.234	831.894
345.519	16.366	1104.351	831.027
346.533	16.296	1104.097	830.417
347.548	16.375	1103.064	829.953
348.562	16.346	1102.313	829.177
349.577	16.286	1101.457	828.165
350.592	16.314	1100.745	827.692
351.606	16.327	1100.185	827.262
352.621	16.370	1099.555	826.924
353.635	16.308	1098.685	825.893
354.650	16.312	1098.244	825.510
355.665	16.464	1097.192	825.387
356.679	16.383	1096.728	824.571
357.694	16.424	1096.141	824.254
358.708	16.414	1095.416	823.590
359.723	16.477	1094.792	823.353
360.738	16.454	1094.293	822.791
361.752	16.461	1093.728	822.330
362.767	16.547	1093.077	822.186
363.781	16.608	1092.198	821.747
364.796	16.606	1091.952	821.479
365.810	16.623	1091.113	820.860
366.825	16.672	1090.318	820.428
367.840	16.620	1090.181	820.000
368.854	16.655	1089.474	819.565
369.869	16.657	1088.875	819.052
370.883	16.681	1087.742	818.243
371.898	16.634	1087.065	817.430
372.913	16.586	1086.429	816.650
373.927	16.772	1086.005	817.158
374.942	16.701	1085.295	816.206
375.956	16.738	1084.878	816.000
376.971	16.794	1084.470	815.890
377.986	16.817	1083.826	815.446
379.000	16.810	1083.164	814.839
380.015	16.870	1082.530	814.583
381.029	16.897	1081.885	814.153
382.044	16.952	1081.061	813.726
383.059	17.020	1080.295	813.400
384.073	16.999	1079.331	812.504
385.088	16.981	1078.406	811.650
386.102	17.024	1077.586	811.164
387.117	17.037	1076.370	810.240
388.132	16.900	1076.122	809.327
389.146	16.851	1075.026	808.197
390.161	16.831	1074.409	807.568
391.175	16.881	1073.794	807.270
392.190	17.048	1072.730	807.196
393.205	17.117	1072.207	807.060
394.219	17.005	1071.842	806.181
395.234	17.071	1070.665	805.538
396.248	17.077	1069.432	804.565
397.263	17.033	1068.578	803.646
398.278	17.044	1067.834	803.066
399.292	17.155	1067.136	802.993
400.307	16.899	1066.657	801.352
401.321	16.997	1065.953	801.217
402.336	17.029	1065.380	800.865
403.350	17.032	1064.582	800.207
404.365	17.149	1064.023	800.269
405.380	17.191	1062.876	799.532
406.394	17.167	1061.988	798.682
407.409	17.134	1061.549	798.127
408.423	17.193	1061.000	797.922
409.438	17.281	1060.229	797.682
410.453	17.389	1059.318	797.432
411.467	17.285	1058.760	796.454
412.482	17.291	1058.392	796.137
413.496	17.422	1057.237	795.810
414.511	17.325	1056.778	794.940
415.526	17.502	1056.202	795.264
416.540	17.593	1055.917	795.402
417.555	17.459	1055.294	794.235
418.569	17.446	1054.850	793.772
419.584	17.529	1054.329	793.696
420.599	17.484	1053.738	792.970
421.613	102.286	1322.073	1462.953
422.628	94.242	1361.124	1463.072
