DTS Sentinel unit serial number:	SN413079Multiplexer serial number:	ORYXHardware model number:	OX4-SRSoftware version number:	ORYX F/W v4.00 Oryx Data Collector v3.7.2.0data status	okinstallation	princeton_trtdifferential loss correction	single-endedforward channel	channel 2reverse channel	N/Adate	2019/09/18time	04:03:34forward acquisition time	60.00reverse acquisition time	0.00gamma	496.2192k internal	0.2348k external	0.2348temperature offset calibration	0.9983default loss term (dB/km)	0.3790temperature slope calibration	1.0000multiplexer offset coefficient	1.0000multiplexer slope coefficient	1.0000fibre end	0.00T internal ref (°C)	23.19T ext. ref 1 (°C)	0.17T ext. ref 2 (°C)	18.05length (m)	temperature (°C)	Stokes	anti-Stokes-747.200	146.267	-0.128	0.171
-746.185	-118.894	0.347	-0.061
-745.171	-89.792	0.295	0.086
-744.156	111.271	-0.285	0.344
-743.142	-188.831	0.234	-0.003
-742.127	182.026	-0.226	0.333
-741.112	26.809	0.258	-0.216
-740.098	119.758	0.209	-0.259
-739.083	-1.436	-0.130	0.092
-738.069	800.000	0.114	0.347
-737.054	800.000	-0.008	0.032
-736.039	-200.000	0.011	-0.093
-735.025	753.927	-0.131	0.355
-734.010	114.450	-0.138	0.167
-732.996	92.024	0.023	-0.026
-731.981	582.095	-0.087	-0.212
-730.966	-141.740	-0.291	0.029
-729.952	16.174	0.062	-0.049
-728.937	800.000	0.054	-0.167
-727.923	-16.638	0.129	0.081
-726.908	800.000	-0.031	-0.112
-725.894	-200.000	-0.051	0.312
-724.879	640.023	0.038	-0.096
-723.864	25.473	0.236	-0.196
-722.850	-16.951	-0.172	-0.108
-721.835	64.443	0.061	-0.061
-720.821	484.044	0.083	-0.189
-719.806	251.569	0.187	0.317
-718.791	800.000	0.068	-0.190
-717.777	-200.000	-0.022	-0.371
-716.762	-62.070	-0.131	-0.055
-715.748	18.555	-0.285	-0.227
-714.733	214.090	-0.149	-0.235
-713.718	-200.000	0.043	-0.293
-712.704	70.111	-0.006	-0.006
-711.689	800.000	-0.061	-0.168
-710.675	259.891	-0.086	-0.148
-709.660	-65.705	-0.135	-0.054
-708.645	-200.000	-0.023	-0.249
-707.631	488.102	-0.050	-0.115
-706.616	88.844	-0.023	-0.026
-705.602	800.000	0.036	0.146
-704.587	147.424	0.187	0.252
-703.572	444.130	-0.085	0.185
-702.558	382.370	-0.178	-0.365
-701.543	-49.066	0.257	-0.123
-700.529	800.000	-0.089	-0.255
-699.514	195.207	0.090	-0.137
-698.499	-200.000	0.269	0.000
-697.485	-137.719	-0.409	0.046
-696.470	46.830	-0.071	0.066
-695.456	-145.038	-0.222	0.020
-694.441	-200.000	0.008	0.172
-693.426	-45.837	-0.366	0.180
-692.412	186.659	-0.149	0.222
-691.397	230.173	-0.276	0.449
-690.383	41.795	-0.327	0.296
-689.368	146.023	-0.324	-0.433
-688.354	-11.889	0.247	0.162
-687.339	-46.452	-0.094	0.046
-686.324	-200.000	-0.038	0.199
-685.310	-0.832	-0.049	0.035
-684.295	86.834	0.053	0.058
-683.281	800.000	0.018	0.067
-682.266	-13.293	-0.159	-0.103
-681.251	800.000	0.097	-0.291
-680.237	437.238	-0.166	-0.360
-679.222	800.000	-0.026	-0.078
-678.208	-175.740	-0.204	0.005
-677.193	-135.542	0.113	-0.013
-676.178	9.879	-0.271	-0.205
-675.164	274.259	-0.139	0.245
-674.149	3.912	0.125	0.091
-673.135	800.000	-0.089	-0.251
-672.120	41.711	0.331	0.299
-671.105	20.998	0.096	0.078
-670.091	157.383	-0.234	-0.323
-669.076	16.348	-0.077	0.060
-668.062	-115.348	-0.261	0.049
-667.047	217.715	-0.117	0.186
-666.032	-143.295	-0.181	0.017
-665.018	98.801	0.185	-0.213
-664.003	-200.000	0.071	0.480
-662.989	-200.000	0.009	0.217
-661.974	800.000	-0.055	0.210
-660.959	-200.000	-0.039	0.327
-659.945	-200.000	0.106	0.468
-658.930	-53.274	0.174	-0.080
-657.916	-55.392	0.324	0.145
-656.901	73.328	0.111	0.115
-655.886	-48.203	0.169	-0.081
-654.872	86.497	0.233	-0.255
-653.857	354.563	-0.062	-0.123
-652.843	800.000	-0.127	0.352
-651.828	800.000	-0.091	0.343
-650.814	327.678	-0.027	0.052
-649.799	-200.000	-0.070	-0.384
-648.784	800.000	0.074	0.264
-647.770	-200.000	-0.040	-0.359
-646.755	-86.185	-0.126	0.039
-645.741	-67.892	-0.134	-0.052
-644.726	-49.992	-0.116	-0.055
-643.711	-6.692	-0.114	-0.077
-642.697	-43.083	0.258	-0.130
-641.682	-25.874	-0.214	-0.125
-640.668	-54.570	-0.114	-0.051
-639.653	-200.000	-0.068	-0.325
-638.638	-29.507	-0.226	-0.129
-637.624	-120.412	0.326	0.055
-636.609	-200.000	0.044	-0.384
-635.595	-200.000	-0.022	-0.097
-634.580	-200.000	0.008	-0.143
-633.565	800.000	0.075	0.297
-632.551	109.997	-0.155	-0.185
-631.536	320.724	0.082	0.156
-630.522	96.149	0.117	0.133
-629.507	41.308	0.274	0.247
-628.492	188.055	0.018	0.026
-627.478	-77.839	-0.143	0.049
-626.463	800.000	-0.090	-0.351
-625.449	-163.180	0.087	-0.004
-624.434	-200.000	0.048	0.315
-623.419	-7.572	-0.248	-0.167
-622.405	-200.000	-0.001	-0.196
-621.390	-200.000	-0.025	-0.160
-620.376	130.175	0.224	0.286
-619.361	-194.229	-0.022	-0.000
-618.346	-200.000	0.007	-0.142
-617.332	102.378	-0.115	0.134
-616.317	800.000	0.063	0.250
-615.303	-200.000	0.031	-0.308
-614.288	231.722	0.087	-0.141
-613.273	288.184	0.099	-0.178
-612.259	-163.372	-0.150	-0.007
-611.244	-90.827	-0.225	-0.064
-610.230	-200.000	0.091	-0.417
-609.215	245.791	-0.214	-0.359
-608.201	-7.728	-0.320	-0.215
-607.186	-200.000	-0.024	0.155
-606.171	40.427	0.153	0.137
-605.157	25.586	0.242	-0.200
-604.142	-132.491	-0.143	0.018
-603.128	-200.000	0.069	-0.419
-602.113	-158.699	0.279	-0.016
-601.098	256.131	-0.139	0.237
-600.084	-99.061	-0.133	-0.033
-599.069	-23.281	-0.305	0.182
-598.055	-104.394	0.297	-0.068
-597.040	-116.356	0.051	-0.009
-596.025	-75.404	-0.193	0.068
-595.011	-138.581	-0.260	0.028
-593.996	-147.821	0.104	-0.009
-592.982	-122.100	0.123	-0.020
-591.967	800.000	0.037	-0.153
-590.952	-104.144	-0.142	0.033
-589.938	112.608	0.153	0.184
-588.923	177.338	-0.278	-0.402
-587.909	800.000	0.083	-0.248
-586.894	-111.369	-0.339	0.069
-585.879	-200.000	-0.025	-0.113
-584.865	-29.900	0.245	-0.139
-583.850	-86.938	-0.106	0.032
-582.836	217.619	-0.117	-0.185
-581.821	173.029	0.105	-0.149
-580.806	-134.970	-0.159	0.019
-579.792	-200.000	-0.097	-0.469
-578.777	800.000	0.131	0.409
-577.763	755.845	-0.089	0.240
-576.748	-88.374	0.248	-0.073
-575.733	215.391	-0.065	-0.102
-574.719	304.967	-0.107	0.198
-573.704	-200.000	0.053	0.408
-572.690	-200.000	-0.003	0.248
-571.675	472.872	0.167	0.373
-570.661	-166.926	-0.273	0.011
-569.646	134.835	0.118	-0.153
-568.631	-79.634	-0.196	0.066
-567.617	245.623	-0.051	-0.086
-566.602	-200.000	-0.006	0.031
-565.588	-146.393	-0.193	-0.017
-564.573	471.044	0.051	-0.115
-563.558	-73.361	0.137	-0.050
-562.544	-20.005	0.076	-0.047
-561.529	90.095	-0.178	-0.198
-560.515	800.000	-0.075	-0.213
-559.500	60.505	-0.110	-0.108
-558.485	800.000	0.112	-0.312
-557.471	-200.000	-0.047	0.300
-556.456	-85.202	-0.215	-0.067
-555.442	-67.336	-0.253	-0.098
-554.427	-32.483	0.129	0.071
-553.412	800.000	-0.009	0.033
-552.398	26.560	0.236	-0.196
-551.383	191.561	-0.134	-0.200
-550.369	34.036	-0.164	0.141
-549.354	-179.524	0.096	-0.002
-548.339	-132.288	-0.196	0.025
-547.325	-63.387	0.472	0.192
-546.310	-113.645	0.248	0.048
-545.296	455.274	-0.064	-0.141
-544.281	-64.523	0.161	0.065
-543.266	242.009	0.054	0.090
-542.252	157.246	-0.179	-0.246
-541.237	-120.315	0.378	-0.064
-540.223	-168.296	0.135	0.005
-539.208	194.965	-0.089	-0.133
-538.193	-58.414	-0.285	0.123
-537.179	-90.571	-0.224	-0.064
-536.164	220.048	-0.246	-0.390
-535.150	104.301	0.068	-0.080
-534.135	800.000	0.056	0.190
-533.121	-11.274	0.180	0.117
-532.106	-72.009	-0.257	-0.094
-531.091	501.603	0.018	-0.042
-530.077	179.890	-0.132	-0.192
-529.062	49.012	0.195	-0.182
-528.048	-13.389	0.176	0.113
-527.033	-200.000	-0.033	-0.327
-526.018	-83.761	0.194	-0.061
-525.004	532.722	-0.125	0.293
-523.989	8.715	-0.081	0.060
-522.975	-34.797	-0.496	0.269
-521.960	247.609	0.165	-0.276
-520.945	-12.402	-0.273	-0.177
-519.931	-177.346	-0.624	0.015
-518.916	158.680	0.029	0.040
-517.902	67.911	0.172	0.174
-516.887	65.555	-0.105	-0.105
-515.872	-95.545	0.152	0.040
-514.858	-200.000	0.002	-0.144
-513.843	52.011	0.274	0.258
-512.829	782.115	-0.029	0.078
-511.814	459.143	-0.155	0.341
-510.799	800.000	-0.032	-0.117
-509.785	-114.387	-0.122	-0.023
-508.770	-49.988	0.172	0.081
-507.756	-160.966	-0.555	0.029
-506.741	-81.723	-0.225	0.073
-505.726	166.550	0.318	-0.446
-504.712	-76.172	0.221	0.077
-503.697	-153.362	-0.188	-0.013
-502.683	-76.769	0.475	0.165
-501.668	303.084	-0.099	0.181
-500.653	-52.826	-0.273	-0.125
-499.639	-105.073	0.212	-0.048
-498.624	399.754	0.065	0.135
-497.610	-81.551	-0.379	0.123
-496.595	100.707	-0.066	-0.076
-495.581	387.234	-0.134	0.274
-494.566	-87.802	0.312	0.093
-493.551	-20.461	-0.113	0.069
-492.537	-200.000	0.002	0.078
-491.522	-200.000	0.018	0.121
-490.508	55.972	-0.178	0.171
-489.493	604.442	-0.069	-0.169
-488.478	-123.226	0.538	-0.085
-487.464	507.798	-0.012	-0.027
-486.449	-62.588	-0.112	-0.046
-485.435	130.056	-0.147	-0.186
-484.420	50.525	-0.232	-0.217
-483.405	-122.120	0.222	-0.036
-482.391	-47.165	0.338	-0.163
-481.376	-101.486	-0.374	-0.090
-480.362	-150.699	0.112	0.008
-479.347	-120.609	-0.157	-0.026
-478.332	168.040	0.178	-0.251
-477.318	-145.290	-0.293	0.026
-476.303	119.192	-0.050	0.062
-475.289	58.030	0.164	0.158
-474.274	-171.416	0.171	-0.006
-473.259	-76.540	-0.249	-0.086
-472.245	-155.852	0.141	-0.009
-471.230	800.000	0.066	0.202
-470.216	487.457	-0.088	0.199
-469.201	-51.241	-0.097	0.045
-468.186	476.209	-0.054	-0.120
-467.172	-114.432	0.296	0.056
-466.157	800.000	0.056	0.211
-465.143	800.000	0.142	-0.416
-464.128	127.743	0.184	-0.231
-463.113	218.558	-0.080	-0.126
-462.099	-5.785	-0.340	0.230
-461.084	-108.788	-0.137	-0.029
-460.070	128.851	0.175	-0.221
-459.055	-85.706	0.129	0.040
-458.040	-177.564	0.209	0.005
-457.026	-200.000	-0.015	0.136
-456.011	133.747	0.065	-0.083
-454.997	-200.000	0.060	0.385
-453.982	-78.131	-0.156	0.053
-452.968	-154.803	-0.229	0.015
-451.953	-84.108	0.305	0.095
-450.938	-166.701	0.275	0.011
-449.924	-200.000	-0.005	0.227
-448.909	800.000	0.028	-0.096
-447.895	-200.000	-0.023	0.186
-446.880	483.274	-0.067	0.150
-445.865	120.201	-0.213	-0.261
-444.851	611.474	0.152	-0.375
-443.836	-24.528	-0.392	0.230
-442.822	774.068	-0.110	0.296
-441.807	-140.653	0.366	-0.037
-440.792	392.994	0.124	0.254
-439.778	356.432	0.087	-0.170
-438.763	-27.480	0.067	0.038
-437.749	414.251	0.077	-0.162
-436.734	-44.683	0.254	0.125
-435.719	-54.521	-0.189	0.085
-434.705	172.313	-0.172	0.245
-433.690	3.428	0.189	0.136
-432.676	45.136	-0.355	0.323
-431.661	-200.000	-0.073	0.349
-430.646	590.986	0.031	0.075
-429.632	86.970	-0.138	0.150
-428.617	-200.000	0.012	0.275
-427.603	-200.000	-0.007	0.172
-426.588	-119.048	0.148	-0.026
-425.573	-58.897	0.093	0.040
-424.559	745.119	0.120	-0.320
-423.544	-200.000	0.059	0.422
-422.530	-68.819	0.494	0.188
-421.515	-20.687	0.125	0.076
-420.500	544.102	0.022	0.052
-419.486	-116.240	-0.199	0.036
-418.471	176.114	0.087	-0.124
-417.457	-200.000	-0.065	-0.388
-416.442	-39.615	0.121	-0.062
-415.428	-199.768	-0.146	0.001
-414.413	-200.000	-0.016	-0.257
-413.398	-75.558	-0.189	0.066
-412.384	305.429	0.181	0.332
-411.369	-200.000	0.001	-0.024
-410.355	100.321	-0.134	-0.153
-409.340	-160.730	-0.096	0.005
-408.325	800.000	-0.121	-0.349
-407.311	-200.000	0.006	0.240
-406.296	108.125	-0.133	0.157
-405.282	-200.000	0.048	-0.271
-404.267	-200.000	-0.011	0.206
-403.252	14.048	-0.012	0.009
-402.238	-200.000	-0.019	-0.241
-401.223	-122.023	-0.272	-0.044
-400.209	-117.316	-0.251	0.045
-399.194	-147.223	-0.334	0.028
-398.179	-200.000	0.005	0.052
-397.165	-44.944	0.233	-0.114
-396.150	-4.429	0.090	-0.061
-395.136	558.745	-0.058	0.138
-394.121	-200.000	-0.054	0.298
-393.106	759.950	0.068	0.181
-392.092	-12.741	0.175	0.112
-391.077	5.180	-0.263	0.191
-390.063	-34.474	0.118	0.064
-389.048	161.057	0.134	0.184
-388.033	800.000	0.082	-0.331
-387.019	-105.230	-0.034	-0.008
-386.004	344.663	-0.103	0.200
-384.990	197.121	-0.147	-0.220
-383.975	-65.100	-0.187	-0.074
-382.960	130.417	-0.126	-0.158
-381.946	4.590	0.087	-0.063
-380.931	-200.000	-0.000	-0.021
-379.917	8.827	0.242	-0.180
-378.902	-200.000	0.039	0.206
-377.888	754.845	-0.001	0.004
-376.873	19.598	-0.174	0.138
-375.858	522.024	-0.081	0.187
-374.844	-50.284	0.312	0.145
-373.829	-200.000	0.001	-0.006
-372.815	-55.722	0.356	-0.157
-371.800	-142.172	0.156	0.015
-370.785	78.694	-0.024	0.025
-369.771	-192.989	-0.215	0.002
-368.756	800.000	0.052	-0.185
-367.742	255.625	-0.061	0.104
-366.727	-17.196	0.113	0.070
-365.712	135.866	-0.187	0.240
-364.698	212.289	-0.212	0.328
-363.683	-61.970	0.208	0.086
-362.669	-60.432	0.299	0.125
-361.654	120.991	0.090	-0.110
-360.639	481.699	0.126	0.282
-359.625	224.952	-0.006	0.009
-358.610	-153.174	0.008	0.001
-357.596	-200.000	-0.045	-0.238
-356.581	-25.260	0.194	0.113
-355.566	65.250	0.080	-0.080
-354.552	-37.677	-0.095	-0.050
-353.537	-61.708	0.503	-0.207
-352.523	83.019	-0.090	0.096
-351.508	800.000	0.012	0.050
-350.493	-200.000	-0.049	-0.300
-349.479	183.513	-0.227	0.331
-348.464	83.097	-0.088	-0.094
-347.450	-116.966	-0.195	-0.035
-346.435	-75.583	-0.304	0.106
-345.420	-200.000	0.060	0.300
-344.406	-43.642	0.286	-0.142
-343.391	-34.396	0.224	0.121
-342.377	158.066	0.075	0.102
-341.362	-200.000	-0.012	-0.233
-340.348	-5.079	-0.179	-0.121
-339.333	506.755	0.121	-0.275
-338.318	-103.251	0.115	0.027
-337.304	-64.302	0.174	0.070
-336.289	83.559	0.085	0.091
-335.275	-200.000	0.000	-0.047
-334.260	51.501	0.184	-0.172
-333.245	4.410	-0.283	-0.204
-332.231	-6.242	-0.173	-0.116
-331.216	-52.754	0.099	0.045
-330.202	-200.000	0.009	0.117
-329.187	-154.283	0.167	0.011
-328.172	7.244	0.252	-0.185
-327.158	-97.329	0.108	-0.028
-326.143	210.458	-0.123	-0.190
-325.129	34.329	-0.127	0.109
-324.114	800.000	0.055	-0.182
-323.099	-200.000	0.004	0.092
-322.085	-93.125	0.186	0.051
-321.070	318.202	0.053	-0.098
-320.056	-200.000	0.040	0.249
-319.041	62.867	-0.135	0.133
-318.026	-160.973	-0.331	-0.017
-317.012	-44.675	-0.431	0.211
-315.997	-200.000	0.025	0.217
-314.983	422.830	0.156	0.329
-313.968	-193.858	-0.286	0.002
-312.953	268.340	0.161	0.277
-311.939	59.731	0.192	-0.186
-310.924	-200.000	0.002	-0.292
-309.910	477.186	-0.028	0.063
-308.895	412.563	-0.151	0.315
-307.880	-200.000	-0.002	-0.239
-306.866	179.285	0.065	0.094
-305.851	-24.585	0.105	-0.061
-304.837	261.912	-0.027	0.045
-303.822	28.406	0.378	-0.314
-302.807	-200.000	-0.011	0.337
-301.793	-200.000	0.117	0.642
-300.778	-123.392	-0.095	-0.015
-299.764	-80.138	0.238	0.078
-298.749	708.697	-0.086	-0.222
-297.735	-200.000	-0.051	-0.341
-296.720	-81.772	-0.199	-0.064
-295.705	-35.273	0.418	-0.223
-294.691	-88.450	0.183	0.054
-293.676	-200.000	0.053	-0.347
-292.662	-107.927	0.537	-0.115
-291.647	-104.291	-0.165	0.038
-290.632	-200.000	-0.028	-0.128
-289.618	34.038	0.156	-0.133
-288.603	11.432	0.166	-0.125
-287.589	-43.342	-0.280	-0.139
-286.574	10.820	0.156	0.117
-285.559	-26.668	-0.203	0.117
-284.545	103.863	0.056	-0.065
-283.530	-148.251	-0.185	0.015
-282.516	7.456	0.114	-0.084
-281.501	-200.000	-0.058	0.539
-280.486	-103.906	0.314	-0.072
-279.472	-200.000	0.013	-0.123
-278.457	-31.286	-0.235	0.130
-277.443	191.212	-0.210	-0.310
-276.428	-200.000	-0.046	0.227
-275.413	-3.932	-0.146	-0.100
-274.399	-116.343	0.231	0.042
-273.384	-49.092	-0.311	-0.146
-272.370	-200.000	0.001	-0.156
-271.355	234.808	-0.216	0.350
-270.340	-200.000	-0.003	0.063
-269.326	-46.082	0.223	-0.108
-268.311	-200.000	-0.017	-0.113
-267.297	-162.351	-0.054	0.003
-266.282	-42.304	0.070	0.035
-265.267	-200.000	-0.019	-0.215
-264.253	-200.000	0.000	0.065
-263.238	-149.388	-0.342	0.027
-262.224	52.532	0.060	-0.056
-261.209	-200.000	0.006	-0.131
-260.195	497.638	0.118	-0.265
-259.180	383.583	0.056	-0.112
-258.165	800.000	-0.052	0.221
-257.151	178.134	-0.095	0.135
-256.136	157.800	-0.202	-0.274
-255.122	-81.742	0.283	-0.091
-254.107	800.000	-0.056	0.180
-253.092	-200.000	0.047	-0.236
-252.078	89.262	-0.248	-0.271
-251.063	-200.000	-0.006	0.280
-250.049	564.252	-0.088	-0.208
-249.034	-157.932	0.184	0.011
-248.019	107.723	-0.077	0.090
-247.005	-140.533	0.338	-0.034
-245.990	-134.901	-0.146	0.017
-244.976	69.794	-0.260	0.262
-243.961	82.928	-0.126	0.135
-242.946	2.963	0.055	-0.039
-241.932	26.869	0.175	-0.143
-240.917	800.000	-0.159	-0.442
-239.903	263.811	-0.164	-0.280
-238.888	6.054	0.061	-0.044
-237.873	56.458	0.287	0.273
-236.859	1.370	0.166	0.117
-235.844	-200.000	0.020	0.302
-234.830	-200.000	0.045	0.204
-233.815	-26.127	0.235	-0.135
-232.800	-200.000	0.067	-0.297
-231.786	-45.035	0.031	0.015
-230.771	-73.989	-0.257	0.091
-229.757	24.340	0.120	-0.097
-228.742	-200.000	0.008	0.086
-227.727	95.363	-0.204	0.228
-226.713	-50.571	0.335	0.155
-225.698	-200.000	0.019	0.376
-224.684	229.086	-0.148	-0.236
-223.669	-105.447	0.129	0.029
-222.655	-161.586	-0.331	0.017
-221.640	-59.972	0.342	-0.143
-220.625	148.748	0.013	-0.017
-219.611	-34.926	-0.227	0.121
-218.596	800.000	0.134	-0.371
-217.582	379.004	0.093	-0.186
-216.567	202.967	0.040	0.060
-215.552	181.635	0.186	0.268
-214.538	800.000	-0.042	0.138
-213.523	-200.000	-0.005	0.096
-212.509	782.690	-0.127	0.340
-211.494	-123.171	-0.406	0.064
-210.479	800.000	-0.069	0.250
-209.465	-48.101	0.126	0.059
-208.450	154.464	-0.262	0.352
-207.436	-72.897	-0.374	-0.135
-206.421	800.000	-0.078	0.247
-205.406	-121.819	-0.132	-0.021
-204.392	-200.000	0.017	-0.158
-203.377	800.000	-0.038	-0.118
-202.363	157.440	-0.045	0.061
-201.348	-70.742	0.494	0.182
-200.333	444.852	0.163	0.350
-199.319	593.310	0.070	0.168
-198.304	-93.538	-0.238	0.064
-197.290	-137.752	0.084	-0.009
-196.275	252.294	-0.129	0.215
-195.260	800.000	0.105	0.304
-194.246	-101.968	0.173	-0.041
-193.231	-138.220	0.182	0.020
-192.217	94.650	0.189	0.210
-191.202	71.499	-0.114	0.116
-190.187	-175.195	0.093	0.003
-189.173	483.504	0.144	-0.319
-188.158	-200.000	0.044	0.210
-187.144	-114.881	0.166	0.031
-186.129	800.000	0.022	-0.064
-185.114	188.794	0.199	-0.291
-184.100	171.271	0.115	0.161
-183.085	-8.749	-0.133	0.087
-182.071	556.065	-0.200	-0.471
-181.056	800.000	-0.138	-0.430
-180.042	21.756	0.098	0.078
-179.027	157.376	-0.053	0.071
-178.012	567.384	0.032	-0.075
-176.998	800.000	-0.027	0.072
-175.983	-7.082	-0.251	0.167
-174.969	139.496	0.300	-0.386
-173.954	-94.647	0.021	0.006
-172.939	-33.992	0.384	0.207
-171.925	70.423	-0.193	-0.195
-170.910	442.339	0.207	-0.442
-169.896	-65.448	0.475	-0.186
-168.881	234.819	0.131	0.211
-167.866	800.000	0.037	0.151
-166.852	-175.743	-0.157	0.004
-165.837	-145.641	-0.168	0.015
-164.823	22.540	0.239	-0.191
-163.808	-200.000	0.005	0.523
-162.793	-17.586	-0.179	0.110
-161.779	32.094	-0.282	-0.237
-160.764	-14.153	0.201	0.126
-159.750	-79.359	-0.259	0.086
-158.735	-60.155	-0.081	-0.034
-157.720	154.330	-0.060	-0.080
-156.706	-200.000	0.084	-0.359
-155.691	-200.000	-0.000	0.176
-154.677	314.890	-0.243	0.446
-153.662	800.000	-0.072	-0.203
-152.647	-127.121	0.202	0.029
-151.633	800.000	0.031	-0.095
-150.618	800.000	-0.055	0.194
-149.604	-200.000	0.011	0.053
-148.589	800.000	-0.095	-0.365
-147.574	-38.432	-0.321	-0.166
-146.560	575.610	-0.053	-0.125
-145.545	800.000	0.042	0.163
-144.531	-4.132	-0.181	0.122
-143.516	0.870	0.331	0.231
-142.502	-132.048	-0.090	-0.011
-141.487	13.106	0.195	-0.147
-140.472	-86.694	0.286	-0.085
-139.458	273.648	0.141	0.243
-138.443	-200.000	0.044	-0.232
-137.429	800.000	-0.072	-0.213
-136.414	-96.465	-0.149	0.038
-135.399	133.426	0.205	0.259
-134.385	370.775	-0.042	0.084
-133.370	-200.000	-0.061	-0.418
-132.356	47.257	-0.234	-0.213
-131.341	-32.077	-0.122	-0.066
-130.326	-51.547	0.469	0.213
-129.312	-138.380	0.282	0.030
-128.297	123.812	0.126	0.154
-127.283	-200.000	-0.055	-0.239
-126.268	40.554	-0.292	0.257
-125.253	-109.018	0.295	0.061
-124.239	-18.528	0.087	-0.053
-123.224	397.898	0.092	-0.188
-122.210	-161.828	-0.246	-0.012
-121.195	-200.000	0.026	-0.204
-120.180	24.532	0.121	0.098
-119.166	75.484	-0.274	-0.282
-118.151	-98.078	-0.192	0.048
-117.137	155.592	-0.210	-0.282
-116.122	82.676	0.262	-0.277
-115.107	18.165	-0.252	-0.196
-114.093	-12.827	-0.143	0.091
-113.078	-38.212	-0.336	0.173
-112.064	-188.036	0.262	-0.003
-111.049	439.095	-0.164	0.349
-110.034	632.042	-0.030	0.073
-109.020	-85.043	-0.298	0.091
-108.005	-200.000	-0.042	0.196
-106.991	-37.060	-0.100	0.052
-105.976	-16.978	0.211	0.130
-104.962	-137.661	0.191	0.021
-103.947	-74.969	-0.258	0.090
-102.932	-165.722	0.158	0.007
-101.918	-143.140	-0.158	-0.015
-100.903	800.000	0.057	0.187
-99.889	800.000	-0.109	-0.332
-98.874	-134.371	-0.206	0.025
-97.859	122.669	0.128	-0.156
-96.845	-28.276	-0.176	0.099
-95.830	25.082	-0.145	-0.117
-94.816	-52.601	0.234	-0.105
-93.801	-58.746	-0.188	0.079
-92.786	35.303	0.152	0.130
-91.772	97.797	-0.147	0.164
-90.757	259.393	-0.120	-0.202
-89.743	-121.138	0.098	0.016
-88.728	-98.393	-0.122	-0.030
-87.713	-122.769	0.331	0.052
-86.699	-145.837	-0.373	0.032
-85.684	180.928	0.049	0.070
-84.670	-110.453	0.172	0.035
-83.655	-116.514	0.215	0.039
-82.640	26.148	0.220	-0.179
-81.626	335.532	-0.026	0.048
-80.611	-92.663	-0.224	-0.061
-79.597	643.308	-0.090	-0.223
-78.582	102.164	-0.002	-0.002
-77.567	-173.778	0.348	0.010
-76.553	404.748	0.036	0.074
-75.538	-200.000	0.011	-0.131
-74.524	141.819	-0.104	-0.135
-73.509	-160.225	-0.326	0.017
-72.494	123.152	-0.235	0.286
-71.480	-200.000	-0.040	0.204
-70.465	-29.453	0.288	0.160
-69.451	-13.234	0.172	-0.109
-68.436	-200.000	-0.024	-0.124
-67.422	-200.000	0.011	0.353
-66.407	-200.000	0.033	-0.176
-65.392	-87.843	0.131	-0.038
-64.378	51.015	-0.092	-0.085
-63.363	-200.000	0.001	0.046
-62.349	42.594	-0.109	-0.096
-61.334	171.413	-0.833	-1.163
-60.319	13.755	1.055	0.797
-59.305	129.504	-0.877	-1.090
-58.290	261.644	0.837	1.410
-57.276	800.000	0.506	1.484
-56.261	-200.000	125.048	646.876
-55.246	413.320	1567.192	3241.284
-54.232	142.901	2734.644	3535.355
-53.217	89.348	2304.939	2498.343
-52.203	32.224	1913.863	1605.744
-51.188	26.099	1710.341	1387.994
-50.173	24.031	1671.292	1340.687
-49.159	45.159	1740.275	1559.590
-48.144	43.038	1752.165	1553.850
-47.130	25.891	1702.539	1379.854
-46.115	23.289	1688.124	1348.335
-45.100	23.126	1682.800	1342.786
-44.086	23.057	1680.753	1340.576
-43.071	23.049	1678.628	1338.773
-42.057	23.040	1676.298	1336.793
-41.042	23.035	1674.306	1335.112
-40.027	23.141	1672.228	1334.199
-39.013	23.037	1670.691	1332.140
-37.998	23.063	1668.710	1330.698
-36.984	23.063	1667.603	1329.765
-35.969	23.200	1666.106	1329.552
-34.954	23.274	1664.398	1328.687
-33.940	23.117	1663.334	1326.611
-32.925	23.093	1661.288	1324.743
-31.911	23.127	1659.537	1323.549
-30.896	23.229	1657.539	1322.664
-29.881	23.185	1656.855	1321.736
-28.867	23.167	1654.683	1319.819
-27.852	23.220	1652.895	1318.739
-26.838	23.157	1651.708	1317.268
-25.823	23.301	1649.788	1316.755
-24.809	23.157	1649.203	1315.162
-23.794	23.175	1647.912	1314.216
-22.779	23.133	1646.510	1312.738
-21.765	23.178	1644.833	1311.679
-20.750	23.138	1643.005	1309.871
-19.736	23.128	1641.868	1308.844
-18.721	23.261	1640.157	1308.410
-17.706	23.287	1638.878	1307.528
-16.692	23.148	1637.500	1305.351
-15.677	23.186	1635.854	1304.267
-14.663	23.388	1634.028	1304.249
-13.648	23.249	1632.842	1302.225
-12.633	23.180	1631.856	1300.884
-11.619	23.261	1629.767	1299.757
-10.604	23.244	1628.817	1298.827
-9.590	23.297	1627.062	1297.765
-8.575	23.233	1626.132	1296.503
-7.560	23.291	1624.719	1295.746
-6.546	23.261	1624.022	1294.919
-5.531	23.171	1622.964	1293.364
-4.517	23.221	1621.518	1292.525
-3.502	23.163	1620.795	1291.478
-2.487	23.244	1618.932	1290.534
-1.473	22.988	1606.538	1278.746
-0.458	20.306	1587.206	1244.115
0.556	15.531	1590.035	1215.884
1.571	13.544	1613.711	1219.268
2.586	13.391	1626.155	1227.429
3.600	12.393	1571.121	1178.628
4.615	6.745	1462.759	1059.429
5.629	1.279	1403.138	980.901
6.644	0.265	1396.546	969.678
7.659	0.078	1395.706	967.808
8.673	0.162	1394.365	967.330
9.688	0.186	1391.598	965.484
10.702	-0.060	1388.841	961.909
11.717	2.804	1392.379	982.634
12.731	9.708	1403.618	1034.916
13.746	15.305	1411.044	1076.318
14.761	16.700	1412.615	1086.379
15.775	16.205	1410.588	1081.555
16.790	15.230	1408.175	1073.363
17.804	14.345	1406.122	1066.047
18.819	13.912	1405.218	1062.495
19.834	13.772	1403.329	1060.080
20.848	13.535	1402.005	1057.472
21.863	13.313	1400.872	1055.107
22.877	13.251	1399.149	1053.323
23.892	13.104	1398.541	1051.834
24.907	13.067	1398.240	1051.280
25.921	13.091	1397.441	1050.740
26.936	13.263	1395.521	1050.292
27.950	13.254	1394.813	1049.611
28.965	13.239	1394.277	1049.018
29.980	13.319	1393.281	1048.686
30.994	13.223	1392.416	1047.335
32.009	13.430	1390.989	1047.474
33.023	13.376	1390.309	1046.532
34.038	13.350	1388.957	1045.258
35.053	13.323	1387.155	1043.639
36.067	13.286	1386.535	1042.845
37.082	13.363	1385.619	1042.552
38.096	13.444	1384.432	1042.074
39.111	13.374	1383.857	1041.108
40.126	13.183	1383.228	1039.341
41.140	13.104	1382.157	1037.946
42.155	13.280	1381.142	1038.198
43.169	13.216	1381.242	1037.783
44.184	13.057	1381.131	1036.606
45.199	13.101	1380.253	1036.130
46.213	13.255	1379.936	1036.766
47.228	13.240	1378.557	1035.548
48.242	13.187	1377.831	1034.575
49.257	13.210	1375.955	1033.224
50.271	13.298	1374.980	1032.951
51.286	13.263	1373.262	1031.348
52.301	13.242	1372.111	1030.260
53.315	13.153	1370.990	1028.775
54.330	13.078	1370.110	1027.558
55.344	13.172	1368.255	1026.655
56.359	13.205	1367.638	1026.309
57.374	13.120	1366.964	1025.184
58.388	13.099	1365.966	1024.215
59.403	13.164	1365.072	1023.857
60.417	13.168	1364.269	1023.188
61.432	13.056	1363.575	1021.886
62.447	13.059	1363.019	1021.394
63.461	12.991	1361.292	1019.589
64.476	13.035	1360.493	1019.173
65.490	13.040	1359.011	1018.008
66.505	13.108	1357.274	1017.033
67.520	13.092	1355.940	1015.844
68.534	13.046	1355.458	1015.110
69.549	13.142	1354.293	1014.740
70.563	13.099	1353.319	1013.656
71.578	13.008	1352.411	1012.328
72.593	12.962	1351.229	1011.070
73.607	12.938	1350.503	1010.288
74.622	13.009	1349.552	1009.924
75.636	12.997	1348.760	1009.169
76.651	13.021	1347.756	1008.477
77.666	12.986	1347.542	1008.012
78.680	12.991	1346.675	1007.304
79.695	13.091	1345.462	1006.921
80.709	13.087	1344.635	1006.188
81.724	13.113	1344.127	1005.872
82.739	13.127	1342.688	1004.797
83.753	13.137	1342.288	1004.465
84.768	13.219	1340.774	1003.743
85.782	13.267	1340.008	1003.373
86.797	13.212	1338.287	1001.659
87.812	13.175	1337.009	1000.390
88.826	13.106	1336.333	999.383
89.841	13.243	1335.046	999.155
90.855	13.171	1334.162	997.976
91.870	13.301	1333.463	998.149
92.884	13.297	1332.113	997.024
93.899	13.390	1331.473	997.015
94.914	13.388	1331.128	996.659
95.928	13.360	1329.964	995.532
96.943	13.318	1328.801	994.318
97.957	13.362	1327.898	993.817
98.972	13.289	1327.488	992.988
99.987	13.360	1325.976	992.193
101.001	13.365	1324.866	991.303
102.016	13.258	1324.233	990.100
103.030	13.337	1322.975	989.547
104.045	13.316	1322.112	988.690
105.060	13.344	1320.386	987.477
106.074	13.173	1319.665	985.829
107.089	13.078	1318.582	984.368
108.103	13.090	1317.141	983.277
109.118	13.107	1315.664	982.190
110.133	13.156	1314.219	981.311
111.147	13.215	1312.948	980.630
112.162	13.229	1311.739	979.720
113.176	13.117	1311.022	978.436
114.191	13.151	1309.892	977.709
115.206	13.222	1308.060	976.673
116.220	13.266	1306.799	975.902
117.235	13.273	1305.796	975.110
118.249	13.199	1304.806	973.850
119.264	13.303	1303.719	973.563
120.279	13.219	1302.867	972.345
121.293	13.137	1301.469	970.734
122.308	13.125	1300.910	970.164
123.322	13.156	1299.591	969.278
124.337	13.164	1298.441	968.377
125.352	13.167	1297.284	967.445
126.366	13.135	1296.110	966.298
127.381	13.144	1295.256	965.630
128.395	13.177	1294.436	965.123
129.410	13.227	1292.492	963.881
130.424	13.092	1292.324	962.887
131.439	13.237	1290.763	962.479
132.454	13.203	1289.953	961.591
133.468	13.172	1288.910	960.550
134.483	13.305	1288.016	960.575
135.497	13.211	1287.250	959.371
136.512	13.230	1285.907	958.396
137.527	13.280	1284.406	957.478
138.541	13.260	1282.968	956.207
139.556	13.267	1281.698	955.218
140.570	13.172	1281.209	954.218
141.585	13.242	1279.571	953.319
142.600	13.327	1278.558	952.969
143.614	13.425	1277.126	952.385
144.629	13.415	1276.313	951.635
145.643	13.334	1275.348	950.363
146.658	13.358	1274.128	949.512
147.673	13.327	1272.700	948.184
148.687	13.315	1271.540	947.164
149.702	13.329	1270.025	946.037
150.716	13.249	1268.727	944.528
151.731	13.314	1267.746	944.084
152.746	13.344	1266.568	943.296
153.760	13.321	1265.300	942.137
154.775	13.376	1264.007	941.403
155.789	13.418	1263.416	941.120
156.804	13.384	1262.181	939.919
157.819	13.442	1261.288	939.504
158.833	13.453	1260.201	938.672
159.848	13.519	1259.123	938.163
160.862	13.578	1257.941	937.533
161.877	13.511	1257.066	936.414
162.892	13.474	1256.025	935.349
163.906	13.476	1254.795	934.363
164.921	13.516	1254.202	934.065
165.935	13.527	1252.856	933.039
166.950	13.528	1252.409	932.629
167.964	13.603	1251.571	932.345
168.979	13.486	1251.040	931.209
169.994	13.502	1249.940	930.397
171.008	13.578	1248.759	929.863
172.023	13.581	1248.564	929.655
173.037	13.744	1247.032	929.343
174.052	13.712	1246.193	928.458
175.067	13.634	1245.344	927.307
176.081	13.607	1244.408	926.377
177.096	13.494	1243.747	925.168
178.110	13.554	1242.699	924.645
179.125	13.691	1241.411	924.369
180.140	13.549	1240.026	922.462
181.154	13.664	1238.795	922.108
182.169	13.697	1237.870	921.519
183.183	13.729	1236.486	920.588
184.198	13.774	1234.966	919.624
185.213	13.684	1234.319	918.560
186.227	13.856	1232.892	918.368
187.242	13.760	1232.379	917.373
188.256	13.751	1231.294	916.434
189.271	13.935	1230.001	916.406
190.286	13.772	1228.889	914.598
191.300	13.617	1228.413	913.310
192.315	13.545	1227.959	912.494
193.329	13.659	1227.055	912.372
194.344	13.710	1226.346	912.041
195.359	13.621	1225.790	911.057
196.373	13.750	1225.780	911.681
197.388	13.899	1224.738	911.640
198.402	13.978	1224.219	911.608
199.417	13.987	1223.689	911.183
200.432	13.991	1222.918	910.548
201.446	14.065	1221.751	910.007
202.461	13.982	1221.032	908.935
203.475	14.111	1219.551	908.460
204.490	14.192	1218.442	907.996
205.504	14.032	1217.454	906.304
206.519	14.103	1216.422	905.841
207.534	14.005	1215.445	904.503
208.548	14.096	1214.280	904.047
209.563	14.014	1213.489	902.938
210.577	14.116	1212.619	902.760
211.592	14.180	1211.735	902.373
212.607	14.129	1211.061	901.513
213.621	14.311	1209.126	900.980
214.636	14.202	1208.820	900.082
215.650	14.151	1207.737	898.917
216.665	14.146	1206.746	898.073
217.680	14.285	1205.910	898.124
218.694	14.123	1205.577	896.923
219.709	14.252	1204.838	896.988
220.723	14.214	1204.046	896.114
221.738	14.215	1202.937	895.215
222.753	14.260	1202.337	894.933
223.767	14.274	1201.463	894.274
224.782	14.406	1201.065	894.608
225.796	14.425	1200.489	894.203
226.811	14.370	1199.864	893.361
227.826	14.316	1198.945	892.310
228.840	14.294	1198.256	891.601
229.855	14.437	1196.991	891.345
230.869	14.432	1196.088	890.568
231.884	14.261	1196.448	889.842
232.899	14.342	1195.551	889.529
233.913	14.351	1194.377	888.626
234.928	14.344	1193.423	887.798
235.942	14.253	1192.764	886.747
236.957	14.284	1192.054	886.303
237.972	14.340	1191.185	885.878
238.986	14.365	1189.989	885.043
240.001	14.445	1189.524	885.045
241.015	14.497	1188.684	884.618
242.030	14.441	1188.058	883.774
243.045	14.478	1187.251	883.292
244.059	14.486	1186.359	882.592
245.074	14.554	1185.509	882.241
246.088	14.483	1184.912	881.344
247.103	14.617	1183.645	881.032
248.117	14.658	1183.306	880.920
249.132	14.705	1182.536	880.517
250.147	14.746	1181.771	880.085
251.161	14.778	1180.854	879.490
252.176	14.781	1180.023	878.812
253.190	14.772	1180.006	878.673
254.205	14.803	1179.387	878.298
255.220	14.855	1178.595	877.904
256.234	14.767	1178.192	877.062
257.249	14.799	1177.618	876.726
258.263	14.804	1176.882	876.128
259.278	14.896	1176.066	875.925
260.293	14.895	1175.324	875.290
261.307	15.009	1174.770	875.393
262.322	14.988	1174.625	875.098
263.336	15.035	1173.515	874.439
264.351	15.036	1172.918	873.922
265.366	15.009	1172.034	873.046
266.380	15.127	1170.905	872.742
267.395	15.111	1170.334	872.156
268.409	15.048	1169.733	871.303
269.424	15.004	1169.230	870.625
270.439	14.965	1168.901	870.099
271.453	14.957	1168.083	869.372
272.468	15.041	1166.914	868.861
273.482	15.031	1166.198	868.200
274.497	15.026	1166.027	867.968
275.512	15.045	1164.953	867.190
276.526	15.026	1164.384	866.589
277.541	14.977	1163.550	865.640
278.555	15.082	1162.816	865.561
279.570	15.175	1162.155	865.472
280.585	15.181	1160.926	864.514
281.599	15.218	1160.458	864.280
282.614	15.261	1158.866	863.237
283.628	15.158	1158.006	861.992
284.643	15.212	1156.930	861.389
285.657	15.293	1156.079	861.094
286.672	15.211	1154.917	859.735
287.687	15.348	1154.112	859.761
288.701	15.317	1153.968	859.419
289.716	15.402	1152.337	858.564
290.730	15.304	1151.874	857.643
291.745	15.304	1151.514	857.297
292.760	15.316	1150.873	856.805
293.774	15.333	1150.329	856.412
294.789	15.409	1149.717	856.269
295.803	15.509	1148.769	855.994
296.818	15.480	1147.907	855.131
297.833	15.425	1147.273	854.304
298.847	15.422	1146.833	853.886
299.862	15.402	1145.877	852.994
300.876	15.443	1144.740	852.279
301.891	15.576	1144.358	852.596
302.906	15.515	1143.656	851.688
303.920	15.603	1142.999	851.568
304.935	15.622	1142.050	850.881
305.949	15.674	1141.581	850.721
306.964	15.642	1140.992	850.044
307.979	15.614	1140.330	849.333
308.993	15.615	1139.758	848.841
310.008	15.754	1138.445	848.488
311.022	15.766	1137.955	848.108
312.037	15.683	1137.362	847.174
313.052	15.636	1136.069	845.896
314.066	15.644	1135.146	845.176
315.081	15.672	1134.384	844.675
316.095	15.654	1133.728	844.022
317.110	15.662	1133.084	843.506
318.125	15.737	1132.233	843.176
319.139	15.664	1131.529	842.212
320.154	15.705	1131.083	842.010
321.168	15.663	1130.126	841.011
322.183	15.702	1129.580	840.725
323.197	15.677	1129.160	840.217
324.212	15.762	1128.228	839.871
325.227	15.755	1127.753	839.411
326.241	15.687	1127.180	838.568
327.256	15.744	1126.342	838.153
328.270	15.672	1125.064	836.774
329.285	15.734	1124.431	836.536
330.300	15.719	1123.403	835.621
331.314	15.844	1122.432	835.448
332.329	15.860	1121.464	834.732
333.343	15.915	1120.423	834.153
334.358	15.884	1119.551	833.280
335.373	15.853	1119.431	832.964
336.387	15.926	1118.465	832.532
337.402	15.926	1117.502	831.738
338.416	15.904	1116.833	831.059
339.431	16.041	1116.061	831.089
340.446	16.033	1115.297	830.406
341.460	16.091	1114.861	830.292
342.475	16.260	1114.007	830.416
343.489	16.041	1113.430	828.836
344.504	16.312	1112.028	829.050
345.519	16.167	1111.463	827.842
346.533	16.292	1110.552	827.703
347.548	16.195	1110.137	826.844
348.562	16.187	1109.260	826.078
349.577	16.102	1108.555	825.068
350.592	16.223	1107.422	824.740
351.606	16.129	1106.879	823.805
352.621	16.214	1106.141	823.597
353.635	16.194	1105.490	822.943
354.650	16.161	1105.012	822.354
355.665	16.324	1104.014	822.330
356.679	16.251	1103.267	821.348
357.694	16.355	1102.831	821.452
358.708	16.269	1102.319	820.582
359.723	16.367	1101.507	820.384
360.738	16.388	1100.667	819.783
361.752	16.376	1100.366	819.432
362.767	16.318	1099.716	818.595
363.781	16.473	1098.992	818.730
364.796	16.487	1098.609	818.440
365.810	16.441	1098.349	817.951
366.825	16.533	1097.169	817.450
367.840	16.519	1096.887	817.097
368.854	16.599	1096.389	817.041
369.869	16.566	1095.572	816.199
370.883	16.542	1094.590	815.280
371.898	16.555	1093.933	814.783
372.913	16.513	1093.566	814.232
373.927	16.623	1092.873	814.174
374.942	16.644	1091.905	813.484
375.956	16.764	1091.304	813.538
376.971	16.712	1091.042	813.023
377.986	16.732	1090.334	812.520
379.000	16.765	1089.473	811.961
380.015	16.826	1089.026	811.849
381.029	16.687	1088.673	810.849
382.044	16.779	1087.747	810.529
383.059	16.738	1087.360	809.974
384.073	16.792	1086.680	809.652
385.088	16.810	1085.494	808.785
386.102	16.877	1084.369	808.192
387.117	16.793	1083.443	807.031
388.132	16.773	1083.029	806.558
389.146	16.747	1082.241	805.774
390.161	16.703	1081.407	804.871
391.175	16.830	1080.378	804.639
392.190	16.951	1079.732	804.663
393.205	16.935	1079.417	804.277
394.219	16.858	1078.355	803.053
395.234	16.890	1077.353	802.388
396.248	16.798	1076.401	801.173
397.263	16.899	1075.352	800.798
398.278	16.860	1074.988	800.270
399.292	16.961	1073.910	799.871
400.307	16.985	1072.991	799.232
401.321	16.908	1072.755	798.624
402.336	16.988	1072.050	798.401
403.350	16.915	1071.021	797.225
404.365	17.045	1070.470	797.353
405.380	16.966	1070.294	796.778
406.394	16.955	1069.403	795.996
407.409	17.031	1068.667	795.731
408.423	17.061	1068.077	795.365
409.438	17.083	1067.137	794.694
410.453	17.253	1066.170	794.701
411.467	17.169	1065.847	793.998
412.482	17.259	1065.052	793.753
413.496	17.235	1064.030	792.811
414.511	17.277	1063.684	792.679
415.526	17.313	1063.170	792.394
416.540	17.412	1062.754	792.473
417.555	17.401	1062.111	791.873
418.569	17.375	1061.743	791.409
419.584	17.304	1061.386	790.741
420.599	17.393	1060.855	790.691
421.613	107.680	1332.004	1488.217
422.628	99.371	1371.465	1488.285
