DTS Sentinel unit serial number:	SN413079Multiplexer serial number:	ORYXHardware model number:	OX4-SRSoftware version number:	ORYX F/W v4.00 Oryx Data Collector v3.7.2.0data status	okinstallation	princeton_trtdifferential loss correction	single-endedforward channel	channel 2reverse channel	N/Adate	2019/09/17time	19:43:34forward acquisition time	60.00reverse acquisition time	0.00gamma	496.2192k internal	0.2323k external	0.2323temperature offset calibration	0.9991default loss term (dB/km)	0.3790temperature slope calibration	1.0000multiplexer offset coefficient	1.0000multiplexer slope coefficient	1.0000fibre end	0.00T internal ref (°C)	35.06T ext. ref 1 (°C)	0.25T ext. ref 2 (°C)	24.40length (m)	temperature (°C)	Stokes	anti-Stokes-747.200	-19.999	0.398	-0.248
-746.185	-200.000	0.334	0.001
-745.171	-70.273	-0.186	-0.071
-744.156	-150.319	-0.177	0.014
-743.142	71.299	-0.137	0.144
-742.127	-200.000	-0.002	0.365
-741.112	-148.486	0.169	0.014
-740.098	-200.000	0.034	0.259
-739.083	800.000	0.022	0.067
-738.069	659.091	-0.050	-0.131
-737.054	555.003	-0.136	0.331
-736.039	441.263	-0.056	0.123
-735.025	-176.967	0.152	0.004
-734.010	-161.283	0.059	-0.003
-732.996	38.963	-0.189	-0.171
-731.981	613.455	-0.081	0.204
-730.966	415.237	0.037	0.079
-729.952	800.000	-0.091	-0.368
-728.937	-175.996	-0.239	0.006
-727.923	48.841	0.111	0.105
-726.908	-200.000	0.008	-0.167
-725.894	31.311	-0.074	0.064
-724.879	-116.768	-0.151	-0.028
-723.864	-17.884	-0.191	0.121
-722.850	222.393	0.068	0.110
-721.835	-22.495	-0.433	0.264
-720.821	183.537	-0.096	-0.143
-719.806	318.756	0.092	0.176
-718.791	-147.059	-0.222	0.019
-717.777	-200.000	0.024	-0.284
-716.762	800.000	-0.063	-0.190
-715.748	141.781	0.122	-0.163
-714.733	27.538	0.030	-0.026
-713.718	-200.000	0.008	0.092
-712.704	25.890	-0.082	0.069
-711.689	-200.000	0.030	-0.416
-710.675	-163.544	-0.288	-0.014
-709.660	100.450	0.233	0.273
-708.645	715.761	-0.012	0.032
-707.631	-200.000	-0.015	0.184
-706.616	-193.799	0.054	0.000
-705.602	-110.346	0.227	0.048
-704.587	273.929	-0.034	-0.060
-703.572	-200.000	-0.016	-0.104
-702.558	138.838	-0.175	-0.232
-701.543	-42.785	0.242	-0.124
-700.529	11.788	-0.448	-0.347
-699.514	480.211	-0.139	-0.317
-698.499	-47.838	-0.391	-0.191
-697.485	71.473	-0.223	-0.234
-696.470	732.802	-0.046	0.125
-695.456	28.225	-0.193	0.164
-694.441	-64.016	-0.190	0.078
-693.426	-37.677	0.109	0.059
-692.412	-101.459	0.307	0.075
-691.397	-79.945	-0.246	-0.083
-690.383	79.080	-0.097	-0.105
-689.368	48.106	0.079	0.075
-688.354	-148.751	-0.241	0.020
-687.339	172.306	-0.140	-0.202
-686.324	172.289	0.256	-0.370
-685.310	218.662	-0.086	-0.139
-684.295	630.907	-0.091	-0.232
-683.281	347.757	-0.155	-0.308
-682.266	-96.824	0.331	0.088
-681.251	-54.850	-0.239	0.109
-680.237	90.437	0.176	-0.198
-679.222	30.471	0.173	0.149
-678.208	42.343	-0.145	0.133
-677.193	-77.030	0.247	0.087
-676.178	186.545	-0.093	0.139
-675.164	93.449	-0.127	0.144
-674.149	-58.362	-0.207	0.091
-673.135	72.638	0.044	0.046
-672.120	-153.347	-0.174	0.012
-671.105	-124.450	-0.165	-0.026
-670.091	67.234	0.101	0.103
-669.076	800.000	-0.048	-0.170
-668.062	-193.854	-0.297	-0.003
-667.047	261.640	0.063	0.110
-666.032	-75.437	-0.164	-0.059
-665.018	-124.254	0.229	-0.036
-664.003	257.427	-0.245	-0.425
-662.989	-40.946	-0.252	0.131
-661.974	-71.654	0.194	0.073
-660.959	261.772	0.246	-0.429
-659.945	-7.422	-0.185	0.126
-658.930	-110.946	-0.219	0.045
-657.916	234.452	0.117	0.195
-656.901	-200.000	0.026	-0.180
-655.886	-200.000	-0.051	0.310
-654.872	-153.820	-0.127	0.009
-653.857	-113.253	-0.223	0.044
-652.843	-83.158	-0.134	-0.043
-651.828	-200.000	0.048	-0.422
-650.814	-200.000	-0.003	-0.476
-649.799	17.645	0.208	0.166
-648.784	62.618	0.298	0.299
-647.770	-52.065	-0.240	-0.112
-646.755	-200.000	-0.004	-0.143
-645.741	-200.000	0.027	-0.142
-644.726	-131.280	-0.225	0.030
-643.711	80.377	0.172	-0.186
-642.697	493.737	0.098	-0.226
-641.682	-11.004	0.385	0.255
-640.668	71.755	-0.080	0.083
-639.653	282.046	-0.162	-0.291
-638.638	-75.396	0.207	0.074
-637.624	157.530	0.120	-0.166
-636.609	223.051	0.280	0.453
-635.595	29.323	0.223	0.191
-634.580	128.150	-0.043	-0.055
-633.565	567.371	-0.056	-0.136
-632.551	-121.045	-0.121	-0.020
-631.536	800.000	-0.047	-0.160
-630.522	517.172	-0.092	0.216
-629.507	-21.538	0.330	-0.202
-628.492	-93.740	0.256	0.071
-627.478	644.701	0.137	0.350
-626.463	12.192	-0.368	-0.285
-625.449	54.455	-0.135	0.131
-624.434	218.404	-0.045	-0.073
-623.419	800.000	-0.100	0.352
-622.405	-200.000	-0.036	0.314
-621.390	-22.867	-0.222	-0.135
-620.376	265.816	-0.085	0.148
-619.361	10.102	0.092	-0.070
-618.346	800.000	0.023	-0.097
-617.332	1.042	-0.195	0.141
-616.317	242.755	0.078	0.131
-615.303	307.797	-0.143	-0.269
-614.288	800.000	-0.018	-0.066
-613.273	-49.035	-0.213	0.102
-612.259	-68.366	-0.243	-0.095
-611.244	144.876	-0.142	-0.191
-610.230	57.311	0.124	-0.121
-609.215	-200.000	-0.032	-0.262
-608.201	-135.404	-0.210	0.025
-607.186	9.743	0.076	-0.058
-606.171	-200.000	0.043	0.305
-605.157	-123.255	-0.296	-0.048
-604.142	-106.549	-0.201	-0.045
-603.128	-151.149	0.088	-0.007
-602.113	571.934	-0.157	-0.383
-601.098	164.291	-0.070	0.099
-600.084	522.713	-0.074	0.175
-599.069	-130.007	-0.311	-0.043
-598.055	-172.832	0.252	0.008
-597.040	-200.000	-0.050	-0.286
-596.025	-58.980	-0.190	-0.082
-595.011	-5.068	-0.180	0.124
-593.996	-109.160	0.292	-0.062
-592.982	47.989	0.004	0.004
-591.967	-200.000	0.026	-0.161
-590.952	-109.843	-0.318	0.067
-589.938	-115.633	-0.171	0.032
-588.923	-200.000	0.009	-0.211
-587.909	584.792	-0.072	0.177
-586.894	-87.132	0.173	-0.053
-585.879	418.326	-0.109	0.233
-584.865	-40.662	0.060	0.031
-583.850	147.052	-0.151	0.204
-582.836	550.682	-0.008	-0.020
-581.821	92.927	0.073	0.083
-580.806	-99.831	-0.245	-0.062
-579.792	-48.171	0.122	0.059
-578.777	800.000	-0.074	0.306
-577.763	-107.914	0.258	0.056
-576.748	114.941	0.232	-0.284
-575.733	-200.000	-0.014	0.118
-574.719	38.204	-0.020	-0.017
-573.704	511.183	-0.165	0.386
-572.690	-64.791	0.178	0.072
-571.675	34.634	-0.186	-0.163
-570.661	-121.712	0.043	0.007
-569.646	-51.208	0.102	0.048
-568.631	-124.032	-0.152	-0.024
-567.617	-200.000	-0.318	0.000
-566.602	54.224	0.080	0.077
-565.588	800.000	-0.091	-0.330
-564.573	184.068	-0.102	0.151
-563.558	-137.370	0.272	-0.031
-562.544	-200.000	-0.023	0.269
-561.529	-200.000	-0.043	0.228
-560.515	-26.619	-0.099	-0.058
-559.500	131.848	-0.104	-0.134
-558.485	18.093	0.148	0.119
-557.471	800.000	0.081	0.240
-556.456	-1.740	0.256	-0.180
-555.442	120.856	0.150	-0.187
-554.427	-177.836	-0.141	-0.003
-553.412	-132.104	0.271	0.035
-552.398	-200.000	0.026	-0.124
-551.383	-112.998	-0.124	0.025
-550.369	105.186	-0.202	-0.239
-549.354	-50.214	-0.176	0.083
-548.339	38.676	-0.084	-0.075
-547.325	-200.000	0.006	-0.186
-546.310	49.672	-0.319	0.301
-545.296	-200.000	-0.033	0.351
-544.281	-200.000	0.038	-0.425
-543.266	134.254	0.207	-0.269
-542.252	-200.000	0.007	-0.391
-541.237	800.000	-0.017	0.059
-540.223	800.000	0.061	-0.217
-539.208	-23.173	0.190	-0.114
-538.193	-75.522	0.258	0.092
-537.179	800.000	0.113	0.319
-536.164	800.000	0.076	0.259
-535.150	-64.213	-0.378	0.154
-534.135	203.605	0.085	-0.132
-533.121	800.000	0.057	-0.171
-532.106	374.780	-0.129	-0.264
-531.091	800.000	0.041	0.176
-530.077	-85.260	0.134	0.042
-529.062	43.184	-0.240	-0.219
-528.048	-55.825	-0.140	0.063
-527.033	256.964	-0.098	0.168
-526.018	122.420	-0.165	-0.207
-525.004	-60.105	-0.400	0.171
-523.989	650.469	0.109	-0.280
-522.975	-70.793	-0.216	0.082
-521.960	-127.692	0.427	-0.062
-520.945	-131.349	0.041	0.005
-519.931	-200.000	0.024	0.157
-518.916	115.367	0.094	-0.115
-517.902	595.338	-0.033	-0.082
-516.887	6.331	0.076	0.056
-515.872	202.094	-0.125	0.193
-514.858	159.226	0.131	-0.182
-513.843	800.000	0.089	0.263
-512.829	93.051	-0.179	-0.202
-511.814	-84.575	0.123	-0.039
-510.799	-200.000	-0.003	0.015
-509.785	-142.592	-0.067	0.007
-508.770	-200.000	0.032	-0.450
-507.756	138.890	0.191	0.252
-506.741	-108.675	0.130	0.028
-505.726	99.202	0.081	-0.093
-504.712	-75.680	0.653	0.232
-503.697	-21.232	-0.163	-0.100
-502.683	-45.470	0.164	-0.081
-501.668	-30.807	0.232	-0.131
-500.653	-200.000	-0.053	-0.275
-499.639	115.345	0.138	-0.168
-498.624	97.121	0.090	-0.104
-497.610	57.721	-0.053	0.052
-496.595	800.000	-0.067	-0.199
-495.581	16.756	-0.199	0.158
-494.566	-33.470	-0.074	-0.041
-493.551	-119.451	0.149	-0.026
-492.537	43.562	-0.249	-0.228
-491.522	-113.477	-0.438	-0.086
-490.508	205.395	0.094	0.145
-489.493	800.000	0.080	-0.254
-488.478	-99.119	-0.195	0.049
-487.464	-95.000	-0.100	-0.027
-486.449	36.577	-0.285	0.251
-485.435	800.000	0.068	-0.191
-484.420	-200.000	-0.002	-0.147
-483.405	407.019	-0.089	-0.188
-482.391	-6.851	0.230	-0.156
-481.376	-59.007	-0.442	0.191
-480.362	-159.021	0.598	0.034
-479.347	22.405	0.136	-0.111
-478.332	-84.583	-0.159	-0.050
-477.318	187.104	-0.088	-0.131
-476.303	-92.183	-0.067	0.019
-475.289	-164.398	-0.224	0.010
-474.274	-58.235	0.284	-0.123
-473.259	105.227	0.189	0.223
-472.245	409.812	0.208	0.441
-471.230	-139.619	-0.139	0.015
-470.216	-138.760	-0.109	-0.012
-469.201	-96.052	-0.169	0.045
-468.186	-41.717	-0.276	-0.142
-467.172	128.609	-0.231	-0.294
-466.157	204.720	-0.050	-0.077
-465.143	201.879	-0.139	0.213
-464.128	-11.843	-0.160	-0.105
-463.113	-108.067	-0.190	0.041
-462.099	-21.366	0.206	-0.126
-461.084	-120.734	-0.202	0.034
-460.070	101.114	0.120	0.139
-459.055	454.792	0.116	0.256
-458.040	-61.196	0.092	0.039
-457.026	-103.035	0.127	0.030
-456.011	-101.593	-0.462	0.112
-454.997	-100.332	0.089	0.022
-453.982	-80.052	0.241	0.081
-452.968	225.453	-0.101	-0.163
-451.953	800.000	-0.007	0.023
-450.938	-200.000	0.020	-0.168
-449.924	-83.104	0.060	0.019
-448.909	272.035	-0.067	-0.119
-447.895	-21.835	-0.176	-0.107
-446.880	220.752	0.069	-0.110
-445.865	-139.507	-0.360	0.038
-444.851	769.148	0.052	-0.141
-443.836	-111.960	0.372	0.075
-442.822	118.104	-0.168	0.207
-441.807	87.221	-0.088	0.097
-440.792	257.734	0.194	-0.333
-439.778	-162.276	0.233	0.012
-438.763	83.236	0.081	-0.088
-437.749	673.862	0.015	-0.039
-436.734	-200.000	0.004	-0.257
-435.719	68.496	0.228	0.233
-434.705	-163.761	0.358	-0.017
-433.690	13.905	0.077	-0.060
-432.676	142.624	0.149	-0.198
-431.661	-20.827	-0.111	0.068
-430.646	176.857	0.138	0.201
-429.632	-200.000	0.051	-0.263
-428.617	34.255	-0.173	0.151
-427.603	178.146	0.193	-0.281
-426.588	800.000	-0.052	-0.153
-425.573	-42.656	0.229	0.116
-424.559	-126.892	-0.325	0.048
-423.544	493.048	0.090	0.205
-422.530	-101.656	-0.326	0.079
-421.515	433.121	0.060	-0.130
-420.500	-149.714	-0.420	0.033
-419.486	800.000	-0.048	-0.197
-418.471	800.000	0.002	-0.009
-417.457	-200.000	0.040	0.266
-416.442	-200.000	0.044	0.228
-415.428	633.078	-0.049	0.123
-414.413	70.024	0.093	-0.096
-413.398	115.882	-0.347	0.423
-412.384	141.255	-0.079	-0.105
-411.369	-104.134	0.199	-0.046
-410.355	63.558	-0.031	0.031
-409.340	211.362	0.157	0.246
-408.325	-200.000	-0.058	-0.404
-407.311	-55.200	-0.109	-0.049
-406.296	244.542	-0.060	0.100
-405.282	-200.000	0.035	-0.373
-404.267	-200.000	-0.023	0.365
-403.252	-13.263	0.099	0.064
-402.238	-94.945	0.296	0.080
-401.223	177.196	-0.105	0.152
-400.209	-200.000	0.002	-0.052
-399.194	-8.976	0.125	-0.084
-398.179	5.592	-0.335	-0.247
-397.165	-200.000	-0.029	-0.217
-396.150	460.662	-0.099	0.221
-395.136	717.831	-0.028	0.074
-394.121	116.329	0.237	0.290
-393.106	50.926	0.128	-0.120
-392.092	54.911	0.146	0.140
-391.077	195.983	0.118	-0.179
-390.063	105.645	-0.098	-0.115
-389.048	-200.000	-0.009	0.143
-388.033	-86.665	-0.278	0.085
-387.019	-3.506	-0.260	0.180
-386.004	-200.000	-0.031	0.330
-384.990	20.218	-0.091	-0.073
-383.975	-200.000	-0.011	0.199
-382.960	800.000	0.074	0.286
-381.946	83.166	-0.161	-0.175
-380.931	317.065	0.189	0.356
-379.917	102.689	0.238	0.277
-378.902	-200.000	-0.008	0.363
-377.888	-0.682	-0.238	0.168
-376.873	84.244	-0.132	0.144
-375.858	-93.217	-0.121	-0.033
-374.844	-200.000	0.028	-0.204
-373.829	-85.140	0.169	-0.053
-372.815	-200.000	-0.050	-0.270
-371.800	-74.463	-0.059	0.021
-370.785	800.000	0.027	0.102
-369.771	-169.376	0.147	0.005
-368.756	-112.572	-0.158	0.031
-367.742	-200.000	-0.047	-0.235
-366.727	-71.397	-0.218	-0.081
-365.712	-200.000	0.042	0.190
-364.698	-200.000	0.001	-0.186
-363.683	-82.030	-0.257	0.084
-362.669	-135.156	-0.292	0.035
-361.654	-179.062	0.080	0.002
-360.639	182.131	0.155	0.226
-359.625	-71.582	-0.180	0.067
-358.610	-44.231	0.208	-0.104
-357.596	415.697	-0.082	-0.175
-356.581	-105.643	0.027	-0.006
-355.566	800.000	-0.034	-0.094
-354.552	800.000	-0.085	-0.273
-353.537	-154.301	0.177	0.012
-352.523	9.820	0.265	0.200
-351.508	10.635	0.102	0.078
-350.493	62.528	-0.160	-0.158
-349.479	302.153	-0.246	0.452
-348.464	800.000	-0.051	-0.147
-347.450	-162.121	0.148	-0.007
-346.435	184.518	0.113	0.166
-345.420	-50.036	0.211	-0.099
-344.406	-77.295	0.093	-0.032
-343.391	122.415	-0.071	0.088
-342.377	-159.707	0.199	-0.011
-341.362	800.000	0.123	0.391
-340.348	316.557	0.012	0.023
-339.333	-138.715	-0.325	0.035
-338.318	239.758	0.043	-0.071
-337.304	-200.000	0.017	-0.211
-336.289	-200.000	-0.012	0.142
-335.275	-178.363	-0.178	-0.004
-334.260	800.000	-0.024	-0.080
-333.245	439.231	-0.181	-0.393
-332.231	429.253	-0.044	0.094
-331.216	800.000	-0.118	0.351
-330.202	-105.760	0.217	-0.049
-329.187	-107.516	-0.243	-0.053
-328.172	-44.424	-0.087	-0.043
-327.158	-200.000	-0.011	0.080
-326.143	117.309	-0.054	-0.066
-325.129	-200.000	0.004	0.319
-324.114	-44.358	-0.278	0.138
-323.099	-200.000	0.007	0.194
-322.085	-128.513	0.141	-0.020
-321.070	-41.088	0.114	-0.059
-320.056	-5.272	-0.145	-0.099
-319.041	232.893	0.155	0.253
-318.026	-200.000	0.427	0.000
-317.012	-7.940	0.315	0.211
-315.997	102.347	-0.288	-0.335
-314.983	127.561	0.066	-0.084
-313.968	-78.724	0.188	-0.064
-312.953	-77.742	-0.306	-0.105
-311.939	269.213	-0.048	-0.083
-310.924	-27.164	-0.194	0.112
-309.910	-120.342	-0.111	-0.019
-308.895	-76.863	0.341	0.118
-307.880	157.736	-0.213	-0.293
-306.866	555.989	-0.062	0.149
-305.851	-165.581	-0.202	-0.009
-304.837	76.082	-0.071	0.075
-303.822	800.000	0.030	-0.101
-302.807	215.903	0.111	0.175
-301.793	-62.648	0.114	-0.047
-300.778	800.000	0.052	0.213
-299.764	184.799	0.088	0.129
-298.749	45.861	0.117	-0.108
-297.735	-115.842	-0.208	0.039
-296.720	-77.761	-0.300	-0.103
-295.705	-67.168	0.156	0.061
-294.691	-105.420	0.160	0.036
-293.676	735.127	-0.082	-0.217
-292.662	183.542	0.086	-0.127
-291.647	181.725	-0.139	-0.203
-290.632	-51.824	0.295	-0.136
-289.618	-112.304	-0.137	-0.027
-288.603	-145.101	0.347	0.031
-287.589	-174.411	0.144	-0.004
-286.574	90.067	-0.053	0.059
-285.559	113.527	0.218	0.262
-284.545	82.441	0.081	-0.088
-283.530	174.482	0.163	-0.234
-282.516	-130.260	0.366	-0.049
-281.501	-93.062	-0.085	-0.024
-280.486	8.019	-0.210	0.156
-279.472	-61.112	0.227	0.095
-278.457	90.522	0.072	0.080
-277.443	362.211	-0.049	0.098
-276.428	26.173	-0.146	-0.121
-275.413	800.000	0.133	-0.532
-274.399	223.951	-0.085	-0.136
-273.384	-200.000	-0.044	0.372
-272.370	265.802	0.199	0.344
-271.355	239.439	0.151	0.249
-270.340	-137.869	0.447	-0.050
-269.326	292.634	0.035	-0.063
-268.311	-200.000	-0.027	-0.229
-267.297	800.000	-0.074	0.266
-266.282	800.000	-0.052	-0.199
-265.267	-161.726	0.080	0.004
-264.253	-195.738	0.143	-0.001
-263.238	-200.000	-0.016	-0.265
-262.224	-15.685	0.244	0.154
-261.209	179.631	-0.068	-0.099
-260.195	-171.687	0.268	-0.009
-259.180	-153.096	-0.228	-0.016
-258.165	-67.690	-0.116	0.045
-257.151	-200.000	0.015	-0.468
-256.136	232.111	-0.070	0.113
-255.122	8.862	-0.093	-0.069
-254.107	-54.814	-0.464	0.208
-253.092	563.923	-0.042	0.100
-252.078	-200.000	-0.002	-0.315
-251.063	267.610	-0.139	-0.241
-250.049	188.849	-0.056	-0.083
-249.034	162.555	-0.131	0.182
-248.019	-184.572	0.260	0.004
-247.005	-35.023	-0.296	0.160
-245.990	-46.700	0.132	0.064
-244.976	-75.060	0.055	-0.019
-243.961	1.001	0.136	-0.096
-242.946	-12.779	-0.264	0.170
-241.932	-200.000	0.027	-0.452
-240.917	-200.000	0.004	-0.038
-239.903	-200.000	0.034	0.264
-238.888	-200.000	-0.014	-0.292
-237.873	-81.113	0.394	0.129
-236.859	800.000	0.055	-0.157
-235.844	237.115	0.032	0.053
-234.830	319.742	0.114	0.215
-233.815	-113.598	0.231	-0.045
-232.800	800.000	-0.063	-0.264
-231.786	253.890	-0.153	-0.259
-230.771	800.000	-0.073	0.308
-229.757	-200.000	-0.043	-0.199
-228.742	800.000	0.073	0.287
-227.727	66.625	0.118	0.119
-226.713	108.584	-0.122	-0.144
-225.698	-41.654	-0.365	-0.186
-224.684	392.276	0.133	0.275
-223.669	-142.272	0.088	-0.009
-222.655	465.793	-0.164	-0.363
-221.640	-200.000	-0.043	0.272
-220.625	84.537	0.129	0.140
-219.611	-142.631	-0.046	0.004
-218.596	-57.990	0.039	0.017
-217.582	80.486	-0.038	-0.041
-216.567	-143.542	0.098	0.009
-215.552	-95.603	0.240	0.064
-214.538	56.167	-0.210	-0.201
-213.523	239.095	0.195	0.321
-212.509	-117.590	-0.205	0.037
-211.494	-68.407	-0.167	-0.064
-210.479	-132.170	0.212	0.027
-209.465	-23.119	-0.140	-0.084
-208.450	-95.397	0.314	0.083
-207.436	-200.000	-0.006	0.081
-206.421	-56.415	-0.343	-0.150
-205.406	-200.000	-0.027	0.213
-204.392	-189.963	-0.344	-0.004
-203.377	433.480	0.057	-0.122
-202.363	49.982	0.012	-0.011
-201.348	-193.147	-0.184	-0.002
-200.333	-70.636	0.093	0.035
-199.319	-200.000	0.011	-0.136
-198.304	-1.995	-0.354	0.246
-197.290	66.923	-0.024	0.024
-196.275	-79.769	0.145	-0.048
-195.260	74.767	-0.067	0.069
-194.246	223.163	0.171	0.272
-193.231	138.356	-0.121	0.156
-192.217	-15.038	0.274	0.174
-191.202	800.000	0.077	0.218
-190.187	-16.662	-0.324	-0.203
-189.173	-200.000	-0.003	0.031
-188.158	741.918	0.016	-0.042
-187.144	-94.678	-0.180	0.048
-186.129	265.662	0.009	0.015
-185.114	-129.383	0.339	-0.047
-184.100	136.139	0.185	-0.238
-183.085	-200.000	-0.016	0.115
-182.071	151.757	0.158	0.213
-181.056	22.692	0.050	-0.040
-180.042	170.708	0.241	0.341
-179.027	77.799	-0.192	-0.202
-178.012	-200.000	-0.049	0.231
-176.998	227.146	0.200	0.322
-175.983	800.000	0.098	-0.382
-174.969	-91.513	0.375	0.106
-173.954	-200.000	-0.034	-0.377
-172.939	140.807	0.177	-0.230
-171.925	-189.683	-0.050	-0.001
-170.910	-200.000	0.022	-0.250
-169.896	135.493	0.075	-0.096
-168.881	103.383	-0.340	-0.393
-167.866	-64.000	-0.306	0.123
-166.852	-81.901	0.438	0.141
-165.837	135.799	-0.132	-0.170
-164.823	181.241	-0.070	0.101
-163.808	37.416	0.275	-0.240
-162.793	21.935	0.345	-0.277
-161.779	-126.436	-0.265	-0.039
-160.764	51.165	-0.159	-0.149
-159.750	381.865	0.076	0.154
-158.735	-111.745	-0.300	0.060
-157.720	-152.068	0.254	0.018
-156.706	-110.421	0.567	0.116
-155.691	800.000	0.050	0.192
-154.677	-200.000	0.055	0.338
-153.662	-35.717	0.300	-0.160
-152.647	181.176	0.070	0.101
-151.633	75.484	-0.218	-0.227
-150.618	91.659	-0.220	0.244
-149.604	-115.553	0.221	0.041
-148.589	-70.169	0.059	0.022
-147.574	800.000	-0.087	-0.281
-146.560	-200.000	-0.019	-0.186
-145.545	-109.582	0.192	-0.040
-144.531	800.000	0.022	0.060
-143.516	-135.743	0.262	0.031
-142.502	-103.915	0.466	-0.107
-141.487	-53.789	-0.279	0.126
-140.472	156.113	0.109	-0.148
-139.458	190.478	0.100	-0.148
-138.443	-26.577	0.205	-0.118
-137.429	375.573	0.120	-0.240
-136.414	-103.317	-0.299	-0.070
-135.399	166.600	-0.105	0.147
-134.385	568.283	0.044	-0.105
-133.370	93.060	0.100	-0.111
-132.356	-179.652	0.228	-0.005
-131.341	-117.038	0.329	-0.059
-130.326	-51.582	-0.399	-0.184
-129.312	-52.683	-0.076	0.035
-128.297	303.329	0.120	0.219
-127.283	-184.035	0.155	0.003
-126.268	-122.320	-0.148	-0.024
-125.253	57.764	0.181	0.174
-124.239	504.406	0.099	0.225
-123.224	109.580	-0.120	-0.141
-122.210	-18.301	-0.135	-0.083
-121.195	-200.000	0.020	0.123
-120.180	240.578	-0.118	-0.194
-119.166	-104.799	0.207	-0.047
-118.151	19.058	-0.215	-0.170
-117.137	-45.803	-0.303	-0.147
-116.122	32.436	0.173	0.147
-115.107	-31.066	0.194	0.108
-114.093	616.492	0.090	-0.222
-113.078	92.968	-0.156	-0.174
-112.064	-105.088	-0.298	-0.067
-111.049	-86.766	0.107	0.032
-110.034	311.135	0.149	0.275
-109.020	238.377	0.136	0.223
-108.005	313.935	-0.012	-0.023
-106.991	113.297	0.093	0.111
-105.976	800.000	-0.108	0.342
-104.962	-200.000	-0.067	0.339
-103.947	-119.431	0.112	0.019
-102.932	642.318	-0.083	-0.209
-101.918	176.891	0.137	-0.196
-100.903	-25.526	-0.054	0.031
-99.889	144.005	-0.153	0.201
-98.874	108.125	0.280	0.328
-97.859	223.218	0.099	-0.157
-96.845	179.305	-0.055	-0.079
-95.830	93.101	0.103	0.114
-94.816	-83.555	0.337	-0.106
-93.801	535.574	-0.113	0.265
-92.786	164.763	0.098	0.136
-91.772	-200.000	0.032	0.222
-90.757	-51.849	-0.225	-0.103
-89.743	10.522	0.123	-0.093
-88.728	-200.000	-0.009	-0.043
-87.713	-103.219	0.245	-0.057
-86.699	-200.000	0.024	0.451
-85.684	-187.199	-0.256	0.003
-84.670	21.873	0.249	-0.200
-83.655	-161.958	0.232	-0.012
-82.640	302.595	0.142	0.258
-81.626	150.524	-0.157	-0.210
-80.611	-190.298	-0.209	0.002
-79.597	800.000	-0.117	0.455
-78.582	303.419	0.088	0.160
-77.567	-105.335	-0.036	-0.008
-76.553	-89.920	0.178	-0.051
-75.538	95.688	-0.105	-0.118
-74.524	324.769	0.027	0.051
-73.509	-60.457	-0.154	0.064
-72.494	-12.705	-0.200	0.128
-71.480	97.175	-0.217	-0.245
-70.465	-136.371	-0.250	-0.029
-69.451	-94.279	0.343	0.092
-68.436	-200.000	0.030	0.298
-67.422	-43.103	0.143	-0.071
-66.407	185.761	-0.168	-0.246
-65.392	-7.326	0.062	0.041
-64.378	800.000	0.037	0.103
-63.363	367.349	-0.092	-0.182
-62.349	161.596	-0.076	0.104
-61.334	74.005	-0.739	-0.763
-60.319	114.909	0.510	0.612
-59.305	619.410	-0.380	-0.939
-58.290	163.339	0.750	1.037
-57.276	800.000	0.538	1.562
-56.261	-200.000	92.012	552.359
-55.246	562.364	1359.126	3231.853
-54.232	160.778	2548.599	3497.595
-53.217	108.264	2282.492	2675.972
-52.203	44.297	1911.376	1724.040
-51.188	38.309	1704.458	1491.827
-50.173	35.553	1660.792	1433.023
-49.159	52.521	1705.363	1599.959
-48.144	55.107	1722.228	1635.234
-47.130	37.978	1683.263	1470.549
-46.115	35.045	1669.320	1436.342
-45.100	34.912	1664.171	1430.864
-44.086	34.958	1661.692	1429.015
-43.071	34.877	1659.164	1426.182
-42.057	34.822	1657.236	1424.055
-41.042	34.901	1655.156	1422.802
-40.027	34.915	1652.957	1420.955
-39.013	34.924	1650.875	1419.176
-37.998	34.881	1649.778	1417.859
-36.984	35.003	1647.910	1417.101
-35.969	35.089	1646.142	1416.161
-34.954	35.120	1644.488	1414.909
-33.940	35.011	1643.325	1413.050
-32.925	34.944	1641.447	1410.887
-31.911	35.043	1639.482	1409.871
-30.896	35.090	1637.643	1408.580
-29.881	34.976	1636.671	1406.850
-28.867	35.016	1634.538	1405.251
-27.852	35.075	1633.410	1404.662
-26.838	35.068	1631.724	1403.100
-25.823	35.050	1630.508	1401.871
-24.809	35.000	1629.220	1400.344
-23.794	35.102	1627.758	1399.774
-22.779	35.067	1626.078	1398.020
-21.765	35.058	1624.917	1396.896
-20.750	35.131	1623.048	1395.766
-19.736	35.082	1621.597	1394.109
-18.721	35.121	1620.195	1393.134
-17.706	35.204	1618.361	1392.103
-16.692	35.064	1617.234	1390.065
-15.677	35.089	1615.590	1388.772
-14.663	35.130	1614.114	1387.748
-13.648	35.166	1612.619	1386.672
-12.633	35.123	1612.066	1385.829
-11.619	35.101	1609.920	1383.764
-10.604	35.148	1608.543	1382.870
-9.590	35.120	1607.114	1381.386
-8.575	35.152	1605.620	1380.275
-7.560	34.992	1605.272	1378.771
-6.546	35.173	1603.321	1378.338
-5.531	35.066	1602.536	1376.839
-4.517	35.142	1600.873	1375.906
-3.502	35.103	1600.118	1374.920
-2.487	35.158	1598.697	1374.040
-1.473	34.307	1585.576	1356.649
-0.458	29.603	1562.106	1303.419
0.556	22.417	1557.819	1252.081
1.571	18.751	1578.429	1242.063
2.586	17.729	1590.764	1244.208
3.600	15.862	1539.259	1190.625
4.615	9.141	1432.658	1063.686
5.629	2.076	1366.941	970.028
6.644	0.381	1358.934	953.551
7.659	0.233	1357.843	951.768
8.673	0.188	1356.520	950.469
9.688	0.178	1354.922	949.201
10.702	0.099	1351.917	946.514
11.717	3.278	1356.834	969.923
12.731	10.953	1368.434	1026.733
13.746	16.395	1376.296	1066.994
14.761	17.220	1375.726	1071.663
15.775	16.468	1373.521	1065.115
16.790	15.383	1371.195	1056.387
17.804	14.589	1368.995	1049.611
18.819	14.159	1367.691	1045.811
19.834	13.918	1365.570	1042.589
20.848	13.652	1365.075	1040.445
21.863	13.326	1363.962	1037.462
22.877	13.306	1362.569	1036.182
23.892	13.171	1361.727	1034.607
24.907	13.257	1360.596	1034.195
25.921	13.284	1359.123	1033.154
26.936	13.243	1358.894	1032.629
27.950	13.467	1357.780	1033.091
28.965	13.352	1356.950	1031.649
29.980	13.468	1355.514	1031.191
30.994	13.449	1354.992	1030.584
32.009	13.430	1354.224	1029.789
33.023	13.504	1352.861	1029.121
34.038	13.527	1351.309	1027.990
35.053	13.411	1350.104	1026.269
36.067	13.429	1349.188	1025.590
37.082	13.475	1348.272	1025.091
38.096	13.476	1347.710	1024.577
39.111	13.394	1346.820	1023.301
40.126	13.383	1345.757	1022.336
41.140	13.327	1344.878	1021.235
42.155	13.261	1344.838	1020.704
43.169	13.163	1344.657	1019.871
44.184	13.230	1344.094	1019.766
45.199	13.223	1343.975	1019.543
46.213	13.387	1342.824	1019.593
47.228	13.275	1342.017	1018.200
48.242	13.246	1341.096	1017.231
49.257	13.291	1339.502	1016.211
50.271	13.379	1337.814	1015.377
51.286	13.346	1336.750	1014.278
52.301	13.365	1335.441	1013.310
53.315	13.283	1334.323	1011.874
54.330	13.306	1333.090	1010.987
55.344	13.346	1332.246	1010.506
56.359	13.248	1331.183	1009.010
57.374	13.237	1330.141	1008.065
58.388	13.211	1329.755	1007.524
59.403	13.180	1329.313	1006.907
60.417	13.172	1328.227	1005.950
61.432	13.108	1327.629	1005.016
62.447	13.058	1326.480	1003.753
63.461	13.095	1325.471	1003.127
64.476	13.077	1324.417	1002.130
65.490	13.177	1323.100	1001.656
66.505	13.145	1321.236	999.959
67.520	13.146	1320.404	999.250
68.534	13.241	1318.741	998.475
69.549	13.238	1317.997	997.804
70.563	13.186	1316.508	996.276
71.578	13.005	1316.167	994.838
72.593	13.154	1314.582	994.451
73.607	13.100	1313.803	993.448
74.622	13.187	1313.056	993.320
75.636	13.044	1312.089	991.641
76.651	13.047	1311.591	991.193
77.666	13.134	1311.237	991.359
78.680	13.058	1311.166	990.762
79.695	13.055	1309.685	989.541
80.709	13.168	1308.854	989.501
81.724	13.111	1308.312	988.659
82.739	13.205	1307.439	988.475
83.753	13.115	1306.300	986.986
84.768	13.403	1304.798	987.484
85.782	13.366	1303.689	986.337
86.797	13.277	1302.616	984.910
87.812	13.197	1301.389	983.421
88.826	13.201	1300.458	982.652
89.841	13.300	1299.459	982.400
90.855	13.285	1298.289	981.340
91.870	13.353	1297.081	980.741
92.884	13.374	1296.615	980.428
93.899	13.385	1295.889	979.857
94.914	13.369	1295.128	979.097
95.928	13.364	1294.414	978.445
96.943	13.398	1293.107	977.567
97.957	13.330	1292.383	976.535
98.972	13.435	1291.152	976.137
99.987	13.363	1290.169	974.881
101.001	13.401	1289.313	974.372
102.016	13.299	1288.403	973.002
103.030	13.369	1287.592	972.712
104.045	13.321	1286.848	971.781
105.060	13.334	1285.695	970.901
106.074	13.296	1284.375	969.599
107.089	13.236	1282.848	968.008
108.103	13.232	1281.583	966.946
109.118	13.280	1280.502	966.324
110.133	13.194	1279.193	964.748
111.147	13.221	1277.680	963.679
112.162	13.235	1276.632	962.884
113.176	13.326	1275.098	962.169
114.191	13.391	1274.560	962.057
115.206	13.333	1273.858	961.105
116.220	13.303	1272.207	959.599
117.235	13.241	1271.241	958.431
118.249	13.255	1270.476	957.846
119.264	13.272	1269.477	957.107
120.279	13.318	1268.469	956.530
121.293	13.238	1267.219	955.040
122.308	13.239	1266.378	954.330
123.322	13.240	1265.373	953.493
124.337	13.216	1264.448	952.574
125.352	13.268	1262.732	951.497
126.366	13.208	1262.122	950.608
127.381	13.341	1260.838	950.317
128.395	13.192	1260.471	949.104
129.410	13.231	1259.358	948.405
130.424	13.259	1258.234	947.633
131.439	13.316	1257.093	947.019
132.454	13.249	1256.712	946.265
133.468	13.267	1255.626	945.466
134.483	13.332	1254.628	944.999
135.497	13.392	1253.231	944.209
136.512	13.336	1252.134	942.976
137.527	13.327	1250.835	941.866
138.541	13.328	1249.657	940.902
139.556	13.286	1248.126	939.427
140.570	13.305	1247.463	938.949
141.585	13.425	1245.704	938.227
142.600	13.479	1244.570	937.595
143.614	13.494	1244.149	937.278
144.629	13.591	1242.979	936.863
145.643	13.372	1242.107	934.884
146.658	13.405	1240.854	934.046
147.673	13.367	1239.237	932.533
148.687	13.373	1237.804	931.404
149.702	13.432	1236.444	930.628
150.716	13.371	1235.709	929.654
151.731	13.342	1234.332	928.370
152.746	13.363	1233.189	927.546
153.760	13.427	1231.409	926.482
154.775	13.483	1230.171	925.782
155.789	13.433	1229.531	924.939
156.804	13.465	1228.593	924.331
157.819	13.503	1227.398	923.564
158.833	13.558	1226.257	922.928
159.848	13.734	1225.132	922.983
160.862	13.686	1224.132	921.881
161.877	13.633	1223.247	920.837
162.892	13.515	1222.218	919.327
163.906	13.468	1221.863	918.717
164.921	13.434	1220.675	917.552
165.935	13.586	1219.620	917.519
166.950	13.446	1219.323	916.442
167.964	13.544	1218.281	916.118
168.979	13.472	1217.876	915.333
169.994	13.634	1217.118	915.580
171.008	13.713	1215.657	914.836
172.023	13.699	1215.361	914.452
173.037	13.744	1214.470	913.950
174.052	13.615	1213.802	912.655
175.067	13.678	1212.436	911.898
176.081	13.509	1211.426	910.127
177.096	13.667	1210.402	910.143
178.110	13.613	1209.524	909.110
179.125	13.695	1208.461	908.675
180.140	13.617	1207.038	907.102
181.154	13.708	1206.012	906.744
182.169	13.667	1204.833	905.557
183.183	13.784	1203.600	905.187
184.198	13.755	1202.763	904.322
185.213	13.798	1201.317	903.385
186.227	13.727	1200.416	902.246
187.242	13.848	1199.213	901.917
188.256	13.805	1198.698	901.215
189.271	13.960	1196.809	900.559
190.286	13.745	1196.649	899.192
191.300	13.745	1195.137	897.975
192.315	13.650	1194.847	897.163
193.329	13.575	1194.486	896.408
194.344	13.784	1193.467	896.694
195.359	13.851	1192.704	896.404
196.373	13.889	1192.166	896.125
197.388	13.862	1191.972	895.752
198.402	13.959	1191.291	895.687
199.417	13.977	1190.945	895.445
200.432	13.894	1190.397	894.507
201.446	14.047	1189.154	894.312
202.461	14.245	1187.357	893.950
203.475	14.097	1186.905	892.736
204.490	14.063	1186.017	891.802
205.504	14.038	1184.464	890.424
206.519	14.089	1183.514	889.901
207.534	13.948	1182.672	888.439
208.548	14.084	1181.396	888.125
209.563	14.158	1180.553	887.812
210.577	14.143	1179.450	886.820
211.592	14.162	1178.636	886.235
212.607	14.206	1177.840	885.790
213.621	14.198	1177.360	885.306
214.636	14.232	1176.448	884.722
215.650	14.190	1175.232	883.507
216.665	14.133	1174.825	882.821
217.680	14.288	1173.862	882.844
218.694	14.259	1172.958	881.932
219.709	14.295	1172.208	881.478
220.723	14.249	1171.352	880.515
221.738	14.294	1170.595	880.106
222.753	14.147	1170.420	879.116
223.767	14.334	1168.893	878.881
224.782	14.242	1168.757	878.213
225.796	14.323	1168.168	878.121
226.811	14.492	1167.295	878.276
227.826	14.345	1166.753	877.020
228.840	14.406	1165.640	876.425
229.855	14.443	1165.066	876.113
230.869	14.390	1164.612	875.415
231.884	14.400	1163.580	874.615
232.899	14.415	1162.605	873.882
233.913	14.347	1162.264	873.190
234.928	14.342	1161.607	872.596
235.942	14.373	1160.412	871.784
236.957	14.362	1159.922	871.281
237.972	14.343	1159.310	870.644
238.986	14.424	1158.700	870.530
240.001	14.409	1158.037	869.880
241.015	14.509	1156.738	869.344
242.030	14.499	1156.191	868.808
243.045	14.545	1155.409	868.381
244.059	14.505	1154.679	867.548
245.074	14.531	1153.628	866.815
246.088	14.602	1152.579	866.321
247.103	14.599	1152.067	865.841
248.117	14.559	1151.831	865.382
249.132	14.821	1150.660	865.781
250.147	14.647	1150.385	864.597
251.161	14.720	1149.618	864.322
252.176	14.864	1148.478	864.135
253.190	14.847	1148.040	863.638
254.205	14.845	1147.585	863.211
255.220	14.893	1146.976	862.925
256.234	15.009	1145.960	862.678
257.249	14.941	1145.312	861.766
258.263	14.930	1144.836	861.275
259.278	14.970	1144.428	861.100
260.293	14.973	1143.800	860.564
261.307	14.962	1143.149	859.944
262.322	15.005	1142.491	859.592
263.336	14.969	1141.806	858.817
264.351	15.041	1141.270	858.707
265.366	14.927	1141.189	857.982
266.380	15.058	1139.984	857.673
267.395	14.987	1139.047	856.529
268.409	15.014	1138.404	856.108
269.424	15.112	1137.700	856.002
270.439	15.058	1137.317	855.363
271.453	14.975	1136.397	854.174
272.468	14.910	1135.810	853.326
273.482	15.113	1134.726	853.466
274.497	15.101	1134.553	853.202
275.512	15.042	1133.626	852.130
276.526	15.100	1132.884	851.790
277.541	15.040	1132.109	850.828
278.555	15.059	1131.433	850.340
279.570	15.193	1130.635	850.345
280.585	15.246	1129.915	849.999
281.599	15.269	1128.785	849.190
282.614	15.163	1128.259	848.181
283.628	15.254	1127.161	847.745
284.643	15.193	1126.203	846.640
285.657	15.166	1125.381	845.810
286.672	15.221	1124.375	845.256
287.687	15.349	1123.437	845.120
288.701	15.226	1123.344	844.357
289.716	15.315	1122.098	843.795
290.730	15.345	1120.940	842.999
291.745	15.477	1120.340	843.135
292.760	15.423	1119.712	842.316
293.774	15.486	1119.343	842.280
294.789	15.449	1118.707	841.545
295.803	15.431	1118.140	840.950
296.818	15.466	1117.265	840.394
297.833	15.391	1117.055	839.786
298.847	15.459	1115.891	839.178
299.862	15.478	1115.481	838.888
300.876	15.345	1115.163	837.912
301.891	15.558	1113.833	837.901
302.906	15.608	1113.255	837.641
303.920	15.548	1112.360	836.594
304.935	15.698	1111.675	836.754
305.949	15.708	1111.002	836.222
306.964	15.616	1110.372	835.217
307.979	15.622	1109.648	834.626
308.993	15.691	1108.992	834.403
310.008	15.595	1108.702	833.635
311.022	15.742	1107.510	833.393
312.037	15.734	1106.300	832.370
313.052	15.812	1105.408	832.007
314.066	15.714	1104.834	831.021
315.081	15.700	1103.687	830.016
316.095	15.826	1103.012	830.054
317.110	15.657	1102.771	828.965
318.125	15.627	1102.017	828.177
319.139	15.646	1101.729	827.982
320.154	15.780	1100.622	827.736
321.168	15.730	1099.754	826.762
322.183	15.788	1099.367	826.685
323.197	15.710	1098.865	825.852
324.212	15.772	1098.392	825.728
325.227	15.789	1097.739	825.247
326.241	15.794	1096.853	824.532
327.256	15.775	1096.330	823.974
328.270	15.712	1095.336	822.843
329.285	15.876	1094.322	822.813
330.300	15.858	1093.478	822.018
331.314	15.841	1092.662	821.248
332.329	15.901	1091.598	820.669
333.343	15.877	1090.936	819.979
334.358	15.878	1090.033	819.236
335.373	15.885	1089.141	818.527
336.387	15.886	1088.835	818.227
337.402	15.907	1087.669	817.380
338.416	16.138	1086.558	817.594
339.431	15.992	1086.273	816.599
340.446	16.029	1085.881	816.411
341.460	16.059	1085.207	815.977
342.475	16.185	1083.971	815.584
343.489	16.243	1083.241	815.242
344.504	16.240	1082.336	814.476
345.519	16.198	1081.698	813.723
346.533	16.203	1080.915	813.085
347.548	16.246	1079.933	812.482
348.562	16.337	1079.145	812.255
349.577	16.120	1078.980	811.014
350.592	16.120	1077.856	810.097
351.606	16.166	1077.005	809.610
352.621	16.181	1076.348	809.112
353.635	16.160	1075.881	808.592
354.650	16.149	1075.753	808.369
355.665	16.026	1074.912	807.076
356.679	16.233	1073.691	807.081
357.694	16.259	1073.217	806.775
358.708	16.280	1072.602	806.345
359.723	16.252	1072.205	805.837
360.738	16.275	1071.615	805.432
361.752	16.399	1070.780	805.325
362.767	16.504	1069.927	805.112
363.781	16.350	1069.712	804.148
364.796	16.372	1069.508	804.030
365.810	16.536	1068.349	803.866
366.825	16.453	1067.976	803.119
367.840	16.576	1067.202	803.048
368.854	16.492	1067.071	802.480
369.869	16.633	1065.996	802.269
370.883	16.606	1064.901	801.248
371.898	16.574	1064.299	800.571
372.913	16.615	1063.427	800.039
373.927	16.611	1063.014	799.639
374.942	16.678	1062.439	799.450
375.956	16.767	1062.099	799.546
376.971	16.634	1061.759	798.590
377.986	16.676	1061.089	798.215
379.000	16.804	1060.486	798.293
380.015	16.762	1060.085	797.723
381.029	16.855	1059.183	797.410
382.044	16.746	1058.840	796.572
383.059	16.763	1057.826	795.815
384.073	16.849	1057.177	795.660
385.088	16.894	1056.235	795.095
386.102	16.713	1055.443	793.581
387.117	16.732	1054.894	793.186
388.132	16.802	1053.634	792.496
389.146	16.738	1052.966	791.625
390.161	16.735	1052.197	790.960
391.175	16.768	1051.386	790.435
392.190	16.758	1050.834	789.904
393.205	16.862	1050.205	789.847
394.219	16.917	1049.315	789.364
395.234	16.959	1048.426	788.820
396.248	16.854	1047.534	787.591
397.263	16.828	1046.493	786.618
398.278	16.801	1045.786	785.891
399.292	16.815	1045.448	785.632
400.307	16.862	1044.437	785.022
401.321	16.825	1043.947	784.412
402.336	16.970	1043.011	784.308
403.350	16.960	1042.515	783.822
404.365	16.890	1041.668	782.793
405.380	16.901	1041.080	782.329
406.394	17.207	1040.320	783.100
407.409	17.098	1039.502	781.915
408.423	17.031	1039.020	781.176
409.438	17.123	1037.972	780.738
410.453	17.026	1037.632	779.970
411.467	17.011	1037.062	779.402
412.482	17.281	1036.266	779.976
413.496	17.204	1035.440	778.930
414.511	17.215	1034.595	778.279
415.526	17.231	1034.674	778.341
416.540	17.288	1034.299	778.249
417.555	17.283	1033.779	777.767
418.569	17.394	1032.850	777.509
419.584	17.543	1032.053	777.520
420.599	17.363	1032.146	776.696
421.613	100.719	1316.386	1449.591
422.628	92.243	1357.765	1449.697
