DTS Sentinel unit serial number:	SN413079Multiplexer serial number:	ORYXHardware model number:	OX4-SRSoftware version number:	ORYX F/W v4.00 Oryx Data Collector v3.7.2.0data status	okinstallation	princeton_trtdifferential loss correction	single-endedforward channel	channel 2reverse channel	N/Adate	2019/09/19time	03:47:35forward acquisition time	60.00reverse acquisition time	0.00gamma	496.2192k internal	0.2352k external	0.2352temperature offset calibration	1.0013default loss term (dB/km)	0.3790temperature slope calibration	1.0000multiplexer offset coefficient	1.0000multiplexer slope coefficient	1.0000fibre end	0.00T internal ref (°C)	20.50T ext. ref 1 (°C)	0.64T ext. ref 2 (°C)	14.31length (m)	temperature (°C)	Stokes	anti-Stokes-747.200	6.722	0.214	0.159
-746.185	-200.000	-0.030	0.270
-745.171	-129.600	-0.140	0.019
-744.156	129.354	-0.312	0.398
-743.142	-27.924	-0.074	-0.043
-742.127	-96.113	-0.136	0.036
-741.112	43.873	0.124	0.113
-740.098	102.932	-0.273	0.319
-739.083	-200.000	0.012	0.110
-738.069	257.225	0.173	0.296
-737.054	-200.000	0.006	0.122
-736.039	-65.770	-0.323	0.129
-735.025	-156.850	-0.143	-0.009
-734.010	800.000	0.082	0.331
-732.996	-78.272	-0.037	-0.013
-731.981	800.000	-0.097	-0.283
-730.966	253.937	-0.118	0.201
-729.952	37.217	-0.108	-0.096
-728.937	140.264	-0.128	0.169
-727.923	-152.043	0.158	-0.011
-726.908	-42.478	-0.052	0.027
-725.894	800.000	-0.178	-0.530
-724.879	800.000	-0.123	-0.469
-723.864	200.800	0.153	-0.235
-722.850	-131.059	0.052	0.007
-721.835	261.961	0.148	0.257
-720.821	-54.797	-0.365	0.164
-719.806	-55.327	0.121	0.054
-718.791	-21.576	-0.190	0.115
-717.777	-35.064	0.081	0.044
-716.762	147.322	-0.013	0.017
-715.748	-200.000	0.011	0.317
-714.733	-66.029	-0.191	-0.076
-713.718	-66.123	-0.153	-0.061
-712.704	75.592	-0.140	-0.148
-711.689	146.029	-0.297	-0.397
-710.675	99.355	0.277	-0.319
-709.660	26.430	-0.266	-0.221
-708.645	115.619	0.190	-0.231
-707.631	-124.411	-0.535	0.083
-706.616	-200.000	0.005	0.195
-705.602	109.855	-0.112	-0.134
-704.587	-200.000	-0.031	-0.194
-703.572	-67.826	-0.272	0.106
-702.558	-200.000	0.173	0.000
-701.543	74.044	-0.110	-0.115
-700.529	252.406	-0.067	-0.113
-699.514	-164.428	-0.076	-0.003
-698.499	-88.441	-0.273	0.081
-697.485	123.733	0.112	0.140
-696.470	-57.201	0.562	0.246
-695.456	156.213	-0.077	0.106
-694.441	-86.870	0.148	0.045
-693.426	6.471	-0.200	-0.148
-692.412	-200.000	-0.075	-0.386
-691.397	-112.780	-0.179	-0.035
-690.383	800.000	0.063	-0.239
-689.368	800.000	-0.068	-0.274
-688.354	601.463	-0.034	0.085
-687.339	-183.226	0.311	0.005
-686.324	-79.121	-0.155	0.052
-685.310	20.712	-0.074	-0.059
-684.295	800.000	-0.062	0.250
-683.281	465.159	0.118	-0.262
-682.266	-200.000	0.007	0.189
-681.251	-56.925	-0.221	0.097
-680.237	800.000	0.080	0.316
-679.222	-55.397	-0.201	-0.090
-678.208	-42.099	-0.212	0.108
-677.193	-200.000	0.000	-0.266
-676.178	800.000	0.095	-0.371
-675.164	86.138	0.339	-0.371
-674.149	133.155	-0.286	-0.368
-673.135	-54.801	0.081	-0.036
-672.120	800.000	0.041	0.112
-671.105	85.722	-0.077	-0.084
-670.091	713.493	-0.105	0.277
-669.076	-137.972	0.126	-0.014
-668.062	180.208	0.098	0.143
-667.047	120.883	0.200	-0.247
-666.032	23.051	-0.226	-0.185
-665.018	-192.620	-0.124	0.001
-664.003	-200.000	-0.027	-0.242
-662.989	-123.946	-0.415	-0.065
-661.974	378.417	0.025	-0.051
-660.959	356.066	-0.113	-0.224
-659.945	-74.868	0.206	-0.074
-658.930	547.316	-0.056	-0.134
-657.916	-16.064	0.107	0.068
-656.901	536.728	-0.081	0.191
-655.886	21.450	-0.143	-0.115
-654.872	800.000	0.139	-0.428
-653.857	590.459	0.157	0.386
-652.843	-68.962	0.258	-0.099
-651.828	176.905	0.203	-0.294
-650.814	-200.000	0.057	-0.378
-649.799	193.692	0.088	0.132
-648.784	800.000	-0.070	0.271
-647.770	540.894	0.108	-0.255
-646.755	184.614	0.152	-0.224
-645.741	-107.783	-0.222	0.048
-644.726	-200.000	0.065	-0.438
-643.711	-142.652	0.183	0.018
-642.697	800.000	-0.073	0.276
-641.682	-23.310	0.017	0.010
-640.668	-90.342	-0.193	0.056
-639.653	-200.000	-0.014	0.276
-638.638	26.966	-0.202	0.168
-637.624	81.037	0.122	0.131
-636.609	-200.000	0.004	0.104
-635.595	-200.000	-0.003	0.028
-634.580	76.661	-0.096	-0.101
-633.565	41.965	-0.192	0.173
-632.551	25.825	0.104	0.086
-631.536	800.000	0.162	0.535
-630.522	356.782	-0.067	-0.132
-629.507	-200.000	0.063	-0.276
-628.492	-200.000	0.014	-0.422
-627.478	-93.006	0.222	0.062
-626.463	-88.139	-0.392	0.117
-625.449	40.328	0.140	0.125
-624.434	800.000	0.098	0.276
-623.419	800.000	0.097	0.375
-622.405	-112.071	0.095	-0.019
-621.390	-0.416	-0.032	-0.023
-620.376	-83.541	-0.483	-0.154
-619.361	135.210	0.168	-0.217
-618.346	-200.000	-0.029	0.257
-617.332	-14.806	0.028	0.018
-616.317	800.000	-0.054	0.156
-615.303	-200.000	0.018	-0.097
-614.288	-134.578	0.103	-0.013
-613.273	375.495	0.220	-0.445
-612.259	130.338	0.107	-0.136
-611.244	-137.272	0.309	-0.035
-610.230	-200.000	-0.008	-0.124
-609.215	10.516	-0.210	-0.159
-608.201	-200.000	-0.036	-0.275
-607.186	-62.515	0.128	0.053
-606.171	-21.060	-0.259	0.157
-605.157	-64.036	-0.306	-0.124
-604.142	113.195	-0.069	-0.083
-603.128	-166.526	-0.497	0.021
-602.113	302.896	-0.097	0.178
-601.098	-200.000	-0.016	-0.334
-600.084	43.872	-0.154	0.140
-599.069	34.143	-0.181	-0.157
-598.055	501.753	0.109	0.250
-597.040	-41.028	-0.112	0.057
-596.025	800.000	0.070	-0.257
-595.011	-10.541	0.189	0.124
-593.996	-107.360	-0.202	-0.044
-592.982	-148.963	-0.113	0.009
-591.967	-177.189	-0.026	-0.001
-590.952	-42.049	-0.205	0.104
-589.938	421.389	0.120	-0.254
-588.923	190.324	0.220	-0.328
-587.909	18.178	-0.173	-0.137
-586.894	-99.420	0.120	0.030
-585.879	-42.851	0.188	0.095
-584.865	-89.305	0.357	-0.104
-583.850	-49.189	-0.329	-0.156
-582.836	152.023	-0.057	-0.077
-581.821	92.848	-0.105	0.118
-580.806	-99.458	-0.335	0.084
-579.792	800.000	0.077	0.274
-578.777	-36.913	-0.328	-0.175
-577.763	73.814	-0.097	-0.101
-576.748	-122.364	-0.387	0.063
-575.733	-24.535	-0.166	-0.098
-574.719	-200.000	-0.033	0.413
-573.704	300.964	-0.099	-0.182
-572.690	-22.896	0.125	-0.074
-571.675	89.484	-0.218	-0.241
-570.661	-151.430	-0.043	-0.003
-569.646	800.000	0.084	0.312
-568.631	-17.185	0.182	-0.114
-567.617	-148.227	-0.412	-0.034
-566.602	-180.402	-0.193	0.004
-565.588	-64.760	-0.169	-0.068
-564.573	-38.746	0.011	-0.006
-563.558	416.028	0.056	0.118
-562.544	-128.508	0.482	0.068
-561.529	-200.000	-0.025	-0.141
-560.515	253.453	-0.091	0.154
-559.500	-200.000	-0.008	0.140
-558.485	75.966	-0.067	-0.070
-557.471	-167.545	0.271	-0.011
-556.456	-49.369	0.201	-0.095
-555.442	-200.000	0.007	-0.072
-554.427	-35.816	-0.296	-0.159
-553.412	502.925	-0.028	-0.063
-552.398	-200.000	-0.013	0.337
-551.383	91.215	0.260	-0.289
-550.369	-146.891	-0.136	-0.012
-549.354	800.000	-0.129	0.381
-548.339	-40.758	0.234	-0.120
-547.325	-148.026	-0.197	-0.016
-546.310	-54.425	0.176	-0.079
-545.296	229.185	-0.150	-0.243
-544.281	6.715	-0.061	0.045
-543.266	800.000	0.050	0.171
-542.252	754.226	0.057	0.154
-541.237	800.000	0.156	0.460
-540.223	-31.380	0.255	-0.142
-539.208	-200.000	-0.058	-0.282
-538.193	800.000	-0.081	-0.292
-537.179	-200.000	0.037	0.213
-536.164	9.244	-0.434	-0.325
-535.150	-200.000	0.004	0.282
-534.135	-25.172	-0.148	-0.087
-533.121	224.540	0.054	0.087
-532.106	-167.866	-0.054	-0.002
-531.091	-175.960	0.030	-0.001
-530.077	1.522	0.046	-0.033
-529.062	415.295	0.084	-0.176
-528.048	102.147	0.207	-0.240
-527.033	-200.000	0.018	-0.166
-526.018	-79.159	0.071	-0.024
-525.004	38.776	-0.072	-0.063
-523.989	219.956	-0.098	0.155
-522.975	-200.000	-0.009	-0.158
-521.960	275.186	0.120	-0.211
-520.945	-110.514	0.271	-0.056
-519.931	800.000	-0.026	-0.076
-518.916	-139.682	0.068	-0.007
-517.902	800.000	-0.140	0.389
-516.887	83.007	-0.261	0.281
-515.872	-160.190	-0.216	-0.012
-514.858	-1.862	0.030	-0.021
-513.843	-200.000	-0.015	-0.100
-512.829	-137.319	0.188	-0.021
-511.814	465.624	-0.106	-0.234
-510.799	-95.221	-0.074	-0.020
-509.785	-95.015	-0.094	0.025
-508.770	132.375	0.068	0.087
-507.756	595.475	-0.019	-0.046
-506.741	389.102	0.082	-0.168
-505.726	245.879	-0.040	0.066
-504.712	7.378	0.449	0.332
-503.697	-17.275	0.232	0.145
-502.683	-105.450	0.511	-0.115
-501.668	614.373	0.124	-0.308
-500.653	-132.214	-0.194	-0.025
-499.639	1.114	0.354	0.251
-498.624	-143.992	0.181	-0.017
-497.610	-111.998	0.105	0.021
-496.595	64.183	0.013	0.013
-495.581	-86.751	0.269	0.081
-494.566	800.000	-0.054	-0.178
-493.551	-109.504	0.168	0.035
-492.537	608.877	0.092	-0.226
-491.522	-51.539	-0.206	0.095
-490.508	114.939	-0.083	-0.100
-489.493	-100.683	0.217	-0.053
-488.478	115.230	0.156	0.188
-487.464	176.228	-0.175	-0.251
-486.449	-102.284	0.145	0.034
-485.435	-149.633	0.493	0.038
-484.420	-200.000	0.039	-0.215
-483.405	33.812	0.098	-0.084
-482.391	-107.141	-0.193	0.042
-481.376	-197.128	0.066	0.000
-480.362	-41.765	-0.129	0.065
-479.347	-125.567	0.116	0.017
-478.332	529.413	0.068	-0.159
-477.318	-164.633	0.082	0.004
-476.303	-142.847	0.225	-0.022
-475.289	-85.309	0.183	-0.057
-474.274	65.418	-0.059	-0.059
-473.259	202.480	0.018	-0.028
-472.245	800.000	-0.041	0.131
-471.230	436.346	-0.163	-0.350
-470.216	28.717	-0.260	-0.217
-469.201	797.145	0.059	0.159
-468.186	-51.550	0.182	0.084
-467.172	-82.391	0.121	0.039
-466.157	-200.000	-0.019	-0.131
-465.143	-58.974	0.124	0.053
-464.128	800.000	-0.118	0.348
-463.113	-31.463	-0.081	0.045
-462.099	-51.889	0.258	0.118
-461.084	-74.637	-0.146	-0.052
-460.070	119.306	-0.121	-0.148
-459.055	-187.600	0.077	0.001
-458.040	551.226	0.076	-0.181
-457.026	-73.327	-0.165	0.060
-456.011	-200.000	0.044	0.234
-454.997	-90.751	-0.163	0.046
-453.982	142.055	-0.264	-0.345
-452.968	-41.824	-0.214	0.108
-451.953	-55.121	-0.011	-0.005
-450.938	-200.000	0.028	0.187
-449.924	-62.813	0.246	0.101
-448.909	211.743	0.246	-0.382
-447.895	-100.863	-0.146	-0.035
-446.880	-95.889	0.117	-0.031
-445.865	800.000	0.031	0.105
-444.851	586.796	0.124	-0.300
-443.836	770.090	0.010	0.026
-442.822	-200.000	0.074	0.000
-441.807	-134.427	0.160	0.019
-440.792	800.000	-0.018	0.075
-439.778	266.648	-0.166	0.285
-438.763	69.914	-0.128	-0.130
-437.749	-200.000	0.008	0.198
-436.734	800.000	0.022	0.066
-435.719	-43.815	-0.144	0.071
-434.705	-50.657	0.049	0.023
-433.690	800.000	-0.024	0.081
-432.676	117.803	0.090	0.109
-431.661	-200.000	0.005	0.387
-430.646	-200.000	-0.020	0.160
-429.632	-67.895	0.264	-0.101
-428.617	-109.805	-0.333	-0.069
-427.603	800.000	0.025	0.100
-426.588	-44.724	0.211	0.104
-425.573	-30.322	0.276	0.155
-424.559	330.503	0.018	0.034
-423.544	43.262	-0.338	0.304
-422.530	-28.412	0.202	-0.115
-421.515	-119.237	0.207	-0.036
-420.500	-53.944	-0.058	0.026
-419.486	-25.455	0.151	0.088
-418.471	508.208	-0.150	-0.342
-417.457	-196.568	-0.083	0.001
-416.442	-134.050	-0.084	0.010
-415.428	662.041	-0.099	0.253
-414.413	176.293	-0.200	0.286
-413.398	-45.927	-0.216	-0.105
-412.384	33.576	-0.093	0.079
-411.369	-24.252	0.096	0.056
-410.355	250.695	-0.057	0.095
-409.340	-127.011	0.092	0.013
-408.325	-200.000	-0.002	-0.408
-407.311	-57.922	-0.249	-0.107
-406.296	-94.076	0.108	0.029
-405.282	303.592	0.160	-0.291
-404.267	13.868	0.160	0.122
-403.252	728.989	-0.173	0.455
-402.238	-31.654	-0.040	-0.022
-401.223	-65.107	0.262	0.104
-400.209	-200.000	0.048	0.341
-399.194	-148.688	-0.155	0.012
-398.179	236.048	0.174	0.283
-397.165	34.231	-0.231	0.198
-396.150	-60.962	0.558	-0.232
-395.136	53.890	0.208	0.197
-394.121	-92.163	-0.226	-0.063
-393.106	-14.233	-0.129	-0.082
-392.092	-200.000	-0.018	0.254
-391.077	-200.000	0.018	-0.086
-390.063	800.000	-0.061	0.216
-389.048	24.540	0.189	0.153
-388.033	-92.136	-0.214	-0.059
-387.019	-46.118	0.190	0.092
-386.004	424.597	-0.066	0.141
-384.990	-87.933	-0.281	0.083
-383.975	207.450	0.198	-0.304
-382.960	-200.000	0.067	0.423
-381.946	-122.509	-0.126	-0.020
-380.931	-200.000	-0.044	0.262
-379.917	196.381	-0.149	0.223
-378.902	480.531	0.084	0.187
-377.888	-121.531	0.105	0.017
-376.873	-70.007	0.229	0.086
-375.858	20.464	0.062	0.050
-374.844	134.895	-0.200	0.255
-373.829	-18.495	-0.064	-0.039
-372.815	800.000	0.057	-0.190
-371.800	-142.945	0.190	-0.018
-370.785	-167.623	0.191	-0.007
-369.771	-59.473	-0.512	-0.216
-368.756	-157.632	-0.104	-0.006
-367.742	-178.460	-0.434	0.010
-366.727	-119.141	-0.426	0.073
-365.712	-200.000	0.014	0.195
-364.698	745.590	-0.051	0.135
-363.683	305.471	0.110	-0.200
-362.669	-200.000	-0.019	-0.347
-361.654	174.007	-0.187	0.265
-360.639	241.829	0.081	-0.132
-359.625	33.159	0.111	-0.095
-358.610	102.939	0.114	-0.131
-357.596	800.000	-0.112	0.330
-356.581	-26.961	-0.064	0.037
-355.566	573.975	-0.065	-0.156
-354.552	-6.761	-0.075	0.050
-353.537	-29.479	0.137	0.077
-352.523	-21.408	-0.346	-0.208
-351.508	-200.000	0.016	-0.366
-350.493	15.986	0.218	0.169
-349.479	800.000	-0.065	-0.200
-348.464	-200.000	0.011	-0.100
-347.450	13.411	0.161	0.122
-346.435	-93.934	0.059	0.016
-345.420	97.140	-0.135	0.152
-344.406	-200.000	0.004	0.119
-343.391	16.944	0.372	-0.290
-342.377	-200.000	0.010	-0.188
-341.362	7.105	-0.064	0.047
-340.348	-35.898	-0.078	-0.041
-339.333	43.380	-0.299	-0.268
-338.318	114.934	-0.147	-0.177
-337.304	231.076	0.070	-0.113
-336.289	3.174	0.100	0.071
-335.275	104.913	0.128	0.148
-334.260	43.680	-0.257	-0.231
-333.245	-101.459	0.325	-0.078
-332.231	-120.518	-0.201	0.033
-331.216	-188.427	0.533	-0.007
-330.202	-200.000	-0.020	-0.397
-329.187	-101.019	-0.206	0.050
-328.172	-104.454	-0.385	0.087
-327.158	-1.174	-0.099	-0.069
-326.143	-76.193	0.300	-0.104
-325.129	490.861	-0.028	0.063
-324.114	-99.382	0.040	-0.010
-323.099	800.000	-0.037	-0.150
-322.085	-7.528	-0.047	-0.031
-321.070	81.495	-0.182	0.193
-320.056	0.293	0.106	0.074
-319.041	-128.949	0.068	0.009
-318.026	-140.016	0.086	-0.009
-317.012	-19.158	-0.452	0.275
-315.997	800.000	0.046	-0.148
-314.983	105.502	-0.065	0.076
-313.968	4.403	0.096	0.069
-312.953	-192.812	0.063	0.001
-311.939	643.910	-0.072	-0.181
-310.924	-42.870	-0.097	-0.048
-309.910	512.126	-0.105	0.241
-308.895	-112.190	-0.172	-0.034
-307.880	-200.000	0.061	-0.327
-306.866	-28.968	0.117	0.066
-305.851	800.000	-0.048	-0.162
-304.837	800.000	0.091	-0.277
-303.822	324.564	-0.133	0.249
-302.807	85.482	0.264	0.284
-301.793	19.813	0.181	-0.143
-300.778	-10.882	0.272	0.176
-299.764	-200.000	0.006	0.070
-298.749	-87.793	-0.209	0.062
-297.735	0.434	0.102	-0.072
-296.720	272.841	-0.143	-0.247
-295.705	800.000	-0.077	-0.218
-294.691	-200.000	-0.012	0.073
-293.676	-8.546	0.121	-0.080
-292.662	-38.510	0.165	0.086
-291.647	800.000	0.127	0.422
-290.632	-200.000	-0.024	-0.159
-289.618	-49.930	-0.189	-0.088
-288.603	-90.027	-0.438	-0.125
-287.589	178.578	0.147	0.210
-286.574	-124.794	-0.029	-0.004
-285.559	173.443	0.168	0.238
-284.545	6.099	-0.052	-0.038
-283.530	800.000	0.119	0.330
-282.516	-200.000	0.028	0.157
-281.501	-136.416	0.240	0.027
-280.486	-108.335	-0.177	0.037
-279.472	-200.000	-0.039	-0.293
-278.457	-76.117	0.029	-0.010
-277.443	158.736	-0.133	-0.181
-276.428	-135.834	-0.193	0.022
-275.413	147.404	0.257	-0.339
-274.399	-200.000	-0.001	-0.207
-273.384	723.304	-0.094	0.244
-272.370	57.451	0.335	0.321
-271.355	-78.465	-0.359	-0.120
-270.340	-200.000	-0.025	0.145
-269.326	75.397	0.096	0.099
-268.311	-33.291	0.146	0.079
-267.297	437.835	0.096	-0.204
-266.282	-53.628	0.135	0.060
-265.267	-113.424	0.294	0.056
-264.253	-200.000	0.006	-0.306
-263.238	35.238	-0.130	-0.112
-262.224	208.161	-0.135	0.206
-261.209	-35.851	-0.078	0.041
-260.195	-62.667	0.133	0.054
-259.180	291.629	0.088	-0.156
-258.165	-50.685	-0.387	0.178
-257.151	-179.049	0.268	0.006
-256.136	-57.990	-0.096	-0.041
-255.122	289.479	0.066	0.117
-254.107	-140.103	-0.220	0.023
-253.092	800.000	0.083	0.304
-252.078	-16.901	0.239	0.148
-251.063	3.852	0.092	-0.066
-250.049	65.582	0.421	0.417
-249.034	-126.953	0.506	-0.073
-248.019	-7.988	-0.418	0.276
-247.005	-200.000	-0.029	0.385
-245.990	800.000	0.032	-0.106
-244.976	-135.875	0.245	-0.028
-243.961	-2.318	-0.234	0.161
-242.946	-98.112	0.376	-0.095
-241.932	-62.250	0.340	-0.139
-240.917	408.758	-0.099	-0.205
-239.903	487.332	-0.067	0.149
-238.888	165.741	0.078	-0.108
-237.873	800.000	-0.110	-0.394
-236.859	-144.973	0.356	-0.032
-235.844	-9.711	0.107	0.070
-234.830	800.000	-0.075	0.291
-233.815	-14.494	0.206	0.130
-232.800	-60.636	-0.070	0.029
-231.786	240.266	0.088	0.143
-230.771	9.454	0.147	-0.108
-229.757	-200.000	-0.000	0.010
-228.742	-72.961	-0.117	-0.042
-227.727	4.550	-0.182	0.131
-226.713	36.865	-0.205	-0.177
-225.698	800.000	0.052	0.204
-224.684	-123.864	0.348	0.054
-223.669	-6.890	0.101	0.067
-222.655	800.000	0.052	0.160
-221.640	260.858	0.173	-0.292
-220.625	-172.531	0.171	0.005
-219.611	451.267	-0.162	-0.350
-218.596	256.417	-0.063	0.106
-217.582	-200.000	-0.035	-0.237
-216.567	21.294	-0.246	-0.195
-215.552	197.970	0.154	0.230
-214.538	132.786	-0.186	0.235
-213.523	25.175	0.085	0.069
-212.509	-79.372	-0.293	0.097
-211.494	55.559	-0.287	-0.272
-210.479	214.109	-0.165	-0.255
-209.465	-29.633	0.289	-0.161
-208.450	-200.000	0.039	-0.230
-207.436	-91.913	-0.160	-0.044
-206.421	668.523	0.104	0.262
-205.406	-200.000	0.015	-0.142
-204.392	-200.000	0.052	-0.258
-203.377	-117.525	-0.322	-0.057
-202.363	800.000	-0.074	-0.280
-201.348	-88.715	0.355	-0.103
-200.333	28.619	-0.209	0.173
-199.319	-145.253	0.292	-0.026
-198.304	129.657	-0.128	0.160
-197.290	-200.000	0.048	0.225
-196.275	800.000	-0.127	-0.490
-195.260	396.913	-0.065	-0.133
-194.246	-99.029	0.271	0.067
-193.231	445.340	-0.071	0.153
-192.217	225.353	-0.164	-0.259
-191.202	-50.991	0.280	-0.128
-190.187	114.113	-0.068	0.081
-189.173	-147.493	-0.240	-0.020
-188.158	75.385	0.161	0.166
-187.144	-146.097	-0.170	0.015
-186.129	-130.413	-0.141	-0.019
-185.114	138.293	0.151	-0.193
-184.100	-83.911	0.148	0.046
-183.085	-94.926	-0.092	-0.024
-182.071	66.545	0.036	-0.035
-181.056	-200.000	0.017	-0.112
-180.042	11.326	0.102	0.076
-179.027	-200.000	0.033	0.391
-178.012	177.643	-0.081	0.115
-176.998	-200.000	-0.027	-0.195
-175.983	472.773	0.115	-0.254
-174.969	-81.915	0.180	0.058
-173.954	247.220	0.162	0.266
-172.939	-149.018	-0.460	-0.036
-171.925	-200.000	0.042	-0.350
-170.910	-200.000	-0.018	0.185
-169.896	-200.000	-0.024	0.104
-168.881	-38.943	-0.179	0.092
-167.866	-200.000	-0.013	0.130
-166.852	-200.000	0.032	0.154
-165.837	-73.168	0.119	-0.042
-164.823	51.661	-0.165	0.153
-163.808	33.573	0.265	-0.225
-162.793	-62.093	-0.162	-0.066
-161.779	-97.115	-0.382	0.097
-160.764	74.799	-0.191	0.196
-159.750	-170.971	-0.260	-0.009
-158.735	145.760	0.050	-0.066
-157.720	656.597	-0.128	-0.320
-156.706	-129.250	-0.077	-0.010
-155.691	-200.000	-0.001	-0.404
-154.677	-105.143	-0.065	-0.015
-153.662	800.000	0.049	-0.151
-152.647	800.000	-0.046	-0.180
-151.633	-2.737	-0.077	-0.053
-150.618	-200.000	0.019	-0.090
-149.604	-145.504	0.242	0.021
-148.589	-200.000	0.000	0.222
-147.574	800.000	-0.031	0.103
-146.560	211.411	0.100	-0.153
-145.545	315.011	-0.095	-0.174
-144.531	20.043	-0.252	0.198
-143.516	-98.106	0.208	-0.052
-142.502	-61.769	-0.209	-0.085
-141.487	-200.000	0.008	0.063
-140.472	-3.769	-0.270	-0.183
-139.458	-20.006	-0.240	-0.144
-138.443	-200.000	0.026	-0.309
-137.429	-23.267	0.202	0.118
-136.414	-7.933	-0.453	0.298
-135.399	-18.980	-0.087	-0.053
-134.385	800.000	-0.048	0.198
-133.370	13.130	-0.131	0.099
-132.356	800.000	0.036	0.120
-131.341	172.002	-0.103	-0.144
-130.326	-200.000	0.033	-0.331
-129.312	73.214	-0.080	0.081
-128.297	-6.662	-0.248	0.164
-127.283	261.428	-0.158	-0.267
-126.268	-30.272	-0.458	0.253
-125.253	-200.000	0.008	0.076
-124.239	129.636	-0.089	-0.111
-123.224	-67.842	0.345	-0.131
-122.210	-12.629	-0.225	-0.143
-121.195	-116.215	-0.259	0.047
-120.180	-132.539	0.372	-0.047
-119.166	-200.000	0.049	0.218
-118.151	433.064	-0.143	0.302
-117.137	614.911	0.044	-0.108
-116.122	579.287	-0.127	0.302
-115.107	800.000	0.021	0.072
-114.093	800.000	0.027	-0.079
-113.078	-200.000	-0.057	-0.306
-112.064	-177.867	-0.158	0.004
-111.049	289.925	0.033	0.058
-110.034	-122.093	0.193	-0.031
-109.020	-197.837	-0.185	-0.001
-108.005	94.668	0.064	-0.071
-106.991	3.407	-0.118	-0.084
-105.976	-28.482	-0.062	0.035
-104.962	400.986	0.129	0.263
-103.947	-61.814	0.241	0.098
-102.932	243.445	0.069	0.113
-101.918	154.572	-0.133	0.178
-100.903	-200.000	-0.040	-0.468
-99.889	-200.000	0.034	-0.490
-98.874	-76.340	0.243	-0.083
-97.859	-22.605	-0.307	-0.181
-96.845	-99.144	-0.185	-0.045
-95.830	-60.970	0.435	-0.179
-94.816	677.202	0.113	-0.287
-93.801	78.003	-0.194	-0.201
-92.786	-200.000	-0.053	-0.249
-91.772	117.223	0.184	0.219
-90.757	45.964	0.306	0.275
-89.743	-200.000	-0.021	-0.291
-88.728	75.940	-0.062	0.064
-87.713	446.537	0.043	-0.092
-86.699	-200.000	-0.006	0.048
-85.684	218.058	0.131	0.203
-84.670	-129.608	0.452	-0.061
-83.655	800.000	0.070	0.198
-82.640	143.249	0.069	-0.090
-81.626	235.480	0.204	-0.327
-80.611	-200.000	-0.048	0.330
-79.597	329.264	-0.090	0.168
-78.582	-130.095	0.363	0.048
-77.567	-97.673	0.113	-0.029
-76.553	170.413	-0.127	-0.177
-75.538	-40.450	0.412	0.208
-74.524	-200.000	-0.006	-0.118
-73.509	-84.679	-0.019	-0.006
-72.494	-89.865	0.027	-0.008
-71.480	-125.973	0.129	-0.019
-70.465	800.000	0.098	-0.328
-69.451	-60.617	0.391	0.161
-68.436	-200.000	-0.051	0.235
-67.422	-111.730	0.103	-0.020
-66.407	367.901	0.140	-0.274
-65.392	21.556	0.130	-0.103
-64.378	800.000	0.101	-0.321
-63.363	537.429	-0.042	-0.097
-62.349	-125.228	0.158	-0.023
-61.334	47.973	-1.438	-1.305
-60.319	74.319	0.808	0.824
-59.305	800.000	-0.442	-1.422
-58.290	318.340	0.986	1.812
-57.276	459.945	0.797	1.724
-56.261	-200.000	136.485	663.458
-55.246	337.846	1672.483	3158.642
-54.232	134.551	2808.948	3538.262
-53.217	80.245	2313.061	2416.512
-52.203	28.976	1911.621	1573.639
-51.188	23.457	1706.673	1362.582
-50.173	21.569	1669.096	1318.324
-49.159	43.043	1743.366	1543.734
-48.144	39.934	1751.838	1527.188
-47.130	23.033	1702.669	1355.920
-46.115	20.528	1687.638	1324.827
-45.100	20.431	1682.232	1319.791
-44.086	20.392	1679.727	1317.478
-43.071	20.519	1676.721	1316.031
-42.057	20.342	1675.275	1313.505
-41.042	20.319	1673.475	1311.871
-40.027	20.300	1672.217	1310.688
-39.013	20.332	1669.341	1308.623
-37.998	20.359	1668.337	1307.989
-36.984	20.478	1666.489	1307.379
-35.969	20.484	1665.571	1306.652
-34.954	20.495	1663.850	1305.337
-33.940	20.405	1662.154	1303.280
-32.925	20.429	1660.045	1301.755
-31.911	20.496	1658.602	1301.069
-30.896	20.475	1656.805	1299.451
-29.881	20.378	1655.681	1297.796
-28.867	20.471	1654.024	1297.134
-27.852	20.545	1652.322	1296.300
-26.838	20.561	1650.891	1295.247
-25.823	20.419	1649.913	1293.373
-24.809	20.500	1648.294	1292.656
-23.794	20.475	1647.239	1291.591
-22.779	20.550	1645.529	1290.751
-21.765	20.569	1643.857	1289.535
-20.750	20.585	1641.965	1288.117
-19.736	20.566	1641.002	1287.169
-18.721	20.600	1640.119	1286.678
-17.706	20.598	1638.091	1285.017
-16.692	20.619	1636.627	1283.972
-15.677	20.477	1635.682	1282.133
-14.663	20.526	1634.361	1281.410
-13.648	20.490	1632.631	1279.741
-12.633	20.537	1631.025	1278.778
-11.619	20.583	1629.478	1277.846
-10.604	20.594	1627.706	1276.493
-9.590	20.520	1626.760	1275.153
-8.575	20.534	1625.363	1274.108
-7.560	20.587	1624.261	1273.585
-6.546	20.519	1623.297	1272.280
-5.531	20.481	1622.384	1271.239
-4.517	20.500	1621.401	1270.552
-3.502	20.532	1619.557	1269.290
-2.487	20.536	1618.550	1268.486
-1.473	20.051	1605.787	1254.918
-0.458	17.147	1585.520	1218.232
0.556	12.522	1586.947	1186.274
1.571	10.294	1610.916	1187.751
2.586	10.206	1622.445	1195.499
3.600	9.917	1568.327	1153.459
4.615	5.761	1463.301	1048.373
5.629	1.417	1406.853	979.870
6.644	0.717	1399.999	970.510
7.659	0.625	1399.221	969.300
8.673	0.602	1398.661	968.674
9.688	0.637	1396.196	967.105
10.702	0.433	1392.763	963.340
11.717	2.562	1395.280	978.610
12.731	8.657	1403.849	1023.611
13.746	14.632	1413.239	1068.735
14.761	16.901	1416.540	1085.681
15.775	16.465	1414.995	1081.610
16.790	15.487	1412.311	1073.216
17.804	14.829	1409.380	1066.694
18.819	14.561	1408.140	1063.951
19.834	14.255	1406.775	1060.876
20.848	14.014	1405.809	1058.522
21.863	13.771	1404.569	1055.945
22.877	13.639	1402.779	1053.664
23.892	13.592	1401.707	1052.468
24.907	13.507	1401.653	1051.796
25.921	13.555	1400.226	1050.939
26.936	13.606	1399.595	1050.693
27.950	13.590	1398.872	1049.957
28.965	13.622	1397.738	1049.214
29.980	13.681	1396.565	1048.618
30.994	13.724	1395.646	1048.103
32.009	13.814	1394.509	1047.723
33.023	13.802	1393.471	1046.775
34.038	13.744	1392.233	1045.389
35.053	13.711	1391.010	1044.170
36.067	13.758	1389.965	1043.588
37.082	13.811	1388.851	1042.992
38.096	13.705	1388.183	1041.734
39.111	13.697	1387.205	1040.860
40.126	13.771	1386.317	1040.561
41.140	13.526	1386.257	1038.889
42.155	13.599	1385.616	1038.774
43.169	13.572	1385.757	1038.616
44.184	13.549	1384.894	1037.735
45.199	13.537	1384.639	1037.379
46.213	13.634	1383.654	1037.159
47.228	13.646	1383.198	1036.799
48.242	13.635	1381.600	1035.436
49.257	13.594	1380.343	1034.147
50.271	13.596	1378.567	1032.742
51.286	13.766	1376.955	1032.498
52.301	13.588	1376.308	1030.813
53.315	13.614	1375.429	1030.227
54.330	13.613	1373.669	1028.810
55.344	13.595	1372.500	1027.733
56.359	13.650	1371.637	1027.337
57.374	13.589	1370.808	1026.246
58.388	13.630	1370.348	1026.069
59.403	13.563	1369.509	1024.936
60.417	13.561	1368.711	1024.233
61.432	13.501	1367.888	1023.158
62.447	13.492	1366.903	1022.271
63.461	13.480	1365.480	1021.044
64.476	13.456	1364.198	1019.850
65.490	13.498	1363.035	1019.145
66.505	13.585	1361.311	1018.304
67.520	13.537	1360.198	1017.084
68.534	13.491	1359.216	1015.981
69.549	13.476	1358.444	1015.217
70.563	13.532	1356.843	1014.278
71.578	13.480	1355.825	1013.105
72.593	13.418	1354.922	1011.966
73.607	13.408	1354.232	1011.296
74.622	13.471	1353.933	1011.371
75.636	13.449	1352.359	1009.970
76.651	13.411	1351.774	1009.210
77.666	13.489	1350.937	1008.974
78.680	13.507	1350.649	1008.778
79.695	13.400	1350.216	1007.717
80.709	13.429	1349.445	1007.226
81.724	13.468	1348.565	1006.717
82.739	13.599	1347.010	1006.263
83.753	13.623	1346.079	1005.624
84.768	13.727	1345.114	1005.443
85.782	13.683	1343.865	1004.153
86.797	13.608	1342.146	1002.326
87.812	13.626	1341.266	1001.689
88.826	13.660	1340.221	1001.030
89.841	13.604	1339.311	999.923
90.855	13.510	1338.427	998.608
91.870	13.638	1337.110	998.305
92.884	13.683	1336.326	997.906
93.899	13.704	1335.769	997.528
94.914	13.773	1334.488	996.895
95.928	13.744	1333.658	996.013
96.943	13.662	1333.176	995.075
97.957	13.723	1331.800	994.324
98.972	13.720	1330.472	993.227
99.987	13.673	1330.025	992.522
101.001	13.694	1328.936	991.745
102.016	13.740	1327.617	990.948
103.030	13.754	1326.659	990.229
104.045	13.779	1325.980	989.787
105.060	13.755	1324.354	988.344
106.074	13.769	1322.996	987.324
107.089	13.647	1322.345	986.025
108.103	13.436	1321.158	983.798
109.118	13.539	1319.363	982.986
110.133	13.653	1317.710	982.346
111.147	13.518	1317.222	981.097
112.162	13.530	1315.903	980.094
113.176	13.568	1314.562	979.236
114.191	13.614	1313.583	978.688
115.206	13.729	1311.581	977.791
116.220	13.662	1310.847	976.760
117.235	13.642	1309.803	975.783
118.249	13.629	1309.003	975.018
119.264	13.712	1307.655	974.418
120.279	13.646	1306.856	973.346
121.293	13.650	1305.486	972.269
122.308	13.583	1304.184	970.820
123.322	13.592	1303.346	970.162
124.337	13.571	1302.765	969.520
125.352	13.498	1301.470	968.046
126.366	13.568	1300.158	967.391
127.381	13.640	1298.710	966.649
128.395	13.585	1297.540	965.369
129.410	13.600	1297.023	964.986
130.424	13.519	1296.266	963.868
131.439	13.567	1295.033	963.147
132.454	13.654	1294.191	962.940
133.468	13.636	1293.375	962.144
134.483	13.575	1292.434	961.001
135.497	13.649	1291.632	960.753
136.512	13.683	1290.054	959.691
137.527	13.640	1288.623	958.289
138.541	13.582	1287.052	956.701
139.556	13.670	1285.954	956.311
140.570	13.753	1284.805	955.851
141.585	13.810	1283.386	955.036
142.600	13.820	1282.273	954.184
143.614	13.763	1281.526	953.212
144.629	13.796	1280.409	952.491
145.643	13.818	1279.135	951.580
146.658	13.903	1277.368	950.668
147.673	13.793	1276.606	949.387
148.687	13.597	1275.431	947.309
149.702	13.671	1273.910	946.520
150.716	13.808	1272.191	945.942
151.731	13.764	1271.357	944.983
152.746	13.652	1270.333	943.503
153.760	13.771	1269.028	943.127
154.775	13.820	1267.900	942.487
155.789	13.953	1266.462	942.084
156.804	13.897	1265.780	941.178
157.819	13.923	1264.784	940.500
158.833	13.847	1263.761	939.229
159.848	13.946	1262.478	938.749
160.862	13.964	1261.419	937.981
161.877	13.827	1260.326	936.312
162.892	13.976	1258.767	935.911
163.906	13.942	1258.368	935.339
164.921	13.934	1257.573	934.621
165.935	13.881	1256.875	933.722
166.950	13.956	1255.631	933.137
167.964	14.046	1254.756	932.908
168.979	13.888	1254.900	932.045
169.994	13.961	1253.744	931.516
171.008	13.953	1252.691	930.604
172.023	14.108	1251.619	930.592
173.037	14.056	1251.266	929.958
174.052	14.127	1250.026	929.351
175.067	14.010	1249.145	927.963
176.081	13.955	1248.567	927.145
177.096	13.999	1247.033	926.167
178.110	14.160	1245.812	926.073
179.125	14.035	1244.895	924.614
180.140	14.018	1243.853	923.663
181.154	14.168	1241.999	923.039
182.169	14.195	1241.169	922.489
183.183	14.200	1239.996	921.565
184.198	14.165	1238.823	920.418
185.213	14.231	1237.782	919.925
186.227	14.141	1236.647	918.504
187.242	14.231	1235.741	918.248
188.256	14.289	1234.551	917.601
189.271	14.217	1233.899	916.642
190.286	14.265	1232.597	915.856
191.300	14.222	1231.410	914.654
192.315	14.206	1231.158	914.300
193.329	14.215	1230.198	913.555
194.344	14.255	1229.779	913.385
195.359	14.158	1229.095	912.265
196.373	14.205	1228.324	911.866
197.388	14.282	1228.258	912.159
198.402	14.453	1227.042	912.110
199.417	14.415	1226.590	911.485
200.432	14.463	1226.258	911.424
201.446	14.464	1224.945	910.373
202.461	14.561	1223.682	909.883
203.475	14.523	1223.040	909.116
204.490	14.547	1222.119	908.485
205.504	14.489	1220.560	906.928
206.519	14.525	1219.426	906.198
207.534	14.444	1218.326	904.860
208.548	14.427	1217.376	903.982
209.563	14.412	1216.987	903.534
210.577	14.577	1215.595	903.316
211.592	14.592	1214.768	902.703
212.607	14.683	1213.725	902.341
213.621	14.740	1212.984	902.014
214.636	14.564	1212.069	900.303
215.650	14.587	1211.401	899.853
216.665	14.540	1210.682	898.988
217.680	14.617	1209.437	898.399
218.694	14.822	1208.219	898.515
219.709	14.708	1207.695	897.435
220.723	14.711	1207.014	896.862
221.738	14.695	1206.685	896.455
222.753	14.745	1205.431	895.714
223.767	14.735	1204.621	894.979
224.782	14.758	1203.724	894.352
225.796	14.889	1203.107	894.517
226.811	14.928	1202.381	894.105
227.826	14.793	1202.287	893.236
228.840	14.782	1201.515	892.524
229.855	14.829	1200.236	891.747
230.869	14.837	1199.751	891.352
231.884	14.720	1198.670	889.845
232.899	14.914	1197.690	890.074
233.913	14.729	1197.401	888.795
234.928	14.763	1197.098	888.668
235.942	14.736	1195.944	887.591
236.957	14.899	1194.682	887.441
237.972	14.780	1194.502	886.596
238.986	14.811	1193.724	886.108
240.001	14.816	1193.184	885.652
241.015	14.817	1192.013	884.709
242.030	14.844	1191.207	884.177
243.045	15.017	1190.113	884.203
244.059	14.885	1189.707	883.123
245.074	15.026	1188.706	883.046
246.088	14.991	1187.576	881.946
247.103	15.029	1186.791	881.484
248.117	15.121	1186.234	881.477
249.132	15.045	1185.603	880.531
250.147	15.130	1184.746	880.262
251.161	15.199	1184.004	879.998
252.176	15.167	1183.834	879.625
253.190	15.282	1182.919	879.471
254.205	15.366	1182.020	879.164
255.220	15.319	1181.739	878.632
256.234	15.417	1180.626	878.240
257.249	15.362	1180.454	877.746
258.263	15.315	1179.498	876.708
259.278	15.461	1178.518	876.669
260.293	15.355	1178.642	876.130
261.307	15.321	1177.970	875.375
262.322	15.461	1177.172	875.433
263.336	15.463	1176.438	874.820
264.351	15.468	1175.709	874.227
265.366	15.482	1175.160	873.812
266.380	15.541	1174.073	873.237
267.395	15.518	1173.574	872.667
268.409	15.524	1172.910	872.126
269.424	15.556	1172.384	871.828
270.439	15.496	1171.870	871.054
271.453	15.352	1171.342	869.838
272.468	15.410	1169.881	868.975
273.482	15.441	1168.976	868.390
274.497	15.419	1168.739	868.020
275.512	15.640	1167.742	868.345
276.526	15.571	1166.503	866.992
277.541	15.588	1165.920	866.571
278.555	15.641	1165.193	866.228
279.570	15.626	1165.145	866.035
280.585	15.618	1163.840	864.947
281.599	15.716	1162.575	864.436
282.614	15.735	1161.758	863.848
283.628	15.627	1160.590	862.350
284.643	15.668	1159.932	861.994
285.657	15.840	1158.916	862.045
286.672	15.708	1158.180	860.745
287.687	15.767	1157.295	860.315
288.701	15.755	1156.468	859.562
289.716	15.780	1155.834	859.140
290.730	15.846	1154.824	858.650
291.745	15.866	1154.307	858.295
292.760	15.977	1153.240	857.987
293.774	15.992	1153.036	857.836
294.789	15.895	1152.523	856.888
295.803	15.846	1152.058	856.213
296.818	15.876	1150.962	855.480
297.833	15.847	1150.341	854.795
298.847	15.980	1149.204	854.546
299.862	16.023	1148.233	853.966
300.876	15.917	1147.954	853.149
301.891	15.934	1147.286	852.662
302.906	15.983	1146.641	852.356
303.920	16.075	1145.507	851.904
304.935	16.067	1145.110	851.493
305.949	16.080	1144.778	851.234
306.964	16.225	1143.551	850.980
307.979	16.107	1142.791	849.742
308.993	16.181	1142.421	849.767
310.008	16.109	1141.362	848.537
311.022	16.021	1141.426	848.069
312.037	16.086	1140.168	847.388
313.052	16.166	1138.938	846.798
314.066	16.293	1137.841	846.543
315.081	16.276	1136.854	845.651
316.095	16.107	1136.548	844.503
317.110	16.086	1136.027	843.935
318.125	16.199	1135.121	843.751
319.139	16.061	1134.340	842.407
320.154	16.176	1133.814	842.518
321.168	16.251	1133.058	842.256
322.183	16.145	1132.562	841.282
323.197	16.304	1131.902	841.509
324.212	16.247	1131.402	840.778
325.227	16.246	1130.826	840.271
326.241	16.305	1129.709	839.664
327.256	16.291	1129.148	839.099
328.270	16.271	1128.221	838.238
329.285	16.343	1127.568	838.038
330.300	16.300	1126.447	836.915
331.314	16.281	1125.410	835.978
332.329	16.205	1124.777	835.056
333.343	16.272	1124.046	834.771
334.358	16.381	1122.858	834.352
335.373	16.414	1122.017	833.818
336.387	16.410	1121.571	833.395
337.402	16.446	1120.824	832.943
338.416	16.388	1120.337	832.219
339.431	16.548	1119.442	832.268
340.446	16.592	1118.524	831.730
341.460	16.566	1118.080	831.200
342.475	16.539	1117.216	830.347
343.489	16.583	1116.070	829.640
344.504	16.644	1114.877	828.979
345.519	16.639	1114.204	828.379
346.533	16.676	1113.604	828.041
347.548	16.653	1112.813	827.270
348.562	16.693	1112.341	827.042
349.577	16.796	1111.228	826.643
350.592	16.617	1110.639	825.257
351.606	16.734	1109.617	824.998
352.621	16.661	1109.046	824.142
353.635	16.652	1108.454	823.584
354.650	16.676	1107.558	822.965
355.665	16.731	1107.031	822.766
356.679	16.740	1106.731	822.514
357.694	16.759	1106.110	822.070
358.708	16.765	1105.182	821.341
359.723	16.903	1104.233	821.232
360.738	16.822	1104.004	820.593
361.752	16.784	1103.559	820.007
362.767	16.805	1102.665	819.371
363.781	16.821	1102.022	818.898
364.796	16.864	1101.848	818.905
365.810	16.840	1100.978	818.071
366.825	16.921	1100.245	817.845
367.840	17.116	1099.841	818.411
368.854	17.030	1099.101	817.375
369.869	17.009	1098.773	816.956
370.883	16.925	1097.727	815.700
371.898	17.081	1096.726	815.637
372.913	17.046	1096.462	815.201
373.927	17.083	1095.950	814.924
374.942	17.020	1094.900	813.769
375.956	17.113	1094.817	814.079
376.971	17.192	1093.483	813.397
377.986	17.082	1093.129	812.533
379.000	17.064	1092.982	812.265
380.015	17.236	1092.349	812.545
381.029	17.181	1091.650	811.693
382.044	17.116	1091.104	810.903
383.059	17.262	1090.317	810.941
384.073	17.298	1089.409	810.370
385.088	17.391	1088.377	809.971
386.102	17.423	1087.264	809.226
387.117	17.406	1086.194	808.275
388.132	17.285	1085.391	807.031
389.146	17.338	1084.684	806.688
390.161	17.323	1084.410	806.340
391.175	17.205	1084.232	805.576
392.190	17.382	1082.686	805.195
393.205	17.374	1082.165	804.697
394.219	17.276	1081.551	803.708
395.234	17.327	1080.579	803.156
396.248	17.297	1079.335	802.016
397.263	17.484	1077.834	801.710
398.278	17.407	1077.528	801.050
399.292	17.351	1076.658	800.071
400.307	17.378	1075.828	799.511
401.321	17.448	1075.240	799.328
402.336	17.438	1074.787	798.876
403.350	17.369	1074.452	798.234
404.365	17.468	1073.568	797.967
405.380	17.518	1072.487	797.330
406.394	17.351	1072.087	796.177
407.409	17.582	1071.164	796.503
408.423	17.542	1070.699	795.901
409.438	17.587	1069.771	795.348
410.453	17.758	1068.919	795.442
411.467	17.773	1068.271	794.963
412.482	17.619	1068.117	794.057
413.496	17.642	1067.072	793.320
414.511	17.734	1066.740	793.431
415.526	17.852	1065.822	793.224
416.540	17.877	1065.451	792.997
417.555	17.747	1065.208	792.140
418.569	17.865	1064.561	792.139
419.584	17.872	1064.174	791.811
420.599	17.874	1063.294	791.096
421.613	109.791	1332.773	1492.920
422.628	101.442	1371.999	1492.977
