DTS Sentinel unit serial number:	SN413079Multiplexer serial number:	ORYXHardware model number:	OX4-SRSoftware version number:	ORYX F/W v4.00 Oryx Data Collector v3.7.2.0data status	okinstallation	princeton_trtdifferential loss correction	single-endedforward channel	channel 2reverse channel	N/Adate	2019/09/14time	19:55:35forward acquisition time	60.00reverse acquisition time	0.00gamma	496.2192k internal	0.2320k external	0.2320temperature offset calibration	1.0095default loss term (dB/km)	0.3790temperature slope calibration	1.0000multiplexer offset coefficient	1.0000multiplexer slope coefficient	1.0000fibre end	0.00T internal ref (°C)	34.17T ext. ref 1 (°C)	4.87T ext. ref 2 (°C)	28.44length (m)	temperature (°C)	Stokes	anti-Stokes-747.200	800.000	0.068	-0.237
-746.185	-86.424	-0.116	0.036
-745.171	-56.533	0.188	0.084
-744.156	800.000	0.032	0.120
-743.142	-200.000	0.009	-0.338
-742.127	-200.000	-0.054	-0.404
-741.112	69.866	0.149	-0.156
-740.098	-96.175	-0.260	0.070
-739.083	224.634	0.153	0.251
-738.069	800.000	0.075	0.260
-737.054	-20.749	-0.185	0.114
-736.039	-200.000	-0.002	0.085
-735.025	-153.775	0.265	0.018
-734.010	19.969	-0.156	0.127
-732.996	148.043	-0.060	0.082
-731.981	138.938	-0.197	-0.262
-730.966	-52.368	-0.167	0.078
-729.952	-115.024	-0.565	0.109
-728.937	-96.453	-0.167	-0.045
-727.923	-106.404	-0.398	-0.090
-726.908	800.000	-0.049	-0.146
-725.894	545.688	-0.067	0.162
-724.879	-132.535	-0.296	0.038
-723.864	652.213	-0.163	0.423
-722.850	124.541	-0.066	0.084
-721.835	-125.270	-0.331	-0.051
-720.821	560.483	-0.065	0.159
-719.806	-94.610	0.089	-0.024
-718.791	-15.005	-0.055	0.035
-717.777	-200.000	-0.031	0.350
-716.762	561.822	-0.083	0.203
-715.748	77.748	-0.197	0.212
-714.733	32.054	-0.193	-0.168
-713.718	-34.882	0.190	-0.105
-712.704	-136.664	-0.366	0.043
-711.689	-53.398	0.360	0.166
-710.675	126.887	-0.025	0.033
-709.660	-200.000	-0.010	0.326
-708.645	4.268	-0.200	-0.148
-707.631	-26.665	-0.165	-0.097
-706.616	-18.537	-0.056	-0.035
-705.602	111.227	0.126	-0.154
-704.587	544.791	-0.043	-0.104
-703.572	-64.787	-0.262	0.107
-702.558	210.140	-0.048	-0.076
-701.543	-78.757	0.385	0.133
-700.529	-200.000	0.015	-0.232
-699.514	20.119	-0.104	-0.085
-698.499	800.000	0.041	0.136
-697.485	414.695	0.050	0.107
-696.470	55.017	0.101	-0.098
-695.456	48.470	0.040	-0.038
-694.441	-144.885	0.412	-0.038
-693.426	-61.921	-0.197	-0.083
-692.412	-27.148	-0.140	0.083
-691.397	-21.763	0.122	-0.075
-690.383	-129.730	-0.505	-0.070
-689.368	-58.829	0.118	-0.051
-688.354	-43.504	0.228	0.116
-687.339	451.423	-0.069	0.155
-686.324	434.317	0.093	0.205
-685.310	-37.703	-0.265	-0.142
-684.295	-149.411	-0.293	-0.024
-683.281	-134.710	0.219	0.027
-682.266	-80.660	-0.160	0.054
-681.251	-138.374	0.227	-0.025
-680.237	58.995	-0.156	-0.155
-679.222	-200.000	-0.025	-0.232
-678.208	353.319	-0.108	-0.216
-677.193	288.242	-0.132	-0.242
-676.178	-200.000	0.000	0.063
-675.164	188.861	0.222	0.335
-674.149	-200.000	-0.004	-0.064
-673.135	-200.000	0.032	-0.274
-672.120	-71.558	-0.339	-0.128
-671.105	598.650	0.158	0.394
-670.091	725.309	0.118	0.317
-669.076	93.139	0.190	-0.217
-668.062	146.761	0.120	-0.162
-667.047	33.907	-0.284	0.249
-666.032	71.769	0.099	-0.104
-665.018	-42.509	0.232	0.119
-664.003	-144.668	0.391	-0.036
-662.989	333.548	-0.088	0.171
-661.974	81.128	0.074	-0.080
-660.959	-112.899	0.440	-0.088
-659.945	-42.852	0.119	-0.061
-658.930	-200.000	0.046	-0.242
-657.916	16.726	-0.232	-0.185
-656.901	-66.277	0.309	-0.124
-655.886	488.876	-0.069	-0.160
-654.872	-200.000	-0.031	-0.175
-653.857	-200.000	0.010	0.058
-652.843	800.000	-0.051	0.208
-651.828	-53.688	-0.379	0.174
-650.814	-86.722	0.328	-0.101
-649.799	-69.313	0.069	0.027
-648.784	-106.897	-0.070	0.016
-647.770	-59.323	0.152	-0.066
-646.755	-68.854	0.422	0.164
-645.741	349.695	-0.066	0.132
-644.726	-200.000	-0.019	-0.161
-643.711	-57.255	0.238	0.105
-642.697	-108.863	-0.228	-0.049
-641.682	277.770	-0.176	-0.315
-640.668	25.687	-0.218	-0.182
-639.653	800.000	-0.020	-0.083
-638.638	14.700	0.270	0.213
-637.624	-77.793	-0.174	0.061
-636.609	-92.905	-0.048	0.014
-635.595	109.733	0.097	-0.117
-634.580	7.849	-0.165	-0.125
-633.565	125.675	0.099	-0.125
-632.551	174.038	0.133	-0.194
-631.536	-114.460	0.384	0.074
-630.522	89.727	0.157	-0.177
-629.507	283.667	-0.048	-0.087
-628.492	138.163	0.259	0.342
-627.478	-200.000	0.187	-0.001
-626.463	-200.000	-0.052	-0.600
-625.449	-200.000	0.006	-0.060
-624.434	57.009	-0.300	0.294
-623.419	800.000	0.025	0.080
-622.405	-107.942	-0.209	-0.046
-621.390	-35.204	-0.336	0.184
-620.376	428.068	0.087	0.189
-619.361	220.444	-0.167	-0.270
-618.346	-200.000	0.031	-0.236
-617.332	-39.821	0.058	0.030
-616.317	252.612	-0.149	0.255
-615.303	-83.180	0.108	-0.035
-614.288	-130.113	-0.257	0.035
-613.273	489.452	-0.046	-0.106
-612.259	-199.591	0.068	-0.000
-611.244	317.307	-0.130	-0.248
-610.230	-200.000	0.065	-0.389
-609.215	-148.345	-0.398	-0.033
-608.201	-113.485	-0.214	0.042
-607.186	94.611	-0.035	0.040
-606.171	346.261	0.079	0.157
-605.157	-143.895	-0.170	-0.016
-604.142	62.732	-0.197	-0.199
-603.128	-15.723	-0.109	-0.070
-602.113	-200.000	0.027	-0.245
-601.098	782.424	0.060	0.167
-600.084	780.781	-0.052	0.143
-599.069	37.320	-0.125	0.112
-598.055	-54.472	-0.160	-0.073
-597.040	360.761	-0.109	-0.219
-596.025	2.295	-0.208	0.152
-595.011	133.967	0.280	-0.364
-593.996	-130.836	0.188	-0.025
-592.982	-90.148	0.355	-0.104
-591.967	-60.026	-0.154	0.066
-590.952	370.675	-0.051	-0.105
-589.938	666.029	0.168	-0.437
-588.923	800.000	-0.047	0.160
-587.909	9.289	0.085	-0.065
-586.894	114.229	-0.267	-0.326
-585.879	-30.488	-0.106	-0.061
-584.865	31.630	0.155	0.134
-583.850	549.388	0.134	-0.323
-582.836	218.260	-0.200	0.320
-581.821	-17.600	0.071	-0.045
-580.806	-61.434	0.128	-0.054
-579.792	39.395	0.075	0.068
-578.777	53.348	-0.116	0.112
-577.763	-200.000	0.003	-0.125
-576.748	130.384	-0.100	0.129
-575.733	-200.000	-0.009	-0.170
-574.719	-22.117	-0.269	-0.164
-573.704	-13.751	0.102	0.066
-572.690	-159.493	0.254	0.014
-571.675	104.845	0.153	-0.181
-570.661	716.793	-0.113	0.302
-569.646	116.701	-0.177	-0.218
-568.631	108.189	0.125	-0.150
-567.617	-168.181	-0.143	0.006
-566.602	-200.000	-0.010	-0.229
-565.588	667.307	-0.058	0.151
-564.573	-147.055	0.224	0.019
-563.558	221.153	0.103	-0.166
-562.544	-10.087	-0.090	-0.060
-561.529	-6.264	0.134	0.092
-560.515	44.886	0.307	0.283
-559.500	-13.988	-0.299	0.194
-558.485	254.549	0.139	-0.239
-557.471	-36.159	-0.188	0.102
-556.456	-84.304	0.364	-0.116
-555.442	-115.659	-0.378	0.071
-554.427	-175.723	0.301	0.008
-553.412	565.204	-0.019	0.045
-552.398	-27.551	-0.120	0.070
-551.383	-200.000	0.053	-0.438
-550.369	-112.247	0.207	0.042
-549.354	-200.000	-0.017	0.094
-548.339	-93.840	-0.472	-0.130
-547.325	733.609	0.099	0.265
-546.310	-45.547	-0.453	-0.225
-545.296	78.063	0.062	-0.066
-544.281	800.000	-0.051	0.144
-543.266	155.969	-0.083	0.115
-542.252	-130.207	-0.008	-0.001
-541.237	800.000	-0.065	-0.195
-540.223	-69.587	-0.148	-0.057
-539.208	-137.222	-0.161	-0.018
-538.193	648.512	0.087	0.223
-537.179	62.141	0.120	0.120
-536.164	495.178	-0.108	-0.249
-535.150	22.805	-0.206	0.169
-534.135	88.343	-0.232	-0.259
-533.121	-200.000	-0.009	-0.322
-532.106	665.832	-0.137	-0.355
-531.091	-12.791	-0.217	-0.141
-530.077	-200.000	0.020	-0.106
-529.062	155.384	0.135	0.187
-528.048	-54.654	-0.233	0.106
-527.033	-94.830	-0.241	0.066
-526.018	172.536	-0.076	-0.109
-525.004	69.416	0.178	-0.183
-523.989	-84.621	0.178	-0.056
-522.975	-200.000	0.003	0.042
-521.960	-76.396	-0.111	-0.039
-520.945	-200.000	0.051	-0.300
-519.931	114.309	-0.152	-0.186
-518.916	-87.886	0.218	-0.066
-517.902	22.442	-0.310	0.254
-516.887	-43.135	0.143	0.073
-515.872	5.223	0.179	-0.132
-514.858	800.000	-0.110	-0.357
-513.843	-59.909	-0.288	0.123
-512.829	23.253	-0.166	0.136
-511.814	-27.496	-0.186	-0.109
-510.799	-117.638	0.268	-0.048
-509.785	-122.719	-0.184	0.030
-508.770	-200.000	-0.028	0.145
-507.756	52.614	0.207	-0.198
-506.741	-18.580	-0.408	-0.255
-505.726	-200.000	0.033	0.161
-504.712	147.633	-0.224	-0.302
-503.697	2.326	-0.217	-0.157
-502.683	-166.725	0.295	-0.012
-501.668	800.000	0.037	-0.129
-500.653	186.964	-0.183	0.273
-499.639	49.984	-0.186	0.176
-498.624	192.312	0.077	0.117
-497.610	800.000	0.068	-0.223
-496.595	-19.133	0.141	-0.088
-495.581	445.122	0.123	-0.270
-494.566	69.801	0.079	-0.081
-493.551	-65.765	0.215	0.086
-492.537	36.643	-0.203	-0.180
-491.522	-167.401	0.217	0.009
-490.508	-7.834	0.163	0.110
-489.493	-20.737	0.084	0.051
-488.478	800.000	0.084	0.272
-487.464	40.750	0.154	0.139
-486.449	-90.202	0.391	-0.114
-485.435	-174.909	0.432	0.012
-484.420	-58.655	-0.096	0.042
-483.405	62.263	-0.405	0.405
-482.391	-31.182	-0.120	-0.068
-481.376	-200.000	-0.019	-0.319
-480.362	17.434	0.206	0.164
-479.347	116.439	0.180	0.221
-478.332	-116.269	0.105	0.019
-477.318	-200.000	0.014	-0.246
-476.303	-52.440	-0.236	-0.109
-475.289	-200.000	0.020	0.256
-474.274	526.602	-0.175	-0.412
-473.259	570.367	0.046	0.111
-472.245	-51.106	0.320	0.150
-471.230	194.456	0.089	0.135
-470.216	-32.573	0.073	-0.041
-469.201	-200.000	0.013	-0.112
-468.186	610.491	-0.035	-0.087
-467.172	-86.177	-0.290	-0.089
-466.157	800.000	-0.034	0.145
-465.143	-200.000	0.053	0.294
-464.128	-100.031	-0.134	-0.033
-463.113	-169.332	-0.256	-0.009
-462.099	800.000	-0.004	-0.014
-461.084	173.278	0.088	0.127
-460.070	122.588	0.036	-0.045
-459.055	-152.332	0.067	-0.005
-458.040	-70.950	-0.188	0.071
-457.026	390.674	0.029	-0.060
-456.011	-85.352	0.109	-0.034
-454.997	62.226	-0.145	-0.145
-453.982	-39.316	-0.099	-0.052
-452.968	-29.304	0.243	-0.139
-451.953	-23.763	-0.063	0.038
-450.938	446.506	-0.109	-0.239
-449.924	408.573	0.179	0.380
-448.909	-96.237	-0.069	0.018
-447.895	-84.642	0.380	0.120
-446.880	-200.000	0.001	0.382
-445.865	84.434	0.273	-0.298
-444.851	-32.229	-0.203	0.114
-443.836	-200.000	0.017	0.384
-442.822	-112.640	0.188	-0.037
-441.807	93.898	0.211	-0.239
-440.792	33.771	-0.025	-0.022
-439.778	21.619	0.198	0.161
-438.763	456.095	-0.055	0.122
-437.749	-67.605	-0.224	0.088
-436.734	6.654	0.176	-0.131
-435.719	-200.000	0.012	0.148
-434.705	704.614	0.056	-0.149
-433.690	-200.000	0.049	-0.400
-432.676	137.548	-0.093	-0.122
-431.661	12.673	0.131	0.101
-430.646	-117.423	-0.406	-0.073
-429.632	-90.297	-0.107	-0.031
-428.617	-34.704	-0.167	0.091
-427.603	-78.324	-0.055	-0.019
-426.588	-200.000	-0.009	0.195
-425.573	285.297	0.055	0.100
-424.559	33.607	-0.118	-0.103
-423.544	-135.638	-0.237	-0.028
-422.530	-150.408	0.169	-0.013
-421.515	-31.647	-0.344	0.193
-420.500	-50.738	0.449	-0.211
-419.486	250.129	0.190	0.321
-418.471	-38.062	-0.211	-0.112
-417.457	254.381	0.094	0.160
-416.442	0.291	0.143	0.102
-415.428	222.518	-0.028	0.044
-414.413	-155.787	-0.310	-0.020
-413.398	304.574	-0.140	0.260
-412.384	218.924	-0.134	0.214
-411.369	-15.818	-0.238	-0.152
-410.355	-113.247	0.270	0.053
-409.340	-140.121	-0.264	-0.028
-408.325	-51.181	-0.195	-0.091
-407.311	109.804	0.140	-0.167
-406.296	210.033	-0.177	-0.277
-405.282	-152.287	0.258	-0.019
-404.267	287.440	0.108	0.196
-403.252	-163.720	0.075	0.004
-402.238	-200.000	0.009	-0.042
-401.223	-109.933	0.419	0.088
-400.209	800.000	0.037	0.129
-399.194	-75.132	0.299	-0.107
-398.179	282.938	-0.108	0.193
-397.165	-200.000	-0.027	0.396
-396.150	-200.000	0.021	0.266
-395.136	-159.557	-0.272	-0.015
-394.121	92.297	0.169	0.190
-393.106	-47.965	0.205	-0.099
-392.092	-119.384	0.154	-0.027
-391.077	800.000	0.102	0.369
-390.063	-155.165	-0.090	-0.006
-389.048	323.535	-0.049	0.092
-388.033	800.000	-0.070	0.231
-387.019	-16.261	-0.176	-0.112
-386.004	519.144	0.056	0.130
-384.990	-45.347	0.365	0.180
-383.975	-53.687	-0.296	-0.135
-382.960	-200.000	-0.010	-0.152
-381.946	38.388	-0.289	-0.257
-380.931	-200.000	0.018	0.248
-379.917	136.284	-0.139	0.180
-378.902	-200.000	0.026	0.192
-377.888	-179.023	0.309	0.007
-376.873	-200.000	-0.002	-0.078
-375.858	241.601	-0.008	-0.013
-374.844	800.000	0.027	0.077
-373.829	-135.886	0.259	0.030
-372.815	-200.000	0.031	0.307
-371.800	125.708	0.235	-0.296
-370.785	65.390	0.094	-0.094
-369.771	-44.450	-0.220	-0.110
-368.756	-200.000	-0.036	0.260
-367.742	85.891	-0.086	-0.094
-366.727	-200.000	0.004	-0.190
-365.712	-59.889	-0.062	0.026
-364.698	146.660	-0.158	-0.211
-363.683	800.000	-0.026	0.081
-362.669	88.100	-0.157	0.173
-361.654	153.835	0.100	0.136
-360.639	344.621	0.049	0.095
-359.625	162.484	0.083	-0.115
-358.610	-200.000	0.005	-0.057
-357.596	-200.000	-0.016	-0.150
-356.581	-39.059	0.045	-0.024
-355.566	800.000	0.030	0.114
-354.552	111.653	-0.161	0.194
-353.537	-200.000	0.088	0.450
-352.523	290.523	-0.077	-0.140
-351.508	373.463	0.167	-0.339
-350.493	-42.467	0.252	0.128
-349.479	319.747	-0.062	-0.116
-348.464	-29.741	-0.206	0.117
-347.450	219.124	0.162	0.259
-346.435	598.018	-0.086	-0.212
-345.420	212.723	0.174	0.274
-344.406	-138.069	-0.543	0.060
-343.391	-193.229	-0.231	0.002
-342.377	-200.000	0.026	0.179
-341.362	238.033	0.173	0.286
-340.348	211.439	0.086	-0.135
-339.333	800.000	-0.060	0.220
-338.318	-52.278	0.362	0.167
-337.304	157.919	-0.070	-0.096
-336.289	487.272	-0.055	0.125
-335.275	-10.226	-0.162	0.107
-334.260	51.460	0.159	0.151
-333.245	-133.098	0.135	0.017
-332.231	-64.378	-0.078	0.031
-331.216	-66.573	0.108	0.043
-330.202	336.094	0.069	-0.133
-329.187	-77.439	0.229	0.079
-328.172	10.288	0.068	0.052
-327.158	-154.657	-0.150	0.010
-326.143	265.334	-0.062	0.108
-325.129	410.549	-0.046	-0.098
-324.114	147.066	-0.184	0.247
-323.099	579.951	-0.079	0.192
-322.085	-200.000	-0.019	0.241
-321.070	165.516	0.030	-0.042
-320.056	-75.348	-0.203	-0.072
-319.041	509.898	0.029	0.068
-318.026	102.208	-0.035	-0.041
-317.012	800.000	0.062	0.195
-315.997	190.557	-0.080	0.120
-314.983	75.507	0.060	-0.063
-313.968	-200.000	0.002	0.078
-312.953	-59.237	-0.172	-0.074
-311.939	769.698	0.054	0.147
-310.924	-23.054	0.167	0.100
-309.910	-200.000	0.001	0.093
-308.895	-142.426	0.094	0.009
-307.880	96.603	-0.250	0.285
-306.866	-46.552	-0.049	0.024
-305.851	199.685	0.088	0.134
-304.837	-57.000	0.057	0.025
-303.822	-200.000	-0.027	0.171
-302.807	800.000	-0.127	0.404
-301.793	-76.236	0.228	0.080
-300.778	56.238	0.179	0.172
-299.764	-200.000	0.041	-0.498
-298.749	152.889	0.150	0.204
-297.735	-47.745	0.420	-0.202
-296.720	-132.593	0.249	0.032
-295.705	-200.000	0.015	0.214
-294.691	60.415	0.339	0.333
-293.676	20.486	0.152	-0.122
-292.662	-113.536	-0.095	-0.018
-291.647	-200.000	-0.039	-0.284
-290.632	43.172	-0.187	-0.169
-289.618	47.618	0.040	-0.037
-288.603	-74.506	0.112	-0.040
-287.589	11.461	-0.133	0.101
-286.574	-200.000	-0.056	0.327
-285.559	-4.332	0.183	0.126
-284.545	-10.504	0.134	-0.088
-283.530	-89.388	-0.336	-0.098
-282.516	-10.694	0.136	-0.089
-281.501	12.022	0.119	-0.091
-280.486	124.441	-0.105	-0.131
-279.472	-200.000	0.021	-0.321
-278.457	37.052	-0.021	-0.019
-277.443	800.000	0.045	0.188
-276.428	37.757	-0.077	-0.068
-275.413	-134.287	0.165	-0.020
-274.399	56.592	-0.096	0.092
-273.384	102.820	0.126	0.146
-272.370	-2.666	-0.163	0.113
-271.355	596.276	0.022	-0.053
-270.340	-81.828	0.387	0.126
-269.326	800.000	-0.034	-0.142
-268.311	-96.611	0.089	-0.023
-267.297	290.920	0.083	-0.149
-266.282	800.000	0.124	0.452
-265.267	-200.000	0.070	0.315
-264.253	-63.369	0.227	-0.093
-263.238	-200.000	0.063	-0.340
-262.224	162.975	0.159	0.222
-261.209	-101.408	0.175	0.042
-260.195	-31.943	-0.143	-0.079
-259.180	-8.380	0.033	0.022
-258.165	-200.000	-0.043	-0.189
-257.151	-81.630	-0.256	0.083
-256.136	-199.469	0.153	-0.001
-255.122	331.225	0.129	-0.247
-254.107	-30.912	0.195	-0.109
-253.092	-200.000	0.002	0.090
-252.078	-57.948	0.161	-0.070
-251.063	-125.308	-0.324	-0.049
-250.049	24.968	0.304	-0.250
-249.034	-200.000	0.015	-0.079
-248.019	-69.231	0.274	-0.105
-247.005	-88.047	0.313	0.093
-245.990	58.996	-0.279	-0.272
-244.976	-27.349	-0.042	0.024
-243.961	317.396	-0.235	-0.442
-242.946	-30.655	0.220	-0.123
-241.932	-200.000	-0.039	-0.202
-240.917	-200.000	-0.019	-0.096
-239.903	-200.000	0.028	-0.234
-238.888	576.015	-0.132	-0.319
-237.873	-48.118	0.213	-0.102
-236.859	-119.510	0.078	0.013
-235.844	-200.000	-0.026	0.211
-234.830	34.527	0.201	-0.174
-233.815	-47.647	0.155	-0.075
-232.800	-22.787	-0.118	0.071
-231.786	-116.370	0.062	-0.011
-230.771	-200.000	0.032	0.263
-229.757	-118.640	-0.287	0.050
-228.742	800.000	-0.068	0.208
-227.727	-89.806	-0.033	0.009
-226.713	-7.607	0.435	-0.291
-225.698	800.000	-0.080	0.236
-224.684	119.138	-0.046	0.056
-223.669	-200.000	-0.019	0.102
-222.655	25.501	-0.160	0.132
-221.640	-4.043	0.045	-0.031
-220.625	-102.303	-0.317	0.075
-219.611	-10.732	-0.254	-0.167
-218.596	51.890	-0.217	0.204
-217.582	582.618	-0.067	0.163
-216.567	-68.434	0.178	0.068
-215.552	-147.354	0.159	0.013
-214.538	272.094	-0.023	0.040
-213.523	-107.922	0.182	0.039
-212.509	434.136	0.069	0.148
-211.494	-200.000	0.001	0.207
-210.479	-47.160	0.121	0.058
-209.465	-200.000	-0.104	0.513
-208.450	-200.000	0.026	0.245
-207.436	-200.000	0.025	0.144
-206.421	-98.722	-0.126	0.032
-205.406	-132.459	-0.301	0.038
-204.392	131.524	0.167	0.212
-203.377	384.894	0.058	0.119
-202.363	346.574	0.060	-0.116
-201.348	58.673	-0.178	-0.173
-200.333	17.940	-0.155	-0.122
-199.319	-104.643	-0.309	-0.070
-198.304	78.016	-0.028	-0.030
-197.290	103.890	0.059	0.068
-196.275	453.978	-0.067	-0.146
-195.260	-200.000	0.097	-0.496
-194.246	-200.000	-0.015	-0.239
-193.231	-200.000	-0.010	0.081
-192.217	-71.467	0.049	-0.018
-191.202	44.408	0.042	-0.039
-190.187	353.981	-0.107	0.209
-189.173	-80.663	0.352	-0.116
-188.158	-198.057	0.188	-0.001
-187.144	-200.000	-0.052	-0.290
-186.129	307.106	-0.090	0.166
-185.114	-22.227	-0.152	-0.091
-184.100	800.000	-0.028	-0.104
-183.085	-56.626	0.059	0.026
-182.071	39.001	0.064	0.056
-181.056	-200.000	-0.004	0.050
-180.042	800.000	-0.018	-0.056
-179.027	122.248	0.090	0.111
-178.012	4.604	-0.251	-0.182
-176.998	-81.386	-0.229	-0.075
-175.983	-200.000	0.012	-0.155
-174.969	193.327	0.142	-0.212
-173.954	-48.296	-0.128	-0.061
-172.939	404.400	0.014	-0.028
-171.925	-111.552	0.298	0.060
-170.910	-93.250	0.302	0.083
-169.896	784.602	0.086	-0.234
-168.881	-200.000	0.000	-0.053
-167.866	800.000	-0.097	0.272
-166.852	77.048	-0.189	0.199
-165.837	47.987	-0.418	-0.386
-164.823	-200.000	0.017	-0.338
-163.808	236.836	0.032	-0.052
-162.793	-132.602	-0.141	-0.018
-161.779	-57.062	0.258	0.112
-160.764	-200.000	-0.049	0.283
-159.750	-200.000	0.031	-0.326
-158.735	-139.794	-0.183	-0.019
-157.720	269.877	0.030	-0.052
-156.706	425.183	0.024	-0.051
-155.691	22.919	-0.163	-0.132
-154.677	-200.000	-0.016	0.099
-153.662	-22.887	-0.193	-0.115
-152.647	26.548	-0.168	0.139
-151.633	800.000	-0.120	0.389
-150.618	-169.387	-0.167	0.006
-149.604	-78.431	0.190	-0.064
-148.589	71.482	0.140	0.144
-147.574	490.225	-0.189	-0.426
-146.560	435.344	-0.087	0.188
-145.545	191.261	0.070	0.104
-144.531	166.721	0.211	-0.296
-143.516	199.205	-0.059	0.090
-142.502	-86.285	0.141	0.043
-141.487	37.064	-0.216	-0.189
-140.472	441.934	0.118	0.256
-139.458	-117.738	-0.349	-0.062
-138.443	-88.091	-0.133	-0.039
-137.429	8.902	0.045	0.034
-136.414	429.133	-0.074	0.159
-135.399	56.575	-0.073	-0.070
-134.385	124.950	0.158	0.196
-133.370	-200.000	-0.033	-0.206
-132.356	-62.153	-0.202	-0.083
-131.341	453.756	-0.028	0.061
-130.326	-162.504	0.226	-0.011
-129.312	-200.000	0.033	-0.267
-128.297	-47.748	0.300	-0.144
-127.283	-31.045	0.119	-0.066
-126.268	-200.000	-0.004	0.279
-125.253	800.000	0.052	0.215
-124.239	-200.000	0.025	0.134
-123.224	13.225	-0.205	-0.157
-122.210	-131.207	-0.197	0.026
-121.195	-200.000	0.055	0.296
-120.180	800.000	0.067	0.239
-119.166	342.538	0.112	-0.217
-118.151	-53.634	-0.323	0.145
-117.137	800.000	-0.026	-0.097
-116.122	260.104	-0.167	-0.285
-115.107	32.586	0.080	0.069
-114.093	31.696	0.345	-0.293
-113.078	-79.912	0.311	0.103
-112.064	-150.969	0.274	-0.020
-111.049	32.025	-0.113	-0.096
-110.034	207.628	0.115	-0.177
-109.020	11.316	-0.143	-0.108
-108.005	167.055	-0.243	-0.340
-106.991	-144.058	-0.071	-0.007
-105.976	233.589	0.188	0.306
-104.962	-95.843	-0.361	0.095
-103.947	-141.360	-0.020	0.002
-102.932	-47.760	0.133	-0.064
-101.918	-200.000	-0.030	0.190
-100.903	153.534	-0.112	0.152
-99.889	-13.591	0.388	0.248
-98.874	-78.469	-0.140	-0.047
-97.859	607.447	0.184	0.452
-96.845	-93.238	0.249	0.068
-95.830	-10.347	-0.089	-0.058
-94.816	-26.386	0.165	-0.095
-93.801	-18.614	-0.508	-0.313
-92.786	-146.303	0.426	0.037
-91.772	368.497	-0.119	0.238
-90.757	-200.000	-0.005	0.026
-89.743	77.836	0.074	-0.077
-88.728	166.041	0.010	-0.014
-87.713	-20.060	0.280	0.170
-86.699	224.590	0.076	-0.121
-85.684	324.189	0.043	-0.081
-84.670	800.000	-0.060	-0.186
-83.655	-89.342	0.200	0.058
-82.640	-146.602	0.247	-0.021
-81.626	-64.025	0.194	-0.078
-80.611	642.216	-0.031	0.077
-79.597	42.277	-0.235	0.211
-78.582	-67.822	0.248	0.096
-77.567	-133.811	-0.064	0.008
-76.553	800.000	0.078	0.260
-75.538	-200.000	0.011	0.121
-74.524	-185.764	0.145	-0.002
-73.509	22.203	0.103	0.083
-72.494	-200.000	-0.047	0.406
-71.480	130.060	0.167	-0.210
-70.465	-60.114	0.206	0.086
-69.451	190.083	0.060	-0.089
-68.436	29.221	0.287	-0.240
-67.422	696.933	0.045	0.116
-66.407	-147.574	0.191	0.016
-65.392	-200.000	0.003	-0.289
-64.378	-37.098	-0.087	-0.046
-63.363	-63.546	0.171	-0.069
-62.349	-200.000	0.017	0.189
-61.334	25.606	-0.940	-0.770
-60.319	109.168	0.437	0.515
-59.305	379.905	-0.414	-0.836
-58.290	800.000	0.336	1.104
-57.276	800.000	0.430	1.313
-56.261	-200.000	97.233	572.720
-55.246	625.688	1391.983	3456.463
-54.232	190.945	2593.281	3839.145
-53.217	112.953	2284.067	2724.438
-52.203	43.277	1903.711	1710.996
-51.188	37.359	1694.769	1478.290
-50.173	34.600	1650.929	1419.511
-49.159	52.407	1697.503	1594.068
-48.144	55.122	1714.268	1630.170
-47.130	37.182	1672.390	1457.212
-46.115	34.245	1657.635	1422.403
-45.100	34.025	1652.910	1416.653
-44.086	34.035	1650.507	1414.608
-43.071	34.036	1647.878	1412.310
-42.057	34.017	1645.501	1410.075
-41.042	34.122	1642.951	1408.609
-40.027	34.011	1641.736	1406.691
-39.013	34.030	1639.563	1404.917
-37.998	34.003	1638.351	1403.622
-36.984	34.121	1636.734	1403.052
-35.969	34.073	1635.373	1401.474
-34.954	34.268	1633.248	1401.032
-33.940	34.200	1631.801	1399.237
-32.925	34.186	1629.672	1397.252
-31.911	34.165	1628.039	1395.638
-30.896	34.186	1625.950	1393.946
-29.881	34.160	1624.554	1392.505
-28.867	34.259	1622.568	1391.474
-27.852	34.201	1621.552	1390.122
-26.838	34.175	1619.774	1388.357
-25.823	34.149	1618.657	1387.148
-24.809	34.199	1617.391	1386.376
-23.794	34.200	1616.148	1385.259
-22.779	34.162	1614.622	1383.621
-21.765	34.219	1613.078	1382.662
-20.750	34.195	1611.222	1380.841
-19.736	34.229	1609.820	1379.828
-18.721	34.186	1608.445	1378.286
-17.706	34.130	1607.420	1376.946
-16.692	34.086	1605.928	1375.296
-15.677	34.205	1603.848	1374.321
-14.663	34.195	1602.770	1373.268
-13.648	34.170	1601.097	1371.600
-12.633	34.250	1599.627	1370.865
-11.619	34.179	1598.034	1368.930
-10.604	34.257	1596.614	1368.224
-9.590	34.244	1595.239	1366.899
-8.575	34.172	1594.260	1365.487
-7.560	34.254	1592.915	1364.866
-6.546	34.217	1591.726	1363.528
-5.531	34.163	1590.916	1362.398
-4.517	34.217	1589.572	1361.574
-3.502	34.181	1588.780	1360.586
-2.487	34.237	1587.138	1359.526
-1.473	33.826	1575.386	1346.496
-0.458	30.854	1555.611	1308.690
0.556	27.389	1555.180	1273.792
1.571	24.795	1578.056	1273.970
2.586	24.162	1591.499	1280.161
3.600	21.401	1537.357	1217.306
4.615	12.944	1428.966	1076.418
5.629	5.915	1365.076	984.245
6.644	4.932	1356.574	971.901
7.659	4.828	1355.126	970.130
8.673	4.822	1354.080	969.258
9.688	4.899	1352.147	968.270
10.702	4.720	1349.846	965.426
11.717	7.910	1355.408	989.163
12.731	15.549	1369.151	1046.886
13.746	20.338	1376.274	1082.167
14.761	19.946	1374.860	1078.520
15.775	19.101	1371.543	1070.567
16.790	17.830	1369.529	1061.003
17.804	17.081	1366.742	1054.104
18.819	16.534	1365.731	1049.837
19.834	16.464	1364.149	1048.095
20.848	16.251	1363.240	1045.982
21.863	15.889	1361.744	1042.501
22.877	15.772	1361.051	1041.150
23.892	15.728	1360.173	1040.118
24.907	15.785	1359.182	1039.617
25.921	15.790	1358.146	1038.768
26.936	15.817	1357.263	1038.163
27.950	15.938	1356.083	1037.919
28.965	15.822	1355.571	1036.718
29.980	16.076	1354.232	1037.165
30.994	16.027	1353.368	1036.110
32.009	16.186	1352.305	1036.180
33.023	16.131	1350.756	1034.564
34.038	16.019	1349.873	1033.112
35.053	16.025	1348.222	1031.794
36.067	15.928	1347.511	1030.564
37.082	15.920	1346.440	1029.605
38.096	15.928	1345.606	1028.926
39.111	16.040	1344.611	1028.757
40.126	16.012	1343.285	1027.484
41.140	15.775	1342.840	1025.602
42.155	15.663	1342.058	1024.237
43.169	15.662	1341.733	1023.892
44.184	15.669	1342.158	1024.165
45.199	15.616	1342.014	1023.644
46.213	15.738	1341.341	1023.783
47.228	15.790	1340.082	1023.043
48.242	15.910	1338.978	1022.840
49.257	15.908	1337.657	1021.733
50.271	15.851	1335.922	1019.969
51.286	15.881	1334.913	1019.290
52.301	15.900	1333.375	1018.138
53.315	15.848	1332.411	1016.998
54.330	15.701	1331.587	1015.394
55.344	15.711	1330.350	1014.423
56.359	15.777	1328.955	1013.665
57.374	15.697	1328.475	1012.728
58.388	15.623	1327.568	1011.504
59.403	15.607	1327.204	1011.040
60.417	15.611	1326.063	1010.104
61.432	15.516	1325.307	1008.864
62.447	15.527	1324.615	1008.319
63.461	15.543	1323.025	1007.113
64.476	15.565	1321.862	1006.269
65.490	15.507	1320.934	1005.131
66.505	15.558	1319.711	1004.414
67.520	15.652	1318.321	1003.827
68.534	15.622	1317.572	1002.990
69.549	15.601	1316.515	1001.974
70.563	15.469	1315.242	1000.128
71.578	15.423	1314.268	999.026
72.593	15.487	1312.987	998.346
73.607	15.374	1312.721	997.378
74.622	15.440	1311.331	996.628
75.636	15.425	1311.079	996.260
76.651	15.553	1309.784	995.948
77.666	15.402	1310.174	995.260
78.680	15.550	1309.307	995.389
79.695	15.619	1308.535	995.120
80.709	15.591	1308.079	994.522
81.724	15.619	1306.711	993.558
82.739	15.787	1305.895	993.844
83.753	15.834	1305.207	993.510
84.768	15.925	1304.507	993.428
85.782	15.971	1303.489	992.836
86.797	16.037	1302.059	992.047
87.812	15.942	1300.542	990.241
88.826	15.894	1299.656	989.202
89.841	15.789	1299.370	988.276
90.855	15.921	1297.675	987.677
91.870	16.014	1297.228	987.793
92.884	15.908	1296.457	986.499
93.899	16.035	1295.343	986.305
94.914	16.079	1294.928	986.159
95.928	16.091	1294.103	985.513
96.943	16.098	1292.993	984.624
97.957	15.910	1292.181	982.819
98.972	16.003	1290.707	982.154
99.987	15.875	1290.338	981.040
101.001	16.014	1289.056	980.787
102.016	15.961	1287.859	979.481
103.030	16.040	1286.880	979.111
104.045	15.907	1286.266	977.785
105.060	15.836	1285.239	976.504
106.074	15.824	1283.772	975.237
107.089	15.698	1282.057	973.118
108.103	15.593	1281.147	971.733
109.118	15.690	1279.495	970.953
110.133	15.559	1278.766	969.556
111.147	15.693	1276.931	968.854
112.162	15.597	1276.126	967.607
113.176	15.735	1275.084	967.522
114.191	15.680	1273.933	966.245
115.206	15.706	1272.858	965.497
116.220	15.666	1271.490	964.143
117.235	15.765	1270.330	963.749
118.249	15.725	1269.561	962.848
119.264	15.640	1268.231	961.268
120.279	15.627	1267.004	960.180
121.293	15.564	1266.454	959.317
122.308	15.614	1265.005	958.423
123.322	15.545	1263.948	957.138
124.337	15.586	1263.118	956.659
125.352	15.566	1262.026	955.638
126.366	15.480	1261.031	954.311
127.381	15.626	1260.072	954.328
128.395	15.643	1258.627	953.243
129.410	15.600	1258.134	952.545
130.424	15.666	1256.900	951.898
131.439	15.777	1255.867	951.660
132.454	15.701	1255.047	950.524
133.468	15.736	1254.352	950.110
134.483	15.785	1253.764	949.862
135.497	15.717	1253.040	948.843
136.512	15.767	1251.618	947.967
137.527	15.761	1250.453	946.963
138.541	15.709	1249.317	945.729
139.556	15.971	1247.393	945.661
140.570	15.904	1246.622	944.614
141.585	15.972	1245.365	943.958
142.600	15.997	1244.465	943.335
143.614	16.116	1243.674	943.315
144.629	16.057	1242.587	942.077
145.643	16.028	1241.156	940.752
146.658	16.066	1240.283	940.214
147.673	15.855	1238.804	937.837
148.687	15.841	1237.622	936.780
149.702	15.830	1235.882	935.320
150.716	15.682	1234.852	933.634
151.731	15.866	1233.620	933.641
152.746	15.811	1232.338	932.287
153.760	15.896	1231.064	931.710
154.775	15.897	1230.376	931.114
155.789	16.005	1229.311	930.821
156.804	15.983	1228.317	929.864
157.819	16.078	1227.474	929.668
158.833	16.125	1226.490	929.101
159.848	16.211	1225.576	928.799
160.862	16.191	1224.600	927.866
161.877	15.951	1223.572	925.688
162.892	15.917	1222.375	924.510
163.906	15.865	1221.839	923.739
164.921	15.853	1220.772	922.784
165.935	15.858	1220.456	922.494
166.950	15.972	1219.434	922.261
167.964	15.999	1218.412	921.552
168.979	15.984	1217.942	921.035
169.994	16.072	1217.228	920.896
171.008	16.054	1216.216	919.949
172.023	16.076	1215.851	919.713
173.037	16.154	1214.758	919.228
174.052	16.117	1214.013	918.382
175.067	16.047	1212.806	917.006
176.081	16.041	1211.848	916.172
177.096	16.125	1210.605	915.604
178.110	16.049	1209.851	914.538
179.125	16.019	1208.819	913.515
180.140	16.149	1207.140	912.868
181.154	16.135	1206.179	911.986
182.169	16.080	1205.336	910.970
183.183	16.170	1204.266	910.572
184.198	16.251	1202.928	909.914
185.213	16.318	1201.847	909.376
186.227	16.345	1200.941	908.757
187.242	16.268	1200.303	907.779
188.256	16.366	1199.289	907.455
189.271	16.288	1198.520	906.377
190.286	16.189	1197.249	904.803
191.300	16.019	1196.216	903.035
192.315	16.099	1194.467	902.059
193.329	16.058	1194.227	901.582
194.344	16.106	1193.887	901.502
195.359	16.066	1193.634	901.016
196.373	16.263	1193.388	901.804
197.388	16.351	1192.566	901.574
198.402	16.400	1192.093	901.398
199.417	16.576	1191.494	901.802
200.432	16.659	1190.495	901.411
201.446	16.532	1190.065	900.327
202.461	16.671	1189.076	900.236
203.475	16.725	1188.001	899.633
204.490	16.604	1186.505	897.777
205.504	16.436	1186.016	896.437
206.519	16.435	1184.586	895.272
207.534	16.529	1183.520	894.884
208.548	16.472	1182.145	893.462
209.563	16.528	1181.747	893.381
210.577	16.580	1180.866	892.910
211.592	16.543	1180.385	892.269
212.607	16.572	1179.456	891.641
213.621	16.632	1178.883	891.448
214.636	16.650	1177.409	890.348
215.650	16.726	1176.496	889.979
216.665	16.752	1175.438	889.237
217.680	16.813	1174.700	888.919
218.694	16.836	1173.746	888.241
219.709	16.687	1173.035	886.840
220.723	16.743	1172.385	886.566
221.738	16.811	1171.858	886.443
222.753	16.758	1171.158	885.559
223.767	16.716	1170.974	885.120
224.782	16.755	1170.368	884.786
225.796	16.879	1169.860	884.972
226.811	16.914	1168.510	884.056
227.826	16.830	1167.742	882.959
228.840	16.815	1166.949	882.206
229.855	16.761	1166.570	881.561
230.869	16.792	1165.683	880.972
231.884	16.896	1164.663	880.661
232.899	16.767	1163.932	879.364
233.913	16.759	1162.751	878.352
234.928	16.719	1162.765	878.077
235.942	16.725	1161.933	877.403
236.957	16.727	1160.754	876.446
237.972	16.674	1160.462	875.872
238.986	16.712	1159.607	875.343
240.001	16.765	1159.030	875.107
241.015	16.660	1158.171	873.838
242.030	16.724	1157.424	873.527
243.045	16.786	1156.812	873.308
244.059	16.932	1155.670	873.120
245.074	16.979	1154.966	872.752
246.088	17.011	1154.158	872.229
247.103	17.061	1153.387	871.827
248.117	17.111	1152.644	871.445
249.132	17.235	1151.835	871.393
250.147	17.353	1151.113	871.375
251.161	17.423	1150.403	871.118
252.176	17.244	1150.288	870.036
253.190	17.544	1149.488	870.890
254.205	17.498	1148.693	869.976
255.220	17.462	1148.107	869.271
256.234	17.430	1147.710	868.727
257.249	17.539	1146.838	868.550
258.263	17.448	1146.480	867.737
259.278	17.482	1145.698	867.239
260.293	17.441	1145.175	866.557
261.307	17.565	1144.436	866.556
262.322	17.563	1143.910	866.068
263.336	17.669	1142.893	865.759
264.351	17.649	1142.616	865.372
265.366	17.676	1141.905	864.896
266.380	17.674	1141.120	864.213
267.395	17.581	1140.583	863.256
268.409	17.498	1139.857	862.215
269.424	17.579	1139.328	862.144
270.439	17.462	1138.723	861.023
271.453	17.522	1137.866	860.601
272.468	17.504	1136.496	859.397
273.482	17.545	1136.068	859.206
274.497	17.437	1135.588	858.220
275.512	17.471	1135.041	857.903
276.526	17.597	1134.382	857.960
277.541	17.569	1133.161	856.822
278.555	17.631	1132.809	856.794
279.570	17.697	1131.721	856.222
280.585	17.784	1131.062	856.086
281.599	17.819	1130.305	855.615
282.614	17.758	1128.972	854.224
283.628	17.709	1128.004	853.172
284.643	17.771	1126.764	852.466
285.657	17.818	1126.001	852.048
286.672	17.709	1125.545	851.084
287.687	17.802	1124.554	850.723
288.701	17.726	1124.061	849.895
289.716	17.737	1123.363	849.351
290.730	17.718	1122.456	848.493
291.745	17.832	1121.864	848.538
292.760	17.952	1120.540	848.059
293.774	17.906	1120.435	847.672
294.789	17.863	1119.915	846.994
295.803	17.953	1119.331	846.923
296.818	17.830	1118.576	845.667
297.833	17.787	1117.914	844.876
298.847	17.927	1116.940	844.758
299.862	17.858	1116.021	843.649
300.876	17.878	1115.794	843.501
301.891	17.939	1115.042	843.161
302.906	18.032	1114.140	842.862
303.920	18.059	1113.826	842.683
304.935	18.161	1113.052	842.526
305.949	18.207	1112.483	842.248
306.964	18.280	1111.465	841.757
307.979	18.240	1110.849	841.022
308.993	18.140	1110.029	839.838
310.008	18.219	1109.098	839.445
311.022	18.233	1108.527	839.008
312.037	18.348	1107.550	838.758
313.052	18.302	1106.434	837.611
314.066	18.195	1105.532	836.331
315.081	17.794	1105.139	833.998
316.095	17.991	1104.070	834.082
317.110	18.102	1103.426	834.061
318.125	18.060	1102.754	833.278
319.139	17.974	1102.427	832.538
320.154	18.041	1101.020	831.728
321.168	18.177	1101.031	832.325
322.183	18.113	1100.264	831.359
323.197	18.145	1099.612	830.949
324.212	18.097	1099.033	830.202
325.227	18.133	1098.648	830.013
326.241	18.129	1098.548	829.848
327.256	18.207	1096.983	828.970
328.270	18.166	1095.855	827.843
329.285	18.267	1094.736	827.416
330.300	18.122	1094.248	826.271
331.314	18.116	1093.395	825.526
332.329	18.096	1092.574	824.734
333.343	18.135	1091.447	823.999
334.358	18.360	1090.518	824.309
335.373	18.306	1089.841	823.464
336.387	18.340	1089.211	823.077
337.402	18.388	1088.799	822.927
338.416	18.305	1088.177	821.985
339.431	18.471	1087.129	821.917
340.446	18.524	1086.647	821.734
341.460	18.644	1086.294	821.967
342.475	18.566	1085.376	820.828
343.489	18.757	1084.468	820.982
344.504	18.793	1083.226	820.141
345.519	18.626	1083.117	819.189
346.533	18.827	1082.098	819.301
347.548	18.708	1081.469	818.187
348.562	18.717	1080.714	817.588
349.577	18.682	1079.725	816.599
350.592	18.603	1079.111	815.688
351.606	18.552	1078.447	814.870
352.621	18.526	1077.608	814.042
353.635	18.491	1076.892	813.264
354.650	18.651	1076.123	813.370
355.665	18.579	1075.783	812.698
356.679	18.683	1074.790	812.367
357.694	18.706	1074.386	812.099
358.708	18.780	1073.542	811.741
359.723	18.669	1073.339	810.991
360.738	18.659	1073.004	810.617
361.752	18.777	1072.077	810.400
362.767	18.782	1071.278	809.749
363.781	18.777	1070.773	809.274
364.796	18.855	1070.127	809.081
365.810	18.876	1069.769	808.836
366.825	19.017	1069.217	809.014
367.840	19.095	1068.737	808.943
368.854	19.156	1068.287	808.816
369.869	19.069	1067.627	807.840
370.883	19.107	1066.626	807.186
371.898	18.991	1065.543	805.754
372.913	19.095	1065.241	805.941
373.927	19.035	1064.772	805.235
374.942	19.076	1064.180	804.907
375.956	19.157	1063.843	804.960
376.971	19.050	1063.301	803.976
377.986	19.124	1062.685	803.786
379.000	19.164	1062.091	803.451
380.015	19.297	1061.391	803.472
381.029	19.261	1060.624	802.651
382.044	19.284	1060.780	802.806
383.059	19.261	1059.520	801.674
384.073	19.157	1058.967	800.702
385.088	19.388	1057.729	800.769
386.102	19.398	1056.617	799.903
387.117	19.258	1055.865	798.612
388.132	19.266	1054.860	797.819
389.146	19.274	1054.115	797.221
390.161	19.195	1053.244	796.128
391.175	19.243	1052.807	795.950
392.190	19.297	1052.340	795.772
393.205	19.423	1051.426	795.591
394.219	19.270	1050.874	794.400
395.234	19.229	1049.752	793.291
396.248	19.261	1048.614	792.510
397.263	19.331	1047.823	792.163
398.278	19.207	1047.442	791.237
399.292	19.157	1046.451	790.189
400.307	19.260	1045.628	789.969
401.321	19.084	1045.048	788.656
402.336	19.183	1044.384	788.538
403.350	19.376	1043.314	788.543
404.365	19.289	1043.020	787.850
405.380	19.349	1042.436	787.616
406.394	19.287	1041.823	786.801
407.409	19.565	1040.950	787.340
408.423	19.545	1040.476	786.817
409.438	19.544	1039.810	786.243
410.453	19.662	1038.858	785.987
411.467	19.784	1038.232	786.000
412.482	19.743	1037.307	785.044
413.496	19.660	1037.027	784.385
414.511	19.697	1036.524	784.106
415.526	19.689	1036.277	783.812
416.540	19.771	1035.947	783.867
417.555	19.752	1035.454	783.338
418.569	19.827	1034.408	782.815
419.584	19.784	1034.050	782.280
420.599	19.787	1033.332	781.681
421.613	151.425	1401.275	1792.119
422.628	138.257	1454.902	1792.227
