DTS Sentinel unit serial number:	SN413079Multiplexer serial number:	ORYXHardware model number:	OX4-SRSoftware version number:	ORYX F/W v4.00 Oryx Data Collector v3.7.2.0data status	okinstallation	princeton_trtdifferential loss correction	single-endedforward channel	channel 2reverse channel	N/Adate	2019/09/17time	15:39:35forward acquisition time	60.00reverse acquisition time	0.00gamma	496.2192k internal	0.2302k external	0.2302temperature offset calibration	0.9983default loss term (dB/km)	0.3790temperature slope calibration	1.0000multiplexer offset coefficient	1.0000multiplexer slope coefficient	1.0000fibre end	0.00T internal ref (°C)	38.69T ext. ref 1 (°C)	0.38T ext. ref 2 (°C)	35.97length (m)	temperature (°C)	Stokes	anti-Stokes-747.200	800.000	-0.015	-0.065
-746.185	190.381	0.129	0.197
-745.171	-200.000	-0.021	0.093
-744.156	-107.641	-0.372	0.083
-743.142	51.093	-0.171	0.165
-742.127	580.542	-0.083	0.207
-741.112	-121.157	-0.041	-0.007
-740.098	344.391	-0.225	0.449
-739.083	-82.529	-0.298	-0.098
-738.069	-73.830	-0.237	0.088
-737.054	-64.185	-0.037	0.015
-736.039	656.204	-0.072	0.190
-735.025	-129.462	0.284	-0.040
-734.010	-107.096	-0.410	-0.092
-732.996	138.941	-0.067	-0.090
-731.981	60.699	0.514	-0.519
-730.966	-200.000	0.051	-0.388
-729.952	-62.389	-0.212	-0.090
-728.937	-150.968	-0.261	-0.020
-727.923	274.077	0.095	0.172
-726.908	439.071	-0.045	-0.099
-725.894	800.000	-0.058	-0.195
-724.879	-40.203	-0.061	-0.032
-723.864	-44.705	-0.555	-0.282
-722.850	121.069	0.167	-0.212
-721.835	-89.903	-0.317	0.094
-720.821	-200.000	0.074	-0.439
-719.806	-92.843	0.256	-0.073
-718.791	-178.800	0.351	0.008
-717.777	-61.692	-0.420	0.179
-716.762	800.000	0.023	-0.067
-715.748	562.439	0.064	0.158
-714.733	-87.038	0.331	0.103
-713.718	404.374	0.126	-0.269
-712.704	-108.332	0.220	-0.048
-711.689	-187.017	-0.059	-0.001
-710.675	-194.527	0.205	-0.002
-709.660	15.235	0.204	-0.163
-708.645	12.764	-0.093	-0.073
-707.631	5.468	0.146	0.110
-706.616	-26.456	0.045	-0.027
-705.602	-68.043	0.093	0.037
-704.587	11.243	0.137	0.107
-703.572	147.824	0.039	0.053
-702.558	29.717	0.179	0.155
-701.543	800.000	0.057	-0.251
-700.529	-88.446	-0.371	-0.113
-699.514	12.365	0.344	0.270
-698.499	-200.000	-0.003	-0.114
-697.485	-70.007	-0.247	0.096
-696.470	-200.000	-0.030	0.408
-695.456	-200.000	-0.015	-0.241
-694.441	142.020	-0.059	-0.080
-693.426	106.906	0.097	-0.117
-692.412	-200.000	0.016	-0.124
-691.397	161.476	-0.144	-0.205
-690.383	-45.917	-0.087	0.044
-689.368	566.881	-0.166	-0.410
-688.354	94.164	-0.101	0.116
-687.339	-52.902	-0.140	-0.066
-686.324	11.537	-0.221	0.172
-685.310	-4.272	-0.230	-0.162
-684.295	-106.896	-0.291	0.065
-683.281	800.000	0.036	-0.140
-682.266	-116.319	-0.177	0.033
-681.251	147.191	-0.256	-0.351
-680.237	-113.661	0.152	0.030
-679.222	-200.000	-0.027	0.178
-678.208	-117.029	-0.143	-0.026
-677.193	49.876	-0.220	0.211
-676.178	166.510	0.082	0.118
-675.164	164.836	-0.217	-0.311
-674.149	-57.568	-0.267	0.119
-673.135	497.696	-0.082	-0.193
-672.120	800.000	0.050	-0.174
-671.105	-138.436	0.133	0.015
-670.091	296.942	0.133	0.249
-669.076	438.814	-0.087	-0.193
-668.062	-200.000	0.013	-0.462
-667.047	-95.945	-0.169	0.046
-666.032	-26.745	-0.190	0.113
-665.018	-11.464	0.370	0.247
-664.003	-57.091	0.151	-0.067
-662.989	-200.000	-0.030	0.180
-661.974	176.879	-0.209	-0.309
-660.959	-184.695	0.232	0.004
-659.945	448.582	-0.049	-0.110
-658.930	800.000	-0.130	-0.487
-657.916	106.764	-0.109	-0.131
-656.901	-123.964	0.171	0.027
-655.886	-200.000	-0.054	-0.280
-654.872	524.807	0.145	0.345
-653.857	122.158	-0.057	-0.073
-652.843	-38.957	-0.182	0.097
-651.828	298.098	0.136	-0.254
-650.814	-55.436	-0.165	-0.075
-649.799	-200.000	0.013	-0.161
-648.784	-23.962	-0.012	0.007
-647.770	-141.961	0.162	0.016
-646.755	14.313	-0.369	0.292
-645.741	632.532	0.111	0.284
-644.726	-78.699	-0.117	-0.041
-643.711	-200.000	0.033	0.259
-642.697	-2.178	-0.124	0.089
-641.682	-200.000	-0.003	0.068
-640.668	-117.584	-0.153	0.028
-639.653	800.000	0.030	0.097
-638.638	-29.919	-0.172	-0.099
-637.624	50.564	-0.129	0.124
-636.609	800.000	-0.107	-0.354
-635.595	-200.000	-0.005	0.026
-634.580	-97.036	0.155	-0.041
-633.565	-171.646	-0.089	-0.003
-632.551	800.000	0.117	-0.372
-631.536	37.962	-0.034	-0.031
-630.522	151.229	-0.088	-0.121
-629.507	-200.000	-0.033	0.180
-628.492	800.000	-0.072	0.204
-627.478	317.014	0.112	-0.215
-626.463	527.053	0.092	-0.219
-625.449	-96.458	0.149	-0.040
-624.434	-200.000	0.032	-0.158
-623.419	126.396	0.052	-0.066
-622.405	-200.000	0.016	0.124
-621.390	-44.341	0.148	-0.075
-620.376	266.483	-0.160	-0.284
-619.361	26.582	-0.049	0.041
-618.346	153.591	0.148	0.205
-617.332	372.737	-0.132	-0.273
-616.317	-200.000	-0.002	-0.222
-615.303	-200.000	-0.001	0.142
-614.288	-200.000	0.073	0.463
-613.273	-24.502	-0.222	-0.134
-612.259	-159.440	0.477	-0.027
-611.244	-15.468	-0.182	0.118
-610.230	27.567	0.083	0.071
-609.215	800.000	0.075	0.275
-608.201	-50.835	-0.134	0.064
-607.186	103.875	-0.174	0.208
-606.171	39.251	0.171	0.155
-605.157	-118.404	0.287	-0.052
-604.142	-200.000	-0.009	0.176
-603.128	-124.814	-0.145	-0.023
-602.113	-200.000	-0.006	0.261
-601.098	-117.706	0.050	-0.009
-600.084	39.533	0.209	0.190
-599.069	711.467	-0.048	-0.128
-598.055	-200.000	0.024	-0.122
-597.040	-30.480	-0.207	0.119
-596.025	-74.282	0.155	-0.057
-595.011	274.207	-0.071	0.128
-593.996	26.318	-0.175	0.148
-592.982	-47.694	0.197	-0.097
-591.967	266.610	0.030	-0.054
-590.952	-39.953	-0.150	-0.079
-589.938	-100.008	0.295	0.075
-588.923	141.513	-0.110	-0.147
-587.909	-83.431	-0.178	0.058
-586.894	800.000	0.069	-0.226
-585.879	-46.261	0.106	-0.053
-584.865	-200.000	0.006	0.181
-583.850	-110.477	0.087	0.018
-582.836	-69.322	-0.333	-0.130
-581.821	136.495	0.191	0.253
-580.806	227.343	-0.131	0.215
-579.792	-149.461	-0.067	0.005
-578.777	-38.524	0.271	0.145
-577.763	800.000	-0.168	-0.472
-576.748	-132.561	-0.144	0.019
-575.733	-30.626	0.267	0.153
-574.719	227.939	0.053	-0.088
-573.704	276.263	-0.034	-0.060
-572.690	-200.000	-0.043	-0.228
-571.675	-17.373	-0.104	0.066
-570.661	-4.636	0.241	0.168
-569.646	1.788	-0.171	0.125
-568.631	-94.482	0.064	0.018
-567.617	-55.469	0.050	0.022
-566.602	441.948	0.118	0.261
-565.588	81.665	-0.101	0.110
-564.573	-117.804	0.171	0.031
-563.558	22.071	0.288	0.238
-562.544	-200.000	0.020	-0.281
-561.529	-130.343	-0.359	-0.049
-560.515	-122.063	-0.153	0.025
-559.500	54.134	-0.187	0.182
-558.485	24.882	-0.236	-0.198
-557.471	366.265	0.022	0.044
-556.456	0.772	-0.225	-0.163
-555.442	-176.565	-0.186	-0.005
-554.427	-108.869	-0.418	0.090
-553.412	6.129	0.232	0.174
-552.398	624.850	0.010	0.025
-551.383	-200.000	-0.002	0.312
-550.369	103.607	-0.130	0.155
-549.354	405.682	-0.094	-0.200
-548.339	56.532	0.177	0.174
-547.325	-200.000	0.089	0.464
-546.310	373.472	-0.078	0.160
-545.296	446.332	-0.054	0.120
-544.281	800.000	0.057	-0.241
-543.266	34.064	-0.295	-0.260
-542.252	-159.009	-0.183	0.011
-541.237	66.260	0.049	-0.050
-540.223	800.000	-0.061	-0.239
-539.208	-200.000	-0.009	-0.291
-538.193	-112.636	-0.127	-0.026
-537.179	183.532	-0.208	-0.311
-536.164	-149.346	0.256	0.021
-535.150	28.336	-0.145	0.124
-534.135	32.418	0.298	-0.260
-533.121	42.115	0.125	-0.115
-532.106	-88.263	-0.080	-0.024
-531.091	241.028	0.062	0.105
-530.077	-200.000	0.005	-0.086
-529.062	800.000	-0.049	-0.149
-528.048	-75.067	-0.184	-0.067
-527.033	163.329	0.169	0.240
-526.018	-18.509	-0.081	-0.051
-525.004	674.205	-0.068	0.179
-523.989	-182.846	0.121	0.002
-522.975	-45.041	-0.353	0.177
-521.960	800.000	0.035	0.133
-520.945	29.916	0.165	-0.142
-519.931	238.170	-0.195	0.327
-518.916	234.389	0.175	-0.291
-517.902	38.622	-0.162	0.146
-516.887	13.766	-0.101	-0.079
-515.872	-34.958	-0.219	-0.121
-514.858	-83.174	-0.095	-0.031
-513.843	286.647	-0.004	0.007
-512.829	-87.546	-0.109	0.033
-511.814	620.117	-0.147	-0.373
-510.799	79.647	0.123	-0.134
-509.785	800.000	0.162	-0.571
-508.770	-48.568	-0.242	0.118
-507.756	-200.000	0.001	-0.138
-506.741	-157.285	0.448	-0.027
-505.726	800.000	-0.023	-0.080
-504.712	-91.258	-0.140	0.041
-503.697	-101.780	-0.289	0.071
-502.683	-8.932	0.150	-0.102
-501.668	399.631	-0.142	-0.300
-500.653	191.214	0.084	-0.128
-499.639	104.756	-0.032	0.038
-498.624	8.731	0.193	-0.147
-497.610	248.318	-0.074	-0.126
-496.595	160.083	-0.197	-0.276
-495.581	-51.918	0.249	0.117
-494.566	-20.752	0.039	0.024
-493.551	-11.826	-0.188	-0.125
-492.537	-200.000	-0.030	-0.246
-491.522	-70.443	0.301	-0.115
-490.508	558.139	-0.122	-0.296
-489.493	147.239	-0.229	0.310
-488.478	439.164	0.062	0.137
-487.464	380.869	0.103	-0.213
-486.449	-93.353	0.175	-0.049
-485.435	191.017	-0.140	0.212
-484.420	800.000	0.067	0.239
-483.405	-161.551	-0.355	0.018
-482.391	140.392	-0.025	-0.033
-481.376	-123.374	0.075	0.012
-480.362	324.774	-0.036	-0.070
-479.347	-200.000	0.017	0.106
-478.332	198.512	-0.071	0.110
-477.318	-51.179	0.223	0.105
-476.303	110.541	-0.183	0.222
-475.289	64.892	0.136	0.138
-474.274	800.000	-0.014	0.059
-473.259	-95.661	-0.191	0.051
-472.245	-115.077	-0.257	0.049
-471.230	262.969	-0.098	-0.172
-470.216	-74.956	0.138	-0.050
-469.201	800.000	-0.080	-0.226
-468.186	112.142	-0.095	-0.115
-467.172	27.167	-0.146	0.123
-466.157	-166.608	-0.317	-0.013
-465.143	-57.635	-0.124	-0.055
-464.128	57.664	0.268	0.264
-463.113	-64.009	-0.177	0.073
-462.099	800.000	-0.126	0.430
-461.084	-96.559	0.326	-0.087
-460.070	-88.728	-0.026	0.008
-459.055	264.566	0.051	0.090
-458.040	51.833	-0.212	0.204
-457.026	-48.739	0.279	-0.135
-456.011	-200.000	0.009	-0.137
-454.997	177.941	0.138	-0.203
-453.982	177.775	-0.006	-0.009
-452.968	-200.000	0.199	0.000
-451.953	446.210	0.067	-0.148
-450.938	68.238	-0.045	-0.046
-449.924	70.177	-0.171	-0.178
-448.909	-200.000	-0.013	-0.350
-447.895	109.259	-0.170	0.205
-446.880	-34.242	0.446	0.246
-445.865	-27.537	-0.069	0.040
-444.851	-79.927	0.178	-0.060
-443.836	-48.089	-0.217	0.106
-442.822	-200.000	-0.006	0.158
-441.807	-15.991	-0.093	-0.059
-440.792	-124.921	0.291	-0.045
-439.778	-158.788	-0.525	-0.030
-438.763	-37.517	-0.060	0.032
-437.749	-200.000	0.015	-0.141
-436.734	800.000	-0.064	-0.240
-435.719	-200.000	0.016	-0.236
-434.705	598.981	0.123	-0.306
-433.690	628.510	0.022	-0.055
-432.676	-65.956	-0.216	-0.087
-431.661	-183.671	-0.392	-0.007
-430.646	-133.718	0.358	-0.045
-429.632	-200.000	-0.042	0.212
-428.617	-150.423	0.317	-0.025
-427.603	-30.271	0.233	-0.133
-426.588	-154.195	0.418	0.028
-425.573	268.227	-0.098	-0.172
-424.559	350.466	-0.150	0.298
-423.544	800.000	0.077	0.335
-422.530	42.478	-0.245	0.224
-421.515	-33.885	0.280	0.155
-420.500	48.022	-0.081	-0.076
-419.486	-74.832	-0.216	-0.078
-418.471	451.401	0.084	-0.186
-417.457	800.000	-0.035	-0.137
-416.442	681.948	0.232	-0.609
-415.428	319.949	0.131	-0.250
-414.413	137.968	0.129	-0.170
-413.398	191.465	-0.103	-0.157
-412.384	131.733	0.126	-0.163
-411.369	-200.000	0.047	-0.379
-410.355	-84.686	0.044	0.014
-409.340	-130.977	-0.054	-0.007
-408.325	544.399	-0.017	-0.041
-407.311	-78.432	0.249	-0.086
-406.296	270.632	-0.055	0.097
-405.282	-162.768	0.210	0.010
-404.267	800.000	0.031	0.117
-403.252	34.909	0.225	0.198
-402.238	-122.904	-0.345	-0.056
-401.223	231.420	-0.092	-0.151
-400.209	-108.956	-0.365	0.078
-399.194	135.452	-0.053	0.069
-398.179	-200.000	-0.017	-0.155
-397.165	259.085	-0.076	-0.131
-396.150	662.541	-0.140	-0.364
-395.136	166.868	-0.170	-0.242
-394.121	-5.093	0.055	0.038
-393.106	388.335	-0.013	0.028
-392.092	800.000	-0.138	0.406
-391.077	-179.544	-0.199	0.004
-390.063	178.035	-0.095	-0.139
-389.048	-128.958	0.149	-0.021
-388.033	-71.897	-0.178	0.067
-387.019	-200.000	-0.011	0.180
-386.004	166.467	0.203	-0.289
-384.990	-60.817	-0.322	-0.137
-383.975	151.326	0.013	0.017
-382.960	-38.383	-0.102	0.054
-381.946	-89.857	-0.061	-0.018
-380.931	179.075	0.151	0.222
-379.917	635.631	-0.099	-0.253
-378.902	177.050	0.184	-0.269
-377.888	267.793	-0.022	0.039
-376.873	309.801	0.006	0.012
-375.858	-200.000	0.025	-0.318
-374.844	800.000	-0.023	-0.070
-373.829	175.929	0.047	0.068
-372.815	28.280	0.186	0.158
-371.800	144.755	0.252	-0.339
-370.785	-40.189	0.416	-0.218
-369.771	-200.000	0.044	0.241
-368.756	800.000	-0.022	-0.088
-367.742	-68.961	-0.145	-0.056
-366.727	-200.000	-0.030	-0.331
-365.712	800.000	0.066	-0.226
-364.698	10.878	0.099	0.076
-363.683	29.319	-0.121	0.103
-362.669	-83.898	0.333	0.106
-361.654	-48.384	-0.101	-0.049
-360.639	372.257	0.198	0.404
-359.625	-36.977	0.321	0.173
-358.610	-41.408	0.270	0.140
-357.596	-8.020	0.279	-0.189
-356.581	-83.676	0.418	0.134
-355.566	57.235	0.167	-0.163
-354.552	21.911	0.210	0.172
-353.537	47.670	0.183	0.172
-352.523	800.000	0.017	0.074
-351.508	-73.977	0.189	0.069
-350.493	-55.385	-0.184	-0.083
-349.479	84.328	0.140	0.153
-348.464	101.727	-0.088	-0.102
-347.450	240.457	-0.084	-0.141
-346.435	-61.288	0.214	0.091
-345.420	32.473	-0.104	0.091
-344.406	-27.425	0.320	-0.187
-343.391	95.206	-0.148	0.169
-342.377	-200.000	0.002	0.036
-341.362	-175.137	-0.214	-0.006
-340.348	-147.510	-0.217	-0.018
-339.333	64.928	0.227	0.230
-338.318	-57.306	0.356	-0.157
-337.304	113.850	-0.115	0.140
-336.289	-80.778	0.106	0.035
-335.275	-200.000	-0.009	-0.301
-334.260	303.362	0.190	-0.353
-333.245	-44.053	0.166	0.084
-332.231	-60.257	-0.234	0.100
-331.216	72.595	0.221	0.232
-330.202	-6.161	0.111	0.076
-329.187	-21.767	-0.150	0.091
-328.172	81.334	-0.068	0.074
-327.158	-200.000	0.036	0.353
-326.143	107.274	-0.071	0.085
-325.129	-48.076	-0.229	-0.111
-324.114	17.797	-0.176	0.140
-323.099	-53.081	-0.428	0.197
-322.085	231.574	0.183	-0.301
-321.070	394.206	-0.032	0.066
-320.056	251.427	0.130	0.222
-319.041	145.578	0.021	0.028
-318.026	151.503	-0.072	-0.098
-317.012	-115.414	0.129	0.024
-315.997	-80.351	-0.111	0.037
-314.983	250.786	0.065	-0.110
-313.968	-81.573	0.309	-0.102
-312.953	-85.529	-0.402	-0.125
-311.939	7.926	0.115	-0.087
-310.924	58.152	-0.216	0.213
-309.910	-200.000	-0.054	0.325
-308.895	79.246	-0.219	-0.235
-307.880	-16.763	-0.160	-0.101
-306.866	10.478	-0.266	0.203
-305.851	-87.482	-0.463	0.140
-304.837	162.373	0.079	-0.111
-303.822	-189.903	0.164	-0.002
-302.807	-139.219	0.030	-0.003
-301.793	800.000	-0.111	-0.323
-300.778	-66.307	0.014	0.005
-299.764	-200.000	0.082	0.438
-298.749	73.846	0.053	-0.055
-297.735	135.593	-0.159	-0.207
-296.720	261.918	-0.029	-0.051
-295.705	-87.995	-0.297	-0.089
-294.691	800.000	-0.032	-0.126
-293.676	135.668	-0.131	-0.171
-292.662	145.293	-0.053	0.071
-291.647	-200.000	-0.008	-0.275
-290.632	800.000	-0.032	0.137
-289.618	800.000	-0.126	-0.355
-288.603	-200.000	0.004	-0.122
-287.589	40.916	0.288	0.260
-286.574	-29.081	-0.291	-0.167
-285.559	800.000	0.037	-0.107
-284.545	-45.631	0.245	0.121
-283.530	-17.537	0.013	-0.008
-282.516	41.346	0.045	0.040
-281.501	-98.631	-0.188	-0.048
-280.486	-200.000	-0.007	0.087
-279.472	-128.505	0.147	0.021
-278.457	-128.022	0.325	0.047
-277.443	31.279	-0.079	-0.067
-276.428	650.375	-0.097	-0.248
-275.413	-43.301	0.210	-0.106
-274.399	-63.037	0.239	-0.099
-273.384	-50.057	0.171	-0.081
-272.370	686.586	0.158	-0.414
-271.355	800.000	0.106	0.326
-270.340	-149.942	-0.254	0.020
-269.326	-105.566	0.098	0.022
-268.311	6.074	0.143	0.106
-267.297	203.490	-0.291	-0.451
-266.282	64.856	-0.082	0.083
-265.267	-84.389	-0.164	0.052
-264.253	262.132	-0.008	-0.014
-263.238	67.510	0.104	0.106
-262.224	87.385	-0.169	0.187
-261.209	-43.634	-0.206	0.104
-260.195	45.942	0.314	0.291
-259.180	17.551	0.185	-0.147
-258.165	-92.072	0.162	-0.046
-257.151	-74.491	-0.121	0.044
-256.136	-39.290	0.420	0.220
-255.122	367.258	-0.254	-0.512
-254.107	800.000	0.054	0.197
-253.092	-14.841	0.135	-0.087
-252.078	307.042	-0.160	0.297
-251.063	1.885	0.267	0.193
-250.049	800.000	-0.121	-0.355
-249.034	-123.572	0.158	-0.025
-248.019	518.342	0.054	-0.127
-247.005	459.765	-0.082	-0.182
-245.990	-70.690	-0.178	0.067
-244.976	292.170	0.134	0.244
-243.961	-46.334	-0.144	-0.071
-242.946	129.948	0.144	-0.184
-241.932	421.918	0.095	-0.204
-240.917	279.961	0.086	-0.154
-239.903	129.901	0.170	-0.217
-238.888	-92.613	-0.103	-0.029
-237.873	-183.525	-0.171	0.003
-236.859	-35.545	-0.054	0.029
-235.844	331.463	0.013	-0.026
-234.830	-115.421	0.303	0.057
-233.815	800.000	-0.054	-0.163
-232.800	-200.000	0.057	0.289
-231.786	747.104	0.021	0.056
-230.771	356.997	-0.064	0.128
-229.757	-105.122	0.211	0.048
-228.742	-200.000	-0.037	0.170
-227.727	-101.212	-0.265	-0.065
-226.713	800.000	0.080	0.335
-225.698	800.000	0.041	-0.117
-224.684	134.118	-0.150	-0.194
-223.669	800.000	0.017	0.049
-222.655	-132.283	-0.074	0.010
-221.640	-200.000	0.066	0.293
-220.625	-200.000	-0.155	0.000
-219.611	13.713	0.230	-0.178
-218.596	-184.545	-0.051	-0.001
-217.582	-132.402	0.051	0.007
-216.567	57.504	0.074	0.072
-215.552	318.419	-0.020	-0.038
-214.538	-200.000	-0.011	0.165
-213.523	782.960	0.147	0.403
-212.509	-84.437	0.411	0.130
-211.494	-152.082	-0.308	0.022
-210.479	122.645	0.058	-0.073
-209.465	33.828	0.319	0.277
-208.450	-184.063	0.271	0.005
-207.436	646.697	0.060	0.152
-206.421	8.442	0.122	-0.091
-205.406	800.000	-0.112	-0.452
-204.392	800.000	-0.089	0.293
-203.377	320.514	-0.094	0.178
-202.363	-176.153	0.235	0.006
-201.348	339.586	0.215	0.418
-200.333	19.072	-0.083	-0.066
-199.319	-76.182	-0.122	-0.043
-198.304	-33.067	-0.078	-0.043
-197.290	-0.367	-0.270	-0.191
-196.275	-200.000	0.008	0.253
-195.260	-112.643	0.046	0.009
-194.246	333.525	-0.033	0.064
-193.231	-28.672	-0.409	0.235
-192.217	-200.000	-0.112	0.567
-191.202	800.000	0.050	-0.164
-190.187	102.393	-0.224	-0.262
-189.173	-20.020	0.094	0.058
-188.158	479.065	0.126	0.284
-187.144	-200.000	0.011	0.265
-186.129	249.570	-0.045	0.075
-185.114	366.127	-0.025	0.050
-184.100	-109.301	0.297	0.063
-183.085	-200.000	0.056	0.307
-182.071	800.000	0.085	0.269
-181.056	-200.000	0.010	0.126
-180.042	195.045	-0.310	-0.469
-179.027	555.730	0.075	-0.179
-178.012	-97.846	-0.359	-0.092
-176.998	-168.198	0.184	0.007
-175.983	62.930	0.140	0.140
-174.969	142.265	0.227	0.300
-173.954	-153.865	-0.426	0.029
-172.939	800.000	-0.025	-0.077
-171.925	221.044	0.066	-0.106
-170.910	-34.639	0.113	-0.062
-169.896	800.000	0.065	0.184
-168.881	-118.584	0.148	-0.026
-167.866	-200.000	0.020	-0.214
-166.852	-85.809	0.085	0.026
-165.837	-156.221	-0.141	0.009
-164.823	-200.000	-0.048	0.324
-163.808	593.543	0.010	-0.024
-162.793	326.596	0.140	0.268
-161.779	-140.951	-0.295	-0.030
-160.764	368.370	-0.106	0.214
-159.750	800.000	0.069	-0.228
-158.735	109.076	0.179	0.214
-157.720	-32.887	0.293	0.162
-156.706	140.760	-0.179	0.236
-155.691	-137.355	-0.236	0.027
-154.677	800.000	-0.056	-0.205
-153.662	-27.835	0.169	-0.097
-152.647	121.050	0.036	0.045
-151.633	-59.481	-0.164	-0.070
-150.618	51.883	0.342	0.325
-149.604	39.981	0.267	-0.239
-148.589	-47.225	0.073	0.036
-147.574	-61.345	-0.175	0.073
-146.560	76.351	-0.113	-0.120
-145.545	800.000	-0.040	0.120
-144.531	-81.988	0.110	-0.036
-143.516	297.983	-0.096	0.176
-142.502	800.000	0.165	0.550
-141.487	102.088	-0.162	-0.189
-140.472	-200.000	-0.024	0.171
-139.458	-200.000	-0.007	0.083
-138.443	800.000	0.065	0.231
-137.429	-193.420	-0.386	0.003
-136.414	-200.000	-0.069	-0.323
-135.399	77.373	0.238	0.252
-134.385	-200.000	-0.069	-0.337
-133.370	30.941	0.071	-0.060
-132.356	49.905	0.148	0.139
-131.341	114.982	0.191	-0.231
-130.326	75.360	0.241	0.253
-129.312	-84.477	-0.133	-0.042
-128.297	-110.911	0.209	0.043
-127.283	107.859	0.161	0.191
-126.268	-200.000	0.030	0.177
-125.253	800.000	0.140	0.447
-124.239	-104.848	0.044	-0.010
-123.224	800.000	-0.058	0.167
-122.210	-131.846	0.088	-0.011
-121.195	24.303	0.174	-0.143
-120.180	-125.180	0.170	-0.026
-119.166	800.000	0.119	0.347
-118.151	39.900	-0.261	-0.233
-117.137	203.971	-0.234	-0.360
-116.122	-0.520	-0.218	-0.154
-115.107	-103.294	0.171	-0.040
-114.093	218.792	-0.119	0.189
-113.078	-200.000	0.007	-0.188
-112.064	55.893	0.162	-0.156
-111.049	-96.450	-0.439	-0.115
-110.034	800.000	0.064	0.227
-109.020	-75.456	0.150	0.053
-108.005	-200.000	0.032	0.157
-106.991	-200.000	0.038	-0.174
-105.976	-200.000	-0.003	-0.073
-104.962	-128.968	-0.358	-0.050
-103.947	4.578	-0.205	-0.150
-102.932	555.708	-0.077	0.184
-101.918	36.232	-0.135	0.118
-100.903	285.970	0.190	-0.341
-99.889	-114.722	0.222	0.042
-98.874	-137.744	-0.212	0.024
-97.859	-32.357	-0.079	0.044
-96.845	-200.000	0.039	-0.205
-95.830	-132.743	0.312	0.040
-94.816	-67.825	0.293	0.114
-93.801	-34.888	-0.308	-0.167
-92.786	21.506	-0.164	0.133
-91.772	-62.487	0.240	0.099
-90.757	800.000	-0.041	0.157
-89.743	-81.648	-0.417	-0.136
-88.728	122.179	0.112	0.139
-87.713	-177.810	-0.417	-0.010
-86.699	-200.000	0.019	-0.112
-85.684	537.631	0.054	0.128
-84.670	12.548	0.026	0.020
-83.655	-21.238	-0.131	0.080
-82.640	137.702	0.299	0.389
-81.626	-200.000	0.074	0.410
-80.611	54.201	-0.149	-0.142
-79.597	-47.233	0.022	0.011
-78.582	-120.380	0.132	-0.022
-77.567	-123.466	0.199	0.031
-76.553	-51.809	-0.281	0.130
-75.538	114.897	0.072	-0.088
-74.524	-200.000	-0.022	-0.098
-73.509	-58.476	-0.214	0.092
-72.494	-200.000	0.023	0.244
-71.480	-75.504	0.369	-0.130
-70.465	44.320	0.411	0.374
-69.451	-106.534	-0.495	0.110
-68.436	800.000	0.057	-0.209
-67.422	-51.253	-0.163	0.076
-66.407	-21.014	0.151	-0.092
-65.392	800.000	0.066	0.220
-64.378	-64.957	0.383	0.154
-63.363	-34.319	0.294	-0.160
-62.349	751.837	0.088	0.235
-61.334	61.112	-0.950	-0.936
-60.319	-200.000	0.037	0.544
-59.305	-200.000	-0.152	-0.790
-58.290	450.394	0.367	0.803
-57.276	800.000	0.457	1.310
-56.261	-200.000	80.110	506.020
-55.246	467.520	1378.858	3066.560
-54.232	141.752	2624.565	3449.213
-53.217	105.171	2380.842	2787.091
-52.203	47.400	1987.168	1836.438
-51.188	41.881	1769.539	1591.496
-50.173	39.084	1723.691	1528.484
-49.159	53.188	1761.905	1673.384
-48.144	57.222	1779.656	1721.854
-47.130	41.698	1742.429	1565.434
-46.115	38.713	1728.433	1529.548
-45.100	38.600	1723.388	1524.145
-44.086	38.630	1720.475	1521.742
-43.071	38.609	1718.022	1519.351
-42.057	38.577	1715.322	1516.654
-41.042	38.574	1713.165	1514.662
-40.027	38.589	1711.211	1512.992
-39.013	38.549	1709.246	1510.884
-37.998	38.526	1707.055	1508.715
-36.984	38.585	1705.952	1508.129
-35.969	38.754	1703.863	1507.525
-34.954	38.772	1702.735	1506.605
-33.940	38.750	1700.699	1504.575
-32.925	38.679	1699.006	1502.470
-31.911	38.692	1697.497	1501.181
-30.896	38.710	1695.275	1499.291
-29.881	38.724	1693.558	1497.822
-28.867	38.662	1692.141	1496.035
-27.852	38.716	1690.821	1495.218
-26.838	38.691	1688.883	1493.259
-25.823	38.660	1688.114	1492.278
-24.809	38.728	1686.069	1490.930
-23.794	38.691	1684.804	1489.469
-22.779	38.753	1682.866	1488.172
-21.765	38.710	1681.309	1486.405
-20.750	38.625	1679.757	1484.332
-19.736	38.751	1678.378	1484.006
-18.721	38.849	1676.260	1482.822
-17.706	38.569	1675.954	1480.375
-16.692	38.594	1674.096	1478.860
-15.677	38.692	1672.234	1477.896
-14.663	38.742	1670.733	1476.890
-13.648	38.759	1669.177	1475.580
-12.633	38.666	1667.910	1473.707
-11.619	38.711	1666.255	1472.522
-10.604	38.647	1664.539	1470.466
-9.590	38.669	1663.450	1469.609
-8.575	38.766	1662.132	1469.112
-7.560	38.767	1660.741	1467.833
-6.546	38.771	1659.830	1467.003
-5.531	38.691	1658.808	1465.442
-4.517	38.659	1657.591	1464.073
-3.502	38.638	1656.526	1462.911
-2.487	38.779	1654.339	1461.978
-1.473	38.875	1644.089	1453.569
-0.458	37.067	1625.285	1423.631
0.556	31.476	1623.038	1385.012
1.571	27.965	1645.359	1377.522
2.586	26.761	1658.251	1379.043
3.600	23.763	1603.397	1311.213
4.615	13.241	1483.496	1140.812
5.629	2.707	1409.615	1014.510
6.644	0.514	1398.826	992.244
7.659	0.409	1397.466	990.506
8.673	0.309	1396.425	989.024
9.688	0.308	1394.621	987.654
10.702	0.025	1391.985	983.847
11.717	4.116	1399.172	1015.699
12.731	13.555	1414.404	1088.975
13.746	18.335	1420.396	1124.973
14.761	17.505	1417.130	1116.842
15.775	16.474	1414.180	1107.669
16.790	15.331	1412.117	1098.470
17.804	14.587	1409.340	1091.349
18.819	14.255	1408.120	1088.136
19.834	13.850	1406.273	1083.972
20.848	13.671	1405.147	1081.841
21.863	13.464	1403.657	1079.249
22.877	13.267	1402.734	1077.159
23.892	13.213	1401.754	1075.962
24.907	13.225	1400.602	1075.059
25.921	13.199	1399.873	1074.232
26.936	13.175	1399.213	1073.473
27.950	13.201	1398.101	1072.696
28.965	13.284	1397.352	1072.564
29.980	13.250	1396.470	1071.576
30.994	13.425	1395.379	1071.772
32.009	13.422	1394.646	1071.100
33.023	13.369	1393.846	1070.045
34.038	13.443	1391.759	1068.824
35.053	13.335	1391.025	1067.472
36.067	13.383	1389.869	1066.799
37.082	13.340	1389.001	1065.761
38.096	13.380	1388.072	1065.209
39.111	13.366	1387.153	1064.324
40.126	13.290	1386.080	1062.919
41.140	13.213	1385.470	1061.858
42.155	13.177	1384.976	1061.154
43.169	13.104	1384.915	1060.544
44.184	13.201	1384.225	1060.544
45.199	13.203	1383.481	1059.897
46.213	13.172	1383.710	1059.780
47.228	13.238	1382.787	1059.401
48.242	13.248	1381.684	1058.528
49.257	13.303	1379.892	1057.411
50.271	13.253	1378.509	1055.938
51.286	13.306	1376.998	1055.023
52.301	13.261	1375.680	1053.634
53.315	13.233	1374.634	1052.566
54.330	13.164	1373.606	1051.243
55.344	13.141	1372.777	1050.369
56.359	13.195	1371.121	1049.351
57.374	13.152	1370.152	1048.243
58.388	13.132	1369.891	1047.830
59.403	13.198	1369.070	1047.525
60.417	13.119	1368.231	1046.289
61.432	13.111	1367.752	1045.782
62.447	13.068	1366.402	1044.385
63.461	13.086	1364.738	1043.134
64.476	13.061	1364.188	1042.461
65.490	13.014	1362.898	1041.087
66.505	13.098	1361.240	1040.259
67.520	13.062	1360.075	1039.050
68.534	13.131	1358.874	1038.472
69.549	13.156	1357.689	1037.631
70.563	13.186	1356.280	1036.655
71.578	13.091	1355.486	1035.358
72.593	13.053	1354.630	1034.375
73.607	13.042	1353.801	1033.578
74.622	12.967	1352.905	1032.337
75.636	13.043	1352.229	1032.204
76.651	13.045	1351.244	1031.373
77.666	13.103	1350.627	1031.176
78.680	12.994	1350.473	1030.283
79.695	12.989	1349.529	1029.445
80.709	13.058	1348.712	1029.157
81.724	13.068	1347.772	1028.412
82.739	13.034	1346.935	1027.473
83.753	13.210	1346.042	1027.793
84.768	13.315	1344.714	1027.341
85.782	13.407	1343.189	1026.655
86.797	13.287	1342.131	1025.009
87.812	13.231	1340.437	1023.281
88.826	13.271	1339.753	1022.915
89.841	13.251	1338.671	1021.874
90.855	13.178	1338.141	1020.930
91.870	13.287	1336.991	1020.635
92.884	13.323	1335.943	1019.965
93.899	13.326	1335.576	1019.614
94.914	13.335	1334.556	1018.800
95.928	13.366	1333.391	1018.015
96.943	13.348	1332.644	1017.241
97.957	13.423	1331.311	1016.593
98.972	13.270	1330.741	1015.128
99.987	13.408	1329.337	1014.813
101.001	13.389	1328.637	1014.074
102.016	13.342	1327.816	1013.071
103.030	13.367	1326.688	1012.275
104.045	13.340	1325.975	1011.475
105.060	13.361	1324.646	1010.502
106.074	13.225	1323.399	1008.630
107.089	13.250	1321.943	1007.580
108.103	13.215	1321.049	1006.598
109.118	13.145	1319.709	1005.061
110.133	13.193	1318.153	1004.083
111.147	13.194	1316.827	1002.986
112.162	13.235	1315.451	1002.098
113.176	13.270	1314.166	1001.243
114.191	13.245	1313.350	1000.381
115.206	13.272	1312.062	999.475
116.220	13.232	1310.790	998.174
117.235	13.160	1309.859	996.946
118.249	13.220	1308.613	996.270
119.264	13.113	1307.461	994.658
120.279	13.238	1306.497	994.592
121.293	13.227	1305.207	993.453
122.308	13.189	1304.400	992.526
123.322	13.151	1303.496	991.521
124.337	13.281	1302.075	991.131
125.352	13.202	1300.730	989.546
126.366	13.136	1299.836	988.385
127.381	13.209	1298.993	988.094
128.395	13.216	1297.647	987.022
129.410	13.195	1296.588	986.006
130.424	13.266	1296.558	986.319
131.439	13.327	1295.311	985.645
132.454	13.364	1294.205	984.936
133.468	13.297	1293.260	983.736
134.483	13.230	1292.817	982.912
135.497	13.204	1291.967	982.025
136.512	13.385	1290.244	981.703
137.527	13.283	1289.416	980.379
138.541	13.357	1287.357	979.164
139.556	13.349	1286.201	978.153
140.570	13.422	1285.058	977.625
141.585	13.454	1283.928	976.869
142.600	13.438	1282.737	975.784
143.614	13.435	1281.848	975.005
144.629	13.391	1280.494	973.625
145.643	13.425	1279.329	972.855
146.658	13.371	1277.956	971.408
147.673	13.406	1276.537	970.450
148.687	13.371	1275.190	969.134
149.702	13.354	1274.275	968.255
150.716	13.301	1272.855	966.778
151.731	13.357	1271.329	965.863
152.746	13.331	1270.610	965.078
153.760	13.311	1269.451	963.998
154.775	13.449	1267.963	963.585
155.789	13.425	1266.853	962.516
156.804	13.407	1265.944	961.638
157.819	13.453	1264.803	960.953
158.833	13.511	1263.341	960.093
159.848	13.593	1263.115	960.308
160.862	13.593	1262.004	959.380
161.877	13.505	1260.539	957.671
162.892	13.494	1259.347	956.620
163.906	13.413	1258.899	955.725
164.921	13.400	1258.369	955.164
165.935	13.425	1257.329	954.436
166.950	13.556	1255.928	954.039
167.964	13.535	1255.237	953.310
168.979	13.568	1254.802	953.084
169.994	13.505	1253.933	951.976
171.008	13.632	1253.138	952.024
172.023	13.571	1252.347	950.985
173.037	13.676	1251.416	950.797
174.052	13.678	1250.635	950.131
175.067	13.597	1249.582	948.785
176.081	13.535	1248.413	947.459
177.096	13.547	1247.713	946.912
178.110	13.620	1246.436	946.273
179.125	13.580	1245.444	945.211
180.140	13.628	1244.120	944.393
181.154	13.637	1242.678	943.269
182.169	13.593	1241.797	942.263
183.183	13.714	1240.372	941.789
184.198	13.708	1239.288	940.849
185.213	13.624	1237.947	939.267
186.227	13.771	1236.675	939.055
187.242	13.789	1235.600	938.258
188.256	13.845	1234.664	937.778
189.271	13.797	1233.354	936.431
190.286	13.722	1232.560	935.320
191.300	13.746	1231.853	934.835
192.315	13.561	1231.445	933.404
193.329	13.604	1230.484	932.836
194.344	13.618	1229.886	932.379
195.359	13.722	1229.349	932.472
196.373	13.813	1228.936	932.587
197.388	13.884	1228.016	932.206
198.402	13.940	1227.618	932.132
199.417	13.883	1227.366	931.540
200.432	13.984	1226.025	931.008
201.446	14.075	1224.617	930.365
202.461	13.998	1224.074	929.437
203.475	14.135	1222.745	929.114
204.490	14.028	1221.900	927.793
205.504	13.927	1220.690	926.230
206.519	14.020	1219.574	925.817
207.534	14.009	1218.574	924.914
208.548	14.044	1217.320	924.073
209.563	14.081	1216.430	923.521
210.577	14.056	1215.982	922.963
211.592	13.989	1215.107	921.849
212.607	14.079	1213.983	921.412
213.621	14.150	1213.109	921.061
214.636	14.137	1212.090	920.130
215.650	14.103	1211.358	919.304
216.665	14.147	1210.386	918.730
217.680	14.233	1209.321	918.314
218.694	14.190	1208.555	917.413
219.709	14.284	1207.848	917.315
220.723	14.332	1207.044	916.888
221.738	14.284	1206.465	916.105
222.753	14.301	1205.704	915.535
223.767	14.323	1204.502	914.663
224.782	14.345	1204.000	914.326
225.796	14.325	1203.826	913.998
226.811	14.452	1202.827	913.859
227.826	14.432	1201.829	912.907
228.840	14.369	1201.408	912.163
229.855	14.352	1200.945	911.640
230.869	14.331	1199.693	910.492
231.884	14.385	1198.833	910.056
232.899	14.344	1197.957	909.082
233.913	14.340	1197.699	908.788
234.928	14.264	1197.035	907.789
235.942	14.242	1196.015	906.816
236.957	14.285	1195.117	906.285
237.972	14.333	1194.368	905.900
238.986	14.381	1193.865	905.698
240.001	14.354	1193.154	904.931
241.015	14.450	1192.279	904.711
242.030	14.427	1191.378	903.821
243.045	14.488	1190.582	903.468
244.059	14.475	1189.789	902.718
245.074	14.501	1189.174	902.309
246.088	14.489	1188.355	901.547
247.103	14.522	1187.483	900.982
248.117	14.635	1186.419	900.707
249.132	14.702	1185.333	900.162
250.147	14.739	1184.739	899.832
251.161	14.773	1183.993	899.366
252.176	14.781	1183.531	898.979
253.190	14.788	1182.897	898.454
254.205	14.902	1182.243	898.490
255.220	14.787	1182.163	897.735
256.234	14.868	1181.107	897.290
257.249	14.837	1180.093	896.270
258.263	14.741	1179.507	895.231
259.278	14.862	1178.722	895.208
260.293	14.865	1178.616	895.064
261.307	14.972	1177.910	895.021
262.322	14.896	1177.203	893.994
263.336	14.967	1176.810	893.996
264.351	14.953	1175.856	893.120
265.366	14.907	1175.090	892.215
266.380	15.078	1174.886	892.891
267.395	15.134	1173.171	891.808
268.409	14.934	1173.066	890.584
269.424	14.996	1172.306	890.258
270.439	14.997	1171.547	889.608
271.453	15.072	1170.850	889.401
272.468	14.978	1169.980	888.160
273.482	14.925	1169.162	887.182
274.497	14.885	1168.976	886.745
275.512	15.049	1168.241	886.979
276.526	15.127	1166.799	886.219
277.541	15.154	1166.168	885.806
278.555	15.086	1165.607	884.941
279.570	15.124	1165.172	884.734
280.585	15.096	1163.963	883.589
281.599	15.159	1163.188	883.257
282.614	15.186	1162.200	882.571
283.628	15.236	1161.042	881.874
284.643	15.121	1160.548	880.815
285.657	15.093	1159.569	879.847
286.672	15.184	1158.518	879.452
287.687	15.170	1157.517	878.539
288.701	15.276	1156.644	878.352
289.716	15.336	1155.642	877.829
290.730	15.238	1155.431	877.081
291.745	15.325	1154.368	876.648
292.760	15.346	1153.961	876.373
293.774	15.309	1153.347	875.638
294.789	15.362	1153.010	875.577
295.803	15.426	1151.982	875.053
296.818	15.381	1151.496	874.373
297.833	15.363	1150.498	873.443
298.847	15.342	1149.796	872.726
299.862	15.356	1149.267	872.319
300.876	15.458	1147.877	871.716
301.891	15.527	1147.709	871.869
302.906	15.538	1146.629	871.028
303.920	15.577	1146.286	870.893
304.935	15.511	1145.740	870.059
305.949	15.595	1145.141	869.962
306.964	15.640	1144.003	869.254
307.979	15.600	1143.175	868.341
308.993	15.540	1142.662	867.565
310.008	15.498	1142.546	867.182
311.022	15.646	1141.342	866.959
312.037	15.636	1139.883	865.722
313.052	15.635	1139.145	865.075
314.066	15.746	1138.054	864.744
315.081	15.600	1137.608	863.577
316.095	15.588	1136.382	862.511
317.110	15.631	1136.197	862.516
318.125	15.615	1135.032	861.471
319.139	15.677	1134.596	861.380
320.154	15.596	1133.916	860.373
321.168	15.519	1133.628	859.685
322.183	15.603	1132.831	859.434
323.197	15.718	1132.123	859.410
324.212	15.664	1131.344	858.465
325.227	15.717	1130.682	858.160
326.241	15.725	1129.884	857.518
327.256	15.621	1129.541	856.650
328.270	15.672	1128.338	855.924
329.285	15.683	1127.431	855.214
330.300	15.753	1126.460	854.758
331.314	15.729	1125.639	853.938
332.329	15.761	1124.747	853.349
333.343	15.737	1124.088	852.651
334.358	15.775	1123.056	851.984
335.373	15.860	1122.094	851.611
336.387	15.907	1121.071	850.995
337.402	15.951	1120.359	850.600
338.416	15.956	1119.873	850.181
339.431	15.976	1119.504	849.929
340.446	15.988	1118.473	849.130
341.460	16.028	1117.966	848.870
342.475	16.160	1116.764	848.547
343.489	16.104	1116.149	847.726
344.504	16.153	1114.780	846.854
345.519	16.193	1114.251	846.578
346.533	16.103	1113.451	845.449
347.548	16.181	1112.589	845.109
348.562	16.185	1111.718	844.391
349.577	16.263	1110.880	844.068
350.592	16.122	1110.157	842.742
351.606	16.156	1109.362	842.235
352.621	16.092	1108.794	841.406
353.635	16.113	1108.341	841.094
354.650	16.140	1107.441	840.470
355.665	16.051	1106.998	839.619
356.679	16.113	1106.302	839.322
357.694	16.095	1105.927	838.875
358.708	16.240	1105.208	838.976
359.723	16.271	1104.118	838.227
360.738	16.337	1103.419	837.953
361.752	16.238	1103.193	837.214
362.767	16.236	1102.263	836.427
363.781	16.293	1101.668	836.180
364.796	16.333	1101.251	835.987
365.810	16.418	1100.809	836.002
366.825	16.411	1099.734	835.074
367.840	16.500	1099.461	835.234
368.854	16.565	1099.053	835.171
369.869	16.535	1098.489	834.520
370.883	16.492	1097.135	833.206
371.898	16.527	1096.159	832.566
372.913	16.482	1096.162	832.272
373.927	16.491	1095.544	831.773
374.942	16.521	1094.908	831.365
375.956	16.613	1094.341	831.311
376.971	16.553	1094.009	830.693
377.986	16.683	1093.163	830.612
379.000	16.750	1092.344	830.247
380.015	16.660	1091.671	829.217
381.029	16.752	1091.241	829.269
382.044	16.724	1090.573	828.549
383.059	16.728	1089.812	827.918
384.073	16.806	1088.784	827.444
385.088	16.833	1087.810	826.763
386.102	16.746	1087.297	825.877
387.117	16.810	1086.602	825.587
388.132	16.727	1085.714	824.437
389.146	16.764	1084.417	823.557
390.161	16.690	1083.700	822.581
391.175	16.687	1083.149	822.075
392.190	16.791	1082.435	821.967
393.205	16.846	1081.222	821.241
394.219	16.820	1080.708	820.649
395.234	16.909	1079.822	820.337
396.248	16.785	1078.771	818.863
397.263	16.917	1077.719	818.631
398.278	16.785	1077.077	817.433
399.292	16.864	1076.422	817.245
400.307	16.784	1075.907	816.397
401.321	16.814	1074.986	815.772
402.336	16.843	1074.481	815.455
403.350	16.827	1073.620	814.650
404.365	16.956	1072.814	814.588
405.380	16.902	1072.171	813.770
406.394	17.034	1071.213	813.603
407.409	17.079	1070.706	813.359
408.423	16.998	1069.870	812.264
409.438	17.016	1069.600	812.077
410.453	17.076	1068.510	811.462
411.467	17.106	1067.743	810.953
412.482	17.182	1067.045	810.714
413.496	17.145	1066.510	810.060
414.511	17.173	1066.196	809.880
415.526	17.170	1065.696	809.414
416.540	17.323	1065.190	809.688
417.555	17.355	1064.693	809.389
418.569	17.152	1064.176	807.962
419.584	17.345	1063.624	808.390
420.599	17.293	1062.696	807.365
421.613	90.960	1305.406	1401.159
422.628	83.999	1340.781	1401.278
