DTS Sentinel unit serial number:	SN413079Multiplexer serial number:	ORYXHardware model number:	OX4-SRSoftware version number:	ORYX F/W v4.00 Oryx Data Collector v3.7.2.0data status	okinstallation	princeton_trtdifferential loss correction	single-endedforward channel	channel 2reverse channel	N/Adate	2019/09/13time	19:19:35forward acquisition time	60.00reverse acquisition time	0.00gamma	496.2192k internal	0.2328k external	0.2328temperature offset calibration	1.0169default loss term (dB/km)	0.3790temperature slope calibration	1.0000multiplexer offset coefficient	1.0000multiplexer slope coefficient	1.0000fibre end	0.00T internal ref (°C)	31.14T ext. ref 1 (°C)	3.79T ext. ref 2 (°C)	24.58length (m)	temperature (°C)	Stokes	anti-Stokes-747.200	-79.963	-0.189	-0.064
-746.185	-200.000	0.006	0.168
-745.171	314.621	-0.099	-0.187
-744.156	-93.515	-0.331	-0.092
-743.142	137.928	-0.118	0.156
-742.127	-200.000	0.009	-0.370
-741.112	-105.576	-0.307	-0.070
-740.098	149.499	0.133	0.182
-739.083	639.344	0.089	0.228
-738.069	13.982	0.190	0.149
-737.054	716.278	0.047	-0.126
-736.039	-69.504	-0.172	-0.066
-735.025	-41.754	-0.135	0.070
-734.010	5.807	0.075	-0.056
-732.996	53.969	0.061	-0.059
-731.981	800.000	-0.105	-0.326
-730.966	73.773	-0.258	-0.272
-729.952	8.766	-0.243	-0.185
-728.937	-200.000	0.174	-0.001
-727.923	301.194	-0.167	-0.311
-726.908	800.000	-0.021	-0.061
-725.894	-135.014	-0.326	-0.040
-724.879	-23.783	0.370	0.223
-723.864	800.000	-0.038	0.107
-722.850	-200.000	0.013	-0.067
-721.835	222.631	-0.186	-0.302
-720.821	800.000	-0.081	0.344
-719.806	-200.000	0.033	0.253
-718.791	68.895	-0.003	-0.004
-717.777	-60.222	-0.113	0.048
-716.762	-128.549	-0.192	-0.027
-715.748	-52.092	-0.346	-0.162
-714.733	-50.056	0.019	-0.009
-713.718	503.174	0.089	-0.207
-712.704	120.150	-0.156	-0.195
-711.689	-200.000	0.014	0.107
-710.675	79.383	-0.117	0.126
-709.660	-40.459	0.235	0.123
-708.645	-200.000	-0.057	0.336
-707.631	160.949	0.040	-0.056
-706.616	-74.531	-0.101	0.037
-705.602	119.673	0.203	-0.253
-704.587	-34.987	-0.248	-0.136
-703.572	-200.000	0.063	-0.447
-702.558	-19.121	0.063	0.039
-701.543	251.810	-0.080	0.137
-700.529	-200.000	-0.062	0.302
-699.514	84.172	0.091	0.100
-698.499	34.010	0.051	0.045
-697.485	-18.829	-0.245	-0.153
-696.470	-131.083	0.238	-0.032
-695.456	-84.238	0.340	-0.108
-694.441	464.901	0.096	-0.216
-693.426	-52.145	-0.178	0.083
-692.412	-84.034	0.113	-0.036
-691.397	641.795	-0.121	-0.309
-690.383	258.621	-0.064	-0.110
-689.368	-21.250	0.243	-0.149
-688.354	141.762	0.088	0.117
-687.339	-45.745	-0.186	-0.092
-686.324	-94.066	-0.263	0.073
-685.310	63.420	-0.071	-0.071
-684.295	-44.939	-0.114	-0.057
-683.281	-142.965	-0.246	-0.024
-682.266	-167.801	-0.317	0.013
-681.251	257.394	0.148	-0.256
-680.237	-200.000	-0.057	0.375
-679.222	-200.000	0.043	0.335
-678.208	-41.151	-0.040	-0.021
-677.193	147.560	-0.176	0.238
-676.178	232.780	-0.108	0.179
-675.164	-10.152	-0.179	0.120
-674.149	183.738	0.151	0.224
-673.135	800.000	-0.067	-0.291
-672.120	-188.718	-0.177	0.002
-671.105	314.297	-0.060	0.114
-670.091	-42.285	-0.152	0.078
-669.076	-200.000	0.006	-0.235
-668.062	-200.000	-0.044	-0.352
-667.047	103.840	-0.170	-0.201
-666.032	-138.431	-0.344	-0.038
-665.018	800.000	0.086	0.249
-664.003	59.130	-0.224	-0.221
-662.989	800.000	0.072	0.211
-661.974	47.461	0.386	0.361
-660.959	-38.027	-0.259	0.138
-659.945	-188.694	0.316	-0.004
-658.930	-200.000	0.003	0.092
-657.916	534.536	-0.086	0.206
-656.901	-200.000	0.011	-0.262
-655.886	-200.000	0.042	0.278
-654.872	101.174	-0.218	0.255
-653.857	-167.158	0.161	-0.007
-652.843	94.492	0.288	0.328
-651.828	655.988	0.074	0.192
-650.814	-151.399	-0.299	-0.022
-649.799	800.000	-0.021	0.065
-648.784	102.661	0.044	0.052
-647.770	60.789	0.290	-0.289
-646.755	-128.881	-0.061	-0.009
-645.741	800.000	-0.013	0.038
-644.726	15.362	-0.441	-0.348
-643.711	-134.701	0.172	0.021
-642.697	492.825	0.053	-0.122
-641.682	358.172	-0.089	-0.179
-640.668	198.703	-0.274	-0.420
-639.653	-200.000	0.041	-0.189
-638.638	-34.316	0.250	0.138
-637.624	328.526	0.046	-0.089
-636.609	455.693	0.124	0.276
-635.595	800.000	-0.079	-0.331
-634.580	-147.628	0.285	-0.024
-633.565	92.699	0.075	0.085
-632.551	-44.414	0.198	-0.099
-631.536	127.972	-0.164	0.209
-630.522	-67.296	0.257	0.101
-629.507	-21.021	-0.283	0.174
-628.492	-15.417	0.128	-0.082
-627.478	-200.000	0.043	0.297
-626.463	-200.000	0.059	0.415
-625.449	-88.271	-0.173	0.052
-624.434	-114.269	0.335	-0.065
-623.419	-129.506	0.235	-0.033
-622.405	-9.785	0.257	-0.171
-621.390	80.128	-0.227	0.245
-620.376	192.549	-0.122	-0.184
-619.361	118.614	0.081	-0.100
-618.346	-200.000	0.075	0.382
-617.332	6.852	0.091	-0.068
-616.317	29.530	-0.147	0.125
-615.303	800.000	0.054	-0.197
-614.288	457.205	0.188	-0.420
-613.273	117.136	-0.059	0.073
-612.259	214.260	0.268	-0.426
-611.244	-120.161	-0.304	-0.052
-610.230	13.529	-0.236	0.184
-609.215	-200.000	-0.018	0.135
-608.201	800.000	0.042	-0.152
-607.186	-200.000	0.013	-0.257
-606.171	-116.419	0.189	-0.035
-605.157	2.330	0.048	-0.034
-604.142	-200.000	-0.009	-0.075
-603.128	-200.000	0.038	0.287
-602.113	597.464	0.110	-0.272
-601.098	-99.977	0.126	0.031
-600.084	-200.000	0.017	0.244
-599.069	-132.080	0.310	-0.040
-598.055	-200.000	-0.014	0.142
-597.040	53.795	-0.129	0.124
-596.025	-189.511	0.042	-0.000
-595.011	264.294	-0.309	0.539
-593.996	-117.975	0.167	-0.030
-592.982	-168.499	0.665	0.025
-591.967	207.791	-0.079	0.124
-590.952	77.600	-0.210	0.224
-589.938	197.845	-0.048	-0.074
-588.923	-12.016	-0.284	-0.186
-587.909	-84.511	-0.303	0.096
-586.894	-124.039	-0.121	0.019
-585.879	68.052	0.078	0.079
-584.865	258.087	0.110	0.189
-583.850	354.377	-0.129	0.256
-582.836	-200.000	0.007	-0.112
-581.821	-111.575	-0.140	0.028
-580.806	-44.634	0.080	-0.040
-579.792	-31.640	0.155	0.087
-578.777	800.000	0.033	0.093
-577.763	-121.709	0.435	0.072
-576.748	-48.147	-0.224	0.108
-575.733	-97.495	-0.325	-0.085
-574.719	-111.301	-0.423	-0.086
-573.704	-200.000	0.011	-0.201
-572.690	67.402	0.075	-0.077
-571.675	-33.743	0.053	-0.029
-570.661	140.257	0.168	-0.222
-569.646	-124.223	0.145	-0.023
-568.631	800.000	-0.078	-0.255
-567.617	-117.605	-0.366	0.066
-566.602	-9.434	0.232	-0.155
-565.588	800.000	-0.041	0.178
-564.573	-111.102	-0.335	0.069
-563.558	-200.000	0.000	-0.041
-562.544	-200.000	0.020	-0.242
-561.529	273.128	-0.208	0.367
-560.515	58.257	0.124	-0.122
-559.500	-0.725	0.280	0.199
-558.485	-200.000	0.005	-0.121
-557.471	33.410	-0.263	-0.228
-556.456	-11.091	0.050	-0.033
-555.442	-200.000	0.008	-0.146
-554.427	-102.780	0.113	-0.027
-553.412	3.245	0.020	-0.014
-552.398	-52.931	0.161	-0.074
-551.383	-95.970	0.041	0.011
-550.369	92.554	-0.093	0.105
-549.354	800.000	0.065	0.256
-548.339	-124.808	0.186	-0.029
-547.325	223.669	0.103	0.167
-546.310	-66.957	-0.193	0.076
-545.296	-200.000	-0.016	0.221
-544.281	-61.839	-0.156	-0.065
-543.266	-41.606	-0.125	-0.064
-542.252	-200.000	0.012	-0.111
-541.237	-200.000	0.024	0.244
-540.223	-87.098	0.125	0.038
-539.208	800.000	-0.038	-0.157
-538.193	96.906	-0.239	0.274
-537.179	574.759	0.073	-0.179
-536.164	186.814	0.301	-0.448
-535.150	342.280	-0.097	-0.190
-534.135	1.794	-0.040	-0.029
-533.121	-200.000	0.031	0.177
-532.106	-62.691	-0.152	0.063
-531.091	-105.804	-0.157	-0.036
-530.077	-79.042	0.401	-0.136
-529.062	-16.579	-0.131	-0.083
-528.048	449.969	-0.162	-0.356
-527.033	790.924	-0.086	-0.237
-526.018	-24.201	0.258	-0.154
-525.004	238.507	0.195	0.324
-523.989	-46.493	0.249	-0.122
-522.975	-2.079	0.078	-0.055
-521.960	-181.150	-0.184	0.004
-520.945	-200.000	0.010	-0.099
-519.931	-102.600	-0.327	-0.078
-518.916	120.019	0.156	-0.194
-517.902	800.000	0.081	0.289
-516.887	-98.456	0.298	-0.076
-515.872	-139.762	-0.356	-0.038
-514.858	54.943	0.137	0.132
-513.843	-136.223	-0.459	-0.054
-512.829	121.428	-0.295	-0.368
-511.814	36.280	0.302	0.266
-510.799	-175.783	0.270	0.007
-509.785	-200.000	0.069	-0.321
-508.770	407.053	-0.040	-0.085
-507.756	-63.343	-0.170	-0.070
-506.741	230.667	-0.153	0.251
-505.726	56.164	0.091	0.088
-504.712	-126.156	-0.068	0.010
-503.697	13.637	0.065	0.051
-502.683	800.000	0.152	-0.493
-501.668	-200.000	0.009	0.333
-500.653	-200.000	-0.039	0.238
-499.639	-26.878	0.163	-0.095
-498.624	-27.694	0.047	0.027
-497.610	582.865	0.077	0.189
-496.595	-71.380	-0.163	0.061
-495.581	11.010	-0.240	-0.183
-494.566	800.000	0.125	-0.399
-493.551	757.272	-0.014	-0.038
-492.537	-97.377	-0.284	-0.074
-491.522	-200.000	-0.025	-0.252
-490.508	4.537	0.167	-0.123
-489.493	-105.348	0.080	-0.018
-488.478	-51.486	0.197	-0.092
-487.464	-200.000	0.000	0.238
-486.449	756.782	-0.053	0.144
-485.435	23.633	-0.054	0.044
-484.420	-182.752	-0.326	0.006
-483.405	800.000	0.057	-0.222
-482.391	-25.348	-0.279	-0.165
-481.376	-200.000	0.000	0.293
-480.362	-31.683	0.068	-0.038
-479.347	-16.826	-0.090	0.057
-478.332	392.934	-0.061	-0.127
-477.318	-125.997	0.119	-0.018
-476.303	116.901	-0.172	-0.211
-475.289	141.661	0.130	0.172
-474.274	152.543	0.192	0.261
-473.259	800.000	-0.118	0.411
-472.245	-91.629	-0.244	-0.069
-471.230	-200.000	-0.002	0.236
-470.216	234.718	-0.100	-0.165
-469.201	238.776	0.083	-0.138
-468.186	-200.000	0.059	0.349
-467.172	-26.509	0.112	0.065
-466.157	-128.586	-0.162	0.023
-465.143	43.499	-0.065	0.059
-464.128	17.342	0.093	0.074
-463.113	-200.000	0.035	-0.219
-462.099	800.000	0.030	-0.119
-461.084	97.841	0.061	-0.070
-460.070	-84.673	0.065	0.020
-459.055	-121.992	0.171	-0.028
-458.040	549.580	-0.057	0.137
-457.026	280.730	0.188	0.334
-456.011	-111.850	0.083	-0.017
-454.997	-200.000	-0.037	-0.216
-453.982	704.317	0.154	-0.404
-452.968	358.157	-0.118	-0.234
-451.953	393.176	0.092	-0.190
-450.938	30.379	0.093	-0.079
-449.924	-73.358	-0.446	0.162
-448.909	405.854	-0.097	-0.203
-447.895	-200.000	-0.017	-0.160
-446.880	64.740	0.179	-0.180
-445.865	-112.366	0.141	0.028
-444.851	27.987	0.100	-0.084
-443.836	210.409	-0.158	-0.247
-442.822	123.199	0.113	-0.140
-441.807	-165.299	0.086	-0.004
-440.792	0.374	-0.196	0.139
-439.778	-100.812	-0.283	0.069
-438.763	-69.974	0.162	-0.061
-437.749	769.775	0.008	-0.022
-436.734	123.524	-0.107	0.133
-435.719	-22.274	0.146	0.088
-434.705	562.742	-0.010	0.024
-433.690	57.060	-0.111	-0.108
-432.676	585.707	-0.115	0.281
-431.661	-98.974	-0.210	0.053
-430.646	-64.394	-0.155	0.063
-429.632	-134.073	-0.045	0.006
-428.617	-143.361	0.166	-0.016
-427.603	432.845	0.105	0.226
-426.588	5.836	-0.168	0.124
-425.573	-131.008	0.339	0.045
-424.559	-200.000	0.025	-0.219
-423.544	-132.090	-0.095	0.012
-422.530	-59.368	0.166	0.071
-421.515	50.822	0.102	-0.096
-420.500	-200.000	-0.035	0.157
-419.486	92.422	-0.071	-0.079
-418.471	9.383	0.295	-0.222
-417.457	-200.000	0.005	0.096
-416.442	800.000	0.067	-0.246
-415.428	137.437	-0.177	-0.230
-414.413	226.328	0.091	-0.147
-413.398	-200.000	-0.012	0.224
-412.384	305.757	0.136	0.252
-411.369	310.791	-0.121	0.226
-410.355	-200.000	-0.009	0.101
-409.340	226.146	-0.106	-0.170
-408.325	-34.305	-0.287	0.157
-407.311	-31.201	0.144	0.081
-406.296	472.941	0.089	0.199
-405.282	-151.977	-0.247	0.018
-404.267	645.555	0.011	0.029
-403.252	-121.309	-0.209	-0.035
-402.238	800.000	0.088	0.331
-401.223	-28.841	0.418	-0.239
-400.209	-76.425	-0.174	-0.061
-399.194	-82.703	-0.257	-0.083
-398.179	227.650	0.150	0.243
-397.165	-144.441	0.051	0.005
-396.150	-103.335	-0.183	0.043
-395.136	-50.607	0.109	0.051
-394.121	61.129	-0.363	0.358
-393.106	-55.439	0.154	0.069
-392.092	-46.632	0.110	0.053
-391.077	309.155	-0.034	0.063
-390.063	-31.225	0.300	-0.168
-389.048	191.543	0.177	0.266
-388.033	-136.686	-0.211	-0.024
-387.019	-131.338	0.135	-0.018
-386.004	-200.000	-0.005	-0.198
-384.990	452.485	-0.078	-0.172
-383.975	79.244	0.115	0.122
-382.960	77.986	0.145	0.153
-381.946	787.733	0.048	-0.130
-380.931	797.833	-0.071	0.193
-379.917	800.000	0.053	-0.162
-378.902	312.301	0.039	-0.072
-377.888	800.000	-0.035	-0.152
-376.873	-146.442	-0.133	0.012
-375.858	-83.174	0.275	-0.088
-374.844	202.852	0.148	-0.227
-373.829	-200.000	-0.065	0.287
-372.815	-200.000	0.042	0.394
-371.800	557.710	-0.098	-0.234
-370.785	557.512	-0.061	-0.146
-369.771	-0.291	-0.030	0.021
-368.756	301.868	0.108	-0.199
-367.742	-98.993	0.097	-0.024
-366.727	8.004	-0.118	-0.088
-365.712	-2.209	0.245	0.170
-364.698	-73.602	-0.178	0.064
-363.683	-180.312	-0.167	-0.003
-362.669	182.108	0.029	0.043
-361.654	-147.627	-0.113	-0.009
-360.639	-200.000	0.024	0.292
-359.625	183.799	0.053	-0.078
-358.610	114.015	0.038	0.046
-357.596	-200.000	0.029	-0.265
-356.581	263.260	0.148	-0.255
-355.566	173.789	-0.143	-0.205
-354.552	-200.000	0.060	-0.274
-353.537	800.000	0.064	-0.214
-352.523	148.443	0.186	0.249
-351.508	-57.599	-0.128	-0.056
-350.493	50.898	-0.196	-0.184
-349.479	-200.000	-0.036	0.192
-348.464	-100.605	0.217	0.053
-347.450	354.192	-0.111	-0.219
-346.435	-91.920	0.483	-0.136
-345.420	-111.184	0.147	-0.030
-344.406	21.051	0.099	-0.080
-343.391	800.000	-0.198	0.548
-342.377	-128.665	0.137	-0.019
-341.362	690.932	-0.005	0.013
-340.348	-200.000	-0.036	-0.208
-339.333	-76.185	-0.363	-0.127
-338.318	800.000	-0.077	0.245
-337.304	-14.672	0.337	0.215
-336.289	-48.505	-0.081	0.039
-335.275	-108.733	-0.116	0.025
-334.260	-101.097	0.138	-0.034
-333.245	-163.729	0.260	0.012
-332.231	578.034	0.034	0.082
-331.216	-91.372	0.449	0.127
-330.202	-193.223	-0.130	0.001
-329.187	-158.372	-0.261	-0.015
-328.172	487.719	0.030	0.068
-327.158	800.000	0.078	0.230
-326.143	-52.957	0.141	0.064
-325.129	-25.343	-0.275	0.161
-324.114	-200.000	0.010	-0.176
-323.099	-200.000	-0.018	-0.104
-322.085	141.309	0.093	0.122
-321.070	-200.000	0.027	-0.151
-320.056	543.379	-0.174	-0.411
-319.041	-131.041	0.237	-0.031
-318.026	100.776	0.175	-0.201
-317.012	22.714	-0.083	0.068
-315.997	62.253	0.339	-0.335
-314.983	800.000	-0.053	0.223
-313.968	-49.339	0.080	0.038
-312.953	149.910	-0.244	-0.328
-311.939	113.321	-0.187	-0.225
-310.924	399.877	0.150	-0.311
-309.910	467.738	-0.085	0.189
-308.895	-51.097	-0.063	0.029
-307.880	-127.014	-0.136	-0.020
-306.866	90.650	0.101	0.112
-305.851	-12.631	-0.326	-0.210
-304.837	273.936	0.175	-0.306
-303.822	335.118	-0.050	-0.096
-302.807	11.022	-0.169	-0.128
-301.793	-200.000	-0.001	0.029
-300.778	-163.569	0.118	-0.006
-299.764	-127.099	-0.146	-0.021
-298.749	133.196	-0.063	-0.080
-297.735	108.583	0.158	0.186
-296.720	-75.136	-0.044	0.016
-295.705	21.890	0.138	-0.111
-294.691	800.000	-0.019	0.052
-293.676	-200.000	0.006	-0.090
-292.662	6.280	-0.191	-0.140
-291.647	-200.000	-0.018	0.375
-290.632	-200.000	0.046	0.413
-289.618	149.699	-0.213	-0.285
-288.603	800.000	0.084	0.321
-287.589	143.873	-0.090	0.119
-286.574	-43.650	0.088	0.044
-285.559	172.646	0.138	-0.196
-284.545	-108.744	-0.144	-0.030
-283.530	161.123	-0.158	-0.218
-282.516	-122.423	0.336	-0.054
-281.501	49.192	-0.203	0.189
-280.486	91.395	-0.163	-0.182
-279.472	501.907	0.029	-0.066
-278.457	800.000	0.039	-0.112
-277.443	53.221	0.061	-0.058
-276.428	-200.000	-0.040	0.289
-275.413	132.217	0.169	-0.215
-274.399	-132.244	-0.143	0.018
-273.384	270.530	-0.087	0.151
-272.370	-136.699	-0.223	-0.025
-271.355	800.000	-0.024	0.081
-270.340	-200.000	0.037	-0.168
-269.326	-200.000	-0.024	-0.177
-268.311	176.377	0.073	0.105
-267.297	336.910	0.111	-0.214
-266.282	729.110	-0.032	-0.083
-265.267	800.000	-0.023	0.087
-264.253	-200.000	-0.018	-0.111
-263.238	-5.615	0.163	-0.111
-262.224	20.783	-0.050	-0.040
-261.209	-67.180	-0.155	0.060
-260.195	-139.310	-0.218	-0.023
-259.180	64.655	0.053	0.052
-258.165	53.244	0.017	-0.016
-257.151	195.087	0.081	0.122
-256.136	419.964	0.050	0.107
-255.122	595.603	-0.064	-0.156
-254.107	800.000	0.046	0.189
-253.092	800.000	0.091	0.326
-252.078	-62.364	0.137	0.056
-251.063	-195.560	-0.404	0.003
-250.049	-190.775	-0.104	-0.001
-249.034	506.517	0.184	0.423
-248.019	530.933	-0.077	0.180
-247.005	391.734	0.065	0.134
-245.990	-51.048	0.174	0.081
-244.976	36.665	0.109	-0.095
-243.961	0.503	-0.089	0.063
-242.946	-31.827	-0.261	-0.144
-241.932	-66.350	-0.401	0.158
-240.917	-39.497	-0.325	-0.168
-239.903	-68.657	-0.288	0.110
-238.888	-14.792	-0.339	-0.215
-237.873	5.874	-0.187	-0.137
-236.859	405.702	0.059	0.123
-235.844	800.000	-0.014	0.049
-234.830	800.000	0.052	-0.152
-233.815	-200.000	0.059	0.472
-232.800	-22.668	-0.147	0.088
-231.786	39.197	0.144	0.127
-230.771	-198.169	0.069	0.000
-229.757	499.502	-0.113	0.257
-228.742	-200.000	-0.045	0.398
-227.727	-40.051	0.140	0.072
-226.713	28.042	0.194	-0.162
-225.698	89.305	-0.119	-0.131
-224.684	-200.000	-0.054	0.296
-223.669	-162.349	0.058	-0.003
-222.655	116.576	0.174	0.211
-221.640	-79.451	-0.161	0.054
-220.625	-49.729	0.180	0.084
-219.611	-82.355	-0.299	-0.096
-218.596	83.585	-0.051	0.055
-217.582	-120.339	0.355	-0.060
-216.567	-200.000	0.093	0.545
-215.552	293.707	-0.124	-0.224
-214.538	76.710	0.125	-0.131
-213.523	105.096	0.124	-0.145
-212.509	155.178	-0.161	0.218
-211.494	-200.000	-0.010	-0.207
-210.479	-101.361	-0.213	0.051
-209.465	-58.379	0.172	0.074
-208.450	-200.000	0.019	0.312
-207.436	800.000	0.112	0.420
-206.421	-48.380	-0.259	0.123
-205.406	47.985	-0.302	0.278
-204.392	-28.649	0.255	0.145
-203.377	425.755	0.120	-0.255
-202.363	78.979	0.083	-0.088
-201.348	-200.000	0.001	0.053
-200.333	-23.667	0.234	-0.138
-199.319	800.000	-0.040	-0.151
-198.304	-122.504	-0.139	-0.022
-197.290	-10.092	0.091	0.059
-196.275	800.000	0.083	0.288
-195.260	35.760	-0.113	-0.098
-194.246	-18.280	0.047	0.029
-193.231	-79.126	0.180	0.060
-192.217	622.217	-0.143	-0.354
-191.202	242.989	0.173	0.286
-190.187	607.874	-0.150	0.369
-189.173	182.232	0.125	0.181
-188.158	36.075	0.106	-0.092
-187.144	-10.378	0.296	0.194
-186.129	-139.401	-0.090	-0.010
-185.114	800.000	-0.121	-0.446
-184.100	160.248	-0.175	-0.240
-183.085	189.182	0.374	-0.553
-182.071	-136.385	-0.173	0.020
-181.056	-81.613	0.158	-0.051
-180.042	635.704	0.078	0.196
-179.027	55.109	-0.044	-0.042
-178.012	130.280	0.110	0.139
-176.998	316.382	0.020	0.036
-175.983	29.302	-0.210	0.176
-174.969	-131.813	0.158	0.020
-173.954	-200.000	-0.039	0.302
-172.939	-8.860	-0.206	0.136
-171.925	-68.407	0.211	0.081
-170.910	14.459	-0.141	0.109
-169.896	-184.127	-0.341	0.006
-168.881	511.821	0.132	-0.302
-167.866	232.769	-0.078	-0.126
-166.852	-139.757	-0.250	-0.026
-165.837	-29.684	-0.200	0.113
-164.823	-200.000	0.007	-0.280
-163.808	-200.000	-0.065	-0.377
-162.793	54.225	-0.078	-0.073
-161.779	800.000	0.059	0.166
-160.764	14.927	0.249	-0.192
-159.750	-200.000	0.021	0.092
-158.735	213.602	-0.098	0.152
-157.720	-24.956	-0.267	0.156
-156.706	-200.000	-0.018	-0.117
-155.691	104.060	0.192	-0.223
-154.677	-78.061	-0.324	-0.110
-153.662	96.473	0.101	-0.114
-152.647	256.748	0.090	0.152
-151.633	304.152	0.168	0.307
-150.618	-170.373	-0.024	0.001
-149.604	-200.000	-0.056	-0.304
-148.589	485.608	0.114	-0.255
-147.574	60.012	-0.074	0.072
-146.560	38.365	0.199	-0.175
-145.545	800.000	0.007	0.032
-144.531	-39.503	-0.227	-0.117
-143.516	85.770	-0.093	0.100
-142.502	340.662	0.084	0.161
-141.487	97.206	0.065	-0.073
-140.472	26.141	0.234	-0.192
-139.458	129.069	0.093	0.117
-138.443	-200.000	-0.030	0.312
-137.429	99.869	0.036	0.041
-136.414	793.675	0.059	0.160
-135.399	-117.710	0.046	-0.008
-134.385	-200.000	-0.043	0.188
-133.370	244.616	-0.035	0.057
-132.356	-152.832	0.150	-0.010
-131.341	90.646	-0.145	0.159
-130.326	56.175	-0.094	-0.089
-129.312	181.720	0.197	-0.285
-128.297	-200.000	-0.021	0.186
-127.283	-7.623	-0.198	0.132
-126.268	-25.360	0.220	0.128
-125.253	-83.490	-0.266	-0.084
-124.239	531.661	-0.066	0.154
-123.224	10.582	-0.320	0.240
-122.210	-200.000	-0.035	0.324
-121.195	73.518	0.240	0.247
-120.180	-200.000	-0.009	-0.140
-119.166	540.676	0.059	-0.139
-118.151	-200.000	0.054	0.244
-117.137	337.702	0.007	-0.013
-116.122	-200.000	0.058	0.268
-115.107	800.000	-0.022	0.069
-114.093	-102.904	0.157	0.037
-113.078	137.726	-0.015	0.020
-112.064	54.209	0.212	-0.201
-111.049	800.000	-0.048	-0.195
-110.034	8.740	0.231	0.171
-109.020	-131.794	-0.071	0.009
-108.005	480.137	0.052	-0.116
-106.991	-116.818	-0.218	-0.039
-105.976	-113.622	0.324	-0.062
-104.962	-50.921	-0.195	-0.090
-103.947	-26.271	0.084	0.048
-102.932	-37.552	-0.242	-0.127
-101.918	37.330	-0.129	-0.112
-100.903	0.020	-0.155	-0.108
-99.889	-200.000	0.006	0.456
-98.874	-200.000	-0.011	0.396
-97.859	800.000	-0.059	-0.187
-96.845	-164.436	0.216	-0.010
-95.830	-65.907	-0.221	-0.087
-94.816	266.674	0.138	-0.237
-93.801	60.974	0.242	-0.236
-92.786	-88.591	-0.115	0.034
-91.772	-55.688	0.140	0.061
-90.757	461.105	-0.109	-0.238
-89.743	117.328	-0.154	-0.186
-88.728	-23.745	0.081	-0.048
-87.713	800.000	0.111	-0.321
-86.699	146.022	0.107	-0.141
-85.684	204.964	-0.074	-0.113
-84.670	-200.000	0.016	0.164
-83.655	-155.096	0.336	0.022
-82.640	-41.104	-0.246	0.125
-81.626	-200.000	-0.033	-0.233
-80.611	-98.005	-0.254	-0.064
-79.597	185.884	0.161	0.235
-78.582	117.468	0.121	0.147
-77.567	800.000	0.026	-0.102
-76.553	-180.580	-0.453	0.009
-75.538	195.506	0.184	0.275
-74.524	800.000	0.034	0.100
-73.509	653.892	-0.077	0.193
-72.494	-29.459	-0.166	0.093
-71.480	-200.000	-0.041	-0.468
-70.465	51.413	-0.160	-0.149
-69.451	-121.449	-0.266	-0.043
-68.436	200.727	-0.062	0.093
-67.422	44.242	-0.017	-0.015
-66.407	154.187	-0.122	-0.164
-65.392	-155.790	-0.428	0.027
-64.378	-0.540	-0.112	0.078
-63.363	190.607	0.183	-0.271
-62.349	87.235	0.024	0.027
-61.334	-51.356	-1.284	-0.589
-60.319	800.000	0.113	0.389
-59.305	273.003	-0.474	-0.821
-58.290	700.659	0.444	1.147
-57.276	535.546	0.481	1.120
-56.261	-200.000	102.755	600.397
-55.246	569.955	1432.408	3417.372
-54.232	187.385	2625.269	3841.011
-53.217	110.259	2271.176	2675.313
-52.203	40.486	1892.644	1671.603
-51.188	34.362	1684.115	1441.234
-50.173	31.693	1641.047	1384.617
-49.159	50.748	1692.391	1571.385
-48.144	51.641	1708.662	1593.128
-47.130	33.893	1667.233	1423.049
-46.115	31.208	1653.136	1390.985
-45.100	31.065	1648.348	1385.838
-44.086	31.013	1645.856	1383.303
-43.071	31.126	1642.813	1381.527
-42.057	31.012	1640.373	1378.582
-41.042	31.021	1637.912	1376.525
-40.027	31.034	1636.935	1375.739
-39.013	31.031	1634.670	1373.761
-37.998	30.950	1633.151	1371.831
-36.984	31.046	1632.188	1371.679
-35.969	31.161	1630.169	1370.770
-34.954	31.110	1629.001	1369.359
-33.940	31.112	1627.178	1367.786
-32.925	31.098	1625.617	1366.318
-31.911	31.102	1623.796	1364.762
-30.896	31.190	1621.793	1363.669
-29.881	31.183	1620.453	1362.438
-28.867	31.166	1619.391	1361.363
-27.852	31.075	1617.806	1359.314
-26.838	31.123	1615.884	1358.000
-25.823	31.149	1614.787	1357.212
-24.809	31.132	1613.712	1356.127
-23.794	31.165	1612.153	1355.001
-22.779	31.153	1610.296	1353.305
-21.765	31.136	1608.973	1352.016
-20.750	31.135	1607.752	1350.926
-19.736	31.101	1606.371	1349.467
-18.721	31.192	1604.535	1348.528
-17.706	31.123	1603.538	1347.140
-16.692	31.126	1601.588	1345.470
-15.677	31.245	1599.582	1344.586
-14.663	31.199	1598.598	1343.373
-13.648	31.311	1597.281	1343.023
-12.633	31.153	1596.175	1340.902
-11.619	31.193	1594.178	1339.460
-10.604	31.161	1593.034	1338.213
-9.590	31.200	1591.346	1337.024
-8.575	31.175	1590.329	1335.939
-7.560	31.216	1589.097	1335.143
-6.546	31.238	1588.081	1334.395
-5.531	31.183	1587.340	1333.327
-4.517	31.186	1585.759	1331.963
-3.502	31.149	1584.859	1330.891
-2.487	31.188	1583.396	1329.892
-1.473	30.698	1571.229	1316.152
-0.458	27.327	1550.386	1275.062
0.556	24.687	1550.691	1237.723
1.571	21.872	1573.892	1236.322
2.586	21.173	1586.333	1241.018
3.600	18.496	1532.605	1180.470
4.615	10.995	1425.285	1049.496
5.629	4.805	1364.431	966.277
6.644	3.833	1356.574	954.628
7.659	3.739	1355.274	953.051
8.673	3.778	1354.214	952.458
9.688	3.820	1352.614	951.511
10.702	3.824	1349.410	949.193
11.717	6.533	1354.450	969.331
12.731	14.088	1369.112	1026.544
13.746	20.546	1378.384	1073.412
14.761	21.458	1379.257	1079.634
15.775	20.654	1377.185	1072.955
16.790	19.628	1374.588	1064.516
17.804	18.863	1372.069	1057.764
18.819	18.574	1371.078	1055.134
19.834	18.349	1370.490	1053.205
20.848	18.291	1368.749	1051.413
21.863	18.044	1367.921	1049.172
22.877	18.025	1366.539	1047.901
23.892	18.000	1365.499	1046.855
24.907	17.900	1365.307	1046.004
25.921	17.864	1364.106	1044.772
26.936	17.828	1363.120	1043.703
27.950	17.990	1361.709	1043.521
28.965	17.976	1361.092	1042.870
29.980	18.112	1360.036	1042.796
30.994	18.370	1358.568	1043.154
32.009	18.162	1358.190	1041.505
33.023	18.253	1356.891	1040.970
34.038	18.131	1355.480	1039.050
35.053	18.107	1353.917	1037.619
36.067	18.113	1353.078	1036.921
37.082	18.132	1352.119	1036.208
38.096	18.140	1351.372	1035.591
39.111	18.222	1350.393	1035.243
40.126	18.065	1349.409	1033.450
41.140	17.825	1348.600	1031.290
42.155	17.668	1348.048	1029.828
43.169	17.705	1347.759	1029.737
44.184	17.615	1347.691	1029.051
45.199	17.741	1346.809	1029.048
46.213	17.929	1346.421	1029.792
47.228	17.892	1345.977	1029.140
48.242	18.016	1344.740	1028.853
49.257	18.013	1343.091	1027.482
50.271	18.012	1341.626	1026.263
51.286	18.068	1340.453	1025.610
52.301	18.017	1339.222	1024.269
53.315	17.881	1338.263	1022.634
54.330	17.863	1336.767	1021.290
55.344	17.691	1335.590	1019.276
56.359	17.828	1334.417	1019.106
57.374	17.663	1334.024	1017.733
58.388	17.602	1332.832	1016.367
59.403	17.625	1332.853	1016.428
60.417	17.602	1332.180	1015.691
61.432	17.552	1330.915	1014.341
62.447	17.506	1329.718	1013.060
63.461	17.514	1328.605	1012.174
64.476	17.374	1328.179	1010.929
65.490	17.448	1326.151	1009.735
66.505	17.474	1324.812	1008.776
67.520	17.533	1323.723	1008.206
68.534	17.472	1323.190	1007.350
69.549	17.472	1321.644	1006.087
70.563	17.528	1320.355	1005.350
71.578	17.381	1319.732	1003.914
72.593	17.312	1318.929	1002.809
73.607	17.275	1317.715	1001.583
74.622	17.395	1316.976	1001.636
75.636	17.408	1316.324	1001.130
76.651	17.333	1316.412	1000.664
77.666	17.445	1315.436	1000.495
78.680	17.457	1314.851	1000.027
79.695	17.610	1313.624	999.906
80.709	17.626	1313.200	999.591
81.724	17.631	1312.751	999.185
82.739	17.837	1311.756	999.550
83.753	17.998	1310.967	999.804
84.768	18.057	1310.724	999.876
85.782	18.072	1309.352	998.823
86.797	18.109	1308.239	998.103
87.812	18.009	1306.918	996.424
88.826	17.957	1305.892	995.251
89.841	17.993	1304.972	994.669
90.855	18.097	1303.771	994.274
91.870	18.050	1303.501	993.709
92.884	18.155	1302.084	993.150
93.899	18.197	1301.309	992.714
94.914	18.233	1300.659	992.337
95.928	18.262	1300.196	992.062
96.943	18.130	1299.122	990.392
97.957	18.146	1297.750	989.350
98.972	18.134	1297.186	988.767
99.987	18.085	1296.191	987.634
101.001	18.138	1294.541	986.596
102.016	18.122	1294.138	986.109
103.030	18.121	1292.792	984.990
104.045	18.055	1292.618	984.390
105.060	18.000	1290.752	982.569
106.074	17.694	1289.771	979.978
107.089	17.578	1287.962	977.848
108.103	17.529	1286.416	976.306
109.118	17.523	1285.520	975.504
110.133	17.535	1283.960	974.304
111.147	17.500	1283.027	973.313
112.162	17.632	1281.813	973.056
113.176	17.705	1280.690	972.533
114.191	17.701	1279.655	971.639
115.206	17.627	1278.648	970.370
116.220	17.611	1277.308	969.176
117.235	17.734	1275.714	968.576
118.249	17.640	1275.626	967.892
119.264	17.523	1274.269	966.111
120.279	17.473	1273.228	964.952
121.293	17.474	1272.301	964.170
122.308	17.413	1270.724	962.546
123.322	17.479	1269.303	961.756
124.337	17.455	1268.881	961.220
125.352	17.309	1267.739	959.443
126.366	17.272	1266.730	958.384
127.381	17.398	1265.156	957.820
128.395	17.427	1264.386	957.318
129.410	17.460	1263.452	956.711
130.424	17.431	1263.126	956.212
131.439	17.521	1262.278	955.997
132.454	17.558	1261.319	955.388
133.468	17.700	1260.214	955.264
134.483	17.662	1259.871	954.709
135.497	17.626	1258.819	953.627
136.512	17.650	1257.333	952.550
137.527	17.635	1256.254	951.561
138.541	17.815	1254.591	951.222
139.556	17.896	1253.446	950.719
140.570	17.842	1252.552	949.657
141.585	17.962	1251.204	949.218
142.600	18.042	1250.676	949.180
143.614	18.085	1249.780	948.657
144.629	18.233	1248.464	948.390
145.643	17.987	1247.967	946.565
146.658	18.016	1246.163	945.275
147.673	17.904	1244.881	943.603
148.687	17.852	1243.721	942.348
149.702	17.739	1242.258	940.536
150.716	17.684	1241.062	939.247
151.731	17.732	1239.951	938.584
152.746	17.743	1238.713	937.627
153.760	17.862	1237.465	937.248
154.775	17.889	1236.500	936.583
155.789	17.971	1235.676	936.329
156.804	17.956	1234.599	935.344
157.819	17.935	1234.084	934.759
158.833	18.220	1232.568	935.088
159.848	18.182	1232.455	934.710
160.862	18.200	1231.096	933.693
161.877	17.905	1229.695	930.941
162.892	17.796	1228.680	929.497
163.906	17.761	1227.544	928.362
164.921	17.806	1226.956	928.081
165.935	17.808	1226.069	927.342
166.950	17.886	1225.717	927.417
167.964	17.976	1224.672	927.030
168.979	17.886	1223.748	925.761
169.994	17.956	1223.162	925.617
171.008	17.926	1222.560	924.917
172.023	17.993	1222.024	924.789
173.037	18.101	1221.108	924.600
174.052	18.199	1220.141	924.317
175.067	17.977	1218.839	922.049
176.081	17.974	1217.342	920.820
177.096	17.859	1216.524	919.497
178.110	17.902	1215.248	918.688
179.125	17.952	1214.699	918.456
180.140	17.974	1213.258	917.402
181.154	18.086	1212.207	917.132
182.169	18.213	1211.260	917.013
183.183	18.256	1210.018	916.223
184.198	18.221	1209.072	915.237
185.213	18.269	1208.329	914.851
186.227	18.313	1206.943	913.958
187.242	18.332	1205.903	913.190
188.256	18.388	1205.170	912.853
189.271	18.351	1204.097	911.758
190.286	18.188	1203.116	910.069
191.300	17.879	1201.871	907.405
192.315	17.733	1201.037	905.922
193.329	17.821	1200.661	906.022
194.344	17.928	1200.020	906.028
195.359	18.043	1199.339	906.043
196.373	18.114	1198.703	905.857
197.388	18.323	1198.328	906.603
198.402	18.428	1198.496	907.204
199.417	18.495	1197.773	906.930
200.432	18.527	1197.024	906.455
201.446	18.614	1196.106	906.137
202.461	18.713	1195.322	905.985
203.475	18.712	1194.227	905.072
204.490	18.583	1192.693	903.146
205.504	18.374	1191.187	900.827
206.519	18.371	1190.288	900.052
207.534	18.249	1189.513	898.749
208.548	18.296	1188.610	898.233
209.563	18.317	1187.638	897.527
210.577	18.394	1186.861	897.264
211.592	18.440	1186.058	896.817
212.607	18.682	1185.555	897.624
213.621	18.692	1184.295	896.645
214.636	18.575	1183.543	895.383
215.650	18.576	1182.499	894.520
216.665	18.685	1181.586	894.317
217.680	18.868	1180.683	894.508
218.694	18.816	1180.230	893.816
219.709	18.792	1179.354	892.949
220.723	18.667	1178.604	891.651
221.738	18.820	1177.570	891.587
222.753	18.737	1177.170	890.773
223.767	18.652	1176.453	889.713
224.782	18.859	1175.854	890.251
225.796	19.032	1175.537	890.829
226.811	18.854	1174.506	889.046
227.826	18.786	1173.642	887.966
228.840	18.669	1172.914	886.731
229.855	18.628	1172.027	885.767
230.869	18.730	1171.520	885.833
231.884	18.727	1170.075	884.645
232.899	18.643	1169.323	883.568
233.913	18.527	1168.949	882.610
234.928	18.567	1167.928	881.966
235.942	18.474	1167.378	880.995
236.957	18.436	1166.675	880.190
237.972	18.543	1166.118	880.245
238.986	18.586	1165.445	879.880
240.001	18.629	1164.520	879.322
241.015	18.597	1163.730	878.486
242.030	18.738	1163.153	878.690
243.045	18.816	1161.921	878.083
244.059	18.813	1161.272	877.501
245.074	18.816	1161.268	877.435
246.088	18.828	1160.290	876.677
247.103	19.004	1159.461	876.872
248.117	19.057	1158.678	876.472
249.132	19.147	1158.435	876.667
250.147	19.369	1157.944	877.349
251.161	19.487	1157.146	877.267
252.176	19.511	1156.571	876.873
253.190	19.488	1156.414	876.561
254.205	19.605	1155.747	876.570
255.220	19.608	1154.566	875.615
256.234	19.594	1154.261	875.236
257.249	19.511	1153.485	874.150
258.263	19.481	1152.662	873.296
259.278	19.538	1152.233	873.183
260.293	19.654	1151.233	872.931
261.307	19.592	1151.157	872.483
262.322	19.630	1150.673	872.232
263.336	19.789	1149.186	871.829
264.351	19.795	1148.778	871.471
265.366	19.755	1148.956	871.332
266.380	19.799	1147.504	870.374
267.395	19.793	1146.721	869.674
268.409	19.557	1145.861	867.755
269.424	19.470	1145.703	867.123
270.439	19.606	1145.073	867.255
271.453	19.593	1143.874	866.201
272.468	19.421	1142.957	864.570
273.482	19.430	1142.132	863.915
274.497	19.428	1141.696	863.495
275.512	19.575	1140.817	863.490
276.526	19.445	1140.019	862.162
277.541	19.372	1139.897	861.626
278.555	19.518	1139.049	861.637
279.570	19.669	1138.399	861.825
280.585	19.849	1137.926	862.287
281.599	19.764	1136.504	860.709
282.614	19.640	1135.926	859.583
283.628	19.522	1134.316	857.700
284.643	19.550	1133.431	857.091
285.657	19.642	1132.545	856.804
286.672	19.608	1131.779	855.982
287.687	19.634	1130.855	855.336
288.701	19.688	1130.333	855.133
289.716	19.698	1129.621	854.569
290.730	19.706	1129.192	854.205
291.745	19.839	1128.315	854.124
292.760	19.821	1127.514	853.354
293.774	19.878	1126.873	853.072
294.789	19.967	1126.748	853.341
295.803	19.948	1126.149	852.718
296.818	19.763	1125.347	851.125
297.833	19.680	1124.600	850.079
298.847	19.771	1123.431	849.565
299.862	19.730	1122.880	848.871
300.876	19.897	1122.403	849.256
301.891	19.874	1121.895	848.682
302.906	20.074	1121.095	848.982
303.920	20.148	1120.067	848.489
304.935	20.104	1119.791	847.992
305.949	20.259	1119.234	848.254
306.964	20.236	1118.531	847.532
307.979	20.150	1117.772	846.463
308.993	20.104	1116.915	845.517
310.008	20.206	1116.549	845.662
311.022	20.170	1115.843	844.875
312.037	20.196	1114.772	844.116
313.052	20.069	1113.930	842.788
314.066	20.019	1112.634	841.487
315.081	19.752	1112.111	839.722
316.095	19.932	1110.532	839.330
317.110	19.913	1110.116	838.846
318.125	19.863	1109.517	838.076
319.139	19.823	1108.931	837.368
320.154	19.827	1108.615	837.072
321.168	19.910	1107.709	836.716
322.183	19.878	1107.226	836.123
323.197	20.010	1106.406	836.070
324.212	20.095	1105.949	836.060
325.227	20.004	1105.562	835.254
326.241	20.093	1104.956	835.152
327.256	20.006	1104.378	834.222
328.270	20.063	1102.997	833.380
329.285	19.957	1102.234	832.218
330.300	19.979	1101.184	831.455
331.314	19.986	1100.442	830.858
332.329	19.999	1099.521	830.149
333.343	20.043	1098.620	829.609
334.358	20.219	1097.873	829.813
335.373	20.242	1097.101	829.264
336.387	20.208	1096.976	828.937
337.402	20.359	1095.878	828.751
338.416	20.308	1095.423	828.094
339.431	20.340	1095.029	827.873
340.446	20.576	1094.294	828.371
341.460	20.614	1093.694	828.022
342.475	20.670	1092.901	827.617
343.489	20.634	1091.859	826.582
344.504	20.718	1090.955	826.222
345.519	20.709	1090.515	825.773
346.533	20.811	1089.293	825.258
347.548	20.882	1089.056	825.344
348.562	20.780	1088.092	824.057
349.577	20.743	1086.548	822.638
350.592	20.456	1085.978	820.778
351.606	20.416	1085.428	820.102
352.621	20.485	1084.489	819.648
353.635	20.345	1084.022	818.559
354.650	20.372	1083.225	818.014
355.665	20.397	1082.609	817.594
356.679	20.411	1082.249	817.317
357.694	20.587	1081.639	817.611
358.708	20.622	1081.213	817.378
359.723	20.633	1080.583	816.883
360.738	20.615	1079.821	816.150
361.752	20.672	1079.097	815.800
362.767	20.657	1078.525	815.223
363.781	20.605	1078.284	814.724
364.796	20.857	1077.863	815.515
365.810	20.825	1077.274	814.849
366.825	20.988	1076.747	815.137
367.840	21.061	1076.114	814.926
368.854	21.188	1075.345	814.866
369.869	21.078	1074.717	813.805
370.883	21.050	1073.706	812.835
371.898	20.965	1072.917	811.775
372.913	20.922	1072.320	811.051
373.927	21.033	1072.017	811.263
374.942	21.176	1071.588	811.534
375.956	21.194	1071.094	811.171
376.971	21.066	1070.337	809.932
377.986	21.070	1069.713	809.408
379.000	21.231	1069.127	809.638
380.015	21.282	1068.750	809.518
381.029	21.414	1068.167	809.613
382.044	21.346	1067.217	808.509
383.059	21.225	1066.568	807.386
384.073	21.257	1065.831	806.905
385.088	21.284	1065.102	806.407
386.102	21.250	1064.169	805.473
387.117	21.134	1063.037	804.008
388.132	21.025	1062.079	802.710
389.146	21.032	1061.230	802.031
390.161	21.003	1060.429	801.220
391.175	21.030	1059.847	800.836
392.190	21.095	1059.506	800.806
393.205	21.429	1058.776	801.712
394.219	21.303	1057.660	800.221
395.234	21.183	1056.815	798.962
396.248	20.980	1056.064	797.396
397.263	21.239	1054.470	797.304
398.278	21.106	1053.807	796.125
399.292	21.084	1053.070	795.398
400.307	20.971	1052.436	794.331
401.321	20.874	1052.050	793.529
402.336	20.856	1051.504	792.966
403.350	20.952	1050.791	792.795
404.365	20.941	1050.270	792.281
405.380	21.094	1049.424	792.266
406.394	21.240	1048.874	792.446
407.409	21.389	1047.980	792.376
408.423	21.324	1047.811	791.881
409.438	21.585	1046.551	792.038
410.453	21.530	1046.066	791.354
411.467	21.595	1045.192	790.918
412.482	21.667	1044.942	790.980
413.496	21.698	1044.271	790.545
414.511	21.776	1043.735	790.423
415.526	21.727	1043.254	789.767
416.540	21.792	1043.185	789.935
417.555	21.857	1042.093	789.334
418.569	21.735	1041.717	788.431
419.584	21.739	1041.274	788.041
420.599	21.718	1040.605	787.373
421.613	155.450	1402.451	1793.840
422.628	142.264	1455.142	1793.919
