DTS Sentinel unit serial number:	SN413079Multiplexer serial number:	ORYXHardware model number:	OX4-SRSoftware version number:	ORYX F/W v4.00 Oryx Data Collector v3.7.2.0data status	okinstallation	princeton_trtdifferential loss correction	single-endedforward channel	channel 2reverse channel	N/Adate	2019/09/13time	07:15:35forward acquisition time	60.00reverse acquisition time	0.00gamma	496.2192k internal	0.2337k external	0.2337temperature offset calibration	1.0195default loss term (dB/km)	0.3790temperature slope calibration	1.0000multiplexer offset coefficient	1.0000multiplexer slope coefficient	1.0000fibre end	0.00T internal ref (°C)	26.06T ext. ref 1 (°C)	4.15T ext. ref 2 (°C)	21.44length (m)	temperature (°C)	Stokes	anti-Stokes-747.200	446.841	0.028	0.063
-746.185	337.332	0.133	0.259
-745.171	-45.176	-0.040	-0.020
-744.156	435.293	-0.105	0.229
-743.142	-43.935	0.018	-0.009
-742.127	-200.000	-0.012	0.189
-741.112	-120.070	-0.160	0.027
-740.098	-130.604	-0.229	0.031
-739.083	298.047	0.100	-0.184
-738.069	800.000	-0.047	-0.191
-737.054	83.922	-0.041	-0.045
-736.039	-158.568	-0.464	-0.027
-735.025	457.724	-0.033	-0.074
-734.010	-200.000	-0.040	-0.267
-732.996	-126.001	0.114	0.017
-731.981	-200.000	-0.062	-0.378
-730.966	-17.860	0.164	0.103
-729.952	166.002	-0.344	0.489
-728.937	-200.000	-0.027	0.234
-727.923	206.653	0.038	-0.059
-726.908	-51.101	0.122	-0.058
-725.894	-101.557	-0.113	-0.028
-724.879	-27.103	0.184	-0.107
-723.864	-99.180	-0.087	0.022
-722.850	-118.414	-0.359	-0.064
-721.835	124.314	-0.109	-0.138
-720.821	800.000	-0.079	-0.231
-719.806	286.109	0.118	0.214
-718.791	-70.070	0.299	-0.114
-717.777	-200.000	0.027	-0.216
-716.762	-78.451	0.248	-0.085
-715.748	-76.849	-0.185	-0.065
-714.733	800.000	0.093	-0.305
-713.718	-200.000	0.062	0.315
-712.704	-200.000	0.012	-0.209
-711.689	-28.604	-0.214	0.124
-710.675	-200.000	-0.033	-0.224
-709.660	58.620	0.250	-0.246
-708.645	484.218	0.097	0.220
-707.631	-95.400	-0.145	0.039
-706.616	-200.000	-0.031	0.256
-705.602	83.711	0.144	0.158
-704.587	-50.215	0.383	0.182
-703.572	-60.699	0.160	-0.068
-702.558	-147.222	0.160	-0.014
-701.543	-61.122	-0.221	0.093
-700.529	467.236	0.052	0.116
-699.514	59.305	0.038	-0.038
-698.499	27.246	0.076	0.064
-697.485	76.877	-0.129	-0.137
-696.470	131.054	0.194	-0.250
-695.456	-200.000	-0.016	-0.174
-694.441	-125.620	-0.091	-0.014
-693.426	414.988	0.116	-0.248
-692.412	-200.000	0.005	-0.215
-691.397	-200.000	0.005	-0.189
-690.383	169.174	0.064	0.091
-689.368	-200.000	-0.041	-0.223
-688.354	-200.000	0.029	-0.235
-687.339	-24.492	-0.258	0.154
-686.324	-48.698	0.111	0.053
-685.310	-7.032	0.161	-0.109
-684.295	-110.687	-0.262	-0.054
-683.281	-63.874	-0.148	-0.061
-682.266	420.139	0.081	0.173
-681.251	800.000	-0.056	0.188
-680.237	-200.000	-0.021	0.121
-679.222	97.508	0.098	0.112
-678.208	800.000	-0.032	0.117
-677.193	-46.065	0.192	0.095
-676.178	-59.538	-0.233	0.100
-675.164	-44.070	0.287	0.145
-674.149	800.000	-0.031	-0.111
-673.135	800.000	0.050	-0.168
-672.120	800.000	-0.088	0.308
-671.105	7.714	-0.205	0.154
-670.091	85.808	-0.036	0.040
-669.076	268.642	0.053	0.093
-668.062	192.282	0.118	-0.179
-667.047	-200.000	0.021	0.120
-666.032	-200.000	-0.021	-0.227
-665.018	-17.027	-0.176	0.111
-664.003	346.283	-0.026	0.052
-662.989	-143.645	-0.275	-0.026
-661.974	-74.700	-0.101	0.036
-660.959	-200.000	0.004	-0.132
-659.945	-200.000	0.002	0.110
-658.930	319.865	0.176	0.335
-657.916	-85.112	-0.149	-0.047
-656.901	8.978	-0.304	0.230
-655.886	-200.000	0.014	-0.132
-654.872	-169.518	-0.179	0.007
-653.857	-57.936	-0.054	-0.023
-652.843	-124.199	-0.143	-0.022
-651.828	-116.042	0.392	0.073
-650.814	78.629	-0.358	0.383
-649.799	-37.734	0.103	-0.055
-648.784	113.583	0.121	0.147
-647.770	-50.838	-0.325	-0.153
-646.755	393.026	0.063	-0.132
-645.741	8.445	0.403	0.303
-644.726	-96.104	-0.254	0.068
-643.711	44.984	0.061	0.056
-642.697	-200.000	-0.028	-0.350
-641.682	64.620	0.151	-0.152
-640.668	800.000	0.082	-0.243
-639.653	87.895	-0.130	-0.144
-638.638	172.321	-0.180	0.259
-637.624	-125.641	-0.541	0.082
-636.609	-5.823	-0.150	0.103
-635.595	-198.737	0.163	0.001
-634.580	174.436	-0.277	-0.400
-633.565	172.514	-0.111	0.159
-632.551	-200.000	0.021	-0.183
-631.536	30.475	-0.208	-0.178
-630.522	491.494	0.127	-0.290
-629.507	-126.910	-0.031	0.005
-628.492	5.891	-0.323	-0.239
-627.478	-86.974	-0.150	0.046
-626.463	800.000	0.090	0.296
-625.449	-90.204	-0.182	0.053
-624.434	-75.191	-0.229	0.082
-623.419	-146.208	-0.225	-0.020
-622.405	201.358	0.070	0.108
-621.390	-41.836	-0.099	-0.051
-620.376	-30.150	0.261	-0.149
-619.361	-110.262	0.055	0.011
-618.346	-200.000	-0.018	-0.363
-617.332	164.230	0.250	0.351
-616.317	457.165	0.140	0.311
-615.303	-71.376	0.343	-0.128
-614.288	787.523	-0.040	-0.110
-613.273	-123.458	0.339	0.054
-612.259	-70.745	0.343	-0.129
-611.244	-63.945	0.069	-0.028
-610.230	29.417	0.054	0.046
-609.215	-200.000	0.016	-0.208
-608.201	-34.538	0.037	-0.020
-607.186	648.672	0.082	-0.211
-606.171	-18.422	-0.267	-0.167
-605.157	-147.722	-0.111	-0.009
-604.142	-91.628	-0.356	-0.101
-603.128	-158.385	-0.363	-0.021
-602.113	-4.332	-0.096	-0.066
-601.098	-104.178	-0.294	-0.068
-600.084	124.955	-0.339	0.426
-599.069	420.148	0.100	0.214
-598.055	-67.378	0.203	0.080
-597.040	123.849	-0.069	-0.087
-596.025	-200.000	0.034	-0.253
-595.011	800.000	0.026	-0.094
-593.996	-200.000	-0.069	0.310
-592.982	-8.322	0.152	-0.102
-591.967	-200.000	0.007	-0.370
-590.952	53.458	-0.245	0.235
-589.938	-43.198	-0.371	-0.188
-588.923	167.135	0.165	-0.234
-587.909	-50.920	0.181	-0.085
-586.894	800.000	0.024	-0.088
-585.879	308.432	0.089	-0.166
-584.865	-107.610	0.158	-0.035
-583.850	-1.935	0.173	-0.121
-582.836	-200.000	0.014	-0.093
-581.821	-115.962	0.109	-0.020
-580.806	-200.000	-0.041	-0.286
-579.792	-67.487	-0.106	-0.041
-578.777	800.000	-0.030	0.085
-577.763	426.798	-0.165	0.355
-576.748	-42.557	-0.124	-0.063
-575.733	800.000	0.047	-0.170
-574.719	-200.000	-0.029	-0.231
-573.704	36.965	-0.103	-0.091
-572.690	312.685	-0.077	-0.144
-571.675	800.000	-0.080	0.225
-570.661	-200.000	0.014	-0.082
-569.646	-135.567	0.277	0.033
-568.631	347.395	-0.125	-0.246
-567.617	-182.778	0.057	-0.001
-566.602	-0.923	0.199	0.140
-565.588	-200.000	0.003	0.019
-564.573	170.898	0.070	-0.100
-563.558	-21.231	0.020	0.012
-562.544	9.266	-0.293	0.221
-561.529	41.551	-0.089	-0.081
-560.515	-67.877	-0.285	-0.111
-559.500	800.000	0.045	0.130
-558.485	-150.379	-0.157	0.012
-557.471	-22.587	-0.315	-0.190
-556.456	-19.379	-0.049	-0.030
-555.442	203.285	-0.182	0.280
-554.427	-93.642	-0.335	-0.092
-553.412	272.287	-0.276	0.486
-552.398	-64.631	-0.356	-0.144
-551.383	65.824	0.130	-0.132
-550.369	-137.519	0.282	-0.032
-549.354	-167.132	0.132	0.005
-548.339	87.880	0.195	-0.216
-547.325	-68.057	-0.201	0.078
-546.310	800.000	-0.032	0.127
-545.296	20.761	0.235	-0.190
-544.281	800.000	0.067	0.215
-543.266	-128.190	-0.422	-0.060
-542.252	-200.000	-0.018	0.150
-541.237	448.042	-0.079	-0.173
-540.223	-62.467	-0.185	0.076
-539.208	-135.685	0.171	0.020
-538.193	800.000	-0.071	-0.201
-537.179	-150.898	0.142	0.011
-536.164	800.000	-0.079	-0.271
-535.150	-200.000	0.022	0.097
-534.135	-86.695	0.085	0.026
-533.121	200.297	-0.199	0.305
-532.106	-200.000	0.005	-0.414
-531.091	25.524	-0.184	0.152
-530.077	-189.609	-0.167	-0.002
-529.062	-144.581	0.215	-0.020
-528.048	-60.437	-0.257	-0.109
-527.033	-200.000	0.017	0.158
-526.018	-159.587	0.148	-0.008
-525.004	323.344	-0.027	0.051
-523.989	101.633	-0.092	0.107
-522.975	-39.390	-0.248	-0.129
-521.960	-27.486	0.141	-0.082
-520.945	50.100	-0.068	0.064
-519.931	51.124	0.155	-0.146
-518.916	-103.854	0.260	-0.061
-517.902	59.950	0.239	-0.235
-516.887	-200.000	0.080	0.401
-515.872	-200.000	0.052	-0.247
-514.858	800.000	0.033	-0.125
-513.843	-1.237	0.089	0.063
-512.829	40.693	-0.082	-0.073
-511.814	38.715	0.395	-0.351
-510.799	-28.411	0.187	0.107
-509.785	-5.048	-0.230	-0.158
-508.770	11.858	-0.039	-0.030
-507.756	501.870	-0.038	0.086
-506.741	-32.116	-0.319	0.177
-505.726	-167.963	-0.129	-0.005
-504.712	185.837	0.233	0.344
-503.697	-200.000	0.023	0.173
-502.683	-116.603	0.173	0.032
-501.668	800.000	-0.060	0.247
-500.653	-72.857	0.286	0.105
-499.639	3.244	-0.278	0.201
-498.624	-137.917	-0.092	0.010
-497.610	-200.000	0.016	0.266
-496.595	300.353	0.069	0.127
-495.581	147.691	0.109	0.146
-494.566	-200.000	-0.024	0.211
-493.551	-200.000	0.039	-0.268
-492.537	220.657	0.141	-0.226
-491.522	-45.622	-0.051	-0.025
-490.508	-83.389	0.371	0.118
-489.493	355.445	0.068	-0.135
-488.478	-142.026	-0.174	0.017
-487.464	367.272	-0.169	0.339
-486.449	-10.182	-0.162	-0.107
-485.435	559.471	-0.081	-0.194
-484.420	-43.651	-0.163	-0.082
-483.405	284.811	0.049	-0.087
-482.391	-151.270	0.106	-0.008
-481.376	-92.235	-0.131	-0.037
-480.362	426.474	-0.081	0.174
-479.347	-121.905	-0.188	-0.031
-478.332	574.646	-0.022	0.053
-477.318	-200.000	-0.296	-0.001
-476.303	-129.285	-0.278	-0.038
-475.289	-200.000	-0.034	0.207
-474.274	-96.407	0.231	0.061
-473.259	800.000	0.043	-0.163
-472.245	93.108	0.044	0.050
-471.230	-22.803	0.155	-0.093
-470.216	-192.473	0.175	-0.002
-469.201	-3.505	-0.110	-0.076
-468.186	-99.608	0.234	0.058
-467.172	431.248	0.102	-0.219
-466.157	-45.768	-0.029	0.014
-465.143	-151.131	0.048	-0.004
-464.128	-91.686	-0.143	0.041
-463.113	214.118	0.156	-0.245
-462.099	29.885	-0.061	-0.052
-461.084	-17.681	0.296	0.185
-460.070	800.000	0.032	0.089
-459.055	412.656	-0.051	0.107
-458.040	-154.690	-0.389	-0.026
-457.026	125.335	-0.068	-0.085
-456.011	-6.107	0.309	-0.209
-454.997	-31.881	-0.325	0.181
-453.982	201.285	-0.103	-0.157
-452.968	-81.849	-0.234	-0.076
-451.953	-200.000	-0.028	-0.125
-450.938	-200.000	0.004	0.400
-449.924	-115.470	-0.251	-0.047
-448.909	-70.329	-0.071	0.027
-447.895	54.164	0.148	-0.142
-446.880	16.102	0.003	-0.003
-445.865	81.343	-0.183	0.197
-444.851	-119.769	0.107	0.018
-443.836	414.759	0.081	0.170
-442.822	-132.884	-0.230	0.029
-441.807	-5.266	-0.256	-0.174
-440.792	-200.000	0.028	0.374
-439.778	-43.569	0.086	-0.043
-438.763	-56.093	0.198	0.088
-437.749	175.019	-0.290	-0.416
-436.734	-133.429	-0.011	-0.001
-435.719	-200.000	-0.010	0.148
-434.705	-8.351	0.243	0.162
-433.690	16.743	0.145	-0.114
-432.676	-200.000	-0.035	0.193
-431.661	26.934	0.167	-0.139
-430.646	116.566	0.162	-0.196
-429.632	42.540	0.126	0.114
-428.617	-200.000	-0.007	-0.261
-427.603	-200.000	0.048	0.217
-426.588	2.636	-0.086	-0.062
-425.573	260.555	0.021	-0.036
-424.559	-19.968	-0.073	-0.045
-423.544	45.164	0.172	0.158
-422.530	268.639	0.045	-0.079
-421.515	-200.000	0.007	-0.150
-420.500	-138.871	-0.211	0.023
-419.486	800.000	0.041	0.115
-418.471	-36.341	0.220	0.118
-417.457	307.445	-0.277	-0.511
-416.442	-200.000	-0.013	-0.354
-415.428	-25.446	-0.179	-0.105
-414.413	257.135	-0.105	-0.179
-413.398	89.938	-0.189	0.209
-412.384	346.845	0.078	-0.153
-411.369	576.994	0.138	0.334
-410.355	-28.646	0.037	0.021
-409.340	-200.000	-0.036	-0.176
-408.325	235.312	0.049	0.081
-407.311	8.555	0.317	0.236
-406.296	-73.972	0.256	-0.092
-405.282	-43.667	0.170	-0.085
-404.267	-31.087	-0.072	0.040
-403.252	-109.560	-0.097	0.020
-402.238	-26.982	0.192	-0.111
-401.223	102.461	-0.126	-0.146
-400.209	114.554	-0.285	0.344
-399.194	800.000	-0.115	0.384
-398.179	100.797	0.095	0.109
-397.165	-200.000	-0.010	0.082
-396.150	85.705	-0.060	0.065
-395.136	-55.739	0.168	-0.074
-394.121	-200.000	-0.005	-0.225
-393.106	-157.942	-0.124	-0.007
-392.092	800.000	-0.127	0.384
-391.077	-124.997	0.236	0.036
-390.063	-17.298	-0.152	-0.095
-389.048	25.211	0.145	0.119
-388.033	-67.316	-0.131	0.051
-387.019	35.895	0.146	-0.127
-386.004	-123.471	-0.254	0.040
-384.990	-112.048	0.147	-0.029
-383.975	-105.536	0.218	0.049
-382.960	-149.645	-0.257	-0.020
-381.946	151.523	0.236	0.319
-380.931	72.750	-0.222	0.229
-379.917	256.570	0.072	0.122
-378.902	-23.364	-0.067	0.040
-377.888	-127.214	-0.234	-0.034
-376.873	4.642	-0.209	0.152
-375.858	91.750	0.186	0.207
-374.844	77.423	0.134	0.142
-373.829	-200.000	-0.053	0.284
-372.815	157.302	-0.208	-0.285
-371.800	-200.000	0.012	0.050
-370.785	72.991	0.145	0.149
-369.771	-200.000	-0.020	0.202
-368.756	800.000	0.119	0.386
-367.742	650.353	-0.058	0.146
-366.727	-200.000	-0.017	-0.211
-365.712	-200.000	0.043	-0.258
-364.698	595.934	-0.129	-0.315
-363.683	-200.000	-0.009	0.194
-362.669	-105.501	0.176	-0.039
-361.654	104.010	0.141	0.164
-360.639	318.656	-0.080	0.150
-359.625	-200.000	-0.044	0.348
-358.610	-75.400	0.408	-0.144
-357.596	112.296	-0.349	-0.417
-356.581	-109.922	0.142	-0.029
-355.566	-103.508	-0.178	0.041
-354.552	-68.980	0.277	-0.106
-353.537	-200.000	-0.018	-0.343
-352.523	-148.554	-0.153	0.012
-351.508	-88.146	-0.214	0.063
-350.493	-176.669	0.170	0.004
-349.479	5.505	-0.176	0.128
-348.464	55.342	0.200	0.192
-347.450	68.313	0.266	0.269
-346.435	-149.468	0.144	-0.011
-345.420	-30.702	-0.084	0.047
-344.406	-100.297	-0.353	0.087
-343.391	441.713	-0.086	0.186
-342.377	-115.314	-0.095	0.018
-341.362	-200.000	-0.039	0.229
-340.348	-148.056	-0.366	-0.030
-339.333	-46.925	0.250	-0.121
-338.318	-98.235	0.159	0.040
-337.304	264.097	0.094	0.162
-336.289	-200.000	0.038	0.233
-335.275	800.000	-0.046	0.151
-334.260	-200.000	-0.001	-0.227
-333.245	-5.829	0.064	-0.043
-332.231	-200.000	0.016	0.193
-331.216	104.900	0.252	0.293
-330.202	-50.012	0.110	0.052
-329.187	168.199	0.117	0.165
-328.172	-88.344	0.245	0.072
-327.158	800.000	0.081	-0.234
-326.143	-200.000	0.017	0.165
-325.129	-183.732	0.308	-0.005
-324.114	-200.000	-0.034	-0.272
-323.099	800.000	0.040	-0.127
-322.085	-83.760	0.065	0.020
-321.070	294.703	0.098	0.176
-320.056	-71.297	-0.096	0.035
-319.041	58.181	0.172	-0.166
-318.026	-63.760	-0.197	-0.080
-317.012	548.724	0.084	-0.198
-315.997	-200.000	0.027	0.191
-314.983	113.778	0.011	0.013
-313.968	242.399	0.035	0.057
-312.953	-63.811	-0.279	-0.113
-311.939	-200.000	0.013	-0.188
-310.924	-200.000	0.001	-0.145
-309.910	-79.447	0.077	-0.026
-308.895	-200.000	0.083	-0.402
-307.880	53.780	-0.056	-0.053
-306.866	76.271	0.245	-0.256
-305.851	800.000	0.098	0.322
-304.837	-200.000	-0.017	0.150
-303.822	255.910	-0.240	-0.407
-302.807	-20.391	0.118	0.071
-301.793	77.513	0.059	0.061
-300.778	-200.000	-0.253	0.000
-299.764	-121.067	0.259	-0.043
-298.749	-140.551	0.263	-0.027
-297.735	-24.034	-0.239	0.141
-296.720	-200.000	-0.018	-0.171
-295.705	-200.000	0.047	-0.250
-294.691	-24.952	0.085	-0.050
-293.676	41.402	-0.285	-0.254
-292.662	-104.376	-0.158	-0.036
-291.647	-81.833	0.312	-0.101
-290.632	174.629	-0.078	0.111
-289.618	-182.749	0.017	0.000
-288.603	-200.000	-0.015	-0.252
-287.589	-200.000	-0.020	0.144
-286.574	533.835	0.209	0.488
-285.559	800.000	0.161	-0.452
-284.545	-200.000	-0.037	-0.360
-283.530	3.269	-0.251	-0.180
-282.516	60.805	0.262	-0.256
-281.501	800.000	-0.077	-0.233
-280.486	20.138	0.130	-0.104
-279.472	20.933	-0.147	0.117
-278.457	12.902	-0.275	-0.209
-277.443	2.054	-0.254	0.180
-276.428	-200.000	0.001	0.290
-275.413	130.442	-0.088	-0.111
-274.399	178.765	0.239	0.344
-273.384	800.000	0.040	-0.158
-272.370	418.488	-0.104	-0.219
-271.355	-200.000	0.046	0.337
-270.340	800.000	-0.046	0.191
-269.326	-54.057	-0.182	-0.082
-268.311	752.773	-0.033	-0.089
-267.297	315.696	-0.073	0.135
-266.282	-58.067	0.281	-0.121
-265.267	55.066	0.201	-0.192
-264.253	800.000	0.048	0.193
-263.238	52.360	0.114	0.107
-262.224	-109.613	0.229	-0.047
-261.209	-200.000	-0.017	-0.364
-260.195	131.317	0.116	-0.147
-259.180	-85.980	-0.386	-0.118
-258.165	280.265	0.104	-0.184
-257.151	-136.899	0.180	-0.020
-256.136	9.051	0.141	0.105
-255.122	-200.000	0.007	0.292
-254.107	-24.736	-0.121	-0.071
-253.092	-160.727	0.091	0.005
-252.078	205.234	0.360	0.551
-251.063	-38.250	0.316	-0.165
-250.049	800.000	0.012	0.041
-249.034	62.298	-0.161	-0.158
-248.019	-79.809	0.323	0.107
-247.005	-139.569	-0.315	-0.033
-245.990	111.082	-0.138	0.164
-244.976	39.158	0.137	0.121
-243.961	-113.917	-0.399	0.076
-242.946	-81.722	-0.460	0.149
-241.932	-153.401	0.232	0.016
-240.917	-44.920	0.263	0.129
-239.903	90.071	0.183	0.202
-238.888	222.271	0.091	-0.144
-237.873	-47.061	0.278	-0.133
-236.859	110.406	0.146	-0.173
-235.844	800.000	-0.065	-0.246
-234.830	-21.548	-0.379	0.227
-233.815	101.151	0.133	-0.153
-232.800	44.914	0.134	-0.122
-231.786	-200.000	0.004	-0.086
-230.771	-200.000	-0.016	0.099
-229.757	-93.427	0.151	-0.041
-228.742	130.304	0.069	0.087
-227.727	-162.436	0.188	-0.009
-226.713	273.883	0.089	0.154
-225.698	-200.000	0.004	0.047
-224.684	153.904	0.133	-0.180
-223.669	-200.000	-0.012	0.150
-222.655	-20.711	-0.047	-0.029
-221.640	-101.297	-0.007	-0.002
-220.625	-79.678	-0.124	0.041
-219.611	419.011	-0.186	0.392
-218.596	-200.000	0.005	-0.234
-217.582	11.321	0.022	-0.017
-216.567	385.559	0.070	-0.141
-215.552	-22.418	0.176	-0.105
-214.538	212.324	0.178	0.275
-213.523	52.472	0.168	0.157
-212.509	9.932	0.166	-0.124
-211.494	-12.498	0.076	0.049
-210.479	-200.000	0.020	-0.230
-209.465	-59.672	-0.476	-0.201
-208.450	80.868	-0.259	-0.274
-207.436	-57.581	0.069	0.030
-206.421	22.690	0.480	0.386
-205.406	-5.913	-0.080	0.054
-204.392	-200.000	-0.001	0.123
-203.377	800.000	-0.031	-0.105
-202.363	88.856	0.141	-0.154
-201.348	-67.739	-0.332	0.128
-200.333	-200.000	-0.007	-0.131
-199.319	106.688	0.095	-0.111
-198.304	-114.035	0.295	-0.056
-197.290	116.875	0.216	0.261
-196.275	-200.000	-0.052	-0.282
-195.260	78.347	0.236	-0.248
-194.246	-200.000	0.002	-0.021
-193.231	800.000	0.019	0.056
-192.217	-15.446	-0.151	0.095
-191.202	57.043	-0.131	0.125
-190.187	-93.527	0.326	0.089
-189.173	298.071	0.120	0.216
-188.158	-200.000	0.009	0.199
-187.144	-118.731	-0.232	0.040
-186.129	23.928	0.117	-0.094
-185.114	36.546	-0.095	0.082
-184.100	-9.428	0.100	0.066
-183.085	14.965	0.122	-0.094
-182.071	-89.774	-0.128	-0.037
-181.056	126.826	-0.165	-0.205
-180.042	12.114	0.129	0.098
-179.027	-200.000	-0.062	0.334
-178.012	-200.000	0.044	-0.474
-176.998	-200.000	0.038	0.211
-175.983	-62.829	0.137	0.055
-174.969	800.000	0.048	-0.167
-173.954	-134.255	0.166	-0.020
-172.939	119.480	-0.039	-0.047
-171.925	-117.347	0.299	0.053
-170.910	-200.000	0.057	-0.418
-169.896	-162.205	-0.532	-0.026
-168.881	-79.977	-0.079	0.026
-167.866	-45.447	0.041	-0.020
-166.852	-34.305	-0.215	-0.116
-165.837	-149.263	0.123	-0.010
-164.823	81.407	0.032	-0.034
-163.808	670.137	0.081	0.206
-162.793	-143.947	-0.362	0.033
-161.779	-88.343	-0.185	0.054
-160.764	-200.000	-0.018	0.220
-159.750	-200.000	0.016	0.330
-158.735	36.518	0.085	-0.073
-157.720	81.327	0.125	0.133
-156.706	-161.615	0.222	0.011
-155.691	-200.000	0.037	0.251
-154.677	-79.895	-0.138	0.045
-153.662	-33.014	-0.296	0.161
-152.647	-200.000	-0.014	0.300
-151.633	629.889	-0.044	0.108
-150.618	126.953	0.175	0.218
-149.604	60.696	0.203	0.197
-148.589	-200.000	-0.005	0.113
-147.574	194.270	-0.157	0.233
-146.560	539.961	0.081	0.189
-145.545	121.305	0.064	0.078
-144.531	-200.000	0.023	0.209
-143.516	550.708	-0.034	-0.080
-142.502	277.621	0.124	0.216
-141.487	-95.710	-0.260	-0.068
-140.472	800.000	-0.094	0.291
-139.458	180.014	0.119	0.171
-138.443	-54.471	0.079	0.035
-137.429	-143.607	0.220	-0.020
-136.414	-42.674	0.086	0.043
-135.399	50.388	-0.034	-0.031
-134.385	99.596	0.231	0.262
-133.370	12.406	-0.116	0.087
-132.356	61.055	0.261	-0.254
-131.341	60.425	0.121	0.117
-130.326	-63.953	-0.286	-0.114
-129.312	-200.000	-0.028	0.255
-128.297	-93.654	-0.374	0.101
-127.283	0.283	-0.030	0.021
-126.268	-64.695	0.185	-0.074
-125.253	435.595	-0.151	0.321
-124.239	-200.000	-0.023	-0.323
-123.224	-111.074	0.154	0.031
-122.210	-200.000	0.024	-0.333
-121.195	58.108	0.126	0.121
-120.180	-101.790	-0.075	0.018
-119.166	592.990	0.047	-0.114
-118.151	-200.000	0.003	0.221
-117.137	89.558	-0.002	-0.002
-116.122	-86.970	0.127	-0.038
-115.107	59.024	-0.194	-0.187
-114.093	31.878	-0.147	-0.124
-113.078	-82.243	0.115	-0.037
-112.064	33.827	0.236	-0.201
-111.049	-76.318	-0.211	-0.073
-110.034	-200.000	-0.002	0.161
-109.020	96.112	0.122	0.136
-108.005	27.296	0.050	-0.041
-106.991	-109.337	-0.351	-0.073
-105.976	-200.000	-0.007	0.223
-104.962	800.000	0.054	0.153
-103.947	-200.000	-0.043	-0.242
-102.932	-135.568	-0.220	-0.026
-101.918	-97.272	0.475	-0.121
-100.903	-40.865	0.291	-0.148
-99.889	-21.745	-0.205	0.122
-98.874	-0.536	0.193	-0.134
-97.859	-200.000	0.064	0.410
-96.845	-165.000	-0.153	0.007
-95.830	-200.000	-0.008	-0.126
-94.816	-172.303	0.290	0.009
-93.801	-106.931	-0.386	-0.084
-92.786	-111.218	0.165	0.033
-91.772	-137.875	0.201	-0.022
-90.757	201.225	-0.226	0.341
-89.743	-48.967	-0.038	0.018
-88.728	3.472	-0.094	-0.067
-87.713	66.627	-0.100	0.100
-86.699	52.242	-0.349	-0.325
-85.684	437.307	-0.041	0.087
-84.670	617.657	0.103	0.252
-83.655	-200.000	-0.041	0.182
-82.640	-200.000	-0.022	0.217
-81.626	71.670	0.275	-0.279
-80.611	193.637	-0.034	-0.051
-79.597	58.754	0.227	-0.218
-78.582	376.029	-0.169	0.337
-77.567	109.856	0.119	0.139
-76.553	-103.756	0.090	0.021
-75.538	640.562	-0.053	0.133
-74.524	15.746	-0.142	-0.109
-73.509	-200.000	0.038	0.184
-72.494	85.450	0.235	-0.252
-71.480	240.479	0.166	0.270
-70.465	168.406	-0.146	-0.203
-69.451	-59.285	0.174	0.073
-68.436	-200.000	0.004	0.228
-67.422	64.645	-0.034	0.034
-66.407	-11.280	-0.244	-0.157
-65.392	-200.000	0.007	0.040
-64.378	-59.085	0.147	0.062
-63.363	-200.000	0.050	0.289
-62.349	-200.000	-0.015	-0.140
-61.334	-20.315	-1.189	-0.716
-60.319	63.690	0.379	0.372
-59.305	800.000	-0.325	-0.984
-58.290	563.124	0.611	1.444
-57.276	403.379	0.723	1.486
-56.261	-200.000	118.227	648.619
-55.246	487.076	1555.350	3466.836
-54.232	172.440	2732.847	3841.829
-53.217	98.512	2297.773	2588.283
-52.203	35.184	1903.381	1629.746
-51.188	29.175	1697.179	1407.385
-50.173	26.788	1656.180	1355.509
-49.159	47.206	1714.631	1559.347
-48.144	45.638	1727.684	1559.231
-47.130	28.642	1684.983	1393.002
-46.115	26.118	1670.452	1361.920
-45.100	25.871	1666.017	1356.389
-44.086	25.947	1662.925	1354.393
-43.071	25.852	1660.435	1351.598
-42.057	25.910	1657.759	1349.797
-41.042	25.845	1656.141	1347.942
-40.027	25.954	1654.020	1346.975
-39.013	25.891	1652.001	1344.807
-37.998	25.861	1650.941	1343.665
-36.984	25.884	1649.656	1342.742
-35.969	25.987	1647.854	1341.984
-34.954	26.021	1646.646	1341.203
-33.940	26.025	1644.731	1339.617
-32.925	26.017	1642.843	1337.968
-31.911	26.118	1641.016	1337.174
-30.896	26.029	1639.651	1335.352
-29.881	25.999	1638.252	1333.936
-28.867	26.102	1635.764	1332.618
-27.852	26.104	1634.667	1331.688
-26.838	26.096	1633.159	1330.346
-25.823	26.068	1631.758	1328.949
-24.809	26.033	1631.102	1328.103
-23.794	26.078	1629.183	1326.815
-22.779	26.088	1627.917	1325.810
-21.765	26.110	1626.286	1324.590
-20.750	26.034	1624.523	1322.540
-19.736	26.116	1623.228	1322.035
-18.721	26.085	1621.713	1320.524
-17.706	26.127	1620.067	1319.436
-16.692	26.108	1618.466	1317.944
-15.677	26.188	1617.047	1317.318
-14.663	26.127	1615.730	1315.746
-13.648	26.158	1614.024	1314.532
-12.633	26.118	1612.838	1313.223
-11.619	26.065	1611.347	1311.569
-10.604	26.167	1609.513	1310.769
-9.590	26.149	1608.119	1309.451
-8.575	26.105	1606.876	1308.067
-7.560	26.079	1605.961	1307.080
-6.546	26.067	1604.825	1306.017
-5.531	26.157	1603.451	1305.497
-4.517	26.055	1602.711	1304.111
-3.502	25.967	1601.799	1302.679
-2.487	26.172	1600.131	1302.753
-1.473	25.885	1587.872	1290.665
-0.458	23.194	1568.815	1256.055
0.556	21.809	1570.396	1225.468
1.571	19.485	1594.597	1227.735
2.586	19.167	1606.888	1234.807
3.600	17.321	1552.448	1180.063
4.615	10.701	1445.284	1055.600
5.629	5.043	1386.089	976.921
6.644	4.148	1378.320	965.784
7.659	4.036	1377.448	964.391
8.673	4.146	1376.687	964.457
9.688	4.269	1374.556	963.641
10.702	4.122	1371.737	960.668
11.717	6.944	1376.582	981.513
12.731	14.242	1390.123	1036.688
13.746	20.772	1400.881	1085.466
14.761	22.531	1403.266	1098.194
15.775	22.021	1400.901	1093.071
16.790	21.133	1398.565	1085.630
17.804	20.382	1396.255	1079.075
18.819	20.049	1395.450	1076.288
19.834	19.982	1394.558	1075.092
20.848	19.834	1393.610	1073.348
21.863	19.653	1392.159	1071.015
22.877	19.599	1391.474	1070.058
23.892	19.637	1390.002	1069.068
24.907	19.479	1389.686	1067.750
25.921	19.552	1388.667	1067.326
26.936	19.532	1387.641	1066.315
27.950	19.597	1386.571	1065.801
28.965	19.663	1385.694	1065.439
29.980	19.801	1385.019	1065.678
30.994	19.956	1383.511	1065.377
32.009	20.015	1382.435	1064.814
33.023	20.017	1381.223	1063.803
34.038	19.746	1380.613	1061.572
35.053	19.736	1378.629	1059.894
36.067	19.795	1377.532	1059.317
37.082	19.743	1377.129	1058.597
38.096	19.909	1376.125	1058.745
39.111	19.865	1375.146	1057.629
40.126	19.611	1374.058	1055.148
41.140	19.392	1373.598	1053.365
42.155	19.263	1372.433	1051.587
43.169	19.246	1372.320	1051.306
44.184	19.073	1372.500	1050.292
45.199	19.257	1371.696	1050.710
46.213	19.481	1371.120	1051.540
47.228	19.670	1370.965	1052.476
48.242	19.672	1369.647	1051.385
49.257	19.563	1368.236	1049.551
50.271	19.680	1367.035	1049.243
51.286	19.688	1365.191	1047.788
52.301	19.583	1364.084	1046.205
53.315	19.481	1363.141	1044.771
54.330	19.347	1361.789	1042.835
55.344	19.286	1360.514	1041.398
56.359	19.268	1359.936	1040.754
57.374	19.306	1358.502	1039.794
58.388	19.082	1357.904	1037.891
59.403	19.122	1357.401	1037.656
60.417	19.121	1356.657	1036.991
61.432	19.111	1355.460	1035.927
62.447	19.019	1354.699	1034.700
63.461	18.790	1353.837	1032.573
64.476	18.928	1352.276	1032.115
65.490	19.048	1351.120	1031.863
66.505	18.901	1349.936	1029.985
67.520	19.035	1348.713	1029.766
68.534	19.029	1347.516	1028.723
69.549	18.877	1346.771	1027.154
70.563	18.937	1345.231	1026.251
71.578	18.682	1344.770	1024.287
72.593	18.614	1343.615	1022.910
73.607	18.626	1343.152	1022.539
74.622	18.763	1342.126	1022.481
75.636	18.766	1341.427	1021.875
76.651	18.778	1340.854	1021.419
77.666	18.858	1340.585	1021.602
78.680	19.029	1340.032	1022.107
79.695	19.008	1339.360	1021.377
80.709	19.130	1338.618	1021.448
81.724	19.184	1338.126	1021.298
82.739	19.379	1336.717	1021.289
83.753	19.585	1336.405	1022.180
84.768	19.762	1335.609	1022.530
85.782	19.830	1334.651	1022.107
86.797	19.913	1333.181	1021.380
87.812	19.639	1331.795	1018.614
88.826	19.766	1330.451	1018.239
89.841	19.709	1329.948	1017.432
90.855	19.856	1328.878	1017.387
91.870	19.954	1328.357	1017.471
92.884	19.936	1327.587	1016.689
93.899	20.024	1326.990	1016.656
94.914	19.993	1326.095	1015.702
95.928	19.885	1325.449	1014.481
96.943	19.849	1324.115	1013.160
97.957	19.840	1323.398	1012.470
98.972	19.824	1322.225	1011.387
99.987	19.747	1321.481	1010.281
101.001	19.802	1320.066	1009.433
102.016	19.855	1319.161	1008.958
103.030	19.698	1319.170	1007.957
104.045	19.850	1317.666	1007.608
105.060	19.662	1316.169	1005.282
106.074	19.234	1314.655	1001.549
107.089	19.003	1312.667	998.605
108.103	18.924	1311.617	997.260
109.118	18.960	1310.330	996.399
110.133	19.082	1309.172	996.138
111.147	19.018	1307.817	994.647
112.162	19.100	1306.551	994.071
113.176	19.196	1305.329	993.607
114.191	19.273	1304.689	993.477
115.206	19.308	1303.191	992.450
116.220	19.226	1302.104	991.061
117.235	19.084	1301.362	989.592
118.249	19.156	1300.000	988.884
119.264	18.971	1298.852	986.862
120.279	19.054	1297.465	986.192
121.293	18.965	1296.160	984.605
122.308	18.727	1295.767	982.857
123.322	18.742	1294.202	981.670
124.337	18.656	1293.342	980.439
125.352	18.714	1292.247	979.854
126.366	18.670	1291.272	978.774
127.381	18.657	1290.663	978.157
128.395	18.642	1289.368	976.999
129.410	18.730	1288.135	976.481
130.424	18.942	1287.669	977.246
131.439	18.982	1287.117	976.970
132.454	19.120	1285.972	976.795
133.468	19.039	1285.470	975.867
134.483	19.123	1284.913	975.837
135.497	19.097	1283.662	974.653
136.512	19.111	1282.838	974.020
137.527	19.267	1281.002	973.421
138.541	19.267	1279.642	972.301
139.556	19.343	1278.808	972.011
140.570	19.354	1278.420	971.690
141.585	19.571	1276.708	971.525
142.600	19.583	1276.093	971.040
143.614	19.778	1275.121	971.308
144.629	19.751	1274.336	970.470
145.643	19.661	1273.514	969.257
146.658	19.560	1271.675	967.204
147.673	19.385	1270.385	965.159
148.687	19.229	1268.917	963.087
149.702	19.311	1267.376	962.288
150.716	19.165	1266.019	960.357
151.731	19.108	1265.383	959.474
152.746	19.199	1263.631	958.566
153.760	19.338	1262.860	958.671
154.775	19.420	1261.605	958.091
155.789	19.480	1261.088	957.947
156.804	19.509	1260.135	957.296
157.819	19.591	1258.825	956.671
158.833	19.709	1258.371	956.897
159.848	19.920	1257.408	957.244
160.862	19.829	1256.445	955.922
161.877	19.489	1254.946	952.824
162.892	19.266	1253.802	950.638
163.906	19.259	1252.816	949.767
164.921	19.179	1252.101	948.700
165.935	19.292	1251.310	948.639
166.950	19.499	1250.365	948.977
167.964	19.396	1249.900	947.976
168.979	19.361	1248.923	946.958
169.994	19.417	1248.254	946.673
171.008	19.411	1247.359	945.877
172.023	19.531	1246.671	945.930
173.037	19.757	1245.882	946.484
174.052	19.573	1245.168	944.856
175.067	19.434	1243.724	942.914
176.081	19.165	1242.592	940.502
177.096	19.222	1241.753	940.097
178.110	19.314	1240.864	939.841
179.125	19.334	1239.801	939.064
180.140	19.432	1238.451	938.493
181.154	19.535	1237.811	938.484
182.169	19.688	1236.036	937.886
183.183	19.753	1235.459	937.715
184.198	19.789	1233.815	936.581
185.213	19.787	1233.294	936.093
186.227	19.759	1232.687	935.397
187.242	19.905	1231.529	935.221
188.256	19.987	1230.447	934.761
189.271	20.048	1229.406	934.216
190.286	19.665	1228.183	931.143
191.300	19.418	1226.320	928.316
192.315	19.116	1226.495	926.741
193.329	19.285	1225.917	927.130
194.344	19.454	1225.055	927.309
195.359	19.492	1224.776	927.219
196.373	19.506	1224.128	926.720
197.388	19.625	1223.836	927.055
198.402	19.815	1223.764	927.937
199.417	20.013	1223.419	928.657
200.432	20.145	1222.472	928.564
201.446	20.310	1221.868	928.904
202.461	20.218	1221.199	927.823
203.475	20.348	1220.135	927.630
204.490	20.080	1218.619	924.960
205.504	19.786	1217.700	922.613
206.519	19.847	1215.833	921.445
207.534	19.698	1214.774	919.766
208.548	19.735	1213.999	919.297
209.563	19.846	1213.277	919.255
210.577	19.895	1212.046	918.505
211.592	20.053	1211.069	918.520
212.607	20.214	1210.404	918.785
213.621	20.065	1210.379	917.897
214.636	19.983	1209.093	916.404
215.650	20.140	1207.982	916.311
216.665	20.249	1207.638	916.548
217.680	20.290	1206.707	915.976
218.694	20.386	1206.122	915.958
219.709	20.311	1204.884	914.540
220.723	20.147	1204.087	912.989
221.738	20.218	1203.579	912.900
222.753	20.271	1202.301	912.126
223.767	20.214	1201.769	911.342
224.782	20.402	1201.846	912.309
225.796	20.490	1201.001	912.050
226.811	20.435	1200.237	911.098
227.826	20.227	1199.658	909.490
228.840	20.259	1198.608	908.778
229.855	20.073	1197.964	907.240
230.869	20.154	1196.761	906.673
231.884	20.083	1195.934	905.591
232.899	19.962	1195.048	904.208
233.913	20.039	1194.018	903.752
234.928	19.809	1193.767	902.280
235.942	19.808	1192.780	901.452
236.957	19.881	1191.865	901.059
237.972	19.844	1190.994	900.131
238.986	19.781	1190.484	899.337
240.001	19.954	1189.835	899.664
241.015	19.972	1188.990	899.039
242.030	20.066	1188.447	899.036
243.045	20.280	1187.308	899.204
244.059	20.139	1186.617	897.874
245.074	20.180	1186.084	897.600
246.088	20.401	1185.414	898.158
247.103	20.367	1184.735	897.390
248.117	20.509	1184.198	897.637
249.132	20.721	1183.887	898.415
250.147	20.932	1183.449	899.094
251.161	21.052	1183.053	899.330
252.176	21.088	1182.294	898.862
253.190	21.240	1181.186	898.721
254.205	21.275	1181.224	898.848
255.220	21.291	1180.480	898.288
256.234	21.181	1179.915	897.209
257.249	21.201	1178.819	896.401
258.263	21.138	1178.560	895.802
259.278	21.238	1177.325	895.295
260.293	21.061	1177.390	894.358
261.307	21.376	1176.131	894.937
262.322	21.329	1175.818	894.380
263.336	21.271	1175.529	893.782
264.351	21.264	1174.961	893.234
265.366	21.328	1174.231	892.930
266.380	21.350	1172.883	891.940
267.395	21.250	1172.277	890.888
268.409	21.083	1171.169	889.115
269.424	20.958	1170.917	888.207
270.439	21.092	1170.105	888.198
271.453	20.991	1169.224	886.934
272.468	20.869	1168.334	885.560
273.482	20.871	1167.326	884.731
274.497	20.790	1167.252	884.185
275.512	20.847	1166.214	883.608
276.526	20.842	1165.502	882.966
277.541	21.034	1164.468	883.074
278.555	20.942	1164.725	882.727
279.570	21.222	1163.654	883.253
280.585	21.346	1162.731	883.100
281.599	21.383	1161.758	882.473
282.614	21.156	1160.462	880.266
283.628	21.039	1159.304	878.719
284.643	20.987	1158.195	877.536
285.657	21.086	1157.519	877.448
286.672	21.067	1156.522	876.520
287.687	21.060	1155.648	875.741
288.701	21.062	1155.213	875.344
289.716	21.133	1154.114	874.791
290.730	21.130	1153.371	874.134
291.745	21.167	1152.987	873.951
292.760	21.168	1152.771	873.717
293.774	21.290	1152.287	873.882
294.789	21.376	1151.492	873.633
295.803	21.356	1150.709	872.862
296.818	21.166	1149.594	870.990
297.833	21.017	1149.118	869.808
298.847	21.132	1148.338	869.715
299.862	21.124	1147.507	868.968
300.876	21.142	1146.664	868.341
301.891	21.413	1146.080	869.172
302.906	21.401	1145.862	868.871
303.920	21.686	1144.762	869.371
304.935	21.629	1144.825	869.059
305.949	21.835	1144.325	869.624
306.964	21.810	1143.092	868.488
307.979	21.641	1142.398	867.046
308.993	21.511	1141.658	865.765
310.008	21.621	1140.771	865.563
311.022	21.713	1140.334	865.606
312.037	21.693	1138.699	864.193
313.052	21.458	1138.217	862.589
314.066	21.340	1136.940	860.965
315.081	21.117	1136.279	859.289
316.095	21.081	1135.517	858.458
317.110	21.186	1134.680	858.266
318.125	21.300	1133.469	857.833
319.139	21.178	1133.152	856.922
320.154	21.146	1132.610	856.279
321.168	21.101	1132.126	855.614
322.183	21.163	1131.490	855.361
323.197	21.328	1130.966	855.699
324.212	21.337	1130.614	855.402
325.227	21.308	1130.116	854.806
326.241	21.360	1129.125	854.237
327.256	21.348	1128.031	853.276
328.270	21.299	1126.916	852.114
329.285	21.294	1126.217	851.490
330.300	21.239	1125.501	850.602
331.314	21.162	1124.409	849.327
332.329	21.233	1123.198	848.681
333.343	21.272	1123.126	848.744
334.358	21.502	1122.325	849.181
335.373	21.533	1121.466	848.604
336.387	21.502	1121.312	848.260
337.402	21.644	1119.811	847.741
338.416	21.792	1119.255	847.960
339.431	21.779	1118.994	847.622
340.446	21.842	1118.479	847.463
341.460	21.993	1118.042	847.784
342.475	22.097	1117.171	847.551
343.489	22.120	1116.212	846.860
344.504	22.196	1115.604	846.689
345.519	22.210	1114.949	846.187
346.533	22.286	1113.729	845.549
347.548	22.428	1112.901	845.530
348.562	22.314	1112.389	844.520
349.577	22.049	1111.177	842.251
350.592	21.806	1110.234	840.299
351.606	21.726	1109.531	839.311
352.621	21.647	1108.629	838.175
353.635	21.546	1107.838	837.020
354.650	21.590	1107.335	836.775
355.665	21.689	1106.671	836.671
356.679	21.762	1106.101	836.516
357.694	21.825	1105.687	836.428
358.708	21.899	1105.192	836.336
359.723	22.015	1104.409	836.220
360.738	22.057	1103.304	835.509
361.752	22.023	1102.621	834.755
362.767	21.980	1102.728	834.559
363.781	22.024	1102.398	834.447
364.796	22.122	1101.528	834.180
365.810	22.366	1101.002	834.865
366.825	22.496	1100.127	834.740
367.840	22.522	1100.398	834.997
368.854	22.624	1099.780	834.935
369.869	22.627	1098.819	834.148
370.883	22.446	1097.974	832.577
371.898	22.308	1096.687	830.877
372.913	22.355	1096.202	830.654
373.927	22.346	1095.972	830.364
374.942	22.574	1095.048	830.667
375.956	22.567	1094.590	830.213
376.971	22.456	1094.198	829.321
377.986	22.643	1093.846	829.862
379.000	22.672	1093.255	829.473
380.015	22.846	1092.713	829.805
381.029	22.832	1091.888	829.043
382.044	22.882	1091.226	828.702
383.059	22.693	1090.749	827.381
384.073	22.735	1089.677	826.690
385.088	22.803	1088.619	826.130
386.102	22.676	1088.299	825.223
387.117	22.533	1086.680	823.253
388.132	22.387	1085.425	821.546
389.146	22.373	1084.583	820.770
390.161	22.226	1084.082	819.637
391.175	22.220	1083.377	819.000
392.190	22.461	1082.566	819.439
393.205	22.626	1082.003	819.706
394.219	22.588	1081.407	819.005
395.234	22.489	1080.614	817.875
396.248	22.507	1078.836	816.537
397.263	22.344	1077.952	815.040
398.278	22.282	1077.294	814.187
399.292	22.155	1076.278	812.757
400.307	22.242	1075.825	812.746
401.321	22.205	1075.284	812.094
402.336	22.179	1074.564	811.359
403.350	22.122	1073.885	810.511
404.365	22.311	1073.120	810.735
405.380	22.492	1072.422	810.968
406.394	22.560	1072.019	810.904
407.409	22.668	1071.529	810.962
408.423	22.819	1070.829	811.053
409.438	22.817	1070.442	810.679
410.453	22.932	1069.509	810.429
411.467	23.029	1068.974	810.393
412.482	23.029	1068.429	809.910
413.496	23.177	1067.874	810.093
414.511	23.112	1067.370	809.342
415.526	23.283	1067.077	809.832
416.540	23.376	1066.837	810.001
417.555	23.366	1066.053	809.289
418.569	23.231	1065.479	808.168
419.584	23.077	1064.776	806.860
420.599	23.161	1064.361	806.856
421.613	157.609	1405.076	1796.266
422.628	145.062	1454.696	1796.366
