DTS Sentinel unit serial number:	SN413079Multiplexer serial number:	ORYXHardware model number:	OX4-SRSoftware version number:	ORYX F/W v4.00 Oryx Data Collector v3.7.2.0data status	okinstallation	princeton_trtdifferential loss correction	single-endedforward channel	channel 2reverse channel	N/Adate	2019/09/14time	05:11:34forward acquisition time	60.00reverse acquisition time	0.00gamma	496.2192k internal	0.2335k external	0.2335temperature offset calibration	1.0134default loss term (dB/km)	0.3790temperature slope calibration	1.0000multiplexer offset coefficient	1.0000multiplexer slope coefficient	1.0000fibre end	0.00T internal ref (°C)	26.89T ext. ref 1 (°C)	3.39T ext. ref 2 (°C)	21.96length (m)	temperature (°C)	Stokes	anti-Stokes-747.200	-123.011	-0.399	-0.064
-746.185	800.000	-0.060	-0.182
-745.171	-1.515	0.174	0.124
-744.156	-112.459	0.507	-0.102
-743.142	37.719	-0.166	0.148
-742.127	244.961	-0.132	-0.222
-741.112	9.892	0.029	-0.022
-740.098	-137.445	0.188	-0.021
-739.083	324.610	0.153	-0.294
-738.069	-123.897	-0.171	0.027
-737.054	329.398	-0.089	0.171
-736.039	19.799	-0.045	-0.036
-735.025	735.583	0.013	0.035
-734.010	-52.501	0.035	0.016
-732.996	-159.450	-0.212	-0.012
-731.981	312.794	0.083	-0.156
-730.966	205.851	-0.212	-0.331
-729.952	-7.351	-0.157	-0.107
-728.937	-22.004	0.140	-0.086
-727.923	63.723	0.058	0.059
-726.908	183.140	-0.110	0.163
-725.894	265.302	0.064	-0.111
-724.879	202.514	0.192	-0.298
-723.864	-86.037	-0.269	-0.083
-722.850	439.398	-0.007	-0.015
-721.835	227.399	-0.085	-0.139
-720.821	-46.337	-0.378	-0.187
-719.806	-130.973	0.095	0.013
-718.791	540.230	0.067	0.161
-717.777	38.429	-0.188	-0.168
-716.762	135.210	0.267	-0.348
-715.748	-37.847	-0.222	0.119
-714.733	653.326	-0.106	-0.272
-713.718	800.000	-0.068	-0.284
-712.704	-10.152	0.130	-0.087
-711.689	24.268	0.145	-0.120
-710.675	473.415	0.079	0.178
-709.660	-114.333	0.178	0.034
-708.645	639.849	-0.037	-0.095
-707.631	601.521	0.007	0.018
-706.616	800.000	0.046	-0.131
-705.602	148.816	0.129	0.175
-704.587	161.078	-0.281	0.394
-703.572	576.425	-0.186	0.456
-702.558	63.023	-0.113	-0.114
-701.543	-176.037	0.210	0.006
-700.529	162.528	-0.264	-0.372
-699.514	353.118	-0.201	-0.399
-698.499	421.456	-0.040	0.087
-697.485	124.798	-0.143	-0.181
-696.470	-53.843	0.164	0.075
-695.456	-71.556	-0.298	-0.112
-694.441	-200.000	0.032	-0.252
-693.426	-200.000	-0.048	-0.414
-692.412	800.000	0.036	-0.112
-691.397	337.557	0.103	0.200
-690.383	-144.980	0.183	0.017
-689.368	-126.090	-0.265	-0.040
-688.354	-144.505	0.043	0.004
-687.339	80.300	0.085	-0.091
-686.324	34.672	-0.226	-0.198
-685.310	130.863	0.139	-0.179
-684.295	355.596	0.039	-0.078
-683.281	-143.935	-0.354	-0.033
-682.266	52.238	0.244	-0.234
-681.251	-200.000	-0.007	0.138
-680.237	-17.875	-0.235	0.148
-679.222	71.700	0.083	0.087
-678.208	-123.441	0.096	0.015
-677.193	270.809	-0.069	0.122
-676.178	282.280	-0.249	-0.448
-675.164	-36.553	0.201	0.108
-674.149	-71.829	-0.177	-0.066
-673.135	-81.788	-0.070	0.023
-672.120	-200.000	0.044	0.192
-671.105	-147.205	-0.171	0.015
-670.091	223.452	-0.083	0.135
-669.076	306.241	-0.158	-0.294
-668.062	277.084	0.141	-0.252
-667.047	109.439	0.219	-0.263
-666.032	-96.811	0.202	-0.053
-665.018	-176.686	0.374	0.010
-664.003	-111.318	0.335	-0.069
-662.989	-6.014	-0.101	-0.069
-661.974	-200.000	-0.011	0.129
-660.959	173.212	-0.037	0.054
-659.945	222.825	-0.070	-0.113
-658.930	539.159	0.044	-0.105
-657.916	-95.009	0.055	0.015
-656.901	-109.541	-0.365	0.077
-655.886	800.000	0.047	0.167
-654.872	-200.000	0.003	0.153
-653.857	-200.000	0.027	-0.131
-652.843	140.079	0.194	0.256
-651.828	-200.000	0.000	0.114
-650.814	-79.987	-0.094	-0.032
-649.799	83.249	-0.073	0.080
-648.784	800.000	-0.005	0.016
-647.770	-1.203	0.146	-0.104
-646.755	-85.680	-0.262	0.081
-645.741	6.404	0.101	-0.075
-644.726	718.952	-0.126	-0.335
-643.711	532.036	0.187	-0.442
-642.697	508.253	-0.083	-0.193
-641.682	-97.536	-0.395	0.103
-640.668	135.455	0.065	-0.085
-639.653	-200.000	0.002	0.170
-638.638	46.206	-0.017	-0.016
-637.624	-111.973	0.317	-0.064
-636.609	-3.623	-0.367	0.256
-635.595	636.240	-0.073	-0.185
-634.580	-55.675	-0.276	-0.124
-633.565	-200.000	-0.012	-0.215
-632.551	-67.120	0.312	-0.123
-631.536	314.618	0.161	0.303
-630.522	-200.000	0.043	0.421
-629.507	-169.211	-0.052	-0.002
-628.492	-129.120	-0.366	0.051
-627.478	-200.000	-0.063	-0.414
-626.463	6.181	-0.050	0.037
-625.449	21.870	-0.129	-0.105
-624.434	-10.357	0.133	-0.088
-623.419	-54.390	0.318	0.144
-622.405	111.844	0.034	-0.042
-621.390	563.950	-0.032	-0.077
-620.376	-7.076	0.382	0.259
-619.361	-0.633	0.318	-0.226
-618.346	49.699	-0.211	-0.199
-617.332	-200.000	-0.011	0.176
-616.317	-105.532	-0.230	0.052
-615.303	299.685	-0.058	-0.107
-614.288	-200.000	0.022	-0.211
-613.273	-26.708	0.180	0.105
-612.259	-200.000	0.036	-0.252
-611.244	217.532	-0.123	-0.196
-610.230	243.453	0.196	0.329
-609.215	800.000	-0.037	0.103
-608.201	-200.000	-0.011	-0.113
-607.186	-200.000	-0.009	-0.294
-606.171	658.395	0.109	0.281
-605.157	-143.983	-0.447	0.042
-604.142	-185.563	0.043	-0.001
-603.128	-68.341	-0.333	0.129
-602.113	248.284	0.187	0.317
-601.098	800.000	0.005	0.018
-600.084	212.750	-0.232	-0.365
-599.069	800.000	-0.068	0.267
-598.055	412.111	0.129	0.274
-597.040	-200.000	0.249	0.001
-596.025	-135.337	-0.457	-0.055
-595.011	-26.652	-0.135	-0.079
-593.996	91.436	0.045	-0.051
-592.982	-106.461	-0.161	0.036
-591.967	568.444	0.138	0.336
-590.952	27.153	0.049	0.041
-589.938	-200.000	0.030	0.339
-588.923	-37.940	0.403	-0.214
-587.909	206.284	0.050	0.078
-586.894	-139.843	-0.313	0.033
-585.879	141.144	0.248	0.327
-584.865	-41.281	-0.062	-0.032
-583.850	-127.156	-0.145	-0.021
-582.836	-67.331	0.223	-0.087
-581.821	-136.797	-0.071	-0.008
-580.806	410.869	-0.014	0.030
-579.792	40.779	0.205	-0.185
-578.777	12.233	-0.311	-0.239
-577.763	-79.733	0.099	-0.033
-576.748	167.133	-0.061	0.086
-575.733	-200.000	-0.017	-0.095
-574.719	-200.000	0.012	0.192
-573.704	800.000	0.025	0.096
-572.690	800.000	0.057	-0.163
-571.675	-200.000	-0.032	-0.345
-570.661	-65.430	-0.416	0.167
-569.646	545.991	0.045	0.108
-568.631	48.905	-0.125	-0.117
-567.617	-111.814	0.221	-0.045
-566.602	-158.021	-0.126	0.007
-565.588	-26.844	-0.094	0.055
-564.573	-131.369	-0.221	0.029
-563.558	756.121	0.106	-0.286
-562.544	-200.000	0.073	0.332
-561.529	24.277	-0.243	-0.201
-560.515	-14.484	0.310	0.199
-559.500	61.420	0.066	0.065
-558.485	-200.000	-0.019	0.501
-557.471	-200.000	-0.004	-0.358
-556.456	-126.275	0.233	-0.035
-555.442	-200.000	0.009	-0.153
-554.427	40.990	-0.145	-0.131
-553.412	-200.000	-0.018	-0.358
-552.398	-200.000	-0.026	0.319
-551.383	-200.000	-0.021	0.173
-550.369	619.394	-0.093	-0.234
-549.354	323.547	-0.134	-0.255
-548.339	-117.543	0.371	0.067
-547.325	-200.000	0.008	-0.090
-546.310	-162.174	-0.152	0.008
-545.296	-44.289	0.268	0.134
-544.281	26.370	0.107	0.089
-543.266	707.787	0.051	-0.134
-542.252	253.119	0.041	-0.070
-541.237	16.725	0.176	0.139
-540.223	-200.000	-0.042	-0.231
-539.208	-200.000	0.028	-0.229
-538.193	394.265	0.046	-0.095
-537.179	800.000	-0.109	0.306
-536.164	-200.000	0.065	-0.390
-535.150	800.000	0.037	-0.155
-534.135	104.100	0.061	0.071
-533.121	243.393	-0.161	-0.269
-532.106	-117.737	0.219	0.039
-531.091	-79.170	0.027	0.009
-530.077	-73.111	-0.275	-0.100
-529.062	137.914	-0.034	-0.045
-528.048	-200.000	-0.014	0.340
-527.033	-200.000	-0.040	-0.206
-526.018	-30.916	0.324	0.182
-525.004	-78.479	0.287	0.098
-523.989	17.180	0.118	0.094
-522.975	-84.537	0.363	0.114
-521.960	-68.167	-0.123	0.048
-520.945	-200.000	0.033	0.217
-519.931	-62.535	0.246	0.102
-518.916	41.873	-0.194	-0.175
-517.902	-103.857	0.182	0.042
-516.887	800.000	-0.052	0.175
-515.872	-11.361	-0.425	0.279
-514.858	-37.346	0.328	-0.174
-513.843	-200.000	0.033	-0.246
-512.829	-200.000	-0.057	-0.430
-511.814	42.531	0.388	-0.351
-510.799	-12.521	0.096	-0.062
-509.785	-118.817	-0.431	0.075
-508.770	20.642	0.206	0.166
-507.756	23.232	0.214	0.175
-506.741	717.412	0.089	0.234
-505.726	34.362	0.127	0.110
-504.712	251.779	0.100	-0.170
-503.697	517.517	-0.028	0.065
-502.683	-61.839	-0.304	-0.127
-501.668	154.666	0.155	0.212
-500.653	77.519	-0.067	0.071
-499.639	-158.220	-0.209	0.012
-498.624	123.549	-0.104	-0.130
-497.610	-200.000	-0.030	-0.178
-496.595	-72.731	0.268	-0.098
-495.581	16.010	0.219	-0.171
-494.566	-23.343	-0.140	-0.084
-493.551	-200.000	-0.010	-0.102
-492.537	-79.368	-0.175	-0.059
-491.522	-95.289	-0.385	0.103
-490.508	-93.604	-0.132	0.036
-489.493	667.442	-0.105	-0.271
-488.478	396.808	-0.115	-0.239
-487.464	161.542	0.144	0.200
-486.449	-104.597	-0.178	0.041
-485.435	304.757	0.049	0.090
-484.420	800.000	0.059	-0.243
-483.405	-200.000	0.067	-0.301
-482.391	219.212	-0.089	-0.142
-481.376	-53.265	-0.269	-0.123
-480.362	-105.741	0.438	-0.099
-479.347	-200.000	-0.013	0.214
-478.332	-133.597	-0.233	0.029
-477.318	-25.280	-0.305	-0.180
-476.303	-181.754	-0.065	-0.001
-475.289	-80.466	-0.097	0.032
-474.274	-200.000	-0.003	-0.212
-473.259	-200.000	0.035	-0.246
-472.245	48.849	0.241	-0.225
-471.230	-92.708	-0.288	-0.080
-470.216	244.283	-0.163	0.271
-469.201	800.000	0.071	0.201
-468.186	219.346	0.183	-0.291
-467.172	57.660	0.066	0.064
-466.157	-10.001	-0.312	0.206
-465.143	-200.000	0.057	0.267
-464.128	160.886	-0.124	0.172
-463.113	-200.000	0.056	0.249
-462.099	212.206	-0.218	0.341
-461.084	-75.484	0.113	0.040
-460.070	381.149	0.016	0.032
-459.055	-19.638	-0.036	0.022
-458.040	800.000	-0.091	-0.332
-457.026	135.847	0.159	0.206
-456.011	-178.842	0.096	0.002
-454.997	95.109	-0.245	-0.278
-453.982	800.000	-0.022	0.084
-452.968	-40.840	0.439	-0.226
-451.953	-42.475	0.195	0.099
-450.938	-128.031	0.288	0.041
-449.924	134.578	-0.082	-0.106
-448.909	-21.030	-0.174	-0.106
-447.895	-128.664	-0.241	0.034
-446.880	-139.759	-0.228	-0.024
-445.865	68.289	-0.115	-0.117
-444.851	424.990	-0.110	0.235
-443.836	252.453	0.124	0.210
-442.822	704.798	-0.054	0.141
-441.807	472.598	0.068	0.153
-440.792	-71.620	-0.048	0.018
-439.778	-200.000	0.011	0.078
-438.763	-200.000	-0.015	0.104
-437.749	800.000	-0.058	-0.165
-436.734	80.812	0.179	-0.191
-435.719	124.595	-0.104	0.130
-434.705	-34.023	0.064	0.035
-433.690	-9.230	0.101	-0.067
-432.676	-88.684	-0.214	0.063
-431.661	-125.838	-0.106	-0.016
-430.646	800.000	0.003	-0.010
-429.632	21.299	0.276	-0.223
-428.617	373.059	0.032	0.065
-427.603	-68.389	0.407	0.157
-426.588	121.223	0.241	0.297
-425.573	34.036	0.237	0.205
-424.559	88.656	0.107	-0.118
-423.544	-17.947	0.230	-0.143
-422.530	-142.116	-0.164	-0.016
-421.515	-200.000	0.014	-0.304
-420.500	-96.947	-0.115	-0.030
-419.486	317.320	0.101	-0.189
-418.471	-109.500	0.126	0.026
-417.457	-88.765	0.207	-0.061
-416.442	-47.238	0.266	-0.129
-415.428	276.746	-0.169	0.298
-414.413	11.251	-0.154	-0.117
-413.398	-47.974	-0.114	-0.055
-412.384	-46.759	-0.223	-0.108
-411.369	-200.000	0.018	0.115
-410.355	67.670	0.116	0.117
-409.340	172.087	0.198	-0.282
-408.325	-112.036	0.334	-0.067
-407.311	-70.131	-0.380	0.143
-406.296	-200.000	0.024	-0.313
-405.282	-151.480	0.322	0.024
-404.267	-200.000	0.018	-0.092
-403.252	-200.000	-0.013	-0.141
-402.238	-27.227	-0.092	-0.053
-401.223	-145.917	-0.095	0.008
-400.209	1.539	-0.376	-0.268
-399.194	9.073	-0.224	-0.168
-398.179	229.980	-0.102	-0.166
-397.165	-120.492	-0.140	-0.024
-396.150	-13.725	-0.042	0.027
-395.136	7.565	-0.070	0.052
-394.121	-90.047	0.171	-0.050
-393.106	-200.000	-0.055	0.406
-392.092	135.701	-0.106	0.137
-391.077	-38.548	0.053	0.028
-390.063	-26.420	0.122	0.071
-389.048	-72.575	0.171	0.063
-388.033	800.000	0.075	-0.236
-387.019	800.000	0.051	0.148
-386.004	-86.717	-0.273	-0.083
-384.990	-86.362	-0.340	0.104
-383.975	256.305	0.082	0.139
-382.960	-200.000	-0.033	0.482
-381.946	800.000	0.050	-0.171
-380.931	-96.704	-0.150	0.039
-379.917	-200.000	0.035	0.252
-378.902	80.764	0.062	0.066
-377.888	-138.113	0.286	-0.031
-376.873	-200.000	-0.002	0.038
-375.858	800.000	-0.128	0.353
-374.844	70.800	-0.306	-0.314
-373.829	-155.460	0.294	-0.019
-372.815	800.000	-0.082	0.268
-371.800	-200.000	0.022	-0.223
-370.785	-191.234	-0.199	0.002
-369.771	62.891	-0.057	-0.057
-368.756	714.559	-0.173	-0.454
-367.742	-110.649	-0.277	-0.057
-366.727	-36.055	0.122	-0.065
-365.712	800.000	0.084	-0.234
-364.698	-200.000	-0.031	0.156
-363.683	800.000	-0.038	0.106
-362.669	-200.000	-0.005	-0.124
-361.654	94.772	0.136	-0.153
-360.639	6.656	-0.311	0.229
-359.625	154.591	-0.144	0.196
-358.610	800.000	0.035	0.122
-357.596	-9.149	-0.385	-0.255
-356.581	0.845	0.099	0.070
-355.566	50.619	0.242	0.227
-354.552	764.427	-0.056	0.151
-353.537	762.584	-0.017	-0.046
-352.523	129.687	-0.018	-0.023
-351.508	53.874	0.138	-0.131
-350.493	-89.756	0.409	-0.119
-349.479	-52.701	0.228	0.104
-348.464	800.000	0.015	0.046
-347.450	-98.352	0.306	0.078
-346.435	-200.000	0.003	-0.209
-345.420	-200.000	-0.039	0.244
-344.406	-123.342	0.310	-0.049
-343.391	-200.000	-0.013	0.128
-342.377	-83.252	-0.161	-0.051
-341.362	522.386	0.180	0.417
-340.348	651.723	0.034	-0.087
-339.333	-92.946	-0.435	-0.120
-338.318	666.127	0.133	-0.339
-337.304	-58.337	0.236	0.102
-336.289	5.429	0.217	-0.159
-335.275	-55.505	-0.358	0.159
-334.260	-200.000	0.016	-0.134
-333.245	-194.957	-0.060	0.000
-332.231	-43.912	-0.282	-0.140
-331.216	128.634	-0.190	0.239
-330.202	-200.000	0.007	0.275
-329.187	-145.719	0.150	0.013
-328.172	430.364	-0.041	0.088
-327.158	20.250	-0.139	-0.111
-326.143	800.000	0.065	-0.229
-325.129	-200.000	-0.007	-0.089
-324.114	-55.071	0.363	0.162
-323.099	800.000	0.054	0.226
-322.085	-105.103	0.182	-0.041
-321.070	-109.498	0.260	-0.054
-320.056	-71.391	-0.144	-0.053
-319.041	-40.979	-0.237	0.121
-318.026	274.468	-0.248	0.435
-317.012	-168.468	-0.079	0.003
-315.997	800.000	0.042	0.171
-314.983	223.525	-0.062	0.099
-313.968	-113.288	-0.242	-0.047
-312.953	44.412	-0.103	-0.094
-311.939	-83.618	-0.314	-0.099
-310.924	800.000	-0.062	0.247
-309.910	9.915	-0.043	0.033
-308.895	-200.000	0.030	-0.328
-307.880	52.923	-0.319	0.301
-306.866	119.665	0.052	0.064
-305.851	-131.871	0.303	-0.039
-304.837	53.934	-0.057	-0.054
-303.822	800.000	0.060	-0.190
-302.807	286.601	-0.038	0.068
-301.793	800.000	0.127	-0.416
-300.778	-200.000	-0.089	-0.434
-299.764	204.082	0.085	-0.130
-298.749	-200.000	0.055	-0.381
-297.735	-182.869	-0.156	0.003
-296.720	-67.294	-0.216	0.084
-295.705	-74.172	0.146	0.052
-294.691	235.303	0.176	-0.287
-293.676	398.525	-0.051	0.106
-292.662	262.938	0.179	-0.307
-291.647	100.732	-0.058	-0.066
-290.632	-200.000	0.006	0.189
-289.618	5.478	0.283	0.206
-288.603	174.401	-0.282	0.403
-287.589	800.000	0.127	0.405
-286.574	-84.221	0.112	0.035
-285.559	15.310	-0.104	-0.081
-284.545	370.419	-0.066	-0.133
-283.530	-128.371	-0.248	0.035
-282.516	324.555	0.106	0.200
-281.501	-200.000	-0.110	0.639
-280.486	-200.000	0.015	0.203
-279.472	-66.719	-0.204	0.080
-278.457	800.000	0.077	0.213
-277.443	-104.509	0.348	0.079
-276.428	6.568	0.107	0.078
-275.413	225.508	-0.057	0.091
-274.399	246.087	0.095	-0.158
-273.384	516.022	0.032	0.074
-272.370	-62.450	-0.318	-0.130
-271.355	17.758	0.444	-0.348
-270.340	23.585	0.079	-0.064
-269.326	800.000	0.059	0.191
-268.311	-200.000	-0.038	0.171
-267.297	800.000	-0.065	0.225
-266.282	616.145	-0.106	0.262
-265.267	-200.000	-0.013	0.073
-264.253	-200.000	-0.045	0.218
-263.238	184.938	0.077	-0.113
-262.224	-200.000	0.000	0.122
-261.209	-0.702	-0.198	0.139
-260.195	-200.000	-0.020	0.175
-259.180	166.126	0.156	-0.218
-258.165	-47.734	0.123	0.059
-257.151	40.170	0.130	0.115
-256.136	649.495	-0.182	0.459
-255.122	89.052	0.216	-0.237
-254.107	-48.066	-0.252	0.120
-253.092	800.000	-0.183	0.559
-252.078	351.590	-0.080	-0.156
-251.063	24.675	-0.267	0.218
-250.049	287.452	-0.147	0.262
-249.034	-200.000	-0.043	0.249
-248.019	800.000	-0.148	-0.486
-247.005	800.000	-0.005	-0.014
-245.990	-14.202	-0.131	0.083
-244.976	84.564	0.153	-0.165
-243.961	-125.910	-0.469	0.070
-242.946	-78.952	-0.178	-0.060
-241.932	220.106	0.158	-0.250
-240.917	-156.767	0.396	-0.024
-239.903	800.000	0.138	0.493
-238.888	586.626	0.109	0.264
-237.873	53.825	0.076	0.072
-236.859	-115.328	-0.387	-0.072
-235.844	-47.770	0.381	-0.182
-234.830	-200.000	0.037	-0.199
-233.815	800.000	0.053	-0.228
-232.800	234.997	0.149	0.242
-231.786	141.119	0.156	-0.203
-230.771	-200.000	0.070	0.339
-229.757	-200.000	-0.001	-0.041
-228.742	127.420	0.207	0.259
-227.727	-50.755	0.046	-0.021
-226.713	-63.818	-0.059	-0.024
-225.698	213.081	-0.094	0.147
-224.684	563.798	-0.119	-0.283
-223.669	800.000	-0.086	0.257
-222.655	100.119	-0.005	0.006
-221.640	141.366	0.113	0.148
-220.625	-68.334	0.060	0.023
-219.611	98.056	-0.168	-0.190
-218.596	-45.483	0.161	-0.078
-217.582	194.195	0.131	0.196
-216.567	-108.095	-0.253	0.054
-215.552	-200.000	-0.010	-0.128
-214.538	118.712	-0.237	0.288
-213.523	125.640	0.228	-0.284
-212.509	-200.000	-0.012	0.103
-211.494	11.275	0.109	-0.082
-210.479	130.824	0.106	-0.134
-209.465	421.018	-0.050	-0.106
-208.450	-156.582	0.094	0.006
-207.436	327.473	-0.170	-0.320
-206.421	-112.703	0.219	0.043
-205.406	-200.000	-0.003	0.091
-204.392	-115.146	-0.329	0.061
-203.377	314.105	0.041	0.076
-202.363	-200.000	0.023	0.376
-201.348	21.367	0.042	-0.034
-200.333	-139.959	0.140	-0.015
-199.319	-131.181	-0.119	0.016
-198.304	-89.931	-0.242	0.070
-197.290	-144.348	0.206	-0.019
-196.275	337.368	-0.146	0.280
-195.260	800.000	0.056	-0.231
-194.246	-45.890	0.198	0.096
-193.231	75.290	-0.038	-0.039
-192.217	718.470	-0.150	-0.392
-191.202	-146.109	0.118	0.010
-190.187	300.148	0.133	-0.242
-189.173	800.000	0.105	-0.340
-188.158	-194.387	-0.007	0.000
-187.144	800.000	0.092	0.265
-186.129	469.456	-0.067	-0.147
-185.114	-36.133	0.183	-0.097
-184.100	-147.050	-0.128	-0.011
-183.085	537.696	0.136	0.319
-182.071	-33.941	-0.103	0.056
-181.056	-35.675	-0.089	-0.047
-180.042	2.084	0.142	0.101
-179.027	-17.829	0.286	0.176
-178.012	296.963	0.202	0.365
-176.998	-141.618	-0.162	0.016
-175.983	15.802	-0.137	0.106
-174.969	128.452	-0.051	0.064
-173.954	-200.000	-0.008	-0.293
-172.939	-39.611	0.203	-0.104
-171.925	800.000	-0.102	-0.300
-170.910	-23.243	-0.193	0.114
-169.896	-200.000	0.008	0.136
-168.881	190.236	0.114	0.168
-167.866	-200.000	-0.016	-0.244
-166.852	119.789	0.201	-0.244
-165.837	-19.688	-0.275	-0.167
-164.823	-39.891	0.232	-0.119
-163.808	107.912	0.048	0.056
-162.793	249.411	-0.064	0.106
-161.779	91.473	0.219	-0.242
-160.764	58.260	-0.186	-0.179
-159.750	-87.578	0.232	0.069
-158.735	-75.349	-0.224	-0.078
-157.720	-27.410	0.249	-0.142
-156.706	-94.736	-0.110	-0.029
-155.691	800.000	0.079	0.221
-154.677	277.357	0.048	0.083
-153.662	-200.000	-0.035	-0.413
-152.647	800.000	0.125	-0.488
-151.633	-15.889	-0.424	-0.265
-150.618	34.781	0.151	0.129
-149.604	-126.767	-0.389	-0.056
-148.589	-111.643	-0.152	0.030
-147.574	23.407	0.076	-0.061
-146.560	-200.000	0.062	0.278
-145.545	-104.714	0.265	-0.060
-144.531	800.000	0.014	-0.046
-143.516	255.133	-0.108	0.181
-142.502	-106.429	-0.085	-0.019
-141.487	12.928	0.124	0.094
-140.472	-39.386	0.097	-0.050
-139.458	364.658	0.077	-0.153
-138.443	8.340	-0.232	0.171
-137.429	169.111	-0.282	0.395
-136.414	-167.803	0.426	0.016
-135.399	212.229	0.131	0.203
-134.385	434.842	-0.164	0.350
-133.370	-22.261	-0.337	0.201
-132.356	22.097	0.131	0.105
-131.341	427.445	0.132	0.279
-130.326	-34.743	0.272	-0.146
-129.312	314.944	-0.055	-0.102
-128.297	104.009	-0.074	0.086
-127.283	-99.087	-0.079	0.020
-126.268	378.133	0.117	0.235
-125.253	-200.000	-0.077	-0.342
-124.239	-63.242	0.407	0.164
-123.224	-130.183	0.196	-0.026
-122.210	-105.775	0.045	0.010
-121.195	-107.477	0.213	-0.046
-120.180	800.000	-0.091	0.261
-119.166	-200.000	-0.039	0.201
-118.151	-200.000	0.017	-0.361
-117.137	119.461	0.053	-0.064
-116.122	-20.970	-0.143	-0.086
-115.107	524.758	-0.096	-0.221
-114.093	-35.527	0.035	-0.019
-113.078	-119.009	0.195	-0.033
-112.064	-112.021	-0.155	0.031
-111.049	86.410	-0.099	0.107
-110.034	-85.618	-0.054	-0.017
-109.020	168.294	0.111	0.155
-108.005	-200.000	0.003	-0.099
-106.991	-118.227	-0.473	-0.083
-105.976	252.171	-0.265	0.443
-104.962	225.682	-0.118	0.188
-103.947	342.538	0.179	0.344
-102.932	-98.384	0.364	0.091
-101.918	-138.469	0.201	0.022
-100.903	120.081	-0.236	-0.286
-99.889	562.248	-0.100	0.237
-98.874	-200.000	0.005	-0.042
-97.859	-200.000	0.041	0.191
-96.845	-123.560	-0.180	-0.028
-95.830	69.522	-0.194	0.196
-94.816	-90.405	-0.488	0.139
-93.801	-179.443	-0.186	0.004
-92.786	117.636	0.131	0.158
-91.772	-200.000	-0.008	-0.217
-90.757	-71.729	0.299	-0.109
-89.743	-200.000	0.012	-0.097
-88.728	-131.985	0.047	0.006
-87.713	-200.000	0.017	-0.268
-86.699	263.206	0.100	0.170
-85.684	-200.000	0.003	-0.032
-84.670	-200.000	-0.040	-0.336
-83.655	534.317	0.028	0.064
-82.640	87.332	0.145	0.157
-81.626	329.257	-0.040	0.075
-80.611	67.609	0.230	-0.230
-79.597	-200.000	0.016	0.189
-78.582	-154.080	-0.171	0.011
-77.567	20.119	0.171	0.135
-76.553	256.434	0.077	0.130
-75.538	-200.000	-0.008	0.141
-74.524	-200.000	0.011	0.162
-73.509	800.000	-0.033	0.097
-72.494	-117.406	0.273	-0.048
-71.480	-96.375	0.129	-0.033
-70.465	110.255	0.092	-0.108
-69.451	19.132	-0.153	0.120
-68.436	727.526	0.037	-0.097
-67.422	-6.450	0.104	0.069
-66.407	115.467	0.146	-0.175
-65.392	-200.000	0.037	-0.225
-64.378	73.324	0.151	-0.154
-63.363	-87.116	0.080	-0.024
-62.349	172.765	0.042	-0.059
-61.334	168.035	-0.719	-1.002
-60.319	-5.168	0.383	0.258
-59.305	800.000	-0.273	-0.770
-58.290	800.000	0.483	1.428
-57.276	800.000	0.532	1.545
-56.261	-200.000	116.071	661.919
-55.246	531.854	1531.933	3544.766
-54.232	174.751	2715.369	3843.448
-53.217	102.006	2302.403	2628.816
-52.203	36.307	1906.840	1644.064
-51.188	30.027	1696.070	1414.510
-50.173	27.564	1654.353	1361.289
-49.159	49.680	1710.722	1576.088
-48.144	47.801	1724.759	1574.725
-47.130	29.581	1682.079	1399.242
-46.115	26.930	1667.518	1367.130
-45.100	26.810	1662.307	1361.906
-44.086	26.740	1660.068	1359.488
-43.071	26.807	1657.224	1357.613
-42.057	26.695	1655.151	1355.019
-41.042	26.703	1653.657	1353.803
-40.027	26.725	1651.232	1351.925
-39.013	26.748	1649.279	1350.446
-37.998	26.765	1647.935	1349.424
-36.984	26.745	1646.065	1347.684
-35.969	26.797	1644.915	1347.079
-34.954	26.882	1643.416	1346.425
-33.940	26.913	1641.124	1344.726
-32.925	26.838	1639.647	1342.908
-31.911	26.857	1637.979	1341.630
-30.896	26.881	1635.842	1340.004
-29.881	26.830	1634.517	1338.490
-28.867	26.885	1632.550	1337.231
-27.852	26.877	1631.221	1336.030
-26.838	26.884	1629.408	1334.543
-25.823	27.007	1628.414	1334.576
-24.809	26.942	1627.361	1333.185
-23.794	26.846	1626.030	1331.336
-22.779	26.914	1624.264	1330.334
-21.765	26.835	1622.869	1328.566
-20.750	26.797	1621.375	1327.005
-19.736	26.903	1619.869	1326.499
-18.721	26.988	1617.946	1325.492
-17.706	26.965	1617.286	1324.733
-16.692	26.910	1615.302	1322.653
-15.677	26.942	1613.422	1321.297
-14.663	27.033	1612.511	1321.160
-13.648	27.033	1611.083	1319.935
-12.633	26.927	1610.053	1318.269
-11.619	26.856	1608.210	1316.193
-10.604	26.900	1606.917	1315.403
-9.590	26.979	1605.411	1314.690
-8.575	26.999	1604.035	1313.651
-7.560	26.917	1603.100	1312.241
-6.546	26.923	1601.852	1311.216
-5.531	27.007	1600.167	1310.385
-4.517	26.878	1599.692	1309.013
-3.502	26.818	1598.797	1307.797
-2.487	26.945	1596.973	1307.170
-1.473	26.653	1585.413	1295.567
-0.458	23.947	1565.683	1260.250
0.556	21.568	1567.241	1229.966
1.571	19.237	1591.929	1232.573
2.586	18.833	1604.091	1238.971
3.600	16.617	1548.652	1180.596
4.615	9.872	1440.143	1053.879
5.629	4.278	1381.487	975.754
6.644	3.445	1374.255	965.344
7.659	3.355	1373.480	964.156
8.673	3.351	1372.668	963.470
9.688	3.409	1370.480	962.215
10.702	3.344	1367.585	959.694
11.717	5.962	1372.056	979.086
12.731	13.111	1385.480	1033.457
13.746	19.191	1394.919	1078.601
14.761	20.362	1396.232	1086.855
15.775	19.816	1393.683	1081.364
16.790	18.797	1391.144	1072.935
17.804	17.952	1388.884	1065.828
18.819	17.613	1387.826	1062.807
19.834	17.425	1386.592	1060.597
20.848	17.265	1386.083	1059.113
21.863	16.964	1384.696	1056.091
22.877	16.865	1383.503	1054.472
23.892	16.854	1382.423	1053.483
24.907	16.822	1381.321	1052.355
25.921	16.879	1380.795	1052.211
26.936	16.883	1379.913	1051.470
27.950	16.972	1378.704	1051.011
28.965	16.981	1377.798	1050.280
29.980	17.179	1376.471	1050.401
30.994	17.216	1375.323	1049.661
32.009	17.233	1374.224	1048.837
33.023	17.206	1373.187	1047.784
34.038	17.013	1372.040	1045.626
35.053	17.017	1370.464	1044.359
36.067	17.027	1369.600	1043.667
37.082	17.091	1368.632	1043.230
38.096	17.129	1367.616	1042.597
39.111	17.042	1367.107	1041.583
40.126	16.952	1366.514	1040.491
41.140	16.740	1365.302	1038.172
42.155	16.673	1364.893	1037.359
43.169	16.643	1364.408	1036.714
44.184	16.731	1364.051	1036.889
45.199	16.652	1363.246	1035.706
46.213	16.771	1362.929	1036.099
47.228	16.942	1362.079	1036.408
48.242	16.886	1361.261	1035.354
49.257	16.941	1359.390	1034.175
50.271	16.899	1358.546	1033.181
51.286	17.042	1356.644	1032.515
52.301	16.888	1355.502	1030.617
53.315	16.819	1354.396	1029.269
54.330	16.796	1353.113	1028.061
55.344	16.822	1352.112	1027.367
56.359	16.676	1351.106	1025.627
57.374	16.817	1350.210	1025.709
58.388	16.765	1348.769	1024.208
59.403	16.753	1348.860	1024.118
60.417	16.684	1348.148	1023.066
61.432	16.650	1347.155	1022.019
62.447	16.594	1346.451	1021.058
63.461	16.551	1344.807	1019.457
64.476	16.458	1343.967	1018.175
65.490	16.471	1342.932	1017.380
66.505	16.543	1341.562	1016.683
67.520	16.563	1340.109	1015.609
68.534	16.611	1339.192	1015.116
69.549	16.567	1338.310	1014.093
70.563	16.508	1337.173	1012.788
71.578	16.457	1335.624	1011.220
72.593	16.386	1335.147	1010.344
73.607	16.376	1333.981	1009.315
74.622	16.353	1333.284	1008.562
75.636	16.423	1332.575	1008.351
76.651	16.486	1332.258	1008.399
77.666	16.514	1331.571	1007.954
78.680	16.561	1330.924	1007.657
79.695	16.611	1330.528	1007.564
80.709	16.588	1329.859	1006.830
81.724	16.675	1328.911	1006.542
82.739	16.797	1328.015	1006.497
83.753	16.899	1327.304	1006.479
84.768	17.001	1326.095	1006.080
85.782	16.992	1325.205	1005.259
86.797	16.902	1324.049	1003.759
87.812	16.977	1322.753	1003.134
88.826	16.921	1321.411	1001.698
89.841	17.002	1320.443	1001.351
90.855	17.015	1319.430	1000.572
91.870	17.016	1318.343	999.666
92.884	17.051	1318.052	999.563
93.899	17.115	1317.414	999.365
94.914	17.103	1316.661	998.637
95.928	17.191	1315.525	998.202
96.943	17.126	1314.501	996.955
97.957	16.902	1313.710	994.956
98.972	16.999	1312.916	994.831
99.987	17.148	1311.280	994.380
101.001	17.025	1310.428	992.924
102.016	17.158	1308.982	992.519
103.030	17.099	1308.469	991.696
104.045	17.022	1308.011	990.812
105.060	17.204	1305.752	990.075
106.074	16.749	1304.932	986.713
107.089	16.642	1302.930	984.489
108.103	16.538	1302.044	983.128
109.118	16.560	1301.042	982.414
110.133	16.710	1299.068	981.705
111.147	16.596	1298.315	980.392
112.162	16.633	1296.635	979.246
113.176	16.647	1296.021	978.778
114.191	16.771	1295.109	978.721
115.206	16.758	1293.951	977.683
116.220	16.731	1292.347	976.229
117.235	16.745	1291.179	975.339
118.249	16.675	1290.767	974.538
119.264	16.635	1289.212	973.049
120.279	16.626	1288.106	972.080
121.293	16.571	1286.923	970.785
122.308	16.553	1285.834	969.774
123.322	16.384	1285.127	968.185
124.337	16.424	1283.958	967.446
125.352	16.442	1283.025	966.761
126.366	16.464	1281.741	965.837
127.381	16.440	1280.577	964.737
128.395	16.465	1279.464	963.954
129.410	16.527	1278.381	963.408
130.424	16.537	1277.710	962.874
131.439	16.575	1276.688	962.232
132.454	16.707	1275.789	962.218
133.468	16.730	1274.927	961.617
134.483	16.629	1274.640	960.743
135.497	16.744	1273.333	960.323
136.512	16.715	1271.826	958.937
137.527	16.654	1270.836	957.763
138.541	16.712	1269.102	956.696
139.556	16.957	1267.591	956.855
140.570	16.928	1266.976	956.143
141.585	16.971	1265.453	955.153
142.600	16.989	1264.822	954.692
143.614	16.994	1263.893	953.937
144.629	17.047	1263.032	953.500
145.643	17.070	1261.443	952.341
146.658	17.093	1259.727	951.092
147.673	16.906	1258.855	949.301
148.687	16.749	1258.305	947.926
149.702	16.744	1256.575	946.511
150.716	16.673	1255.456	945.190
151.731	16.684	1253.865	943.968
152.746	16.801	1252.866	943.785
153.760	16.899	1251.876	943.502
154.775	16.884	1250.873	942.578
155.789	16.859	1250.367	941.973
156.804	16.866	1249.061	940.947
157.819	17.118	1247.638	941.186
158.833	17.144	1246.967	940.741
159.848	17.192	1246.427	940.516
160.862	17.221	1245.352	939.782
161.877	17.064	1244.002	937.816
162.892	16.824	1243.233	935.823
163.906	16.898	1241.310	934.704
164.921	16.822	1241.184	934.104
165.935	16.915	1239.982	933.633
166.950	16.883	1239.679	933.144
167.964	17.016	1238.242	932.710
168.979	16.940	1237.686	931.791
169.994	16.957	1237.058	931.328
171.008	17.012	1236.535	931.158
172.023	17.095	1235.569	930.802
173.037	17.239	1235.001	931.079
174.052	17.211	1233.788	929.929
175.067	17.104	1232.574	928.350
176.081	16.905	1231.746	926.556
177.096	16.858	1230.878	925.563
178.110	16.934	1229.805	925.090
179.125	16.917	1228.438	923.883
180.140	16.971	1227.592	923.462
181.154	17.010	1226.169	922.521
182.169	17.082	1225.174	922.080
183.183	17.173	1224.020	921.629
184.198	17.358	1222.401	921.331
185.213	17.255	1221.605	920.092
186.227	17.359	1219.993	919.354
187.242	17.366	1219.422	918.884
188.256	17.435	1218.187	918.243
189.271	17.554	1217.510	918.290
190.286	17.162	1216.764	915.534
191.300	17.010	1215.373	913.590
192.315	16.890	1214.801	912.432
193.329	16.856	1214.158	911.688
194.344	16.926	1213.511	911.496
195.359	17.158	1212.626	911.997
196.373	17.215	1212.771	912.331
197.388	17.310	1212.377	912.464
198.402	17.394	1212.111	912.636
199.417	17.561	1211.478	912.970
200.432	17.659	1210.372	912.585
201.446	17.610	1209.953	911.922
202.461	17.707	1208.995	911.639
203.475	17.674	1207.781	910.465
204.490	17.586	1206.551	908.992
205.504	17.499	1205.207	907.431
206.519	17.421	1204.156	906.144
207.534	17.476	1202.685	905.250
208.548	17.452	1202.015	904.540
209.563	17.423	1201.301	903.769
210.577	17.536	1199.998	903.307
211.592	17.460	1199.442	902.405
212.607	17.605	1198.814	902.623
213.621	17.570	1198.064	901.794
214.636	17.603	1197.030	901.109
215.650	17.575	1196.141	900.212
216.665	17.679	1194.957	899.792
217.680	17.874	1194.222	900.186
218.694	17.808	1193.248	899.025
219.709	17.782	1192.499	898.243
220.723	17.701	1192.093	897.431
221.738	17.756	1191.323	897.060
222.753	17.633	1190.529	895.741
223.767	17.804	1189.829	896.032
224.782	17.873	1189.641	896.173
225.796	17.916	1188.768	895.658
226.811	17.909	1187.866	894.865
227.826	17.786	1187.249	893.675
228.840	17.789	1185.783	892.509
229.855	17.709	1185.708	891.955
230.869	17.753	1184.850	891.464
231.884	17.757	1183.514	890.400
232.899	17.642	1183.095	889.402
233.913	17.592	1182.329	888.487
234.928	17.691	1181.325	888.169
235.942	17.687	1180.170	887.203
236.957	17.541	1180.029	886.257
237.972	17.597	1179.191	885.842
238.986	17.672	1178.520	885.648
240.001	17.615	1177.581	884.569
241.015	17.778	1176.482	884.512
242.030	17.727	1176.403	884.109
243.045	17.814	1175.387	883.720
244.059	17.887	1174.409	883.281
245.074	17.859	1173.988	882.743
246.088	17.963	1172.923	882.404
247.103	17.918	1172.242	881.581
248.117	17.978	1171.936	881.578
249.132	18.317	1170.736	882.350
250.147	18.400	1170.618	882.610
251.161	18.402	1170.217	882.238
252.176	18.508	1168.842	881.668
253.190	18.570	1168.401	881.578
254.205	18.560	1167.859	881.037
255.220	18.562	1167.326	880.569
256.234	18.559	1166.435	879.800
257.249	18.578	1165.336	878.992
258.263	18.518	1165.276	878.561
259.278	18.557	1164.778	878.307
260.293	18.485	1164.580	877.712
261.307	18.550	1163.416	877.092
262.322	18.608	1162.736	876.800
263.336	18.639	1162.115	876.407
264.351	18.650	1161.652	876.042
265.366	18.702	1160.833	875.609
266.380	18.745	1159.974	875.102
267.395	18.674	1158.769	873.755
268.409	18.516	1158.545	872.703
269.424	18.546	1157.488	871.982
270.439	18.626	1157.057	871.989
271.453	18.662	1155.928	871.242
272.468	18.489	1155.094	869.662
273.482	18.436	1154.580	868.929
274.497	18.537	1153.685	868.689
275.512	18.511	1153.433	868.289
276.526	18.494	1152.505	867.429
277.541	18.513	1152.072	867.124
278.555	18.534	1151.333	866.595
279.570	18.720	1150.502	866.834
280.585	18.734	1149.777	866.280
281.599	18.769	1148.725	865.589
282.614	18.658	1147.840	864.286
283.628	18.673	1146.558	863.319
284.643	18.675	1145.835	862.707
285.657	18.687	1144.760	861.882
286.672	18.690	1144.208	861.406
287.687	18.768	1143.053	860.851
288.701	18.746	1141.958	859.840
289.716	18.775	1141.518	859.580
290.730	18.916	1140.604	859.518
291.745	18.868	1140.022	858.766
292.760	18.829	1139.401	858.023
293.774	18.901	1138.742	857.815
294.789	18.914	1138.567	857.670
295.803	18.999	1137.596	857.288
296.818	18.894	1136.968	856.215
297.833	18.863	1136.330	855.502
298.847	18.769	1135.646	854.446
299.862	18.921	1134.485	854.249
300.876	18.889	1133.760	853.472
301.891	18.982	1133.436	853.612
302.906	19.069	1132.794	853.485
303.920	19.171	1131.825	853.186
304.935	19.191	1131.608	853.044
305.949	19.287	1130.873	852.892
306.964	19.222	1130.258	852.028
307.979	19.155	1129.141	850.782
308.993	19.166	1128.503	850.282
310.008	19.183	1127.913	849.846
311.022	19.214	1127.043	849.268
312.037	19.168	1126.167	848.304
313.052	19.093	1124.885	846.895
314.066	19.079	1124.075	846.142
315.081	18.988	1123.169	844.937
316.095	18.888	1122.902	844.169
317.110	18.921	1122.171	843.707
318.125	18.956	1121.190	843.069
319.139	18.937	1120.595	842.451
320.154	18.972	1119.641	841.832
321.168	19.112	1118.994	841.954
322.183	18.969	1118.734	840.988
323.197	19.015	1118.230	840.756
324.212	19.156	1117.441	840.778
325.227	19.043	1116.468	839.423
326.241	19.090	1116.156	839.343
327.256	19.110	1115.477	838.853
328.270	19.109	1114.158	837.783
329.285	19.067	1113.370	836.911
330.300	19.000	1112.234	835.660
331.314	19.029	1111.374	835.078
332.329	19.024	1110.521	834.339
333.343	19.143	1109.303	833.930
334.358	19.205	1109.153	834.043
335.373	19.199	1108.303	833.300
336.387	19.301	1107.734	833.291
337.402	19.322	1106.965	832.741
338.416	19.342	1106.310	832.271
339.431	19.420	1105.687	832.107
340.446	19.495	1105.073	831.929
341.460	19.602	1104.100	831.640
342.475	19.668	1103.757	831.625
343.489	19.738	1102.473	830.921
344.504	19.732	1101.805	830.313
345.519	19.795	1100.923	829.880
346.533	19.877	1100.055	829.545
347.548	19.725	1099.729	828.499
348.562	19.629	1099.064	827.463
349.577	19.668	1097.824	826.642
350.592	19.516	1097.231	825.395
351.606	19.334	1096.452	823.865
352.621	19.515	1095.165	823.692
353.635	19.277	1095.197	822.505
354.650	19.565	1094.043	822.940
355.665	19.551	1093.307	822.248
356.679	19.642	1093.082	822.436
357.694	19.629	1092.547	821.900
358.708	19.810	1091.597	821.974
359.723	19.681	1090.864	820.736
360.738	19.803	1090.276	820.802
361.752	19.708	1089.675	819.823
362.767	19.768	1089.325	819.772
363.781	19.833	1088.556	819.432
364.796	19.840	1088.407	819.276
365.810	19.899	1087.866	819.081
366.825	20.023	1086.764	818.762
367.840	20.144	1086.506	819.065
368.854	20.179	1085.815	818.639
369.869	20.065	1085.350	817.678
370.883	20.264	1084.184	817.665
371.898	20.031	1083.487	815.968
372.913	19.918	1083.127	815.093
373.927	20.064	1082.612	815.324
374.942	20.034	1082.477	815.009
375.956	20.106	1081.629	814.635
376.971	20.127	1080.914	814.124
377.986	20.179	1080.483	813.970
379.000	20.266	1080.048	813.980
380.015	20.310	1079.541	813.730
381.029	20.311	1078.851	813.145
382.044	20.275	1078.319	812.504
383.059	20.328	1077.261	811.880
384.073	20.186	1076.227	810.367
385.088	20.214	1075.728	810.048
386.102	20.376	1074.437	809.760
387.117	20.139	1073.772	808.082
388.132	20.110	1072.507	806.927
389.146	20.133	1071.490	806.198
390.161	20.110	1070.877	805.558
391.175	20.044	1070.297	804.744
392.190	20.121	1069.867	804.705
393.205	20.341	1069.106	805.082
394.219	20.347	1068.461	804.555
395.234	20.282	1067.252	803.270
396.248	20.113	1066.340	801.731
397.263	20.230	1065.195	801.339
398.278	20.091	1064.759	800.297
399.292	20.135	1063.497	799.481
400.307	20.028	1063.276	798.754
401.321	19.990	1063.003	798.300
402.336	20.118	1062.133	798.167
403.350	20.062	1061.329	797.233
404.365	20.185	1060.384	797.020
405.380	20.266	1059.565	796.707
406.394	20.243	1059.312	796.339
407.409	20.414	1058.233	796.240
408.423	20.399	1057.787	795.768
409.438	20.548	1057.269	795.988
410.453	20.644	1056.068	795.455
411.467	20.585	1055.737	794.862
412.482	20.641	1054.919	794.434
413.496	20.754	1054.314	794.425
414.511	20.719	1053.629	793.676
415.526	20.831	1053.440	793.977
416.540	20.909	1053.204	794.081
417.555	20.866	1052.674	793.419
418.569	20.759	1052.012	792.361
419.584	20.787	1051.173	791.785
420.599	20.680	1051.098	791.172
421.613	155.309	1404.469	1797.045
422.628	142.453	1455.907	1797.147
