DTS Sentinel unit serial number:	SN413079Multiplexer serial number:	ORYXHardware model number:	OX4-SRSoftware version number:	ORYX F/W v4.00 Oryx Data Collector v3.7.2.0data status	okinstallation	princeton_trtdifferential loss correction	single-endedforward channel	channel 2reverse channel	N/Adate	2019/09/15time	02:35:34forward acquisition time	60.00reverse acquisition time	0.00gamma	496.2192k internal	0.2326k external	0.2326temperature offset calibration	1.0033default loss term (dB/km)	0.3790temperature slope calibration	1.0000multiplexer offset coefficient	1.0000multiplexer slope coefficient	1.0000fibre end	0.00T internal ref (°C)	31.48T ext. ref 1 (°C)	4.58T ext. ref 2 (°C)	25.87length (m)	temperature (°C)	Stokes	anti-Stokes-747.200	192.369	0.272	0.414
-746.185	21.770	-0.290	0.238
-745.171	-9.848	-0.199	0.133
-744.156	-140.064	0.150	-0.016
-743.142	-93.628	-0.169	0.047
-742.127	115.219	-0.099	0.122
-741.112	-200.000	-0.019	0.212
-740.098	-128.278	-0.210	0.030
-739.083	-166.990	0.275	-0.011
-738.069	332.432	0.014	-0.027
-737.054	-68.543	0.126	0.049
-736.039	-200.000	-0.003	0.212
-735.025	750.241	-0.070	0.191
-734.010	214.783	0.245	-0.392
-732.996	-44.961	-0.236	0.118
-731.981	35.236	-0.273	0.241
-730.966	-153.122	-0.064	-0.005
-729.952	800.000	-0.051	-0.180
-728.937	-131.227	-0.238	-0.032
-727.923	-200.000	0.014	-0.088
-726.908	-174.441	-0.432	-0.013
-725.894	131.521	0.222	-0.288
-724.879	126.850	0.040	0.051
-723.864	-68.905	-0.121	-0.047
-722.850	-22.144	0.089	-0.054
-721.835	-200.000	0.006	-0.198
-720.821	-93.337	-0.433	-0.121
-719.806	-92.237	-0.216	-0.061
-718.791	800.000	-0.018	-0.055
-717.777	-0.908	-0.101	0.072
-716.762	90.293	-0.211	-0.238
-715.748	147.361	-0.093	-0.126
-714.733	-111.311	0.423	0.087
-713.718	-53.335	-0.142	0.065
-712.704	607.409	0.071	0.178
-711.689	-46.765	-0.427	0.211
-710.675	57.788	0.204	-0.201
-709.660	-92.112	-0.127	0.036
-708.645	-50.810	-0.117	0.055
-707.631	-200.000	0.011	0.386
-706.616	183.962	0.078	0.116
-705.602	80.779	0.133	0.144
-704.587	-200.000	-0.076	0.384
-703.572	54.592	-0.077	-0.074
-702.558	-200.000	-0.002	0.040
-701.543	137.059	0.315	0.415
-700.529	658.167	0.048	-0.125
-699.514	800.000	0.108	-0.351
-698.499	134.168	-0.193	0.251
-697.485	-76.130	-0.314	0.112
-696.470	36.124	0.157	-0.139
-695.456	-21.288	-0.314	0.193
-694.441	375.694	0.125	0.256
-693.426	-200.000	0.009	-0.077
-692.412	161.897	0.088	-0.123
-691.397	800.000	-0.062	-0.271
-690.383	800.000	-0.070	-0.281
-689.368	-38.411	0.038	0.020
-688.354	377.854	-0.111	-0.228
-687.339	800.000	0.077	0.223
-686.324	800.000	-0.032	0.099
-685.310	9.731	-0.226	0.172
-684.295	90.461	0.201	-0.226
-683.281	-200.000	-0.029	0.345
-682.266	-99.349	-0.207	0.053
-681.251	114.275	0.101	-0.124
-680.237	800.000	0.015	0.063
-679.222	-137.002	0.191	-0.022
-678.208	-132.366	-0.317	0.041
-677.193	76.047	0.200	0.213
-676.178	-95.694	-0.261	-0.070
-675.164	-159.876	-0.260	0.014
-674.149	800.000	0.080	-0.296
-673.135	-46.242	-0.025	-0.012
-672.120	-200.000	0.006	-0.331
-671.105	155.489	0.195	-0.269
-670.091	49.819	-0.035	-0.033
-669.076	390.464	-0.076	0.158
-668.062	-137.469	0.134	0.015
-667.047	-73.524	0.186	0.068
-666.032	-33.944	-0.344	0.191
-665.018	-97.758	-0.244	0.064
-664.003	-200.000	0.024	0.287
-662.989	-100.813	-0.177	-0.044
-661.974	-135.255	0.210	-0.025
-660.959	158.422	-0.056	0.079
-659.945	474.988	-0.059	-0.133
-658.930	-200.000	0.019	0.217
-657.916	320.111	-0.144	-0.274
-656.901	-85.235	0.102	0.032
-655.886	-63.545	0.283	-0.117
-654.872	-48.494	0.087	-0.042
-653.857	163.808	0.020	0.028
-652.843	387.172	-0.053	-0.110
-651.828	-32.704	-0.162	0.091
-650.814	-117.151	-0.376	0.069
-649.799	128.306	-0.151	0.194
-648.784	-15.055	0.137	0.088
-647.770	-10.535	-0.374	-0.249
-646.755	-124.911	0.110	-0.017
-645.741	-106.304	0.040	0.009
-644.726	-71.742	0.152	-0.057
-643.711	-5.157	0.347	-0.240
-642.697	119.753	-0.034	-0.042
-641.682	-108.005	-0.195	-0.043
-640.668	196.048	-0.138	0.210
-639.653	-200.000	-0.002	0.231
-638.638	-106.055	-0.092	0.021
-637.624	-200.000	0.006	-0.029
-636.609	463.019	0.049	-0.111
-635.595	-28.208	0.170	-0.099
-634.580	109.195	-0.173	-0.208
-633.565	-10.541	0.054	-0.036
-632.551	25.420	0.145	0.121
-631.536	-86.977	0.205	0.063
-630.522	-133.563	0.043	0.005
-629.507	512.486	0.117	0.274
-628.492	-94.529	-0.186	-0.051
-627.478	800.000	-0.073	0.274
-626.463	-33.681	0.295	0.164
-625.449	-118.507	-0.205	-0.036
-624.434	-200.000	0.020	0.170
-623.419	256.344	-0.226	-0.389
-622.405	502.019	0.140	-0.325
-621.390	289.324	-0.135	-0.246
-620.376	2.451	0.214	-0.155
-619.361	-200.000	-0.122	0.575
-618.346	-160.573	0.110	0.006
-617.332	-200.000	-0.008	0.317
-616.317	292.157	0.094	0.171
-615.303	-80.282	-0.209	-0.070
-614.288	-200.000	-0.032	-0.263
-613.273	18.813	-0.072	-0.058
-612.259	40.658	0.190	-0.172
-611.244	85.919	-0.180	0.199
-610.230	-41.703	-0.089	-0.046
-609.215	-22.387	-0.228	-0.139
-608.201	-112.416	0.188	0.038
-607.186	-29.261	-0.385	-0.221
-606.171	177.020	-0.215	-0.314
-605.157	139.663	0.131	0.173
-604.142	-80.095	-0.195	0.065
-603.128	-200.000	-0.017	-0.075
-602.113	-5.255	0.311	-0.214
-601.098	12.334	-0.214	-0.166
-600.084	-25.649	0.234	-0.139
-599.069	-200.000	0.000	-0.002
-598.055	386.236	-0.096	-0.198
-597.040	283.417	-0.173	-0.311
-596.025	143.039	-0.189	-0.252
-595.011	344.860	-0.060	-0.118
-593.996	221.454	0.081	0.131
-592.982	-200.000	-0.019	-0.226
-591.967	16.389	-0.131	0.103
-590.952	-200.000	-0.018	0.240
-589.938	-101.754	-0.243	0.059
-588.923	-184.137	-0.066	-0.001
-587.909	116.139	0.058	-0.072
-586.894	-200.000	-0.004	0.255
-585.879	-161.282	-0.318	0.017
-584.865	-19.123	-0.097	-0.060
-583.850	-92.964	-0.282	-0.079
-582.836	-200.000	-0.006	0.109
-581.821	45.036	0.122	0.112
-580.806	800.000	0.112	-0.337
-579.792	-200.000	0.021	-0.291
-578.777	-48.202	0.142	0.069
-577.763	800.000	0.057	0.226
-576.748	-200.000	-0.023	0.317
-575.733	-47.870	-0.280	0.136
-574.719	-98.840	-0.053	0.014
-573.704	-77.066	0.072	0.025
-572.690	332.403	-0.067	-0.130
-571.675	380.426	0.069	0.142
-570.661	-86.919	0.083	-0.025
-569.646	-117.298	0.271	-0.049
-568.631	3.778	0.314	0.230
-567.617	-120.001	0.206	0.035
-566.602	-199.282	0.129	0.001
-565.588	-74.549	-0.288	0.104
-564.573	-200.000	-0.086	-0.420
-563.558	-200.000	0.077	0.540
-562.544	-121.087	0.202	0.034
-561.529	-200.000	-0.052	0.274
-560.515	-160.720	0.138	0.007
-559.500	101.016	-0.063	0.074
-558.485	64.030	0.211	0.212
-557.471	800.000	0.038	-0.120
-556.456	77.957	-0.213	0.227
-555.442	-200.000	0.004	-0.036
-554.427	-124.713	0.229	-0.036
-553.412	300.837	0.120	-0.222
-552.398	-145.335	-0.275	0.025
-551.383	160.718	-0.181	0.253
-550.369	496.969	-0.100	-0.230
-549.354	800.000	0.030	0.094
-548.339	-200.000	-0.049	0.379
-547.325	-69.066	-0.159	0.061
-546.310	-19.246	-0.034	0.021
-545.296	-84.247	-0.220	0.070
-544.281	522.714	0.090	0.211
-543.266	18.021	-0.066	0.052
-542.252	245.572	0.159	0.267
-541.237	-200.000	0.007	-0.160
-540.223	-200.000	-0.004	0.032
-539.208	-12.949	-0.133	-0.087
-538.193	800.000	0.020	0.089
-537.179	-16.723	-0.128	0.081
-536.164	150.030	0.140	-0.190
-535.150	76.073	-0.173	0.183
-534.135	-31.627	0.083	-0.047
-533.121	-200.000	0.014	-0.241
-532.106	-29.056	0.062	0.036
-531.091	-200.000	0.002	-0.215
-530.077	-97.720	0.165	-0.043
-529.062	778.673	0.055	0.150
-528.048	40.793	-0.042	0.038
-527.033	236.983	-0.148	0.246
-526.018	-200.000	-0.009	0.182
-525.004	-200.000	0.033	-0.194
-523.989	163.599	-0.097	-0.136
-522.975	800.000	0.068	-0.199
-521.960	-52.044	0.037	-0.017
-520.945	163.063	-0.057	0.079
-519.931	-128.211	0.383	0.055
-518.916	365.084	0.038	0.077
-517.902	60.182	-0.116	0.115
-516.887	274.364	-0.138	-0.244
-515.872	48.337	0.136	-0.128
-514.858	394.381	-0.197	0.410
-513.843	-14.310	0.261	-0.168
-512.829	-124.741	0.419	0.065
-511.814	611.878	-0.056	-0.141
-510.799	-39.630	0.273	-0.143
-509.785	0.849	0.121	-0.086
-508.770	101.293	0.112	0.131
-507.756	-96.111	-0.055	-0.015
-506.741	49.743	-0.177	0.167
-505.726	800.000	-0.043	0.135
-504.712	171.737	0.209	0.300
-503.697	67.053	-0.088	-0.090
-502.683	162.984	0.171	-0.240
-501.668	210.766	-0.071	-0.111
-500.653	-200.000	0.000	-0.096
-499.639	-200.000	-0.004	0.312
-498.624	56.093	-0.231	-0.224
-497.610	-200.000	-0.050	-0.247
-496.595	360.367	-0.092	0.183
-495.581	-114.262	0.415	-0.080
-494.566	800.000	0.015	0.050
-493.551	-0.421	0.175	-0.124
-492.537	592.556	-0.039	0.097
-491.522	-103.536	-0.204	-0.048
-490.508	-139.364	-0.136	0.015
-489.493	-120.847	0.165	-0.028
-488.478	268.258	0.028	-0.050
-487.464	-40.239	-0.110	-0.057
-486.449	-200.000	-0.035	-0.215
-485.435	-103.602	0.280	-0.066
-484.420	800.000	0.140	-0.509
-483.405	196.514	-0.161	0.246
-482.391	-200.000	-0.011	0.098
-481.376	289.613	-0.100	0.181
-480.362	179.901	0.091	-0.132
-479.347	-36.523	-0.291	-0.157
-478.332	-200.000	0.028	-0.355
-477.318	-43.753	-0.216	-0.109
-476.303	-19.792	0.204	0.126
-475.289	-200.000	0.011	-0.166
-474.274	800.000	-0.148	-0.430
-473.259	14.832	0.243	0.190
-472.245	32.306	-0.166	-0.143
-471.230	-79.021	0.171	-0.058
-470.216	-77.497	0.044	0.015
-469.201	-133.209	0.041	0.005
-468.186	-200.000	-0.156	-0.000
-467.172	-147.885	-0.345	-0.029
-466.157	247.098	0.184	-0.310
-465.143	59.937	-0.237	-0.233
-464.128	478.643	0.030	-0.069
-463.113	672.009	0.008	0.020
-462.099	10.149	0.125	-0.095
-461.084	-200.000	-0.002	0.065
-460.070	97.143	-0.156	-0.179
-459.055	-90.869	-0.208	0.060
-458.040	-200.000	-0.259	0.001
-457.026	-200.000	-0.052	-0.280
-456.011	-200.000	0.098	-0.457
-454.997	-125.901	-0.183	-0.027
-453.982	-200.000	0.043	0.456
-452.968	-106.656	0.151	0.034
-451.953	-77.226	-0.250	0.087
-450.938	-148.557	-0.105	0.009
-449.924	16.323	0.131	0.103
-448.909	70.258	0.026	0.026
-447.895	387.038	-0.166	-0.343
-446.880	-57.859	-0.063	0.027
-445.865	-200.000	0.005	0.098
-444.851	-131.654	0.203	-0.027
-443.836	-154.792	0.563	0.037
-442.822	-200.000	-0.049	0.304
-441.807	-200.000	0.069	0.372
-440.792	-200.000	-0.042	0.261
-439.778	-73.502	0.394	0.143
-438.763	-69.788	0.141	0.053
-437.749	11.127	-0.211	0.161
-436.734	74.562	-0.074	0.078
-435.719	-200.000	0.004	-0.161
-434.705	628.802	0.079	0.199
-433.690	800.000	0.064	0.182
-432.676	94.203	-0.127	0.143
-431.661	-2.829	0.237	0.165
-430.646	76.327	-0.263	0.277
-429.632	-153.373	0.191	-0.013
-428.617	800.000	-0.078	-0.281
-427.603	512.370	-0.074	-0.172
-426.588	7.402	-0.074	-0.055
-425.573	-59.257	0.253	0.109
-424.559	543.896	-0.046	0.111
-423.544	-125.833	-0.204	-0.031
-422.530	-144.660	-0.136	-0.013
-421.515	87.387	-0.227	-0.250
-420.500	800.000	0.055	0.169
-419.486	751.060	-0.044	-0.117
-418.471	-18.425	0.239	-0.149
-417.457	-129.478	-0.153	-0.021
-416.442	-200.000	-0.002	0.325
-415.428	12.065	-0.129	0.099
-414.413	-90.444	0.195	0.056
-413.398	-200.000	-0.013	-0.177
-412.384	24.664	0.149	-0.123
-411.369	-186.927	0.297	0.004
-410.355	-200.000	0.003	-0.060
-409.340	72.480	0.100	-0.104
-408.325	97.644	0.069	-0.079
-407.311	-69.556	-0.384	-0.146
-406.296	133.689	0.025	-0.032
-405.282	-99.537	-0.221	0.055
-404.267	158.688	-0.108	-0.150
-403.252	51.331	0.187	-0.177
-402.238	-118.432	0.066	0.012
-401.223	109.609	0.086	-0.103
-400.209	351.750	0.185	0.365
-399.194	-43.928	0.119	0.059
-398.179	800.000	-0.112	0.420
-397.165	-51.781	0.087	-0.040
-396.150	-65.052	0.266	-0.107
-395.136	107.011	0.063	-0.074
-394.121	69.021	-0.272	0.278
-393.106	-200.000	0.006	0.200
-392.092	194.691	-0.049	-0.074
-391.077	-67.352	0.099	0.039
-390.063	40.279	0.264	0.236
-389.048	202.701	-0.133	0.205
-388.033	-15.029	-0.212	0.135
-387.019	13.387	-0.141	-0.109
-386.004	-200.000	0.008	-0.290
-384.990	714.909	0.095	0.249
-383.975	-21.924	0.154	0.093
-382.960	-89.233	-0.131	-0.038
-381.946	-144.182	0.161	0.015
-380.931	-107.147	-0.083	-0.018
-379.917	53.192	-0.156	-0.149
-378.902	18.806	0.182	0.145
-377.888	-128.860	-0.202	-0.028
-376.873	167.383	0.132	0.186
-375.858	169.336	0.122	0.174
-374.844	-181.613	0.164	-0.003
-373.829	74.632	0.113	-0.118
-372.815	-98.353	0.206	-0.053
-371.800	188.046	0.193	-0.287
-370.785	-63.080	0.087	-0.036
-369.771	627.890	-0.094	-0.236
-368.756	-200.000	0.025	-0.446
-367.742	702.147	-0.004	-0.011
-366.727	-105.946	-0.321	-0.072
-365.712	9.200	0.175	-0.132
-364.698	45.481	0.184	-0.169
-363.683	-200.000	-0.042	0.208
-362.669	-200.000	-0.034	-0.270
-361.654	-39.974	-0.264	0.137
-360.639	-200.000	-0.007	-0.255
-359.625	406.948	-0.048	-0.102
-358.610	-199.303	-0.414	0.002
-357.596	2.821	-0.226	0.163
-356.581	-17.411	0.127	-0.080
-355.566	-101.799	-0.059	0.014
-354.552	-107.578	-0.056	0.012
-353.537	800.000	-0.030	0.128
-352.523	-200.000	-0.054	-0.288
-351.508	118.590	-0.127	0.156
-350.493	36.158	-0.249	0.218
-349.479	223.599	-0.182	-0.292
-348.464	362.379	-0.075	-0.150
-347.450	167.661	0.070	-0.099
-346.435	93.575	0.135	0.151
-345.420	-200.000	0.006	0.040
-344.406	175.240	0.058	-0.084
-343.391	339.569	-0.214	0.414
-342.377	-24.648	-0.186	-0.110
-341.362	18.414	-0.199	-0.158
-340.348	272.251	0.152	-0.266
-339.333	61.514	-0.038	-0.037
-338.318	-158.957	-0.252	0.014
-337.304	800.000	-0.063	-0.177
-336.289	-32.570	-0.162	0.090
-335.275	-186.958	0.179	0.002
-334.260	-119.158	0.237	-0.041
-333.245	-83.576	-0.352	-0.112
-332.231	-200.000	0.019	0.236
-331.216	-185.993	-0.075	-0.001
-330.202	-64.830	-0.244	0.098
-329.187	77.193	-0.033	0.034
-328.172	-200.000	-0.029	0.212
-327.158	-56.889	0.243	0.107
-326.143	268.217	0.062	-0.108
-325.129	-0.211	0.405	0.286
-324.114	800.000	-0.038	-0.110
-323.099	124.028	-0.084	-0.104
-322.085	-127.062	0.463	0.067
-321.070	143.657	-0.143	0.189
-320.056	619.596	0.098	0.245
-319.041	-22.949	0.233	0.139
-318.026	-58.861	-0.368	0.158
-317.012	452.956	-0.097	0.213
-315.997	322.164	0.062	0.117
-314.983	-200.000	0.013	0.325
-313.968	-111.487	0.208	-0.042
-312.953	-71.428	0.242	-0.090
-311.939	309.110	0.086	-0.159
-310.924	52.969	-0.163	-0.155
-309.910	-140.589	0.073	0.008
-308.895	-112.407	-0.217	0.043
-307.880	-200.000	0.047	-0.266
-306.866	-57.531	-0.228	-0.099
-305.851	-128.314	0.270	-0.038
-304.837	19.561	-0.209	-0.167
-303.822	37.615	0.121	0.106
-302.807	-200.000	-0.134	-0.671
-301.793	-200.000	0.319	0.001
-300.778	3.779	0.232	0.168
-299.764	338.264	-0.176	0.339
-298.749	44.972	-0.230	-0.210
-297.735	-67.919	-0.101	-0.039
-296.720	-200.000	0.019	0.112
-295.705	-200.000	-0.035	0.219
-294.691	-109.315	0.178	-0.037
-293.676	70.491	0.136	-0.139
-292.662	423.483	-0.078	-0.166
-291.647	0.542	-0.127	0.090
-290.632	-200.000	-0.022	-0.156
-289.618	-69.852	-0.270	0.102
-288.603	-111.090	-0.295	0.060
-287.589	39.438	0.087	0.077
-286.574	-10.740	-0.216	0.142
-285.559	217.171	-0.132	-0.208
-284.545	-55.404	-0.092	-0.041
-283.530	-36.635	0.236	0.126
-282.516	331.827	-0.140	-0.267
-281.501	71.145	0.198	0.203
-280.486	800.000	0.041	0.173
-279.472	-112.338	0.248	-0.049
-278.457	-22.914	-0.248	-0.148
-277.443	-200.000	0.018	0.118
-276.428	800.000	-0.083	-0.260
-275.413	-11.186	0.150	0.098
-274.399	-20.428	-0.089	-0.054
-273.384	545.841	0.100	0.236
-272.370	318.887	0.124	-0.233
-271.355	36.262	-0.073	0.064
-270.340	800.000	0.059	0.162
-269.326	-200.000	0.015	-0.258
-268.311	116.655	0.149	-0.180
-267.297	0.075	0.085	-0.060
-266.282	-51.153	0.373	0.173
-265.267	-74.324	-0.140	-0.050
-264.253	-200.000	0.201	0.001
-263.238	800.000	-0.029	0.088
-262.224	41.101	-0.109	0.098
-261.209	-60.226	-0.178	0.075
-260.195	-126.106	-0.296	-0.044
-259.180	-200.000	-0.046	0.200
-258.165	44.551	0.208	0.189
-257.151	-200.000	-0.001	-0.049
-256.136	-42.668	0.172	-0.087
-255.122	-43.530	0.151	-0.075
-254.107	93.493	0.088	-0.098
-253.092	44.489	0.198	-0.180
-252.078	-14.602	0.127	-0.081
-251.063	91.214	0.225	0.250
-250.049	-58.276	-0.228	0.098
-249.034	-145.369	-0.191	0.017
-248.019	351.127	0.120	0.235
-247.005	-200.000	-0.025	0.209
-245.990	-200.000	-0.007	-0.092
-244.976	-142.055	-0.405	0.040
-243.961	92.164	-0.063	-0.071
-242.946	-200.000	0.018	-0.231
-241.932	316.340	0.042	0.078
-240.917	-147.911	-0.208	0.017
-239.903	-102.786	-0.094	-0.022
-238.888	471.208	-0.057	0.126
-237.873	-174.417	-0.180	0.005
-236.859	-38.004	-0.032	0.017
-235.844	-111.775	0.359	0.072
-234.830	-94.074	-0.147	0.040
-233.815	43.299	0.211	0.190
-232.800	-42.633	-0.074	-0.037
-231.786	-59.511	0.384	-0.163
-230.771	-19.090	0.080	0.049
-229.757	205.070	-0.069	-0.105
-228.742	111.380	0.145	0.173
-227.727	-110.109	0.085	-0.018
-226.713	-181.343	0.363	0.007
-225.698	63.961	-0.143	0.142
-224.684	157.633	0.083	0.114
-223.669	340.262	-0.084	-0.163
-222.655	345.134	-0.036	-0.070
-221.640	-200.000	0.024	-0.114
-220.625	-9.804	-0.078	-0.051
-219.611	-200.000	-0.006	-0.069
-218.596	-189.250	-0.300	0.004
-217.582	-128.262	-0.413	0.058
-216.567	800.000	-0.051	-0.153
-215.552	-132.377	0.144	0.018
-214.538	614.661	0.078	0.193
-213.523	26.005	-0.172	0.142
-212.509	55.791	-0.181	0.173
-211.494	800.000	-0.071	-0.244
-210.479	359.985	0.051	-0.100
-209.465	315.039	0.209	-0.388
-208.450	193.267	0.131	-0.195
-207.436	52.592	0.181	-0.171
-206.421	177.161	0.133	0.191
-205.406	241.025	0.105	0.173
-204.392	710.060	-0.100	0.261
-203.377	-22.321	0.101	0.060
-202.363	800.000	-0.065	-0.200
-201.348	156.889	0.219	0.299
-200.333	312.747	0.052	0.096
-199.319	63.790	0.109	0.108
-198.304	24.457	-0.156	0.127
-197.290	199.694	-0.111	-0.169
-196.275	71.305	-0.136	0.139
-195.260	309.138	0.065	-0.121
-194.246	79.512	0.082	-0.087
-193.231	800.000	0.036	-0.112
-192.217	30.002	-0.402	0.339
-191.202	372.298	0.045	-0.090
-190.187	800.000	0.055	0.188
-189.173	-79.167	-0.170	-0.057
-188.158	-25.803	-0.242	-0.141
-187.144	164.979	0.248	0.346
-186.129	-116.144	0.107	-0.020
-185.114	675.334	-0.053	-0.137
-184.100	51.002	-0.165	0.154
-183.085	17.441	0.283	-0.222
-182.071	-15.119	-0.314	-0.198
-181.056	233.129	0.217	-0.351
-180.042	-200.000	0.003	-0.081
-179.027	-36.769	-0.079	0.042
-178.012	26.673	-0.162	-0.134
-176.998	-120.367	-0.078	0.013
-175.983	-136.504	-0.146	-0.017
-174.969	-83.611	-0.123	0.039
-173.954	-200.000	-0.025	-0.244
-172.939	-17.915	0.097	-0.060
-171.925	-123.213	-0.024	-0.004
-170.910	21.458	-0.119	0.095
-169.896	167.901	0.075	-0.105
-168.881	93.870	0.058	-0.065
-167.866	-140.946	0.345	-0.035
-166.852	-18.925	-0.066	-0.041
-165.837	-35.952	-0.127	0.068
-164.823	-86.374	0.119	-0.036
-163.808	227.968	-0.056	0.090
-162.793	-84.086	0.360	0.113
-161.779	-26.379	0.261	0.151
-160.764	-134.757	0.334	0.040
-159.750	-200.000	-0.007	0.259
-158.735	-164.181	0.338	0.015
-157.720	68.900	-0.071	-0.072
-156.706	28.054	-0.232	0.193
-155.691	-62.296	-0.126	0.052
-154.677	-7.942	-0.112	-0.075
-153.662	106.161	0.385	0.449
-152.647	-0.610	0.265	-0.185
-151.633	-12.537	-0.179	-0.115
-150.618	-49.014	0.185	0.087
-149.604	540.701	-0.096	-0.226
-148.589	209.221	-0.179	-0.277
-147.574	-200.000	0.048	0.257
-146.560	-33.061	-0.247	-0.135
-145.545	-139.686	0.298	0.031
-144.531	514.081	0.072	-0.166
-143.516	55.824	0.222	0.212
-142.502	800.000	-0.079	0.224
-141.487	309.107	-0.203	0.374
-140.472	-137.560	-0.129	-0.014
-139.458	32.421	0.231	-0.197
-138.443	-36.527	-0.162	0.086
-137.429	250.127	-0.196	-0.327
-136.414	245.738	0.070	0.115
-135.399	800.000	0.145	-0.451
-134.385	3.452	0.057	0.041
-133.370	580.687	0.049	-0.119
-132.356	-42.474	0.172	0.086
-131.341	161.146	-0.175	-0.241
-130.326	378.202	-0.016	0.032
-129.312	-91.413	0.315	-0.089
-128.297	110.953	-0.183	0.217
-127.283	93.564	-0.262	0.293
-126.268	-24.002	-0.355	-0.209
-125.253	197.380	0.132	-0.198
-124.239	204.284	-0.108	0.165
-123.224	-183.988	-0.123	0.002
-122.210	537.663	-0.096	0.224
-121.195	-121.218	0.137	0.022
-120.180	601.935	-0.090	-0.220
-119.166	767.452	-0.043	0.115
-118.151	239.738	0.108	0.177
-117.137	-107.324	-0.280	-0.061
-116.122	207.581	0.101	-0.156
-115.107	165.608	0.106	0.148
-114.093	43.513	-0.368	0.331
-113.078	-200.000	-0.004	-0.107
-112.064	-17.499	-0.046	0.028
-111.049	-200.000	0.014	0.330
-110.034	800.000	0.052	0.142
-109.020	64.859	-0.131	-0.130
-108.005	11.674	0.016	0.012
-106.991	800.000	0.039	-0.159
-105.976	347.078	0.057	-0.111
-104.962	-141.503	-0.250	0.025
-103.947	-13.189	-0.195	-0.124
-102.932	-200.000	0.012	-0.062
-101.918	-157.805	0.354	-0.021
-100.903	153.641	-0.205	-0.276
-99.889	-85.363	0.225	0.069
-98.874	-59.508	0.248	-0.105
-97.859	-108.616	-0.251	0.053
-96.845	-200.000	0.018	0.318
-95.830	198.118	0.248	-0.373
-94.816	417.505	0.017	0.035
-93.801	1.909	-0.169	0.120
-92.786	-20.676	0.219	0.132
-91.772	-159.041	0.167	0.009
-90.757	141.232	-0.036	0.046
-89.743	-25.351	0.137	0.080
-88.728	-60.355	0.149	0.062
-87.713	-200.000	-0.017	0.192
-86.699	14.264	-0.123	-0.094
-85.684	-107.230	-0.176	-0.038
-84.670	-180.258	0.089	-0.002
-83.655	-18.849	0.118	0.072
-82.640	-200.000	-0.022	0.462
-81.626	-69.486	0.203	0.077
-80.611	-200.000	-0.007	-0.129
-79.597	800.000	0.036	0.109
-78.582	800.000	0.032	0.129
-77.567	-107.979	0.319	0.068
-76.553	-200.000	0.033	-0.159
-75.538	800.000	-0.049	0.197
-74.524	800.000	-0.010	0.028
-73.509	-200.000	0.048	-0.228
-72.494	1.302	0.245	-0.173
-71.480	-176.342	-0.398	0.010
-70.465	-82.798	-0.320	0.102
-69.451	-75.091	-0.236	0.083
-68.436	37.108	-0.164	-0.142
-67.422	-43.232	0.314	-0.156
-66.407	774.869	-0.068	0.181
-65.392	28.768	0.214	0.178
-64.378	-200.000	0.001	0.039
-63.363	-160.261	-0.018	0.001
-62.349	183.426	-0.253	0.367
-61.334	10.937	-1.276	-0.957
-60.319	122.187	0.407	0.499
-59.305	-200.000	-0.228	-1.192
-58.290	206.354	0.693	1.060
-57.276	298.960	0.708	1.280
-56.261	-200.000	98.202	602.438
-55.246	612.553	1393.051	3422.394
-54.232	194.230	2582.581	3842.577
-53.217	112.141	2271.697	2695.648
-52.203	41.009	1895.055	1679.862
-51.188	34.788	1684.879	1446.590
-50.173	32.094	1641.171	1389.109
-49.159	49.970	1689.555	1564.573
-48.144	51.509	1705.882	1591.174
-47.130	34.387	1666.251	1427.365
-46.115	31.657	1651.614	1394.475
-45.100	31.466	1646.673	1388.827
-44.086	31.510	1643.886	1386.747
-43.071	31.464	1641.422	1384.273
-42.057	31.433	1638.895	1381.857
-41.042	31.517	1636.845	1380.692
-40.027	31.308	1635.939	1378.331
-39.013	31.332	1633.399	1376.317
-37.998	31.333	1632.219	1375.274
-36.984	31.321	1631.176	1374.251
-35.969	31.505	1628.888	1373.624
-34.954	31.526	1627.418	1372.484
-33.940	31.448	1626.102	1370.743
-32.925	31.528	1623.560	1369.137
-31.911	31.516	1622.222	1367.863
-30.896	31.487	1620.469	1366.116
-29.881	31.395	1619.162	1364.295
-28.867	31.387	1617.613	1362.875
-27.852	31.497	1615.475	1361.819
-26.838	31.409	1614.414	1360.229
-25.823	31.432	1613.229	1359.342
-24.809	31.498	1611.618	1358.411
-23.794	31.510	1610.032	1357.113
-22.779	31.588	1608.165	1356.045
-21.765	31.489	1606.935	1354.239
-20.750	31.537	1605.313	1353.165
-19.736	31.532	1603.885	1351.872
-18.721	31.626	1602.701	1351.496
-17.706	31.498	1601.209	1349.263
-16.692	31.450	1599.974	1347.825
-15.677	31.491	1598.566	1346.879
-14.663	31.558	1597.009	1345.996
-13.648	31.570	1595.775	1344.991
-12.633	31.480	1594.404	1343.137
-11.619	31.464	1593.234	1341.979
-10.604	31.562	1590.857	1340.628
-9.590	31.559	1589.505	1339.415
-8.575	31.561	1588.322	1338.376
-7.560	31.524	1587.640	1337.486
-6.546	31.550	1586.276	1336.469
-5.531	31.559	1585.097	1335.486
-4.517	31.463	1584.179	1333.980
-3.502	31.504	1583.182	1333.376
-2.487	31.625	1580.713	1332.105
-1.473	31.200	1569.305	1319.436
-0.458	28.432	1550.064	1283.846
0.556	24.088	1550.491	1251.481
1.571	21.782	1574.114	1253.956
2.586	21.255	1586.722	1260.089
3.600	18.773	1534.183	1200.920
4.615	11.467	1427.058	1069.279
5.629	5.457	1365.920	985.608
6.644	4.674	1358.614	975.341
7.659	4.583	1356.891	973.445
8.673	4.484	1355.883	972.019
9.688	4.589	1354.063	971.280
10.702	4.556	1351.222	968.955
11.717	7.148	1356.866	989.125
12.731	14.284	1368.997	1042.717
13.746	18.949	1376.350	1077.528
14.761	18.712	1375.708	1075.440
15.775	17.829	1372.699	1067.474
16.790	16.742	1369.773	1058.313
17.804	15.895	1367.642	1051.288
18.819	15.447	1366.310	1047.377
19.834	15.346	1364.742	1045.450
20.848	15.088	1363.299	1042.650
21.863	14.893	1362.358	1040.623
22.877	14.712	1361.391	1038.668
23.892	14.745	1360.186	1037.862
24.907	14.620	1359.534	1036.496
25.921	14.680	1358.433	1035.933
26.936	14.668	1357.938	1035.390
27.950	14.679	1357.115	1034.741
28.965	14.835	1355.997	1034.765
29.980	14.916	1354.719	1034.194
30.994	15.110	1353.198	1034.142
32.009	14.973	1352.250	1032.484
33.023	14.959	1351.202	1031.501
34.038	14.943	1349.657	1030.132
35.053	14.820	1348.610	1028.489
36.067	14.858	1348.075	1028.221
37.082	14.787	1346.542	1026.523
38.096	14.920	1345.811	1026.691
39.111	14.927	1344.772	1025.853
40.126	14.790	1344.086	1024.399
41.140	14.711	1343.142	1023.105
42.155	14.653	1342.106	1021.870
43.169	14.526	1342.792	1021.523
44.184	14.527	1342.377	1021.125
45.199	14.620	1341.526	1020.953
46.213	14.643	1341.184	1020.746
47.228	14.774	1340.211	1020.714
48.242	14.832	1339.125	1020.152
49.257	14.772	1337.189	1018.223
50.271	14.783	1336.395	1017.591
51.286	14.783	1334.986	1016.433
52.301	14.807	1333.261	1015.176
53.315	14.781	1332.311	1014.200
54.330	14.730	1331.205	1012.959
55.344	14.633	1330.108	1011.450
56.359	14.668	1329.405	1011.036
57.374	14.713	1328.327	1010.398
58.388	14.541	1327.733	1008.816
59.403	14.514	1327.344	1008.273
60.417	14.625	1325.958	1007.796
61.432	14.552	1325.366	1006.821
62.447	14.575	1324.654	1006.325
63.461	14.537	1323.334	1005.005
64.476	14.422	1322.195	1003.364
65.490	14.484	1320.758	1002.554
66.505	14.591	1319.100	1001.848
67.520	14.483	1318.423	1000.600
68.534	14.564	1317.289	1000.138
69.549	14.496	1316.532	999.067
70.563	14.424	1315.580	997.821
71.578	14.394	1314.087	996.425
72.593	14.342	1313.377	995.482
73.607	14.312	1313.012	994.944
74.622	14.394	1311.856	994.465
75.636	14.326	1311.283	993.538
76.651	14.450	1309.930	993.167
77.666	14.440	1309.704	992.847
78.680	14.468	1309.651	992.885
79.695	14.431	1308.591	991.773
80.709	14.587	1307.542	991.816
81.724	14.505	1307.650	991.322
82.739	14.612	1306.222	990.787
83.753	14.764	1305.033	990.702
84.768	14.812	1304.694	990.643
85.782	14.785	1303.701	989.636
86.797	14.844	1302.309	988.845
87.812	14.769	1301.056	987.362
88.826	14.835	1299.611	986.569
89.841	14.815	1299.210	986.060
90.855	14.807	1297.852	984.891
91.870	14.821	1297.289	984.463
92.884	14.852	1296.525	983.974
93.899	14.924	1295.207	983.312
94.914	14.939	1294.872	983.060
95.928	14.889	1294.358	982.285
96.943	14.811	1293.212	980.872
97.957	14.807	1291.870	979.746
98.972	14.931	1290.359	979.238
99.987	14.878	1289.946	978.529
101.001	14.867	1288.531	977.303
102.016	14.729	1288.046	976.044
103.030	14.875	1286.953	975.981
104.045	14.838	1286.307	975.189
105.060	14.717	1285.054	973.451
106.074	14.693	1283.714	972.205
107.089	14.667	1281.792	970.512
108.103	14.476	1280.672	968.470
109.118	14.571	1279.282	967.883
110.133	14.611	1277.776	966.893
111.147	14.627	1276.838	966.192
112.162	14.638	1275.337	965.033
113.176	14.563	1274.586	963.942
114.191	14.664	1273.551	963.660
115.206	14.650	1272.550	962.738
116.220	14.614	1271.423	961.590
117.235	14.639	1270.372	960.858
118.249	14.632	1269.215	959.852
119.264	14.630	1268.096	958.912
120.279	14.533	1267.265	957.641
121.293	14.570	1266.276	957.023
122.308	14.499	1265.096	955.637
123.322	14.495	1264.219	954.868
124.337	14.445	1262.994	953.575
125.352	14.463	1262.020	952.854
126.366	14.538	1260.762	952.250
127.381	14.531	1260.051	951.588
128.395	14.504	1259.008	950.561
129.410	14.516	1258.133	949.889
130.424	14.577	1256.979	949.278
131.439	14.626	1255.944	948.689
132.454	14.652	1255.012	948.051
133.468	14.694	1253.888	947.357
134.483	14.735	1253.456	947.178
135.497	14.642	1252.354	945.735
136.512	14.748	1251.274	945.437
137.527	14.588	1250.092	943.556
138.541	14.627	1248.808	942.721
139.556	14.670	1247.503	941.896
140.570	14.768	1246.473	941.587
141.585	14.910	1245.119	941.283
142.600	14.941	1244.313	940.763
143.614	14.972	1242.899	939.783
144.629	15.030	1241.948	939.309
145.643	14.828	1240.901	937.298
146.658	14.938	1239.638	936.877
147.673	14.855	1238.383	935.384
148.687	14.743	1237.035	933.659
149.702	14.696	1235.770	932.359
150.716	14.773	1234.383	931.659
151.731	14.715	1233.508	930.595
152.746	14.786	1231.955	929.734
153.760	14.830	1230.786	929.015
154.775	14.772	1229.875	927.920
155.789	14.922	1228.883	927.921
156.804	14.907	1227.754	926.906
157.819	14.945	1226.799	926.316
158.833	14.981	1225.975	925.806
159.848	14.980	1225.404	925.290
160.862	15.086	1224.126	924.829
161.877	14.953	1222.899	923.087
162.892	14.844	1221.787	921.562
163.906	14.889	1220.619	920.850
164.921	14.862	1220.222	920.318
165.935	14.813	1219.510	919.429
166.950	14.998	1218.406	919.532
167.964	14.868	1217.971	918.408
168.979	14.856	1217.268	917.734
169.994	15.064	1216.287	918.054
171.008	15.111	1215.279	917.466
172.023	15.087	1214.948	917.003
173.037	15.200	1213.889	916.744
174.052	15.002	1213.231	915.083
175.067	14.946	1212.332	914.016
176.081	14.873	1211.076	912.592
177.096	14.944	1210.089	912.154
178.110	14.880	1209.023	910.919
179.125	14.997	1207.942	910.662
180.140	14.997	1206.775	909.702
181.154	15.084	1205.720	909.299
182.169	15.098	1204.264	908.195
183.183	15.116	1203.418	907.578
184.198	15.168	1202.117	906.796
185.213	15.136	1201.024	905.719
186.227	15.262	1199.635	905.274
187.242	15.257	1198.805	904.539
188.256	15.412	1198.108	904.766
189.271	15.322	1196.884	903.277
190.286	15.160	1195.919	901.597
191.300	14.931	1195.167	899.720
192.315	14.905	1194.289	898.841
193.329	14.922	1193.736	898.434
194.344	14.938	1193.231	898.064
195.359	15.064	1192.850	898.375
196.373	15.144	1192.466	898.432
197.388	15.223	1192.000	898.426
198.402	15.294	1191.294	898.196
199.417	15.421	1190.876	898.478
200.432	15.438	1190.139	897.937
201.446	15.523	1189.037	897.478
202.461	15.552	1188.205	896.928
203.475	15.564	1187.432	896.329
204.490	15.412	1186.026	894.374
205.504	15.452	1184.820	893.601
206.519	15.379	1183.650	892.249
207.534	15.357	1182.392	891.109
208.548	15.449	1181.672	890.973
209.563	15.418	1180.882	890.136
210.577	15.341	1180.193	889.127
211.592	15.479	1178.922	888.824
212.607	15.566	1178.326	888.755
213.621	15.553	1177.622	888.079
214.636	15.562	1176.296	887.045
215.650	15.582	1175.513	886.484
216.665	15.529	1174.915	885.674
217.680	15.666	1174.146	885.739
218.694	15.767	1172.856	885.219
219.709	15.750	1171.898	884.325
220.723	15.647	1171.722	883.576
221.738	15.686	1170.835	883.034
222.753	15.739	1169.987	882.594
223.767	15.804	1169.421	882.428
224.782	15.762	1168.642	881.541
225.796	15.850	1168.432	881.769
226.811	15.812	1167.528	880.811
227.826	15.738	1166.647	879.676
228.840	15.748	1165.873	879.070
229.855	15.771	1164.869	878.356
230.869	15.742	1164.360	877.740
231.884	15.661	1163.397	876.513
232.899	15.726	1162.851	876.363
233.913	15.693	1161.841	875.355
234.928	15.683	1161.066	874.640
235.942	15.636	1160.786	874.108
236.957	15.732	1159.676	873.695
237.972	15.679	1158.780	872.664
238.986	15.621	1158.731	872.249
240.001	15.797	1157.531	872.183
241.015	15.768	1156.866	871.454
242.030	15.792	1155.631	870.572
243.045	15.814	1155.367	870.409
244.059	15.870	1154.211	869.753
245.074	15.919	1153.510	869.399
246.088	15.993	1152.999	869.318
247.103	15.992	1151.986	868.473
248.117	15.945	1151.620	867.880
249.132	16.083	1151.136	868.147
250.147	16.304	1149.908	868.281
251.161	16.397	1149.292	868.215
252.176	16.315	1148.624	867.214
253.190	16.347	1148.222	866.997
254.205	16.428	1147.238	866.594
255.220	16.328	1147.254	866.017
256.234	16.473	1146.500	866.115
257.249	16.434	1145.812	865.319
258.263	16.337	1145.386	864.423
259.278	16.303	1144.623	863.598
260.293	16.458	1143.931	863.791
261.307	16.411	1143.759	863.345
262.322	16.514	1142.469	862.818
263.336	16.421	1142.049	861.953
264.351	16.438	1141.239	861.351
265.366	16.649	1140.253	861.604
266.380	16.508	1139.854	860.511
267.395	16.529	1139.021	859.912
268.409	16.471	1138.496	859.144
269.424	16.508	1137.935	858.830
270.439	16.467	1136.929	857.788
271.453	16.484	1136.173	857.229
272.468	16.326	1135.282	855.679
273.482	16.501	1134.727	856.074
274.497	16.490	1133.918	855.332
275.512	16.414	1133.471	854.533
276.526	16.400	1133.151	854.143
277.541	16.591	1131.896	854.089
278.555	16.536	1131.437	853.391
279.570	16.600	1130.377	852.837
280.585	16.759	1129.522	852.917
281.599	16.647	1129.145	851.994
282.614	16.603	1127.520	850.471
283.628	16.503	1126.969	849.476
284.643	16.620	1125.708	849.038
285.657	16.756	1125.110	849.195
286.672	16.720	1124.273	848.306
287.687	16.655	1123.213	847.109
288.701	16.618	1122.884	846.600
289.716	16.675	1121.919	846.083
290.730	16.758	1121.032	845.752
291.745	16.735	1120.553	845.203
292.760	16.707	1120.325	844.816
293.774	16.844	1119.446	844.761
294.789	16.953	1118.712	844.675
295.803	16.827	1118.110	843.516
296.818	16.721	1117.170	842.206
297.833	16.794	1116.483	841.978
298.847	16.767	1116.097	841.478
299.862	16.811	1115.001	840.794
300.876	16.872	1114.186	840.407
301.891	16.867	1113.910	840.099
302.906	16.966	1112.840	839.712
303.920	16.999	1112.333	839.414
304.935	17.002	1112.112	839.190
305.949	17.169	1110.917	839.037
306.964	17.178	1110.132	838.418
307.979	17.069	1109.989	837.695
308.993	17.083	1108.868	836.845
310.008	17.060	1108.411	836.313
311.022	17.170	1107.374	836.000
312.037	17.149	1106.595	835.231
313.052	17.116	1105.742	834.355
314.066	16.977	1104.965	833.010
315.081	17.077	1103.900	832.625
316.095	16.795	1103.727	831.039
317.110	16.957	1102.916	831.144
318.125	17.004	1101.541	830.267
319.139	17.047	1101.257	830.189
320.154	16.919	1100.364	828.817
321.168	17.004	1099.956	828.851
322.183	17.102	1099.346	828.797
323.197	17.048	1098.907	828.130
324.212	17.139	1098.478	828.176
325.227	17.029	1097.823	827.073
326.241	17.102	1096.972	826.716
327.256	17.021	1096.183	825.655
328.270	17.005	1095.327	824.856
329.285	17.182	1094.164	824.768
330.300	17.156	1093.339	823.948
331.314	17.083	1092.695	823.034
332.329	17.098	1091.803	822.361
333.343	17.172	1090.912	821.978
334.358	17.317	1089.917	821.857
335.373	17.235	1089.531	821.096
336.387	17.304	1088.495	820.575
337.402	17.171	1088.393	819.782
338.416	17.351	1087.182	819.668
339.431	17.416	1086.458	819.361
340.446	17.526	1085.675	819.227
341.460	17.533	1085.325	818.924
342.475	17.439	1084.766	817.977
343.489	17.552	1083.512	817.505
344.504	17.665	1082.773	817.415
345.519	17.528	1082.159	816.221
346.533	17.725	1081.060	816.265
347.548	17.761	1080.206	815.720
348.562	17.737	1079.560	815.045
349.577	17.641	1078.798	813.939
350.592	17.489	1078.367	812.817
351.606	17.440	1077.301	811.709
352.621	17.471	1076.472	811.159
353.635	17.481	1075.593	810.473
354.650	17.538	1074.517	809.861
355.665	17.557	1074.399	809.788
356.679	17.531	1073.653	809.034
357.694	17.580	1073.598	809.151
358.708	17.642	1072.616	808.633
359.723	17.696	1071.964	808.328
360.738	17.652	1071.234	807.496
361.752	17.646	1071.164	807.344
362.767	17.675	1070.521	806.928
363.781	17.788	1069.929	806.942
364.796	17.753	1069.544	806.414
365.810	17.810	1068.881	806.114
366.825	17.946	1067.858	805.915
367.840	17.982	1067.694	805.888
368.854	17.987	1066.943	805.275
369.869	18.065	1066.269	805.062
370.883	18.046	1065.041	803.972
371.898	18.071	1064.524	803.631
372.913	17.927	1064.001	802.489
373.927	17.983	1063.870	802.579
374.942	18.079	1062.912	802.236
375.956	18.135	1062.412	802.052
376.971	17.993	1061.711	800.784
377.986	17.956	1061.538	800.412
379.000	18.012	1061.021	800.210
380.015	18.197	1060.457	800.583
381.029	18.258	1059.697	800.224
382.044	18.204	1058.978	799.354
383.059	18.308	1057.775	798.863
384.073	18.163	1057.349	797.792
385.088	18.230	1056.481	797.382
386.102	18.198	1055.812	796.659
387.117	18.174	1054.729	795.657
388.132	18.049	1054.018	794.468
389.146	18.049	1053.132	793.732
390.161	18.133	1052.117	793.287
391.175	18.163	1051.492	792.885
392.190	18.225	1050.723	792.522
393.205	18.327	1050.104	792.457
394.219	18.253	1049.467	791.561
395.234	18.305	1048.493	790.995
396.248	18.193	1047.599	789.736
397.263	18.193	1046.636	788.942
398.278	18.094	1045.640	787.663
399.292	18.118	1045.110	787.306
400.307	18.244	1044.313	787.214
401.321	18.150	1043.982	786.462
402.336	18.133	1043.451	785.916
403.350	18.204	1042.231	785.253
404.365	18.245	1041.726	784.990
405.380	18.185	1041.071	784.155
406.394	18.203	1040.751	783.927
407.409	18.388	1039.725	783.928
408.423	18.308	1039.319	783.190
409.438	18.299	1038.686	782.602
410.453	18.457	1037.841	782.617
411.467	18.566	1036.939	782.364
412.482	18.592	1036.495	782.078
413.496	18.768	1035.464	782.032
414.511	18.558	1035.160	780.777
415.526	18.754	1034.847	781.364
416.540	18.747	1034.187	780.766
417.555	18.631	1034.084	780.091
418.569	18.773	1033.315	780.087
419.584	18.775	1032.876	779.697
420.599	18.650	1032.418	778.715
421.613	150.722	1401.264	1795.234
422.628	137.570	1454.974	1795.300
