DTS Sentinel unit serial number:	SN413079Multiplexer serial number:	ORYXHardware model number:	OX4-SRSoftware version number:	ORYX F/W v4.00 Oryx Data Collector v3.7.2.0data status	okinstallation	princeton_trtdifferential loss correction	single-endedforward channel	channel 2reverse channel	N/Adate	2019/09/12time	07:45:11forward acquisition time	60.00reverse acquisition time	0.00gamma	496.2192k internal	0.2321k external	0.2321temperature offset calibration	1.0059default loss term (dB/km)	0.3790temperature slope calibration	1.0000multiplexer offset coefficient	1.0000multiplexer slope coefficient	1.0000fibre end	0.00T internal ref (°C)	32.80T ext. ref 1 (°C)	1.63T ext. ref 2 (°C)	28.87length (m)	temperature (°C)	Stokes	anti-Stokes-747.200	32.602	0.143	-0.125
-746.185	44.517	-0.180	0.167
-745.171	800.000	0.097	0.350
-744.156	-70.313	0.307	0.118
-743.142	-200.000	-0.023	0.277
-742.127	800.000	0.099	0.409
-741.112	91.167	0.184	0.209
-740.098	-87.079	-0.428	0.132
-739.083	-40.971	-0.169	0.088
-738.069	-3.103	-0.086	0.060
-737.054	800.000	0.076	0.262
-736.039	-40.721	0.301	-0.157
-735.025	-200.000	0.054	0.258
-734.010	-200.000	-0.296	-0.000
-732.996	-137.323	-0.221	-0.025
-731.981	-48.746	-0.139	-0.068
-730.966	-200.000	-0.025	-0.187
-729.952	-66.318	0.055	0.022
-728.937	-122.754	0.392	-0.064
-727.923	-34.102	-0.205	0.114
-726.908	-200.000	0.029	0.425
-725.894	-104.864	-0.143	0.033
-724.879	243.489	0.182	-0.308
-723.864	-65.696	0.396	0.160
-722.850	-200.000	0.012	0.136
-721.835	-200.000	0.012	-0.364
-720.821	6.076	0.284	0.213
-719.806	-103.610	0.281	-0.067
-718.791	-200.000	-0.005	-0.338
-717.777	800.000	-0.055	0.187
-716.762	-200.000	0.024	-0.166
-715.748	-200.000	-0.028	-0.146
-714.733	38.335	0.158	-0.142
-713.718	-200.000	0.022	0.189
-712.704	14.073	0.088	0.069
-711.689	264.662	-0.116	-0.203
-710.675	7.483	0.123	-0.093
-709.660	-133.242	0.466	-0.059
-708.645	105.495	-0.356	0.424
-707.631	84.371	-0.044	0.048
-706.616	800.000	-0.054	0.233
-705.602	196.786	-0.241	-0.370
-704.587	268.282	-0.062	-0.110
-703.572	-116.889	-0.183	0.034
-702.558	-131.728	-0.095	-0.013
-701.543	201.098	-0.268	0.416
-700.529	38.413	-0.241	0.217
-699.514	-54.818	0.324	0.148
-698.499	-200.000	0.011	0.270
-697.485	-102.517	0.083	-0.020
-696.470	76.421	-0.202	0.216
-695.456	-200.000	0.047	0.309
-694.441	-200.000	0.034	0.396
-693.426	-153.740	-0.118	0.008
-692.412	-127.100	0.294	0.043
-691.397	339.294	0.027	-0.054
-690.383	24.486	-0.069	-0.057
-689.368	-102.458	-0.417	-0.101
-688.354	-169.190	0.374	-0.014
-687.339	-79.054	-0.097	0.033
-686.324	-200.000	0.015	-0.423
-685.310	800.000	-0.114	-0.347
-684.295	-38.655	-0.128	0.068
-683.281	-200.000	-0.017	-0.082
-682.266	511.460	0.097	0.227
-681.251	-1.231	0.306	0.218
-680.237	378.626	0.112	-0.231
-679.222	475.839	-0.038	-0.087
-678.208	-200.000	-0.042	-0.205
-677.193	-47.335	0.213	0.104
-676.178	-135.716	-0.097	-0.012
-675.164	-46.148	0.276	0.137
-674.149	-168.420	-0.123	0.005
-673.135	-10.826	-0.065	0.044
-672.120	224.524	-0.108	-0.176
-671.105	-90.035	0.062	-0.018
-670.091	800.000	-0.073	-0.274
-669.076	-110.718	-0.394	0.082
-668.062	411.230	-0.195	-0.416
-667.047	-90.434	0.141	0.041
-666.032	57.079	0.061	-0.060
-665.018	-200.000	0.031	-0.182
-664.003	126.151	-0.123	0.157
-662.989	-66.326	0.131	0.052
-661.974	356.419	0.054	-0.109
-660.959	69.874	-0.300	-0.311
-659.945	544.511	0.073	-0.176
-658.930	88.440	0.308	-0.345
-657.916	-200.000	-0.010	-0.535
-656.901	238.249	0.056	-0.094
-655.886	-200.000	-0.004	0.176
-654.872	-200.000	0.030	-0.165
-653.857	-200.000	0.032	-0.540
-652.843	-15.347	0.259	-0.166
-651.828	470.672	-0.102	0.230
-650.814	800.000	-0.011	-0.034
-649.799	78.729	-0.128	-0.138
-648.784	-200.000	-0.011	0.155
-647.770	-29.231	-0.406	-0.234
-646.755	-105.405	0.161	0.037
-645.741	-200.000	0.031	0.267
-644.726	-173.835	0.129	-0.004
-643.711	13.677	-0.159	0.124
-642.697	-200.000	-0.029	-0.186
-641.682	-130.928	0.330	0.044
-640.668	-200.000	0.013	0.229
-639.653	14.607	-0.084	-0.066
-638.638	380.823	0.086	0.177
-637.624	101.327	0.199	0.233
-636.609	-200.000	-0.009	-0.053
-635.595	-140.242	0.272	-0.029
-634.580	194.490	0.284	0.434
-633.565	-200.000	-0.010	-0.246
-632.551	66.108	-0.221	-0.226
-631.536	53.419	-0.226	-0.219
-630.522	110.822	0.021	0.026
-629.507	-38.778	-0.141	-0.075
-628.492	16.380	0.179	-0.142
-627.478	40.869	0.237	0.215
-626.463	756.241	-0.130	0.355
-625.449	-55.020	-0.176	0.080
-624.434	-56.558	0.499	-0.222
-623.419	144.318	-0.250	0.336
-622.405	-39.710	0.129	0.068
-621.390	-89.153	-0.442	-0.131
-620.376	-59.625	0.061	-0.026
-619.361	397.277	0.112	-0.236
-618.346	-200.000	-0.004	-0.089
-617.332	202.303	-0.054	-0.084
-616.317	-123.502	0.142	-0.023
-615.303	183.333	-0.071	0.105
-614.288	-21.875	0.083	-0.051
-613.273	-117.907	0.319	0.058
-612.259	163.952	-0.125	0.177
-611.244	-80.011	-0.186	-0.063
-610.230	209.323	0.129	-0.204
-609.215	-86.916	-0.174	-0.053
-608.201	-165.737	-0.362	-0.016
-607.186	198.245	0.070	-0.108
-606.171	-130.303	0.121	0.016
-605.157	14.125	-0.217	-0.170
-604.142	190.077	-0.149	0.225
-603.128	33.610	-0.096	-0.084
-602.113	800.000	-0.123	0.350
-601.098	145.284	0.091	0.122
-600.084	24.611	-0.221	0.184
-599.069	-74.484	0.375	0.136
-598.055	-101.652	0.282	-0.069
-597.040	-200.000	-0.019	-0.112
-596.025	-82.972	-0.417	0.135
-595.011	-73.994	0.030	-0.011
-593.996	41.003	0.251	0.227
-592.982	284.980	-0.036	0.066
-591.967	-138.333	-0.226	-0.025
-590.952	18.295	0.137	0.110
-589.938	665.007	0.072	0.186
-588.923	14.246	0.235	0.184
-587.909	-6.767	0.174	0.119
-586.894	-200.000	-0.009	0.114
-585.879	259.077	-0.185	0.321
-584.865	335.292	-0.139	-0.270
-583.850	-56.272	-0.105	0.047
-582.836	17.852	-0.054	0.043
-581.821	-67.032	0.397	-0.157
-580.806	-132.159	-0.100	0.013
-579.792	156.081	-0.265	-0.367
-578.777	800.000	-0.036	0.141
-577.763	39.184	-0.024	-0.021
-576.748	-200.000	0.026	0.554
-575.733	-34.857	-0.345	-0.189
-574.719	16.991	0.240	-0.191
-573.704	-39.046	-0.128	-0.068
-572.690	-31.995	0.270	0.152
-571.675	-7.371	0.185	-0.126
-570.661	-200.000	-0.028	-0.296
-569.646	-52.939	0.150	0.069
-568.631	-81.404	-0.232	-0.077
-567.617	283.897	0.113	0.203
-566.602	53.412	0.257	0.248
-565.588	51.114	-0.282	0.269
-564.573	-193.051	-0.214	0.002
-563.558	-95.061	-0.079	-0.021
-562.544	55.462	0.260	-0.252
-561.529	75.042	0.195	0.206
-560.515	-197.552	-0.453	0.003
-559.500	800.000	0.023	0.087
-558.485	-32.314	0.243	-0.136
-557.471	164.770	-0.177	-0.250
-556.456	30.953	-0.164	0.141
-555.442	-200.000	-0.032	-0.211
-554.427	119.915	-0.052	-0.065
-553.412	165.021	-0.063	-0.089
-552.398	800.000	-0.067	0.192
-551.383	45.807	0.429	-0.398
-550.369	-79.803	0.309	0.104
-549.354	238.828	0.177	0.296
-548.339	-200.000	0.038	0.176
-547.325	-128.059	-0.424	-0.061
-546.310	40.725	-0.110	-0.099
-545.296	29.299	-0.239	-0.203
-544.281	-41.690	0.092	0.047
-543.266	709.682	0.130	0.346
-542.252	-94.658	0.121	0.033
-541.237	-200.000	-0.100	-0.445
-540.223	6.037	0.334	-0.248
-539.208	31.246	0.215	-0.185
-538.193	-161.513	0.011	0.001
-537.179	120.338	0.184	-0.230
-536.164	3.482	0.072	-0.052
-535.150	33.359	0.214	-0.187
-534.135	-200.000	-0.031	-0.145
-533.121	-200.000	-0.061	0.425
-532.106	-200.000	0.010	-0.120
-531.091	-84.847	0.050	0.016
-530.077	-125.990	-0.112	-0.017
-529.062	-36.460	-0.212	0.115
-528.048	800.000	-0.024	-0.076
-527.033	-121.205	0.136	0.023
-526.018	306.602	0.212	0.395
-525.004	225.993	0.129	-0.210
-523.989	-200.000	0.010	0.052
-522.975	362.127	-0.176	0.354
-521.960	-200.000	-0.001	-0.009
-520.945	-75.433	-0.123	-0.044
-519.931	323.442	-0.111	-0.211
-518.916	162.402	-0.065	-0.092
-517.902	-67.643	0.325	0.128
-516.887	-200.000	-0.014	0.080
-515.872	15.850	0.055	-0.043
-514.858	124.125	-0.190	-0.239
-513.843	-200.000	0.054	0.246
-512.829	212.411	-0.203	0.321
-511.814	543.511	0.055	0.131
-510.799	44.492	-0.285	-0.262
-509.785	-56.088	-0.162	-0.072
-508.770	115.382	-0.241	-0.295
-507.756	39.729	0.017	0.015
-506.741	-84.178	-0.249	0.079
-505.726	-72.225	-0.211	-0.078
-504.712	45.129	-0.176	0.162
-503.697	121.401	-0.160	-0.200
-502.683	185.536	-0.081	0.120
-501.668	-94.611	-0.036	0.010
-500.653	-54.360	0.209	-0.095
-499.639	-114.438	-0.200	0.039
-498.624	198.069	0.135	0.206
-497.610	-30.860	0.293	0.166
-496.595	22.179	-0.151	-0.124
-495.581	150.181	0.044	-0.060
-494.566	-20.035	0.275	0.170
-493.551	-165.311	-0.259	0.011
-492.537	-74.322	0.224	-0.081
-491.522	-200.000	-0.014	0.064
-490.508	35.428	0.091	-0.080
-489.493	800.000	-0.034	0.127
-488.478	152.051	-0.114	-0.156
-487.464	304.833	-0.012	-0.022
-486.449	-52.641	-0.242	-0.112
-485.435	167.347	0.034	0.048
-484.420	800.000	-0.039	-0.140
-483.405	-97.409	-0.079	0.020
-482.391	-200.000	0.030	0.319
-481.376	501.604	-0.074	0.171
-480.362	647.495	-0.092	0.235
-479.347	-200.000	-0.013	-0.238
-478.332	-22.975	-0.175	0.106
-477.318	46.957	-0.201	0.187
-476.303	185.550	-0.072	0.107
-475.289	188.309	0.178	-0.266
-474.274	800.000	0.051	-0.154
-473.259	-99.434	-0.315	-0.079
-472.245	89.286	-0.315	-0.351
-471.230	150.906	0.196	-0.266
-470.216	585.071	0.098	-0.242
-469.201	-112.499	-0.228	0.046
-468.186	-192.253	0.281	0.003
-467.172	18.753	-0.269	-0.215
-466.157	-161.364	0.175	0.009
-465.143	800.000	0.053	0.191
-464.128	-200.000	0.006	-0.178
-463.113	-91.374	0.361	0.103
-462.099	-76.524	0.123	0.043
-461.084	79.241	-0.038	0.040
-460.070	-45.058	0.131	0.065
-459.055	-200.000	-0.007	-0.137
-458.040	-124.259	-0.165	-0.026
-457.026	-149.243	-0.245	0.020
-456.011	156.157	0.212	0.292
-454.997	-41.645	-0.283	0.145
-453.982	-171.003	0.288	-0.010
-452.968	187.812	0.147	-0.219
-451.953	-74.117	0.178	-0.064
-450.938	-200.000	-0.026	-0.151
-449.924	-200.000	0.026	0.155
-448.909	46.149	0.319	0.295
-447.895	-200.000	-0.033	-0.303
-446.880	800.000	0.062	-0.216
-445.865	43.857	0.291	0.266
-444.851	-101.188	0.271	0.066
-443.836	-157.018	-0.187	0.011
-442.822	-200.000	0.049	-0.328
-441.807	-120.767	-0.348	0.059
-440.792	800.000	0.152	0.516
-439.778	-97.288	0.190	-0.050
-438.763	-118.982	-0.197	0.034
-437.749	81.755	0.130	0.141
-436.734	-60.476	0.096	0.041
-435.719	59.740	-0.197	-0.194
-434.705	-14.814	0.154	-0.099
-433.690	-162.210	-0.377	0.019
-432.676	182.363	0.118	-0.173
-431.661	-57.688	0.259	-0.113
-430.646	9.570	0.263	-0.199
-429.632	800.000	-0.128	-0.460
-428.617	800.000	-0.029	0.084
-427.603	641.031	0.091	0.232
-426.588	-200.000	0.008	-0.128
-425.573	-121.897	-0.259	-0.043
-424.559	-127.221	-0.242	0.035
-423.544	800.000	0.037	0.112
-422.530	-111.309	-0.114	-0.023
-421.515	788.784	-0.189	0.517
-420.500	-98.031	0.133	0.034
-419.486	-16.515	-0.326	-0.206
-418.471	92.863	-0.186	0.209
-417.457	291.575	0.096	0.175
-416.442	62.916	-0.097	0.097
-415.428	7.940	-0.058	-0.043
-414.413	-200.000	0.010	0.254
-413.398	-9.690	-0.175	0.117
-412.384	556.313	0.014	-0.033
-411.369	50.269	-0.220	0.208
-410.355	-118.318	-0.297	0.053
-409.340	-90.591	-0.150	-0.043
-408.325	-92.830	0.171	-0.048
-407.311	12.474	0.058	0.044
-406.296	-5.815	-0.175	-0.119
-405.282	-53.963	0.225	0.102
-404.267	-200.000	0.034	-0.217
-403.252	800.000	-0.111	-0.306
-402.238	-73.819	0.193	-0.070
-401.223	-76.071	0.235	0.083
-400.209	35.284	-0.058	-0.050
-399.194	-200.000	-0.005	0.116
-398.179	-13.357	0.124	0.081
-397.165	800.000	-0.026	0.084
-396.150	-200.000	-0.005	-0.298
-395.136	669.905	-0.062	-0.159
-394.121	593.242	-0.061	-0.149
-393.106	-200.000	-0.020	0.157
-392.092	725.583	0.127	0.338
-391.077	-85.078	0.139	-0.043
-390.063	75.208	-0.082	0.086
-389.048	0.353	0.148	-0.105
-388.033	656.669	-0.169	-0.432
-387.019	504.892	0.124	-0.285
-386.004	-28.135	-0.116	0.067
-384.990	-64.725	0.283	0.114
-383.975	-62.183	0.460	0.191
-382.960	53.202	0.116	-0.111
-381.946	-200.000	-0.034	0.152
-380.931	-116.862	0.398	0.073
-379.917	36.378	-0.357	-0.313
-378.902	-96.102	0.167	-0.044
-377.888	-137.192	0.188	0.021
-376.873	-34.742	0.140	-0.076
-375.858	-192.080	0.109	-0.001
-374.844	-200.000	-0.001	-0.051
-373.829	-185.004	0.369	0.006
-372.815	-183.020	-0.101	-0.002
-371.800	800.000	-0.030	0.100
-370.785	800.000	-0.042	0.125
-369.771	-33.778	0.204	-0.112
-368.756	-151.868	-0.148	0.011
-367.742	-200.000	-0.071	0.319
-366.727	23.634	0.068	-0.056
-365.712	-73.852	0.065	0.024
-364.698	378.398	-0.093	-0.189
-363.683	86.589	0.125	-0.137
-362.669	79.534	0.150	-0.161
-361.654	21.228	0.124	0.100
-360.639	-117.852	-0.374	-0.067
-359.625	800.000	-0.046	-0.150
-358.610	237.874	-0.153	-0.253
-357.596	-200.000	-0.006	0.275
-356.581	-59.289	0.187	0.080
-355.566	74.129	-0.192	0.200
-354.552	3.779	-0.336	-0.244
-353.537	86.518	0.045	0.050
-352.523	217.101	-0.171	-0.271
-351.508	-85.412	-0.184	0.057
-350.493	-89.021	0.159	0.047
-349.479	-59.979	-0.207	0.088
-348.464	-200.000	0.014	0.107
-347.450	305.119	0.153	0.284
-346.435	24.503	-0.249	-0.205
-345.420	310.931	0.019	-0.035
-344.406	60.436	0.037	0.036
-343.391	-36.446	-0.079	0.042
-342.377	-200.000	-0.010	0.287
-341.362	-67.121	-0.280	-0.110
-340.348	-17.806	0.145	-0.091
-339.333	-24.376	-0.227	-0.135
-338.318	-57.174	-0.243	-0.107
-337.304	-182.653	0.214	-0.004
-336.289	95.160	0.054	-0.061
-335.275	19.727	0.174	-0.140
-334.260	251.747	0.109	-0.185
-333.245	-101.263	-0.060	-0.015
-332.231	51.557	0.276	-0.261
-331.216	800.000	-0.034	0.123
-330.202	530.725	-0.100	0.235
-329.187	-149.205	0.227	0.018
-328.172	-113.760	-0.095	-0.018
-327.158	-146.424	-0.388	0.034
-326.143	11.918	-0.123	-0.094
-325.129	800.000	-0.109	-0.331
-324.114	-145.963	0.288	0.025
-323.099	-140.268	0.060	-0.006
-322.085	40.689	-0.265	0.238
-321.070	-77.021	0.054	-0.019
-320.056	110.444	-0.146	0.174
-319.041	55.181	0.152	-0.146
-318.026	-3.213	0.141	-0.098
-317.012	420.924	-0.080	-0.171
-315.997	-52.432	-0.185	-0.085
-314.983	-112.235	-0.203	0.040
-313.968	12.704	-0.102	-0.078
-312.953	-200.000	-0.004	-0.392
-311.939	-200.000	0.013	-0.072
-310.924	53.808	0.082	-0.078
-309.910	-95.086	0.410	-0.110
-308.895	-200.000	-0.011	-0.075
-307.880	589.068	0.055	0.136
-306.866	-105.372	-0.215	-0.049
-305.851	-18.656	0.076	0.047
-304.837	-151.590	0.172	-0.013
-303.822	60.632	0.120	-0.118
-302.807	-134.309	0.220	0.027
-301.793	-60.023	0.108	0.046
-300.778	800.000	0.054	0.232
-299.764	-200.000	-0.015	0.078
-298.749	800.000	0.077	0.333
-297.735	-6.819	0.232	-0.157
-296.720	-200.000	-0.035	-0.188
-295.705	-200.000	-0.022	-0.340
-294.691	-37.941	0.484	-0.255
-293.676	63.201	0.052	0.052
-292.662	293.294	0.093	-0.168
-291.647	-134.470	-0.131	0.016
-290.632	-195.358	0.182	-0.001
-289.618	-112.927	-0.315	0.062
-288.603	478.414	0.069	-0.154
-287.589	-23.939	0.353	-0.210
-286.574	800.000	-0.051	0.173
-285.559	-200.000	-0.026	0.196
-284.545	96.880	0.123	-0.139
-283.530	19.265	0.028	0.023
-282.516	800.000	0.110	0.364
-281.501	800.000	0.024	-0.074
-280.486	98.072	0.204	-0.233
-279.472	361.117	-0.088	-0.175
-278.457	-113.106	-0.307	-0.060
-277.443	800.000	-0.106	-0.317
-276.428	580.009	-0.137	0.333
-275.413	100.928	0.259	0.299
-274.399	-39.104	0.172	0.090
-273.384	-116.673	-0.177	-0.032
-272.370	-44.289	0.311	0.155
-271.355	-200.000	0.048	-0.245
-270.340	-7.806	-0.305	0.204
-269.326	-200.000	-0.020	-0.230
-268.311	-88.368	-0.216	0.064
-267.297	8.940	0.148	-0.111
-266.282	44.306	-0.089	0.081
-265.267	-77.495	-0.196	0.067
-264.253	800.000	-0.017	-0.052
-263.238	17.334	0.248	0.195
-262.224	-171.899	-0.261	0.008
-261.209	185.470	0.071	0.105
-260.195	-61.883	-0.379	-0.157
-259.180	7.083	0.104	0.077
-258.165	-121.420	0.243	0.040
-257.151	-132.018	0.169	-0.022
-256.136	800.000	-0.037	0.157
-255.122	57.222	0.081	0.078
-254.107	359.218	0.096	0.191
-253.092	-103.795	-0.350	0.081
-252.078	454.198	0.065	0.142
-251.063	417.009	-0.173	0.367
-250.049	-1.319	-0.035	0.024
-249.034	53.977	-0.162	-0.154
-248.019	-83.935	-0.134	-0.042
-247.005	-105.334	-0.219	0.050
-245.990	127.643	0.185	-0.233
-244.976	62.253	0.091	-0.090
-243.961	-200.000	0.113	0.000
-242.946	-200.000	0.043	0.231
-241.932	-29.731	0.041	-0.023
-240.917	226.174	-0.239	-0.384
-239.903	-200.000	-0.026	0.259
-238.888	800.000	-0.012	0.040
-237.873	800.000	0.109	-0.346
-236.859	-128.249	-0.209	0.030
-235.844	-102.183	0.154	0.037
-234.830	-17.998	0.377	-0.234
-233.815	45.380	0.077	0.070
-232.800	800.000	-0.065	0.231
-231.786	-139.155	0.079	0.008
-230.771	-200.000	0.063	0.423
-229.757	87.281	0.211	-0.231
-228.742	-111.093	0.222	0.045
-227.727	100.938	0.264	0.305
-226.713	-200.000	0.032	0.221
-225.698	319.456	-0.187	0.352
-224.684	-87.885	0.351	0.105
-223.669	58.873	0.220	-0.214
-222.655	-89.635	-0.212	-0.062
-221.640	-118.734	0.061	0.011
-220.625	-100.781	-0.165	0.040
-219.611	144.179	0.272	-0.359
-218.596	-6.547	0.098	0.066
-217.582	64.663	0.224	-0.223
-216.567	-200.000	-0.011	0.148
-215.552	-200.000	0.027	0.133
-214.538	231.096	0.098	0.158
-213.523	-200.000	-0.014	0.174
-212.509	67.762	-0.172	0.174
-211.494	-200.000	-0.003	-0.267
-210.479	217.693	0.094	-0.148
-209.465	800.000	0.014	0.047
-208.450	244.780	0.155	-0.257
-207.436	-200.000	-0.009	0.101
-206.421	800.000	0.065	0.278
-205.406	109.859	-0.302	-0.358
-204.392	-117.748	-0.068	-0.012
-203.377	111.487	-0.128	-0.152
-202.363	-168.981	-0.200	0.007
-201.348	427.268	0.063	0.135
-200.333	300.861	-0.127	0.232
-199.319	800.000	0.064	0.265
-198.304	-200.000	-0.018	-0.183
-197.290	800.000	0.061	-0.216
-196.275	81.329	-0.046	0.050
-195.260	43.981	-0.122	-0.110
-194.246	800.000	0.074	0.214
-193.231	84.232	-0.172	-0.186
-192.217	12.415	0.208	-0.159
-191.202	7.067	-0.405	0.298
-190.187	800.000	-0.042	0.123
-189.173	800.000	-0.102	0.410
-188.158	-69.176	-0.238	0.090
-187.144	-119.475	0.062	0.011
-186.129	25.864	-0.106	0.087
-185.114	223.000	-0.155	-0.247
-184.100	800.000	0.094	-0.307
-183.085	293.837	0.013	0.024
-182.071	27.352	0.094	-0.078
-181.056	-19.141	0.037	-0.023
-180.042	-200.000	-0.039	-0.224
-179.027	-35.921	0.183	-0.098
-178.012	271.534	-0.146	0.255
-176.998	-200.000	-0.058	0.260
-175.983	173.737	0.227	-0.324
-174.969	-200.000	0.004	-0.060
-173.954	346.342	-0.036	-0.070
-172.939	-200.000	0.008	-0.124
-171.925	25.909	0.165	-0.136
-170.910	-10.404	-0.170	0.112
-169.896	240.322	0.060	0.099
-168.881	800.000	-0.047	0.145
-167.866	-143.966	-0.455	-0.042
-166.852	157.283	0.033	-0.045
-165.837	-59.857	0.293	-0.124
-164.823	-200.000	-0.024	-0.118
-163.808	-46.050	-0.082	0.040
-162.793	96.663	-0.133	-0.151
-161.779	-200.000	-0.013	0.150
-160.764	800.000	-0.071	-0.285
-159.750	257.029	0.057	0.096
-158.735	154.381	-0.177	-0.240
-157.720	0.438	0.187	-0.132
-156.706	79.449	-0.225	0.238
-155.691	-138.465	-0.188	0.020
-154.677	440.043	-0.100	0.215
-153.662	-115.008	0.064	-0.012
-152.647	-28.626	-0.184	0.104
-151.633	317.327	-0.020	0.037
-150.618	-200.000	0.008	0.258
-149.604	800.000	-0.033	-0.116
-148.589	-200.000	0.008	0.196
-147.574	-178.709	0.118	-0.003
-146.560	73.751	0.041	0.043
-145.545	77.567	-0.217	-0.228
-144.531	-200.000	0.037	-0.227
-143.516	316.162	-0.151	0.281
-142.502	-78.134	0.118	-0.040
-141.487	-176.031	-0.165	-0.004
-140.472	11.006	0.266	-0.201
-139.458	393.333	-0.028	0.058
-138.443	-200.000	0.009	0.257
-137.429	12.969	-0.005	0.004
-136.414	-200.000	-0.008	-0.060
-135.399	-200.000	0.010	0.317
-134.385	800.000	-0.070	0.243
-133.370	146.698	0.109	0.144
-132.356	330.813	-0.058	-0.110
-131.341	-5.471	0.170	0.115
-130.326	206.877	-0.054	0.083
-129.312	-45.540	-0.080	-0.039
-128.297	-200.000	-0.004	-0.058
-127.283	84.086	0.109	0.118
-126.268	800.000	-0.069	-0.249
-125.253	597.154	-0.107	-0.262
-124.239	343.418	0.151	-0.292
-123.224	-32.527	0.084	-0.046
-122.210	-104.045	0.125	-0.029
-121.195	61.475	-0.104	0.102
-120.180	196.880	0.341	0.513
-119.166	-61.397	0.173	-0.072
-118.151	-200.000	-0.002	0.186
-117.137	-58.271	-0.198	-0.085
-116.122	-149.402	0.362	-0.028
-115.107	-35.233	0.116	-0.062
-114.093	68.530	0.301	0.304
-113.078	10.689	0.194	-0.146
-112.064	-5.060	0.205	-0.139
-111.049	-17.152	0.030	-0.019
-110.034	-20.721	-0.142	-0.086
-109.020	800.000	-0.040	-0.146
-108.005	65.335	0.016	0.016
-106.991	-120.101	-0.347	-0.059
-105.976	135.057	0.124	-0.159
-104.962	-200.000	-0.020	-0.298
-103.947	24.274	0.170	-0.139
-102.932	800.000	0.120	0.342
-101.918	141.161	-0.230	0.299
-100.903	800.000	-0.069	0.227
-99.889	147.771	-0.089	-0.118
-98.874	264.040	-0.100	0.171
-97.859	-200.000	0.010	0.155
-96.845	467.478	0.067	0.148
-95.830	423.136	-0.192	0.406
-94.816	-85.626	-0.161	-0.049
-93.801	208.759	-0.064	-0.098
-92.786	-200.000	0.024	-0.117
-91.772	202.775	0.032	-0.049
-90.757	298.606	0.141	0.256
-89.743	-62.838	-0.033	-0.014
-88.728	479.177	0.098	-0.219
-87.713	-20.376	0.296	0.179
-86.699	-200.000	0.015	-0.131
-85.684	-127.190	-0.065	0.009
-84.670	122.549	0.133	0.164
-83.655	155.121	0.136	0.185
-82.640	23.189	0.175	-0.142
-81.626	60.553	-0.368	0.359
-80.611	800.000	0.119	0.338
-79.597	-200.000	-0.044	0.231
-78.582	-105.938	0.433	0.096
-77.567	800.000	0.078	0.245
-76.553	-53.708	0.178	0.080
-75.538	-128.088	-0.188	-0.027
-74.524	326.594	-0.040	0.075
-73.509	-104.386	0.221	-0.050
-72.494	336.354	-0.135	0.257
-71.480	-58.928	-0.324	0.138
-70.465	-39.920	0.103	0.053
-69.451	-85.676	0.183	-0.056
-68.436	-114.821	0.179	-0.034
-67.422	-46.475	0.202	-0.098
-66.407	-97.836	-0.201	-0.051
-65.392	-106.341	-0.154	-0.034
-64.378	137.955	-0.117	-0.151
-63.363	-44.712	0.289	-0.142
-62.349	-200.000	0.015	0.084
-61.334	800.000	-0.346	-1.095
-60.319	15.373	0.460	0.355
-59.305	-200.000	-0.156	-0.969
-58.290	217.647	0.610	0.956
-57.276	185.359	1.083	1.582
-56.261	-200.000	97.283	594.992
-55.246	550.701	1403.092	3311.793
-54.232	153.634	2598.584	3502.091
-53.217	106.310	2289.879	2669.391
-52.203	42.301	1907.217	1705.069
-51.188	36.146	1696.229	1469.652
-50.173	33.326	1652.165	1410.446
-49.159	51.335	1698.880	1586.622
-48.144	52.954	1715.095	1613.906
-47.130	35.698	1675.104	1447.747
-46.115	33.012	1660.262	1414.777
-45.100	32.847	1655.486	1409.422
-44.086	32.727	1652.744	1406.132
-43.071	32.738	1650.006	1403.829
-42.057	32.670	1647.356	1401.014
-41.042	32.786	1645.393	1400.153
-40.027	32.711	1643.888	1398.257
-39.013	32.654	1642.125	1396.279
-37.998	32.669	1640.425	1394.895
-36.984	32.770	1639.146	1394.497
-35.969	32.803	1637.558	1393.331
-34.954	32.888	1635.416	1392.081
-33.940	32.818	1634.047	1390.343
-32.925	32.726	1632.381	1388.198
-31.911	32.799	1630.680	1387.229
-30.896	32.780	1628.694	1385.349
-29.881	32.784	1627.062	1383.935
-28.867	32.709	1625.853	1382.297
-27.852	32.723	1624.082	1380.845
-26.838	32.765	1622.859	1380.055
-25.823	32.770	1621.181	1378.609
-24.809	32.775	1619.991	1377.583
-23.794	32.831	1618.243	1376.447
-22.779	32.803	1616.922	1375.062
-21.765	32.841	1614.957	1373.616
-20.750	32.863	1613.443	1372.437
-19.736	32.861	1611.762	1370.931
-18.721	32.906	1610.476	1370.113
-17.706	32.875	1609.135	1368.695
-16.692	32.788	1607.949	1366.997
-15.677	32.840	1606.404	1366.006
-14.663	32.825	1604.997	1364.649
-13.648	32.795	1603.645	1363.227
-12.633	32.732	1602.140	1361.443
-11.619	32.873	1600.524	1361.029
-10.604	32.835	1598.918	1359.340
-9.590	32.856	1597.681	1358.382
-8.575	32.888	1596.161	1357.268
-7.560	32.887	1594.983	1356.203
-6.546	32.808	1593.895	1354.654
-5.531	32.797	1593.366	1354.075
-4.517	32.797	1591.972	1352.836
-3.502	32.723	1590.949	1351.385
-2.487	32.887	1588.961	1350.811
-1.473	32.735	1577.353	1339.815
-0.458	30.276	1558.317	1306.302
0.556	26.795	1558.912	1276.567
1.571	24.587	1582.822	1280.229
2.586	23.998	1596.133	1286.628
3.600	20.934	1541.001	1220.649
4.615	11.200	1428.427	1067.883
5.629	3.040	1362.270	967.158
6.644	1.766	1354.185	953.361
7.659	1.762	1352.554	952.107
8.673	1.506	1351.744	949.851
9.688	1.506	1349.607	948.268
10.702	1.292	1346.596	944.732
11.717	4.754	1353.270	970.959
12.731	14.898	1373.183	1049.099
13.746	23.508	1388.281	1114.911
14.761	26.002	1391.070	1132.735
15.775	26.284	1391.270	1134.571
16.790	26.377	1390.480	1134.412
17.804	26.485	1389.494	1134.183
18.819	26.692	1389.602	1135.464
19.834	26.665	1389.240	1134.902
20.848	26.888	1387.973	1135.159
21.863	26.780	1387.479	1133.980
22.877	26.811	1386.615	1133.369
23.892	26.779	1385.766	1132.374
24.907	26.834	1384.830	1131.851
25.921	26.749	1384.111	1130.634
26.936	26.911	1383.012	1130.649
27.950	26.881	1381.884	1129.440
28.965	26.740	1380.946	1127.697
29.980	26.767	1379.351	1126.462
30.994	26.742	1378.526	1125.530
32.009	26.734	1377.199	1124.300
33.023	26.735	1376.286	1123.461
34.038	26.799	1374.997	1122.703
35.053	26.915	1373.815	1122.358
36.067	26.825	1373.303	1121.285
37.082	26.798	1372.330	1120.225
38.096	26.835	1371.705	1119.843
39.111	26.718	1370.353	1117.918
40.126	26.763	1370.347	1118.093
41.140	26.648	1369.867	1116.889
42.155	26.749	1369.151	1116.829
43.169	26.754	1369.222	1116.821
44.184	26.767	1368.985	1116.607
45.199	26.814	1368.236	1116.191
46.213	26.778	1367.895	1115.593
47.228	26.872	1366.448	1114.889
48.242	26.792	1365.535	1113.556
49.257	26.870	1363.979	1112.665
50.271	26.798	1362.776	1111.142
51.286	26.802	1361.371	1109.927
52.301	26.727	1360.333	1108.523
53.315	26.719	1359.591	1107.771
54.330	26.818	1358.488	1107.377
55.344	26.841	1357.539	1106.645
56.359	26.734	1356.411	1104.979
57.374	26.725	1355.754	1104.291
58.388	26.820	1354.595	1103.829
59.403	26.798	1354.938	1103.876
60.417	26.726	1354.166	1102.710
61.432	26.732	1353.047	1101.736
62.447	26.818	1351.909	1101.235
63.461	26.846	1351.250	1100.773
64.476	26.830	1350.399	1099.885
65.490	26.817	1349.095	1098.642
66.505	26.640	1348.008	1096.590
67.520	26.851	1346.572	1096.604
68.534	26.800	1345.702	1095.488
69.549	26.782	1344.534	1094.331
70.563	26.846	1343.877	1094.089
71.578	26.860	1342.730	1093.142
72.593	26.763	1342.268	1092.080
73.607	26.730	1341.160	1090.886
74.622	26.889	1340.243	1090.998
75.636	26.847	1340.083	1090.522
76.651	26.824	1338.891	1089.315
77.666	26.790	1338.887	1089.012
78.680	26.819	1337.822	1088.225
79.695	26.639	1337.497	1086.785
80.709	26.879	1336.200	1087.072
81.724	26.773	1335.640	1085.886
82.739	26.756	1334.927	1085.107
83.753	26.733	1334.179	1084.264
84.768	26.795	1332.364	1083.064
85.782	26.877	1331.160	1082.480
86.797	26.799	1330.652	1081.505
87.812	26.756	1329.672	1080.356
88.826	26.884	1328.261	1079.876
89.841	26.839	1327.143	1078.607
90.855	26.883	1326.709	1078.417
91.870	26.844	1325.477	1077.092
92.884	26.855	1324.892	1076.586
93.899	26.898	1323.938	1075.971
94.914	26.910	1323.056	1075.230
95.928	26.794	1322.307	1073.834
96.943	26.887	1321.910	1073.969
97.957	26.884	1321.129	1073.223
98.972	26.998	1320.063	1072.934
99.987	26.866	1319.650	1071.724
101.001	26.864	1318.290	1070.513
102.016	26.824	1317.333	1069.406
103.030	26.839	1316.533	1068.748
104.045	26.891	1315.428	1068.067
105.060	26.887	1314.414	1067.127
106.074	26.806	1313.617	1065.905
107.089	26.885	1313.060	1065.825
108.103	26.952	1311.369	1064.748
109.118	26.983	1310.252	1063.929
110.133	27.010	1309.173	1063.117
111.147	26.985	1308.119	1062.020
112.162	26.925	1306.897	1060.585
113.176	26.868	1306.456	1059.803
114.191	26.975	1305.600	1059.636
115.206	26.958	1304.641	1058.665
116.220	26.859	1303.565	1057.124
117.235	26.964	1302.640	1056.893
118.249	26.915	1301.988	1055.980
119.264	26.904	1300.842	1054.898
120.279	26.883	1300.114	1054.092
121.293	26.994	1299.508	1054.152
122.308	26.907	1298.696	1052.896
123.322	26.998	1297.527	1052.380
124.337	27.101	1296.780	1052.277
125.352	26.974	1296.148	1050.936
126.366	27.027	1295.117	1050.317
127.381	27.029	1294.088	1049.401
128.395	27.006	1293.233	1048.476
129.410	27.035	1292.631	1048.066
130.424	27.034	1292.097	1047.534
131.439	27.045	1291.035	1046.643
132.454	26.920	1290.535	1045.426
133.468	26.967	1289.858	1045.055
134.483	27.049	1289.164	1044.876
135.497	26.992	1288.265	1043.725
136.512	26.985	1287.230	1042.752
137.527	27.020	1286.346	1042.148
138.541	27.096	1284.486	1040.984
139.556	26.986	1283.419	1039.397
140.570	26.895	1282.562	1038.087
141.585	26.930	1281.830	1037.601
142.600	26.913	1280.921	1036.681
143.614	27.036	1279.755	1036.347
144.629	27.025	1278.816	1035.429
145.643	26.851	1277.918	1033.621
146.658	26.823	1276.868	1032.520
147.673	26.833	1275.989	1031.779
148.687	26.857	1275.134	1031.127
149.702	26.900	1274.048	1030.405
150.716	26.786	1273.757	1029.428
151.731	26.955	1272.107	1028.966
152.746	27.014	1271.022	1028.330
153.760	27.034	1269.825	1027.384
154.775	26.996	1269.067	1026.465
155.789	27.020	1267.990	1025.640
156.804	26.876	1267.032	1023.958
157.819	26.936	1266.433	1023.721
158.833	26.969	1265.390	1022.976
159.848	27.050	1264.873	1022.922
160.862	27.049	1264.313	1022.374
161.877	27.072	1263.166	1021.487
162.892	27.044	1262.624	1020.800
163.906	27.039	1261.931	1020.121
164.921	27.099	1260.886	1019.526
165.935	27.100	1260.360	1019.012
166.950	27.132	1259.551	1018.447
167.964	27.003	1259.728	1017.777
168.979	27.160	1258.355	1017.457
169.994	27.236	1257.839	1017.375
171.008	26.961	1257.932	1015.820
172.023	27.144	1256.200	1015.355
173.037	27.136	1255.957	1015.026
174.052	27.109	1255.084	1014.078
175.067	27.154	1254.120	1013.459
176.081	27.145	1253.629	1012.924
177.096	26.944	1252.967	1011.181
178.110	27.091	1252.090	1011.202
179.125	27.132	1250.832	1010.322
180.140	27.178	1249.575	1009.476
181.154	27.169	1248.547	1008.508
182.169	27.146	1247.505	1007.445
183.183	27.077	1246.570	1006.222
184.198	27.129	1245.644	1005.669
185.213	27.282	1244.425	1005.445
186.227	27.171	1244.065	1004.449
187.242	27.150	1242.637	1003.092
188.256	27.216	1242.164	1002.989
189.271	27.086	1242.227	1002.230
190.286	27.114	1240.979	1001.293
191.300	27.177	1240.218	1000.935
192.315	27.037	1240.168	1000.033
193.329	27.188	1239.418	1000.172
194.344	27.158	1238.735	999.366
195.359	27.292	1238.096	999.498
196.373	27.051	1238.169	998.144
197.388	27.077	1237.878	997.968
198.402	27.110	1237.163	997.485
199.417	27.116	1236.923	997.231
200.432	27.182	1236.025	996.785
201.446	27.173	1235.479	996.206
202.461	27.337	1234.442	996.179
203.475	27.146	1233.866	994.583
204.490	27.124	1233.203	993.838
205.504	27.274	1231.684	993.346
206.519	27.290	1231.170	992.930
207.534	27.320	1230.041	992.099
208.548	27.162	1229.724	990.891
209.563	27.222	1228.719	990.322
210.577	27.294	1227.874	989.941
211.592	27.252	1226.927	988.867
212.607	27.276	1226.024	988.178
213.621	27.306	1225.229	987.615
214.636	27.305	1224.502	986.936
215.650	27.311	1223.603	986.158
216.665	27.372	1222.682	985.658
217.680	27.121	1222.309	983.908
218.694	27.353	1221.090	984.098
219.709	27.373	1220.348	983.520
220.723	27.370	1219.768	982.950
221.738	27.323	1218.988	981.980
222.753	27.237	1218.296	980.869
223.767	27.311	1217.797	980.781
224.782	27.322	1217.414	980.443
225.796	27.319	1216.774	979.826
226.811	27.344	1215.932	979.194
227.826	27.374	1215.339	978.797
228.840	27.338	1215.218	978.414
229.855	27.319	1214.621	977.748
230.869	27.365	1213.406	976.928
231.884	27.366	1212.897	976.440
232.899	27.290	1212.699	975.787
233.913	27.374	1211.296	975.021
234.928	27.424	1211.111	975.054
235.942	27.518	1210.355	974.860
236.957	27.433	1209.800	973.872
237.972	27.447	1208.821	973.075
238.986	27.488	1208.395	972.862
240.001	27.573	1207.722	972.691
241.015	27.561	1206.951	971.919
242.030	27.578	1205.975	971.138
243.045	27.603	1205.268	970.616
244.059	27.585	1204.608	969.901
245.074	27.580	1203.994	969.296
246.088	27.638	1202.979	968.702
247.103	27.696	1202.466	968.507
248.117	27.580	1201.692	967.184
249.132	27.598	1201.136	966.747
250.147	27.636	1200.092	966.020
251.161	27.612	1199.554	965.374
252.176	27.628	1198.861	964.818
253.190	27.668	1198.020	964.265
254.205	27.727	1197.713	964.249
255.220	27.670	1197.114	963.377
256.234	27.691	1196.553	962.953
257.249	27.555	1196.323	961.964
258.263	27.634	1195.118	961.329
259.278	27.804	1194.510	961.650
260.293	27.721	1194.088	960.787
261.307	27.775	1193.719	960.687
262.322	27.762	1193.108	960.043
263.336	27.762	1192.328	959.329
264.351	27.775	1191.570	958.702
265.366	27.770	1191.148	958.252
266.380	27.786	1190.564	957.785
267.395	27.661	1189.938	956.540
268.409	27.750	1189.026	956.188
269.424	27.829	1188.109	955.780
270.439	27.767	1188.323	955.542
271.453	27.668	1187.363	954.167
272.468	27.765	1186.515	953.910
273.482	27.823	1185.638	953.422
274.497	27.796	1185.610	953.175
275.512	27.860	1185.024	952.953
276.526	27.751	1184.522	951.898
277.541	27.784	1183.729	951.348
278.555	27.851	1182.927	950.966
279.570	27.908	1182.058	950.481
280.585	27.787	1181.550	949.357
281.599	27.854	1180.518	948.794
282.614	27.800	1179.570	947.670
283.628	27.810	1178.963	947.150
284.643	27.911	1178.094	946.888
285.657	27.956	1177.070	946.217
286.672	27.857	1176.548	945.199
287.687	27.872	1175.667	944.485
288.701	27.945	1175.112	944.336
289.716	27.981	1174.267	943.758
290.730	27.986	1173.453	943.045
291.745	27.976	1173.013	942.555
292.760	27.989	1172.543	942.163
293.774	27.966	1171.983	941.510
294.789	28.027	1171.306	941.197
295.803	28.129	1170.688	941.141
296.818	28.022	1169.895	939.872
297.833	27.952	1169.350	938.989
298.847	28.126	1168.742	939.315
299.862	27.982	1168.157	938.020
300.876	28.036	1167.394	937.600
301.891	28.031	1167.106	937.261
302.906	28.091	1166.291	936.831
303.920	28.250	1165.516	936.940
304.935	28.067	1165.111	935.596
305.949	28.176	1164.048	935.219
306.964	28.145	1163.491	934.530
307.979	28.138	1162.814	933.864
308.993	28.214	1162.341	933.793
310.008	28.235	1161.776	933.364
311.022	28.291	1160.675	932.679
312.037	28.276	1160.227	932.161
313.052	28.199	1159.080	930.765
314.066	28.195	1158.682	930.346
315.081	28.082	1158.286	929.369
316.095	28.243	1157.157	929.196
317.110	28.258	1156.271	928.482
318.125	28.258	1155.760	927.990
319.139	28.246	1155.302	927.479
320.154	28.181	1154.915	926.754
321.168	28.235	1154.447	926.572
322.183	28.248	1153.758	926.001
323.197	28.270	1153.076	925.484
324.212	28.224	1152.658	924.833
325.227	28.285	1151.788	924.360
326.241	28.298	1151.713	924.285
327.256	28.297	1150.790	923.457
328.270	28.312	1149.516	922.428
329.285	28.334	1148.917	921.979
330.300	28.269	1148.275	921.056
331.314	28.275	1148.093	920.859
332.329	28.392	1146.934	920.435
333.343	28.394	1145.903	919.535
334.358	28.469	1145.091	919.180
335.373	28.495	1144.497	918.752
336.387	28.461	1143.808	917.944
337.402	28.453	1143.483	917.563
338.416	28.431	1142.707	916.750
339.431	28.383	1142.128	915.962
340.446	28.471	1141.534	915.848
341.460	28.519	1140.801	915.416
342.475	28.531	1140.565	915.207
343.489	28.545	1139.018	913.953
344.504	28.443	1138.334	912.818
345.519	28.504	1137.466	912.344
346.533	28.568	1136.932	912.153
347.548	28.521	1136.238	911.282
348.562	28.592	1135.331	910.827
349.577	28.522	1134.754	909.936
350.592	28.481	1134.213	909.219
351.606	28.569	1133.247	908.797
352.621	28.735	1132.712	909.108
353.635	28.640	1132.364	908.281
354.650	28.572	1131.576	907.233
355.665	28.668	1130.800	907.005
356.679	28.696	1130.369	906.716
357.694	28.743	1129.411	906.102
358.708	28.629	1128.841	904.998
359.723	28.684	1128.263	904.728
360.738	28.651	1127.873	904.173
361.752	28.705	1127.201	903.820
362.767	28.590	1126.805	902.856
363.781	28.679	1126.427	902.910
364.796	28.738	1125.745	902.574
365.810	28.724	1125.125	901.928
366.825	28.668	1124.494	901.070
367.840	28.792	1124.121	901.295
368.854	28.855	1123.436	900.976
369.869	28.815	1122.313	899.801
370.883	28.913	1121.914	899.883
371.898	28.914	1120.684	898.820
372.913	28.850	1120.518	898.296
373.927	28.887	1120.139	898.093
374.942	28.954	1119.336	897.696
375.956	28.941	1119.140	897.397
376.971	28.830	1118.874	896.561
377.986	28.870	1117.918	895.913
379.000	28.911	1117.398	895.614
380.015	28.914	1117.055	895.274
381.029	29.042	1116.060	895.020
382.044	29.045	1115.453	894.471
383.059	28.931	1114.704	893.235
384.073	29.029	1114.097	893.144
385.088	28.966	1113.209	892.048
386.102	28.958	1112.450	891.322
387.117	29.049	1111.415	890.855
388.132	28.972	1110.667	889.806
389.146	29.080	1110.087	889.784
390.161	29.080	1109.209	889.003
391.175	28.999	1108.863	888.255
392.190	29.005	1108.275	887.733
393.205	28.990	1107.643	887.078
394.219	29.070	1106.959	886.838
395.234	29.201	1105.989	886.613
396.248	29.013	1105.257	885.040
397.263	29.179	1104.250	884.952
398.278	29.052	1104.551	884.505
399.292	29.153	1103.451	884.033
400.307	29.260	1103.083	884.172
401.321	29.127	1102.064	882.642
402.336	29.209	1101.395	882.419
403.350	29.222	1100.949	882.048
404.365	29.204	1100.444	881.477
405.380	29.389	1099.639	881.636
406.394	29.264	1098.501	880.050
407.409	29.215	1098.273	879.559
408.423	29.433	1096.894	879.415
409.438	29.256	1096.809	878.425
410.453	29.383	1095.970	878.282
411.467	29.455	1095.161	877.898
412.482	29.338	1094.762	876.942
413.496	29.411	1093.733	876.386
414.511	29.336	1093.291	875.599
415.526	29.430	1093.034	875.760
416.540	29.504	1092.383	875.512
417.555	29.392	1092.170	874.735
418.569	29.463	1091.305	874.302
419.584	29.457	1091.312	874.203
420.599	29.533	1090.650	873.952
421.613	102.165	1321.449	1454.116
422.628	95.213	1355.044	1454.210
