DTS Sentinel unit serial number:	SN413079Multiplexer serial number:	ORYXHardware model number:	OX4-SRSoftware version number:	ORYX F/W v4.00 Oryx Data Collector v3.7.2.0data status	okinstallation	princeton_trtdifferential loss correction	single-endedforward channel	channel 2reverse channel	N/Adate	2019/09/12time	03:41:10forward acquisition time	60.00reverse acquisition time	0.00gamma	496.2192k internal	0.2326k external	0.2326temperature offset calibration	1.0096default loss term (dB/km)	0.3790temperature slope calibration	1.0000multiplexer offset coefficient	1.0000multiplexer slope coefficient	1.0000fibre end	0.00T internal ref (°C)	32.16T ext. ref 1 (°C)	2.15T ext. ref 2 (°C)	27.25length (m)	temperature (°C)	Stokes	anti-Stokes-747.200	-128.923	0.197	0.028
-746.185	673.464	0.092	0.240
-745.171	185.241	0.224	0.336
-744.156	-146.259	-0.204	-0.018
-743.142	-29.170	-0.155	-0.090
-742.127	102.202	-0.112	0.132
-741.112	800.000	0.055	0.184
-740.098	-200.000	0.007	0.063
-739.083	-117.247	0.244	0.045
-738.069	800.000	0.145	0.434
-737.054	-200.000	-0.048	-0.366
-736.039	362.194	-0.142	-0.287
-735.025	-200.000	-0.008	0.373
-734.010	-32.773	0.183	0.103
-732.996	-98.115	-0.318	0.083
-731.981	569.129	-0.132	0.323
-730.966	-82.643	-0.410	0.134
-729.952	-14.127	0.189	0.123
-728.937	5.842	-0.230	-0.172
-727.923	-200.000	0.010	-0.164
-726.908	412.249	-0.194	0.415
-725.894	-78.598	-0.138	-0.048
-724.879	-26.869	0.295	-0.174
-723.864	-200.000	-0.014	0.094
-722.850	-86.833	-0.282	0.087
-721.835	800.000	-0.102	0.393
-720.821	95.526	-0.158	0.181
-719.806	-42.779	0.127	0.065
-718.791	-192.781	0.194	0.002
-717.777	40.287	-0.133	0.120
-716.762	162.003	-0.092	-0.130
-715.748	-181.813	-0.194	0.004
-714.733	-42.253	-0.116	-0.060
-713.718	-140.027	-0.116	0.012
-712.704	11.203	0.111	0.086
-711.689	-64.465	0.459	-0.188
-710.675	146.790	0.265	0.359
-709.660	-181.562	0.150	-0.003
-708.645	208.207	-0.059	0.093
-707.631	36.723	-0.190	-0.169
-706.616	673.763	0.070	0.183
-705.602	-78.426	-0.179	0.062
-704.587	-200.000	0.006	-0.087
-703.572	142.359	-0.108	-0.144
-702.558	553.652	0.127	0.307
-701.543	-34.831	0.156	-0.086
-700.529	-200.000	0.050	-0.232
-699.514	-77.655	-0.200	-0.070
-698.499	-55.810	-0.358	-0.161
-697.485	-127.978	0.380	0.055
-696.470	-55.749	0.150	-0.068
-695.456	-124.481	0.130	-0.020
-694.441	-57.277	0.213	0.094
-693.426	-62.417	-0.349	-0.146
-692.412	-77.348	-0.308	-0.108
-691.397	-97.552	0.139	0.036
-690.383	204.009	0.035	-0.055
-689.368	22.271	-0.193	-0.159
-688.354	-131.398	-0.554	-0.074
-687.339	-200.000	-0.025	-0.126
-686.324	112.070	-0.178	0.216
-685.310	-200.000	0.019	-0.127
-684.295	225.942	0.164	0.267
-683.281	800.000	-0.048	0.135
-682.266	-111.961	-0.231	0.047
-681.251	-200.000	0.156	0.001
-680.237	-154.816	0.183	-0.012
-679.222	-70.040	-0.258	0.099
-678.208	-80.813	0.394	-0.132
-677.193	-200.000	-0.039	-0.287
-676.178	54.670	0.120	0.116
-675.164	-185.916	-0.161	0.002
-674.149	422.004	-0.120	0.258
-673.135	-84.837	-0.103	0.033
-672.120	-71.628	-0.057	-0.022
-671.105	-37.654	0.056	0.030
-670.091	-139.219	-0.171	-0.019
-669.076	202.606	-0.061	0.094
-668.062	163.035	-0.172	0.244
-667.047	13.027	-0.056	0.044
-666.032	126.194	0.172	0.219
-665.018	302.980	0.130	0.241
-664.003	607.725	0.164	0.410
-662.989	-200.000	-0.062	-0.439
-661.974	-21.158	0.057	0.035
-660.959	-4.622	0.116	-0.081
-659.945	-75.349	0.295	0.106
-658.930	-200.000	-0.020	-0.224
-657.916	-124.335	-0.354	-0.056
-656.901	-200.000	0.000	0.019
-655.886	104.183	0.031	-0.036
-654.872	-52.798	-0.423	-0.196
-653.857	105.410	-0.099	-0.117
-652.843	6.408	0.221	0.165
-651.828	147.832	-0.103	0.139
-650.814	30.184	0.141	-0.121
-649.799	-110.871	-0.287	-0.059
-648.784	429.974	0.053	-0.115
-647.770	-127.349	-0.159	0.023
-646.755	-126.981	-0.396	-0.059
-645.741	123.344	-0.147	-0.186
-644.726	-94.047	-0.223	-0.061
-643.711	59.040	-0.103	0.102
-642.697	-5.847	-0.143	0.099
-641.682	800.000	0.066	-0.244
-640.668	204.033	-0.133	-0.207
-639.653	-186.378	0.123	-0.002
-638.638	409.120	-0.169	0.360
-637.624	-38.743	-0.082	0.043
-636.609	49.807	0.143	0.135
-635.595	47.886	0.211	0.198
-634.580	-200.000	0.032	-0.433
-633.565	-61.402	-0.323	-0.137
-632.551	46.244	0.168	-0.156
-631.536	-79.642	-0.138	0.047
-630.522	254.063	-0.111	-0.191
-629.507	-200.000	-0.048	0.362
-628.492	-200.000	0.022	-0.218
-627.478	-39.628	0.113	-0.059
-626.463	129.065	-0.107	-0.137
-625.449	-13.769	-0.224	-0.146
-624.434	-163.903	0.146	0.007
-623.419	800.000	-0.031	-0.099
-622.405	-200.000	-0.003	-0.148
-621.390	82.633	0.177	-0.193
-620.376	-200.000	0.016	-0.091
-619.361	-175.142	-0.171	0.005
-618.346	-200.000	-0.024	-0.220
-617.332	167.375	0.260	-0.371
-616.317	-127.902	-0.108	0.016
-615.303	210.047	0.084	0.132
-614.288	84.606	-0.036	-0.040
-613.273	-94.217	-0.167	0.046
-612.259	101.631	-0.155	0.181
-611.244	-200.000	-0.004	0.378
-610.230	-35.060	-0.200	0.109
-609.215	-200.000	0.017	0.109
-608.201	141.610	-0.080	0.106
-607.186	-90.367	0.219	0.064
-606.171	99.300	-0.085	-0.099
-605.157	800.000	-0.076	0.289
-604.142	407.438	0.160	0.338
-603.128	800.000	-0.030	0.116
-602.113	-0.132	-0.180	0.129
-601.098	33.110	0.035	0.031
-600.084	-75.201	0.348	-0.125
-599.069	-81.761	-0.186	-0.061
-598.055	800.000	0.018	0.072
-597.040	192.818	-0.128	0.194
-596.025	-80.530	0.263	-0.088
-595.011	-200.000	-0.018	-0.101
-593.996	-41.803	0.339	0.174
-592.982	147.429	0.208	-0.281
-591.967	-200.000	0.022	-0.247
-590.952	38.819	0.082	-0.074
-589.938	-98.431	-0.236	-0.061
-588.923	123.026	-0.128	0.161
-587.909	-100.522	-0.416	0.103
-586.894	800.000	-0.099	-0.328
-585.879	-86.355	0.286	0.088
-584.865	269.904	0.057	-0.101
-583.850	-200.000	0.011	0.154
-582.836	-65.245	0.102	-0.041
-581.821	800.000	0.035	-0.150
-580.806	-180.463	-0.485	-0.010
-579.792	-3.616	0.315	-0.219
-578.777	-39.363	-0.147	-0.077
-577.763	-25.737	0.083	-0.049
-576.748	-53.367	-0.278	0.128
-575.733	-23.929	-0.221	-0.133
-574.719	-200.000	-0.007	-0.357
-573.704	-60.065	-0.292	0.125
-572.690	151.611	-0.162	-0.221
-571.675	-200.000	-0.066	0.358
-570.661	800.000	0.079	0.302
-569.646	195.102	-0.120	-0.183
-568.631	-200.000	0.063	0.353
-567.617	-47.870	-0.100	-0.048
-566.602	-110.641	0.311	0.064
-565.588	-200.000	-0.014	0.112
-564.573	-107.988	-0.046	-0.010
-563.558	204.038	0.120	-0.187
-562.544	135.431	0.221	0.288
-561.529	800.000	0.116	0.341
-560.515	175.565	0.050	0.072
-559.500	97.223	0.246	-0.282
-558.485	215.775	-0.166	0.264
-557.471	492.645	0.108	-0.248
-556.456	69.332	0.054	-0.055
-555.442	7.998	0.128	0.096
-554.427	-36.652	-0.440	0.237
-553.412	-59.070	-0.088	-0.038
-552.398	-146.937	0.064	-0.005
-551.383	237.225	-0.131	0.217
-550.369	100.609	-0.097	-0.113
-549.354	800.000	-0.060	-0.261
-548.339	78.428	0.190	-0.203
-547.325	-200.000	0.032	-0.464
-546.310	-97.510	0.302	-0.078
-545.296	-147.689	-0.268	-0.023
-544.281	122.585	-0.050	-0.063
-543.266	-128.268	0.160	-0.023
-542.252	427.204	0.064	0.139
-541.237	151.236	-0.060	-0.082
-540.223	367.300	-0.166	0.336
-539.208	223.466	-0.101	0.163
-538.193	468.899	-0.029	-0.065
-537.179	800.000	-0.048	0.151
-536.164	6.407	0.048	0.036
-535.150	-133.396	-0.232	-0.029
-534.135	79.755	0.054	-0.058
-533.121	800.000	-0.042	0.134
-532.106	800.000	-0.048	-0.180
-531.091	272.672	-0.103	0.181
-530.077	47.011	0.181	-0.169
-529.062	-107.043	-0.261	0.058
-528.048	247.476	-0.184	-0.312
-527.033	-129.560	0.102	0.014
-526.018	-200.000	-0.023	0.157
-525.004	-174.635	0.327	-0.009
-523.989	-200.000	0.021	-0.107
-522.975	-133.345	-0.255	0.032
-521.960	-113.715	0.224	0.044
-520.945	41.797	0.088	-0.080
-519.931	155.698	-0.142	-0.196
-518.916	353.814	-0.083	0.165
-517.902	-200.000	0.008	0.226
-516.887	135.025	-0.153	-0.199
-515.872	57.591	-0.019	-0.019
-514.858	37.318	0.189	0.167
-513.843	181.618	-0.084	-0.124
-512.829	-200.000	-0.003	0.140
-511.814	307.751	0.077	-0.143
-510.799	-13.927	-0.450	0.291
-509.785	-78.410	0.170	-0.058
-508.770	-136.434	-0.125	-0.015
-507.756	53.013	-0.089	-0.085
-506.741	-20.806	-0.083	-0.051
-505.726	-103.706	-0.319	0.075
-504.712	20.947	0.028	-0.023
-503.697	-200.000	0.014	0.210
-502.683	-62.403	-0.306	0.127
-501.668	-200.000	0.011	0.129
-500.653	83.543	0.166	0.181
-499.639	-131.347	-0.094	-0.012
-498.624	327.792	0.021	0.039
-497.610	65.276	-0.303	0.306
-496.595	-74.188	0.187	0.068
-495.581	-83.702	0.360	-0.115
-494.566	-69.599	0.135	0.052
-493.551	332.730	-0.057	-0.110
-492.537	800.000	-0.028	-0.083
-491.522	-97.987	-0.365	-0.094
-490.508	-26.488	-0.168	-0.099
-489.493	-68.334	0.306	0.119
-488.478	195.423	-0.049	-0.074
-487.464	800.000	0.129	-0.476
-486.449	114.507	-0.027	0.033
-485.435	-71.869	-0.105	-0.039
-484.420	753.434	0.038	-0.104
-483.405	336.243	-0.052	-0.102
-482.391	22.459	-0.238	0.194
-481.376	-42.532	0.169	-0.086
-480.362	-200.000	0.000	0.327
-479.347	187.536	-0.028	-0.042
-478.332	-34.249	-0.060	-0.033
-477.318	455.976	0.108	0.238
-476.303	603.305	0.031	-0.078
-475.289	-68.809	-0.130	-0.050
-474.274	-37.952	-0.105	-0.056
-473.259	-42.000	-0.100	-0.051
-472.245	-17.750	0.381	-0.239
-471.230	-200.000	0.013	-0.173
-470.216	-71.774	-0.134	0.050
-469.201	-5.066	0.398	0.274
-468.186	-117.217	0.279	-0.051
-467.172	484.841	-0.061	0.139
-466.157	-200.000	0.045	-0.383
-465.143	-104.394	0.084	0.019
-464.128	800.000	-0.021	0.082
-463.113	-200.000	-0.000	-0.009
-462.099	800.000	0.087	-0.304
-461.084	205.101	-0.109	0.170
-460.070	-106.637	0.129	-0.029
-459.055	-44.916	-0.073	0.036
-458.040	-46.754	0.176	-0.086
-457.026	-62.619	-0.428	0.177
-456.011	339.568	-0.108	-0.211
-454.997	148.846	-0.154	-0.208
-453.982	17.354	-0.036	-0.028
-452.968	-158.820	0.182	0.010
-451.953	-57.407	0.079	0.035
-450.938	-102.674	-0.024	-0.006
-449.924	127.917	0.176	0.223
-448.909	-200.000	0.026	0.151
-447.895	-92.758	0.097	-0.027
-446.880	-50.886	0.210	0.098
-445.865	4.197	-0.030	0.022
-444.851	85.586	-0.048	0.053
-443.836	-111.341	-0.268	-0.055
-442.822	-200.000	0.039	-0.222
-441.807	-200.000	-0.002	-0.327
-440.792	-14.879	-0.069	-0.044
-439.778	800.000	-0.059	0.210
-438.763	-96.600	0.107	-0.028
-437.749	-114.322	-0.304	0.058
-436.734	76.547	0.194	-0.204
-435.719	37.680	0.263	-0.233
-434.705	-157.944	-0.161	0.009
-433.690	-133.652	0.184	0.023
-432.676	800.000	-0.039	-0.133
-431.661	20.594	-0.220	-0.177
-430.646	-143.518	0.367	-0.035
-429.632	-84.276	0.135	0.043
-428.617	-134.971	-0.371	0.045
-427.603	338.630	-0.110	-0.213
-426.588	-200.000	0.009	-0.052
-425.573	800.000	0.085	0.324
-424.559	-94.693	0.072	0.019
-423.544	-200.000	0.040	0.223
-422.530	20.274	0.237	0.191
-421.515	-50.632	0.179	0.084
-420.500	99.918	-0.118	-0.137
-419.486	-200.000	-0.120	0.000
-418.471	800.000	-0.021	0.083
-417.457	-18.551	0.342	0.213
-416.442	800.000	0.075	0.248
-415.428	49.200	0.395	0.369
-414.413	-121.828	-0.105	-0.017
-413.398	-24.747	-0.399	-0.236
-412.384	5.312	-0.227	0.166
-411.369	16.508	0.140	0.111
-410.355	8.828	0.143	0.108
-409.340	-73.084	-0.158	0.058
-408.325	94.319	0.019	-0.022
-407.311	-200.000	-0.030	0.176
-406.296	141.304	0.307	0.405
-405.282	78.805	0.207	0.221
-404.267	-122.946	0.345	-0.055
-403.252	800.000	-0.053	0.191
-402.238	-200.000	-0.052	-0.247
-401.223	-40.085	0.052	0.027
-400.209	-53.376	0.268	0.122
-399.194	-139.575	-0.080	0.008
-398.179	-200.000	0.031	-0.195
-397.165	-200.000	0.024	0.222
-396.150	-15.538	-0.222	0.141
-395.136	206.145	0.143	-0.222
-394.121	-120.941	0.179	0.030
-393.106	-148.464	-0.356	-0.029
-392.092	-82.718	0.018	-0.006
-391.077	580.312	0.136	-0.332
-390.063	196.511	-0.144	-0.218
-389.048	-51.663	-0.189	0.088
-388.033	618.507	0.008	-0.021
-387.019	318.691	0.097	0.183
-386.004	-200.000	-0.020	0.166
-384.990	-200.000	-0.016	-0.108
-383.975	169.899	-0.041	0.058
-382.960	51.655	-0.364	-0.344
-381.946	-200.000	-0.008	0.074
-380.931	22.761	0.210	0.171
-379.917	-98.310	-0.147	-0.037
-378.902	-87.998	0.084	-0.025
-377.888	43.992	0.094	-0.085
-376.873	-7.153	0.037	0.025
-375.858	33.804	0.068	-0.059
-374.844	78.462	0.058	-0.062
-373.829	800.000	0.049	0.145
-372.815	-200.000	0.047	0.238
-371.800	78.442	0.193	-0.205
-370.785	-47.859	-0.204	-0.098
-369.771	298.303	0.106	-0.194
-368.756	2.944	-0.167	0.120
-367.742	-1.937	0.170	0.119
-366.727	115.161	0.343	-0.416
-365.712	800.000	0.036	0.143
-364.698	-200.000	-0.032	0.192
-363.683	-102.393	0.151	-0.036
-362.669	-200.000	0.021	0.159
-361.654	117.592	-0.287	-0.351
-360.639	93.381	0.193	0.217
-359.625	800.000	-0.080	0.245
-358.610	-200.000	-0.005	0.113
-357.596	-112.016	0.315	-0.063
-356.581	800.000	-0.043	0.129
-355.566	-101.233	-0.263	0.064
-354.552	35.605	-0.280	0.244
-353.537	800.000	0.020	0.063
-352.523	-200.000	0.025	-0.167
-351.508	619.677	0.166	-0.414
-350.493	169.625	-0.126	-0.179
-349.479	54.917	0.029	0.028
-348.464	-176.504	-0.051	-0.001
-347.450	114.169	-0.066	0.080
-346.435	-200.000	0.033	-0.362
-345.420	445.354	-0.139	-0.303
-344.406	-200.000	-0.029	-0.175
-343.391	800.000	0.046	0.173
-342.377	191.568	0.098	0.147
-341.362	72.824	0.109	-0.113
-340.348	-55.128	-0.269	-0.120
-339.333	-200.000	0.001	-0.401
-338.318	382.088	-0.148	0.302
-337.304	-124.629	-0.082	-0.013
-336.289	103.717	-0.160	-0.187
-335.275	104.136	0.212	-0.248
-334.260	-200.000	0.134	0.000
-333.245	-148.901	-0.074	-0.006
-332.231	-4.690	-0.095	0.065
-331.216	-39.298	0.233	0.121
-330.202	-200.000	0.062	-0.528
-329.187	252.682	0.061	-0.103
-328.172	705.345	0.064	-0.166
-327.158	-200.000	0.003	-0.239
-326.143	-200.000	-0.043	-0.408
-325.129	314.085	0.063	-0.117
-324.114	-61.527	-0.269	0.112
-323.099	-86.245	-0.259	0.079
-322.085	230.542	0.091	-0.147
-321.070	-89.722	0.541	-0.157
-320.056	22.486	-0.322	0.261
-319.041	-200.000	-0.032	-0.194
-318.026	24.480	0.234	-0.192
-317.012	51.009	0.032	0.031
-315.997	800.000	0.027	0.086
-314.983	800.000	0.032	0.123
-313.968	-116.823	0.145	0.026
-312.953	-90.775	0.186	0.053
-311.939	-27.973	0.376	0.216
-310.924	597.407	0.044	0.108
-309.910	-140.617	-0.188	0.019
-308.895	800.000	-0.043	0.178
-307.880	400.375	-0.170	0.355
-306.866	800.000	0.042	0.153
-305.851	83.107	0.146	0.158
-304.837	-200.000	0.008	-0.038
-303.822	-74.053	0.144	-0.052
-302.807	-200.000	-0.022	-0.292
-301.793	93.711	-0.024	0.026
-300.778	-10.026	0.116	0.077
-299.764	37.206	0.125	0.110
-298.749	484.466	-0.089	0.201
-297.735	118.125	0.197	0.241
-296.720	-200.000	-0.087	0.399
-295.705	-6.457	0.159	0.107
-294.691	-181.707	-0.132	-0.003
-293.676	800.000	0.029	0.124
-292.662	-61.919	-0.352	0.146
-291.647	450.294	0.084	-0.184
-290.632	-140.484	-0.119	-0.012
-289.618	-76.748	0.234	-0.081
-288.603	474.571	-0.052	0.117
-287.589	-6.541	0.363	-0.245
-286.574	-44.594	0.354	0.175
-285.559	274.931	-0.172	0.303
-284.545	-200.000	-0.022	-0.129
-283.530	800.000	-0.036	-0.151
-282.516	-200.000	0.048	-0.250
-281.501	-78.439	0.059	0.020
-280.486	-56.248	0.148	-0.065
-279.472	261.627	-0.041	0.071
-278.457	-18.643	-0.260	-0.161
-277.443	800.000	-0.022	0.062
-276.428	31.523	-0.107	-0.091
-275.413	-200.000	-0.011	-0.168
-274.399	-200.000	-0.004	0.060
-273.384	298.042	-0.187	0.341
-272.370	800.000	0.046	-0.176
-271.355	-200.000	-0.073	-0.419
-270.340	-116.104	-0.140	-0.026
-269.326	-200.000	-0.003	-0.150
-268.311	-116.592	0.297	-0.054
-267.297	-45.753	0.284	-0.139
-266.282	328.115	-0.066	-0.125
-265.267	-152.332	0.288	-0.021
-264.253	413.381	-0.135	0.284
-263.238	800.000	0.026	-0.087
-262.224	800.000	0.099	0.366
-261.209	113.487	0.098	0.118
-260.195	-76.311	-0.304	0.106
-259.180	-50.436	-0.238	-0.111
-258.165	-121.958	0.260	0.042
-257.151	-200.000	0.013	-0.136
-256.136	54.657	0.068	-0.065
-255.122	473.991	-0.041	-0.091
-254.107	-14.470	0.177	0.113
-253.092	668.504	0.091	-0.234
-252.078	800.000	0.050	0.147
-251.063	431.149	0.083	0.179
-250.049	103.226	-0.025	-0.029
-249.034	264.487	0.101	0.174
-248.019	180.685	0.066	-0.096
-247.005	35.041	0.161	0.140
-245.990	172.205	-0.270	-0.384
-244.976	800.000	-0.054	-0.168
-243.961	178.679	0.067	0.096
-242.946	-56.668	0.146	0.064
-241.932	29.276	-0.074	0.062
-240.917	103.223	0.101	0.117
-239.903	-200.000	0.019	-0.092
-238.888	35.447	0.056	-0.048
-237.873	98.640	0.301	-0.344
-236.859	800.000	0.075	-0.220
-235.844	-66.366	-0.083	-0.032
-234.830	269.037	-0.093	-0.161
-233.815	800.000	-0.063	-0.222
-232.800	-111.028	0.085	-0.017
-231.786	10.977	-0.142	0.107
-230.771	-87.821	-0.194	-0.058
-229.757	75.512	0.196	-0.205
-228.742	-9.543	0.095	0.063
-227.727	380.595	0.144	-0.292
-226.713	634.849	-0.069	-0.173
-225.698	-200.000	-0.028	0.161
-224.684	-196.662	-0.108	-0.001
-223.669	-200.000	-0.053	0.293
-222.655	-158.017	0.379	-0.022
-221.640	131.800	0.082	0.104
-220.625	109.279	-0.096	-0.114
-219.611	-45.957	-0.083	0.040
-218.596	-59.959	0.161	-0.068
-217.582	-79.277	0.094	-0.032
-216.567	-200.000	-0.357	0.000
-215.552	-106.629	-0.150	0.033
-214.538	23.537	0.130	-0.105
-213.523	-200.000	-0.013	0.098
-212.509	-200.000	-0.025	0.347
-211.494	229.859	-0.216	0.349
-210.479	103.362	0.125	0.145
-209.465	-200.000	-0.022	-0.229
-208.450	-103.180	0.127	-0.030
-207.436	-200.000	0.023	-0.234
-206.421	-93.060	-0.046	0.013
-205.406	133.340	-0.198	0.253
-204.392	-200.000	0.010	0.210
-203.377	103.678	0.118	-0.137
-202.363	21.607	-0.156	0.125
-201.348	155.392	-0.061	-0.083
-200.333	55.685	-0.144	-0.138
-199.319	155.218	-0.041	0.056
-198.304	535.832	0.120	0.280
-197.290	117.615	0.017	0.021
-196.275	-200.000	-0.035	0.264
-195.260	61.484	0.074	0.073
-194.246	567.781	-0.108	-0.259
-193.231	24.287	-0.161	0.131
-192.217	217.302	-0.087	0.137
-191.202	84.946	-0.107	-0.116
-190.187	-200.000	-0.024	-0.188
-189.173	296.046	-0.045	-0.081
-188.158	-28.354	0.108	-0.061
-187.144	698.668	-0.010	-0.027
-186.129	-200.000	-0.017	0.076
-185.114	-132.880	0.169	0.021
-184.100	70.437	-0.143	0.146
-183.085	17.052	0.248	0.194
-182.071	-10.741	-0.118	0.077
-181.056	-11.577	0.389	0.252
-180.042	-138.540	0.104	0.011
-179.027	-200.000	0.008	0.204
-178.012	70.447	-0.056	0.057
-176.998	18.718	-0.171	0.135
-175.983	800.000	0.053	-0.173
-174.969	96.527	0.094	-0.106
-173.954	252.107	0.098	-0.165
-172.939	-160.051	0.127	-0.007
-171.925	48.671	-0.171	-0.158
-170.910	-129.775	-0.163	0.022
-169.896	-102.374	0.333	0.079
-168.881	-133.134	0.321	-0.040
-167.866	52.457	0.146	-0.137
-166.852	-92.579	-0.216	0.060
-165.837	111.861	-0.162	-0.193
-164.823	59.749	0.172	-0.167
-163.808	368.914	0.072	0.143
-162.793	-102.677	-0.207	0.049
-161.779	-200.000	-0.022	0.194
-160.764	-50.592	-0.147	-0.068
-159.750	63.409	0.163	0.161
-158.735	-27.470	-0.194	0.111
-157.720	217.891	-0.065	0.102
-156.706	-200.000	-0.284	0.001
-155.691	-150.308	-0.207	0.016
-154.677	83.115	-0.153	-0.164
-153.662	49.535	0.208	0.193
-152.647	156.653	0.240	0.326
-151.633	229.432	-0.206	0.332
-150.618	-110.641	0.171	-0.035
-149.604	-7.812	0.139	-0.092
-148.589	-200.000	-0.025	0.382
-147.574	-5.259	0.151	-0.102
-146.560	-95.005	0.083	0.022
-145.545	-28.343	-0.346	0.197
-144.531	800.000	0.083	0.271
-143.516	33.777	-0.204	0.175
-142.502	-200.000	0.008	-0.170
-141.487	119.193	-0.290	0.353
-140.472	24.056	0.073	0.059
-139.458	116.455	0.324	-0.392
-138.443	800.000	-0.040	-0.163
-137.429	-102.235	0.211	0.050
-136.414	-85.898	0.444	-0.135
-135.399	-200.000	-0.017	-0.092
-134.385	-51.569	0.295	-0.135
-133.370	-200.000	0.017	-0.104
-132.356	-27.555	0.216	-0.123
-131.341	-200.000	-0.021	-0.112
-130.326	-19.922	0.300	0.183
-129.312	-95.262	-0.279	0.074
-128.297	264.995	-0.043	0.074
-127.283	93.631	-0.029	0.032
-126.268	790.396	0.074	-0.201
-125.253	-139.186	0.278	-0.029
-124.239	313.286	0.129	0.240
-123.224	35.883	-0.080	0.069
-122.210	-200.000	0.034	0.246
-121.195	98.498	0.140	-0.159
-120.180	-146.818	0.486	-0.041
-119.166	-200.000	-0.007	0.045
-118.151	-125.590	-0.146	-0.022
-117.137	-200.000	0.014	0.206
-116.122	205.639	-0.231	-0.354
-115.107	-95.279	-0.296	0.078
-114.093	251.805	0.103	-0.172
-113.078	-200.000	0.016	0.072
-112.064	-200.000	-0.013	-0.266
-111.049	-200.000	0.017	-0.176
-110.034	-76.822	0.270	-0.093
-109.020	25.312	-0.222	-0.181
-108.005	-11.312	-0.302	0.195
-106.991	-9.114	0.265	0.175
-105.976	-200.000	-0.057	-0.259
-104.962	-200.000	-0.034	0.545
-103.947	-129.504	-0.102	-0.014
-102.932	-31.757	0.174	-0.096
-101.918	113.056	0.069	0.083
-100.903	189.090	0.267	-0.394
-99.889	-30.171	-0.192	-0.107
-98.874	192.174	-0.111	-0.164
-97.859	-200.000	0.002	-0.097
-96.845	97.140	0.221	0.249
-95.830	-146.884	-0.243	-0.021
-94.816	-57.647	-0.159	-0.068
-93.801	43.542	-0.075	-0.067
-92.786	-7.180	-0.056	0.037
-91.772	72.002	-0.115	0.118
-90.757	-53.181	-0.243	-0.110
-89.743	-115.612	0.104	-0.019
-88.728	-143.768	-0.246	0.023
-87.713	-200.000	0.007	0.251
-86.699	-200.000	0.019	-0.193
-85.684	-194.268	-0.149	-0.001
-84.670	-151.720	0.429	0.031
-83.655	253.548	-0.169	-0.285
-82.640	800.000	-0.196	0.534
-81.626	-200.000	0.015	-0.096
-80.611	216.306	-0.069	0.108
-79.597	150.287	0.182	-0.243
-78.582	-200.000	-0.007	0.097
-77.567	50.882	-0.153	0.142
-76.553	78.531	-0.099	0.104
-75.538	202.249	0.128	0.194
-74.524	116.943	0.186	0.224
-73.509	143.642	-0.069	-0.090
-72.494	-46.343	0.099	0.048
-71.480	-101.769	0.367	-0.087
-70.465	100.161	-0.186	0.212
-69.451	27.012	0.223	0.184
-68.436	36.032	-0.106	-0.092
-67.422	370.944	0.173	0.345
-66.407	-200.000	0.038	-0.204
-65.392	-31.629	0.092	-0.051
-64.378	32.508	0.162	0.138
-63.363	-89.328	0.183	0.053
-62.349	800.000	-0.051	0.172
-61.334	99.734	-0.845	-0.961
-60.319	204.441	0.245	0.372
-59.305	286.524	-0.393	-0.698
-58.290	184.738	0.611	0.889
-57.276	367.149	0.606	1.202
-56.261	-200.000	95.587	597.303
-55.246	577.906	1362.397	3271.930
-54.232	162.367	2546.360	3505.885
-53.217	107.224	2263.352	2641.666
-52.203	41.647	1891.564	1682.310
-51.188	35.383	1681.917	1448.683
-50.173	32.747	1637.444	1390.908
-49.159	50.205	1683.970	1561.299
-48.144	52.051	1700.250	1590.120
-47.130	35.000	1661.145	1427.706
-46.115	32.250	1647.150	1395.243
-45.100	32.112	1642.152	1389.936
-44.086	32.042	1639.204	1386.862
-43.071	32.042	1636.749	1384.731
-42.057	32.116	1634.244	1383.101
-41.042	32.114	1632.382	1381.458
-40.027	32.011	1630.759	1379.273
-39.013	32.048	1628.481	1377.563
-37.998	31.920	1627.359	1375.618
-36.984	32.082	1626.008	1375.610
-35.969	32.139	1623.947	1374.231
-34.954	32.171	1622.579	1373.250
-33.940	32.167	1621.113	1371.926
-32.925	32.099	1619.501	1370.010
-31.911	32.204	1617.452	1368.986
-30.896	32.068	1615.955	1366.676
-29.881	32.130	1613.860	1365.301
-28.867	32.135	1612.059	1363.760
-27.852	32.161	1610.932	1362.945
-26.838	32.130	1609.338	1361.314
-25.823	32.123	1608.159	1360.216
-24.809	32.165	1606.968	1359.459
-23.794	32.198	1605.271	1358.202
-22.779	32.179	1603.645	1356.637
-21.765	32.237	1602.017	1355.629
-20.750	32.119	1600.774	1353.669
-19.736	32.230	1599.133	1353.028
-18.721	32.225	1597.630	1351.665
-17.706	32.156	1596.431	1350.100
-16.692	32.089	1594.986	1348.347
-15.677	32.226	1593.847	1348.314
-14.663	32.245	1592.198	1347.004
-13.648	32.237	1590.627	1345.561
-12.633	32.199	1589.331	1344.136
-11.619	32.193	1587.755	1342.712
-10.604	32.282	1585.966	1341.777
-9.590	32.214	1584.965	1340.392
-8.575	32.147	1583.748	1338.835
-7.560	32.190	1582.697	1338.200
-6.546	32.293	1581.114	1337.541
-5.531	32.161	1580.208	1335.784
-4.517	32.147	1579.449	1334.990
-3.502	32.190	1577.733	1333.789
-2.487	32.228	1576.405	1332.881
-1.473	31.940	1564.833	1321.018
-0.458	29.341	1546.143	1287.073
0.556	26.587	1547.121	1258.409
1.571	24.354	1570.723	1261.716
2.586	23.894	1584.234	1269.173
3.600	21.442	1531.661	1210.004
4.615	12.414	1421.244	1064.453
5.629	3.860	1355.410	962.028
6.644	2.228	1347.390	946.150
7.659	2.187	1345.804	944.703
8.673	2.103	1344.865	943.436
9.688	2.072	1342.970	941.838
10.702	1.782	1340.334	938.116
11.717	5.349	1346.858	964.642
12.731	15.552	1365.679	1041.603
13.746	24.019	1380.338	1105.525
14.761	26.365	1383.345	1122.420
15.775	26.702	1383.110	1124.225
16.790	26.769	1382.450	1124.005
17.804	26.840	1382.286	1124.212
18.819	27.034	1382.123	1125.181
19.834	27.108	1381.426	1124.973
20.848	27.134	1380.324	1124.135
21.863	27.245	1379.565	1124.101
22.877	27.214	1378.514	1122.956
23.892	27.143	1378.290	1122.236
24.907	27.164	1376.884	1121.123
25.921	27.272	1375.889	1120.877
26.936	27.225	1375.086	1119.832
27.950	27.210	1374.048	1118.798
28.965	27.209	1372.991	1117.831
29.980	27.128	1371.784	1116.252
30.994	27.111	1370.525	1115.024
32.009	27.170	1369.173	1114.190
33.023	27.125	1368.734	1113.454
34.038	27.199	1367.098	1112.482
35.053	27.197	1366.456	1111.850
36.067	27.150	1365.065	1110.331
37.082	27.191	1364.272	1109.839
38.096	27.265	1362.939	1109.103
39.111	27.159	1362.719	1108.180
40.126	27.242	1362.224	1108.189
41.140	27.195	1361.131	1106.915
42.155	27.208	1361.062	1106.839
43.169	27.278	1361.041	1107.150
44.184	27.262	1360.714	1106.690
45.199	27.140	1360.511	1105.684
46.213	27.082	1360.310	1105.068
47.228	27.198	1358.997	1104.608
48.242	27.201	1357.357	1103.200
49.257	27.135	1356.246	1101.796
50.271	27.238	1354.582	1100.973
51.286	27.186	1353.451	1099.639
52.301	27.130	1352.194	1098.181
53.315	27.124	1351.126	1097.184
54.330	27.203	1350.844	1097.330
55.344	27.161	1349.547	1095.930
56.359	27.168	1348.574	1095.084
57.374	27.182	1347.908	1094.530
58.388	27.119	1347.173	1093.458
59.403	27.154	1346.573	1093.085
60.417	27.140	1346.220	1092.615
61.432	27.153	1345.620	1092.109
62.447	27.235	1344.160	1091.325
63.461	27.158	1343.611	1090.319
64.476	27.243	1341.898	1089.341
65.490	27.143	1341.506	1088.327
66.505	27.285	1339.393	1087.364
67.520	27.197	1338.802	1086.263
68.534	27.194	1337.372	1084.989
69.549	27.141	1336.545	1083.909
70.563	27.150	1335.551	1083.056
71.578	27.241	1335.148	1083.178
72.593	27.235	1334.019	1082.133
73.607	27.224	1333.308	1081.394
74.622	27.252	1332.543	1080.843
75.636	27.203	1331.696	1079.767
76.651	27.233	1330.874	1079.188
77.666	27.120	1331.405	1078.848
78.680	27.091	1330.262	1077.655
79.695	27.144	1329.216	1077.028
80.709	27.194	1328.431	1076.590
81.724	27.106	1328.407	1075.954
82.739	27.219	1326.972	1075.366
83.753	27.188	1326.101	1074.381
84.768	27.162	1324.823	1073.096
85.782	27.337	1323.588	1073.036
86.797	27.308	1322.455	1071.849
87.812	27.221	1321.668	1070.605
88.826	27.172	1320.832	1069.545
89.841	27.257	1319.767	1069.088
90.855	27.140	1318.675	1067.420
91.870	27.160	1317.926	1066.836
92.884	27.238	1316.799	1066.290
93.899	27.274	1315.980	1065.741
94.914	27.299	1315.293	1065.240
95.928	27.136	1314.852	1063.834
96.943	27.211	1314.331	1063.755
97.957	27.310	1313.318	1063.423
98.972	27.234	1312.629	1062.322
99.987	27.259	1311.112	1061.149
101.001	27.318	1310.413	1060.836
102.016	27.147	1309.856	1059.291
103.030	27.285	1308.695	1059.060
104.045	27.336	1307.967	1058.675
105.060	27.258	1307.292	1057.585
106.074	27.300	1306.215	1056.865
107.089	27.242	1305.189	1055.605
108.103	27.325	1304.459	1055.401
109.118	27.255	1302.992	1053.712
110.133	27.298	1301.731	1052.850
111.147	27.295	1300.758	1051.951
112.162	27.302	1299.428	1050.823
113.176	27.320	1298.492	1050.077
114.191	27.351	1298.065	1049.820
115.206	27.283	1296.942	1048.424
116.220	27.288	1295.828	1047.459
117.235	27.277	1295.052	1046.678
118.249	27.273	1294.207	1045.879
119.264	27.276	1293.481	1045.216
120.279	27.387	1292.320	1044.825
121.293	27.401	1292.072	1044.612
122.308	27.382	1290.903	1043.464
123.322	27.373	1290.202	1042.755
124.337	27.441	1289.156	1042.209
125.352	27.416	1288.255	1041.244
126.366	27.431	1287.457	1040.589
127.381	27.477	1286.310	1039.836
128.395	27.321	1286.011	1038.613
129.410	27.414	1285.044	1038.268
130.424	27.365	1284.488	1037.447
131.439	27.301	1283.176	1035.933
132.454	27.380	1282.249	1035.540
133.468	27.473	1282.078	1035.838
134.483	27.371	1281.198	1034.456
135.497	27.421	1280.419	1034.023
136.512	27.418	1279.255	1032.976
137.527	27.381	1278.227	1031.844
138.541	27.500	1276.695	1031.187
139.556	27.386	1275.831	1029.756
140.570	27.312	1275.184	1028.722
141.585	27.314	1274.074	1027.749
142.600	27.292	1273.192	1026.819
143.614	27.357	1272.556	1026.583
144.629	27.344	1271.067	1025.219
145.643	27.194	1270.669	1023.959
146.658	27.260	1269.142	1023.009
147.673	27.304	1268.295	1022.486
148.687	27.320	1267.320	1021.696
149.702	27.249	1266.415	1020.482
150.716	27.276	1265.187	1019.552
151.731	27.344	1264.258	1019.095
152.746	27.310	1263.219	1017.978
153.760	27.349	1262.305	1017.368
154.775	27.292	1261.350	1016.188
155.789	27.276	1260.532	1015.350
156.804	27.310	1259.714	1014.793
157.819	27.445	1258.544	1014.513
158.833	27.456	1258.002	1014.047
159.848	27.403	1257.476	1013.235
160.862	27.507	1256.317	1012.793
161.877	27.428	1255.660	1011.737
162.892	27.401	1255.057	1011.011
163.906	27.521	1254.471	1011.110
164.921	27.493	1253.449	1010.043
165.935	27.399	1252.939	1009.025
166.950	27.428	1252.230	1008.524
167.964	27.531	1251.576	1008.479
168.979	27.469	1251.044	1007.615
169.994	27.563	1250.120	1007.303
171.008	27.600	1249.406	1006.845
172.023	27.435	1249.311	1005.764
173.037	27.507	1248.102	1005.101
174.052	27.484	1247.092	1004.070
175.067	27.489	1246.663	1003.665
176.081	27.552	1245.841	1003.263
177.096	27.518	1244.807	1002.154
178.110	27.444	1244.599	1001.488
179.125	27.641	1243.208	1001.364
180.140	27.589	1241.841	999.889
181.154	27.541	1241.013	998.869
182.169	27.489	1240.384	997.992
183.183	27.502	1239.283	997.087
184.198	27.589	1237.841	996.314
185.213	27.582	1237.119	995.610
186.227	27.536	1236.840	995.044
187.242	27.510	1235.527	993.758
188.256	27.564	1234.516	993.150
189.271	27.487	1234.339	992.500
190.286	27.565	1233.451	992.127
191.300	27.464	1232.615	990.815
192.315	27.493	1232.287	990.622
193.329	27.543	1231.982	990.560
194.344	27.560	1231.753	990.382
195.359	27.580	1231.264	990.006
196.373	27.580	1230.272	989.124
197.388	27.518	1229.943	988.437
198.402	27.433	1230.125	988.035
199.417	27.590	1229.235	988.080
200.432	27.570	1228.922	987.634
201.446	27.547	1228.469	987.058
202.461	27.646	1226.682	986.070
203.475	27.532	1226.631	985.326
204.490	27.601	1225.331	984.565
205.504	27.581	1224.610	983.792
206.519	27.685	1223.778	983.597
207.534	27.625	1222.569	982.214
208.548	27.595	1221.863	981.401
209.563	27.691	1221.236	981.324
210.577	27.635	1220.465	980.318
211.592	27.746	1219.171	979.787
212.607	27.829	1218.326	979.468
213.621	27.805	1218.093	979.063
214.636	27.657	1217.477	977.690
215.650	27.751	1216.355	977.208
216.665	27.666	1215.321	975.832
217.680	27.740	1214.745	975.682
218.694	27.714	1213.829	974.720
219.709	27.771	1213.125	974.375
220.723	27.726	1212.525	973.567
221.738	27.693	1211.961	972.848
222.753	27.687	1210.943	971.915
223.767	27.780	1210.264	971.779
224.782	27.794	1210.251	971.757
225.796	27.845	1209.841	971.615
226.811	27.864	1208.927	970.897
227.826	27.781	1208.484	970.011
228.840	27.812	1208.148	969.822
229.855	27.799	1207.507	969.152
230.869	27.839	1206.444	968.422
231.884	27.854	1205.643	967.776
232.899	27.850	1204.934	967.097
233.913	27.805	1204.642	966.541
234.928	27.860	1204.093	966.308
235.942	27.884	1203.159	965.599
236.957	27.825	1202.316	964.526
237.972	27.910	1201.863	964.525
238.986	27.968	1201.420	964.391
240.001	27.976	1200.366	963.501
241.015	28.070	1200.003	963.617
242.030	28.024	1198.783	962.311
243.045	27.943	1198.419	961.510
244.059	27.972	1197.804	961.083
245.074	28.062	1196.935	960.776
246.088	28.054	1195.756	959.699
247.103	28.016	1195.158	958.937
248.117	28.042	1194.347	958.335
249.132	28.039	1194.061	958.007
250.147	27.981	1193.294	957.000
251.161	28.091	1192.684	957.006
252.176	28.101	1191.714	956.192
253.190	28.039	1191.338	955.481
254.205	28.065	1190.702	955.026
255.220	28.084	1190.063	954.524
256.234	28.140	1189.159	954.007
257.249	28.134	1188.610	953.452
258.263	28.129	1188.115	952.947
259.278	28.163	1187.643	952.658
260.293	28.137	1187.278	952.146
261.307	28.019	1186.959	951.194
262.322	28.100	1186.090	950.831
263.336	28.137	1185.105	950.152
264.351	28.135	1184.811	949.825
265.366	28.166	1184.117	949.342
266.380	28.220	1183.362	948.932
267.395	28.207	1182.381	947.997
268.409	28.085	1182.490	947.365
269.424	28.229	1181.634	947.340
270.439	28.239	1180.587	946.471
271.453	28.294	1180.109	946.288
272.468	28.150	1179.551	945.012
273.482	28.112	1179.029	944.316
274.497	28.149	1178.706	944.163
275.512	28.233	1177.912	943.879
276.526	28.167	1177.224	942.902
277.541	28.319	1176.385	942.931
278.555	28.292	1175.684	942.148
279.570	28.352	1175.344	942.099
280.585	28.252	1174.079	940.486
281.599	28.282	1173.634	940.202
282.614	28.237	1172.824	939.239
283.628	28.284	1171.623	938.433
284.643	28.358	1170.930	938.174
285.657	28.274	1170.328	937.182
286.672	28.314	1169.555	936.685
287.687	28.432	1168.507	936.362
288.701	28.406	1168.068	935.798
289.716	28.353	1167.421	934.923
290.730	28.374	1166.606	934.294
291.745	28.306	1166.413	933.711
292.760	28.476	1165.517	933.780
293.774	28.436	1165.059	933.126
294.789	28.402	1164.512	932.431
295.803	28.547	1163.763	932.487
296.818	28.492	1163.155	931.640
297.833	28.382	1163.018	930.886
298.847	28.423	1161.780	930.021
299.862	28.494	1160.770	929.490
300.876	28.456	1160.430	928.941
301.891	28.459	1160.163	928.663
302.906	28.616	1159.204	928.606
303.920	28.503	1158.649	927.509
304.935	28.608	1157.923	927.374
305.949	28.450	1157.489	926.149
306.964	28.569	1156.528	925.897
307.979	28.603	1155.631	925.269
308.993	28.540	1155.490	924.755
310.008	28.590	1154.740	924.324
311.022	28.612	1153.939	923.712
312.037	28.509	1153.677	922.903
313.052	28.498	1152.584	921.892
314.066	28.526	1151.841	921.358
315.081	28.616	1150.880	920.958
316.095	28.783	1149.854	920.897
317.110	28.673	1149.746	920.174
318.125	28.655	1149.202	919.569
319.139	28.618	1148.629	918.845
320.154	28.576	1148.055	918.091
321.168	28.641	1147.559	917.939
322.183	28.615	1146.803	917.126
323.197	28.617	1145.981	916.395
324.212	28.722	1145.467	916.428
325.227	28.637	1145.603	916.033
326.241	28.737	1144.591	915.638
327.256	28.688	1143.748	914.638
328.270	28.624	1143.399	913.961
329.285	28.802	1142.067	913.699
330.300	28.859	1141.475	913.428
331.314	28.772	1140.440	912.090
332.329	28.854	1139.982	912.047
333.343	28.910	1138.884	911.368
334.358	28.865	1138.588	910.824
335.373	28.822	1137.857	909.949
336.387	28.987	1136.932	909.944
337.402	28.796	1136.682	908.718
338.416	28.838	1136.271	908.516
339.431	28.799	1135.504	907.631
340.446	28.899	1134.915	907.572
341.460	29.022	1133.966	907.339
342.475	28.915	1133.417	906.292
343.489	28.936	1132.277	905.405
344.504	28.981	1131.596	905.001
345.519	28.974	1131.058	904.455
346.533	29.015	1130.196	903.890
347.548	29.009	1129.555	903.267
348.562	29.035	1128.504	902.474
349.577	28.922	1127.923	901.374
350.592	28.881	1127.288	900.586
351.606	29.020	1126.708	900.723
352.621	29.088	1126.137	900.523
353.635	29.008	1125.317	899.395
354.650	28.966	1124.902	898.779
355.665	29.012	1124.333	898.470
356.679	29.021	1123.757	897.973
357.694	29.074	1122.817	897.400
358.708	29.056	1122.170	896.716
359.723	29.109	1121.724	896.538
360.738	29.199	1120.554	895.960
361.752	29.129	1120.135	895.209
362.767	29.163	1119.947	895.145
363.781	29.087	1119.825	894.599
364.796	29.222	1118.805	894.357
365.810	29.195	1118.275	893.726
366.825	29.229	1117.301	893.033
367.840	29.234	1117.587	893.205
368.854	29.207	1116.653	892.249
369.869	29.266	1115.863	891.825
370.883	29.250	1115.300	891.219
371.898	29.391	1114.161	890.911
372.913	29.267	1113.719	889.880
373.927	29.268	1113.050	889.271
374.942	29.288	1112.709	889.019
375.956	29.344	1112.306	888.885
376.971	29.231	1112.398	888.336
377.986	29.332	1111.809	888.273
379.000	29.436	1110.802	887.891
380.015	29.452	1110.241	887.440
381.029	29.444	1109.416	886.664
382.044	29.425	1109.085	886.230
383.059	29.370	1108.534	885.445
384.073	29.494	1107.506	885.142
385.088	29.395	1106.621	883.882
386.102	29.430	1105.851	883.358
387.117	29.384	1105.244	882.575
388.132	29.445	1104.031	881.818
389.146	29.442	1103.291	881.134
390.161	29.511	1103.037	881.187
391.175	29.502	1102.387	880.543
392.190	29.505	1101.679	879.914
393.205	29.463	1100.910	879.023
394.219	29.495	1100.395	878.687
395.234	29.626	1099.615	878.610
396.248	29.516	1098.790	877.348
397.263	29.565	1098.137	876.984
398.278	29.630	1097.689	876.857
399.292	29.734	1096.795	876.557
400.307	29.539	1096.498	875.318
401.321	29.670	1095.907	875.389
402.336	29.585	1095.133	874.290
403.350	29.660	1094.543	874.098
404.365	29.730	1093.744	873.714
405.380	29.830	1092.958	873.482
406.394	29.639	1092.465	872.105
407.409	29.741	1091.867	872.034
408.423	29.677	1091.047	870.999
409.438	29.815	1089.970	870.715
410.453	29.768	1089.556	870.083
411.467	29.677	1089.240	869.329
412.482	29.866	1088.292	869.379
413.496	29.843	1087.381	868.469
414.511	29.870	1086.871	868.113
415.526	29.722	1086.924	867.382
416.540	29.756	1086.529	867.151
417.555	29.711	1085.974	866.418
418.569	29.695	1085.347	865.766
419.584	29.840	1085.232	866.276
420.599	29.883	1084.553	865.862
421.613	104.434	1321.775	1457.908
422.628	97.208	1356.312	1458.002
