DTS Sentinel unit serial number:	SN413079Multiplexer serial number:	ORYXHardware model number:	OX4-SRSoftware version number:	ORYX F/W v4.00 Oryx Data Collector v3.7.2.0data status	okinstallation	princeton_trtdifferential loss correction	single-endedforward channel	channel 2reverse channel	N/Adate	2019/09/11time	18:53:10forward acquisition time	60.00reverse acquisition time	0.00gamma	496.2192k internal	0.2292k external	0.2292temperature offset calibration	1.0034default loss term (dB/km)	0.3790temperature slope calibration	1.0000multiplexer offset coefficient	1.0000multiplexer slope coefficient	1.0000fibre end	0.00T internal ref (°C)	42.73T ext. ref 1 (°C)	1.27T ext. ref 2 (°C)	35.07length (m)	temperature (°C)	Stokes	anti-Stokes-747.200	73.215	-0.324	-0.347
-746.185	395.564	0.039	0.083
-745.171	-132.535	-0.122	0.016
-744.156	-200.000	-0.098	0.560
-743.142	283.438	-0.037	0.069
-742.127	-200.000	-0.003	0.077
-741.112	-200.000	-0.001	0.102
-740.098	800.000	0.150	0.458
-739.083	60.391	-0.278	0.281
-738.069	-46.889	-0.482	0.241
-737.054	149.158	0.058	0.080
-736.039	-200.000	-0.009	0.081
-735.025	164.452	-0.147	-0.212
-734.010	-125.973	0.145	-0.022
-732.996	-200.000	-0.003	0.209
-731.981	-91.871	-0.184	0.053
-730.966	-131.244	-0.452	0.061
-729.952	-200.000	0.008	0.241
-728.937	-41.829	-0.277	0.145
-727.923	-17.361	-0.117	0.075
-726.908	207.205	-0.110	-0.175
-725.894	-19.310	0.410	-0.260
-724.879	-76.315	-0.113	-0.041
-723.864	-37.617	-0.231	-0.126
-722.850	-92.868	-0.208	0.059
-721.835	-0.509	-0.232	-0.169
-720.821	-200.000	0.009	-0.115
-719.806	391.499	0.167	0.355
-718.791	-200.000	-0.029	0.204
-717.777	-200.000	-0.016	0.423
-716.762	-43.416	0.060	0.031
-715.748	-114.263	0.228	-0.045
-714.733	-29.027	-0.121	0.071
-713.718	159.017	-0.127	-0.181
-712.704	-200.000	-0.325	0.000
-711.689	198.444	-0.133	-0.209
-710.675	-200.000	0.024	-0.114
-709.660	-128.335	0.282	-0.041
-708.645	-71.143	-0.051	0.019
-707.631	-200.000	-0.009	0.278
-706.616	148.583	0.100	0.138
-705.602	-14.374	0.109	-0.071
-704.587	454.400	0.063	0.143
-703.572	-92.167	-0.019	-0.005
-702.558	-6.583	-0.184	0.128
-701.543	285.411	-0.078	0.143
-700.529	800.000	-0.053	-0.219
-699.514	-108.562	-0.176	-0.039
-698.499	199.916	0.094	0.147
-697.485	-15.988	0.142	0.092
-696.470	-200.000	-0.013	-0.191
-695.456	800.000	0.063	0.189
-694.441	71.855	-0.132	-0.140
-693.426	590.193	0.054	0.137
-692.412	-53.611	-0.133	-0.062
-691.397	206.466	0.126	0.201
-690.383	-30.259	0.121	-0.070
-689.368	-60.672	-0.334	0.145
-688.354	-66.438	0.108	0.044
-687.339	-200.000	0.008	-0.047
-686.324	-120.719	0.354	-0.061
-685.310	1.805	0.416	0.306
-684.295	-72.922	0.128	0.048
-683.281	-148.785	0.067	0.006
-682.266	-200.000	0.027	-0.228
-681.251	220.156	-0.169	-0.276
-680.237	134.268	0.092	-0.121
-679.222	-129.822	0.204	0.029
-678.208	-89.327	-0.148	-0.045
-677.193	-102.611	0.345	-0.084
-676.178	7.062	-0.308	-0.234
-675.164	49.570	-0.200	-0.192
-674.149	-200.000	0.033	0.542
-673.135	-30.063	-0.177	0.103
-672.120	-114.346	0.282	0.055
-671.105	0.344	0.156	-0.114
-670.091	24.039	-0.205	0.172
-669.076	126.180	0.169	0.218
-668.062	-50.060	0.304	0.147
-667.047	43.425	0.221	-0.206
-666.032	800.000	-0.047	-0.172
-665.018	16.131	0.253	-0.203
-664.003	-48.893	-0.184	0.090
-662.989	-163.200	-0.201	0.010
-661.974	664.922	0.113	0.298
-660.959	86.888	0.121	0.136
-659.945	800.000	-0.029	-0.105
-658.930	-23.781	0.048	0.029
-657.916	151.059	0.134	0.186
-656.901	-7.739	-0.143	-0.098
-655.886	-140.175	0.079	0.008
-654.872	-47.289	-0.128	-0.064
-653.857	-117.336	-0.375	-0.069
-652.843	715.436	0.029	-0.079
-651.828	-200.000	-0.027	-0.251
-650.814	95.304	0.233	0.270
-649.799	-71.611	-0.174	-0.066
-648.784	664.339	-0.150	-0.394
-647.770	419.024	-0.039	0.086
-646.755	-69.479	0.302	-0.118
-645.741	201.340	-0.172	-0.269
-644.726	-52.775	-0.101	-0.047
-643.711	-138.602	-0.074	0.008
-642.697	-200.000	-0.005	0.078
-641.682	118.204	0.236	0.296
-640.668	-200.000	0.032	-0.280
-639.653	16.804	-0.133	0.107
-638.638	-4.830	0.084	-0.059
-637.624	800.000	0.059	-0.190
-636.609	85.380	-0.069	0.077
-635.595	91.609	-0.086	0.098
-634.580	46.459	-0.279	0.264
-633.565	-200.000	-0.024	0.257
-632.551	-71.474	-0.201	0.077
-631.536	-134.266	-0.163	0.020
-630.522	-108.592	0.324	-0.071
-629.507	-113.457	-0.100	-0.020
-628.492	800.000	0.111	-0.389
-627.478	154.224	-0.049	0.069
-626.463	12.641	-0.078	0.062
-625.449	-52.077	-0.295	0.139
-624.434	-2.823	-0.205	-0.146
-623.419	156.270	0.177	0.249
-622.405	-4.348	-0.127	0.090
-621.390	8.574	-0.331	-0.253
-620.376	-58.322	-0.366	-0.162
-619.361	-200.000	0.072	0.326
-618.346	-133.895	0.069	-0.009
-617.332	154.649	0.218	0.305
-616.317	5.955	-0.288	0.217
-615.303	238.423	0.148	-0.250
-614.288	-200.000	0.044	0.469
-613.273	-71.239	0.233	-0.089
-612.259	-58.990	0.200	0.088
-611.244	-200.000	0.007	-0.066
-610.230	-200.000	-0.007	-0.047
-609.215	13.992	0.066	-0.053
-608.201	-112.481	0.186	0.038
-607.186	524.475	0.058	-0.139
-606.171	226.479	0.173	-0.285
-605.157	416.754	-0.030	-0.064
-604.142	-66.175	0.304	0.123
-603.128	134.105	0.178	-0.235
-602.113	125.492	0.266	-0.341
-601.098	800.000	0.067	0.192
-600.084	-88.511	-0.068	0.021
-599.069	-39.721	-0.072	-0.039
-598.055	-103.848	0.026	0.006
-597.040	210.562	0.104	0.166
-596.025	126.019	-0.127	0.163
-595.011	-104.569	-0.170	-0.040
-593.996	756.629	-0.063	0.174
-592.982	-40.116	-0.184	0.098
-591.967	800.000	-0.151	0.486
-590.952	-200.000	0.065	0.307
-589.938	117.586	-0.082	-0.102
-588.923	419.579	0.070	-0.152
-587.909	446.194	-0.103	0.230
-586.894	-13.089	0.184	-0.122
-585.879	-200.000	-0.010	0.056
-584.865	66.173	0.255	-0.263
-583.850	-42.771	-0.214	-0.110
-582.836	-89.159	-0.284	-0.085
-581.821	-92.325	-0.078	0.022
-580.806	136.784	-0.064	0.085
-579.792	-200.000	-0.001	0.050
-578.777	-200.000	0.006	0.119
-577.763	-37.456	0.192	-0.104
-576.748	-200.000	-0.020	0.238
-575.733	49.035	-0.235	-0.225
-574.719	144.957	-0.229	-0.312
-573.704	-61.209	0.168	-0.072
-572.690	56.444	-0.215	-0.213
-571.675	-200.000	0.037	-0.493
-570.661	-87.641	0.206	-0.063
-569.646	800.000	0.056	-0.212
-568.631	40.085	0.046	-0.042
-567.617	645.120	-0.112	-0.291
-566.602	52.257	-0.164	0.159
-565.588	351.599	-0.072	0.145
-564.573	158.898	0.192	0.272
-563.558	45.895	-0.146	0.137
-562.544	89.608	0.132	-0.149
-561.529	252.592	0.188	-0.326
-560.515	113.135	0.144	-0.177
-559.500	-200.000	-0.012	-0.232
-558.485	-113.416	-0.329	-0.066
-557.471	36.573	-0.270	0.242
-556.456	-200.000	0.002	0.294
-555.442	-9.149	0.047	0.032
-554.427	-200.000	0.029	-0.139
-553.412	-30.579	-0.149	0.086
-552.398	800.000	-0.074	0.224
-551.383	-106.485	-0.187	0.042
-550.369	800.000	-0.099	0.372
-549.354	-22.667	0.228	-0.140
-548.339	325.399	-0.043	-0.083
-547.325	-200.000	-0.004	-0.134
-546.310	-112.013	-0.227	0.047
-545.296	29.243	0.060	0.052
-544.281	15.851	0.188	-0.150
-543.266	-74.992	-0.151	-0.055
-542.252	710.922	0.050	-0.134
-541.237	-85.932	-0.179	0.056
-540.223	-140.032	-0.563	-0.060
-539.208	480.537	0.086	0.198
-538.193	778.454	0.050	-0.140
-537.179	295.263	0.029	0.053
-536.164	-59.580	0.199	0.087
-535.150	-200.000	0.026	0.331
-534.135	-200.000	0.024	-0.335
-533.121	-28.110	0.094	0.055
-532.106	-168.173	-0.135	0.005
-531.091	553.623	-0.082	0.200
-530.077	94.546	0.278	-0.321
-529.062	5.150	-0.025	-0.019
-528.048	-25.765	-0.119	-0.071
-527.033	40.799	-0.129	0.118
-526.018	-200.000	-0.002	0.105
-525.004	595.916	0.098	0.247
-523.989	-160.614	-0.241	0.013
-522.975	102.053	-0.029	-0.035
-521.960	-137.495	-0.191	0.022
-520.945	295.863	0.167	0.311
-519.931	554.208	-0.036	0.089
-518.916	-175.708	0.346	-0.009
-517.902	-91.379	0.269	-0.078
-516.887	698.858	0.109	0.290
-515.872	-103.196	0.159	0.038
-514.858	80.684	-0.265	0.290
-513.843	161.991	-0.155	0.221
-512.829	-200.000	-0.011	0.050
-511.814	800.000	-0.052	0.223
-510.799	-200.000	-0.010	0.049
-509.785	71.114	-0.176	0.185
-508.770	-105.029	-0.241	-0.056
-507.756	800.000	0.042	-0.160
-506.741	212.731	-0.107	-0.171
-505.726	229.841	-0.068	-0.112
-504.712	-41.418	-0.342	0.178
-503.697	-150.856	0.375	-0.029
-502.683	69.547	-0.093	-0.097
-501.668	-129.334	-0.200	0.028
-500.653	384.461	-0.124	0.259
-499.639	118.394	0.120	-0.150
-498.624	306.354	-0.054	-0.102
-497.610	338.758	-0.130	0.257
-496.595	27.551	-0.094	0.081
-495.581	-136.475	0.178	-0.021
-494.566	-79.343	0.336	-0.115
-493.551	-168.160	-0.509	-0.020
-492.537	-200.000	-0.018	0.526
-491.522	800.000	-0.031	0.106
-490.508	-200.000	0.028	0.200
-489.493	800.000	-0.055	-0.160
-488.478	-166.758	-0.197	-0.008
-487.464	800.000	-0.011	-0.031
-486.449	800.000	0.109	-0.397
-485.435	-94.134	-0.181	-0.050
-484.420	-17.748	-0.224	0.142
-483.405	-200.000	0.000	0.077
-482.391	550.748	-0.084	-0.203
-481.376	-51.762	0.115	0.054
-480.362	78.603	0.029	0.032
-479.347	98.015	-0.222	-0.259
-478.332	800.000	-0.019	-0.076
-477.318	-147.499	0.210	0.018
-476.303	800.000	0.064	0.210
-475.289	800.000	-0.150	0.438
-474.274	1.337	0.219	-0.160
-473.259	-90.129	-0.191	0.056
-472.245	-95.067	0.167	-0.046
-471.230	-200.000	-0.050	0.308
-470.216	-108.599	0.145	-0.032
-469.201	800.000	-0.080	-0.256
-468.186	37.497	-0.054	-0.049
-467.172	-92.752	-0.097	0.028
-466.157	623.016	0.145	-0.370
-465.143	-71.323	-0.281	0.107
-464.128	800.000	0.010	-0.040
-463.113	284.671	-0.101	-0.185
-462.099	-144.133	-0.187	-0.018
-461.084	-103.222	-0.210	0.050
-460.070	-84.676	-0.398	-0.127
-459.055	10.906	0.247	0.191
-458.040	22.007	-0.217	0.179
-457.026	36.446	0.185	0.165
-456.011	407.135	-0.078	0.168
-454.997	48.304	-0.215	-0.204
-453.982	150.367	-0.248	0.341
-452.968	800.000	-0.004	0.014
-451.953	-200.000	0.008	-0.120
-450.938	-77.515	-0.219	0.077
-449.924	-200.000	-0.071	0.376
-448.909	-36.223	0.207	-0.113
-447.895	-200.000	0.023	-0.207
-446.880	-200.000	-0.002	-0.105
-445.865	-200.000	0.047	-0.413
-444.851	-200.000	0.012	-0.193
-443.836	800.000	0.052	0.160
-442.822	-35.218	-0.256	0.141
-441.807	-71.507	-0.091	0.034
-440.792	21.432	0.252	0.207
-439.778	-139.377	-0.367	0.040
-438.763	-63.072	0.089	0.037
-437.749	27.404	-0.083	0.070
-436.734	-200.000	-0.049	-0.255
-435.719	-158.674	0.387	-0.022
-434.705	-98.254	-0.227	0.059
-433.690	-19.269	-0.127	0.079
-432.676	703.185	0.133	-0.353
-431.661	800.000	-0.066	0.201
-430.646	134.401	-0.230	0.302
-429.632	400.876	0.087	0.185
-428.617	63.882	-0.040	-0.040
-427.603	587.936	0.176	-0.437
-426.588	-181.737	0.235	0.005
-425.573	-27.715	0.260	-0.153
-424.559	-120.714	0.413	-0.071
-423.544	-200.000	-0.006	0.051
-422.530	800.000	-0.055	0.210
-421.515	-59.457	-0.276	-0.120
-420.500	-176.183	0.034	-0.001
-419.486	-79.657	0.114	-0.039
-418.471	800.000	0.038	0.162
-417.457	-200.000	0.034	-0.227
-416.442	-36.677	-0.226	-0.123
-415.428	-62.164	0.134	-0.056
-414.413	-4.988	0.187	0.130
-413.398	-103.962	0.192	-0.045
-412.384	79.582	-0.090	0.097
-411.369	263.912	0.072	0.126
-410.355	309.294	0.120	0.227
-409.340	-128.649	-0.240	0.034
-408.325	-27.058	-0.164	0.096
-407.311	-200.000	-0.039	0.214
-406.296	122.345	-0.059	0.075
-405.282	-69.910	-0.241	-0.093
-404.267	-86.473	0.199	0.062
-403.252	246.138	0.082	0.139
-402.238	-23.775	-0.053	0.032
-401.223	800.000	-0.106	-0.318
-400.209	-48.442	-0.399	0.194
-399.194	-200.000	-0.004	-0.193
-398.179	-120.611	-0.108	-0.018
-397.165	-117.375	0.159	0.029
-396.150	-50.311	0.391	-0.186
-395.136	-153.322	-0.205	0.014
-394.121	93.096	-0.149	0.170
-393.106	800.000	0.060	0.246
-392.092	-121.310	0.217	-0.037
-391.077	-81.618	0.137	-0.045
-390.063	-138.386	-0.031	-0.003
-389.048	262.179	-0.099	-0.173
-388.033	800.000	-0.056	0.206
-387.019	800.000	-0.074	0.289
-386.004	-134.160	-0.246	-0.031
-384.990	90.040	-0.152	0.172
-383.975	266.113	-0.062	0.108
-382.960	-155.277	-0.170	0.011
-381.946	800.000	0.063	-0.256
-380.931	-93.299	0.149	0.042
-379.917	-200.000	-0.059	-0.263
-378.902	70.119	-0.112	-0.117
-377.888	189.832	0.269	-0.407
-376.873	34.977	-0.163	-0.144
-375.858	-72.962	0.203	0.075
-374.844	-200.000	-0.018	0.158
-373.829	-133.420	0.204	-0.026
-372.815	-198.301	-0.170	-0.001
-371.800	800.000	0.035	0.122
-370.785	249.120	0.090	-0.154
-369.771	800.000	0.094	-0.269
-368.756	-200.000	0.016	-0.195
-367.742	60.068	-0.044	0.043
-366.727	-77.309	-0.128	0.045
-365.712	55.870	0.217	0.213
-364.698	-79.753	0.071	0.024
-363.683	158.103	-0.080	-0.112
-362.669	229.146	0.098	-0.161
-361.654	-68.276	0.115	-0.045
-360.639	44.371	0.134	-0.124
-359.625	305.725	-0.120	0.226
-358.610	-94.977	0.390	-0.106
-357.596	65.599	-0.071	0.073
-356.581	139.968	0.085	-0.113
-355.566	-118.155	-0.225	0.040
-354.552	132.057	0.075	-0.097
-353.537	113.349	0.224	-0.274
-352.523	-200.000	0.028	-0.252
-351.508	-200.000	-0.012	-0.299
-350.493	-10.395	-0.229	-0.153
-349.479	-200.000	0.056	-0.327
-348.464	147.022	-0.115	0.156
-347.450	-156.206	-0.142	0.009
-346.435	60.032	-0.098	0.097
-345.420	-200.000	-0.007	0.078
-344.406	-57.503	0.188	0.083
-343.391	-179.603	0.177	-0.004
-342.377	800.000	-0.051	0.193
-341.362	-152.371	0.180	0.013
-340.348	-200.000	-0.067	-0.363
-339.333	174.899	-0.093	-0.136
-338.318	79.512	0.088	-0.095
-337.304	102.398	0.108	-0.127
-336.289	142.281	0.134	0.179
-335.275	-200.000	0.133	-0.001
-334.260	800.000	0.046	-0.183
-333.245	-20.991	0.238	0.147
-332.231	265.531	0.091	-0.161
-331.216	66.634	0.047	0.048
-330.202	8.117	0.127	0.096
-329.187	9.986	-0.068	-0.052
-328.172	-55.639	0.099	-0.044
-327.158	141.335	-0.265	0.354
-326.143	-155.447	-0.332	-0.022
-325.129	-62.175	-0.189	-0.080
-324.114	-66.371	0.075	0.030
-323.099	-21.958	0.080	-0.049
-322.085	800.000	0.098	0.274
-321.070	-9.893	0.143	-0.096
-320.056	-200.000	0.043	0.238
-319.041	800.000	-0.052	-0.170
-318.026	-34.272	0.161	0.089
-317.012	-192.165	-0.156	-0.002
-315.997	-147.935	-0.294	0.025
-314.983	-137.403	-0.185	-0.021
-313.968	-106.194	-0.153	0.034
-312.953	45.302	-0.091	0.084
-311.939	152.505	0.164	-0.226
-310.924	171.109	0.159	-0.230
-309.910	733.512	0.141	-0.379
-308.895	-24.346	0.079	-0.047
-307.880	-200.000	0.001	0.167
-306.866	80.086	-0.083	0.090
-305.851	800.000	0.033	-0.143
-304.837	-56.246	0.118	-0.053
-303.822	-101.426	0.039	-0.010
-302.807	219.472	0.063	0.101
-301.793	-106.462	0.156	-0.035
-300.778	-141.344	-0.267	-0.027
-299.764	-95.680	0.204	-0.055
-298.749	512.679	0.105	0.245
-297.735	-200.000	0.010	-0.245
-296.720	15.213	0.320	-0.252
-295.705	-30.530	0.214	0.122
-294.691	-200.000	0.011	-0.093
-293.676	540.556	-0.092	-0.221
-292.662	-200.000	-0.033	-0.387
-291.647	-200.000	-0.003	0.041
-290.632	-200.000	0.004	-0.285
-289.618	-200.000	0.045	-0.231
-288.603	-0.145	0.261	0.187
-287.589	-18.729	0.122	0.076
-286.574	227.842	-0.198	-0.324
-285.559	-10.823	-0.025	-0.017
-284.545	-123.839	0.037	0.006
-283.530	-27.310	-0.182	-0.107
-282.516	-63.070	0.049	0.020
-281.501	133.126	-0.209	-0.271
-280.486	-200.000	-0.025	0.155
-279.472	-97.540	0.220	0.057
-278.457	-200.000	0.002	-0.050
-277.443	106.972	0.191	-0.228
-276.428	-77.946	0.038	-0.013
-275.413	108.469	-0.191	-0.230
-274.399	-44.910	0.502	0.251
-273.384	38.383	-0.021	0.019
-272.370	-1.531	0.178	0.126
-271.355	-200.000	0.002	-0.031
-270.340	-200.000	0.007	0.190
-269.326	-200.000	0.012	0.167
-268.311	-13.741	-0.071	0.046
-267.297	-192.756	0.156	-0.001
-266.282	-93.768	0.147	-0.041
-265.267	-71.629	0.326	-0.122
-264.253	38.933	-0.125	-0.113
-263.238	90.994	-0.045	0.050
-262.224	0.484	-0.268	0.192
-261.209	-110.846	0.248	0.051
-260.195	-59.399	0.113	-0.049
-259.180	-200.000	-0.024	-0.297
-258.165	-200.000	-0.030	-0.147
-257.151	-200.000	-0.015	-0.188
-256.136	800.000	0.037	0.158
-255.122	-49.110	-0.152	0.073
-254.107	127.752	-0.123	-0.157
-253.092	-39.678	-0.101	-0.053
-252.078	-85.938	0.128	-0.040
-251.063	800.000	-0.013	0.043
-250.049	25.966	0.171	0.143
-249.034	-200.000	-0.027	0.261
-248.019	-106.136	-0.376	-0.085
-247.005	-119.262	-0.283	0.050
-245.990	800.000	0.030	0.083
-244.976	117.939	-0.183	0.226
-243.961	71.152	0.309	0.321
-242.946	24.148	0.165	0.137
-241.932	-39.704	-0.225	-0.118
-240.917	-160.841	0.046	0.002
-239.903	523.411	0.045	-0.107
-238.888	-136.114	0.258	0.030
-237.873	-117.527	0.370	0.067
-236.859	-173.804	0.218	-0.006
-235.844	180.888	0.092	-0.135
-234.830	418.076	-0.100	-0.215
-233.815	58.697	-0.150	-0.148
-232.800	-200.000	-0.044	0.260
-231.786	-32.950	-0.302	-0.168
-230.771	186.155	-0.044	0.065
-229.757	-5.787	0.098	0.067
-228.742	230.952	0.101	-0.166
-227.727	-70.443	-0.028	-0.011
-226.713	344.364	0.057	0.113
-225.698	-200.000	-0.013	0.118
-224.684	-65.163	0.087	0.035
-223.669	-4.179	0.247	0.172
-222.655	182.963	0.031	0.045
-221.640	-95.289	0.239	0.064
-220.625	5.997	-0.145	-0.108
-219.611	800.000	0.043	-0.157
-218.596	39.666	-0.061	-0.055
-217.582	-96.871	0.375	0.099
-216.567	-200.000	0.015	0.185
-215.552	33.934	-0.130	-0.114
-214.538	167.334	0.137	0.194
-213.523	800.000	0.038	0.150
-212.509	-200.000	-0.013	0.229
-211.494	26.278	-0.023	-0.019
-210.479	175.260	0.006	0.009
-209.465	-126.418	0.241	-0.036
-208.450	-108.417	0.160	-0.035
-207.436	-200.000	-0.032	0.197
-206.421	-200.000	0.025	-0.176
-205.406	-89.984	-0.090	0.026
-204.392	-200.000	-0.036	0.293
-203.377	-10.597	-0.060	0.040
-202.363	800.000	0.068	-0.216
-201.348	800.000	0.053	0.228
-200.333	800.000	0.094	-0.324
-199.319	152.472	-0.193	-0.264
-198.304	-178.127	0.071	0.002
-197.290	-200.000	0.031	-0.176
-196.275	-200.000	0.009	0.169
-195.260	11.543	-0.102	0.079
-194.246	-82.997	0.118	0.038
-193.231	183.312	-0.084	0.124
-192.217	-16.223	0.209	0.133
-191.202	105.103	0.093	-0.110
-190.187	162.487	0.129	0.182
-189.173	-50.156	-0.076	-0.036
-188.158	800.000	0.010	-0.042
-187.144	-200.000	-0.026	0.186
-186.129	-9.527	-0.250	0.167
-185.114	231.351	0.168	-0.275
-184.100	-156.264	0.145	-0.009
-183.085	225.980	0.258	-0.419
-182.071	-200.000	0.015	0.073
-181.056	39.312	0.094	-0.085
-180.042	-200.000	0.013	0.306
-179.027	277.889	0.114	-0.203
-178.012	-110.329	-0.131	-0.027
-176.998	587.450	-0.016	-0.040
-175.983	-80.156	0.152	0.051
-174.969	75.112	0.048	0.050
-173.954	738.750	-0.032	0.085
-172.939	800.000	-0.041	0.154
-171.925	-31.262	-0.271	0.152
-170.910	380.247	0.133	0.272
-169.896	-39.401	-0.142	0.074
-168.881	188.151	-0.128	0.191
-167.866	-126.533	0.196	0.029
-166.852	-74.772	-0.178	0.064
-165.837	636.474	-0.066	0.167
-164.823	-102.696	0.232	0.055
-163.808	-73.039	-0.109	0.040
-162.793	-109.674	-0.124	0.026
-161.779	16.134	0.309	-0.244
-160.764	20.781	-0.111	-0.090
-159.750	800.000	0.105	0.305
-158.735	-200.000	-0.040	0.234
-157.720	800.000	0.042	0.144
-156.706	-200.000	-0.033	0.188
-155.691	237.231	-0.063	-0.104
-154.677	-200.000	-0.031	-0.233
-153.662	-200.000	0.041	-0.549
-152.647	800.000	0.081	-0.262
-151.633	-71.630	0.100	0.037
-150.618	289.759	0.172	0.313
-149.604	-23.279	-0.383	-0.230
-148.589	-183.191	0.310	0.005
-147.574	167.498	0.112	0.158
-146.560	-83.745	-0.070	0.022
-145.545	-200.000	-0.010	0.241
-144.531	-85.587	0.277	-0.086
-143.516	-62.466	-0.176	0.073
-142.502	-15.180	0.244	0.156
-141.487	21.636	0.089	-0.072
-140.472	37.180	0.216	-0.191
-139.458	-200.000	0.017	-0.287
-138.443	339.742	-0.159	0.311
-137.429	-110.175	0.215	-0.045
-136.414	-200.000	-0.040	-0.199
-135.399	611.879	-0.024	-0.060
-134.385	6.595	-0.245	-0.182
-133.370	153.906	0.278	-0.381
-132.356	-77.853	-0.290	-0.100
-131.341	800.000	0.031	0.096
-130.326	35.419	0.150	0.131
-129.312	399.711	-0.147	-0.308
-128.297	-111.209	-0.395	-0.081
-127.283	56.738	-0.037	0.036
-126.268	-200.000	0.019	-0.123
-125.253	-164.066	0.262	-0.012
-124.239	-26.745	0.174	0.102
-123.224	94.632	0.193	0.219
-122.210	-200.000	-0.019	-0.131
-121.195	-37.484	0.379	-0.202
-120.180	-94.214	-0.063	-0.017
-119.166	100.872	-0.282	-0.327
-118.151	182.682	0.145	0.213
-117.137	431.825	0.098	0.212
-116.122	183.027	0.030	-0.044
-115.107	-148.236	-0.172	0.014
-114.093	-18.568	0.343	0.214
-113.078	-134.801	-0.123	0.015
-112.064	-200.000	0.018	-0.176
-111.049	-200.000	0.020	0.221
-110.034	-200.000	-0.031	0.207
-109.020	-200.000	-0.017	-0.178
-108.005	-17.981	-0.158	-0.099
-106.991	-20.057	0.219	-0.135
-105.976	800.000	0.031	0.126
-104.962	4.121	0.241	0.176
-103.947	2.553	0.104	0.075
-102.932	-64.288	0.163	-0.066
-101.918	160.839	-0.271	-0.377
-100.903	-200.000	-0.020	-0.157
-99.889	34.382	-0.321	0.279
-98.874	-200.000	-0.026	-0.316
-97.859	-184.951	-0.083	0.001
-96.845	-53.783	0.185	0.084
-95.830	800.000	0.026	-0.099
-94.816	151.499	0.180	0.244
-93.801	-84.482	0.029	-0.009
-92.786	-200.000	-0.020	-0.328
-91.772	-91.159	0.371	-0.106
-90.757	89.452	-0.106	0.118
-89.743	-37.980	0.241	0.128
-88.728	-86.557	0.193	0.059
-87.713	93.656	-0.152	0.172
-86.699	-104.413	0.337	0.078
-85.684	84.837	-0.201	0.220
-84.670	1.592	-0.203	0.146
-83.655	257.467	-0.078	-0.135
-82.640	516.076	-0.044	-0.103
-81.626	-75.420	0.160	-0.057
-80.611	422.220	0.129	0.276
-79.597	-24.221	0.296	0.176
-78.582	-40.876	-0.133	0.068
-77.567	530.509	-0.053	0.126
-76.553	-32.005	-0.139	0.077
-75.538	231.360	0.070	-0.115
-74.524	190.592	-0.044	-0.066
-73.509	111.520	0.083	0.100
-72.494	-200.000	-0.051	-0.267
-71.480	8.144	0.197	-0.147
-70.465	-90.588	0.163	-0.047
-69.451	-109.233	0.435	-0.092
-68.436	-126.069	0.268	-0.040
-67.422	55.831	0.195	-0.188
-66.407	539.118	0.067	-0.158
-65.392	36.679	-0.182	0.160
-64.378	-128.145	-0.130	0.019
-63.363	30.706	-0.157	-0.134
-62.349	0.238	-0.079	0.056
-61.334	60.765	-0.625	-0.617
-60.319	272.353	-0.148	0.261
-59.305	-200.000	-0.044	-0.470
-58.290	327.441	0.321	0.613
-57.276	800.000	0.439	1.213
-56.261	-200.000	74.929	530.175
-55.246	560.792	1307.377	3147.850
-54.232	145.888	2541.552	3394.901
-53.217	115.257	2336.953	2843.165
-52.203	52.511	1955.159	1859.579
-51.188	46.234	1746.293	1611.856
-50.173	43.213	1701.362	1547.196
-49.159	58.251	1735.239	1694.340
-48.144	64.488	1753.228	1759.849
-47.130	46.131	1717.229	1583.984
-46.115	42.832	1702.965	1545.482
-45.100	42.746	1698.536	1540.745
-44.086	42.620	1696.437	1537.812
-43.071	42.633	1693.704	1535.371
-42.057	42.656	1690.853	1532.903
-41.042	42.587	1689.662	1531.236
-40.027	42.581	1687.471	1529.142
-39.013	42.613	1685.511	1527.553
-37.998	42.536	1683.646	1525.215
-36.984	42.618	1682.059	1524.339
-35.969	42.665	1681.203	1523.861
-34.954	42.819	1678.767	1522.758
-33.940	42.749	1676.573	1520.176
-32.925	42.757	1675.406	1519.116
-31.911	42.773	1673.780	1517.703
-30.896	42.761	1671.590	1515.572
-29.881	42.739	1669.665	1513.601
-28.867	42.683	1668.409	1511.975
-27.852	42.666	1666.934	1510.454
-26.838	42.755	1664.838	1509.163
-25.823	42.797	1663.694	1508.379
-24.809	42.789	1662.131	1506.841
-23.794	42.813	1660.667	1505.633
-22.779	42.754	1659.732	1504.284
-21.765	42.656	1657.903	1501.835
-20.750	42.733	1656.232	1500.837
-19.736	42.734	1654.883	1499.563
-18.721	42.760	1653.056	1498.046
-17.706	42.739	1651.746	1496.639
-16.692	42.755	1649.975	1495.098
-15.677	42.684	1648.246	1492.940
-14.663	42.707	1647.330	1492.220
-13.648	42.821	1645.769	1491.594
-12.633	42.804	1644.204	1489.994
-11.619	42.872	1642.332	1488.737
-10.604	42.743	1640.743	1486.289
-9.590	42.823	1639.637	1485.819
-8.575	42.766	1638.460	1484.271
-7.560	42.764	1637.533	1483.354
-6.546	42.867	1636.165	1482.817
-5.531	42.724	1635.335	1480.957
-4.517	42.718	1633.744	1479.412
-3.502	42.700	1633.127	1478.658
-2.487	42.846	1631.059	1477.803
-1.473	42.359	1619.041	1463.304
-0.458	38.879	1597.015	1418.239
0.556	33.436	1593.416	1373.054
1.571	30.271	1616.582	1369.576
2.586	29.371	1630.853	1374.840
3.600	25.719	1577.481	1303.341
4.615	14.190	1459.957	1128.399
5.629	3.494	1385.165	1001.359
6.644	1.483	1374.479	980.580
7.659	1.226	1373.421	978.079
8.673	1.142	1372.184	976.571
9.688	1.230	1370.439	975.813
10.702	0.974	1367.516	972.001
11.717	4.537	1375.387	1000.476
12.731	15.222	1396.036	1084.919
13.746	23.449	1409.948	1149.195
14.761	24.931	1411.675	1160.112
15.775	25.244	1410.564	1161.120
16.790	25.261	1410.454	1161.034
17.804	25.349	1409.715	1160.893
18.819	25.492	1409.870	1161.843
19.834	25.566	1408.652	1161.217
20.848	25.564	1408.289	1160.798
21.863	25.603	1407.552	1160.339
22.877	25.619	1406.358	1159.357
23.892	25.685	1405.593	1159.048
24.907	25.589	1404.622	1157.529
25.921	25.552	1403.941	1156.626
26.936	25.558	1402.914	1155.717
27.950	25.575	1401.703	1154.728
28.965	25.537	1400.617	1153.483
29.980	25.489	1399.071	1151.805
30.994	25.656	1397.428	1151.417
32.009	25.440	1397.162	1149.713
33.023	25.441	1396.068	1148.716
34.038	25.587	1394.371	1148.150
35.053	25.561	1393.268	1146.981
36.067	25.637	1392.149	1146.440
37.082	25.557	1391.336	1145.160
38.096	25.547	1390.262	1144.107
39.111	25.527	1389.876	1143.566
40.126	25.584	1389.273	1143.326
41.140	25.555	1388.636	1142.519
42.155	25.500	1388.408	1141.878
43.169	25.515	1388.409	1141.875
44.184	25.541	1388.218	1141.780
45.199	25.494	1387.612	1140.883
46.213	25.542	1386.934	1140.533
47.228	25.520	1386.317	1139.781
48.242	25.627	1384.623	1138.967
49.257	25.484	1383.493	1137.031
50.271	25.564	1382.011	1136.219
51.286	25.643	1380.534	1135.402
52.301	25.496	1379.504	1133.529
53.315	25.516	1378.846	1133.015
54.330	25.566	1377.782	1132.354
55.344	25.519	1376.795	1131.145
56.359	25.610	1375.563	1130.608
57.374	25.524	1374.775	1129.316
58.388	25.519	1374.208	1128.720
59.403	25.562	1373.575	1128.373
60.417	25.556	1372.750	1127.556
61.432	25.387	1372.287	1126.016
62.447	25.488	1371.101	1125.574
63.461	25.539	1369.999	1124.889
64.476	25.545	1368.877	1123.910
65.490	25.602	1367.921	1123.381
66.505	25.614	1366.167	1121.914
67.520	25.645	1364.830	1120.911
68.534	25.541	1364.288	1119.721
69.549	25.641	1362.900	1119.105
70.563	25.539	1362.255	1117.838
71.578	25.614	1361.103	1117.261
72.593	25.659	1360.323	1116.803
73.607	25.605	1359.862	1115.987
74.622	25.608	1358.747	1114.995
75.636	25.543	1358.249	1114.083
76.651	25.558	1357.413	1113.391
77.666	25.513	1357.247	1112.879
78.680	25.589	1356.547	1112.678
79.695	25.614	1356.052	1112.325
80.709	25.588	1354.906	1111.129
81.724	25.554	1354.315	1110.335
82.739	25.624	1352.767	1109.401
83.753	25.630	1352.250	1108.915
84.768	25.577	1351.350	1107.754
85.782	25.601	1349.921	1106.628
86.797	25.562	1348.861	1105.426
87.812	25.669	1347.559	1104.916
88.826	25.635	1346.663	1103.877
89.841	25.551	1345.898	1102.635
90.855	25.603	1344.622	1101.814
91.870	25.676	1343.392	1101.150
92.884	25.600	1342.726	1100.045
93.899	25.624	1341.923	1099.436
94.914	25.610	1341.297	1098.741
95.928	25.627	1340.425	1098.031
96.943	25.721	1339.786	1097.984
97.957	25.561	1339.604	1096.764
98.972	25.579	1338.266	1095.682
99.987	25.678	1337.142	1095.268
101.001	25.669	1336.106	1094.265
102.016	25.605	1335.166	1093.009
103.030	25.645	1334.346	1092.486
104.045	25.628	1333.497	1091.590
105.060	25.602	1332.761	1090.734
106.074	25.580	1332.093	1089.956
107.089	25.635	1330.578	1088.955
108.103	25.663	1329.707	1088.310
109.118	25.530	1328.845	1086.709
110.133	25.816	1326.925	1086.770
111.147	25.729	1325.781	1085.209
112.162	25.619	1325.103	1083.898
113.176	25.670	1324.038	1083.238
114.191	25.708	1322.972	1082.493
115.206	25.673	1321.992	1081.386
116.220	25.716	1320.945	1080.697
117.235	25.743	1320.042	1080.023
118.249	25.670	1319.269	1078.858
119.264	25.687	1318.349	1078.108
120.279	25.663	1317.440	1077.130
121.293	25.729	1316.718	1076.836
122.308	25.736	1315.801	1076.036
123.322	25.759	1315.027	1075.440
124.337	25.643	1314.611	1074.312
125.352	25.705	1313.617	1073.778
126.366	25.717	1312.415	1072.773
127.381	25.639	1312.050	1071.913
128.395	25.690	1311.200	1071.429
129.410	25.712	1310.434	1070.835
130.424	25.750	1309.141	1069.915
131.439	25.744	1308.753	1069.462
132.454	25.820	1307.950	1069.164
133.468	25.711	1307.262	1067.860
134.483	25.849	1306.466	1067.936
135.497	25.737	1305.632	1066.493
136.512	25.834	1304.405	1065.975
137.527	25.876	1302.714	1064.743
138.541	25.810	1301.772	1063.490
139.556	25.751	1300.819	1062.268
140.570	25.808	1299.807	1061.686
141.585	25.727	1299.237	1060.652
142.600	25.711	1298.126	1059.553
143.614	25.692	1297.616	1058.932
144.629	25.749	1295.842	1057.726
145.643	25.726	1294.945	1056.766
146.658	25.570	1294.494	1055.389
147.673	25.675	1292.929	1054.633
148.687	25.685	1291.936	1053.788
149.702	25.602	1290.635	1052.148
150.716	25.647	1289.656	1051.521
151.731	25.667	1288.779	1050.830
152.746	25.708	1287.774	1050.154
153.760	25.758	1286.540	1049.346
154.775	25.745	1285.551	1048.375
155.789	25.753	1284.605	1047.555
156.804	25.699	1283.905	1046.575
157.819	25.793	1282.991	1046.286
158.833	25.741	1282.308	1045.337
159.848	25.709	1281.503	1044.399
160.862	25.755	1280.929	1044.108
161.877	25.718	1279.894	1042.955
162.892	25.839	1278.875	1042.737
163.906	25.819	1278.390	1042.132
164.921	25.802	1277.376	1041.114
165.935	25.737	1277.015	1040.354
166.950	25.712	1276.228	1039.472
167.964	25.804	1275.186	1039.064
168.979	25.827	1274.746	1038.745
169.994	25.838	1274.170	1038.250
171.008	25.856	1273.257	1037.519
172.023	25.977	1272.384	1037.411
173.037	25.794	1272.081	1036.020
174.052	25.872	1271.394	1035.815
175.067	25.874	1270.569	1035.062
176.081	25.832	1269.625	1033.961
177.096	25.864	1268.908	1033.471
178.110	25.855	1267.718	1032.359
179.125	25.876	1266.782	1031.624
180.140	25.892	1265.411	1030.509
181.154	25.892	1264.927	1030.022
182.169	25.770	1263.697	1028.236
183.183	25.881	1262.664	1027.934
184.198	25.874	1261.776	1027.082
185.213	25.893	1261.025	1026.489
186.227	25.975	1259.763	1025.836
187.242	25.905	1259.332	1024.998
188.256	25.848	1257.847	1023.375
189.271	25.902	1257.167	1023.038
190.286	25.958	1256.675	1022.864
191.300	25.932	1255.955	1022.040
192.315	25.838	1255.707	1021.211
193.329	25.931	1255.297	1021.317
194.344	26.014	1254.795	1021.290
195.359	25.914	1254.438	1020.339
196.373	25.882	1253.698	1019.467
197.388	25.927	1253.449	1019.431
198.402	25.875	1253.102	1018.763
199.417	25.920	1252.605	1018.523
200.432	25.946	1251.810	1017.935
201.446	25.973	1250.941	1017.288
202.461	25.903	1250.355	1016.327
203.475	25.971	1249.702	1016.093
204.490	25.989	1248.651	1015.249
205.504	25.947	1247.334	1013.848
206.519	25.973	1246.523	1013.246
207.534	26.033	1245.881	1012.973
208.548	25.950	1245.027	1011.723
209.563	26.049	1244.214	1011.528
210.577	26.012	1243.260	1010.455
211.592	26.029	1242.190	1009.592
212.607	26.143	1241.371	1009.475
213.621	26.002	1241.180	1008.443
214.636	25.977	1240.488	1007.652
215.650	26.105	1239.177	1007.208
216.665	26.135	1238.089	1006.403
217.680	26.004	1237.637	1005.218
218.694	26.089	1236.789	1004.916
219.709	25.955	1236.161	1003.568
220.723	25.965	1235.447	1002.955
221.738	26.065	1234.798	1002.897
222.753	26.004	1233.815	1001.670
223.767	26.027	1233.294	1001.287
224.782	26.046	1233.022	1001.082
225.796	26.075	1232.322	1000.587
226.811	26.189	1231.425	1000.403
227.826	26.129	1231.061	999.685
228.840	26.195	1230.339	999.374
229.855	26.159	1229.796	998.648
230.869	26.210	1228.814	998.043
231.884	26.116	1228.291	997.009
232.899	26.111	1227.644	996.369
233.913	26.169	1226.770	995.893
234.928	26.173	1226.580	995.672
235.942	26.240	1226.042	995.516
236.957	26.159	1225.324	994.401
237.972	26.206	1224.490	993.893
238.986	26.173	1223.812	993.071
240.001	26.150	1223.233	992.390
241.015	26.299	1222.587	992.595
242.030	26.328	1221.560	991.830
243.045	26.355	1220.641	991.145
244.059	26.410	1219.860	990.727
245.074	26.326	1219.418	989.819
246.088	26.345	1218.303	988.932
247.103	26.457	1217.448	988.763
248.117	26.285	1216.865	987.260
249.132	26.406	1215.847	987.007
250.147	26.399	1215.016	986.210
251.161	26.386	1214.742	985.826
252.176	26.399	1213.981	985.195
253.190	26.396	1213.322	984.556
254.205	26.315	1213.049	983.807
255.220	26.410	1211.825	983.244
256.234	26.471	1211.453	983.186
257.249	26.548	1210.508	982.751
258.263	26.505	1210.224	982.199
259.278	26.416	1210.068	981.503
260.293	26.422	1209.239	980.776
261.307	26.407	1208.815	980.261
262.322	26.413	1208.200	979.711
263.336	26.472	1206.957	978.932
264.351	26.392	1207.100	978.532
265.366	26.400	1206.134	977.703
266.380	26.427	1205.599	977.331
267.395	26.442	1205.070	976.897
268.409	26.412	1204.482	976.169
269.424	26.490	1203.538	975.741
270.439	26.502	1203.279	975.510
271.453	26.542	1202.554	975.049
272.468	26.433	1202.101	974.011
273.482	26.416	1201.056	972.987
274.497	26.428	1200.732	972.701
275.512	26.435	1200.309	972.311
276.526	26.538	1199.474	972.103
277.541	26.579	1198.341	971.316
278.555	26.613	1197.836	971.004
279.570	26.603	1197.183	970.332
280.585	26.671	1196.076	969.716
281.599	26.675	1195.289	969.015
282.614	26.525	1194.810	967.735
283.628	26.669	1193.569	967.417
284.643	26.647	1192.614	966.437
285.657	26.663	1192.004	965.944
286.672	26.685	1191.280	965.387
287.687	26.685	1190.135	964.376
288.701	26.662	1189.920	963.993
289.716	26.663	1189.161	963.298
290.730	26.752	1188.142	962.862
291.745	26.614	1188.388	962.239
292.760	26.594	1187.388	961.240
293.774	26.685	1186.984	961.313
294.789	26.694	1186.039	960.510
295.803	26.823	1185.200	960.427
296.818	26.714	1185.082	959.670
297.833	26.751	1183.803	958.746
298.847	26.900	1183.333	959.068
299.862	26.875	1182.408	958.098
300.876	26.791	1182.261	957.452
301.891	26.833	1181.687	957.123
302.906	26.853	1180.512	956.191
303.920	26.945	1179.661	955.903
304.935	26.840	1179.640	955.251
305.949	26.896	1178.674	954.679
306.964	26.761	1178.336	953.610
307.979	26.869	1177.461	953.382
308.993	26.867	1176.898	952.834
310.008	26.929	1176.226	952.529
311.022	26.922	1175.690	951.975
312.037	26.844	1174.849	950.803
313.052	26.954	1173.501	950.202
314.066	26.778	1173.062	948.842
315.081	26.864	1172.101	948.428
316.095	26.900	1171.689	948.199
317.110	26.929	1170.934	947.657
318.125	27.124	1170.117	947.928
319.139	27.017	1169.793	947.024
320.154	27.013	1169.039	946.309
321.168	27.048	1168.646	946.091
322.183	27.063	1168.144	945.678
323.197	26.885	1167.781	944.375
324.212	26.943	1167.074	944.023
325.227	27.077	1166.063	943.816
326.241	26.987	1165.889	943.126
327.256	27.033	1165.021	942.575
328.270	27.098	1164.159	942.132
329.285	26.969	1163.331	940.712
330.300	26.989	1162.862	940.353
331.314	27.045	1161.672	939.595
332.329	27.133	1160.977	939.406
333.343	27.192	1160.239	939.034
334.358	27.058	1159.496	937.653
335.373	27.227	1158.643	937.756
336.387	27.285	1158.392	937.768
337.402	27.318	1157.532	937.158
338.416	27.225	1156.856	936.047
339.431	27.159	1156.575	935.398
340.446	27.286	1155.319	934.954
341.460	27.176	1154.969	934.023
342.475	27.245	1154.572	933.972
343.489	27.158	1153.478	932.558
344.504	27.200	1152.287	931.729
345.519	27.264	1151.423	931.275
346.533	27.279	1150.808	930.770
347.548	27.370	1149.974	930.479
348.562	27.207	1149.738	929.374
349.577	27.406	1148.702	929.470
350.592	27.268	1147.890	928.025
351.606	27.236	1147.270	927.279
352.621	27.380	1146.745	927.511
353.635	27.288	1146.554	926.803
354.650	27.223	1145.790	925.770
355.665	27.357	1144.742	925.524
356.679	27.329	1144.523	925.126
357.694	27.369	1143.805	924.667
358.708	27.428	1142.747	924.029
359.723	27.284	1142.171	922.750
360.738	27.442	1141.403	922.848
361.752	27.407	1141.438	922.617
362.767	27.436	1140.399	921.844
363.781	27.366	1140.198	921.247
364.796	27.617	1139.134	921.574
365.810	27.540	1139.066	921.046
366.825	27.557	1138.015	920.203
367.840	27.617	1137.666	920.139
368.854	27.498	1137.479	919.310
369.869	27.541	1136.273	918.469
370.883	27.618	1135.293	917.983
371.898	27.563	1134.770	917.203
372.913	27.548	1134.495	916.821
373.927	27.615	1134.066	916.730
374.942	27.698	1133.540	916.644
375.956	27.510	1132.992	915.175
376.971	27.659	1132.287	915.273
377.986	27.657	1131.895	914.864
379.000	27.695	1131.027	914.270
380.015	27.760	1130.483	914.078
381.029	27.710	1130.113	913.448
382.044	27.837	1129.042	913.136
383.059	27.731	1128.681	912.232
384.073	27.675	1128.434	911.671
385.088	27.718	1126.914	910.579
386.102	27.766	1126.563	910.450
387.117	27.679	1125.307	908.925
388.132	27.746	1124.434	908.471
389.146	27.788	1123.577	907.907
390.161	27.700	1123.443	907.280
391.175	27.804	1122.630	907.060
392.190	27.805	1121.810	906.322
393.205	27.790	1121.305	905.758
394.219	27.769	1120.942	905.284
395.234	27.790	1120.062	904.598
396.248	27.775	1119.365	903.878
397.263	27.899	1117.999	903.309
398.278	27.811	1117.699	902.554
399.292	28.042	1116.738	902.838
400.307	27.860	1116.275	901.487
401.321	27.949	1115.618	901.315
402.336	27.849	1115.038	900.273
403.350	27.888	1114.429	899.891
404.365	27.994	1113.623	899.684
405.380	28.028	1112.906	899.193
406.394	27.888	1112.477	898.076
407.409	28.011	1111.725	897.998
408.423	28.042	1110.861	897.370
409.438	28.067	1110.141	896.834
410.453	28.138	1109.607	896.672
411.467	28.087	1108.856	895.733
412.482	27.947	1108.304	894.524
413.496	28.025	1107.346	894.053
414.511	28.061	1106.613	893.555
415.526	27.973	1106.654	893.079
416.540	28.078	1105.970	892.962
417.555	28.027	1105.576	892.317
418.569	28.047	1105.200	892.031
419.584	28.098	1104.464	891.609
420.599	28.137	1104.059	891.390
421.613	83.433	1292.233	1346.789
422.628	78.179	1319.658	1346.921
