DTS Sentinel unit serial number:	SN413079Multiplexer serial number:	ORYXHardware model number:	OX4-SRSoftware version number:	ORYX F/W v4.00 Oryx Data Collector v3.7.2.0data status	okinstallation	princeton_trtdifferential loss correction	single-endedforward channel	channel 2reverse channel	N/Adate	2019/09/11time	00:25:11forward acquisition time	60.00reverse acquisition time	0.00gamma	496.2192k internal	0.2331k external	0.2331temperature offset calibration	0.9944default loss term (dB/km)	0.3790temperature slope calibration	1.0000multiplexer offset coefficient	1.0000multiplexer slope coefficient	1.0000fibre end	0.00T internal ref (°C)	29.25T ext. ref 1 (°C)	-0.30T ext. ref 2 (°C)	22.83length (m)	temperature (°C)	Stokes	anti-Stokes-747.200	-29.757	0.103	-0.059
-746.185	-200.000	-0.022	0.159
-745.171	46.200	-0.167	0.156
-744.156	-35.210	-0.336	0.184
-743.142	126.323	-0.154	-0.196
-742.127	204.848	0.195	0.304
-741.112	-200.000	0.011	-0.157
-740.098	-86.940	-0.348	-0.107
-739.083	-29.740	-0.098	-0.056
-738.069	-74.689	-0.156	0.056
-737.054	201.562	0.162	0.251
-736.039	-42.311	-0.290	-0.149
-735.025	64.178	0.155	0.157
-734.010	160.519	-0.155	-0.217
-732.996	-151.534	-0.133	-0.010
-731.981	-110.505	-0.327	-0.068
-730.966	248.955	-0.143	-0.243
-729.952	111.633	0.213	-0.259
-728.937	-200.000	-0.016	-0.099
-727.923	37.207	-0.059	0.053
-726.908	-200.000	0.027	0.388
-725.894	154.285	-0.157	-0.217
-724.879	-200.000	-0.071	0.322
-723.864	800.000	-0.046	-0.189
-722.850	263.665	0.135	-0.236
-721.835	-54.004	-0.171	0.078
-720.821	800.000	0.053	-0.153
-719.806	-46.076	-0.344	0.170
-718.791	-6.045	0.308	0.212
-717.777	30.621	-0.043	-0.037
-716.762	-164.764	-0.198	0.009
-715.748	98.326	0.084	-0.097
-714.733	255.578	-0.092	-0.158
-713.718	149.910	0.171	-0.233
-712.704	82.405	0.155	0.169
-711.689	-17.258	0.037	-0.023
-710.675	-200.000	-0.056	0.251
-709.660	800.000	0.076	0.222
-708.645	468.159	0.187	0.421
-707.631	49.458	-0.174	0.164
-706.616	-200.000	0.046	-0.268
-705.602	506.551	-0.108	-0.252
-704.587	800.000	0.113	-0.398
-703.572	49.591	-0.200	-0.190
-702.558	212.635	0.052	0.082
-701.543	-58.388	-0.228	-0.100
-700.529	-60.816	-0.015	-0.006
-699.514	23.353	0.065	-0.054
-698.499	-200.000	-0.058	-0.283
-697.485	328.628	-0.028	0.054
-696.470	18.601	0.232	0.187
-695.456	-174.189	0.158	0.005
-694.441	-200.000	0.005	0.362
-693.426	-172.850	-0.171	0.005
-692.412	800.000	0.067	-0.215
-691.397	-177.872	0.240	-0.006
-690.383	1.494	0.163	-0.118
-689.368	-200.000	-0.002	0.199
-688.354	-200.000	-0.028	-0.165
-687.339	-93.674	0.099	-0.027
-686.324	-35.400	-0.050	0.028
-685.310	-200.000	0.015	0.136
-684.295	-200.000	0.041	0.400
-683.281	268.486	0.023	-0.041
-682.266	-200.000	-0.005	-0.086
-681.251	697.326	0.132	-0.349
-680.237	73.860	-0.056	0.059
-679.222	108.100	-0.223	-0.267
-678.208	-84.477	-0.096	0.030
-677.193	51.095	0.276	-0.263
-676.178	800.000	0.063	-0.263
-675.164	-89.563	0.188	0.056
-674.149	-28.689	-0.143	0.083
-673.135	187.271	-0.154	-0.230
-672.120	-38.770	0.142	-0.075
-671.105	469.341	-0.066	0.149
-670.091	18.613	-0.254	0.204
-669.076	88.496	0.235	0.262
-668.062	40.073	0.133	0.120
-667.047	312.929	0.143	0.270
-666.032	-118.985	-0.197	-0.035
-665.018	302.141	0.162	0.300
-664.003	-103.079	-0.219	0.052
-662.989	-200.000	-0.012	0.105
-661.974	-37.199	-0.273	-0.147
-660.959	778.682	-0.113	-0.311
-659.945	-200.000	0.028	0.209
-658.930	-41.835	-0.266	0.137
-657.916	93.828	-0.076	0.086
-656.901	1.467	0.217	0.157
-655.886	-122.383	-0.199	0.033
-654.872	105.773	0.264	-0.314
-653.857	-16.167	0.419	-0.267
-652.843	-15.790	0.278	0.177
-651.828	-136.294	0.182	0.021
-650.814	-106.249	0.072	0.016
-649.799	-174.924	0.141	-0.004
-648.784	106.391	0.106	-0.126
-647.770	-144.413	-0.267	-0.025
-646.755	212.066	-0.040	-0.063
-645.741	128.350	0.268	-0.342
-644.726	-41.392	0.118	0.061
-643.711	-118.201	0.136	-0.024
-642.697	186.443	0.085	-0.127
-641.682	-119.780	-0.135	-0.023
-640.668	-89.614	0.131	0.039
-639.653	-90.915	-0.322	-0.093
-638.638	-142.533	0.220	0.022
-637.624	229.016	0.126	-0.207
-636.609	-55.682	0.132	0.059
-635.595	-113.435	-0.145	-0.028
-634.580	132.948	0.048	-0.062
-633.565	-200.000	-0.024	-0.444
-632.551	-200.000	-0.015	-0.086
-631.536	32.266	0.437	-0.378
-630.522	-200.000	0.007	0.097
-629.507	105.932	0.090	0.106
-628.492	44.946	-0.137	0.126
-627.478	-124.684	-0.241	-0.037
-626.463	499.052	-0.041	-0.094
-625.449	-18.287	0.077	-0.048
-624.434	-200.000	0.001	0.205
-623.419	-15.819	-0.232	0.148
-622.405	-69.018	0.188	0.072
-621.390	800.000	0.053	0.171
-620.376	-178.499	0.352	0.008
-619.361	-113.594	-0.069	0.013
-618.346	347.204	-0.165	-0.324
-617.332	-75.610	-0.398	-0.142
-616.317	-117.071	-0.213	-0.039
-615.303	67.088	0.067	-0.069
-614.288	83.161	-0.110	0.120
-613.273	319.490	0.091	-0.173
-612.259	315.095	0.134	0.252
-611.244	-15.468	-0.431	0.276
-610.230	-29.740	-0.159	0.091
-609.215	-200.000	-0.325	0.000
-608.201	-41.804	0.470	-0.241
-607.186	800.000	-0.044	-0.125
-606.171	115.813	0.073	-0.089
-605.157	-19.798	-0.140	0.087
-604.142	800.000	0.044	0.144
-603.128	-149.301	-0.275	-0.022
-602.113	-200.000	-0.030	0.376
-601.098	141.083	0.137	0.181
-600.084	-121.491	-0.141	-0.023
-599.069	-200.000	0.047	-0.212
-598.055	-58.130	0.314	-0.137
-597.040	149.547	0.094	0.127
-596.025	26.546	0.245	0.205
-595.011	275.798	0.110	0.195
-593.996	-109.539	-0.198	0.042
-592.982	-138.496	0.152	0.017
-591.967	800.000	-0.169	0.596
-590.952	113.628	-0.274	0.333
-589.938	-17.730	0.147	0.092
-588.923	-103.134	0.273	-0.065
-587.909	-92.808	0.156	-0.044
-586.894	-101.493	-0.063	0.015
-585.879	-8.716	0.096	0.065
-584.865	-96.443	0.364	-0.096
-583.850	800.000	0.075	0.230
-582.836	271.865	-0.184	-0.325
-581.821	-56.139	0.196	-0.087
-580.806	-200.000	0.037	-0.188
-579.792	-200.000	0.040	0.322
-578.777	219.784	0.181	0.289
-577.763	-200.000	-0.012	-0.377
-576.748	344.197	-0.173	-0.340
-575.733	1.921	-0.108	-0.078
-574.719	-120.331	-0.259	0.044
-573.704	-200.000	-0.045	0.252
-572.690	421.471	-0.110	0.237
-571.675	291.396	-0.041	0.075
-570.661	-148.168	0.132	-0.011
-569.646	240.030	0.070	-0.116
-568.631	-97.463	0.155	-0.040
-567.617	129.182	0.194	0.248
-566.602	800.000	0.050	-0.153
-565.588	-21.434	-0.166	-0.101
-564.573	-200.000	0.014	0.098
-563.558	91.865	0.112	-0.126
-562.544	-121.223	0.237	-0.040
-561.529	-117.590	0.151	-0.027
-560.515	85.612	-0.132	-0.145
-559.500	-200.000	0.012	-0.361
-558.485	-132.260	-0.412	-0.053
-557.471	260.157	0.092	-0.159
-556.456	-200.000	-0.055	-0.343
-555.442	308.361	0.073	0.136
-554.427	480.258	0.086	-0.195
-553.412	82.359	-0.109	-0.118
-552.398	-7.240	-0.088	-0.060
-551.383	87.497	0.182	-0.202
-550.369	100.387	-0.213	0.247
-549.354	45.232	0.248	-0.229
-548.339	-200.000	-0.033	0.163
-547.325	-80.276	0.193	-0.064
-546.310	10.140	0.197	0.150
-545.296	800.000	-0.133	-0.390
-544.281	-200.000	-0.095	0.579
-543.266	157.735	0.105	0.146
-542.252	-114.740	0.304	0.058
-541.237	-194.891	0.290	0.002
-540.223	1.493	-0.290	-0.208
-539.208	216.653	0.103	0.163
-538.193	-153.713	-0.174	0.012
-537.179	28.113	-0.072	-0.061
-536.164	-5.405	-0.382	-0.262
-535.150	289.051	-0.061	-0.110
-534.135	54.478	-0.473	-0.455
-533.121	-200.000	-0.040	-0.226
-532.106	-140.941	0.060	0.006
-531.091	-107.531	0.284	-0.062
-530.077	-23.422	-0.128	0.076
-529.062	186.899	-0.068	-0.101
-528.048	800.000	-0.073	-0.289
-527.033	-200.000	-0.008	-0.147
-526.018	-200.000	-0.069	-0.437
-525.004	-47.414	0.097	0.047
-523.989	800.000	-0.011	0.032
-522.975	-39.469	-0.112	0.058
-521.960	-153.245	-0.128	0.009
-520.945	712.417	-0.048	-0.128
-519.931	-127.260	0.158	0.023
-518.916	-93.320	-0.230	-0.064
-517.902	-97.622	0.175	0.045
-516.887	-79.728	-0.078	-0.026
-515.872	-82.285	0.400	0.130
-514.858	-125.782	-0.222	-0.033
-513.843	-200.000	-0.015	-0.149
-512.829	65.552	0.270	-0.272
-511.814	286.759	0.041	0.073
-510.799	-60.551	-0.063	0.027
-509.785	-155.803	-0.404	0.026
-508.770	277.239	-0.129	0.229
-507.756	-200.000	0.012	0.131
-506.741	138.035	0.213	-0.278
-505.726	-168.405	0.344	-0.013
-504.712	-98.413	-0.180	0.046
-503.697	-46.608	-0.307	0.150
-502.683	11.302	-0.180	0.138
-501.668	176.116	-0.095	0.137
-500.653	-84.498	0.182	-0.057
-499.639	240.453	-0.235	0.390
-498.624	-49.542	-0.280	0.133
-497.610	440.572	0.041	0.090
-496.595	-108.606	0.361	-0.077
-495.581	65.667	0.187	0.189
-494.566	-200.000	0.017	-0.082
-493.551	-200.000	0.061	-0.443
-492.537	-48.130	0.239	0.115
-491.522	573.714	0.150	0.364
-490.508	118.149	0.101	0.123
-489.493	-115.753	-0.379	-0.071
-488.478	37.699	-0.045	-0.039
-487.464	-126.655	-0.076	0.011
-486.449	214.169	-0.232	-0.366
-485.435	-114.996	0.066	0.013
-484.420	34.713	-0.194	0.169
-483.405	-93.962	0.210	-0.058
-482.391	338.784	0.110	-0.214
-481.376	-200.000	-0.002	-0.245
-480.362	-200.000	0.046	-0.228
-479.347	-64.141	0.292	-0.119
-478.332	-7.932	0.322	-0.217
-477.318	-189.295	-0.396	0.005
-476.303	31.579	0.041	-0.035
-475.289	249.316	-0.109	-0.184
-474.274	-164.831	0.170	0.008
-473.259	-83.786	-0.458	-0.145
-472.245	-63.337	-0.093	0.038
-471.230	-46.286	-0.192	0.094
-470.216	-200.000	-0.025	-0.299
-469.201	126.040	0.186	0.234
-468.186	649.887	0.057	0.146
-467.172	-61.312	-0.183	-0.077
-466.157	-200.000	0.006	0.183
-465.143	245.083	0.107	-0.179
-464.128	292.993	0.082	-0.149
-463.113	-93.483	-0.191	-0.052
-462.099	-126.812	-0.232	-0.034
-461.084	528.557	0.058	0.136
-460.070	-60.641	-0.172	-0.073
-459.055	-200.000	-0.030	-0.237
-458.040	-101.591	0.304	-0.073
-457.026	-35.933	0.217	-0.117
-456.011	-200.000	-0.026	0.513
-454.997	82.902	0.217	0.235
-453.982	-106.152	-0.326	0.073
-452.968	-184.690	-0.078	0.001
-451.953	-36.460	-0.221	0.119
-450.938	800.000	-0.076	0.218
-449.924	-136.536	0.310	-0.036
-448.909	-183.332	0.199	0.003
-447.895	157.203	-0.097	-0.133
-446.880	-76.511	0.223	0.078
-445.865	-187.322	-0.353	-0.005
-444.851	-50.240	0.253	0.119
-443.836	-154.709	-0.132	-0.009
-442.822	534.838	-0.075	-0.177
-441.807	80.431	-0.093	0.100
-440.792	-22.478	-0.163	-0.098
-439.778	-200.000	-0.016	-0.231
-438.763	-86.399	-0.396	-0.121
-437.749	15.067	-0.263	0.205
-436.734	-200.000	-0.040	0.211
-435.719	2.583	-0.352	0.253
-434.705	800.000	-0.057	-0.194
-433.690	50.974	-0.058	-0.055
-432.676	-129.420	0.185	0.026
-431.661	165.981	-0.073	-0.102
-430.646	31.990	0.244	0.209
-429.632	-20.554	-0.401	0.245
-428.617	-159.949	0.493	-0.027
-427.603	136.109	-0.169	-0.220
-426.588	800.000	0.069	-0.207
-425.573	800.000	-0.066	0.255
-424.559	-21.887	-0.278	-0.168
-423.544	230.741	0.083	0.136
-422.530	-117.397	0.037	0.007
-421.515	800.000	0.048	0.199
-420.500	-200.000	-0.008	0.173
-419.486	-6.858	0.300	-0.202
-418.471	-183.611	0.319	-0.005
-417.457	-46.055	-0.182	0.089
-416.442	-200.000	0.023	0.407
-415.428	-31.910	0.202	-0.112
-414.413	-73.276	-0.132	0.048
-413.398	-200.000	0.025	0.148
-412.384	530.624	-0.050	0.118
-411.369	800.000	0.058	-0.171
-410.355	-146.882	-0.237	0.020
-409.340	165.801	0.187	0.263
-408.325	49.860	-0.190	0.178
-407.311	-20.222	0.248	-0.152
-406.296	-52.016	-0.220	-0.101
-405.282	128.489	0.292	0.370
-404.267	138.084	0.064	-0.083
-403.252	-8.542	0.056	0.038
-402.238	-200.000	-0.018	0.188
-401.223	510.280	-0.050	0.115
-400.209	-113.185	0.283	-0.055
-399.194	-67.752	0.064	-0.025
-398.179	-200.000	-0.005	0.172
-397.165	175.119	-0.322	0.464
-396.150	-1.827	-0.274	0.192
-395.136	-200.000	0.016	0.153
-394.121	-73.530	-0.131	0.048
-393.106	148.057	-0.268	0.359
-392.092	84.988	-0.398	-0.433
-391.077	81.752	0.125	-0.134
-390.063	-200.000	-0.010	0.370
-389.048	53.541	-0.036	0.034
-388.033	-200.000	-0.029	0.168
-387.019	-157.734	-0.138	0.008
-386.004	800.000	0.013	0.045
-384.990	-69.788	0.209	0.079
-383.975	-109.756	-0.102	-0.021
-382.960	-84.092	0.034	-0.011
-381.946	-107.760	0.374	0.081
-380.931	288.336	0.201	-0.361
-379.917	-37.330	-0.133	0.071
-378.902	253.621	0.068	0.115
-377.888	-200.000	0.007	0.251
-376.873	-200.000	0.046	0.438
-375.858	-163.165	-0.318	0.015
-374.844	-112.445	0.209	-0.041
-373.829	250.259	0.041	0.068
-372.815	162.494	0.089	0.123
-371.800	800.000	-0.036	-0.136
-370.785	316.485	-0.159	-0.298
-369.771	-40.848	-0.051	0.026
-368.756	-0.650	-0.108	0.076
-367.742	-49.543	0.027	-0.013
-366.727	17.567	0.276	0.218
-365.712	-151.887	-0.116	-0.008
-364.698	760.475	-0.065	0.175
-363.683	204.075	0.273	0.419
-362.669	286.098	0.177	0.316
-361.654	69.698	-0.128	0.131
-360.639	-65.578	-0.227	0.090
-359.625	247.825	-0.016	0.026
-358.610	800.000	0.044	-0.188
-357.596	-121.143	0.047	0.008
-356.581	-123.659	-0.177	0.028
-355.566	-153.131	0.102	-0.007
-354.552	120.914	-0.139	-0.171
-353.537	-200.000	0.023	-0.287
-352.523	-200.000	-0.019	-0.129
-351.508	800.000	-0.029	-0.104
-350.493	-154.018	-0.326	-0.022
-349.479	-5.017	-0.151	-0.103
-348.464	-173.729	0.156	-0.005
-347.450	800.000	-0.026	0.086
-346.435	-85.281	-0.212	-0.066
-345.420	-46.862	0.139	-0.067
-344.406	171.530	0.097	0.138
-343.391	-200.000	-0.018	0.571
-342.377	91.806	0.128	0.143
-341.362	-200.000	-0.044	-0.331
-340.348	25.727	0.227	-0.187
-339.333	-200.000	0.002	-0.036
-338.318	25.030	0.174	0.143
-337.304	35.316	-0.197	0.171
-336.289	-200.000	0.001	-0.052
-335.275	13.233	0.285	-0.219
-334.260	37.308	-0.162	0.142
-333.245	88.091	-0.307	0.337
-332.231	-200.000	-0.008	0.155
-331.216	396.562	0.110	0.228
-330.202	-134.117	-0.253	0.031
-329.187	-200.000	-0.023	-0.152
-328.172	-55.922	-0.032	-0.014
-327.158	-129.055	-0.363	0.050
-326.143	-139.145	-0.158	-0.017
-325.129	97.799	-0.166	0.189
-324.114	-200.000	0.016	0.095
-323.099	53.617	-0.123	0.116
-322.085	86.049	0.067	0.073
-321.070	89.589	0.064	0.071
-320.056	-89.815	0.387	0.112
-319.041	123.268	0.169	-0.209
-318.026	800.000	-0.128	0.371
-317.012	-143.796	0.329	-0.031
-315.997	-200.000	0.069	0.353
-314.983	-197.769	-0.115	-0.001
-313.968	-200.000	0.001	-0.050
-312.953	-200.000	-0.007	-0.202
-311.939	-200.000	0.011	0.083
-310.924	260.082	0.137	0.234
-309.910	-92.688	0.335	-0.093
-308.895	130.228	0.101	-0.128
-307.880	-200.000	-0.011	-0.214
-306.866	-200.000	0.006	0.108
-305.851	10.208	-0.047	-0.035
-304.837	800.000	0.109	0.343
-303.822	161.466	-0.101	-0.140
-302.807	-200.000	-0.029	-0.266
-301.793	-22.659	-0.201	-0.120
-300.778	41.103	0.358	0.320
-299.764	-52.667	-0.187	0.085
-298.749	-115.657	-0.302	0.056
-297.735	800.000	-0.096	-0.273
-296.720	-200.000	0.015	0.127
-295.705	52.435	-0.363	-0.343
-294.691	-36.559	0.228	-0.121
-293.676	-200.000	0.003	0.112
-292.662	-98.509	0.138	-0.035
-291.647	-200.000	-0.032	0.161
-290.632	800.000	-0.080	0.337
-289.618	-46.427	-0.192	-0.093
-288.603	55.734	0.190	-0.182
-287.589	349.703	-0.026	-0.051
-286.574	0.647	0.185	0.131
-285.559	78.293	-0.243	0.256
-284.545	-40.908	0.101	0.052
-283.530	-113.511	0.305	0.059
-282.516	-200.000	0.014	-0.208
-281.501	113.761	0.033	0.040
-280.486	-22.093	0.176	0.106
-279.472	-140.274	0.105	0.011
-278.457	482.965	0.064	-0.145
-277.443	180.735	-0.197	-0.285
-276.428	437.358	0.085	0.183
-275.413	-66.412	0.192	0.075
-274.399	-192.609	0.363	0.003
-273.384	114.509	0.180	-0.216
-272.370	800.000	0.027	-0.102
-271.355	800.000	-0.092	-0.351
-270.340	125.713	-0.140	-0.175
-269.326	-66.192	0.055	-0.022
-268.311	-200.000	-0.005	-0.145
-267.297	208.575	0.203	0.314
-266.282	-76.609	0.343	-0.119
-265.267	800.000	0.031	-0.118
-264.253	800.000	0.051	0.177
-263.238	539.701	0.042	-0.099
-262.224	800.000	-0.085	0.344
-261.209	6.403	0.057	0.042
-260.195	29.764	0.070	-0.059
-259.180	192.315	-0.116	0.172
-258.165	-129.637	-0.052	-0.007
-257.151	110.033	0.163	-0.193
-256.136	-149.372	-0.326	-0.026
-255.122	-200.000	0.014	0.216
-254.107	-119.397	0.281	-0.048
-253.092	-7.451	0.469	-0.313
-252.078	79.042	-0.099	-0.104
-251.063	-86.799	0.135	-0.041
-250.049	-200.000	-0.010	0.082
-249.034	800.000	-0.041	-0.175
-248.019	-98.459	-0.249	-0.063
-247.005	90.085	-0.201	0.221
-245.990	-134.430	0.443	-0.054
-244.976	-76.248	-0.402	-0.140
-243.961	-29.184	0.223	-0.126
-242.946	751.939	-0.077	-0.204
-241.932	800.000	-0.089	-0.292
-240.917	8.564	-0.016	-0.012
-239.903	-131.309	0.180	-0.024
-238.888	800.000	-0.078	-0.237
-237.873	226.252	0.151	-0.241
-236.859	-70.167	-0.325	0.122
-235.844	800.000	0.101	-0.333
-234.830	800.000	-0.026	-0.109
-233.815	248.786	0.057	0.095
-232.800	260.002	0.041	0.071
-231.786	-140.724	0.162	0.017
-230.771	147.048	0.155	-0.206
-229.757	72.279	0.121	-0.124
-228.742	304.615	-0.031	-0.057
-227.727	401.521	-0.266	0.550
-226.713	76.416	0.154	-0.161
-225.698	-23.109	0.125	-0.074
-224.684	800.000	0.062	0.214
-223.669	437.681	0.047	0.102
-222.655	157.852	0.165	0.226
-221.640	-15.385	0.196	-0.124
-220.625	-79.860	-0.151	0.050
-219.611	-91.355	-0.130	-0.037
-218.596	-63.286	-0.022	-0.009
-217.582	-92.822	-0.341	0.094
-216.567	-200.000	-0.027	0.262
-215.552	65.148	-0.079	-0.078
-214.538	-53.325	0.124	-0.056
-213.523	-118.980	0.371	0.064
-212.509	-70.549	0.132	-0.049
-211.494	-83.641	0.092	-0.029
-210.479	-22.836	-0.315	-0.187
-209.465	2.842	0.217	-0.155
-208.450	-57.826	-0.351	0.151
-207.436	-126.510	-0.295	0.043
-206.421	-199.611	-0.119	0.001
-205.406	17.446	0.207	-0.162
-204.392	5.682	-0.134	-0.097
-203.377	10.354	-0.312	-0.234
-202.363	17.980	-0.137	-0.108
-201.348	-200.000	-0.009	-0.063
-200.333	-21.318	0.194	0.117
-199.319	373.103	0.049	-0.098
-198.304	345.389	-0.067	0.129
-197.290	212.737	0.040	0.063
-196.275	189.183	-0.066	0.097
-195.260	124.413	0.064	0.079
-194.246	472.677	0.160	-0.356
-193.231	-24.752	-0.210	0.123
-192.217	-200.000	0.002	0.052
-191.202	-200.000	-0.034	0.201
-190.187	3.186	0.071	-0.051
-189.173	-178.042	0.345	0.008
-188.158	-58.180	-0.231	0.099
-187.144	-153.456	0.114	0.008
-186.129	0.263	0.109	0.077
-185.114	82.253	0.101	-0.108
-184.100	299.014	0.088	-0.160
-183.085	195.476	0.085	0.127
-182.071	-135.094	-0.313	0.037
-181.056	429.098	-0.035	-0.075
-180.042	-200.000	-0.006	-0.123
-179.027	-75.222	0.113	0.040
-178.012	-200.000	-0.011	0.199
-176.998	246.959	-0.055	-0.092
-175.983	-125.966	-0.299	0.044
-174.969	-200.000	0.004	0.030
-173.954	186.136	-0.166	-0.243
-172.939	800.000	0.029	-0.098
-171.925	-200.000	0.063	-0.368
-170.910	232.464	0.090	-0.146
-169.896	-64.784	-0.143	-0.057
-168.881	-43.094	0.327	0.163
-167.866	800.000	-0.114	0.416
-166.852	-63.172	-0.401	0.163
-165.837	27.403	-0.025	-0.021
-164.823	427.747	0.068	0.144
-163.808	-200.000	0.030	-0.242
-162.793	228.901	-0.037	-0.059
-161.779	-87.793	-0.182	-0.054
-160.764	-154.491	0.244	0.016
-159.750	-200.000	0.006	0.075
-158.735	-200.000	-0.044	-0.236
-157.720	-200.000	0.005	-0.232
-156.706	-200.000	0.011	-0.114
-155.691	800.000	0.032	-0.119
-154.677	60.949	-0.037	-0.036
-153.662	-62.872	-0.316	-0.129
-152.647	27.181	0.169	0.139
-151.633	-105.890	0.183	-0.041
-150.618	-154.120	-0.239	0.016
-149.604	82.738	0.286	0.305
-148.589	101.492	0.261	0.299
-147.574	-39.610	-0.231	0.119
-146.560	-128.491	0.219	0.030
-145.545	-105.032	-0.094	-0.021
-144.531	233.101	-0.028	-0.045
-143.516	-139.687	0.055	-0.006
-142.502	267.667	0.044	0.076
-141.487	-111.227	-0.413	-0.083
-140.472	-139.924	0.154	-0.016
-139.458	-17.917	-0.347	-0.214
-138.443	-93.648	-0.269	-0.073
-137.429	40.616	-0.193	-0.171
-136.414	212.275	0.046	0.072
-135.399	131.383	0.213	-0.269
-134.385	-0.106	0.132	0.092
-133.370	-200.000	0.009	0.257
-132.356	200.572	-0.279	0.422
-131.341	-112.654	0.100	0.020
-130.326	-200.000	-0.009	-0.126
-129.312	-200.000	-0.001	-0.032
-128.297	-181.947	-0.210	0.004
-127.283	-161.478	0.507	-0.026
-126.268	592.088	-0.059	0.144
-125.253	-200.000	-0.028	-0.285
-124.239	227.651	0.021	-0.034
-123.224	800.000	0.098	0.301
-122.210	-28.533	0.308	-0.174
-121.195	800.000	0.065	0.210
-120.180	27.854	-0.272	0.225
-119.166	-200.000	0.009	-0.046
-118.151	-200.000	-0.018	0.218
-117.137	409.447	0.177	0.369
-116.122	800.000	0.083	0.231
-115.107	-19.675	-0.134	0.081
-114.093	800.000	-0.052	0.221
-113.078	-65.317	-0.284	-0.112
-112.064	-13.474	0.220	-0.140
-111.049	-119.728	-0.339	0.057
-110.034	-200.000	0.029	-0.315
-109.020	154.280	-0.168	0.226
-108.005	-186.573	0.177	-0.002
-106.991	96.714	0.157	-0.177
-105.976	25.759	-0.089	-0.073
-104.962	800.000	0.076	-0.283
-103.947	182.966	0.155	-0.224
-102.932	102.425	-0.183	0.210
-101.918	-200.000	-0.032	-0.146
-100.903	-50.614	-0.090	0.042
-99.889	25.920	0.029	-0.024
-98.874	-104.228	0.163	-0.037
-97.859	-68.147	0.015	0.006
-96.845	332.069	0.146	-0.277
-95.830	371.922	0.130	-0.260
-94.816	-105.905	-0.077	0.017
-93.801	-15.672	0.124	-0.078
-92.786	-23.724	-0.059	-0.035
-91.772	-97.333	-0.205	-0.052
-90.757	285.732	0.171	0.303
-89.743	-98.227	-0.169	0.043
-88.728	-31.570	-0.093	-0.051
-87.713	-200.000	-0.012	0.251
-86.699	316.461	-0.068	-0.125
-85.684	-200.000	0.032	-0.140
-84.670	-200.000	-0.003	-0.013
-83.655	48.159	-0.052	0.048
-82.640	75.544	0.229	-0.237
-81.626	-14.428	-0.341	0.215
-80.611	508.025	-0.060	0.137
-79.597	209.226	0.312	0.480
-78.582	-74.647	-0.141	-0.050
-77.567	-82.683	-0.204	0.065
-76.553	193.026	0.110	-0.163
-75.538	-72.266	0.282	0.102
-74.524	800.000	-0.030	-0.096
-73.509	-151.112	-0.438	0.032
-72.494	-82.874	-0.079	-0.025
-71.480	487.114	0.119	-0.266
-70.465	269.966	-0.067	0.116
-69.451	234.357	-0.030	0.049
-68.436	800.000	0.053	0.224
-67.422	154.411	-0.121	0.163
-66.407	48.059	-0.049	0.045
-65.392	-36.131	-0.144	-0.076
-64.378	-76.859	-0.017	-0.006
-63.363	133.079	0.073	0.092
-62.349	1.211	0.108	0.076
-61.334	63.069	-0.961	-0.943
-60.319	95.033	0.724	0.807
-59.305	-200.000	0.007	-1.158
-58.290	444.657	0.485	1.043
-57.276	611.550	0.640	1.569
-56.261	-200.000	106.623	615.296
-55.246	515.835	1510.156	3455.809
-54.232	175.369	2709.378	3846.277
-53.217	104.177	2293.675	2642.597
-52.203	38.429	1898.689	1657.365
-51.188	32.538	1685.353	1426.621
-50.173	29.897	1642.580	1370.823
-49.159	48.454	1696.576	1556.128
-48.144	48.582	1711.829	1571.021
-47.130	32.008	1668.753	1408.363
-46.115	29.364	1654.886	1376.898
-45.100	29.223	1649.618	1371.411
-44.086	29.233	1646.403	1368.760
-43.071	29.088	1644.610	1366.136
-42.057	29.032	1641.991	1363.491
-41.042	29.173	1639.600	1362.501
-40.027	29.182	1637.843	1361.053
-39.013	29.117	1636.051	1359.026
-37.998	29.069	1634.629	1357.439
-36.984	29.184	1633.160	1357.010
-35.969	29.213	1631.640	1355.909
-34.954	29.248	1630.064	1354.800
-33.940	29.291	1627.905	1353.269
-32.925	29.262	1626.474	1351.814
-31.911	29.255	1624.521	1350.082
-30.896	29.279	1623.001	1348.941
-29.881	29.146	1621.576	1346.733
-28.867	29.337	1619.645	1346.469
-27.852	29.306	1618.391	1345.149
-26.838	29.253	1616.800	1343.384
-25.823	29.319	1615.395	1342.647
-24.809	29.185	1614.665	1341.009
-23.794	29.295	1612.567	1340.014
-22.779	29.222	1611.489	1338.535
-21.765	29.273	1609.611	1337.292
-20.750	29.311	1607.777	1335.990
-19.736	29.314	1606.509	1334.908
-18.721	29.315	1605.197	1333.774
-17.706	29.179	1603.709	1331.496
-16.692	29.223	1602.139	1330.462
-15.677	29.265	1600.699	1329.518
-14.663	29.337	1599.231	1328.762
-13.648	29.356	1598.072	1327.885
-12.633	29.271	1596.736	1326.110
-11.619	29.232	1594.701	1324.085
-10.604	29.315	1593.567	1323.689
-9.590	29.233	1592.756	1322.372
-8.575	29.307	1591.285	1321.632
-7.560	29.254	1590.236	1320.328
-6.546	29.312	1589.027	1319.682
-5.531	29.270	1588.066	1318.532
-4.517	29.298	1586.731	1317.570
-3.502	29.332	1585.701	1316.907
-2.487	29.376	1583.741	1315.543
-1.473	29.058	1572.068	1303.541
-0.458	26.211	1552.534	1267.348
0.556	20.462	1553.892	1236.671
1.571	18.391	1577.949	1240.721
2.586	18.123	1591.577	1249.366
3.600	16.468	1539.327	1196.538
4.615	8.774	1430.541	1061.085
5.629	1.183	1366.996	965.666
6.644	-0.174	1358.938	951.294
7.659	-0.291	1357.185	949.248
8.673	-0.367	1356.583	948.261
9.688	-0.378	1354.548	946.684
10.702	-0.592	1351.332	943.002
11.717	2.484	1357.513	966.678
12.731	11.672	1374.907	1037.515
13.746	19.084	1387.308	1094.072
14.761	20.875	1390.377	1107.796
15.775	21.252	1389.634	1109.498
16.790	21.276	1389.462	1109.414
17.804	21.299	1389.054	1109.135
18.819	21.522	1388.515	1110.026
19.834	21.646	1387.933	1110.243
20.848	21.740	1387.150	1110.114
21.863	21.824	1385.581	1109.296
22.877	21.689	1385.434	1108.225
23.892	21.740	1384.419	1107.635
24.907	21.711	1383.521	1106.637
25.921	21.709	1382.964	1106.081
26.936	21.641	1382.055	1104.829
27.950	21.658	1380.960	1103.961
28.965	21.750	1379.571	1103.332
29.980	21.706	1378.064	1101.754
30.994	21.663	1376.905	1100.458
32.009	21.719	1375.532	1099.618
33.023	21.726	1374.833	1099.005
34.038	21.761	1373.644	1098.174
35.053	21.690	1372.533	1096.747
36.067	21.722	1371.473	1095.998
37.082	21.691	1370.269	1094.746
38.096	21.687	1369.769	1094.228
39.111	21.744	1368.815	1093.726
40.126	21.745	1367.904	1092.907
41.140	21.773	1367.508	1092.668
42.155	21.701	1367.377	1092.016
43.169	21.631	1368.068	1092.038
44.184	21.741	1366.905	1091.695
45.199	21.710	1366.230	1090.869
46.213	21.661	1365.951	1090.243
47.228	21.650	1365.303	1089.558
48.242	21.733	1363.604	1088.627
49.257	21.708	1362.141	1087.205
50.271	21.676	1361.144	1086.115
51.286	21.748	1359.315	1085.006
52.301	21.756	1358.418	1084.241
53.315	21.657	1357.566	1082.852
54.330	21.691	1356.940	1082.472
55.344	21.610	1355.763	1080.937
56.359	21.707	1354.546	1080.465
57.374	21.686	1353.858	1079.695
58.388	21.683	1353.532	1079.316
59.403	21.687	1353.066	1078.875
60.417	21.676	1352.212	1078.031
61.432	21.704	1351.562	1077.588
62.447	21.825	1350.123	1077.090
63.461	21.680	1349.628	1075.708
64.476	21.765	1348.530	1075.260
65.490	21.662	1347.501	1073.713
66.505	21.681	1345.573	1072.201
67.520	21.840	1344.048	1071.863
68.534	21.772	1343.098	1070.597
69.549	21.737	1342.464	1069.778
70.563	21.748	1341.387	1068.896
71.578	21.782	1340.234	1068.090
72.593	21.804	1339.458	1067.506
73.607	21.787	1338.928	1066.892
74.622	21.738	1338.155	1065.882
75.636	21.756	1337.747	1065.571
76.651	21.745	1336.683	1064.562
77.666	21.717	1336.149	1063.874
78.680	21.668	1335.823	1063.220
79.695	21.650	1334.609	1062.055
80.709	21.768	1333.929	1062.131
81.724	21.611	1333.362	1060.635
82.739	21.721	1332.112	1060.213
83.753	21.677	1331.231	1059.155
84.768	21.759	1329.608	1058.262
85.782	21.816	1328.787	1057.861
86.797	21.771	1327.746	1056.668
87.812	21.815	1326.491	1055.838
88.826	21.775	1325.759	1054.921
89.841	21.710	1324.695	1053.591
90.855	21.864	1323.197	1053.231
91.870	21.819	1322.310	1052.158
92.884	21.839	1321.881	1051.850
93.899	21.773	1321.331	1050.923
94.914	21.707	1320.657	1049.898
95.928	21.672	1319.964	1049.043
96.943	21.891	1318.512	1049.107
97.957	21.815	1318.273	1048.370
98.972	21.847	1317.050	1047.492
99.987	21.781	1315.810	1046.024
101.001	21.814	1315.129	1045.585
102.016	21.770	1314.128	1044.434
103.030	21.756	1313.692	1043.913
104.045	21.817	1312.792	1043.470
105.060	21.800	1311.463	1042.217
106.074	21.839	1310.077	1041.257
107.089	21.806	1309.442	1040.461
108.103	21.852	1308.423	1039.836
109.118	21.851	1307.069	1038.659
110.133	21.919	1305.925	1038.059
111.147	21.925	1304.555	1036.917
112.162	21.843	1303.787	1035.732
113.176	21.982	1302.440	1035.386
114.191	21.974	1301.396	1034.416
115.206	21.891	1300.702	1033.284
116.220	21.851	1299.462	1031.977
117.235	21.880	1298.723	1031.470
118.249	21.861	1297.574	1030.351
119.264	21.813	1297.092	1029.596
120.279	21.878	1296.201	1029.177
121.293	21.995	1294.933	1028.770
122.308	21.996	1294.151	1028.058
123.322	21.812	1293.824	1026.633
124.337	22.020	1292.525	1026.730
125.352	22.003	1291.239	1025.517
126.366	21.912	1290.652	1024.429
127.381	21.872	1290.075	1023.644
128.395	21.877	1288.808	1022.578
129.410	21.907	1288.227	1022.204
130.424	21.865	1287.254	1021.093
131.439	21.924	1286.130	1020.457
132.454	21.946	1285.347	1019.870
133.468	22.013	1284.819	1019.750
134.483	21.871	1284.225	1018.365
135.497	21.803	1283.386	1017.216
136.512	21.873	1282.218	1016.604
137.527	22.023	1280.478	1016.006
138.541	21.901	1279.374	1014.331
139.556	21.845	1278.385	1013.137
140.570	21.764	1277.389	1011.789
141.585	21.826	1276.037	1010.990
142.600	21.927	1274.923	1010.595
143.614	21.876	1274.127	1009.585
144.629	21.893	1273.100	1008.775
145.643	21.807	1272.238	1007.512
146.658	21.824	1271.067	1006.591
147.673	21.836	1270.026	1005.749
148.687	21.825	1269.333	1005.046
149.702	21.848	1267.775	1003.857
150.716	21.893	1266.737	1003.204
151.731	21.781	1266.327	1002.151
152.746	21.923	1264.650	1001.546
153.760	21.923	1263.711	1000.711
154.775	21.927	1262.880	999.985
155.789	21.939	1261.385	998.781
156.804	21.961	1260.433	998.066
157.819	21.898	1259.998	997.278
158.833	21.834	1259.399	996.349
159.848	22.114	1257.912	996.674
160.862	21.971	1257.529	995.468
161.877	21.943	1256.599	994.491
162.892	21.920	1256.006	993.798
163.906	21.995	1255.316	993.592
164.921	22.025	1253.883	992.539
165.935	22.111	1253.061	992.286
166.950	22.009	1252.916	991.505
167.964	22.057	1251.847	990.842
168.979	22.129	1251.449	990.849
169.994	22.146	1250.645	990.221
171.008	22.063	1250.245	989.350
172.023	22.009	1249.608	988.454
173.037	21.933	1249.047	987.495
174.052	22.069	1247.923	987.282
175.067	22.123	1246.840	986.641
176.081	22.052	1246.260	985.698
177.096	22.062	1245.482	985.047
178.110	22.094	1244.759	984.569
179.125	22.143	1243.772	983.979
180.140	21.964	1242.634	981.988
181.154	22.012	1241.484	981.258
182.169	22.004	1240.630	980.454
183.183	22.105	1239.277	979.863
184.198	22.019	1238.849	978.957
185.213	22.099	1237.569	978.302
186.227	22.030	1237.118	977.476
187.242	22.108	1235.974	976.922
188.256	22.174	1235.048	976.468
189.271	22.141	1234.342	975.640
190.286	22.164	1233.982	975.398
191.300	22.130	1232.997	974.346
192.315	22.057	1232.993	973.850
193.329	22.196	1232.162	973.880
194.344	22.200	1231.501	973.293
195.359	22.131	1231.315	972.678
196.373	22.035	1230.439	971.367
197.388	22.234	1229.828	971.896
198.402	22.129	1229.772	971.186
199.417	22.092	1229.134	970.396
200.432	22.150	1228.676	970.268
201.446	22.136	1228.170	969.703
202.461	22.156	1227.440	969.154
203.475	22.060	1226.618	967.889
204.490	22.064	1225.745	967.135
205.504	22.238	1224.179	966.771
206.519	22.258	1223.002	965.868
207.534	22.216	1222.305	965.001
208.548	22.149	1221.369	963.808
209.563	22.173	1220.859	963.452
210.577	22.213	1219.726	962.688
211.592	22.143	1219.386	961.955
212.607	22.242	1218.028	961.341
213.621	22.243	1217.397	960.761
214.636	22.217	1216.550	959.865
215.650	22.241	1216.133	959.583
216.665	22.239	1214.840	958.468
217.680	22.218	1214.320	957.856
218.694	22.370	1213.286	957.787
219.709	22.360	1212.714	957.195
220.723	22.284	1212.147	956.248
221.738	22.249	1211.536	955.493
222.753	22.191	1210.760	954.483
223.767	22.176	1210.199	953.871
224.782	22.427	1209.392	954.514
225.796	22.346	1209.063	953.727
226.811	22.260	1208.475	952.713
227.826	22.316	1207.819	952.420
228.840	22.408	1207.473	952.557
229.855	22.337	1206.708	951.488
230.869	22.244	1206.127	950.440
231.884	22.230	1205.474	949.767
232.899	22.444	1204.453	950.032
233.913	22.388	1203.811	949.141
234.928	22.317	1203.638	948.537
235.942	22.441	1202.968	948.592
236.957	22.386	1201.974	947.431
237.972	22.367	1201.294	946.709
238.986	22.442	1200.724	946.577
240.001	22.386	1200.012	945.633
241.015	22.414	1199.440	945.251
242.030	22.517	1198.437	944.925
243.045	22.501	1197.797	944.255
244.059	22.499	1197.146	943.646
245.074	22.545	1196.206	943.068
246.088	22.493	1195.585	942.216
247.103	22.590	1194.266	941.609
248.117	22.550	1193.805	940.952
249.132	22.435	1193.612	940.103
250.147	22.585	1192.431	939.889
251.161	22.544	1191.836	939.115
252.176	22.478	1191.101	938.105
253.190	22.573	1190.542	938.085
254.205	22.549	1190.121	937.545
255.220	22.647	1188.938	937.049
256.234	22.565	1188.792	936.417
257.249	22.592	1188.202	936.012
258.263	22.657	1187.322	935.580
259.278	22.669	1186.573	934.970
260.293	22.653	1186.339	934.620
261.307	22.596	1185.947	933.927
262.322	22.658	1185.161	933.552
263.336	22.577	1184.697	932.675
264.351	22.625	1183.691	932.057
265.366	22.574	1183.656	931.676
266.380	22.574	1183.004	931.079
267.395	22.581	1181.944	930.201
268.409	22.565	1181.606	929.765
269.424	22.712	1180.687	929.734
270.439	22.647	1180.489	929.158
271.453	22.678	1179.540	928.490
272.468	22.740	1178.305	927.763
273.482	22.784	1177.651	927.397
274.497	22.698	1177.476	926.721
275.512	22.775	1177.016	926.684
276.526	22.721	1176.164	925.647
277.541	22.824	1175.442	925.536
278.555	22.801	1174.986	924.977
279.570	22.724	1174.399	924.032
280.585	22.742	1173.936	923.677
281.599	22.720	1172.845	922.622
282.614	22.829	1171.694	922.204
283.628	22.885	1170.604	921.559
284.643	22.940	1169.643	921.004
285.657	22.904	1169.018	920.243
286.672	22.824	1168.114	919.033
287.687	22.844	1167.640	918.684
288.701	22.825	1167.269	918.212
289.716	22.841	1166.256	917.417
290.730	22.888	1165.623	917.085
291.745	22.819	1165.177	916.294
292.760	22.999	1164.378	916.516
293.774	22.916	1163.746	915.508
294.789	22.961	1163.320	915.325
295.803	23.043	1162.633	915.129
296.818	22.948	1162.232	914.240
297.833	22.977	1161.113	913.431
298.847	22.974	1160.536	912.880
299.862	22.983	1159.972	912.402
300.876	23.081	1158.910	911.990
301.891	22.985	1158.791	911.322
302.906	23.167	1157.566	911.214
303.920	23.028	1157.198	910.130
304.935	22.997	1156.478	909.321
305.949	23.037	1156.173	909.205
306.964	23.141	1155.322	908.994
307.979	23.092	1154.901	908.331
308.993	23.168	1153.963	907.901
310.008	23.135	1153.209	907.058
311.022	23.098	1152.422	906.170
312.037	23.176	1151.938	906.109
313.052	23.116	1150.980	904.965
314.066	23.217	1150.319	904.882
315.081	23.159	1149.322	903.721
316.095	23.107	1148.927	903.068
317.110	23.057	1148.271	902.216
318.125	23.129	1147.861	902.182
319.139	23.068	1146.956	901.079
320.154	23.209	1146.239	901.154
321.168	23.172	1145.965	900.672
322.183	23.159	1145.564	900.208
323.197	23.115	1144.784	899.294
324.212	23.136	1144.206	898.865
325.227	23.178	1143.636	898.550
326.241	23.240	1142.921	898.226
327.256	23.236	1141.997	897.398
328.270	23.186	1141.558	896.722
329.285	23.290	1140.802	896.578
330.300	23.253	1140.016	895.690
331.314	23.356	1138.720	895.112
332.329	23.324	1137.880	894.215
333.343	23.388	1137.336	894.029
334.358	23.302	1136.844	893.129
335.373	23.304	1136.358	892.678
336.387	23.394	1135.507	892.387
337.402	23.351	1135.032	891.714
338.416	23.446	1134.361	891.586
339.431	23.276	1133.890	890.283
340.446	23.403	1133.325	890.399
341.460	23.424	1132.442	889.734
342.475	23.444	1131.394	888.930
343.489	23.412	1130.476	887.971
344.504	23.333	1130.041	887.152
345.519	23.473	1128.934	886.908
346.533	23.576	1127.873	886.511
347.548	23.496	1127.639	885.848
348.562	23.556	1126.813	885.419
349.577	23.578	1126.077	884.871
350.592	23.389	1125.710	883.563
351.606	23.406	1124.655	882.744
352.621	23.512	1123.761	882.491
353.635	23.452	1123.673	882.045
354.650	23.442	1122.692	881.149
355.665	23.505	1122.233	881.021
356.679	23.500	1121.964	880.710
357.694	23.588	1121.124	880.406
358.708	23.526	1120.485	879.522
359.723	23.598	1119.502	879.025
360.738	23.511	1118.791	877.959
361.752	23.609	1118.497	878.137
362.767	23.587	1117.970	877.538
363.781	23.546	1117.712	877.056
364.796	23.789	1116.413	877.154
365.810	23.746	1115.885	876.450
366.825	23.681	1115.798	875.984
367.840	23.707	1115.335	875.671
368.854	23.776	1114.800	875.515
369.869	23.807	1113.785	874.794
370.883	23.800	1112.826	873.928
371.898	23.712	1112.402	873.085
372.913	23.596	1112.097	872.197
373.927	23.860	1111.367	872.846
374.942	23.898	1110.549	872.312
375.956	23.791	1110.221	871.451
376.971	23.918	1109.802	871.668
377.986	23.764	1109.277	870.423
379.000	23.873	1108.616	870.362
380.015	24.020	1107.866	870.414
381.029	23.896	1107.421	869.386
382.044	23.903	1106.787	868.845
383.059	23.794	1106.365	867.902
384.073	23.924	1105.589	867.853
385.088	23.962	1104.312	866.959
386.102	23.862	1103.584	865.822
387.117	23.980	1102.745	865.661
388.132	23.951	1102.248	865.055
389.146	23.998	1101.348	864.497
390.161	23.983	1101.203	864.236
391.175	23.942	1100.221	863.190
392.190	24.053	1099.051	862.734
393.205	24.060	1098.484	862.244
394.219	23.993	1097.795	861.303
395.234	24.037	1097.445	861.167
396.248	24.148	1096.564	860.936
397.263	24.030	1095.652	859.575
398.278	24.066	1095.419	859.489
399.292	24.106	1094.346	858.764
400.307	24.064	1093.635	857.927
401.321	24.106	1092.978	857.537
402.336	24.032	1092.540	856.762
403.350	24.049	1092.024	856.364
404.365	24.055	1091.377	855.810
405.380	24.184	1090.085	855.338
406.394	24.219	1089.752	855.173
407.409	24.222	1088.764	854.332
408.423	24.260	1087.977	853.821
409.438	24.309	1087.189	853.363
410.453	24.237	1087.340	853.064
411.467	24.176	1086.409	851.964
412.482	24.178	1085.945	851.534
413.496	24.221	1084.779	850.752
414.511	24.144	1084.479	850.075
415.526	24.250	1083.882	850.036
416.540	24.241	1083.326	849.482
417.555	24.175	1082.761	848.648
418.569	24.263	1082.566	848.841
419.584	24.280	1081.937	848.352
420.599	24.316	1081.930	848.441
421.613	149.230	1401.565	1799.915
422.628	137.855	1448.086	1800.005
