DTS Sentinel unit serial number:	SN413079Multiplexer serial number:	ORYXHardware model number:	OX4-SRSoftware version number:	ORYX F/W v4.00 Oryx Data Collector v3.7.2.0data status	okinstallation	princeton_trtdifferential loss correction	single-endedforward channel	channel 2reverse channel	N/Adate	2019/09/18time	23:59:35forward acquisition time	60.00reverse acquisition time	0.00gamma	496.2192k internal	0.2352k external	0.2352temperature offset calibration	1.0016default loss term (dB/km)	0.3790temperature slope calibration	1.0000multiplexer offset coefficient	1.0000multiplexer slope coefficient	1.0000fibre end	0.00T internal ref (°C)	23.11T ext. ref 1 (°C)	0.75T ext. ref 2 (°C)	16.03length (m)	temperature (°C)	Stokes	anti-Stokes-747.200	590.578	-0.109	0.268
-746.185	800.000	0.091	0.285
-745.171	-80.230	-0.139	-0.046
-744.156	-35.268	-0.326	0.177
-743.142	-31.073	0.250	-0.141
-742.127	-116.855	-0.193	-0.035
-741.112	316.988	0.041	-0.077
-740.098	-87.835	-0.123	0.037
-739.083	30.602	0.078	-0.067
-738.069	429.615	-0.074	0.160
-737.054	-200.000	-0.056	-0.281
-736.039	-106.340	-0.285	-0.063
-735.025	-66.398	0.274	0.108
-734.010	178.834	-0.210	-0.305
-732.996	-13.604	-0.270	-0.174
-731.981	-188.010	-0.093	-0.001
-730.966	-200.000	-0.028	-0.191
-729.952	-44.229	-0.047	0.023
-728.937	-54.236	0.240	-0.109
-727.923	9.741	-0.299	-0.226
-726.908	194.259	0.035	0.053
-725.894	-84.314	0.166	-0.052
-724.879	14.820	-0.228	-0.177
-723.864	351.996	0.148	0.291
-722.850	420.500	-0.099	-0.211
-721.835	-191.412	-0.295	-0.003
-720.821	-63.240	0.343	-0.141
-719.806	-200.000	-0.025	0.116
-718.791	-70.122	-0.217	0.082
-717.777	527.066	0.045	0.107
-716.762	370.422	0.064	-0.129
-715.748	-169.079	-0.136	-0.005
-714.733	-200.000	0.010	0.065
-713.718	-138.233	-0.151	-0.017
-712.704	381.982	-0.142	0.290
-711.689	800.000	-0.040	-0.159
-710.675	466.435	-0.093	-0.207
-709.660	800.000	-0.045	-0.156
-708.645	319.922	-0.038	0.073
-707.631	-69.970	-0.151	-0.057
-706.616	61.476	-0.175	-0.173
-705.602	645.649	0.071	0.181
-704.587	-62.153	0.414	-0.172
-703.572	21.364	0.213	-0.173
-702.558	44.383	-0.152	0.139
-701.543	-113.063	0.340	-0.067
-700.529	-200.000	-0.052	-0.238
-699.514	112.980	-0.087	0.106
-698.499	-24.612	-0.280	-0.166
-697.485	-200.000	0.057	-0.382
-696.470	25.242	-0.132	-0.109
-695.456	800.000	-0.080	0.295
-694.441	-200.000	-0.036	0.206
-693.426	800.000	-0.070	0.223
-692.412	-43.550	-0.178	0.089
-691.397	241.741	-0.157	-0.261
-690.383	-33.714	0.109	-0.060
-689.368	527.041	-0.078	0.182
-688.354	-25.574	0.197	0.116
-687.339	-51.527	-0.254	0.118
-686.324	-200.000	-0.020	0.138
-685.310	800.000	0.047	-0.147
-684.295	166.261	0.162	-0.229
-683.281	-200.000	-0.028	0.207
-682.266	5.340	0.405	0.297
-681.251	800.000	0.110	-0.394
-680.237	-123.291	-0.078	0.012
-679.222	124.073	-0.181	-0.226
-678.208	130.817	-0.149	-0.190
-677.193	-127.629	0.403	-0.058
-676.178	256.750	-0.197	0.336
-675.164	-200.000	0.028	0.529
-674.149	-200.000	0.006	-0.240
-673.135	183.142	-0.093	0.137
-672.120	800.000	-0.087	-0.258
-671.105	5.060	-0.237	0.173
-670.091	325.482	-0.061	-0.115
-669.076	800.000	-0.019	0.062
-668.062	-56.636	0.224	0.099
-667.047	-122.766	0.158	0.025
-666.032	-52.167	0.093	-0.043
-665.018	434.768	0.098	0.212
-664.003	-2.741	-0.226	-0.157
-662.989	71.829	0.187	0.194
-661.974	-69.370	0.182	0.069
-660.959	-200.000	-0.013	-0.091
-659.945	154.630	0.062	-0.085
-658.930	-200.000	-0.031	0.247
-657.916	95.171	-0.082	-0.093
-656.901	25.594	-0.053	0.044
-655.886	357.743	-0.121	0.239
-654.872	73.647	0.150	0.156
-653.857	800.000	0.022	-0.091
-652.843	-147.573	0.280	-0.023
-651.828	103.547	0.132	-0.154
-650.814	-80.799	0.073	-0.024
-649.799	191.262	-0.127	-0.190
-648.784	-175.520	-0.193	-0.005
-647.770	121.585	0.141	-0.174
-646.755	125.059	-0.162	-0.203
-645.741	383.546	0.108	0.222
-644.726	-27.283	-0.143	0.082
-643.711	-7.703	-0.152	-0.102
-642.697	-102.122	0.078	-0.019
-641.682	-183.958	-0.157	-0.003
-640.668	710.338	0.115	0.301
-639.653	-200.000	-0.299	-0.001
-638.638	800.000	0.072	-0.230
-637.624	-117.296	-0.131	-0.024
-636.609	274.302	-0.275	0.483
-635.595	-140.805	0.208	0.021
-634.580	14.592	-0.321	-0.249
-633.565	-76.791	0.223	0.078
-632.551	-92.972	-0.011	0.003
-631.536	119.013	-0.115	-0.141
-630.522	15.421	-0.402	-0.313
-629.507	-147.798	0.074	-0.006
-628.492	-200.000	0.038	0.344
-627.478	347.916	-0.067	0.130
-626.463	-200.000	-0.028	-0.155
-625.449	-45.033	-0.331	-0.164
-624.434	-84.730	0.133	0.042
-623.419	18.441	-0.198	0.157
-622.405	-33.083	0.152	0.084
-621.390	-200.000	0.004	0.198
-620.376	-1.087	-0.081	-0.057
-619.361	-117.978	-0.224	-0.040
-618.346	404.190	0.139	-0.291
-617.332	65.838	-0.094	-0.095
-616.317	-200.000	-0.001	0.090
-615.303	-169.108	0.039	-0.001
-614.288	230.230	-0.216	-0.350
-613.273	135.226	-0.165	-0.212
-612.259	-22.789	-0.109	-0.066
-611.244	82.500	0.163	0.176
-610.230	-43.559	-0.395	0.198
-609.215	43.904	0.085	-0.078
-608.201	-200.000	-0.023	-0.113
-607.186	-92.018	0.197	-0.055
-606.171	351.906	0.027	0.053
-605.157	3.899	0.413	-0.299
-604.142	-101.043	-0.129	-0.031
-603.128	176.839	0.147	-0.212
-602.113	-29.069	-0.120	0.068
-601.098	-200.000	0.034	-0.285
-600.084	-43.490	-0.110	-0.055
-599.069	239.294	-0.048	-0.079
-598.055	121.365	-0.094	-0.116
-597.040	-94.345	-0.295	0.080
-596.025	800.000	-0.019	-0.081
-595.011	800.000	-0.130	-0.385
-593.996	-172.730	-0.182	-0.006
-592.982	52.864	-0.253	-0.240
-591.967	-59.206	0.169	-0.072
-590.952	800.000	0.027	-0.084
-589.938	119.404	0.075	0.092
-588.923	5.435	-0.171	-0.125
-587.909	800.000	0.007	0.027
-586.894	161.087	-0.141	0.195
-585.879	295.781	-0.137	0.248
-584.865	-46.847	0.554	-0.269
-583.850	-40.480	-0.263	-0.135
-582.836	-101.011	-0.117	0.029
-581.821	-200.000	-0.016	0.316
-580.806	800.000	-0.110	-0.442
-579.792	800.000	-0.041	0.127
-578.777	800.000	-0.052	0.195
-577.763	-64.489	-0.325	0.131
-576.748	134.730	-0.096	0.124
-575.733	120.553	-0.069	-0.085
-574.719	-188.843	-0.016	0.000
-573.704	-191.553	-0.420	-0.004
-572.690	-185.521	0.371	-0.006
-571.675	297.999	0.111	-0.202
-570.661	-61.875	-0.190	-0.079
-569.646	-91.452	0.189	0.054
-568.631	-39.275	0.149	0.077
-567.617	72.617	0.257	-0.266
-566.602	800.000	0.061	-0.184
-565.588	728.117	0.046	0.123
-564.573	-98.610	0.238	0.060
-563.558	66.813	0.143	-0.145
-562.544	-200.000	-0.010	0.049
-561.529	551.363	-0.034	-0.081
-560.515	103.609	-0.166	-0.193
-559.500	143.623	0.132	0.175
-558.485	-54.248	0.088	0.039
-557.471	-156.646	-0.198	0.012
-556.456	-122.592	0.148	-0.024
-555.442	-8.450	0.221	-0.147
-554.427	-114.342	0.078	-0.015
-553.412	165.001	0.100	-0.140
-552.398	-78.254	-0.376	0.128
-551.383	129.624	0.181	-0.228
-550.369	489.813	0.160	0.363
-549.354	332.365	0.045	-0.087
-548.339	-30.550	0.229	-0.129
-547.325	288.242	-0.057	-0.102
-546.310	-120.769	-0.174	0.029
-545.296	-44.038	0.079	-0.039
-544.281	81.605	-0.077	-0.083
-543.266	670.883	0.032	0.081
-542.252	800.000	0.044	0.132
-541.237	800.000	0.078	0.289
-540.223	15.757	-0.060	0.047
-539.208	-117.164	0.119	0.021
-538.193	-200.000	-0.036	-0.313
-537.179	-168.292	-0.315	-0.012
-536.164	-200.000	0.041	-0.207
-535.150	-200.000	-0.106	0.507
-534.135	-78.121	0.215	0.073
-533.121	-122.282	-0.056	0.009
-532.106	320.550	0.109	-0.204
-531.091	-200.000	-0.062	0.300
-530.077	-56.896	-0.287	0.125
-529.062	-63.136	-0.124	0.051
-528.048	-200.000	0.029	-0.156
-527.033	-200.000	0.066	0.299
-526.018	168.815	0.122	0.172
-525.004	-89.791	0.030	0.009
-523.989	-150.689	0.251	-0.019
-522.975	170.464	0.216	-0.306
-521.960	151.001	-0.094	-0.126
-520.945	667.132	-0.065	-0.165
-519.931	345.566	0.044	0.086
-518.916	141.378	-0.198	0.259
-517.902	708.280	-0.030	-0.078
-516.887	-54.344	-0.184	-0.082
-515.872	800.000	0.070	-0.201
-514.858	-140.317	-0.240	-0.025
-513.843	4.008	-0.327	0.237
-512.829	613.989	-0.145	0.358
-511.814	-36.350	-0.149	-0.079
-510.799	49.949	0.281	0.262
-509.785	-0.737	0.150	-0.105
-508.770	134.284	-0.151	0.194
-507.756	-147.406	0.393	-0.033
-506.741	-200.000	0.020	0.160
-505.726	-38.247	0.261	0.137
-504.712	-92.995	-0.101	-0.028
-503.697	800.000	-0.067	-0.189
-502.683	-68.200	-0.039	-0.015
-501.668	-200.000	0.024	0.193
-500.653	349.223	0.096	-0.188
-499.639	800.000	0.083	0.288
-498.624	-190.942	-0.016	-0.000
-497.610	10.650	0.195	0.147
-496.595	-121.500	0.233	0.038
-495.581	-132.680	-0.447	0.057
-494.566	-18.541	0.199	-0.123
-493.551	-200.000	0.043	0.209
-492.537	-92.892	-0.117	0.032
-491.522	9.287	0.262	0.196
-490.508	351.862	0.110	0.214
-489.493	-200.000	-0.020	0.200
-488.478	27.840	0.128	-0.107
-487.464	800.000	-0.067	0.202
-486.449	73.991	-0.149	-0.155
-485.435	-174.145	0.146	0.004
-484.420	800.000	0.038	-0.130
-483.405	-200.000	-0.008	-0.232
-482.391	-125.868	-0.308	-0.046
-481.376	4.222	0.271	-0.196
-480.362	700.265	-0.064	-0.166
-479.347	500.116	-0.070	0.159
-478.332	85.171	-0.158	0.171
-477.318	-32.470	-0.078	-0.043
-476.303	156.315	0.040	0.055
-475.289	-117.430	0.336	-0.060
-474.274	137.141	0.212	0.274
-473.259	-18.270	-0.105	-0.065
-472.245	190.026	0.121	0.179
-471.230	-118.814	-0.187	-0.032
-470.216	-2.230	-0.170	0.118
-469.201	235.044	0.073	0.118
-468.186	-82.080	0.208	0.067
-467.172	-36.012	-0.294	-0.157
-466.157	-22.553	0.157	0.094
-465.143	383.611	0.024	0.048
-464.128	-200.000	0.014	0.185
-463.113	-75.626	0.236	-0.083
-462.099	-76.380	0.165	-0.057
-461.084	-121.557	-0.139	-0.023
-460.070	-200.000	-0.025	-0.138
-459.055	-37.927	-0.391	0.205
-458.040	-171.072	-0.147	-0.005
-457.026	305.692	-0.088	0.161
-456.011	-49.059	0.364	0.172
-454.997	-49.486	0.259	-0.122
-453.982	-49.887	-0.065	0.031
-452.968	800.000	0.120	0.379
-451.953	-30.616	-0.257	0.144
-450.938	162.200	0.184	0.254
-449.924	800.000	-0.053	0.202
-448.909	232.508	0.154	0.249
-447.895	659.716	-0.098	0.250
-446.880	157.634	0.135	0.184
-445.865	-75.960	-0.196	-0.068
-444.851	522.685	-0.139	0.322
-443.836	-8.650	0.160	-0.106
-442.822	120.809	0.101	-0.124
-441.807	800.000	0.148	0.429
-440.792	-90.298	-0.308	0.088
-439.778	-99.553	0.159	-0.039
-438.763	-200.000	-0.002	-0.023
-437.749	-200.000	0.021	-0.122
-436.734	-77.554	-0.217	-0.074
-435.719	-8.886	0.197	-0.130
-434.705	-161.546	0.355	0.018
-433.690	-200.000	0.026	-0.149
-432.676	104.986	-0.071	-0.083
-431.661	721.973	0.099	-0.259
-430.646	-44.680	-0.272	-0.134
-429.632	130.133	-0.024	0.030
-428.617	-65.282	0.087	-0.035
-427.603	-132.589	0.235	-0.030
-426.588	-200.000	0.037	-0.175
-425.573	800.000	0.015	0.044
-424.559	80.506	0.216	0.230
-423.544	171.366	0.158	-0.223
-422.530	326.333	-0.059	-0.110
-421.515	132.668	-0.079	-0.100
-420.500	-158.230	0.041	-0.002
-419.486	301.474	-0.172	0.313
-418.471	96.506	0.142	-0.160
-417.457	56.578	0.043	-0.041
-416.442	114.541	-0.197	0.236
-415.428	-73.926	0.206	0.074
-414.413	-200.000	-0.067	-0.000
-413.398	-200.000	0.009	0.237
-412.384	94.471	0.353	0.395
-411.369	-200.000	0.003	-0.266
-410.355	800.000	0.047	-0.127
-409.340	512.171	-0.070	-0.161
-408.325	223.500	-0.174	-0.276
-407.311	-124.058	-0.104	-0.016
-406.296	80.939	-0.315	-0.334
-405.282	12.276	0.173	-0.131
-404.267	-69.303	-0.398	0.150
-403.252	-79.641	-0.165	-0.055
-402.238	193.378	-0.196	-0.292
-401.223	-25.552	-0.065	0.038
-400.209	159.961	0.181	0.249
-399.194	-40.630	0.400	0.204
-398.179	-200.000	-0.014	0.276
-397.165	-123.943	-0.253	-0.039
-396.150	-200.000	0.008	0.302
-395.136	94.273	-0.122	-0.136
-394.121	293.394	0.182	0.327
-393.106	-42.204	-0.129	0.065
-392.092	-53.605	-0.101	0.045
-391.077	-113.596	0.324	-0.062
-390.063	-42.783	0.239	-0.120
-389.048	-177.623	-0.341	0.008
-388.033	-73.010	-0.323	0.117
-387.019	165.529	0.282	0.393
-386.004	-200.000	0.041	0.400
-384.990	-200.000	-0.022	0.102
-383.975	-200.000	-0.019	0.084
-382.960	84.023	0.152	0.163
-381.946	45.769	-0.101	-0.092
-380.931	-200.000	0.026	0.115
-379.917	87.357	-0.057	-0.062
-378.902	162.698	-0.114	0.157
-377.888	19.011	0.259	-0.204
-376.873	-200.000	-0.042	0.208
-375.858	-200.000	0.019	-0.091
-374.844	83.421	0.206	0.220
-373.829	800.000	-0.100	-0.414
-372.815	-159.146	0.046	-0.003
-371.800	-140.706	-0.181	0.018
-370.785	241.619	-0.272	-0.447
-369.771	248.017	-0.065	-0.109
-368.756	-200.000	0.043	-0.206
-367.742	98.408	0.041	-0.046
-366.727	-23.180	-0.191	-0.113
-365.712	800.000	0.033	0.115
-364.698	66.934	0.152	-0.152
-363.683	-166.459	-0.380	0.016
-362.669	648.875	-0.051	0.128
-361.654	61.476	0.339	0.331
-360.639	-200.000	-0.038	0.290
-359.625	-200.000	-0.012	-0.140
-358.610	-200.000	-0.082	-0.376
-357.596	-200.000	-0.076	-0.393
-356.581	-47.884	-0.213	0.101
-355.566	-29.745	0.344	0.193
-354.552	5.525	-0.139	0.101
-353.537	-87.021	0.479	-0.143
-352.523	-151.854	-0.231	0.017
-351.508	322.241	-0.083	0.155
-350.493	-166.215	-0.153	0.006
-349.479	50.373	0.107	0.100
-348.464	-198.312	-0.207	0.001
-347.450	-200.000	0.057	0.369
-346.435	-47.865	0.153	0.073
-345.420	-79.967	0.167	-0.055
-344.406	108.208	-0.067	0.078
-343.391	-71.141	0.004	0.001
-342.377	50.859	0.170	-0.158
-341.362	-200.000	-0.020	-0.263
-340.348	-147.055	-0.510	0.043
-339.333	-82.024	0.142	0.046
-338.318	-13.299	0.094	-0.060
-337.304	-200.000	-0.004	0.277
-336.289	37.154	-0.161	-0.140
-335.275	703.325	-0.082	0.211
-334.260	-64.985	-0.210	-0.083
-333.245	396.783	0.111	0.228
-332.231	277.764	0.084	0.147
-331.216	-26.043	-0.298	0.172
-330.202	-87.211	0.223	0.066
-329.187	-77.225	-0.233	0.080
-328.172	-134.408	0.266	0.032
-327.158	-8.523	-0.178	-0.117
-326.143	-200.000	0.034	-0.156
-325.129	-37.410	0.237	0.124
-324.114	104.455	-0.344	-0.398
-323.099	166.179	0.019	-0.026
-322.085	52.608	0.170	0.160
-321.070	19.224	0.076	-0.060
-320.056	141.666	-0.121	0.158
-319.041	-200.000	-0.029	-0.293
-318.026	-200.000	-0.007	0.070
-317.012	-200.000	-0.099	-0.681
-315.997	523.987	-0.075	-0.172
-314.983	-200.000	0.029	-0.143
-313.968	-22.685	0.302	0.179
-312.953	-63.917	0.307	-0.123
-311.939	-150.927	-0.264	-0.020
-310.924	-107.797	0.260	-0.056
-309.910	393.016	0.124	0.254
-308.895	87.239	0.287	0.311
-307.880	-200.000	0.095	0.443
-306.866	58.155	-0.100	0.096
-305.851	-68.444	0.454	-0.173
-304.837	-47.246	0.069	-0.033
-303.822	324.356	-0.040	0.076
-302.807	800.000	0.031	0.133
-301.793	800.000	-0.048	-0.133
-300.778	-141.273	0.301	0.030
-299.764	130.780	-0.080	-0.101
-298.749	-60.444	-0.231	0.096
-297.735	160.977	0.233	0.319
-296.720	-97.275	-0.284	-0.072
-295.705	362.058	0.076	-0.148
-294.691	-21.075	0.486	-0.291
-293.676	-145.130	-0.378	0.034
-292.662	800.000	-0.045	-0.126
-291.647	-200.000	0.025	-0.199
-290.632	64.168	0.295	-0.291
-289.618	800.000	-0.061	-0.183
-288.603	152.617	-0.273	-0.365
-287.589	-85.388	-0.310	-0.095
-286.574	-120.508	0.101	0.017
-285.559	-112.759	0.398	0.077
-284.545	-200.000	-0.004	0.116
-283.530	-200.000	0.038	-0.172
-282.516	800.000	-0.015	0.054
-281.501	-22.112	-0.133	-0.079
-280.486	-92.961	-0.100	-0.027
-279.472	78.324	-0.085	-0.089
-278.457	341.844	0.112	0.215
-277.443	800.000	-0.084	0.256
-276.428	-90.960	-0.307	-0.086
-275.413	120.456	-0.084	-0.102
-274.399	-26.976	-0.065	-0.037
-273.384	28.215	0.104	-0.086
-272.370	581.962	0.061	0.147
-271.355	-140.362	-0.135	0.014
-270.340	-47.176	0.107	-0.051
-269.326	345.299	0.209	0.402
-268.311	-100.485	0.236	0.057
-267.297	38.094	-0.072	-0.063
-266.282	4.800	-0.212	-0.152
-265.267	-200.000	0.003	-0.198
-264.253	-2.423	-0.118	0.081
-263.238	-200.000	-0.016	-0.133
-262.224	141.702	-0.137	-0.178
-261.209	-97.953	-0.190	0.048
-260.195	-8.063	-0.309	-0.204
-259.180	-151.276	0.339	-0.025
-258.165	-161.956	-0.251	-0.012
-257.151	-49.764	-0.137	-0.064
-256.136	-139.656	-0.208	0.022
-255.122	-54.823	0.271	-0.120
-254.107	-127.528	-0.220	0.031
-253.092	61.623	-0.147	0.143
-252.078	208.744	-0.043	-0.066
-251.063	399.419	0.064	0.132
-250.049	-200.000	0.037	0.361
-249.034	-19.119	0.251	0.152
-248.019	800.000	0.024	0.083
-247.005	58.269	0.141	-0.136
-245.990	-200.000	0.014	-0.195
-244.976	54.311	0.214	-0.202
-243.961	53.605	-0.218	-0.205
-242.946	364.517	0.196	-0.387
-241.932	-144.477	0.271	0.025
-240.917	1.836	-0.109	0.077
-239.903	-26.193	0.152	0.087
-238.888	-80.398	-0.052	0.017
-237.873	-143.804	0.077	-0.007
-236.859	85.801	0.183	-0.197
-235.844	-63.539	-0.129	-0.052
-234.830	-76.993	-0.322	-0.110
-233.815	800.000	-0.015	-0.061
-232.800	683.827	0.128	-0.327
-231.786	800.000	0.007	0.029
-230.771	-200.000	0.001	0.079
-229.757	-121.481	0.059	-0.010
-228.742	-45.853	0.325	-0.157
-227.727	800.000	0.038	-0.158
-226.713	365.260	0.157	-0.309
-225.698	108.480	-0.058	-0.067
-224.684	-71.629	0.308	0.113
-223.669	-154.158	-0.257	-0.017
-222.655	175.820	0.055	-0.078
-221.640	-200.000	0.014	0.346
-220.625	-50.081	0.281	0.130
-219.611	37.643	-0.203	-0.176
-218.596	-12.610	0.174	0.111
-217.582	431.499	0.082	0.174
-216.567	-60.971	0.314	-0.130
-215.552	14.441	0.066	-0.051
-214.538	-152.533	-0.138	0.010
-213.523	5.963	0.153	0.111
-212.509	-70.080	0.182	-0.068
-211.494	-176.805	-0.223	0.006
-210.479	-200.000	0.047	-0.356
-209.465	-84.531	-0.294	0.091
-208.450	-200.000	0.039	0.244
-207.436	-96.284	0.076	0.020
-206.421	-23.556	-0.369	0.217
-205.406	-104.503	0.142	-0.032
-204.392	643.380	-0.077	-0.192
-203.377	-200.000	-0.067	0.363
-202.363	587.952	-0.088	0.213
-201.348	800.000	0.016	-0.045
-200.333	289.304	-0.060	0.106
-199.319	248.570	0.085	0.141
-198.304	-2.470	0.175	0.120
-197.290	-67.740	-0.114	-0.044
-196.275	53.903	0.139	-0.131
-195.260	1.716	-0.068	-0.048
-194.246	-92.439	-0.172	0.047
-193.231	-117.018	0.170	-0.030
-192.217	-117.593	0.166	-0.029
-191.202	-87.829	-0.150	-0.044
-190.187	-1.860	0.146	-0.100
-189.173	150.134	-0.165	-0.218
-188.158	-27.162	0.100	0.057
-187.144	6.535	0.274	0.199
-186.129	-116.357	0.343	0.062
-185.114	-200.000	0.047	0.262
-184.100	18.178	0.243	0.189
-183.085	-14.406	-0.398	0.250
-182.071	-200.000	-0.015	-0.120
-181.056	800.000	-0.072	0.298
-180.042	-56.932	0.106	0.046
-179.027	-200.000	0.040	-0.212
-178.012	54.531	0.119	-0.112
-176.998	326.134	0.044	0.082
-175.983	-20.752	-0.177	0.106
-174.969	6.161	0.311	0.225
-173.954	800.000	-0.099	-0.281
-172.939	366.711	0.054	-0.106
-171.925	108.568	-0.074	-0.086
-170.910	238.751	-0.153	0.248
-169.896	-73.714	0.102	0.036
-168.881	-164.249	0.180	0.008
-167.866	62.182	-0.125	-0.121
-166.852	-11.397	-0.290	-0.186
-165.837	29.533	0.087	0.072
-164.823	147.429	0.046	0.060
-163.808	-121.401	-0.308	0.050
-162.793	800.000	0.174	-0.613
-161.779	800.000	0.080	-0.316
-160.764	-60.262	0.321	-0.133
-159.750	-126.508	-0.121	0.017
-158.735	22.978	-0.319	0.255
-157.720	424.359	0.139	-0.291
-156.706	800.000	0.056	0.204
-155.691	-2.547	-0.123	-0.084
-154.677	-65.305	0.081	0.032
-153.662	800.000	-0.069	-0.227
-152.647	800.000	-0.064	-0.231
-151.633	133.416	0.121	0.153
-150.618	169.342	-0.124	-0.172
-149.604	233.771	0.051	0.083
-148.589	-121.298	0.110	-0.018
-147.574	519.583	-0.046	-0.106
-146.560	-51.574	0.250	-0.114
-145.545	365.180	0.092	0.180
-144.531	387.513	0.030	0.061
-143.516	-93.481	0.091	-0.024
-142.502	800.000	-0.086	-0.241
-141.487	-113.944	0.083	0.016
-140.472	-73.573	-0.120	0.043
-139.458	-36.748	0.373	0.195
-138.443	-200.000	0.018	0.104
-137.429	552.224	0.067	-0.157
-136.414	229.117	-0.176	-0.280
-135.399	50.727	-0.326	0.300
-134.385	-11.504	0.264	0.169
-133.370	-98.671	0.365	0.091
-132.356	-200.000	-0.013	-0.115
-131.341	-200.000	-0.011	-0.060
-130.326	24.696	0.184	-0.149
-129.312	-200.000	-0.008	0.102
-128.297	800.000	-0.058	0.222
-127.283	-11.360	0.274	0.176
-126.268	800.000	0.071	0.234
-125.253	49.781	-0.142	0.131
-124.239	184.823	-0.062	-0.089
-123.224	44.359	-0.130	-0.116
-122.210	422.331	-0.117	0.244
-121.195	61.150	0.237	0.229
-120.180	-180.198	-0.345	-0.007
-119.166	-78.602	0.082	-0.027
-118.151	327.335	0.029	0.054
-117.137	-22.059	0.192	-0.113
-116.122	-200.000	0.028	-0.334
-115.107	328.385	0.041	0.077
-114.093	-131.381	-0.217	-0.028
-113.078	-104.279	0.142	-0.032
-112.064	800.000	-0.031	0.091
-111.049	7.711	-0.061	-0.045
-110.034	347.980	-0.268	0.513
-109.020	119.868	0.153	0.185
-108.005	165.431	0.146	0.200
-106.991	-131.764	-0.323	0.041
-105.976	35.136	0.085	0.073
-104.962	-200.000	0.012	0.104
-103.947	-84.918	0.082	0.025
-102.932	-136.139	-0.480	-0.055
-101.918	-200.000	0.072	-0.311
-100.903	-76.391	0.284	-0.097
-99.889	-32.646	0.154	-0.084
-98.874	-41.152	0.065	0.033
-97.859	-34.974	0.117	-0.062
-96.845	800.000	0.237	0.718
-95.830	146.683	0.213	-0.279
-94.816	17.689	-0.152	-0.117
-93.801	-106.349	0.329	-0.072
-92.786	34.986	0.201	0.171
-91.772	17.136	0.182	-0.141
-90.757	-180.010	-0.287	-0.006
-89.743	-28.846	0.234	0.131
-88.728	-200.000	0.021	-0.357
-87.713	-43.340	-0.278	-0.137
-86.699	-154.447	0.100	0.007
-85.684	-149.311	-0.279	-0.022
-84.670	-14.994	0.260	-0.162
-83.655	-5.168	0.144	0.097
-82.640	-200.000	0.052	0.236
-81.626	-171.468	-0.267	0.009
-80.611	-200.000	-0.030	-0.289
-79.597	-43.196	-0.126	-0.062
-78.582	-103.831	-0.191	-0.043
-77.567	340.422	-0.042	-0.079
-76.553	800.000	0.077	-0.240
-75.538	5.122	-0.237	-0.170
-74.524	4.677	0.065	-0.047
-73.509	-200.000	0.050	-0.245
-72.494	-74.870	0.036	-0.013
-71.480	50.210	-0.047	-0.043
-70.465	-165.491	0.126	-0.005
-69.451	-7.621	0.199	0.131
-68.436	89.166	0.054	-0.059
-67.422	-58.992	-0.163	-0.068
-66.407	-200.000	0.014	0.177
-65.392	-27.973	0.514	-0.289
-64.378	11.080	-0.131	0.097
-63.363	125.443	0.196	0.240
-62.349	-200.000	-0.022	0.406
-61.334	1.515	-1.525	-1.066
-60.319	60.970	0.923	0.890
-59.305	573.949	-0.473	-1.120
-58.290	302.522	0.907	1.630
-57.276	755.523	0.593	1.557
-56.261	-200.000	128.037	686.184
-55.246	413.011	1613.117	3329.820
-54.232	138.561	2776.825	3539.339
-53.217	90.337	2298.971	2497.154
-52.203	32.286	1900.808	1592.760
-51.188	26.141	1696.608	1374.960
-50.173	24.053	1657.592	1327.724
-49.159	46.183	1727.962	1553.814
-48.144	43.304	1739.160	1541.872
-47.130	25.691	1690.047	1366.010
-46.115	23.258	1674.306	1334.915
-45.100	23.060	1669.139	1329.250
-44.086	23.028	1666.865	1327.144
-43.071	23.059	1664.414	1325.371
-42.057	22.916	1662.668	1322.858
-41.042	22.967	1660.293	1321.298
-40.027	23.023	1658.435	1320.189
-39.013	23.005	1656.564	1318.512
-37.998	22.987	1654.997	1317.077
-36.984	22.979	1653.750	1315.971
-35.969	23.055	1652.758	1315.695
-34.954	23.150	1650.751	1314.756
-33.940	23.078	1648.625	1312.475
-32.925	23.029	1647.374	1311.065
-31.911	23.092	1645.502	1309.989
-30.896	23.159	1643.881	1309.143
-29.881	23.125	1642.551	1307.777
-28.867	23.109	1641.172	1306.509
-27.852	23.099	1639.541	1305.085
-26.838	23.049	1638.467	1303.813
-25.823	23.111	1636.727	1302.829
-24.809	23.165	1635.243	1301.993
-23.794	23.107	1634.175	1300.663
-22.779	23.122	1632.706	1299.559
-21.765	23.124	1630.976	1298.139
-20.750	23.140	1629.365	1296.928
-19.736	23.165	1628.400	1296.292
-18.721	23.188	1626.686	1295.039
-17.706	23.027	1625.509	1292.872
-16.692	23.082	1623.721	1291.804
-15.677	23.121	1622.514	1291.080
-14.663	23.186	1620.944	1290.251
-13.648	23.158	1619.831	1289.112
-12.633	23.132	1618.434	1287.755
-11.619	23.234	1616.410	1286.835
-10.604	23.140	1615.106	1285.062
-9.590	23.204	1614.079	1284.663
-8.575	23.212	1612.504	1283.414
-7.560	23.193	1611.594	1282.500
-6.546	23.109	1610.638	1281.084
-5.531	23.119	1609.486	1280.188
-4.517	23.146	1607.751	1278.955
-3.502	23.092	1607.024	1277.934
-2.487	23.163	1604.866	1276.676
-1.473	22.630	1592.628	1263.078
-0.458	19.360	1573.180	1224.421
0.556	14.642	1573.751	1191.207
1.571	12.230	1597.003	1191.212
2.586	11.908	1609.223	1197.867
3.600	11.199	1555.066	1152.434
4.615	6.535	1450.217	1043.816
5.629	1.771	1392.986	972.179
6.644	0.870	1386.485	961.832
7.659	0.719	1385.524	960.125
8.673	0.729	1384.822	959.613
9.688	0.702	1382.336	957.637
10.702	0.562	1378.461	953.983
11.717	2.989	1381.416	971.293
12.731	9.432	1391.197	1018.992
13.746	15.250	1400.240	1062.506
14.761	17.290	1402.186	1076.823
15.775	16.684	1400.621	1071.690
16.790	15.753	1397.676	1063.463
17.804	15.005	1395.475	1056.967
18.819	14.572	1394.597	1053.479
19.834	14.255	1393.258	1050.375
20.848	14.208	1391.440	1048.611
21.863	13.880	1390.623	1045.837
22.877	13.790	1389.049	1043.993
23.892	13.664	1388.431	1042.648
24.907	13.661	1387.638	1041.942
25.921	13.720	1386.232	1041.161
26.936	13.739	1385.519	1040.653
27.950	13.705	1384.840	1039.842
28.965	13.837	1383.197	1039.338
29.980	13.800	1382.634	1038.592
30.994	13.933	1381.364	1038.378
32.009	13.953	1380.512	1037.773
33.023	13.940	1379.348	1036.723
34.038	13.850	1378.286	1035.274
35.053	13.786	1377.062	1033.865
36.067	13.801	1376.310	1033.299
37.082	13.875	1374.554	1032.350
38.096	13.799	1374.294	1031.592
39.111	13.874	1373.135	1031.097
40.126	13.808	1372.818	1030.359
41.140	13.635	1371.912	1028.510
42.155	13.534	1371.703	1027.635
43.169	13.536	1371.399	1027.329
44.184	13.591	1371.169	1027.409
45.199	13.699	1370.357	1027.376
46.213	13.637	1370.249	1026.823
47.228	13.709	1369.053	1026.280
48.242	13.755	1367.820	1025.548
49.257	13.754	1365.954	1024.057
50.271	13.775	1364.672	1023.135
51.286	13.794	1363.551	1022.316
52.301	13.714	1361.963	1020.545
53.315	13.742	1361.214	1020.064
54.330	13.645	1359.830	1018.345
55.344	13.766	1358.640	1018.106
56.359	13.581	1357.940	1016.354
57.374	13.686	1356.909	1016.136
58.388	13.643	1356.083	1015.166
59.403	13.625	1355.623	1014.623
60.417	13.613	1354.960	1013.964
61.432	13.600	1354.031	1013.096
62.447	13.583	1353.356	1012.396
63.461	13.533	1352.053	1011.032
64.476	13.545	1350.747	1010.039
65.490	13.542	1349.585	1009.058
66.505	13.485	1348.482	1007.799
67.520	13.584	1347.065	1007.255
68.534	13.654	1346.060	1006.839
69.549	13.663	1344.486	1005.628
70.563	13.634	1343.593	1004.691
71.578	13.472	1342.590	1002.869
72.593	13.547	1341.772	1002.624
73.607	13.461	1340.474	1001.048
74.622	13.554	1339.971	1001.143
75.636	13.577	1339.353	1000.734
76.651	13.477	1338.540	999.433
77.666	13.566	1337.665	999.231
78.680	13.579	1337.102	998.801
79.695	13.612	1336.108	998.164
80.709	13.525	1335.641	997.208
81.724	13.563	1334.783	996.708
82.739	13.610	1334.030	996.334
83.753	13.735	1332.691	996.000
84.768	13.758	1331.480	995.148
85.782	13.777	1330.600	994.514
86.797	13.703	1329.310	993.017
87.812	13.615	1328.327	991.669
88.826	13.622	1326.946	990.592
89.841	13.603	1326.105	989.766
90.855	13.881	1324.334	990.010
91.870	13.841	1323.654	989.178
92.884	13.772	1322.962	988.160
93.899	13.765	1321.912	987.249
94.914	13.868	1321.350	987.354
95.928	13.898	1320.163	986.559
96.943	13.805	1319.566	985.469
97.957	13.806	1318.402	984.524
98.972	13.898	1317.037	983.960
99.987	13.827	1316.572	983.106
101.001	13.765	1315.586	981.915
102.016	13.816	1314.346	981.203
103.030	13.810	1313.536	980.478
104.045	13.831	1312.715	979.901
105.060	13.713	1311.535	978.239
106.074	13.735	1309.964	977.108
107.089	13.717	1308.917	976.138
108.103	13.622	1307.648	974.543
109.118	13.620	1306.626	973.688
110.133	13.714	1304.911	972.876
111.147	13.741	1303.666	972.017
112.162	13.669	1302.527	970.663
113.176	13.750	1301.232	970.081
114.191	13.692	1300.488	969.106
115.206	13.737	1299.410	968.480
116.220	13.828	1298.082	967.932
117.235	13.642	1297.396	966.249
118.249	13.745	1296.136	965.825
119.264	13.768	1294.781	964.868
120.279	13.762	1293.479	963.774
121.293	13.721	1292.790	962.937
122.308	13.674	1291.593	961.690
123.322	13.580	1291.077	960.677
124.337	13.762	1289.967	960.817
125.352	13.721	1288.225	959.199
126.366	13.719	1287.177	958.324
127.381	13.611	1286.292	956.955
128.395	13.753	1284.879	956.634
129.410	13.669	1284.118	955.503
130.424	13.679	1283.414	954.950
131.439	13.806	1282.293	954.765
132.454	13.681	1281.571	953.422
133.468	13.839	1280.153	953.192
134.483	13.799	1279.610	952.473
135.497	13.714	1278.641	951.182
136.512	13.665	1277.622	950.058
137.527	13.786	1276.123	949.553
138.541	13.769	1274.077	947.849
139.556	13.880	1272.988	947.587
140.570	13.840	1272.366	946.812
141.585	13.803	1271.213	945.657
142.600	13.873	1269.804	944.927
143.614	13.975	1268.937	944.779
144.629	13.917	1268.014	943.678
145.643	13.887	1266.697	942.445
146.658	13.797	1265.876	941.238
147.673	13.903	1263.751	940.172
148.687	13.918	1262.811	939.475
149.702	13.860	1261.937	938.417
150.716	13.864	1260.456	937.253
151.731	13.807	1259.436	936.089
152.746	13.866	1258.008	935.281
153.760	14.014	1256.363	934.808
154.775	13.978	1255.209	933.661
155.789	13.926	1254.608	932.840
156.804	13.977	1253.333	932.096
157.819	14.019	1252.865	931.900
158.833	14.050	1251.170	930.731
159.848	14.119	1250.399	930.464
160.862	14.122	1249.156	929.470
161.877	14.062	1248.244	928.376
162.892	14.082	1247.601	927.924
163.906	13.985	1246.844	926.741
164.921	14.009	1245.393	925.711
165.935	14.038	1244.410	925.065
166.950	14.047	1243.963	924.700
167.964	14.053	1243.051	923.971
168.979	14.127	1242.596	923.964
169.994	14.064	1242.081	923.149
171.008	14.018	1241.046	922.041
172.023	14.116	1240.457	922.067
173.037	14.149	1239.402	921.384
174.052	14.207	1238.233	920.757
175.067	14.002	1237.519	919.010
176.081	14.088	1236.316	918.509
177.096	14.135	1235.376	917.988
178.110	14.259	1234.187	917.707
179.125	14.104	1232.971	915.868
180.140	14.288	1231.753	915.897
181.154	14.204	1230.511	914.426
182.169	14.234	1229.085	913.452
183.183	14.203	1228.496	912.767
184.198	14.309	1227.129	912.247
185.213	14.346	1225.718	911.322
186.227	14.391	1224.749	910.766
187.242	14.428	1223.781	910.168
188.256	14.481	1222.922	909.737
189.271	14.374	1222.227	908.559
190.286	14.275	1220.812	906.885
191.300	14.291	1220.274	906.492
192.315	14.263	1219.552	905.722
193.329	14.270	1219.078	905.329
194.344	14.315	1218.074	904.747
195.359	14.252	1217.887	904.190
196.373	14.445	1216.701	904.272
197.388	14.393	1216.883	904.048
198.402	14.515	1215.969	903.951
199.417	14.505	1215.625	903.560
200.432	14.687	1213.787	903.097
201.446	14.579	1213.661	902.339
202.461	14.600	1213.017	901.893
203.475	14.619	1212.036	901.187
204.490	14.576	1210.737	899.910
205.504	14.559	1209.347	898.706
206.519	14.522	1208.047	897.462
207.534	14.625	1207.096	897.232
208.548	14.580	1205.832	895.971
209.563	14.528	1205.661	895.485
210.577	14.627	1204.585	895.138
211.592	14.584	1203.790	894.236
212.607	14.687	1202.931	894.070
213.621	14.736	1202.230	893.730
214.636	14.773	1201.066	892.984
215.650	14.693	1200.491	892.053
216.665	14.620	1199.524	890.864
217.680	14.817	1198.127	890.796
218.694	14.874	1197.337	890.436
219.709	14.829	1196.602	889.569
220.723	14.875	1195.666	889.040
221.738	14.904	1194.930	888.570
222.753	14.778	1194.622	887.594
223.767	14.878	1193.705	887.364
224.782	14.887	1193.040	886.840
225.796	14.933	1192.782	886.810
226.811	14.882	1191.950	885.846
227.826	14.834	1191.523	885.197
228.840	14.916	1190.216	884.579
229.855	14.950	1189.273	883.982
230.869	14.990	1188.695	883.682
231.884	14.948	1187.859	882.760
232.899	14.899	1187.049	881.824
233.913	14.862	1186.650	881.255
234.928	14.944	1185.688	880.893
235.942	14.898	1184.802	879.915
236.957	14.958	1184.101	879.630
237.972	14.985	1183.263	879.071
238.986	14.923	1182.648	878.213
240.001	14.953	1182.003	877.816
241.015	14.965	1180.882	876.965
242.030	15.059	1180.245	876.910
243.045	14.953	1179.643	875.827
244.059	14.969	1178.887	875.272
245.074	15.052	1177.801	874.824
246.088	15.140	1176.882	874.524
247.103	15.001	1176.446	873.398
248.117	15.144	1175.821	873.603
249.132	15.214	1174.869	873.183
250.147	15.279	1173.795	872.643
251.161	15.242	1173.461	872.128
252.176	15.262	1172.908	871.743
253.190	15.238	1172.044	870.898
254.205	15.364	1171.429	871.015
255.220	15.378	1170.742	870.502
256.234	15.336	1170.308	869.885
257.249	15.400	1169.769	869.738
258.263	15.358	1168.988	868.863
259.278	15.411	1167.882	868.238
260.293	15.430	1167.580	868.035
261.307	15.457	1166.997	867.664
262.322	15.599	1166.043	867.613
263.336	15.546	1165.474	866.838
264.351	15.514	1164.984	866.231
265.366	15.630	1163.889	865.941
266.380	15.573	1163.351	865.170
267.395	15.691	1162.382	864.981
268.409	15.589	1161.771	863.924
269.424	15.586	1161.433	863.579
270.439	15.537	1161.126	863.025
271.453	15.586	1159.950	862.326
272.468	15.649	1158.742	861.673
273.482	15.641	1157.834	860.883
274.497	15.661	1158.167	861.154
275.512	15.677	1156.867	860.193
276.526	15.631	1156.461	859.582
277.541	15.613	1155.633	858.795
278.555	15.721	1154.814	858.665
279.570	15.815	1153.947	858.423
280.585	15.669	1153.265	857.098
281.599	15.799	1152.578	857.174
282.614	15.827	1151.158	856.180
283.628	15.822	1150.366	855.493
284.643	15.791	1149.353	854.503
285.657	15.706	1148.092	853.062
286.672	15.790	1147.501	852.972
287.687	15.883	1146.970	852.974
288.701	15.884	1145.646	851.917
289.716	15.883	1145.106	851.438
290.730	15.961	1144.274	851.137
291.745	15.974	1143.738	850.730
292.760	15.914	1143.480	850.157
293.774	16.048	1142.343	849.914
294.789	16.030	1141.686	849.259
295.803	16.024	1141.003	848.646
296.818	16.074	1140.304	848.304
297.833	16.008	1139.855	847.562
298.847	15.971	1139.142	846.770
299.862	16.001	1138.335	846.247
300.876	16.022	1137.647	845.766
301.891	16.121	1136.703	845.483
302.906	16.063	1136.629	845.065
303.920	16.063	1135.550	844.184
304.935	16.200	1134.685	844.156
305.949	16.223	1134.439	844.009
306.964	16.187	1133.473	843.036
307.979	16.132	1132.749	842.151
308.993	16.266	1131.681	841.952
310.008	16.264	1130.856	841.253
311.022	16.275	1130.248	840.781
312.037	16.263	1129.464	840.065
313.052	16.240	1128.432	839.107
314.066	16.216	1127.789	838.437
315.081	16.225	1127.049	837.854
316.095	16.283	1125.681	837.054
317.110	16.346	1125.360	837.050
318.125	16.226	1124.807	835.970
319.139	16.327	1123.931	835.749
320.154	16.334	1122.976	834.995
321.168	16.198	1123.040	834.297
322.183	16.274	1122.343	834.083
323.197	16.367	1121.607	833.919
324.212	16.388	1121.000	833.501
325.227	16.393	1120.585	833.141
326.241	16.373	1119.712	832.321
327.256	16.378	1118.832	831.619
328.270	16.407	1118.144	831.175
329.285	16.389	1116.996	830.157
330.300	16.338	1116.234	829.271
331.314	16.464	1115.066	828.946
332.329	16.460	1113.959	828.030
333.343	16.611	1112.829	827.854
334.358	16.459	1112.552	826.835
335.373	16.544	1111.956	826.735
336.387	16.453	1111.245	825.685
337.402	16.543	1110.514	825.507
338.416	16.609	1109.688	825.142
339.431	16.605	1108.952	824.503
340.446	16.604	1108.518	824.106
341.460	16.545	1108.108	823.440
342.475	16.667	1106.983	823.124
343.489	16.767	1105.970	822.784
344.504	16.654	1105.118	821.527
345.519	16.807	1103.894	821.288
346.533	16.844	1103.396	821.024
347.548	16.858	1102.588	820.415
348.562	16.856	1101.642	819.631
349.577	16.911	1101.053	819.385
350.592	16.821	1100.336	818.345
351.606	16.838	1099.853	817.996
352.621	16.829	1098.771	817.075
353.635	16.789	1098.129	816.334
354.650	16.724	1097.605	815.559
355.665	16.866	1096.811	815.577
356.679	16.873	1096.042	814.968
357.694	16.806	1095.735	814.349
358.708	16.858	1094.988	813.970
359.723	17.018	1093.978	813.913
360.738	16.965	1093.413	813.165
361.752	16.824	1093.054	812.152
362.767	17.030	1092.294	812.502
363.781	17.068	1091.876	812.303
364.796	17.022	1091.164	811.480
365.810	17.092	1090.886	811.534
366.825	17.166	1090.123	811.250
367.840	17.039	1089.387	810.024
368.854	17.113	1088.825	809.889
369.869	17.196	1088.305	809.826
370.883	17.290	1086.893	809.150
371.898	17.220	1086.128	808.178
372.913	17.070	1086.040	807.325
373.927	17.044	1085.817	806.962
374.942	17.276	1084.759	807.210
375.956	17.211	1084.299	806.488
376.971	17.254	1083.358	805.919
377.986	17.342	1082.830	805.874
379.000	17.379	1082.292	805.576
380.015	17.343	1082.160	805.237
381.029	17.361	1081.177	804.518
382.044	17.423	1080.234	804.037
383.059	17.389	1079.892	803.550
384.073	17.483	1078.926	803.206
385.088	17.458	1077.996	802.326
386.102	17.463	1077.436	801.860
387.117	17.361	1076.521	800.630
388.132	17.449	1075.065	799.887
389.146	17.435	1074.425	799.275
390.161	17.543	1073.543	799.054
391.175	17.441	1072.869	798.004
392.190	17.520	1072.363	797.930
393.205	17.500	1072.057	797.534
394.219	17.493	1071.211	796.805
395.234	17.532	1070.316	796.251
396.248	17.518	1069.003	795.139
397.263	17.630	1067.702	794.623
398.278	17.526	1067.589	793.982
399.292	17.502	1066.875	793.271
400.307	17.507	1066.362	792.842
401.321	17.561	1065.781	792.590
402.336	17.458	1065.043	791.492
403.350	17.540	1064.368	791.300
404.365	17.503	1063.797	790.636
405.380	17.594	1062.652	790.137
406.394	17.612	1062.316	789.898
407.409	17.600	1061.492	789.161
408.423	17.715	1060.732	789.057
409.438	17.836	1060.015	789.017
410.453	17.825	1059.039	788.167
411.467	17.810	1058.431	787.577
412.482	17.803	1057.950	787.116
413.496	17.823	1057.111	786.515
414.511	17.889	1056.289	786.140
415.526	17.981	1056.220	786.441
416.540	17.878	1056.069	785.786
417.555	17.940	1055.591	785.646
418.569	17.980	1054.710	785.103
419.584	17.963	1054.262	784.621
420.599	17.993	1053.639	784.226
421.613	110.104	1330.810	1491.860
422.628	101.509	1371.141	1491.956
