DTS Sentinel unit serial number:	SN413079Multiplexer serial number:	ORYXHardware model number:	OX4-SRSoftware version number:	ORYX F/W v4.00 Oryx Data Collector v3.7.2.0data status	okinstallation	princeton_trtdifferential loss correction	single-endedforward channel	channel 2reverse channel	N/Adate	2019/09/10time	20:37:11forward acquisition time	60.00reverse acquisition time	0.00gamma	496.2192k internal	0.2330k external	0.2330temperature offset calibration	0.9947default loss term (dB/km)	0.3790temperature slope calibration	1.0000multiplexer offset coefficient	1.0000multiplexer slope coefficient	1.0000fibre end	0.00T internal ref (°C)	31.94T ext. ref 1 (°C)	-0.31T ext. ref 2 (°C)	25.17length (m)	temperature (°C)	Stokes	anti-Stokes-747.200	-200.000	-0.030	0.146
-746.185	-149.431	-0.151	0.012
-745.171	44.098	0.231	0.214
-744.156	656.086	-0.056	0.145
-743.142	162.332	-0.180	-0.253
-742.127	-121.226	0.063	-0.011
-741.112	325.285	0.093	0.179
-740.098	589.845	-0.013	-0.032
-739.083	-130.919	0.125	-0.017
-738.069	164.578	-0.167	0.238
-737.054	-100.524	0.106	-0.026
-736.039	798.609	-0.113	-0.314
-735.025	-200.000	-0.025	0.196
-734.010	-200.000	0.056	-0.419
-732.996	65.920	-0.212	-0.217
-731.981	260.295	0.073	-0.128
-730.966	-200.000	-0.016	-0.117
-729.952	351.208	-0.027	-0.053
-728.937	-119.750	-0.254	-0.044
-727.923	453.158	-0.074	0.166
-726.908	-141.168	0.016	-0.002
-725.894	40.863	-0.240	0.218
-724.879	800.000	0.045	-0.150
-723.864	-98.098	-0.183	-0.047
-722.850	-200.000	0.015	-0.119
-721.835	59.949	-0.151	-0.150
-720.821	98.849	-0.121	-0.140
-719.806	66.370	0.261	-0.267
-718.791	800.000	0.066	-0.214
-717.777	-152.253	-0.329	0.024
-716.762	-26.475	0.363	0.214
-715.748	-104.403	0.134	0.031
-714.733	-200.000	0.002	-0.147
-713.718	-143.569	0.168	0.016
-712.704	16.091	-0.262	0.208
-711.689	609.255	-0.059	-0.148
-710.675	242.260	0.289	-0.487
-709.660	324.270	0.094	-0.181
-708.645	-38.349	-0.061	0.032
-707.631	800.000	0.047	-0.155
-706.616	151.171	-0.237	-0.324
-705.602	94.748	-0.092	-0.105
-704.587	-134.046	0.467	-0.058
-703.572	71.875	0.124	-0.129
-702.558	-200.000	-0.002	-0.178
-701.543	-200.000	0.001	0.126
-700.529	32.860	0.147	0.128
-699.514	317.782	-0.085	-0.163
-698.499	-86.798	-0.185	-0.057
-697.485	-147.337	-0.226	-0.019
-696.470	256.925	0.142	-0.246
-695.456	-20.346	0.059	-0.036
-694.441	-200.000	-0.005	-0.379
-693.426	393.872	0.189	-0.396
-692.412	-200.000	-0.015	-0.068
-691.397	-142.541	-0.257	-0.025
-690.383	6.444	-0.245	-0.183
-689.368	-200.000	-0.014	0.170
-688.354	561.149	0.003	-0.007
-687.339	-33.331	-0.137	0.076
-686.324	-119.728	0.224	0.039
-685.310	252.128	-0.261	-0.446
-684.295	-71.124	0.102	0.038
-683.281	-17.721	-0.295	-0.186
-682.266	-125.730	0.360	-0.055
-681.251	-104.181	0.301	-0.070
-680.237	171.735	0.095	-0.136
-679.222	-21.895	-0.154	-0.094
-678.208	-149.125	0.107	-0.009
-677.193	151.153	0.142	0.194
-676.178	6.901	0.298	0.223
-675.164	-149.273	0.239	0.019
-674.149	-74.885	-0.045	-0.016
-673.135	-105.416	0.112	-0.026
-672.120	111.969	0.110	0.133
-671.105	25.881	-0.150	-0.125
-670.091	800.000	0.083	-0.267
-669.076	369.847	-0.065	-0.131
-668.062	564.799	-0.080	-0.195
-667.047	-200.000	0.014	0.168
-666.032	-90.580	-0.042	0.012
-665.018	27.694	-0.169	-0.143
-664.003	90.037	0.079	-0.089
-662.989	-20.315	0.309	-0.191
-661.974	47.526	-0.255	0.238
-660.959	-121.764	0.355	0.059
-659.945	-200.000	-0.009	-0.052
-658.930	288.081	0.043	-0.078
-657.916	-200.000	0.054	0.250
-656.901	-24.593	0.212	0.126
-655.886	-200.000	-0.038	0.205
-654.872	-200.000	-0.001	-0.403
-653.857	-200.000	0.024	0.134
-652.843	142.678	0.143	-0.191
-651.828	30.225	-0.268	-0.230
-650.814	144.701	0.089	-0.119
-649.799	-200.000	0.023	-0.372
-648.784	143.050	0.006	0.008
-647.770	-200.000	0.011	0.350
-646.755	83.241	-0.225	0.246
-645.741	-76.339	0.296	-0.104
-644.726	-200.000	0.004	0.054
-643.711	-54.594	-0.274	0.124
-642.697	-58.809	0.139	0.060
-641.682	655.042	-0.046	0.119
-640.668	800.000	0.075	-0.245
-639.653	56.955	0.089	0.087
-638.638	336.544	-0.059	0.116
-637.624	-200.000	-0.005	-0.164
-636.609	-93.703	-0.049	0.014
-635.595	-26.774	-0.237	-0.139
-634.580	-119.929	0.566	0.098
-633.565	-200.000	-0.014	-0.259
-632.551	-2.243	0.122	0.086
-631.536	-98.165	0.247	0.064
-630.522	-200.000	0.085	-0.375
-629.507	-84.616	0.286	-0.090
-628.492	20.450	-0.076	-0.062
-627.478	-98.948	0.188	0.048
-626.463	-105.823	0.409	0.093
-625.449	-200.000	-0.019	-0.461
-624.434	-57.848	-0.296	0.130
-623.419	646.701	-0.130	-0.333
-622.405	114.723	-0.110	0.135
-621.390	-120.518	-0.162	0.028
-620.376	23.092	0.163	0.134
-619.361	-130.709	-0.064	-0.009
-618.346	531.430	0.070	0.167
-617.332	-200.000	0.003	-0.305
-616.317	53.064	-0.076	0.073
-615.303	-121.065	0.299	0.050
-614.288	-200.000	-0.075	0.351
-613.273	-200.000	-0.064	-0.309
-612.259	40.422	-0.126	-0.114
-611.244	50.635	-0.312	-0.296
-610.230	342.551	-0.182	-0.356
-609.215	100.932	0.131	0.152
-608.201	-159.291	0.345	-0.019
-607.186	546.782	0.115	-0.274
-606.171	800.000	0.133	0.380
-605.157	147.675	-0.079	-0.107
-604.142	-114.162	0.109	-0.021
-603.128	265.832	-0.103	-0.181
-602.113	152.458	-0.205	-0.280
-601.098	399.248	-0.138	-0.290
-600.084	119.338	-0.169	-0.210
-599.069	-113.912	0.165	0.032
-598.055	-105.262	0.305	0.070
-597.040	-11.784	-0.132	-0.087
-596.025	-200.000	-0.022	0.171
-595.011	-114.370	-0.103	0.020
-593.996	-104.992	0.184	-0.042
-592.982	232.543	0.136	-0.224
-591.967	-87.774	-0.363	-0.110
-590.952	-41.775	0.099	0.051
-589.938	-27.033	0.041	-0.024
-588.923	273.526	0.072	-0.128
-587.909	-17.302	0.079	-0.050
-586.894	800.000	-0.025	0.081
-585.879	800.000	0.116	0.334
-584.865	-72.855	-0.059	-0.022
-583.850	65.035	-0.173	-0.175
-582.836	-62.886	-0.382	-0.158
-581.821	-159.703	0.105	0.006
-580.806	-29.480	0.283	0.162
-579.792	-136.926	0.173	0.020
-578.777	-133.710	-0.358	-0.045
-577.763	133.375	0.112	-0.145
-576.748	-200.000	-0.004	0.055
-575.733	800.000	0.028	-0.118
-574.719	-34.676	0.259	-0.142
-573.704	-200.000	0.040	-0.285
-572.690	167.726	-0.089	-0.127
-571.675	-130.788	0.128	-0.017
-570.661	-166.747	-0.188	-0.008
-569.646	-200.000	-0.003	0.149
-568.631	-200.000	0.024	0.106
-567.617	-103.895	-0.047	-0.011
-566.602	64.732	-0.116	0.117
-565.588	-93.543	-0.224	0.062
-564.573	-61.798	0.588	0.246
-563.558	-107.613	-0.170	0.037
-562.544	406.577	0.093	-0.197
-561.529	-131.625	-0.195	0.026
-560.515	-200.000	-0.005	-0.056
-559.500	86.100	0.124	-0.136
-558.485	-110.946	-0.304	0.062
-557.471	423.722	0.119	-0.255
-556.456	352.417	0.166	0.328
-555.442	232.472	0.191	-0.314
-554.427	800.000	0.013	-0.043
-553.412	-116.580	-0.146	0.027
-552.398	800.000	-0.093	-0.276
-551.383	-64.475	0.134	-0.054
-550.369	390.249	0.059	-0.122
-549.354	-110.535	-0.179	0.037
-548.339	393.877	-0.154	-0.320
-547.325	-36.438	-0.077	-0.041
-546.310	-61.181	0.034	-0.014
-545.296	-38.862	-0.310	0.163
-544.281	-200.000	0.010	-0.083
-543.266	-119.156	-0.110	0.019
-542.252	-17.610	-0.409	-0.257
-541.237	84.625	-0.100	0.109
-540.223	-200.000	0.002	-0.059
-539.208	134.515	-0.020	-0.026
-538.193	130.187	-0.061	-0.078
-537.179	-66.768	0.079	-0.031
-536.164	800.000	-0.094	-0.384
-535.150	-200.000	0.003	0.141
-534.135	87.505	0.307	0.340
-533.121	-160.419	-0.352	0.019
-532.106	-186.777	-0.060	0.001
-531.091	-126.930	0.291	0.043
-530.077	-200.000	0.003	-0.205
-529.062	-130.845	0.361	0.048
-528.048	-200.000	-0.062	0.350
-527.033	-119.906	0.318	-0.055
-526.018	-69.522	-0.402	0.154
-525.004	-200.000	-0.055	0.503
-523.989	26.110	0.057	0.048
-522.975	-65.734	-0.100	0.040
-521.960	192.633	-0.034	-0.052
-520.945	27.606	0.128	-0.107
-519.931	-79.395	-0.126	-0.042
-518.916	-61.120	-0.147	0.062
-517.902	-200.000	-0.034	0.331
-516.887	-191.365	0.159	-0.002
-515.872	-14.812	-0.276	0.177
-514.858	-43.656	-0.153	-0.077
-513.843	-57.778	0.017	-0.007
-512.829	-200.000	-0.030	0.135
-511.814	-139.823	0.037	0.004
-510.799	-120.021	-0.093	-0.016
-509.785	235.961	-0.176	0.290
-508.770	-200.000	0.034	0.175
-507.756	87.971	0.158	0.175
-506.741	-200.000	-0.014	0.069
-505.726	-79.057	-0.529	0.179
-504.712	-51.978	-0.242	-0.112
-503.697	122.599	-0.303	0.378
-502.683	-141.576	0.212	0.021
-501.668	375.900	0.026	0.054
-500.653	786.346	-0.037	0.102
-499.639	-4.859	-0.234	-0.161
-498.624	85.628	0.248	0.271
-497.610	146.598	0.107	0.144
-496.595	222.034	-0.078	-0.126
-495.581	-200.000	0.057	0.338
-494.566	596.031	0.051	-0.126
-493.551	95.138	0.030	0.034
-492.537	-200.000	0.018	0.185
-491.522	-31.018	0.164	0.092
-490.508	-154.410	0.195	0.013
-489.493	78.182	-0.286	-0.305
-488.478	151.718	0.122	0.165
-487.464	800.000	-0.094	0.276
-486.449	72.811	-0.294	-0.305
-485.435	-200.000	-0.059	-0.311
-484.420	-54.633	0.029	-0.013
-483.405	-200.000	-0.037	-0.296
-482.391	13.074	0.150	-0.116
-481.376	566.806	-0.035	0.085
-480.362	-48.898	-0.202	0.097
-479.347	132.591	-0.214	0.275
-478.332	54.473	-0.179	0.172
-477.318	782.260	0.219	0.598
-476.303	-200.000	-0.036	0.425
-475.289	-55.950	-0.211	-0.094
-474.274	800.000	-0.067	0.271
-473.259	408.581	0.080	0.168
-472.245	-18.534	0.241	0.150
-471.230	800.000	0.102	-0.307
-470.216	-200.000	0.012	-0.153
-469.201	-94.888	0.297	0.080
-468.186	290.827	0.081	0.147
-467.172	788.696	0.048	0.130
-466.157	1.635	-0.276	0.198
-465.143	219.193	0.044	0.071
-464.128	137.765	-0.028	-0.036
-463.113	-125.039	0.255	0.039
-462.099	-162.402	0.150	0.007
-461.084	-1.018	0.143	0.101
-460.070	-95.366	-0.514	0.138
-459.055	-200.000	-0.081	0.453
-458.040	-176.875	-0.060	0.002
-457.026	-200.000	0.062	0.381
-456.011	-200.000	0.034	0.168
-454.997	99.203	0.141	-0.162
-453.982	69.134	0.378	-0.387
-452.968	800.000	0.147	0.437
-451.953	-200.000	0.013	-0.122
-450.938	12.738	0.107	-0.082
-449.924	800.000	0.043	-0.184
-448.909	327.507	-0.097	-0.185
-447.895	84.407	-0.125	-0.136
-446.880	0.671	-0.084	-0.060
-445.865	-200.000	-0.018	-0.301
-444.851	-73.704	0.124	0.045
-443.836	213.932	-0.066	-0.104
-442.822	-132.363	-0.351	0.045
-441.807	800.000	-0.090	-0.296
-440.792	-128.886	0.254	-0.035
-439.778	-66.344	0.180	0.071
-438.763	-200.000	0.057	0.294
-437.749	800.000	-0.046	0.198
-436.734	74.878	-0.123	-0.129
-435.719	224.803	0.117	-0.188
-434.705	-62.802	0.112	-0.046
-433.690	-12.960	-0.158	-0.102
-432.676	800.000	0.065	-0.257
-431.661	-39.040	-0.582	-0.305
-430.646	800.000	-0.039	-0.117
-429.632	390.565	-0.102	-0.210
-428.617	105.431	0.128	0.151
-427.603	-11.756	-0.139	-0.091
-426.588	47.652	-0.064	0.059
-425.573	23.731	0.289	-0.236
-424.559	800.000	0.064	-0.231
-423.544	-156.500	-0.245	0.015
-422.530	-62.290	-0.096	0.040
-421.515	-64.556	0.243	0.098
-420.500	-200.000	0.001	-0.163
-419.486	-200.000	0.000	-0.033
-418.471	685.140	0.072	0.188
-417.457	12.162	-0.132	-0.101
-416.442	-29.634	0.163	-0.092
-415.428	3.969	0.040	-0.029
-414.413	-44.799	-0.037	-0.018
-413.398	304.039	0.094	-0.173
-412.384	47.636	-0.173	0.161
-411.369	800.000	0.160	0.514
-410.355	-196.697	0.209	-0.001
-409.340	-59.904	-0.180	-0.077
-408.325	115.448	0.244	0.297
-407.311	216.505	-0.142	-0.224
-406.296	115.786	-0.089	-0.108
-405.282	473.608	0.080	0.179
-404.267	13.156	0.080	0.062
-403.252	19.599	-0.208	0.166
-402.238	394.857	0.094	0.195
-401.223	-158.353	0.285	0.016
-400.209	173.458	-0.051	-0.072
-399.194	-114.400	0.115	-0.022
-398.179	-43.596	-0.039	0.020
-397.165	-117.942	-0.061	0.011
-396.150	-56.077	-0.088	-0.039
-395.136	-200.000	0.023	0.110
-394.121	94.370	-0.060	-0.067
-393.106	169.137	0.198	0.281
-392.092	11.562	-0.236	-0.180
-391.077	-70.294	-0.396	0.149
-390.063	-150.351	-0.325	0.025
-389.048	-145.832	-0.279	-0.025
-388.033	800.000	-0.033	-0.117
-387.019	134.045	0.123	-0.158
-386.004	-64.835	-0.357	-0.144
-384.990	-25.778	0.032	0.019
-383.975	-200.000	-0.017	0.076
-382.960	-200.000	0.005	0.425
-381.946	-143.405	0.204	0.019
-380.931	573.371	-0.031	-0.075
-379.917	31.491	0.015	0.013
-378.902	-200.000	-0.012	0.059
-377.888	-200.000	0.034	0.149
-376.873	-5.132	-0.123	-0.084
-375.858	-200.000	0.027	-0.127
-374.844	81.149	0.118	-0.126
-373.829	72.201	0.084	-0.087
-372.815	39.728	-0.275	0.244
-371.800	-200.000	0.057	0.271
-370.785	71.365	0.373	-0.384
-369.771	-53.970	-0.283	0.128
-368.756	792.318	-0.050	-0.137
-367.742	182.591	0.183	0.269
-366.727	-146.530	-0.201	-0.017
-365.712	113.286	-0.134	-0.162
-364.698	-86.829	0.231	0.070
-363.683	-200.000	-0.020	-0.307
-362.669	-200.000	-0.009	-0.287
-361.654	559.584	0.073	0.174
-360.639	-64.450	-0.587	0.237
-359.625	-12.408	-0.081	-0.053
-358.610	355.658	0.085	-0.168
-357.596	61.108	0.084	0.082
-356.581	-78.395	0.182	-0.062
-355.566	800.000	-0.024	-0.086
-354.552	-70.477	-0.057	0.021
-353.537	-200.000	-0.007	-0.037
-352.523	-125.739	0.274	0.041
-351.508	-144.190	0.411	0.038
-350.493	307.368	0.063	0.116
-349.479	-139.368	0.117	-0.013
-348.464	-121.881	0.340	0.056
-347.450	-76.635	-0.214	0.074
-346.435	800.000	-0.072	-0.216
-345.420	44.834	0.329	0.300
-344.406	-150.920	-0.255	-0.019
-343.391	197.755	0.119	-0.180
-342.377	-95.421	0.179	-0.048
-341.362	16.267	-0.231	-0.181
-340.348	182.871	0.170	0.249
-339.333	340.561	-0.038	0.074
-338.318	-55.052	-0.361	-0.161
-337.304	46.997	0.043	0.039
-336.289	800.000	-0.075	0.275
-335.275	-200.000	0.038	-0.246
-334.260	800.000	0.017	-0.047
-333.245	85.718	0.198	-0.215
-332.231	-55.362	0.156	0.070
-331.216	-90.691	-0.482	-0.138
-330.202	2.917	-0.030	0.022
-329.187	-6.317	-0.156	0.106
-328.172	-143.768	-0.198	0.019
-327.158	12.459	-0.118	-0.090
-326.143	-25.067	-0.087	-0.051
-325.129	-200.000	0.004	0.046
-324.114	169.685	0.039	-0.056
-323.099	-43.665	0.301	-0.150
-322.085	-108.034	0.240	0.052
-321.070	-200.000	-0.015	0.095
-320.056	19.886	0.198	-0.158
-319.041	304.717	0.122	-0.225
-318.026	-91.573	-0.472	-0.133
-317.012	-200.000	-0.002	-0.038
-315.997	60.340	0.108	0.106
-314.983	0.703	-0.240	0.170
-313.968	76.606	-0.053	0.056
-312.953	-200.000	-0.036	-0.188
-311.939	-200.000	-0.000	-0.088
-310.924	446.810	0.080	0.173
-309.910	165.948	0.181	0.253
-308.895	-200.000	-0.009	0.077
-307.880	-59.765	-0.116	0.049
-306.866	-4.382	0.095	-0.065
-305.851	-200.000	0.016	-0.176
-304.837	105.078	0.243	-0.284
-303.822	86.078	-0.107	-0.117
-302.807	-200.000	0.008	-0.132
-301.793	-143.037	-0.143	0.014
-300.778	163.528	0.227	-0.316
-299.764	164.137	-0.164	-0.228
-298.749	-133.812	0.117	-0.014
-297.735	-64.663	-0.285	-0.114
-296.720	-137.404	0.286	-0.032
-295.705	-47.467	-0.140	0.067
-294.691	-200.000	0.018	0.116
-293.676	315.610	-0.149	-0.278
-292.662	-54.274	-0.319	-0.143
-291.647	7.421	0.133	-0.098
-290.632	800.000	-0.027	-0.082
-289.618	282.278	-0.170	0.302
-288.603	-200.000	-0.002	-0.100
-287.589	-25.560	0.200	-0.117
-286.574	-200.000	0.015	-0.161
-285.559	63.959	-0.160	0.159
-284.545	270.816	0.177	-0.307
-283.530	-59.331	-0.303	0.129
-282.516	-200.000	0.008	0.211
-281.501	264.019	-0.109	-0.188
-280.486	-103.687	-0.180	-0.042
-279.472	-111.569	0.450	0.090
-278.457	39.112	0.215	-0.190
-277.443	-200.000	0.019	0.106
-276.428	-200.000	0.007	0.309
-275.413	-200.000	0.028	-0.134
-274.399	-178.947	0.122	-0.003
-273.384	42.861	-0.095	-0.085
-272.370	-50.869	-0.078	0.036
-271.355	257.165	-0.130	0.221
-270.340	257.485	-0.179	0.305
-269.326	118.395	-0.153	0.187
-268.311	-43.514	-0.251	0.125
-267.297	-60.557	-0.240	0.101
-266.282	800.000	0.092	0.344
-265.267	-34.716	0.207	0.112
-264.253	-200.000	-0.065	-0.419
-263.238	21.124	0.165	-0.132
-262.224	800.000	-0.073	0.236
-261.209	-62.170	0.413	-0.170
-260.195	800.000	-0.017	0.059
-259.180	9.473	0.145	0.108
-258.165	-74.714	0.161	0.057
-257.151	800.000	-0.033	-0.135
-256.136	-116.545	-0.265	-0.048
-255.122	57.521	0.097	0.093
-254.107	-200.000	-0.009	0.338
-253.092	70.215	0.118	-0.120
-252.078	47.025	0.132	0.122
-251.063	-185.383	-0.233	-0.004
-250.049	-200.000	0.008	0.044
-249.034	-71.353	0.226	-0.083
-248.019	73.226	0.196	0.202
-247.005	-169.731	-0.105	0.004
-245.990	-96.382	0.246	0.064
-244.976	-63.645	-0.172	0.070
-243.961	-32.806	0.380	-0.208
-242.946	-200.000	0.098	0.000
-241.932	-52.320	0.123	-0.056
-240.917	37.884	0.086	0.075
-239.903	-200.000	-0.009	-0.172
-238.888	-90.613	-0.096	-0.027
-237.873	-85.665	-0.305	-0.093
-236.859	-58.057	0.109	0.047
-235.844	-85.294	0.298	-0.092
-234.830	609.014	0.033	0.081
-233.815	800.000	0.037	-0.158
-232.800	273.220	-0.027	0.048
-231.786	25.629	-0.220	0.181
-230.771	-80.154	-0.210	-0.069
-229.757	-200.000	0.002	-0.155
-228.742	13.840	-0.385	-0.296
-227.727	-200.000	0.005	-0.155
-226.713	16.502	-0.163	-0.127
-225.698	512.091	0.029	-0.067
-224.684	48.370	0.358	-0.331
-223.669	-114.089	-0.040	-0.008
-222.655	-126.390	0.260	-0.038
-221.640	-111.064	0.113	0.023
-220.625	-79.281	0.336	0.112
-219.611	-10.832	0.059	-0.038
-218.596	-30.988	0.268	0.149
-217.582	-4.386	-0.062	-0.042
-216.567	-161.876	0.222	-0.011
-215.552	-200.000	-0.054	-0.566
-214.538	-112.584	-0.258	-0.051
-213.523	-43.523	-0.109	-0.054
-212.509	74.152	0.161	0.166
-211.494	-200.000	-0.029	0.179
-210.479	-111.653	0.187	-0.037
-209.465	-131.070	-0.172	-0.023
-208.450	502.486	0.019	0.044
-207.436	122.978	0.110	-0.136
-206.421	415.464	-0.048	0.101
-205.406	-13.568	-0.291	0.186
-204.392	-48.521	-0.290	-0.138
-203.377	800.000	0.073	0.293
-202.363	-59.624	0.220	-0.093
-201.348	30.599	0.134	-0.113
-200.333	-200.000	-0.033	0.237
-199.319	257.586	-0.140	0.238
-198.304	-200.000	0.031	-0.205
-197.290	800.000	0.122	0.410
-196.275	-92.287	-0.138	0.038
-195.260	-200.000	-0.003	0.224
-194.246	-200.000	-0.027	0.136
-193.231	455.832	-0.170	0.371
-192.217	-55.702	-0.228	-0.101
-191.202	-200.000	0.053	0.341
-190.187	800.000	0.051	-0.139
-189.173	102.951	0.211	-0.243
-188.158	-114.965	-0.126	0.024
-187.144	-48.166	0.148	-0.070
-186.129	53.339	-0.088	0.083
-185.114	-165.753	0.193	-0.008
-184.100	-14.261	0.089	-0.056
-183.085	295.143	-0.090	-0.161
-182.071	105.454	0.217	0.252
-181.056	-200.000	-0.059	0.378
-180.042	-200.000	0.014	0.174
-179.027	-200.000	0.007	0.138
-178.012	328.190	-0.109	-0.207
-176.998	800.000	-0.123	0.348
-175.983	-62.302	-0.205	-0.084
-174.969	-97.463	0.159	-0.041
-173.954	-73.613	0.034	-0.012
-172.939	-92.202	-0.293	-0.081
-171.925	800.000	0.051	0.181
-170.910	-109.698	0.267	0.055
-169.896	-76.047	0.340	0.118
-168.881	679.961	0.088	0.226
-167.866	-200.000	-0.052	-0.232
-166.852	-14.286	-0.073	0.046
-165.837	79.890	0.290	-0.307
-164.823	800.000	0.042	0.121
-163.808	-134.381	-0.134	0.016
-162.793	80.232	0.131	-0.138
-161.779	800.000	-0.094	0.302
-160.764	-18.322	0.093	0.057
-159.750	-25.067	0.316	0.184
-158.735	294.488	0.147	-0.264
-157.720	419.443	0.098	-0.206
-156.706	171.847	-0.171	-0.241
-155.691	201.816	-0.072	-0.109
-154.677	264.756	0.013	0.023
-153.662	143.562	-0.033	-0.043
-152.647	-86.878	-0.102	0.031
-151.633	573.302	-0.016	-0.039
-150.618	-200.000	-0.080	0.397
-149.604	21.693	0.221	0.177
-148.589	-200.000	0.001	-0.244
-147.574	-91.853	-0.387	0.108
-146.560	-200.000	0.001	-0.195
-145.545	-34.514	-0.104	-0.056
-144.531	69.206	-0.230	0.233
-143.516	-140.687	0.337	0.034
-142.502	241.504	-0.136	-0.224
-141.487	-141.700	-0.112	-0.011
-140.472	-200.000	-0.026	0.119
-139.458	-63.126	0.227	0.092
-138.443	373.620	-0.046	0.092
-137.429	21.660	-0.139	0.111
-136.414	-152.542	0.119	0.008
-135.399	-200.000	-0.037	-0.205
-134.385	-132.223	0.439	0.056
-133.370	144.327	0.165	0.216
-132.356	66.542	0.368	-0.368
-131.341	51.739	0.192	0.179
-130.326	-200.000	-0.015	-0.267
-129.312	-70.724	0.368	-0.137
-128.297	445.137	0.210	0.453
-127.283	155.126	-0.320	0.433
-126.268	29.301	0.075	-0.063
-125.253	-66.015	0.396	-0.155
-124.239	2.859	-0.270	-0.193
-123.224	800.000	0.119	-0.451
-122.210	174.379	-0.168	0.239
-121.195	464.156	0.076	0.168
-120.180	-151.768	0.112	-0.008
-119.166	800.000	0.038	0.146
-118.151	-97.686	0.365	-0.093
-117.137	124.862	0.186	-0.230
-116.122	-17.457	0.141	-0.087
-115.107	-115.731	-0.081	0.015
-114.093	174.912	-0.178	-0.253
-113.078	-24.608	0.091	-0.053
-112.064	800.000	-0.036	-0.109
-111.049	-200.000	0.018	-0.360
-110.034	800.000	-0.033	-0.124
-109.020	-50.079	0.168	0.078
-108.005	405.251	-0.097	0.200
-106.991	-3.701	0.195	-0.133
-105.976	640.151	0.113	0.284
-104.962	54.429	0.107	-0.101
-103.947	-130.248	0.113	0.015
-102.932	-45.662	0.178	-0.086
-101.918	189.672	-0.130	0.191
-100.903	-200.000	-0.038	-0.219
-99.889	246.525	0.233	-0.386
-98.874	-111.687	0.159	0.032
-97.859	-200.000	0.044	0.465
-96.845	27.212	0.123	0.101
-95.830	-150.622	0.076	-0.006
-94.816	-66.540	-0.088	-0.034
-93.801	232.743	0.185	0.298
-92.786	-137.077	0.340	0.038
-91.772	575.976	0.127	0.305
-90.757	800.000	0.029	-0.121
-89.743	8.732	0.207	0.153
-88.728	-185.902	0.114	0.002
-87.713	12.280	0.175	0.133
-86.699	-200.000	0.011	0.066
-85.684	800.000	-0.046	0.139
-84.670	381.782	-0.113	0.228
-83.655	800.000	0.142	0.413
-82.640	92.495	0.178	-0.197
-81.626	42.500	-0.036	0.032
-80.611	-124.716	-0.199	0.030
-79.597	800.000	-0.088	0.318
-78.582	1.321	-0.279	0.197
-77.567	-200.000	-0.043	0.229
-76.553	146.731	0.152	-0.200
-75.538	800.000	0.072	-0.222
-74.524	10.842	0.233	0.175
-73.509	-108.212	0.071	0.015
-72.494	75.187	0.241	0.249
-71.480	-110.357	0.162	-0.033
-70.465	-145.797	0.281	0.024
-69.451	-200.000	0.015	-0.125
-68.436	155.989	-0.288	-0.389
-67.422	304.817	0.073	0.132
-66.407	90.085	-0.103	-0.113
-65.392	268.387	0.101	-0.173
-64.378	-111.151	-0.168	0.034
-63.363	17.076	-0.062	0.048
-62.349	-113.099	0.261	-0.051
-61.334	188.063	-0.767	-1.123
-60.319	202.465	0.356	0.539
-59.305	-200.000	-0.099	-1.130
-58.290	407.700	0.501	1.038
-57.276	382.986	0.772	1.556
-56.261	-200.000	97.723	609.605
-55.246	622.114	1400.084	3454.440
-54.232	191.985	2599.369	3841.260
-53.217	111.749	2276.351	2693.047
-52.203	41.482	1895.796	1681.652
-51.188	35.203	1684.426	1446.880
-50.173	32.466	1640.342	1388.797
-49.159	49.955	1688.018	1560.383
-48.144	51.657	1704.173	1587.984
-47.130	34.727	1664.061	1425.610
-46.115	32.011	1650.255	1393.589
-45.100	31.855	1645.106	1388.034
-44.086	31.920	1641.867	1385.725
-43.071	31.795	1639.825	1383.024
-42.057	31.811	1637.494	1381.117
-41.042	31.803	1635.534	1379.353
-40.027	31.785	1633.897	1377.782
-39.013	31.713	1631.990	1375.596
-37.998	31.800	1630.020	1374.519
-36.984	31.873	1628.540	1373.748
-35.969	31.892	1627.500	1372.955
-34.954	31.959	1625.332	1371.563
-33.940	31.985	1623.561	1370.201
-32.925	31.984	1621.647	1368.525
-31.911	31.831	1620.482	1366.371
-30.896	31.915	1618.679	1365.408
-29.881	31.902	1616.902	1363.763
-28.867	31.889	1615.272	1362.240
-27.852	31.848	1614.204	1360.988
-26.838	31.975	1612.204	1360.169
-25.823	31.983	1610.460	1358.698
-24.809	32.048	1609.462	1358.271
-23.794	31.908	1608.238	1356.179
-22.779	31.986	1606.687	1355.374
-21.765	31.999	1604.849	1353.870
-20.750	31.927	1603.683	1352.312
-19.736	32.009	1602.275	1351.657
-18.721	32.003	1600.989	1350.479
-17.706	31.957	1599.143	1348.539
-16.692	31.996	1597.584	1347.452
-15.677	31.974	1596.326	1346.180
-14.663	31.980	1594.738	1344.823
-13.648	31.955	1593.763	1343.773
-12.633	32.000	1592.048	1342.592
-11.619	31.957	1590.933	1341.291
-10.604	31.966	1589.179	1339.824
-9.590	31.952	1587.810	1338.515
-8.575	31.963	1586.483	1337.428
-7.560	31.991	1585.574	1336.805
-6.546	32.000	1584.180	1335.644
-5.531	31.994	1582.858	1334.428
-4.517	31.973	1581.648	1333.210
-3.502	31.977	1580.697	1332.382
-2.487	31.975	1579.001	1330.886
-1.473	31.538	1567.666	1318.204
-0.458	28.872	1547.088	1282.281
0.556	22.944	1547.618	1249.644
1.571	20.511	1571.271	1251.142
2.586	20.066	1585.057	1258.773
3.600	18.074	1533.038	1203.343
4.615	9.647	1422.731	1061.382
5.629	1.506	1357.372	961.215
6.644	-0.146	1349.151	944.921
7.659	-0.351	1347.720	942.548
8.673	-0.325	1346.350	941.668
9.688	-0.398	1344.538	939.862
10.702	-0.585	1341.816	936.705
11.717	2.447	1347.570	959.665
12.731	11.539	1364.769	1029.349
13.746	18.601	1376.115	1082.538
14.761	19.799	1377.218	1090.870
15.775	19.925	1377.029	1091.424
16.790	20.004	1376.373	1091.300
17.804	20.031	1375.942	1091.031
18.819	20.126	1375.779	1091.409
19.834	20.313	1374.678	1091.616
20.848	20.358	1373.705	1091.024
21.863	20.304	1373.229	1090.214
22.877	20.390	1371.966	1089.654
23.892	20.258	1371.848	1088.633
24.907	20.330	1370.604	1088.001
25.921	20.319	1369.341	1086.837
26.936	20.213	1369.074	1085.863
27.950	20.361	1367.892	1085.757
28.965	20.261	1366.614	1084.020
29.980	20.368	1365.188	1083.463
30.994	20.527	1363.359	1082.902
32.009	20.268	1362.752	1080.710
33.023	20.280	1361.931	1080.040
34.038	20.393	1360.230	1079.302
35.053	20.405	1359.081	1078.367
36.067	20.411	1358.333	1077.713
37.082	20.215	1357.545	1075.781
38.096	20.288	1356.723	1075.482
39.111	20.195	1356.003	1074.242
40.126	20.344	1355.212	1074.443
41.140	20.327	1354.783	1073.904
42.155	20.333	1354.188	1073.375
43.169	20.228	1354.548	1072.913
44.184	20.236	1354.135	1072.540
45.199	20.323	1353.260	1072.294
46.213	20.304	1352.895	1071.788
47.228	20.286	1351.842	1070.752
48.242	20.281	1350.413	1069.495
49.257	20.315	1349.164	1068.615
50.271	20.281	1347.753	1067.199
51.286	20.281	1346.904	1066.432
52.301	20.325	1345.267	1065.310
53.315	20.273	1344.245	1064.088
54.330	20.235	1343.876	1063.468
55.344	20.278	1342.340	1062.420
56.359	20.406	1341.248	1062.248
57.374	20.288	1340.998	1061.231
58.388	20.311	1340.237	1060.675
59.403	20.401	1339.716	1060.720
60.417	20.265	1339.217	1059.400
61.432	20.234	1337.924	1058.098
62.447	20.362	1337.012	1058.059
63.461	20.380	1335.737	1057.066
64.476	20.325	1334.903	1055.982
65.490	20.355	1334.008	1055.360
66.505	20.353	1332.184	1053.813
67.520	20.342	1330.732	1052.503
68.534	20.232	1330.041	1051.196
69.549	20.275	1328.806	1050.387
70.563	20.329	1328.038	1050.015
71.578	20.361	1326.699	1049.055
72.593	20.390	1325.662	1048.320
73.607	20.357	1325.344	1047.777
74.622	20.381	1324.250	1046.961
75.636	20.367	1323.817	1046.443
76.651	20.273	1323.368	1045.428
77.666	20.290	1322.720	1044.928
78.680	20.376	1322.446	1045.137
79.695	20.300	1321.329	1043.705
80.709	20.384	1320.422	1043.398
81.724	20.318	1319.871	1042.477
82.739	20.330	1318.651	1041.491
83.753	20.311	1317.694	1040.528
84.768	20.335	1316.497	1039.635
85.782	20.230	1315.491	1038.119
86.797	20.346	1314.145	1037.662
87.812	20.339	1313.362	1036.908
88.826	20.426	1311.896	1036.178
89.841	20.330	1311.200	1034.968
90.855	20.474	1309.615	1034.478
91.870	20.338	1309.013	1033.101
92.884	20.357	1308.513	1032.732
93.899	20.472	1307.063	1032.175
94.914	20.448	1306.249	1031.302
95.928	20.558	1305.238	1031.064
96.943	20.425	1304.754	1029.803
97.957	20.492	1303.731	1029.300
98.972	20.423	1303.447	1028.578
99.987	20.510	1301.813	1027.714
101.001	20.506	1300.842	1026.829
102.016	20.375	1299.929	1025.247
103.030	20.441	1299.253	1025.013
104.045	20.376	1298.856	1024.227
105.060	20.483	1297.181	1023.440
106.074	20.428	1296.034	1022.124
107.089	20.467	1294.897	1021.365
108.103	20.485	1293.745	1020.473
109.118	20.492	1292.917	1019.772
110.133	20.506	1291.836	1018.909
111.147	20.505	1290.420	1017.699
112.162	20.406	1289.234	1016.089
113.176	20.508	1288.210	1015.792
114.191	20.494	1287.055	1014.711
115.206	20.442	1286.264	1013.692
116.220	20.430	1284.902	1012.459
117.235	20.513	1283.648	1011.866
118.249	20.468	1283.075	1011.059
119.264	20.553	1282.280	1010.837
120.279	20.523	1281.149	1009.686
121.293	20.500	1279.993	1008.548
122.308	20.546	1278.946	1007.904
123.322	20.594	1278.039	1007.379
124.337	20.499	1277.781	1006.535
125.352	20.617	1276.160	1005.850
126.366	20.626	1275.280	1005.122
127.381	20.598	1274.275	1004.078
128.395	20.646	1273.514	1003.664
129.410	20.594	1272.406	1002.402
130.424	20.540	1271.546	1001.327
131.439	20.453	1271.124	1000.405
132.454	20.508	1270.002	999.751
133.468	20.442	1269.316	998.739
134.483	20.487	1268.556	998.315
135.497	20.445	1268.137	997.654
136.512	20.517	1266.778	996.909
137.527	20.532	1265.268	995.719
138.541	20.595	1263.770	994.811
139.556	20.458	1262.560	992.991
140.570	20.450	1261.780	992.243
141.585	20.610	1260.203	991.829
142.600	20.326	1259.627	989.668
143.614	20.465	1258.821	989.739
144.629	20.487	1257.549	988.774
145.643	20.440	1256.207	987.368
146.658	20.391	1255.187	986.199
147.673	20.422	1254.546	985.785
148.687	20.493	1253.321	985.138
149.702	20.495	1252.051	984.062
150.716	20.400	1251.302	982.851
151.731	20.393	1250.406	982.018
152.746	20.479	1249.263	981.520
153.760	20.491	1248.140	980.620
154.775	20.394	1247.559	979.530
155.789	20.507	1246.015	978.867
156.804	20.395	1245.600	977.825
157.819	20.481	1244.297	977.197
158.833	20.482	1243.398	976.411
159.848	20.576	1242.758	976.349
160.862	20.523	1242.067	975.420
161.877	20.597	1240.935	974.863
162.892	20.554	1240.041	973.836
163.906	20.595	1239.281	973.380
164.921	20.624	1238.365	972.738
165.935	20.668	1237.863	972.502
166.950	20.579	1237.059	971.285
167.964	20.631	1236.771	971.264
168.979	20.634	1236.299	970.825
169.994	20.570	1235.916	970.083
171.008	20.557	1235.138	969.312
172.023	20.627	1234.124	968.819
173.037	20.590	1233.588	968.108
174.052	20.597	1233.048	967.640
175.067	20.695	1232.212	967.443
176.081	20.671	1231.109	966.358
177.096	20.601	1230.893	965.710
178.110	20.661	1229.254	964.676
179.125	20.642	1228.580	963.955
180.140	20.595	1227.443	962.715
181.154	20.632	1225.828	961.571
182.169	20.700	1224.631	960.921
183.183	20.713	1223.942	960.364
184.198	20.744	1222.741	959.511
185.213	20.648	1222.106	958.401
186.227	20.573	1221.707	957.586
187.242	20.818	1219.943	957.469
188.256	20.740	1219.412	956.537
189.271	20.736	1219.178	956.249
190.286	20.749	1218.059	955.357
191.300	20.680	1217.489	954.447
192.315	20.744	1217.066	954.379
193.329	20.771	1216.218	953.780
194.344	20.766	1216.035	953.524
195.359	20.726	1215.755	952.999
196.373	20.627	1215.156	951.905
197.388	20.600	1214.709	951.321
198.402	20.766	1214.156	951.712
199.417	20.619	1213.801	950.546
200.432	20.625	1213.122	949.967
201.446	20.622	1212.608	949.463
202.461	20.784	1211.532	949.418
203.475	20.822	1210.210	948.505
204.490	20.742	1209.415	947.362
205.504	20.827	1208.579	947.086
206.519	20.833	1207.636	946.294
207.534	20.825	1206.339	945.155
208.548	20.815	1205.800	944.596
209.563	20.727	1205.555	943.840
210.577	20.764	1204.485	943.120
211.592	20.778	1202.908	941.875
212.607	20.883	1202.320	941.900
213.621	20.768	1202.192	941.097
214.636	20.925	1200.829	940.793
215.650	20.894	1200.216	940.062
216.665	20.860	1199.452	939.196
217.680	20.792	1198.557	938.048
218.694	20.751	1197.872	937.206
219.709	20.790	1196.980	936.637
220.723	20.947	1196.300	936.868
221.738	20.856	1195.447	935.625
222.753	20.914	1194.649	935.228
223.767	20.902	1194.311	934.820
224.782	20.892	1193.783	934.269
225.796	20.929	1193.198	933.926
226.811	20.890	1192.752	933.284
227.826	20.988	1191.514	932.758
228.840	20.999	1191.246	932.527
229.855	20.865	1190.959	931.502
230.869	20.889	1190.028	930.819
231.884	20.935	1189.234	930.359
232.899	20.889	1188.625	929.558
233.913	20.875	1188.072	928.966
234.928	20.979	1187.588	929.059
235.942	21.029	1186.711	928.558
236.957	20.953	1186.100	927.593
237.972	21.028	1185.260	927.255
238.986	20.978	1184.835	926.572
240.001	21.052	1184.255	926.432
241.015	21.161	1183.305	926.182
242.030	21.086	1182.589	925.143
243.045	21.244	1181.151	924.776
244.059	21.062	1181.268	923.818
245.074	21.120	1180.509	923.451
246.088	21.170	1179.479	922.829
247.103	21.029	1178.831	921.493
248.117	21.038	1178.129	920.913
249.132	21.071	1177.459	920.482
250.147	21.144	1176.882	920.336
251.161	21.164	1175.451	919.240
252.176	21.127	1175.425	918.941
253.190	21.177	1174.868	918.690
254.205	21.159	1174.389	918.140
255.220	21.177	1173.484	917.441
256.234	21.130	1172.954	916.700
257.249	21.174	1172.207	916.269
258.263	21.250	1171.985	916.414
259.278	21.194	1171.112	915.357
260.293	21.261	1170.670	915.280
261.307	21.301	1170.051	914.924
262.322	21.249	1169.426	914.079
263.336	21.163	1168.813	913.069
264.351	21.265	1168.395	913.197
265.366	21.251	1167.632	912.449
266.380	21.299	1166.623	911.831
267.395	21.264	1166.634	911.572
268.409	21.132	1165.983	910.296
269.424	21.246	1165.280	910.262
270.439	21.243	1164.340	909.431
271.453	21.300	1163.866	909.276
272.468	21.231	1162.737	907.954
273.482	21.283	1162.302	907.806
274.497	21.237	1161.746	907.053
275.512	21.409	1161.600	907.748
276.526	21.350	1160.852	906.782
277.541	21.391	1159.995	906.244
278.555	21.418	1159.289	905.750
279.570	21.396	1158.664	905.070
280.585	21.428	1157.747	904.438
281.599	21.396	1156.696	903.372
282.614	21.315	1156.161	902.454
283.628	21.342	1155.280	901.825
284.643	21.347	1154.462	901.136
285.657	21.419	1153.634	900.780
286.672	21.381	1152.755	899.819
287.687	21.435	1152.201	899.581
288.701	21.392	1151.633	898.839
289.716	21.401	1150.502	897.923
290.730	21.555	1150.002	898.242
291.745	21.561	1149.527	897.823
292.760	21.523	1148.528	896.769
293.774	21.497	1148.151	896.260
294.789	21.409	1147.823	895.474
295.803	21.493	1147.265	895.389
296.818	21.517	1146.353	894.723
297.833	21.564	1145.826	894.475
298.847	21.501	1145.012	893.436
299.862	21.555	1144.247	893.034
300.876	21.537	1143.737	892.467
301.891	21.610	1143.253	892.383
302.906	21.595	1142.506	891.643
303.920	21.613	1141.794	891.102
304.935	21.644	1140.848	890.444
305.949	21.556	1140.519	889.659
306.964	21.653	1139.735	889.460
307.979	21.726	1138.853	889.065
308.993	21.815	1137.945	888.731
310.008	21.676	1137.915	887.921
311.022	21.645	1137.310	887.215
312.037	21.809	1135.997	886.940
313.052	21.692	1135.432	885.831
314.066	21.593	1134.573	884.584
315.081	21.656	1134.012	884.382
316.095	21.601	1133.374	883.530
317.110	21.747	1132.826	883.763
318.125	21.700	1132.282	883.020
319.139	21.683	1131.633	882.352
320.154	21.867	1130.493	882.312
321.168	21.697	1130.551	881.423
322.183	21.844	1129.631	881.367
323.197	21.735	1129.013	880.256
324.212	21.752	1128.644	879.979
325.227	21.735	1127.994	879.308
326.241	21.766	1127.463	878.972
327.256	21.731	1126.480	877.954
328.270	21.836	1125.793	877.866
329.285	21.793	1125.083	877.020
330.300	21.747	1124.224	876.041
331.314	21.844	1123.378	875.788
332.329	21.790	1122.761	874.960
333.343	21.853	1121.597	874.293
334.358	21.995	1120.770	874.278
335.373	21.876	1120.443	873.353
336.387	22.017	1119.736	873.423
337.402	21.929	1118.997	872.336
338.416	22.022	1118.080	872.005
339.431	21.897	1117.714	871.020
340.446	21.876	1117.486	870.663
341.460	21.940	1116.617	870.223
342.475	22.055	1115.798	870.079
343.489	22.026	1114.937	869.188
344.504	21.980	1113.864	868.047
345.519	21.896	1113.442	867.224
346.533	22.055	1112.112	866.897
347.548	22.087	1111.794	866.729
348.562	21.991	1111.269	865.771
349.577	22.149	1110.358	865.762
350.592	22.082	1109.506	864.693
351.606	22.026	1108.823	863.808
352.621	22.080	1108.633	863.851
353.635	22.078	1107.834	863.140
354.650	22.101	1107.430	862.865
355.665	22.065	1106.875	862.179
356.679	22.065	1106.133	861.524
357.694	22.164	1105.444	861.394
358.708	22.108	1104.687	860.452
359.723	22.064	1104.349	859.899
360.738	22.047	1103.502	859.082
361.752	22.165	1102.728	858.978
362.767	22.225	1102.237	858.813
363.781	22.253	1101.771	858.512
364.796	22.338	1101.168	858.381
365.810	22.268	1100.510	857.449
366.825	22.305	1100.190	857.307
367.840	22.297	1100.112	857.132
368.854	22.278	1098.735	855.889
369.869	22.275	1098.359	855.504
370.883	22.265	1097.283	854.543
371.898	22.293	1096.855	854.270
372.913	22.271	1096.398	853.730
373.927	22.345	1095.959	853.675
374.942	22.273	1095.491	852.883
375.956	22.333	1095.022	852.737
376.971	22.334	1094.364	852.152
377.986	22.385	1094.009	852.048
379.000	22.456	1093.215	851.696
380.015	22.419	1092.803	851.120
381.029	22.461	1091.797	850.467
382.044	22.470	1091.214	849.977
383.059	22.452	1090.705	849.419
384.073	22.451	1089.692	848.552
385.088	22.538	1088.961	848.328
386.102	22.473	1088.164	847.320
387.117	22.483	1087.100	846.462
388.132	22.511	1086.016	845.679
389.146	22.540	1085.756	845.539
390.161	22.467	1085.335	844.786
391.175	22.523	1084.683	844.470
392.190	22.510	1083.909	843.734
393.205	22.577	1083.099	843.351
394.219	22.446	1082.557	842.225
395.234	22.593	1081.515	842.040
396.248	22.602	1080.707	841.382
397.263	22.525	1079.848	840.270
398.278	22.604	1079.114	840.005
399.292	22.689	1078.861	840.135
400.307	22.576	1078.412	839.174
401.321	22.569	1077.985	838.735
402.336	22.525	1077.224	837.857
403.350	22.654	1076.330	837.700
404.365	22.640	1075.740	837.100
405.380	22.795	1074.796	837.028
406.394	22.670	1074.102	835.821
407.409	22.724	1073.230	835.325
408.423	22.764	1072.663	834.999
409.438	22.668	1071.979	833.938
410.453	22.695	1071.558	833.667
411.467	22.746	1070.961	833.367
412.482	22.646	1070.322	832.322
413.496	22.798	1069.428	832.273
414.511	22.707	1069.016	831.447
415.526	22.763	1068.450	831.198
416.540	22.808	1067.946	830.947
417.555	22.798	1067.667	830.610
418.569	22.841	1066.854	830.104
419.584	22.932	1066.436	830.135
420.599	22.924	1065.817	829.538
421.613	148.939	1397.815	1794.213
422.628	137.118	1446.163	1794.290
