DTS Sentinel unit serial number:	SN413079Multiplexer serial number:	ORYXHardware model number:	OX4-SRSoftware version number:	ORYX F/W v4.00 Oryx Data Collector v3.7.2.0data status	okinstallation	princeton_trtdifferential loss correction	single-endedforward channel	channel 2reverse channel	N/Adate	2019/09/11time	03:09:10forward acquisition time	60.00reverse acquisition time	0.00gamma	496.2192k internal	0.2331k external	0.2331temperature offset calibration	0.9940default loss term (dB/km)	0.3790temperature slope calibration	1.0000multiplexer offset coefficient	1.0000multiplexer slope coefficient	1.0000fibre end	0.00T internal ref (°C)	29.31T ext. ref 1 (°C)	-0.28T ext. ref 2 (°C)	23.97length (m)	temperature (°C)	Stokes	anti-Stokes-747.200	-200.000	0.022	-0.207
-746.185	-48.151	-0.243	0.118
-745.171	-200.000	0.023	0.148
-744.156	689.605	-0.261	0.688
-743.142	-106.589	0.287	0.064
-742.127	214.162	-0.204	0.325
-741.112	-93.146	0.124	-0.035
-740.098	-20.156	-0.330	-0.205
-739.083	33.854	0.165	-0.145
-738.069	42.404	-0.340	-0.311
-737.054	-200.000	0.000	0.054
-736.039	70.245	-0.108	0.112
-735.025	800.000	-0.106	0.308
-734.010	-60.014	0.051	-0.022
-732.996	-107.590	-0.207	-0.046
-731.981	-200.000	-0.116	-0.594
-730.966	-78.219	-0.221	-0.076
-729.952	-29.952	-0.158	-0.090
-728.937	-60.275	0.154	-0.066
-727.923	-88.980	-0.146	0.044
-726.908	118.022	-0.238	0.296
-725.894	-98.893	-0.400	-0.102
-724.879	-67.969	0.139	-0.055
-723.864	438.649	-0.139	-0.306
-722.850	-200.000	-0.006	-0.330
-721.835	800.000	-0.039	-0.128
-720.821	-38.724	0.148	0.078
-719.806	-12.089	0.196	-0.129
-718.791	-169.207	-0.082	0.003
-717.777	70.216	0.222	0.231
-716.762	-68.674	-0.152	-0.059
-715.748	322.668	0.101	-0.194
-714.733	-124.787	-0.117	0.018
-713.718	800.000	0.046	-0.151
-712.704	-200.000	-0.034	0.170
-711.689	-122.324	-0.208	0.034
-710.675	-75.630	-0.241	-0.086
-709.660	18.137	0.194	0.156
-708.645	-86.049	-0.118	-0.037
-707.631	-83.629	-0.156	-0.050
-706.616	577.128	0.092	-0.226
-705.602	-176.030	0.244	0.006
-704.587	35.546	-0.178	0.157
-703.572	93.916	-0.276	-0.314
-702.558	176.616	-0.026	0.037
-701.543	-48.123	-0.282	-0.137
-700.529	37.122	0.053	0.047
-699.514	-186.928	0.258	-0.004
-698.499	-110.560	-0.598	0.124
-697.485	-8.822	-0.221	0.149
-696.470	-9.139	-0.257	0.173
-695.456	-200.000	-0.371	0.001
-694.441	-107.350	-0.199	0.044
-693.426	-16.910	-0.203	0.129
-692.412	-200.000	-0.004	-0.494
-691.397	-71.126	-0.262	0.099
-690.383	-29.461	0.240	-0.138
-689.368	800.000	-0.033	-0.117
-688.354	-66.679	-0.098	0.039
-687.339	-35.889	0.120	-0.065
-686.324	-24.556	-0.138	-0.082
-685.310	83.430	0.174	0.191
-684.295	564.792	0.110	-0.268
-683.281	259.525	-0.193	-0.334
-682.266	-131.574	0.263	-0.035
-681.251	800.000	0.062	-0.230
-680.237	-111.215	0.398	0.082
-679.222	-119.014	-0.141	0.025
-678.208	-35.913	-0.279	-0.152
-677.193	-48.784	0.234	-0.113
-676.178	74.913	0.066	0.070
-675.164	-30.637	-0.292	0.166
-674.149	-200.000	-0.005	0.102
-673.135	740.407	-0.048	-0.130
-672.120	-200.000	-0.021	-0.119
-671.105	126.327	-0.183	0.233
-670.091	126.556	0.195	-0.248
-669.076	-110.841	-0.498	0.103
-668.062	194.908	0.141	-0.215
-667.047	-118.513	-0.116	0.021
-666.032	-64.877	-0.211	0.085
-665.018	-200.000	-0.065	0.329
-664.003	-172.630	0.063	0.002
-662.989	-99.543	0.085	0.021
-661.974	-77.137	-0.216	0.075
-660.959	-104.436	0.224	0.052
-659.945	-43.534	0.175	-0.088
-658.930	-44.241	0.013	-0.007
-657.916	800.000	0.132	-0.521
-656.901	800.000	-0.110	-0.329
-655.886	800.000	-0.046	-0.139
-654.872	-53.764	-0.261	0.119
-653.857	-96.784	-0.160	-0.042
-652.843	-112.237	-0.284	0.057
-651.828	-79.163	0.096	-0.033
-650.814	0.454	-0.014	-0.010
-649.799	5.157	0.185	0.137
-648.784	-34.213	0.262	-0.144
-647.770	-122.107	0.323	-0.053
-646.755	-137.688	-0.177	-0.020
-645.741	-152.936	0.131	-0.009
-644.726	392.467	-0.043	0.090
-643.711	344.611	0.033	0.066
-642.697	-10.524	0.352	0.234
-641.682	38.235	-0.045	0.040
-640.668	1.448	-0.198	0.143
-639.653	28.756	0.258	0.219
-638.638	-200.000	-0.084	0.437
-637.624	-97.727	0.059	-0.015
-636.609	-71.316	-0.422	0.158
-635.595	-167.188	0.188	0.008
-634.580	378.200	-0.148	-0.304
-633.565	131.293	-0.230	-0.296
-632.551	-200.000	-0.000	-0.283
-631.536	-191.778	-0.353	0.003
-630.522	-0.625	0.081	-0.058
-629.507	-32.689	0.162	-0.091
-628.492	-117.191	0.140	-0.026
-627.478	-24.698	-0.193	0.115
-626.463	539.354	0.172	-0.411
-625.449	800.000	0.040	0.140
-624.434	-122.638	0.370	-0.060
-623.419	58.019	0.215	-0.211
-622.405	-147.986	0.387	-0.032
-621.390	44.179	0.160	-0.147
-620.376	491.027	0.177	-0.407
-619.361	-75.595	-0.297	-0.106
-618.346	-155.971	0.138	-0.009
-617.332	800.000	-0.095	0.337
-616.317	105.575	0.105	0.124
-615.303	386.702	-0.154	0.318
-614.288	-21.876	-0.184	-0.112
-613.273	468.231	-0.111	-0.250
-612.259	-83.878	-0.056	-0.018
-611.244	728.030	0.036	-0.096
-610.230	145.372	0.132	0.177
-609.215	-39.656	0.174	-0.091
-608.201	-200.000	0.010	0.175
-607.186	425.231	-0.183	0.395
-606.171	800.000	0.015	0.051
-605.157	191.039	-0.174	0.263
-604.142	-82.143	0.438	0.143
-603.128	-93.647	-0.390	-0.108
-602.113	-63.259	0.121	0.050
-601.098	247.152	0.093	0.158
-600.084	-69.956	-0.186	-0.071
-599.069	-200.000	-0.014	0.066
-598.055	58.406	0.132	0.130
-597.040	-50.844	-0.169	0.080
-596.025	-7.278	0.099	0.067
-595.011	800.000	0.069	-0.250
-593.996	-142.158	0.269	0.027
-592.982	800.000	-0.088	-0.305
-591.967	-119.443	-0.159	-0.028
-590.952	91.545	0.213	0.239
-589.938	-187.702	-0.149	-0.002
-588.923	90.243	-0.159	0.178
-587.909	33.305	-0.036	0.032
-586.894	38.971	0.166	0.148
-585.879	-120.875	0.373	-0.063
-584.865	-21.713	-0.244	0.149
-583.850	-151.271	-0.174	0.013
-582.836	-200.000	0.028	-0.227
-581.821	225.122	-0.183	0.297
-580.806	40.053	-0.134	-0.121
-579.792	-47.470	0.131	-0.064
-578.777	800.000	0.052	0.185
-577.763	32.829	0.230	-0.199
-576.748	-78.435	-0.219	-0.075
-575.733	-77.510	-0.250	0.087
-574.719	5.839	-0.057	0.042
-573.704	800.000	0.012	0.035
-572.690	-121.949	-0.027	0.004
-571.675	800.000	0.090	0.290
-570.661	-117.350	-0.150	0.027
-569.646	-102.513	0.105	0.025
-568.631	-200.000	0.028	-0.386
-567.617	-137.298	-0.269	0.031
-566.602	170.614	0.067	-0.096
-565.588	-27.185	0.190	0.111
-564.573	-98.973	0.246	0.063
-563.558	-200.000	0.043	-0.275
-562.544	248.750	-0.196	-0.332
-561.529	13.275	0.411	-0.318
-560.515	-20.820	-0.204	-0.125
-559.500	-200.000	-0.042	0.240
-558.485	-103.095	-0.081	-0.019
-557.471	290.478	-0.055	-0.100
-556.456	33.012	0.202	-0.174
-555.442	-200.000	-0.017	-0.187
-554.427	-84.937	-0.316	0.099
-553.412	7.489	0.263	-0.197
-552.398	-200.000	0.038	0.180
-551.383	-146.204	-0.286	-0.025
-550.369	21.140	0.235	0.191
-549.354	-130.619	0.311	0.042
-548.339	-17.942	-0.097	-0.061
-547.325	-134.812	0.140	-0.017
-546.310	-30.630	-0.066	0.038
-545.296	-69.907	-0.028	-0.011
-544.281	230.251	0.072	0.118
-543.266	-113.068	0.307	0.061
-542.252	3.002	0.201	-0.146
-541.237	-200.000	0.015	0.107
-540.223	-44.585	0.067	-0.034
-539.208	-200.000	0.003	-0.375
-538.193	-200.000	0.084	-0.454
-537.179	800.000	0.067	-0.274
-536.164	218.293	0.152	-0.242
-535.150	-91.168	0.230	-0.066
-534.135	74.326	0.087	0.091
-533.121	-96.228	0.166	-0.044
-532.106	-200.000	0.054	-0.246
-531.091	399.139	0.108	-0.226
-530.077	-154.331	-0.312	-0.021
-529.062	-200.000	-0.026	-0.290
-528.048	-200.000	0.012	0.225
-527.033	-96.543	-0.127	-0.034
-526.018	-1.741	-0.366	0.258
-525.004	-76.418	0.159	-0.056
-523.989	-88.014	0.237	-0.071
-522.975	-129.040	-0.087	0.012
-521.960	-200.000	0.033	-0.150
-520.945	239.320	-0.097	-0.162
-519.931	87.170	0.175	0.193
-518.916	114.859	0.114	0.139
-517.902	-20.646	0.263	0.161
-516.887	-200.000	-0.039	-0.218
-515.872	40.530	0.046	0.041
-514.858	-200.000	-0.028	0.160
-513.843	149.274	0.023	0.031
-512.829	534.032	-0.120	-0.283
-511.814	199.197	-0.061	0.093
-510.799	-23.772	-0.144	-0.086
-509.785	-47.969	0.194	-0.094
-508.770	-200.000	0.008	-0.125
-507.756	-85.782	0.083	-0.026
-506.741	-98.353	-0.324	0.083
-505.726	-200.000	-0.002	0.083
-504.712	287.978	0.030	-0.054
-503.697	83.989	-0.222	-0.242
-502.683	73.388	0.319	0.333
-501.668	-0.576	0.270	0.191
-500.653	-159.519	0.240	0.013
-499.639	10.537	-0.316	0.240
-498.624	305.402	-0.071	0.131
-497.610	-116.631	0.055	0.010
-496.595	-200.000	-0.016	-0.192
-495.581	-200.000	-0.007	-0.280
-494.566	-109.846	-0.466	0.097
-493.551	69.082	0.179	-0.183
-492.537	14.093	-0.215	0.167
-491.522	-121.203	0.260	-0.043
-490.508	-200.000	-0.075	-0.356
-489.493	-116.900	0.135	0.025
-488.478	34.745	0.050	0.043
-487.464	-43.518	-0.213	-0.107
-486.449	-27.788	0.317	-0.183
-485.435	-3.895	-0.218	-0.151
-484.420	430.356	-0.037	-0.080
-483.405	330.048	-0.070	-0.134
-482.391	50.971	0.185	0.174
-481.376	17.377	0.296	0.234
-480.362	-102.928	0.229	0.054
-479.347	-39.090	0.133	0.070
-478.332	33.818	0.347	-0.301
-477.318	7.038	-0.210	-0.156
-476.303	703.681	-0.073	-0.192
-475.289	800.000	0.156	-0.509
-474.274	-134.136	0.188	-0.023
-473.259	94.817	0.085	0.097
-472.245	129.836	0.182	0.232
-471.230	-80.530	-0.415	0.138
-470.216	-31.464	-0.248	0.139
-469.201	113.370	0.150	-0.181
-468.186	154.472	-0.085	-0.117
-467.172	662.951	-0.108	0.278
-466.157	-200.000	-0.035	-0.515
-465.143	800.000	-0.027	0.084
-464.128	-129.780	-0.159	-0.022
-463.113	8.435	-0.203	-0.152
-462.099	50.752	0.126	-0.119
-461.084	-22.796	0.087	-0.052
-460.070	118.659	-0.253	0.311
-459.055	-149.580	-0.133	0.010
-458.040	154.856	-0.026	0.035
-457.026	83.106	0.060	0.065
-456.011	11.435	0.123	0.094
-454.997	77.953	0.115	0.122
-453.982	-156.372	-0.191	-0.012
-452.968	-57.350	-0.244	-0.107
-451.953	-12.456	0.179	0.117
-450.938	-98.633	0.459	-0.116
-449.924	-43.421	0.093	-0.047
-448.909	800.000	0.090	0.306
-447.895	-75.735	0.334	0.118
-446.880	-43.287	-0.302	0.152
-445.865	-200.000	0.005	-0.175
-444.851	195.329	-0.100	0.152
-443.836	-67.463	-0.305	0.119
-442.822	800.000	-0.067	-0.245
-441.807	36.084	-0.233	-0.204
-440.792	-107.924	0.190	0.041
-439.778	43.881	0.159	0.145
-438.763	-124.370	-0.188	0.029
-437.749	196.698	0.191	-0.290
-436.734	-68.937	0.113	0.044
-435.719	235.027	0.036	0.059
-434.705	-30.454	0.103	0.058
-433.690	-147.393	-0.308	-0.026
-432.676	85.948	0.270	-0.296
-431.661	-152.829	0.161	0.011
-430.646	-98.402	-0.470	-0.120
-429.632	800.000	0.093	0.345
-428.617	-114.348	0.313	-0.060
-427.603	328.170	-0.081	-0.155
-426.588	-3.308	0.122	-0.084
-425.573	-163.347	-0.235	-0.011
-424.559	800.000	0.025	-0.080
-423.544	-200.000	-0.001	-0.105
-422.530	755.915	-0.093	-0.251
-421.515	-200.000	-0.022	0.306
-420.500	-79.612	0.287	-0.096
-419.486	-0.653	-0.339	0.239
-418.471	506.985	-0.110	-0.253
-417.457	-69.633	-0.191	0.073
-416.442	-108.062	-0.463	-0.100
-415.428	135.657	-0.164	-0.213
-414.413	-151.249	-0.163	-0.012
-413.398	-74.846	0.172	-0.061
-412.384	800.000	0.047	-0.206
-411.369	800.000	-0.036	-0.127
-410.355	800.000	-0.061	-0.177
-409.340	-59.047	-0.228	-0.098
-408.325	38.924	-0.102	0.091
-407.311	-89.665	0.262	0.076
-406.296	472.057	0.054	-0.122
-405.282	-146.236	-0.260	0.023
-404.267	-200.000	-0.077	0.475
-403.252	6.846	0.326	0.241
-402.238	-200.000	-0.060	0.328
-401.223	31.493	-0.137	-0.117
-400.209	1.291	0.047	-0.034
-399.194	-152.359	-0.252	0.018
-398.179	-138.856	0.036	0.004
-397.165	-81.746	0.318	0.103
-396.150	152.363	-0.151	-0.205
-395.136	-200.000	0.003	-0.076
-394.121	-2.593	-0.190	0.132
-393.106	4.241	-0.094	-0.069
-392.092	136.880	0.018	0.023
-391.077	77.856	-0.085	-0.090
-390.063	800.000	-0.023	-0.090
-389.048	800.000	0.034	0.102
-388.033	554.197	-0.053	0.127
-387.019	-200.000	0.018	-0.245
-386.004	20.550	-0.265	0.213
-384.990	-200.000	-0.015	0.173
-383.975	118.607	0.313	0.383
-382.960	-188.273	-0.198	0.002
-381.946	72.746	0.209	0.217
-380.931	-75.898	-0.217	0.076
-379.917	76.177	0.134	-0.141
-378.902	800.000	0.085	-0.251
-377.888	-200.000	-0.039	-0.177
-376.873	-151.195	0.206	-0.015
-375.858	-200.000	-0.005	-0.085
-374.844	135.530	-0.074	-0.096
-373.829	147.272	0.093	0.124
-372.815	-35.755	-0.283	-0.152
-371.800	-200.000	0.019	-0.123
-370.785	654.975	-0.218	0.556
-369.771	-111.882	-0.183	0.037
-368.756	133.526	-0.116	0.148
-367.742	-6.236	-0.207	0.141
-366.727	-200.000	0.009	-0.122
-365.712	-75.004	-0.342	0.122
-364.698	213.979	-0.109	-0.171
-363.683	-15.538	0.068	-0.043
-362.669	80.756	-0.026	-0.028
-361.654	800.000	0.032	-0.104
-360.639	-156.833	0.331	-0.020
-359.625	-141.510	-0.226	-0.023
-358.610	800.000	0.066	-0.280
-357.596	20.156	-0.140	0.112
-356.581	639.805	-0.079	-0.200
-355.566	-57.530	0.053	-0.023
-354.552	-142.314	-0.053	0.005
-353.537	-200.000	-0.004	0.176
-352.523	-146.217	0.157	-0.014
-351.508	-200.000	-0.062	0.302
-350.493	-82.891	0.202	0.065
-349.479	-121.930	-0.343	0.056
-348.464	548.713	-0.201	0.476
-347.450	800.000	0.108	0.385
-346.435	174.581	0.186	0.266
-345.420	34.352	-0.154	0.133
-344.406	367.517	0.142	-0.284
-343.391	-12.252	-0.085	0.055
-342.377	-143.992	-0.600	0.056
-341.362	-1.638	0.229	-0.160
-340.348	527.317	0.096	0.225
-339.333	-37.172	-0.266	-0.141
-338.318	704.842	0.144	0.376
-337.304	284.689	-0.102	0.182
-336.289	-167.824	-0.240	-0.009
-335.275	151.445	0.101	0.136
-334.260	-36.680	0.391	-0.208
-333.245	-28.824	0.132	0.075
-332.231	63.824	-0.185	-0.184
-331.216	50.510	0.099	0.093
-330.202	-55.362	0.047	-0.021
-329.187	-200.000	-0.014	-0.243
-328.172	800.000	0.091	0.298
-327.158	-12.344	0.220	-0.142
-326.143	-149.040	0.046	0.004
-325.129	-121.830	-0.032	0.005
-324.114	41.720	-0.291	0.261
-323.099	50.836	0.154	0.144
-322.085	-127.323	0.121	-0.018
-321.070	800.000	0.066	-0.185
-320.056	-143.427	-0.220	-0.021
-319.041	-42.983	0.070	-0.035
-318.026	216.764	0.129	0.203
-317.012	800.000	-0.014	-0.044
-315.997	-41.578	-0.246	-0.125
-314.983	610.268	0.037	-0.091
-313.968	94.752	-0.092	-0.104
-312.953	-58.818	-0.270	0.116
-311.939	-200.000	0.029	-0.258
-310.924	-46.101	-0.196	-0.096
-309.910	83.319	-0.054	-0.058
-308.895	333.356	0.161	-0.308
-307.880	-82.675	0.171	0.055
-306.866	-31.059	0.299	-0.167
-305.851	232.706	-0.203	0.329
-304.837	-84.244	0.123	0.039
-303.822	800.000	0.081	0.286
-302.807	67.563	-0.248	0.250
-301.793	576.685	0.100	-0.242
-300.778	-83.646	0.198	-0.063
-299.764	284.457	-0.071	-0.126
-298.749	-200.000	0.010	0.067
-297.735	67.639	-0.200	-0.202
-296.720	83.512	0.056	0.061
-295.705	-47.646	-0.213	0.102
-294.691	-200.000	0.045	0.253
-293.676	-165.397	-0.533	0.023
-292.662	-200.000	0.013	0.070
-291.647	136.986	0.168	-0.217
-290.632	-29.503	0.218	-0.123
-289.618	-107.643	0.149	0.032
-288.603	172.464	-0.087	-0.123
-287.589	-78.545	-0.269	0.091
-286.574	800.000	0.108	0.397
-285.559	-168.978	-0.155	0.006
-284.545	-200.000	0.032	0.317
-283.530	-128.111	0.306	-0.043
-282.516	249.507	0.053	-0.088
-281.501	156.922	0.116	0.159
-280.486	27.572	0.161	-0.134
-279.472	-35.337	-0.117	0.063
-278.457	-200.000	-0.044	-0.202
-277.443	-125.963	-0.424	-0.063
-276.428	373.618	-0.114	0.229
-275.413	-60.051	0.139	0.059
-274.399	-41.045	0.310	0.158
-273.384	339.792	-0.109	0.209
-272.370	8.416	-0.264	0.196
-271.355	-77.440	0.206	0.071
-270.340	-172.204	-0.096	0.003
-269.326	-160.104	0.034	-0.002
-268.311	-170.683	-0.332	0.011
-267.297	800.000	0.060	-0.172
-266.282	800.000	0.072	0.250
-265.267	115.600	0.170	0.206
-264.253	800.000	0.008	-0.023
-263.238	-62.059	-0.321	-0.132
-262.224	187.443	-0.148	-0.218
-261.209	234.003	0.073	-0.119
-260.195	800.000	0.064	-0.256
-259.180	22.739	0.279	-0.226
-258.165	392.402	-0.184	-0.379
-257.151	800.000	0.095	0.376
-256.136	201.360	0.116	-0.177
-255.122	580.672	0.159	-0.386
-254.107	40.519	0.192	-0.171
-253.092	-24.575	-0.175	0.103
-252.078	-45.386	-0.167	-0.082
-251.063	-67.864	0.072	-0.028
-250.049	-10.356	-0.355	0.232
-249.034	-68.293	0.055	0.021
-248.019	96.216	0.339	0.383
-247.005	-200.000	-0.016	0.171
-245.990	243.633	0.091	-0.150
-244.976	-200.000	-0.016	0.142
-243.961	-200.000	-0.011	-0.089
-242.946	-1.203	0.090	-0.062
-241.932	472.759	-0.100	-0.222
-240.917	800.000	-0.023	-0.070
-239.903	27.683	0.192	0.159
-238.888	-200.000	-0.017	0.138
-237.873	305.698	-0.204	0.374
-236.859	800.000	0.068	0.237
-235.844	165.881	-0.078	0.108
-234.830	349.389	-0.096	0.187
-233.815	195.961	-0.158	0.238
-232.800	275.436	0.247	-0.433
-231.786	-200.000	0.082	-0.357
-230.771	-185.575	-0.285	0.004
-229.757	-137.176	0.344	0.039
-228.742	90.256	0.044	0.049
-227.727	613.342	-0.055	0.137
-226.713	800.000	0.051	0.216
-225.698	-200.000	0.010	0.335
-224.684	54.301	0.023	-0.022
-223.669	-92.801	-0.183	0.050
-222.655	-69.083	0.231	0.088
-221.640	-200.000	0.057	-0.277
-220.625	41.223	-0.253	0.226
-219.611	800.000	-0.083	-0.258
-218.596	-200.000	0.030	-0.154
-217.582	-198.124	0.396	0.002
-216.567	-200.000	-0.008	0.106
-215.552	-149.298	0.148	-0.012
-214.538	250.379	-0.080	-0.133
-213.523	-139.555	-0.270	-0.028
-212.509	-200.000	0.037	0.358
-211.494	187.174	-0.119	-0.175
-210.479	-200.000	-0.027	-0.188
-209.465	-75.995	0.164	0.057
-208.450	-200.000	0.010	0.356
-207.436	800.000	-0.011	0.044
-206.421	-41.311	0.397	-0.202
-205.406	800.000	0.036	-0.151
-204.392	436.058	-0.060	0.129
-203.377	-74.336	0.174	-0.062
-202.363	-31.348	-0.218	0.121
-201.348	-172.311	0.309	-0.010
-200.333	-47.771	0.038	-0.018
-199.319	21.390	-0.359	0.287
-198.304	253.662	-0.231	-0.388
-197.290	-200.000	0.011	-0.111
-196.275	128.911	-0.179	0.225
-195.260	186.992	-0.176	-0.259
-194.246	-21.330	-0.143	-0.086
-193.231	800.000	-0.078	-0.213
-192.217	-101.443	0.183	0.044
-191.202	-144.477	0.111	-0.010
-190.187	-78.054	0.091	-0.031
-189.173	-200.000	0.027	0.190
-188.158	76.056	-0.152	-0.158
-187.144	123.271	0.079	0.097
-186.129	-200.000	0.044	0.273
-185.114	-100.586	0.415	0.101
-184.100	-88.467	0.239	0.070
-183.085	-129.220	0.136	0.019
-182.071	233.519	-0.083	-0.134
-181.056	223.010	-0.104	0.166
-180.042	-46.583	0.239	0.115
-179.027	-0.313	0.328	0.230
-178.012	-61.059	-0.325	-0.135
-176.998	-200.000	-0.057	-0.366
-175.983	-9.704	-0.160	0.105
-174.969	10.322	-0.105	-0.079
-173.954	17.787	-0.129	0.101
-172.939	800.000	-0.021	0.071
-171.925	-29.400	-0.518	-0.292
-170.910	11.934	0.196	-0.148
-169.896	-87.616	0.245	-0.073
-168.881	174.474	0.249	0.354
-167.866	433.530	-0.074	0.159
-166.852	120.535	-0.100	-0.122
-165.837	-40.752	-0.307	0.157
-164.823	-107.157	0.111	0.024
-163.808	1.863	0.183	0.130
-162.793	-200.000	-0.006	-0.194
-161.779	-200.000	0.017	-0.203
-160.764	-56.574	0.195	0.085
-159.750	11.598	-0.318	0.240
-158.735	-200.000	0.095	-0.434
-157.720	79.478	-0.053	0.056
-156.706	-200.000	-0.021	-0.116
-155.691	-84.215	0.143	-0.045
-154.677	-86.796	-0.284	0.085
-153.662	455.243	-0.086	0.187
-152.647	-36.483	-0.196	0.104
-151.633	247.322	0.053	-0.088
-150.618	-162.453	-0.038	0.002
-149.604	-0.116	-0.296	-0.207
-148.589	-37.104	0.258	-0.136
-147.574	59.581	-0.210	-0.204
-146.560	67.529	-0.051	-0.051
-145.545	123.050	0.125	-0.154
-144.531	800.000	0.051	-0.214
-143.516	168.644	0.187	-0.262
-142.502	693.292	0.050	0.129
-141.487	458.625	0.072	0.158
-140.472	800.000	0.058	0.206
-139.458	365.106	-0.053	0.106
-138.443	101.827	-0.271	-0.311
-137.429	46.480	0.324	-0.296
-136.414	-200.000	-0.027	0.163
-135.399	-126.513	0.108	0.016
-134.385	634.342	0.136	0.339
-133.370	-5.425	-0.320	-0.216
-132.356	214.717	0.192	-0.299
-131.341	800.000	0.040	-0.132
-130.326	-126.602	0.402	0.059
-129.312	-92.251	0.251	-0.070
-128.297	4.587	-0.114	0.082
-127.283	188.158	0.121	-0.177
-126.268	-200.000	0.029	0.168
-125.253	130.264	0.153	0.193
-124.239	-100.064	0.106	-0.026
-123.224	-200.000	-0.070	-0.396
-122.210	-138.735	0.115	0.012
-121.195	-111.040	0.216	0.044
-120.180	76.417	0.028	0.029
-119.166	79.116	-0.086	-0.090
-118.151	-129.373	0.369	0.050
-117.137	480.392	-0.109	-0.242
-116.122	9.228	0.165	0.122
-115.107	449.468	0.069	-0.150
-114.093	-200.000	0.071	0.450
-113.078	30.017	0.187	0.157
-112.064	240.044	-0.037	-0.061
-111.049	-200.000	0.056	-0.292
-110.034	90.325	-0.068	0.075
-109.020	30.907	0.130	-0.109
-108.005	-21.436	-0.387	0.232
-106.991	151.153	0.134	-0.179
-105.976	116.082	0.161	0.194
-104.962	-200.000	-0.005	-0.076
-103.947	-200.000	0.040	-0.293
-102.932	18.582	-0.097	-0.076
-101.918	166.693	-0.087	0.121
-100.903	-167.451	0.167	-0.007
-99.889	42.582	-0.066	-0.059
-98.874	-62.214	-0.151	0.062
-97.859	-123.092	0.402	-0.063
-96.845	-31.858	-0.208	-0.115
-95.830	-78.361	-0.246	0.083
-94.816	-200.000	0.031	0.298
-93.801	-125.097	-0.184	0.028
-92.786	290.330	0.053	0.095
-91.772	-200.000	-0.005	0.240
-90.757	-130.357	-0.160	0.021
-89.743	147.987	0.221	-0.293
-88.728	-25.282	0.244	0.142
-87.713	393.012	-0.138	0.282
-86.699	-87.337	0.452	0.135
-85.684	-147.699	-0.368	0.030
-84.670	-76.126	0.035	0.012
-83.655	-19.404	-0.293	-0.178
-82.640	35.597	0.034	-0.029
-81.626	-72.398	-0.277	-0.100
-80.611	36.327	-0.042	0.036
-79.597	-112.742	-0.118	-0.023
-78.582	362.319	-0.051	-0.100
-77.567	-66.138	-0.176	-0.069
-76.553	187.206	0.048	-0.070
-75.538	-79.670	0.225	0.074
-74.524	-66.263	0.056	0.022
-73.509	504.632	-0.081	-0.185
-72.494	42.790	-0.139	-0.124
-71.480	-200.000	-0.012	-0.196
-70.465	-110.591	0.438	-0.089
-69.451	-23.236	0.216	-0.127
-68.436	300.665	-0.088	-0.159
-67.422	-111.617	0.067	-0.013
-66.407	596.780	0.019	-0.046
-65.392	191.391	0.026	-0.039
-64.378	-200.000	0.013	-0.078
-63.363	-200.000	0.004	0.152
-62.349	351.420	-0.128	0.247
-61.334	94.743	-1.015	-1.131
-60.319	-73.199	0.748	0.269
-59.305	350.321	-0.362	-0.700
-58.290	203.701	0.742	1.126
-57.276	324.476	0.662	1.240
-56.261	-200.000	105.761	611.982
-55.246	507.149	1509.711	3431.673
-54.232	174.757	2712.112	3845.449
-53.217	104.213	2300.712	2651.796
-52.203	38.549	1904.902	1664.279
-51.188	32.482	1690.847	1431.252
-50.173	29.936	1647.085	1375.274
-49.159	48.782	1701.048	1563.134
-48.144	49.028	1716.228	1578.877
-47.130	32.096	1673.439	1413.388
-46.115	29.403	1659.001	1381.011
-45.100	29.374	1653.849	1376.450
-44.086	29.219	1651.439	1373.238
-43.071	29.237	1648.465	1370.841
-42.057	29.130	1646.640	1368.472
-41.042	29.192	1644.579	1367.167
-40.027	29.143	1642.580	1365.086
-39.013	29.197	1641.291	1364.366
-37.998	29.092	1639.790	1362.281
-36.984	29.165	1637.655	1360.995
-35.969	29.287	1636.755	1361.096
-34.954	29.337	1634.482	1359.522
-33.940	29.344	1632.653	1357.993
-32.925	29.427	1631.011	1357.184
-31.911	29.341	1629.209	1354.999
-30.896	29.205	1627.824	1352.796
-29.881	29.244	1626.547	1351.967
-28.867	29.249	1624.718	1350.435
-27.852	29.321	1623.225	1349.667
-26.838	29.226	1621.736	1347.679
-25.823	29.396	1620.100	1347.504
-24.809	29.301	1618.979	1345.824
-23.794	29.368	1617.514	1345.046
-22.779	29.305	1616.296	1343.518
-21.765	29.246	1614.547	1341.582
-20.750	29.245	1612.718	1339.999
-19.736	29.355	1611.274	1339.551
-18.721	29.398	1609.837	1338.611
-17.706	29.366	1608.750	1337.426
-16.692	29.256	1607.648	1335.657
-15.677	29.277	1605.989	1334.379
-14.663	29.407	1604.170	1333.755
-13.648	29.392	1602.481	1332.188
-12.633	29.342	1601.185	1330.697
-11.619	29.461	1599.436	1330.048
-10.604	29.317	1598.218	1327.949
-9.590	29.365	1596.908	1327.152
-8.575	29.422	1595.903	1326.670
-7.560	29.368	1595.043	1325.514
-6.546	29.428	1593.842	1324.897
-5.531	29.413	1592.553	1323.668
-4.517	29.293	1591.490	1321.872
-3.502	29.442	1590.148	1321.769
-2.487	29.494	1588.687	1320.874
-1.473	29.189	1576.739	1308.719
-0.458	26.610	1557.888	1274.897
0.556	20.791	1559.576	1244.436
1.571	18.802	1584.183	1249.503
2.586	18.596	1597.678	1258.525
3.600	16.856	1544.958	1204.534
4.615	8.892	1435.168	1066.068
5.629	1.175	1371.657	969.602
6.644	-0.170	1363.167	954.967
7.659	-0.233	1361.697	953.450
8.673	-0.346	1361.050	952.197
9.688	-0.381	1359.232	950.620
10.702	-0.501	1355.978	947.503
11.717	3.035	1363.161	974.888
12.731	12.298	1380.839	1046.727
13.746	19.628	1392.939	1102.771
14.761	21.509	1394.985	1116.308
15.775	21.872	1394.473	1118.111
16.790	21.903	1394.157	1117.958
17.804	21.951	1393.847	1117.917
18.819	22.173	1393.556	1118.998
19.834	22.231	1393.007	1118.828
20.848	22.322	1391.966	1118.472
21.863	22.277	1391.703	1117.877
22.877	22.208	1390.499	1116.371
23.892	22.312	1389.734	1116.319
24.907	22.361	1388.894	1115.854
25.921	22.319	1387.682	1114.515
26.936	22.338	1386.651	1113.709
27.950	22.401	1385.655	1113.210
28.965	22.306	1384.668	1111.719
29.980	22.207	1383.553	1110.097
30.994	22.335	1382.131	1109.663
32.009	22.348	1381.110	1108.833
33.023	22.232	1380.059	1107.156
34.038	22.245	1378.758	1106.098
35.053	22.246	1378.157	1105.523
36.067	22.385	1376.907	1105.297
37.082	22.302	1376.097	1104.025
38.096	22.182	1375.440	1102.650
39.111	22.298	1374.341	1102.397
40.126	22.268	1374.430	1102.183
41.140	22.257	1373.159	1100.998
42.155	22.104	1373.612	1100.307
43.169	22.196	1372.833	1100.162
44.184	22.265	1372.399	1100.146
45.199	22.107	1372.642	1099.253
46.213	22.293	1371.479	1099.392
47.228	22.310	1370.686	1098.761
48.242	22.183	1369.471	1096.900
49.257	22.312	1367.739	1096.218
50.271	22.276	1366.701	1095.064
51.286	22.275	1365.247	1093.795
52.301	22.236	1364.070	1092.517
53.315	22.198	1363.170	1091.464
54.330	22.313	1362.283	1091.369
55.344	22.254	1361.161	1090.005
56.359	22.257	1359.915	1088.933
57.374	22.269	1358.914	1088.107
58.388	22.233	1358.755	1087.660
59.403	22.315	1358.157	1087.593
60.417	22.215	1357.606	1086.439
61.432	22.272	1356.269	1085.627
62.447	22.207	1356.106	1084.999
63.461	22.262	1354.664	1084.085
64.476	22.209	1353.964	1083.104
65.490	22.247	1352.314	1081.925
66.505	22.385	1350.537	1081.254
67.520	22.283	1349.865	1079.990
68.534	22.166	1349.293	1078.722
69.549	22.218	1347.919	1077.846
70.563	22.323	1346.592	1077.330
71.578	22.221	1346.070	1076.197
72.593	22.177	1345.379	1075.275
73.607	22.338	1344.309	1075.312
74.622	22.305	1343.687	1074.517
75.636	22.273	1342.736	1073.469
76.651	22.268	1341.872	1072.649
77.666	22.255	1341.594	1072.254
78.680	22.365	1341.084	1072.424
79.695	22.254	1339.909	1070.712
80.709	22.274	1339.119	1070.110
81.724	22.269	1338.635	1069.597
82.739	22.237	1337.354	1068.283
83.753	22.204	1336.906	1067.629
84.768	22.251	1335.623	1066.799
85.782	22.309	1334.618	1066.254
86.797	22.301	1333.179	1064.958
87.812	22.359	1332.045	1064.311
88.826	22.284	1331.047	1062.965
89.841	22.373	1329.609	1062.260
90.855	22.328	1328.919	1061.340
91.870	22.436	1328.068	1061.223
92.884	22.283	1327.666	1059.885
93.899	22.325	1326.732	1059.296
94.914	22.357	1325.858	1058.699
95.928	22.315	1325.384	1057.973
96.943	22.412	1324.051	1057.400
97.957	22.401	1323.132	1056.504
98.972	22.391	1322.363	1055.739
99.987	22.322	1321.507	1054.544
101.001	22.172	1320.535	1052.779
102.016	22.285	1319.532	1052.559
103.030	22.385	1318.395	1052.160
104.045	22.372	1318.153	1051.793
105.060	22.338	1316.802	1050.421
106.074	22.306	1316.009	1049.506
107.089	22.374	1314.658	1048.743
108.103	22.432	1313.402	1047.991
109.118	22.410	1312.238	1046.841
110.133	22.383	1311.194	1045.753
111.147	22.389	1310.452	1045.104
112.162	22.431	1309.091	1044.174
113.176	22.501	1308.550	1044.068
114.191	22.450	1307.175	1042.573
115.206	22.415	1306.246	1041.533
116.220	22.378	1305.047	1040.269
117.235	22.328	1303.964	1039.016
118.249	22.362	1303.018	1038.372
119.264	22.338	1302.694	1037.878
120.279	22.381	1301.453	1037.054
121.293	22.472	1300.398	1036.659
122.308	22.454	1299.994	1036.136
123.322	22.502	1298.550	1035.177
124.337	22.407	1298.256	1034.293
125.352	22.386	1297.015	1033.090
126.366	22.487	1295.968	1032.756
127.381	22.481	1294.866	1031.753
128.395	22.437	1294.288	1030.941
129.410	22.570	1293.036	1030.634
130.424	22.451	1292.719	1029.593
131.439	22.442	1291.653	1028.597
132.454	22.404	1291.033	1027.789
133.468	22.391	1290.307	1027.050
134.483	22.398	1289.811	1026.604
135.497	22.426	1288.958	1025.995
136.512	22.360	1287.849	1024.638
137.527	22.448	1286.634	1024.096
138.541	22.453	1285.116	1022.823
139.556	22.453	1283.927	1021.788
140.570	22.339	1282.998	1020.298
141.585	22.299	1282.131	1019.282
142.600	22.378	1280.675	1018.493
143.614	22.404	1280.161	1018.144
144.629	22.395	1278.958	1017.048
145.643	22.281	1278.186	1015.685
146.658	22.312	1277.257	1015.035
147.673	22.467	1275.450	1014.403
148.687	22.217	1275.260	1012.724
149.702	22.253	1274.267	1012.052
150.716	22.312	1272.808	1011.139
151.731	22.492	1271.688	1011.194
152.746	22.411	1270.523	1009.717
153.760	22.440	1269.392	1008.892
154.775	22.434	1268.633	1008.166
155.789	22.479	1267.695	1007.586
156.804	22.420	1266.904	1006.536
157.819	22.518	1265.462	1005.858
158.833	22.431	1265.327	1005.164
159.848	22.458	1264.716	1004.746
160.862	22.509	1263.482	1003.965
161.877	22.408	1262.739	1002.715
162.892	22.591	1261.501	1002.682
163.906	22.579	1260.672	1001.868
164.921	22.613	1260.705	1001.995
165.935	22.575	1259.601	1000.816
166.950	22.567	1258.687	999.956
167.964	22.590	1258.171	999.584
168.979	22.563	1257.878	999.112
169.994	22.574	1257.318	998.640
171.008	22.627	1256.218	997.980
172.023	22.593	1255.764	997.338
173.037	22.688	1254.577	996.843
174.052	22.735	1253.760	996.371
175.067	22.642	1253.301	995.393
176.081	22.606	1252.585	994.532
177.096	22.587	1252.041	993.907
178.110	22.696	1250.412	993.140
179.125	22.719	1249.390	992.371
180.140	22.578	1248.754	990.981
181.154	22.608	1247.351	989.951
182.169	22.671	1246.225	989.326
183.183	22.603	1245.475	988.257
184.198	22.742	1244.284	988.008
185.213	22.582	1243.657	986.527
186.227	22.598	1242.768	985.822
187.242	22.581	1241.879	984.933
188.256	22.633	1241.037	984.469
189.271	22.726	1239.972	984.055
190.286	22.715	1239.537	983.561
191.300	22.630	1238.897	982.494
192.315	22.613	1238.413	981.929
193.329	22.642	1237.813	981.530
194.344	22.607	1237.555	981.042
195.359	22.693	1236.700	980.757
196.373	22.600	1236.551	980.035
197.388	22.564	1236.436	979.656
198.402	22.627	1235.776	979.394
199.417	22.667	1235.081	978.979
200.432	22.581	1234.541	977.987
201.446	22.762	1233.510	978.091
202.461	22.721	1232.937	977.323
203.475	22.656	1232.313	976.382
204.490	22.735	1231.477	976.071
205.504	22.669	1230.201	974.607
206.519	22.746	1229.102	974.072
207.534	22.628	1228.447	972.818
208.548	22.714	1227.297	972.292
209.563	22.677	1226.815	971.620
210.577	22.738	1225.908	971.153
211.592	22.714	1225.166	970.347
212.607	22.815	1224.487	970.281
213.621	22.768	1223.895	969.465
214.636	22.692	1222.823	968.116
215.650	22.823	1221.940	968.046
216.665	22.730	1221.097	966.784
217.680	22.693	1220.555	966.067
218.694	22.837	1219.551	965.976
219.709	22.819	1218.976	965.337
220.723	22.857	1217.898	964.606
221.738	22.763	1217.513	963.703
222.753	22.787	1216.720	963.117
223.767	22.809	1216.307	962.825
224.782	22.756	1215.913	962.140
225.796	22.967	1215.274	962.698
226.811	22.895	1214.192	961.365
227.826	22.945	1214.096	961.476
228.840	22.859	1213.341	960.325
229.855	22.797	1212.711	959.406
230.869	22.820	1211.870	958.782
231.884	22.861	1211.035	958.257
232.899	22.967	1210.076	957.989
233.913	23.061	1209.106	957.646
234.928	22.937	1209.103	956.886
235.942	23.012	1208.413	956.659
236.957	22.939	1207.883	955.764
237.972	22.964	1206.899	955.035
238.986	22.931	1206.458	954.420
240.001	23.037	1205.914	954.480
241.015	23.030	1205.080	953.696
242.030	23.017	1204.351	952.965
243.045	23.142	1203.229	952.668
244.059	23.010	1203.038	951.721
245.074	23.007	1202.281	951.022
246.088	23.127	1201.292	950.800
247.103	23.051	1200.658	949.806
248.117	23.115	1199.726	949.330
249.132	23.125	1198.778	948.549
250.147	23.072	1198.481	947.942
251.161	23.154	1197.436	947.474
252.176	23.085	1196.676	946.418
253.190	23.092	1196.439	946.184
254.205	23.120	1195.488	945.497
255.220	23.140	1195.152	945.254
256.234	23.174	1194.649	944.957
257.249	23.184	1193.601	944.098
258.263	23.231	1192.895	943.703
259.278	23.192	1192.720	943.276
260.293	23.229	1192.152	942.940
261.307	23.084	1191.915	941.898
262.322	23.260	1190.687	941.782
263.336	23.192	1190.297	941.028
264.351	23.174	1189.638	940.329
265.366	23.259	1188.727	939.974
266.380	23.141	1188.530	939.112
267.395	23.149	1187.877	938.552
268.409	23.238	1187.090	938.319
269.424	23.188	1186.634	937.613
270.439	23.170	1186.523	937.344
271.453	23.344	1185.444	937.329
272.468	23.200	1184.690	935.888
273.482	23.184	1184.003	935.179
274.497	23.259	1183.452	935.060
275.512	23.267	1182.523	934.282
276.526	23.273	1181.978	933.803
277.541	23.310	1181.392	933.452
278.555	23.271	1181.378	933.152
279.570	23.349	1180.370	932.681
280.585	23.274	1179.200	931.284
281.599	23.404	1178.426	931.271
282.614	23.294	1177.709	930.043
283.628	23.374	1176.748	929.621
284.643	23.393	1176.023	929.070
285.657	23.224	1175.392	927.604
286.672	23.291	1174.486	927.154
287.687	23.320	1173.909	926.772
288.701	23.435	1173.010	926.579
289.716	23.507	1172.020	926.093
290.730	23.427	1171.314	925.035
291.745	23.419	1170.447	924.224
292.760	23.400	1170.565	924.138
293.774	23.491	1169.576	923.750
294.789	23.547	1169.248	923.702
295.803	23.426	1169.033	922.819
296.818	23.495	1167.981	922.263
297.833	23.423	1167.741	921.622
298.847	23.423	1166.527	920.579
299.862	23.462	1165.875	920.188
300.876	23.461	1165.109	919.494
301.891	23.597	1164.497	919.637
302.906	23.535	1164.090	918.913
303.920	23.666	1163.002	918.649
304.935	23.617	1162.686	918.068
305.949	23.611	1162.101	917.493
306.964	23.613	1161.795	917.178
307.979	23.545	1161.094	916.194
308.993	23.585	1160.281	915.675
310.008	23.553	1159.382	914.721
311.022	23.538	1158.842	914.140
312.037	23.690	1157.704	913.942
313.052	23.522	1157.165	912.569
314.066	23.523	1156.503	911.975
315.081	23.625	1155.634	911.733
316.095	23.653	1154.814	911.148
317.110	23.716	1154.252	910.946
318.125	23.811	1153.285	910.587
319.139	23.644	1152.964	909.399
320.154	23.617	1152.561	908.863
321.168	23.615	1151.767	908.145
322.183	23.656	1151.345	907.942
323.197	23.592	1150.784	907.094
324.212	23.697	1150.075	906.991
325.227	23.673	1149.872	906.626
326.241	23.704	1149.303	906.259
327.256	23.796	1148.262	905.827
328.270	23.794	1147.381	905.038
329.285	23.705	1147.030	904.229
330.300	23.705	1146.020	903.354
331.314	23.726	1145.390	902.882
332.329	23.811	1144.374	902.433
333.343	23.813	1143.510	901.682
334.358	23.848	1142.641	901.094
335.373	23.884	1142.344	900.966
336.387	23.820	1142.011	900.298
337.402	23.909	1141.012	899.881
338.416	23.984	1140.098	899.458
339.431	23.898	1139.734	898.659
340.446	23.920	1139.240	898.301
341.460	23.942	1138.262	897.558
342.475	24.008	1137.749	897.410
343.489	23.906	1136.773	896.048
344.504	23.997	1135.604	895.505
345.519	23.999	1134.826	894.821
346.533	23.928	1134.460	894.096
347.548	23.857	1134.154	893.420
348.562	24.046	1132.697	893.142
349.577	24.051	1132.357	892.819
350.592	23.939	1131.431	891.450
351.606	23.990	1130.443	890.848
352.621	24.002	1130.326	890.734
353.635	23.993	1129.784	890.186
354.650	24.105	1128.893	889.961
355.665	24.101	1128.331	889.419
356.679	24.181	1127.820	889.340
357.694	24.051	1127.361	888.249
358.708	24.089	1126.456	887.649
359.723	24.036	1125.834	886.813
360.738	24.079	1125.267	886.504
361.752	24.179	1124.422	886.257
362.767	24.187	1123.970	885.862
363.781	24.164	1123.670	885.432
364.796	24.204	1122.781	884.852
365.810	24.252	1122.256	884.599
366.825	24.268	1121.621	884.102
367.840	24.217	1121.324	883.536
368.854	24.230	1120.794	883.104
369.869	24.178	1120.613	882.625
370.883	24.152	1119.804	881.780
371.898	24.325	1118.200	881.294
372.913	24.248	1117.698	880.439
373.927	24.247	1117.585	880.270
374.942	24.385	1116.667	880.148
375.956	24.322	1116.176	879.376
376.971	24.273	1115.886	878.824
377.986	24.421	1115.097	878.853
379.000	24.450	1114.443	878.404
380.015	24.519	1113.740	878.110
381.029	24.324	1113.583	876.951
382.044	24.339	1112.639	876.205
383.059	24.390	1111.992	875.870
384.073	24.410	1111.418	875.434
385.088	24.309	1110.900	874.455
386.102	24.444	1109.906	874.259
387.117	24.438	1108.657	873.166
388.132	24.477	1107.819	872.622
389.146	24.476	1107.389	872.199
390.161	24.564	1106.621	871.945
391.175	24.544	1106.039	871.315
392.190	24.513	1105.333	870.529
393.205	24.551	1104.765	870.189
394.219	24.594	1103.718	869.495
395.234	24.509	1102.756	868.249
396.248	24.579	1102.182	868.061
397.263	24.663	1100.974	867.440
398.278	24.712	1101.014	867.632
399.292	24.636	1100.313	866.635
400.307	24.583	1099.680	865.803
401.321	24.614	1099.052	865.382
402.336	24.575	1098.380	864.588
403.350	24.663	1097.540	864.276
404.365	24.675	1097.006	863.834
405.380	24.721	1096.298	863.425
406.394	24.654	1095.751	862.595
407.409	24.776	1094.890	862.426
408.423	24.731	1094.044	861.468
409.438	24.794	1093.372	861.169
410.453	24.773	1092.669	860.436
411.467	24.674	1092.072	859.413
412.482	24.622	1091.616	858.729
413.496	24.795	1090.656	858.731
414.511	24.752	1090.455	858.289
415.526	24.844	1089.849	858.174
416.540	24.912	1089.249	857.954
417.555	24.885	1088.673	857.292
418.569	24.837	1088.183	856.603
419.584	24.800	1088.237	856.393
420.599	24.842	1087.644	856.051
421.613	148.345	1403.301	1798.988
422.628	137.158	1449.264	1799.064
