DTS Sentinel unit serial number:	SN413079Multiplexer serial number:	ORYXHardware model number:	OX4-SRSoftware version number:	ORYX F/W v4.00 Oryx Data Collector v3.7.2.0data status	okinstallation	princeton_trtdifferential loss correction	single-endedforward channel	channel 2reverse channel	N/Adate	2019/09/13time	15:55:35forward acquisition time	60.00reverse acquisition time	0.00gamma	496.2192k internal	0.2316k external	0.2316temperature offset calibration	1.0212default loss term (dB/km)	0.3790temperature slope calibration	1.0000multiplexer offset coefficient	1.0000multiplexer slope coefficient	1.0000fibre end	0.00T internal ref (°C)	34.62T ext. ref 1 (°C)	4.80T ext. ref 2 (°C)	30.65length (m)	temperature (°C)	Stokes	anti-Stokes-747.200	-200.000	-0.002	-0.084
-746.185	-6.163	-0.199	0.137
-745.171	-111.735	-0.272	-0.056
-744.156	47.925	0.137	-0.130
-743.142	158.848	0.149	-0.210
-742.127	431.748	-0.147	0.323
-741.112	-200.000	0.007	-0.081
-740.098	-200.000	0.041	-0.519
-739.083	800.000	-0.006	-0.021
-738.069	-130.706	-0.117	-0.016
-737.054	-200.000	0.017	-0.119
-736.039	-200.000	-0.040	-0.366
-735.025	-200.000	0.006	0.439
-734.010	800.000	-0.066	-0.204
-732.996	146.054	-0.132	-0.179
-731.981	55.224	-0.031	0.030
-730.966	-200.000	-0.023	0.222
-729.952	3.299	-0.313	-0.231
-728.937	-186.271	0.195	0.003
-727.923	-200.000	-0.045	-0.218
-726.908	-11.839	-0.192	0.127
-725.894	800.000	-0.068	-0.222
-724.879	-3.760	-0.327	0.230
-723.864	499.457	0.094	0.219
-722.850	502.309	-0.136	-0.317
-721.835	676.247	0.199	-0.523
-720.821	-124.861	-0.390	-0.061
-719.806	-68.802	0.274	0.107
-718.791	-64.754	-0.026	-0.011
-717.777	-97.553	-0.241	-0.063
-716.762	-1.742	0.101	-0.072
-715.748	800.000	-0.083	-0.316
-714.733	635.380	-0.104	-0.267
-713.718	21.179	0.106	0.087
-712.704	35.150	0.259	-0.230
-711.689	90.080	-0.113	-0.128
-710.675	406.447	0.132	0.282
-709.660	112.283	-0.182	-0.222
-708.645	-73.171	0.331	0.123
-707.631	-32.179	-0.233	0.132
-706.616	63.013	0.106	0.108
-705.602	128.858	-0.091	0.117
-704.587	-127.658	0.158	0.023
-703.572	800.000	-0.101	0.284
-702.558	-82.946	0.280	0.091
-701.543	781.767	-0.088	-0.243
-700.529	-70.973	0.293	-0.112
-699.514	-33.860	-0.312	0.174
-698.499	-170.093	-0.505	0.018
-697.485	-200.000	-0.009	0.168
-696.470	-145.230	0.067	0.006
-695.456	-91.218	0.205	-0.059
-694.441	-200.000	-0.007	0.089
-693.426	53.633	-0.177	0.172
-692.412	-121.781	-0.493	-0.082
-691.397	475.935	-0.111	0.253
-690.383	-195.309	-0.085	0.001
-689.368	754.897	0.145	-0.396
-688.354	-36.686	-0.300	-0.163
-687.339	181.329	0.023	0.034
-686.324	-200.000	-0.005	-0.426
-685.310	-165.559	-0.177	-0.008
-684.295	-200.000	-0.005	0.254
-683.281	-23.769	-0.377	0.228
-682.266	-200.000	-0.051	-0.289
-681.251	106.087	0.233	-0.278
-680.237	-101.986	-0.091	-0.022
-679.222	145.116	-0.085	-0.115
-678.208	-5.791	0.066	0.046
-677.193	82.279	-0.067	-0.074
-676.178	800.000	0.063	0.184
-675.164	-164.474	-0.185	0.009
-674.149	-57.602	0.148	-0.065
-673.135	184.610	-0.199	0.298
-672.120	-200.000	0.053	0.271
-671.105	62.942	0.033	0.033
-670.091	-92.239	-0.416	-0.118
-669.076	-34.634	-0.055	0.030
-668.062	119.463	0.058	0.072
-667.047	-200.000	-0.015	-0.088
-666.032	77.243	-0.140	0.150
-665.018	-123.868	0.070	0.011
-664.003	-200.000	-0.003	0.203
-662.989	-32.898	-0.285	0.160
-661.974	800.000	-0.046	-0.159
-660.959	-200.000	0.083	-0.423
-659.945	-200.000	0.009	-0.079
-658.930	-70.062	-0.091	0.035
-657.916	-84.149	-0.162	-0.052
-656.901	-122.636	0.131	0.021
-655.886	123.198	-0.146	-0.185
-654.872	-42.294	-0.368	-0.190
-653.857	-94.843	0.220	0.060
-652.843	-105.057	-0.383	-0.088
-651.828	-200.000	0.022	-0.272
-650.814	537.553	-0.105	0.252
-649.799	800.000	-0.028	-0.081
-648.784	-200.000	-0.112	-0.503
-647.770	-200.000	0.036	-0.176
-646.755	66.966	-0.300	-0.308
-645.741	-122.249	0.162	-0.027
-644.726	-147.579	-0.250	0.021
-643.711	8.751	0.163	0.124
-642.697	-16.053	0.144	-0.092
-641.682	-200.000	0.021	-0.266
-640.668	-96.580	-0.238	0.063
-639.653	-107.478	-0.315	-0.070
-638.638	-200.000	-0.083	-0.487
-637.624	96.339	-0.075	0.086
-636.609	-200.000	-0.024	0.268
-635.595	-9.303	0.066	0.044
-634.580	-84.606	-0.169	-0.054
-633.565	121.675	-0.172	-0.216
-632.551	360.419	0.018	-0.035
-631.536	-119.467	0.198	0.035
-630.522	-200.000	0.028	-0.285
-629.507	-200.000	-0.015	-0.093
-628.492	-41.036	-0.318	-0.166
-627.478	257.611	-0.218	-0.377
-626.463	730.785	-0.083	-0.225
-625.449	420.053	0.022	-0.047
-624.434	-102.308	-0.153	-0.037
-623.419	199.981	-0.130	-0.201
-622.405	-67.055	-0.256	0.102
-621.390	-28.342	-0.126	0.074
-620.376	-96.514	-0.161	-0.043
-619.361	-136.231	-0.436	-0.051
-618.346	50.486	0.100	-0.096
-617.332	-90.040	0.316	0.093
-616.317	-54.828	-0.171	0.078
-615.303	410.843	0.030	-0.063
-614.288	-121.921	0.101	0.017
-613.273	-200.000	0.022	0.132
-612.259	-13.024	-0.253	-0.166
-611.244	800.000	-0.069	0.204
-610.230	800.000	0.069	-0.267
-609.215	427.343	0.041	-0.090
-608.201	-152.259	0.298	0.022
-607.186	-106.599	-0.160	0.036
-606.171	764.140	0.043	0.116
-605.157	-73.945	0.140	0.051
-604.142	800.000	-0.030	0.086
-603.128	-43.281	0.133	0.068
-602.113	-117.869	0.320	-0.058
-601.098	600.119	-0.152	0.379
-600.084	-108.841	-0.306	0.066
-599.069	-98.783	-0.244	-0.063
-598.055	34.192	-0.154	-0.135
-597.040	-112.066	0.363	-0.074
-596.025	800.000	-0.073	0.254
-595.011	425.077	0.078	0.169
-593.996	568.723	0.119	0.291
-592.982	202.367	-0.075	0.117
-591.967	-40.658	0.225	-0.117
-590.952	77.826	-0.052	0.055
-589.938	-200.000	-0.028	-0.125
-588.923	19.323	-0.355	0.287
-587.909	48.222	-0.282	-0.266
-586.894	-112.493	-0.109	0.022
-585.879	254.902	-0.083	0.144
-584.865	121.375	0.108	0.135
-583.850	643.708	-0.075	0.194
-582.836	99.534	-0.179	0.208
-581.821	-200.000	-0.011	-0.073
-580.806	188.015	0.140	-0.211
-579.792	-90.510	-0.234	0.068
-578.777	800.000	0.112	0.461
-577.763	800.000	0.026	0.081
-576.748	82.657	-0.086	-0.094
-575.733	16.985	0.186	-0.149
-574.719	-64.984	-0.116	-0.047
-573.704	538.851	-0.050	-0.119
-572.690	-200.000	-0.045	-0.407
-571.675	-47.157	0.269	-0.132
-570.661	-200.000	-0.043	-0.248
-569.646	-98.211	-0.350	-0.091
-568.631	-81.653	0.114	-0.038
-567.617	-149.384	-0.179	0.014
-566.602	-87.003	-0.227	0.070
-565.588	-145.789	0.082	0.007
-564.573	-161.706	0.056	0.003
-563.558	-58.835	0.008	0.003
-562.544	-84.919	-0.440	0.139
-561.529	250.255	-0.021	-0.037
-560.515	149.862	0.021	-0.028
-559.500	-125.983	0.236	0.036
-558.485	800.000	0.091	-0.320
-557.471	-200.000	0.212	-0.001
-556.456	-200.000	-0.093	-0.448
-555.442	-35.249	-0.253	-0.138
-554.427	-200.000	0.024	-0.157
-553.412	-145.941	-0.215	-0.019
-552.398	-200.000	0.001	-0.193
-551.383	-200.000	0.021	0.275
-550.369	-87.569	0.331	0.101
-549.354	800.000	0.067	-0.225
-548.339	379.013	0.074	0.153
-547.325	187.232	-0.136	-0.204
-546.310	470.011	0.080	0.180
-545.296	-108.774	-0.244	0.052
-544.281	230.930	-0.065	0.106
-543.266	-200.000	-0.007	0.184
-542.252	26.845	-0.176	-0.148
-541.237	618.105	0.125	0.315
-540.223	-140.968	-0.109	-0.011
-539.208	-139.711	-0.263	0.028
-538.193	-200.000	0.014	0.168
-537.179	105.946	-0.233	0.277
-536.164	276.037	0.208	0.370
-535.150	-31.252	0.063	-0.036
-534.135	-61.230	0.132	0.056
-533.121	425.140	0.056	-0.121
-532.106	-105.396	-0.091	0.021
-531.091	-30.806	0.085	0.048
-530.077	-83.338	-0.192	-0.062
-529.062	800.000	0.101	0.297
-528.048	-15.562	-0.193	-0.124
-527.033	-103.886	0.316	0.074
-526.018	617.656	-0.119	0.300
-525.004	44.978	0.159	0.147
-523.989	-111.914	-0.115	-0.023
-522.975	311.782	0.028	-0.052
-521.960	-151.437	-0.109	-0.008
-520.945	472.950	-0.105	0.239
-519.931	-100.178	-0.268	0.067
-518.916	-144.143	0.198	0.019
-517.902	-148.851	0.452	0.037
-516.887	-200.000	-0.008	-0.322
-515.872	800.000	0.034	-0.141
-514.858	70.301	0.153	-0.158
-513.843	219.017	0.224	-0.359
-512.829	18.786	-0.379	0.305
-511.814	-200.000	0.059	-0.269
-510.799	95.580	-0.162	-0.186
-509.785	-9.776	-0.294	0.197
-508.770	204.769	0.069	0.107
-507.756	71.439	0.090	-0.094
-506.741	-34.196	-0.075	0.042
-505.726	-72.334	0.048	-0.018
-504.712	-145.655	0.059	0.005
-503.697	-32.315	0.112	-0.063
-502.683	-200.000	0.008	0.248
-501.668	28.472	-0.084	-0.072
-500.653	-133.131	-0.124	-0.016
-499.639	-200.000	-0.026	-0.226
-498.624	800.000	-0.034	-0.110
-497.610	-67.899	-0.063	0.025
-496.595	-145.707	-0.248	0.022
-495.581	58.935	0.118	0.117
-494.566	-83.522	0.091	-0.029
-493.551	-73.583	0.267	0.098
-492.537	-176.968	-0.255	-0.006
-491.522	326.797	-0.107	-0.205
-490.508	-200.000	-0.020	-0.274
-489.493	-36.282	-0.224	-0.121
-488.478	4.941	0.195	0.144
-487.464	-72.025	-0.311	0.116
-486.449	-69.187	0.159	0.061
-485.435	47.483	0.144	-0.135
-484.420	-153.800	0.282	0.019
-483.405	155.462	-0.145	0.200
-482.391	14.994	-0.103	0.081
-481.376	-61.675	-0.318	-0.134
-480.362	-0.016	-0.262	-0.187
-479.347	87.980	0.163	-0.181
-478.332	575.670	-0.075	-0.184
-477.318	-73.785	0.237	-0.087
-476.303	-102.870	0.389	0.093
-475.289	-63.088	0.125	-0.052
-474.274	147.423	-0.165	-0.222
-473.259	261.003	-0.115	0.200
-472.245	-79.379	-0.208	0.071
-471.230	-30.531	-0.077	0.044
-470.216	-41.501	-0.138	-0.071
-469.201	-200.000	-0.007	0.062
-468.186	-200.000	-0.001	-0.130
-467.172	-59.327	0.128	0.055
-466.157	-3.609	-0.166	-0.116
-465.143	-200.000	-0.006	-0.065
-464.128	237.887	0.035	0.057
-463.113	-200.000	-0.016	-0.407
-462.099	-200.000	0.042	-0.291
-461.084	40.364	0.203	0.183
-460.070	-200.000	-0.029	0.335
-459.055	440.749	-0.116	0.253
-458.040	409.009	0.104	0.220
-457.026	800.000	-0.076	-0.210
-456.011	-186.316	0.230	-0.003
-454.997	-200.000	-0.057	0.268
-453.982	224.302	0.112	-0.181
-452.968	-200.000	0.026	0.182
-451.953	-89.846	0.194	-0.057
-450.938	-3.293	-0.144	0.100
-449.924	-89.113	-0.152	-0.045
-448.909	-200.000	0.009	-0.222
-447.895	328.939	0.113	0.217
-446.880	383.117	-0.140	0.289
-445.865	97.553	-0.163	-0.188
-444.851	-32.787	0.160	-0.089
-443.836	-200.000	0.011	0.157
-442.822	800.000	0.034	-0.113
-441.807	800.000	0.075	-0.281
-440.792	800.000	-0.048	0.158
-439.778	-33.234	0.080	0.045
-438.763	-47.572	-0.024	-0.012
-437.749	61.960	0.034	0.034
-436.734	72.555	-0.239	-0.250
-435.719	-160.565	-0.134	-0.007
-434.705	800.000	0.060	-0.167
-433.690	-200.000	-0.028	0.128
-432.676	-113.634	-0.364	0.071
-431.661	110.505	0.070	-0.084
-430.646	-182.554	-0.237	0.004
-429.632	-200.000	0.005	0.131
-428.617	75.748	0.389	-0.412
-427.603	-200.000	-0.009	0.371
-426.588	80.623	0.239	0.258
-425.573	-91.588	0.121	-0.035
-424.559	24.383	-0.030	0.025
-423.544	-38.171	0.148	0.079
-422.530	-18.850	-0.142	-0.088
-421.515	-27.070	0.086	-0.050
-420.500	144.420	0.190	0.253
-419.486	-115.337	-0.168	0.032
-418.471	-90.451	0.163	-0.047
-417.457	-200.000	-0.017	-0.152
-416.442	800.000	-0.071	0.264
-415.428	-95.331	0.272	0.073
-414.413	-103.265	-0.142	-0.033
-413.398	-74.631	-0.262	-0.094
-412.384	-79.236	-0.018	0.006
-411.369	-200.000	-0.004	-0.287
-410.355	490.819	0.163	-0.373
-409.340	-12.578	0.057	0.037
-408.325	119.099	-0.022	0.027
-407.311	-41.053	0.157	-0.081
-406.296	15.474	0.278	0.218
-405.282	-200.000	-0.021	0.118
-404.267	800.000	0.127	0.394
-403.252	-200.000	0.007	0.191
-402.238	104.502	-0.136	-0.160
-401.223	123.362	0.158	-0.198
-400.209	104.844	-0.120	-0.142
-399.194	-80.949	0.058	0.019
-398.179	800.000	0.024	0.088
-397.165	-71.823	0.108	-0.040
-396.150	126.513	0.261	-0.330
-395.136	-80.542	0.250	-0.083
-394.121	-84.373	0.117	-0.037
-393.106	568.170	-0.030	0.073
-392.092	65.578	-0.120	0.121
-391.077	-117.804	-0.285	-0.051
-390.063	2.402	0.271	0.196
-389.048	-132.510	-0.134	0.017
-388.033	800.000	0.042	-0.152
-387.019	18.444	0.045	0.036
-386.004	-32.645	0.356	-0.198
-384.990	-45.239	0.079	-0.039
-383.975	183.933	-0.098	-0.145
-382.960	173.966	0.189	-0.272
-381.946	-139.292	0.261	0.028
-380.931	71.873	-0.198	0.206
-379.917	25.749	-0.078	0.065
-378.902	167.959	-0.167	0.237
-377.888	511.867	0.061	-0.141
-376.873	151.219	0.029	-0.040
-375.858	157.804	-0.142	0.196
-374.844	-123.536	-0.229	0.036
-373.829	75.954	-0.218	0.231
-372.815	190.382	0.103	-0.154
-371.800	160.700	-0.056	-0.078
-370.785	-14.726	-0.144	0.092
-369.771	800.000	0.041	0.123
-368.756	-101.661	-0.142	0.034
-367.742	-200.000	0.040	0.213
-366.727	496.787	0.080	0.185
-365.712	112.771	0.126	0.152
-364.698	-200.000	-0.016	0.072
-363.683	-200.000	-0.011	0.236
-362.669	124.488	0.098	-0.123
-361.654	-155.214	-0.252	-0.016
-360.639	-200.000	-0.014	0.280
-359.625	610.333	-0.099	0.246
-358.610	12.451	-0.160	0.123
-357.596	134.860	-0.094	0.122
-356.581	800.000	0.030	-0.131
-355.566	-200.000	-0.039	-0.285
-354.552	-40.240	0.366	0.190
-353.537	166.295	-0.048	0.068
-352.523	94.926	0.119	-0.135
-351.508	273.614	0.211	-0.371
-350.493	290.593	-0.060	0.109
-349.479	321.920	-0.056	-0.106
-348.464	105.433	0.299	0.352
-347.450	16.295	0.205	-0.161
-346.435	-196.046	0.202	0.001
-345.420	-173.472	0.092	-0.003
-344.406	500.773	-0.159	0.367
-343.391	-200.000	0.071	-0.362
-342.377	158.365	0.140	-0.193
-341.362	80.919	0.060	-0.064
-340.348	-61.869	-0.296	0.123
-339.333	18.916	-0.306	-0.245
-338.318	-141.323	0.178	-0.018
-337.304	-69.588	-0.267	0.102
-336.289	-200.000	-0.001	0.436
-335.275	21.006	0.203	0.164
-334.260	-7.592	0.212	-0.143
-333.245	-115.081	-0.226	0.043
-332.231	800.000	-0.034	-0.111
-331.216	-59.367	-0.164	-0.070
-330.202	80.792	-0.223	0.240
-329.187	-200.000	-0.030	-0.325
-328.172	179.653	-0.200	-0.292
-327.158	800.000	-0.133	-0.496
-326.143	800.000	0.051	0.149
-325.129	800.000	0.037	-0.110
-324.114	234.871	-0.087	0.143
-323.099	-200.000	0.105	-0.000
-322.085	-16.595	-0.281	-0.177
-321.070	-135.996	-0.559	-0.065
-320.056	452.360	0.114	-0.252
-319.041	-200.000	0.015	0.175
-318.026	800.000	0.086	0.376
-317.012	-110.176	-0.234	-0.049
-315.997	742.872	-0.127	-0.341
-314.983	-110.971	-0.029	-0.006
-313.968	-10.861	0.109	-0.072
-312.953	-57.286	0.443	-0.194
-311.939	415.516	0.106	-0.226
-310.924	28.058	-0.091	0.076
-309.910	-86.949	0.171	0.052
-308.895	30.989	-0.258	-0.220
-307.880	363.631	0.110	-0.219
-306.866	-200.000	0.021	-0.096
-305.851	-42.090	0.156	0.080
-304.837	4.832	0.188	0.138
-303.822	-200.000	0.022	0.110
-302.807	347.827	-0.135	0.264
-301.793	-18.009	-0.165	0.103
-300.778	-100.669	0.520	-0.128
-299.764	800.000	-0.075	-0.232
-298.749	-79.294	0.110	0.037
-297.735	-95.496	0.243	-0.065
-296.720	800.000	-0.026	-0.086
-295.705	41.046	0.133	0.119
-294.691	-66.871	0.166	0.065
-293.676	-200.000	0.009	-0.059
-292.662	-61.442	0.248	-0.104
-291.647	206.667	0.212	0.329
-290.632	215.434	-0.257	0.406
-289.618	-151.666	0.252	-0.018
-288.603	255.052	0.157	0.268
-287.589	-147.971	-0.211	0.017
-286.574	76.432	-0.124	0.131
-285.559	84.510	0.067	-0.073
-284.545	5.246	-0.122	0.089
-283.530	342.517	0.089	0.173
-282.516	-115.826	0.299	-0.056
-281.501	-146.998	0.442	0.038
-280.486	-76.523	0.221	-0.077
-279.472	473.211	-0.096	0.215
-278.457	-115.585	-0.259	0.048
-277.443	22.444	0.163	0.133
-276.428	61.189	0.465	0.459
-275.413	800.000	0.043	0.164
-274.399	-167.906	-0.390	-0.015
-273.384	-152.343	0.448	0.032
-272.370	211.172	0.023	0.037
-271.355	120.670	-0.118	-0.146
-270.340	119.751	-0.291	0.358
-269.326	71.489	0.089	0.092
-268.311	-200.000	-0.003	-0.328
-267.297	469.915	0.101	-0.225
-266.282	-166.923	0.303	0.012
-265.267	800.000	0.128	0.384
-264.253	-160.129	0.177	0.010
-263.238	-87.396	-0.250	-0.075
-262.224	-29.829	0.412	0.233
-261.209	-124.008	0.342	0.053
-260.195	95.546	0.151	-0.172
-259.180	181.376	0.117	0.171
-258.165	256.905	-0.040	0.069
-257.151	-98.898	0.240	0.061
-256.136	200.024	-0.080	0.122
-255.122	24.831	-0.151	0.124
-254.107	102.739	0.191	0.222
-253.092	-9.818	-0.365	0.241
-252.078	111.361	-0.069	-0.082
-251.063	-200.000	-0.016	0.203
-250.049	34.011	0.213	0.184
-249.034	156.503	0.080	-0.110
-248.019	800.000	0.075	0.326
-247.005	23.882	-0.147	0.120
-245.990	112.752	-0.076	0.092
-244.976	174.340	0.083	-0.119
-243.961	-148.234	-0.041	-0.003
-242.946	-104.600	-0.332	0.076
-241.932	-200.000	-0.057	0.263
-240.917	-200.000	0.008	-0.082
-239.903	76.563	-0.083	-0.088
-238.888	44.135	0.169	0.154
-237.873	-51.131	0.092	0.043
-236.859	-200.000	0.084	-0.372
-235.844	-200.000	-0.051	0.397
-234.830	-200.000	-0.013	-0.152
-233.815	5.048	0.156	0.114
-232.800	305.334	-0.064	-0.119
-231.786	-167.970	-0.308	-0.012
-230.771	232.779	-0.099	0.162
-229.757	-20.762	0.063	-0.038
-228.742	-47.308	-0.058	-0.028
-227.727	406.966	0.123	-0.258
-226.713	-200.000	-0.051	-0.269
-225.698	247.578	-0.143	0.240
-224.684	-96.325	0.148	0.039
-223.669	-200.000	0.068	-0.383
-222.655	381.514	0.095	0.194
-221.640	307.381	-0.200	0.370
-220.625	-73.527	-0.135	0.049
-219.611	-200.000	-0.034	-0.165
-218.596	78.639	-0.094	-0.099
-217.582	38.066	0.207	0.183
-216.567	186.488	0.154	-0.227
-215.552	-118.966	0.249	-0.043
-214.538	90.906	-0.193	-0.215
-213.523	-200.000	0.062	-0.314
-212.509	-59.275	-0.105	0.045
-211.494	-68.701	0.278	-0.107
-210.479	14.220	0.184	0.142
-209.465	-39.260	0.073	0.038
-208.450	800.000	-0.056	0.200
-207.436	800.000	0.066	-0.218
-206.421	138.697	0.145	-0.189
-205.406	-104.527	0.099	0.023
-204.392	-114.616	-0.421	0.080
-203.377	159.624	0.050	0.068
-202.363	-116.807	0.215	-0.039
-201.348	62.087	-0.029	-0.029
-200.333	-8.591	0.171	0.114
-199.319	23.261	0.171	-0.139
-198.304	-105.225	-0.342	0.077
-197.290	-157.726	-0.572	-0.034
-196.275	97.538	-0.040	-0.046
-195.260	-144.451	-0.192	0.018
-194.246	245.061	-0.138	0.231
-193.231	-168.532	-0.256	0.010
-192.217	-22.187	-0.084	0.051
-191.202	-200.000	-0.015	-0.144
-190.187	64.237	-0.243	-0.243
-189.173	-103.894	0.381	0.088
-188.158	-200.000	0.007	0.087
-187.144	-118.546	0.143	-0.025
-186.129	-114.620	0.271	-0.051
-185.114	43.234	0.179	0.162
-184.100	111.426	-0.117	0.140
-183.085	800.000	-0.032	-0.104
-182.071	-53.894	-0.077	-0.035
-181.056	67.088	-0.042	-0.042
-180.042	159.785	0.158	-0.218
-179.027	-5.987	0.215	0.146
-178.012	-168.894	0.082	-0.003
-176.998	-138.250	0.113	-0.012
-175.983	126.655	0.106	0.133
-174.969	-87.304	-0.060	0.018
-173.954	-30.890	0.092	0.051
-172.939	-39.876	-0.145	0.075
-171.925	-200.000	-0.073	0.320
-170.910	-116.374	0.149	0.027
-169.896	-13.628	-0.188	-0.121
-168.881	-200.000	-0.015	-0.085
-167.866	54.534	0.126	0.120
-166.852	67.059	0.180	0.182
-165.837	16.524	0.317	0.248
-164.823	-65.276	0.181	0.072
-163.808	-122.253	-0.213	-0.034
-162.793	-200.000	0.066	-0.327
-161.779	-200.000	0.023	-0.454
-160.764	-200.000	-0.048	-0.360
-159.750	72.431	0.150	-0.154
-158.735	14.833	-0.115	0.089
-157.720	91.482	0.208	-0.231
-156.706	-93.022	-0.277	0.077
-155.691	122.658	-0.102	-0.127
-154.677	-51.464	-0.103	0.048
-153.662	-200.000	-0.042	-0.298
-152.647	-47.166	-0.269	0.130
-151.633	-162.596	0.260	0.013
-150.618	-200.000	-0.016	0.104
-149.604	13.428	-0.093	0.072
-148.589	388.036	0.061	-0.125
-147.574	20.334	0.118	-0.094
-146.560	540.834	-0.067	-0.158
-145.545	-48.015	-0.052	-0.025
-144.531	34.503	0.105	0.090
-143.516	129.710	-0.250	0.317
-142.502	168.605	0.149	-0.210
-141.487	800.000	-0.027	0.100
-140.472	-82.242	0.152	0.049
-139.458	86.021	-0.286	-0.312
-138.443	305.900	-0.107	-0.198
-137.429	-195.225	-0.130	0.001
-136.414	-41.764	-0.141	-0.071
-135.399	-200.000	0.008	0.183
-134.385	800.000	0.018	-0.059
-133.370	800.000	-0.108	0.336
-132.356	178.561	0.099	0.143
-131.341	-200.000	0.053	0.237
-130.326	-200.000	-0.032	-0.220
-129.312	92.558	-0.183	-0.204
-128.297	-109.837	0.232	-0.048
-127.283	800.000	0.060	0.225
-126.268	281.567	0.062	0.110
-125.253	800.000	-0.075	0.247
-124.239	-200.000	0.013	-0.060
-123.224	172.299	0.152	0.217
-122.210	401.251	0.197	-0.409
-121.195	-185.085	-0.110	-0.002
-120.180	800.000	0.035	-0.135
-119.166	287.625	-0.123	0.220
-118.151	15.638	0.163	-0.127
-117.137	-200.000	-0.027	0.131
-116.122	-200.000	-0.006	0.041
-115.107	321.819	0.068	-0.128
-114.093	414.179	-0.119	0.251
-113.078	400.247	0.136	0.281
-112.064	204.655	-0.118	0.180
-111.049	-96.050	-0.296	0.078
-110.034	-116.957	0.319	-0.058
-109.020	-105.294	-0.166	0.037
-108.005	-30.663	0.143	0.080
-106.991	-200.000	-0.032	-0.286
-105.976	-26.690	0.157	-0.091
-104.962	143.574	-0.089	-0.117
-103.947	39.977	0.114	0.101
-102.932	-200.000	0.036	0.219
-101.918	800.000	-0.016	0.047
-100.903	142.056	-0.172	-0.226
-99.889	-200.000	0.039	-0.194
-98.874	625.770	-0.052	-0.130
-97.859	-105.411	0.310	0.070
-96.845	450.037	-0.133	0.290
-95.830	-200.000	0.005	-0.157
-94.816	428.749	0.085	0.180
-93.801	51.755	0.143	-0.135
-92.786	355.226	-0.056	-0.109
-91.772	-17.133	0.201	-0.125
-90.757	-110.591	-0.179	-0.037
-89.743	673.270	-0.047	-0.121
-88.728	335.717	-0.062	-0.118
-87.713	800.000	-0.045	-0.138
-86.699	51.005	0.089	-0.084
-85.684	-200.000	-0.027	-0.251
-84.670	-200.000	0.016	0.349
-83.655	-145.084	0.151	-0.014
-82.640	589.646	-0.042	-0.102
-81.626	72.851	-0.081	-0.084
-80.611	-164.681	-0.125	0.006
-79.597	-200.000	-0.027	0.150
-78.582	144.402	0.035	-0.046
-77.567	229.784	0.106	0.171
-76.553	-53.098	0.349	-0.158
-75.538	47.994	0.150	0.139
-74.524	102.036	0.066	-0.076
-73.509	800.000	-0.086	-0.308
-72.494	27.394	-0.106	-0.088
-71.480	-194.840	-0.200	0.002
-70.465	800.000	-0.029	-0.111
-69.451	-125.460	-0.173	-0.026
-68.436	800.000	0.069	-0.280
-67.422	-122.313	0.240	0.039
-66.407	149.144	-0.101	0.135
-65.392	287.709	-0.052	0.093
-64.378	-200.000	-0.000	0.139
-63.363	-12.337	-0.193	-0.125
-62.349	-64.287	0.181	-0.073
-61.334	71.423	-0.771	-0.790
-60.319	105.620	0.442	0.515
-59.305	313.963	-0.315	-0.585
-58.290	298.206	0.549	0.996
-57.276	393.936	0.788	1.619
-56.261	-200.000	97.953	577.664
-55.246	645.261	1392.628	3505.309
-54.232	186.755	2612.530	3837.065
-53.217	115.946	2304.709	2781.384
-52.203	44.358	1917.242	1735.505
-51.188	37.909	1704.898	1494.033
-50.173	35.124	1659.933	1433.754
-49.159	52.315	1709.496	1607.538
-48.144	56.063	1726.160	1651.558
-47.130	37.671	1682.043	1471.969
-46.115	34.709	1667.175	1436.660
-45.100	34.510	1662.043	1430.693
-44.086	34.548	1659.367	1428.615
-43.071	34.430	1656.796	1425.461
-42.057	34.427	1654.862	1423.718
-41.042	34.467	1652.222	1421.686
-40.027	34.571	1650.144	1420.621
-39.013	34.483	1648.788	1418.741
-37.998	34.365	1646.893	1416.175
-36.984	34.600	1645.163	1416.378
-35.969	34.599	1643.774	1415.122
-34.954	34.626	1642.220	1413.922
-33.940	34.629	1640.384	1412.313
-32.925	34.541	1638.897	1410.323
-31.911	34.647	1636.926	1409.355
-30.896	34.615	1635.272	1407.638
-29.881	34.685	1632.986	1406.126
-28.867	34.599	1631.576	1404.225
-27.852	34.551	1630.564	1402.951
-26.838	34.655	1628.620	1401.983
-25.823	34.650	1627.488	1400.912
-24.809	34.628	1626.417	1399.778
-23.794	34.673	1624.753	1398.619
-22.779	34.617	1623.263	1396.867
-21.765	34.693	1621.467	1395.827
-20.750	34.707	1619.871	1394.495
-19.736	34.565	1619.057	1392.706
-18.721	34.696	1616.690	1391.569
-17.706	34.656	1615.439	1390.145
-16.692	34.631	1613.467	1388.215
-15.677	34.674	1611.890	1387.112
-14.663	34.598	1610.730	1385.508
-13.648	34.617	1609.710	1384.711
-12.633	34.696	1607.896	1383.668
-11.619	34.673	1606.516	1382.260
-10.604	34.714	1604.754	1380.985
-9.590	34.685	1603.512	1379.650
-8.575	34.773	1602.010	1378.944
-7.560	34.649	1601.217	1377.313
-6.546	34.690	1599.815	1376.342
-5.531	34.632	1599.024	1375.188
-4.517	34.586	1597.872	1373.814
-3.502	34.632	1596.424	1372.843
-2.487	34.771	1595.390	1372.905
-1.473	34.442	1584.281	1360.943
-0.458	31.680	1563.808	1323.805
0.556	30.211	1563.395	1287.772
1.571	27.379	1586.936	1287.049
2.586	26.245	1599.323	1288.898
3.600	22.953	1545.270	1222.488
4.615	14.145	1435.151	1078.420
5.629	6.242	1369.271	979.764
6.644	4.747	1361.419	964.796
7.659	4.767	1359.556	963.514
8.673	4.792	1358.312	962.705
9.688	4.885	1356.999	962.260
10.702	4.853	1354.530	960.230
11.717	8.676	1361.583	988.796
12.731	17.199	1377.346	1053.212
13.746	22.575	1385.249	1092.582
14.761	22.574	1384.682	1092.035
15.775	21.797	1382.179	1085.152
16.790	20.791	1379.428	1076.680
17.804	19.923	1377.199	1069.487
18.819	19.616	1375.794	1066.405
19.834	19.521	1374.534	1064.747
20.848	19.370	1373.229	1062.710
21.863	19.189	1372.211	1060.715
22.877	19.034	1371.238	1058.916
23.892	18.946	1370.465	1057.687
24.907	19.077	1369.269	1057.473
25.921	19.057	1368.399	1056.582
26.936	18.886	1368.050	1055.172
27.950	18.946	1367.060	1054.685
28.965	19.104	1366.096	1054.813
29.980	19.188	1365.091	1054.458
30.994	19.344	1363.699	1054.242
32.009	19.340	1362.866	1053.484
33.023	19.394	1361.395	1052.585
34.038	19.278	1359.647	1050.429
35.053	19.174	1358.700	1048.973
36.067	19.321	1357.207	1048.623
37.082	19.296	1356.269	1047.649
38.096	19.319	1355.902	1047.416
39.111	19.229	1354.828	1045.945
40.126	19.143	1353.872	1044.597
41.140	18.867	1352.604	1041.851
42.155	18.821	1352.466	1041.374
43.169	18.762	1351.957	1040.530
44.184	18.605	1352.158	1039.642
45.199	18.748	1351.121	1039.622
46.213	18.927	1351.069	1040.570
47.228	19.090	1350.467	1040.999
48.242	19.121	1349.381	1040.261
49.257	19.069	1347.403	1038.329
50.271	18.989	1346.327	1036.927
51.286	19.096	1344.693	1036.220
52.301	19.108	1343.569	1035.333
53.315	18.891	1342.450	1033.075
54.330	18.888	1341.510	1032.240
55.344	18.753	1340.213	1030.341
56.359	18.797	1339.047	1029.619
57.374	18.743	1338.257	1028.598
58.388	18.723	1337.218	1027.588
59.403	18.603	1337.494	1026.993
60.417	18.661	1336.551	1026.526
61.432	18.584	1335.412	1025.099
62.447	18.552	1334.786	1024.333
63.461	18.467	1333.259	1022.566
64.476	18.498	1332.135	1021.798
65.490	18.437	1331.420	1020.794
66.505	18.483	1329.601	1019.581
67.520	18.508	1328.195	1018.563
68.534	18.623	1326.718	1018.026
69.549	18.536	1326.471	1017.228
70.563	18.389	1325.596	1015.593
71.578	18.341	1324.349	1014.266
72.593	18.342	1323.275	1013.358
73.607	18.238	1322.520	1012.079
74.622	18.294	1321.744	1011.727
75.636	18.395	1321.352	1011.931
76.651	18.285	1320.784	1010.756
77.666	18.472	1319.736	1010.969
78.680	18.432	1319.959	1010.816
79.695	18.511	1319.177	1010.590
80.709	18.697	1318.413	1011.012
81.724	18.666	1317.680	1010.179
82.739	18.772	1317.082	1010.251
83.753	18.850	1316.495	1010.176
84.768	19.063	1315.391	1010.486
85.782	19.215	1313.979	1010.207
86.797	19.134	1312.831	1008.757
87.812	19.087	1311.476	1007.356
88.826	19.013	1310.402	1006.009
89.841	19.068	1309.463	1005.521
90.855	19.062	1308.870	1004.941
91.870	19.233	1307.855	1005.065
92.884	19.236	1306.478	1003.941
93.899	19.278	1305.850	1003.609
94.914	19.308	1305.977	1003.796
95.928	19.266	1304.866	1002.608
96.943	19.227	1303.689	1001.386
97.957	19.056	1303.203	999.935
98.972	19.116	1301.629	998.982
99.987	19.236	1300.952	999.071
101.001	19.128	1299.793	997.469
102.016	19.151	1298.835	996.778
103.030	19.072	1298.378	995.883
104.045	19.116	1297.628	995.476
105.060	19.021	1295.849	993.473
106.074	18.828	1294.086	990.919
107.089	18.607	1292.461	988.315
108.103	18.563	1291.741	987.421
109.118	18.597	1289.928	986.144
110.133	18.560	1288.605	984.833
111.147	18.601	1288.037	984.549
112.162	18.565	1286.919	983.397
113.176	18.683	1285.542	982.935
114.191	18.755	1284.909	982.776
115.206	18.627	1283.979	981.247
116.220	18.739	1282.596	980.741
117.235	18.749	1280.983	979.481
118.249	18.734	1280.292	978.781
119.264	18.613	1278.934	976.966
120.279	18.477	1277.908	975.322
121.293	18.497	1276.829	974.523
122.308	18.450	1275.978	973.526
123.322	18.330	1275.189	972.156
124.337	18.408	1273.607	971.306
125.352	18.380	1272.885	970.511
126.366	18.401	1271.888	969.783
127.381	18.397	1270.602	968.693
128.395	18.427	1269.703	968.092
129.410	18.524	1268.764	967.837
130.424	18.532	1268.143	967.326
131.439	18.576	1267.382	966.908
132.454	18.695	1266.384	966.729
133.468	18.750	1265.191	966.040
134.483	18.782	1265.101	966.069
135.497	18.805	1263.799	965.116
136.512	18.772	1262.932	964.183
137.527	18.739	1261.773	963.028
138.541	18.831	1260.119	962.196
139.556	18.911	1258.660	961.445
140.570	18.877	1258.052	960.707
141.585	18.985	1256.540	960.070
142.600	19.040	1255.936	959.829
143.614	19.055	1255.471	959.473
144.629	19.189	1254.257	959.205
145.643	19.250	1252.617	958.207
146.658	19.054	1251.699	956.330
147.673	18.927	1249.757	954.060
148.687	18.872	1248.885	953.000
149.702	18.729	1247.490	951.064
150.716	18.697	1246.163	949.787
151.731	18.762	1244.591	948.866
152.746	18.821	1243.878	948.561
153.760	18.762	1243.050	947.522
154.775	18.930	1241.653	947.302
155.789	18.975	1240.968	946.943
156.804	18.964	1239.566	945.725
157.819	18.950	1238.700	944.907
158.833	19.115	1237.864	945.090
159.848	19.290	1237.523	945.705
160.862	19.280	1236.169	944.532
161.877	18.905	1234.824	941.369
162.892	18.838	1233.460	939.879
163.906	18.724	1233.008	938.829
164.921	18.787	1231.956	938.289
165.935	18.899	1231.074	938.144
166.950	18.935	1230.398	937.744
167.964	18.951	1229.600	937.141
168.979	18.922	1229.121	936.532
169.994	18.960	1227.841	935.684
171.008	18.948	1227.456	935.238
172.023	19.120	1226.724	935.535
173.037	19.173	1226.225	935.358
174.052	19.192	1225.442	934.785
175.067	19.026	1223.807	932.551
176.081	18.814	1222.884	930.618
177.096	18.803	1222.060	929.849
178.110	18.892	1221.100	929.517
179.125	18.967	1219.666	928.749
180.140	19.121	1218.098	928.303
181.154	19.147	1217.446	927.866
182.169	19.178	1216.396	927.152
183.183	19.331	1215.345	927.090
184.198	19.266	1214.379	925.921
185.213	19.368	1213.238	925.518
186.227	19.378	1212.131	924.643
187.242	19.406	1211.537	924.261
188.256	19.437	1210.617	923.643
189.271	19.452	1209.273	922.617
190.286	19.319	1207.916	920.789
191.300	18.935	1206.992	917.953
192.315	18.836	1206.120	916.677
193.329	18.766	1205.913	916.067
194.344	19.015	1204.991	916.613
195.359	19.021	1204.827	916.439
196.373	19.078	1204.251	916.221
197.388	19.238	1204.043	916.833
198.402	19.503	1203.849	918.015
199.417	19.543	1203.160	917.623
200.432	19.691	1202.121	917.535
201.446	19.708	1201.768	917.273
202.461	19.765	1201.333	917.161
203.475	19.752	1199.894	915.913
204.490	19.554	1198.507	913.726
205.504	19.431	1197.211	912.010
206.519	19.387	1195.785	910.610
207.534	19.390	1194.719	909.735
208.548	19.340	1194.209	908.999
209.563	19.369	1193.145	908.260
210.577	19.437	1192.240	907.851
211.592	19.487	1191.287	907.308
212.607	19.721	1190.747	908.047
213.621	19.643	1189.635	906.707
214.636	19.529	1189.271	905.750
215.650	19.507	1188.454	904.934
216.665	19.817	1187.301	905.598
217.680	19.754	1186.837	904.837
218.694	19.832	1186.108	904.608
219.709	19.815	1184.981	903.579
220.723	19.766	1184.494	902.875
221.738	19.808	1183.253	902.066
222.753	19.766	1182.494	901.191
223.767	19.741	1181.971	900.581
224.782	19.859	1181.407	900.684
225.796	20.025	1180.929	901.102
226.811	19.966	1180.240	900.190
227.826	19.870	1179.147	898.780
228.840	19.651	1179.039	897.483
229.855	19.746	1177.365	896.621
230.869	19.717	1176.768	895.935
231.884	19.670	1175.912	894.964
232.899	19.607	1175.026	893.880
233.913	19.486	1174.844	893.037
234.928	19.468	1173.531	891.866
235.942	19.452	1172.846	891.187
236.957	19.529	1172.089	890.929
237.972	19.580	1171.272	890.490
238.986	19.538	1170.366	889.506
240.001	19.582	1169.898	889.298
241.015	19.690	1169.121	889.186
242.030	19.728	1168.384	888.741
243.045	19.738	1167.833	888.296
244.059	19.749	1166.717	887.423
245.074	19.796	1166.053	887.082
246.088	19.879	1165.299	886.857
247.103	19.997	1164.868	887.056
248.117	20.067	1164.368	886.955
249.132	20.346	1163.689	887.783
250.147	20.380	1162.894	887.276
251.161	20.509	1162.426	887.498
252.176	20.451	1161.804	886.646
253.190	20.644	1161.603	887.399
254.205	20.646	1160.496	886.486
255.220	20.621	1160.213	886.062
256.234	20.599	1159.839	885.589
257.249	20.622	1158.843	884.867
258.263	20.737	1157.815	884.585
259.278	20.626	1157.315	883.564
260.293	20.679	1156.912	883.446
261.307	20.679	1156.796	883.278
262.322	20.771	1155.886	882.973
263.336	20.795	1155.292	882.562
264.351	20.860	1154.679	882.348
265.366	20.848	1154.030	881.714
266.380	20.823	1153.068	880.771
267.395	20.650	1152.721	879.556
268.409	20.651	1151.130	878.266
269.424	20.593	1150.694	877.562
270.439	20.544	1150.404	877.017
271.453	20.476	1149.238	875.708
272.468	20.561	1147.635	874.836
273.482	20.397	1147.798	874.059
274.497	20.350	1147.563	873.566
275.512	20.436	1146.614	873.200
276.526	20.426	1145.918	872.544
277.541	20.487	1144.874	871.975
278.555	20.625	1144.196	872.071
279.570	20.667	1143.906	871.984
280.585	20.845	1142.785	871.947
281.599	20.771	1141.892	870.819
282.614	20.728	1140.822	869.708
283.628	20.616	1139.661	868.189
284.643	20.679	1138.536	867.567
285.657	20.773	1137.759	867.370
286.672	20.683	1136.960	866.236
287.687	20.714	1136.103	865.658
288.701	20.728	1135.272	865.018
289.716	20.741	1134.370	864.318
290.730	20.630	1133.961	863.382
291.745	20.718	1133.361	863.285
292.760	20.793	1132.776	863.132
293.774	20.869	1132.505	863.229
294.789	20.956	1132.013	863.207
295.803	20.920	1131.218	862.347
296.818	20.725	1130.460	860.728
297.833	20.715	1129.165	859.618
298.847	20.718	1128.481	859.034
299.862	20.765	1127.731	858.619
300.876	20.791	1127.196	858.265
301.891	20.750	1126.920	857.776
302.906	20.932	1126.129	857.991
303.920	21.102	1125.634	858.375
304.935	21.147	1124.737	857.838
305.949	21.233	1124.521	858.020
306.964	21.281	1123.778	857.614
307.979	21.157	1122.856	856.224
308.993	21.044	1122.228	855.117
310.008	21.073	1121.356	854.519
311.022	21.316	1120.674	855.111
312.037	21.269	1119.363	853.807
313.052	21.110	1118.578	852.354
314.066	20.963	1117.482	850.730
315.081	20.809	1117.151	849.649
316.095	20.768	1115.963	848.470
317.110	20.835	1115.449	848.332
318.125	20.828	1114.688	847.641
319.139	20.868	1113.628	846.958
320.154	20.743	1112.881	845.705
321.168	20.988	1112.106	846.232
322.183	20.923	1112.169	845.891
323.197	20.982	1111.439	845.543
324.212	21.053	1110.699	845.253
325.227	20.991	1110.233	844.520
326.241	21.043	1109.637	844.247
327.256	21.116	1108.904	843.966
328.270	20.977	1107.869	842.432
329.285	21.011	1106.731	841.656
330.300	20.998	1105.828	840.833
331.314	21.005	1105.073	840.220
332.329	21.072	1104.245	839.835
333.343	21.028	1103.478	838.967
334.358	21.152	1102.865	839.022
335.373	21.261	1101.913	838.748
336.387	21.315	1101.372	838.523
337.402	21.267	1100.773	837.759
338.416	21.415	1100.163	837.933
339.431	21.451	1099.682	837.662
340.446	21.487	1099.127	837.340
341.460	21.645	1098.811	837.780
342.475	21.718	1097.429	837.000
343.489	21.699	1096.846	836.394
344.504	21.817	1095.768	836.060
345.519	21.821	1094.867	835.314
346.533	21.850	1094.154	834.836
347.548	21.939	1094.088	835.134
348.562	21.772	1093.031	833.459
349.577	21.595	1091.518	831.391
350.592	21.597	1090.601	830.631
351.606	21.424	1089.815	829.139
352.621	21.457	1089.206	828.758
353.635	21.306	1088.497	827.430
354.650	21.411	1087.851	827.361
355.665	21.492	1087.366	827.304
356.679	21.349	1087.344	826.537
357.694	21.564	1086.534	826.862
358.708	21.549	1085.817	826.177
359.723	21.654	1084.887	825.887
360.738	21.666	1084.433	825.525
361.752	21.727	1083.993	825.405
362.767	21.676	1083.439	824.672
363.781	21.705	1082.932	824.349
364.796	21.889	1082.471	824.791
365.810	22.003	1081.850	824.782
366.825	22.086	1081.111	824.531
367.840	22.126	1080.987	824.554
368.854	22.104	1080.419	823.943
369.869	22.058	1079.876	823.241
370.883	22.065	1078.726	822.324
371.898	21.964	1077.994	821.223
372.913	21.945	1077.044	820.336
373.927	21.906	1077.166	820.174
374.942	21.961	1076.358	819.741
375.956	22.084	1076.053	820.011
376.971	22.166	1075.055	819.562
377.986	22.163	1074.759	819.248
379.000	22.246	1074.203	819.140
380.015	22.237	1073.707	818.645
381.029	22.487	1072.898	819.119
382.044	22.397	1072.219	818.111
383.059	22.267	1071.431	816.833
384.073	22.249	1070.699	816.121
385.088	22.305	1070.079	815.836
386.102	22.383	1068.812	815.156
387.117	22.095	1068.022	813.149
388.132	22.030	1066.895	811.918
389.146	22.037	1065.685	810.959
390.161	22.009	1064.972	810.215
391.175	21.920	1064.387	809.290
392.190	22.183	1063.922	810.076
393.205	22.394	1063.362	810.551
394.219	22.297	1062.145	809.105
395.234	22.207	1061.495	808.126
396.248	22.071	1060.601	806.749
397.263	22.170	1059.294	806.138
398.278	22.013	1059.142	805.228
399.292	21.970	1058.353	804.360
400.307	21.935	1057.432	803.431
401.321	21.929	1056.467	802.596
402.336	21.925	1056.174	802.288
403.350	21.970	1055.371	801.812
404.365	22.144	1054.635	801.973
405.380	22.100	1054.191	801.365
406.394	22.267	1053.170	801.281
407.409	22.280	1052.581	800.820
408.423	22.315	1052.572	800.901
409.438	22.505	1051.771	801.086
410.453	22.529	1051.093	800.607
411.467	22.615	1050.279	800.307
412.482	22.653	1049.487	799.805
413.496	22.683	1049.238	799.680
414.511	22.737	1048.312	799.148
415.526	22.768	1048.414	799.295
416.540	22.811	1047.919	799.041
417.555	22.893	1047.139	798.749
418.569	22.824	1046.588	797.944
419.584	22.653	1046.144	796.761
420.599	22.754	1045.413	796.590
421.613	154.517	1400.961	1789.456
422.628	141.592	1452.768	1789.572
