DTS Sentinel unit serial number:	SN413079Multiplexer serial number:	ORYXHardware model number:	OX4-SRSoftware version number:	ORYX F/W v4.00 Oryx Data Collector v3.7.2.0data status	okinstallation	princeton_trtdifferential loss correction	single-endedforward channel	channel 2reverse channel	N/Adate	2019/09/18time	06:59:35forward acquisition time	60.00reverse acquisition time	0.00gamma	496.2192k internal	0.2349k external	0.2349temperature offset calibration	0.9986default loss term (dB/km)	0.3790temperature slope calibration	1.0000multiplexer offset coefficient	1.0000multiplexer slope coefficient	1.0000fibre end	0.00T internal ref (°C)	23.19T ext. ref 1 (°C)	0.19T ext. ref 2 (°C)	17.12length (m)	temperature (°C)	Stokes	anti-Stokes-747.200	-145.255	-0.356	-0.032
-746.185	-78.955	-0.150	0.051
-745.171	-56.492	0.071	-0.031
-744.156	404.104	-0.098	0.205
-743.142	507.533	0.091	-0.210
-742.127	-127.067	-0.207	-0.030
-741.112	-39.570	-0.039	-0.021
-740.098	-200.000	0.004	0.354
-739.083	49.009	0.187	0.175
-738.069	-188.699	-0.445	0.005
-737.054	-92.674	-0.531	-0.148
-736.039	-137.728	0.215	0.024
-735.025	61.077	0.294	0.291
-734.010	-28.970	0.130	0.074
-732.996	800.000	-0.151	-0.486
-731.981	-200.000	-0.025	-0.170
-730.966	210.998	-0.197	0.310
-729.952	488.994	0.134	0.305
-728.937	-88.028	-0.138	0.041
-727.923	-106.657	-0.152	-0.034
-726.908	800.000	0.008	-0.027
-725.894	-95.759	0.487	-0.130
-724.879	-5.305	0.165	-0.113
-723.864	-139.466	-0.193	-0.021
-722.850	-200.000	0.030	-0.157
-721.835	-200.000	0.014	-0.064
-720.821	172.880	-0.134	0.192
-719.806	-62.458	-0.110	-0.046
-718.791	-78.616	0.209	0.071
-717.777	-12.067	-0.231	-0.151
-716.762	-69.208	-0.215	0.082
-715.748	-177.616	-0.276	-0.007
-714.733	-75.408	-0.110	-0.039
-713.718	-44.929	0.252	-0.125
-712.704	800.000	0.047	0.131
-711.689	-25.808	-0.143	-0.084
-710.675	-139.612	-0.257	0.027
-709.660	398.998	-0.092	0.192
-708.645	-71.518	-0.229	-0.086
-707.631	101.721	-0.006	0.007
-706.616	-68.378	-0.220	0.085
-705.602	431.887	0.064	0.138
-704.587	-117.956	-0.165	0.030
-703.572	-175.456	0.157	0.004
-702.558	16.471	-0.053	-0.042
-701.543	149.647	-0.077	-0.104
-700.529	-74.593	-0.191	-0.069
-699.514	0.038	-0.193	-0.137
-698.499	6.898	0.045	0.033
-697.485	-200.000	-0.020	0.109
-696.470	259.440	0.142	0.244
-695.456	123.775	-0.064	0.080
-694.441	58.255	0.074	-0.073
-693.426	85.379	-0.056	-0.061
-692.412	-9.703	0.287	-0.190
-691.397	-15.863	0.274	0.174
-690.383	-150.993	-0.095	-0.007
-689.368	-108.013	-0.446	-0.097
-688.354	395.601	-0.055	-0.115
-687.339	-96.807	0.109	-0.029
-686.324	151.103	0.026	0.035
-685.310	-49.008	0.147	-0.070
-684.295	225.577	-0.277	-0.447
-683.281	268.121	-0.258	-0.451
-682.266	2.418	0.144	0.104
-681.251	10.030	-0.210	0.159
-680.237	77.667	0.096	0.102
-679.222	-111.687	-0.363	-0.073
-678.208	8.166	0.141	-0.105
-677.193	-200.000	-0.027	-0.216
-676.178	82.210	-0.235	0.254
-675.164	214.259	-0.139	0.220
-674.149	-200.000	-0.029	-0.000
-673.135	-145.671	0.561	0.050
-672.120	9.651	0.112	-0.085
-671.105	101.105	0.029	-0.034
-670.091	-200.000	0.017	-0.085
-669.076	800.000	-0.031	-0.108
-668.062	239.173	-0.089	0.147
-667.047	-200.000	0.055	0.266
-666.032	-89.814	-0.225	-0.065
-665.018	-200.000	-0.033	0.153
-664.003	-82.367	0.317	-0.103
-662.989	164.300	-0.059	0.082
-661.974	-200.000	-0.006	0.040
-660.959	-136.104	-0.252	-0.029
-659.945	-200.000	-0.071	-0.329
-658.930	-81.356	-0.466	-0.153
-657.916	800.000	-0.097	-0.274
-656.901	800.000	-0.016	0.047
-655.886	-58.899	-0.103	0.044
-654.872	133.207	-0.060	0.077
-653.857	-44.990	0.323	-0.160
-652.843	-200.000	-0.055	-0.385
-651.828	800.000	-0.098	-0.374
-650.814	-79.490	-0.349	-0.117
-649.799	-153.046	0.099	-0.007
-648.784	51.678	-0.206	-0.195
-647.770	-49.931	0.315	0.149
-646.755	377.418	0.163	0.331
-645.741	800.000	0.052	0.195
-644.726	800.000	-0.095	-0.265
-643.711	-200.000	-0.033	-0.266
-642.697	359.891	-0.173	0.345
-641.682	71.235	-0.346	0.357
-640.668	-200.000	-0.029	0.310
-639.653	431.978	-0.119	0.257
-638.638	-55.852	0.289	-0.128
-637.624	-200.000	-0.023	-0.151
-636.609	800.000	-0.073	-0.254
-635.595	-148.844	0.076	0.006
-634.580	56.898	0.090	0.087
-633.565	-86.424	-0.041	-0.012
-632.551	-102.610	0.101	0.024
-631.536	-200.000	-0.053	-0.256
-630.522	-25.088	0.139	0.082
-629.507	555.065	0.025	0.059
-628.492	-200.000	-0.011	-0.201
-627.478	-200.000	0.020	-0.239
-626.463	-149.699	0.176	0.014
-625.449	-33.349	-0.226	0.124
-624.434	800.000	-0.003	0.014
-623.419	43.982	0.076	-0.069
-622.405	-60.957	-0.406	0.171
-621.390	800.000	0.034	-0.122
-620.376	-175.319	-0.033	-0.001
-619.361	800.000	0.088	-0.251
-618.346	-26.093	-0.177	0.103
-617.332	117.676	-0.305	-0.373
-616.317	78.895	0.185	0.196
-615.303	179.235	-0.182	0.265
-614.288	-146.657	-0.178	-0.015
-613.273	121.366	-0.237	-0.293
-612.259	520.941	0.032	-0.075
-611.244	31.812	-0.327	-0.280
-610.230	-109.265	0.044	-0.009
-609.215	473.841	-0.056	-0.125
-608.201	311.904	-0.114	-0.213
-607.186	474.028	-0.051	0.114
-606.171	-91.849	0.554	-0.156
-605.157	80.443	-0.099	0.105
-604.142	113.347	-0.163	-0.196
-603.128	800.000	0.129	0.505
-602.113	14.520	0.251	-0.195
-601.098	-111.045	-0.224	-0.046
-600.084	-200.000	0.039	0.214
-599.069	589.895	0.056	-0.138
-598.055	-200.000	0.013	-0.141
-597.040	257.234	0.123	0.211
-596.025	468.346	0.104	-0.232
-595.011	60.618	-0.126	-0.124
-593.996	-135.054	-0.096	0.012
-592.982	-194.926	-0.425	-0.003
-591.967	204.766	0.062	-0.095
-590.952	-48.604	-0.202	-0.096
-589.938	-140.845	-0.238	-0.024
-588.923	537.890	-0.224	0.528
-587.909	403.554	-0.046	0.097
-586.894	800.000	0.014	0.047
-585.879	32.483	0.135	-0.116
-584.865	169.064	0.142	-0.202
-583.850	-76.866	0.215	0.075
-582.836	531.543	-0.100	0.235
-581.821	78.042	-0.164	-0.173
-580.806	-6.071	-0.050	0.034
-579.792	24.081	0.102	-0.084
-578.777	16.999	-0.155	0.122
-577.763	-145.776	0.028	0.002
-576.748	-108.297	-0.037	-0.008
-575.733	800.000	0.106	-0.308
-574.719	-33.476	0.154	0.085
-573.704	59.150	0.074	0.073
-572.690	-118.755	-0.137	-0.024
-571.675	-200.000	-0.002	-0.038
-570.661	-200.000	0.054	-0.285
-569.646	-88.604	0.214	0.063
-568.631	57.627	-0.223	0.217
-567.617	-62.415	-0.321	-0.132
-566.602	772.116	0.101	0.273
-565.588	569.388	-0.077	0.185
-564.573	1.022	0.229	-0.163
-563.558	-38.812	-0.308	0.161
-562.544	-108.406	-0.201	-0.043
-561.529	51.754	0.125	-0.118
-560.515	-200.000	-0.043	-0.233
-559.500	-126.050	-0.051	0.008
-558.485	800.000	-0.146	-0.413
-557.471	-102.860	-0.148	0.035
-556.456	103.771	-0.028	0.033
-555.442	97.432	0.236	-0.269
-554.427	-200.000	-0.001	0.016
-553.412	84.090	-0.138	0.150
-552.398	17.633	0.194	-0.153
-551.383	-140.434	0.009	-0.001
-550.369	-175.215	0.174	0.005
-549.354	-200.000	0.022	-0.273
-548.339	-21.076	0.292	-0.177
-547.325	-177.087	0.143	0.004
-546.310	108.319	-0.233	-0.275
-545.296	800.000	-0.046	0.183
-544.281	37.775	-0.335	0.295
-543.266	34.770	-0.108	-0.094
-542.252	160.262	0.113	-0.155
-541.237	-12.000	0.030	0.020
-540.223	-109.762	-0.149	0.031
-539.208	245.426	0.143	0.238
-538.193	-110.049	-0.389	-0.081
-537.179	-77.038	0.351	0.121
-536.164	92.841	-0.225	0.252
-535.150	-188.167	0.237	-0.003
-534.135	-7.896	0.243	-0.162
-533.121	137.819	0.065	0.084
-532.106	-171.293	-0.267	-0.009
-531.091	-9.242	-0.187	0.124
-530.077	-106.103	0.247	-0.055
-529.062	-51.889	0.248	-0.114
-528.048	262.190	0.107	0.185
-527.033	-91.580	-0.198	0.056
-526.018	-200.000	0.004	-0.103
-525.004	30.016	-0.176	-0.148
-523.989	102.441	-0.239	-0.277
-522.975	800.000	-0.114	-0.318
-521.960	-44.441	0.191	-0.095
-520.945	432.439	-0.101	0.216
-519.931	402.871	-0.036	0.074
-518.916	523.569	0.061	-0.141
-517.902	-43.346	-0.173	0.087
-516.887	157.601	-0.224	0.307
-515.872	800.000	-0.046	0.172
-514.858	-32.847	-0.283	-0.155
-513.843	441.440	0.131	0.284
-512.829	567.329	-0.066	0.159
-511.814	71.828	-0.113	-0.116
-510.799	-200.000	0.067	0.390
-509.785	203.599	0.151	0.231
-508.770	-16.285	0.109	-0.069
-507.756	179.676	-0.016	0.023
-506.741	-53.779	-0.062	0.028
-505.726	-144.403	0.325	0.030
-504.712	66.569	0.156	-0.157
-503.697	800.000	-0.039	-0.109
-502.683	-110.157	-0.121	-0.025
-501.668	201.425	-0.013	0.020
-500.653	-34.496	-0.129	0.070
-499.639	-200.000	0.043	-0.267
-498.624	737.160	-0.059	0.156
-497.610	-34.471	0.019	-0.010
-496.595	-64.534	0.272	-0.109
-495.581	-200.000	-0.022	0.163
-494.566	-200.000	0.008	-0.178
-493.551	145.534	0.084	-0.112
-492.537	-150.646	-0.159	0.012
-491.522	23.978	0.125	-0.102
-490.508	134.699	0.114	0.147
-489.493	-162.600	0.207	-0.010
-488.478	-119.084	0.256	-0.044
-487.464	-159.024	-0.180	0.010
-486.449	795.968	-0.115	0.314
-485.435	38.286	-0.132	0.117
-484.420	-138.803	0.080	0.009
-483.405	-4.138	0.023	0.016
-482.391	60.596	0.178	0.175
-481.376	368.048	-0.161	0.321
-480.362	303.367	-0.024	-0.045
-479.347	-46.758	-0.059	-0.028
-478.332	120.877	-0.179	-0.220
-477.318	-9.185	0.134	0.089
-476.303	87.347	-0.379	0.414
-475.289	-120.202	0.082	-0.014
-474.274	-60.483	0.240	-0.101
-473.259	800.000	-0.031	-0.129
-472.245	14.367	-0.251	0.193
-471.230	290.464	-0.301	0.540
-470.216	-144.323	0.078	-0.007
-469.201	-142.207	0.200	0.020
-468.186	280.103	0.067	0.118
-467.172	-175.564	0.343	-0.009
-466.157	270.355	-0.169	0.294
-465.143	-200.000	-0.009	-0.190
-464.128	674.679	0.165	0.424
-463.113	76.614	-0.197	-0.206
-462.099	-94.142	0.205	-0.055
-461.084	466.867	-0.214	-0.473
-460.070	-64.043	0.317	0.128
-459.055	800.000	-0.056	-0.200
-458.040	215.739	0.173	-0.271
-457.026	602.658	0.144	-0.354
-456.011	-200.000	0.043	-0.413
-454.997	-200.000	0.011	-0.088
-453.982	-133.346	-0.183	-0.023
-452.968	-96.093	0.289	0.076
-451.953	-200.000	-0.009	-0.172
-450.938	-110.325	-0.137	-0.028
-449.924	36.414	0.170	0.148
-448.909	800.000	-0.035	0.102
-447.895	-117.799	-0.320	0.057
-446.880	-200.000	-0.001	-0.010
-445.865	19.791	-0.231	0.184
-444.851	-51.008	0.286	0.132
-443.836	-200.000	-0.054	0.312
-442.822	102.567	0.180	0.208
-441.807	742.761	-0.080	-0.213
-440.792	161.901	-0.154	0.213
-439.778	800.000	-0.059	0.173
-438.763	-23.875	-0.152	-0.090
-437.749	130.729	-0.076	0.096
-436.734	-200.000	-0.036	0.345
-435.719	-80.350	-0.244	0.080
-434.705	41.704	-0.172	-0.154
-433.690	-47.742	-0.178	0.085
-432.676	-51.030	0.077	-0.036
-431.661	-6.341	-0.363	-0.245
-430.646	40.759	-0.314	0.280
-429.632	6.658	0.154	-0.113
-428.617	800.000	0.074	0.290
-427.603	-200.000	-0.002	0.199
-426.588	160.444	-0.128	-0.176
-425.573	14.176	-0.072	0.055
-424.559	-200.000	0.040	0.261
-423.544	289.187	0.106	-0.189
-422.530	-53.977	0.148	0.066
-421.515	97.608	-0.118	-0.133
-420.500	-200.000	0.018	0.224
-419.486	-200.000	0.318	-0.002
-418.471	174.295	0.109	-0.155
-417.457	-67.930	-0.232	-0.089
-416.442	-118.658	-0.201	-0.035
-415.428	600.325	-0.114	-0.279
-414.413	-185.408	-0.148	0.002
-413.398	-159.545	-0.254	0.014
-412.384	-71.328	0.227	-0.084
-411.369	-200.000	-0.009	0.202
-410.355	800.000	-0.025	-0.082
-409.340	35.051	0.157	0.136
-408.325	-142.531	-0.324	-0.031
-407.311	190.708	0.076	-0.112
-406.296	109.215	0.129	-0.152
-405.282	-9.275	0.252	0.166
-404.267	43.322	0.169	0.152
-403.252	-92.089	-0.225	-0.063
-402.238	-200.000	-0.021	0.105
-401.223	-200.000	-0.037	-0.280
-400.209	47.297	0.275	-0.253
-399.194	134.365	0.075	0.096
-398.179	-146.883	0.149	-0.013
-397.165	-200.000	-0.018	-0.200
-396.150	-131.823	-0.268	-0.035
-395.136	-200.000	0.020	-0.238
-394.121	385.382	-0.105	-0.212
-393.106	-132.398	-0.061	-0.008
-392.092	337.557	0.112	0.214
-391.077	18.041	-0.159	0.125
-390.063	-200.000	-0.020	-0.206
-389.048	406.300	-0.169	-0.351
-388.033	96.609	0.101	0.113
-387.019	-65.591	0.181	-0.071
-386.004	800.000	0.087	-0.355
-384.990	0.595	0.507	-0.357
-383.975	800.000	-0.008	0.034
-382.960	-200.000	0.014	-0.120
-381.946	705.388	0.088	0.228
-380.931	291.453	-0.167	0.299
-379.917	-7.759	0.223	-0.148
-378.902	46.898	-0.025	-0.023
-377.888	215.577	-0.095	-0.149
-376.873	2.220	0.155	0.111
-375.858	139.689	0.058	0.076
-374.844	34.393	0.155	-0.134
-373.829	-31.862	0.351	-0.194
-372.815	-200.000	0.056	0.271
-371.800	3.437	0.237	0.170
-370.785	-200.000	0.027	-0.256
-369.771	572.165	0.066	0.158
-368.756	594.362	-0.045	0.111
-367.742	-111.039	0.148	0.030
-366.727	-200.000	-0.011	0.382
-365.712	-62.863	-0.277	0.113
-364.698	-89.424	-0.123	-0.036
-363.683	30.552	0.084	0.070
-362.669	118.582	-0.053	0.065
-361.654	-200.000	-0.048	-0.248
-360.639	97.630	0.038	-0.043
-359.625	31.445	-0.106	0.090
-358.610	50.107	0.126	-0.117
-357.596	-200.000	0.023	-0.234
-356.581	108.692	0.156	-0.184
-355.566	33.844	0.032	0.028
-354.552	800.000	0.111	-0.366
-353.537	82.522	-0.088	0.094
-352.523	-136.414	0.230	-0.026
-351.508	72.812	0.301	-0.309
-350.493	-39.965	0.175	0.090
-349.479	-44.946	0.179	-0.088
-348.464	517.908	0.033	-0.077
-347.450	675.817	0.063	-0.161
-346.435	297.373	0.156	0.282
-345.420	-96.390	0.251	-0.065
-344.406	-200.000	-0.009	-0.059
-343.391	260.915	-0.003	0.004
-342.377	-25.329	0.131	-0.076
-341.362	-200.000	-0.006	-0.110
-340.348	-68.003	0.258	-0.099
-339.333	9.958	0.184	-0.137
-338.318	-1.280	0.378	0.262
-337.304	-74.373	-0.094	-0.034
-336.289	-134.601	-0.120	-0.014
-335.275	-200.000	-0.010	0.059
-334.260	75.192	-0.101	-0.105
-333.245	800.000	0.040	0.141
-332.231	295.903	-0.048	-0.087
-331.216	229.460	0.188	0.302
-330.202	-72.416	0.213	0.077
-329.187	35.006	-0.275	0.237
-328.172	74.458	0.087	0.089
-327.158	-126.191	-0.249	-0.037
-326.143	-47.917	0.411	-0.195
-325.129	246.118	-0.119	0.196
-324.114	-200.000	0.008	-0.068
-323.099	-200.000	0.211	-0.000
-322.085	-143.792	0.184	-0.017
-321.070	13.808	0.146	0.112
-320.056	-106.722	0.297	-0.065
-319.041	-95.769	0.266	0.070
-318.026	-88.463	0.065	0.019
-317.012	-101.662	-0.210	-0.050
-315.997	-99.885	-0.116	0.028
-314.983	-200.000	0.022	0.194
-313.968	800.000	0.021	-0.077
-312.953	-164.391	0.096	-0.004
-311.939	-200.000	0.038	0.229
-310.924	-83.465	-0.273	-0.086
-309.910	-200.000	0.015	0.144
-308.895	-200.000	-0.096	0.415
-307.880	-200.000	-0.061	0.282
-306.866	-200.000	-0.035	0.212
-305.851	89.960	-0.239	0.263
-304.837	20.092	0.311	0.246
-303.822	-69.550	-0.103	0.039
-302.807	140.357	-0.061	0.079
-301.793	135.336	-0.030	0.038
-300.778	-4.429	0.166	-0.113
-299.764	-110.066	-0.302	0.062
-298.749	-200.000	-0.029	-0.337
-297.735	-15.575	-0.157	-0.098
-296.720	-26.253	-0.150	0.086
-295.705	554.108	-0.261	-0.616
-294.691	800.000	0.102	0.314
-293.676	619.475	0.029	0.072
-292.662	-200.000	-0.028	-0.180
-291.647	-98.725	-0.140	0.035
-290.632	184.500	0.074	0.107
-289.618	29.054	0.075	-0.062
-288.603	-46.027	0.114	0.055
-287.589	18.498	0.118	-0.092
-286.574	-200.000	-0.024	0.305
-285.559	-164.100	-0.148	-0.007
-284.545	-200.000	0.029	-0.184
-283.530	-92.858	-0.278	-0.076
-282.516	-71.651	0.185	-0.068
-281.501	-133.149	0.522	0.065
-280.486	-200.000	-0.014	0.372
-279.472	68.416	0.147	0.147
-278.457	47.433	-0.027	0.025
-277.443	366.696	0.049	-0.097
-276.428	314.498	-0.107	0.197
-275.413	-200.000	0.034	0.190
-274.399	127.932	0.174	0.217
-273.384	29.379	-0.063	-0.053
-272.370	2.607	0.041	0.029
-271.355	-200.000	0.010	0.183
-270.340	-24.120	0.159	-0.093
-269.326	-94.559	0.254	0.068
-268.311	-118.528	0.168	-0.029
-267.297	155.689	-0.270	-0.365
-266.282	50.442	-0.145	0.135
-265.267	291.548	0.098	0.174
-264.253	800.000	0.154	-0.428
-263.238	-55.063	-0.102	0.045
-262.224	-200.000	-0.004	0.040
-261.209	-2.346	-0.165	0.113
-260.195	566.673	0.213	-0.506
-259.180	-200.000	0.021	-0.274
-258.165	86.341	-0.214	-0.231
-257.151	28.021	-0.118	0.097
-256.136	800.000	-0.132	0.406
-255.122	-31.488	0.121	0.067
-254.107	131.750	-0.147	0.185
-253.092	353.210	0.106	-0.207
-252.078	33.375	0.124	0.106
-251.063	176.628	-0.172	0.245
-250.049	-134.742	0.308	-0.037
-249.034	-200.000	0.021	-0.194
-248.019	-200.000	-0.011	0.179
-247.005	-73.813	-0.367	-0.131
-245.990	38.948	-0.282	-0.247
-244.976	427.069	-0.123	-0.259
-243.961	-200.000	-0.025	0.207
-242.946	78.920	0.047	0.049
-241.932	-60.613	-0.130	0.054
-240.917	-79.076	-0.168	0.056
-239.903	-139.288	0.134	0.014
-238.888	-110.711	-0.177	-0.036
-237.873	-11.155	0.203	0.131
-236.859	800.000	0.083	-0.225
-235.844	-200.000	-0.066	0.395
-234.830	-173.272	0.160	-0.005
-233.815	-200.000	-0.006	0.094
-232.800	-137.547	-0.305	-0.034
-231.786	800.000	0.028	0.095
-230.771	-200.000	-0.066	0.331
-229.757	-28.942	-0.441	-0.248
-228.742	-200.000	-0.002	-0.045
-227.727	334.004	-0.107	0.203
-226.713	89.672	0.015	-0.017
-225.698	153.095	0.044	0.058
-224.684	313.030	0.055	-0.102
-223.669	800.000	0.073	-0.274
-222.655	-93.520	0.275	0.074
-221.640	-134.636	0.270	-0.032
-220.625	800.000	-0.117	0.412
-219.611	800.000	-0.099	-0.332
-218.596	-46.500	-0.075	-0.036
-217.582	35.552	0.109	0.093
-216.567	164.913	-0.147	0.203
-215.552	50.600	-0.153	-0.142
-214.538	-200.000	-0.078	0.384
-213.523	665.150	0.075	0.190
-212.509	-200.000	0.030	0.200
-211.494	-200.000	-0.030	-0.160
-210.479	-170.322	0.392	0.013
-209.465	-200.000	-0.076	0.431
-208.450	-22.655	0.025	0.015
-207.436	-92.358	-0.088	0.024
-206.421	-10.532	0.025	0.016
-205.406	800.000	-0.125	-0.434
-204.392	-40.070	-0.291	0.148
-203.377	124.746	-0.088	-0.108
-202.363	347.912	0.100	-0.193
-201.348	-21.830	-0.372	-0.221
-200.333	34.347	-0.213	-0.181
-199.319	-125.604	0.178	0.026
-198.304	-130.678	0.215	-0.028
-197.290	-39.390	-0.183	0.094
-196.275	-109.112	0.444	0.092
-195.260	688.140	0.037	-0.095
-194.246	-34.995	-0.078	-0.042
-193.231	800.000	0.111	-0.316
-192.217	-133.717	-0.283	0.035
-191.202	-183.438	-0.193	0.003
-190.187	100.495	0.066	-0.074
-189.173	52.538	0.110	-0.103
-188.158	9.420	-0.017	0.013
-187.144	-200.000	-0.005	0.073
-186.129	-124.544	-0.265	-0.040
-185.114	701.074	-0.062	0.159
-184.100	-72.416	-0.496	-0.179
-183.085	-128.619	-0.174	-0.024
-182.071	-129.579	0.069	-0.009
-181.056	-200.000	0.023	0.196
-180.042	-200.000	0.008	-0.115
-179.027	-200.000	-0.026	-0.429
-178.012	-59.881	-0.218	0.091
-176.998	-200.000	0.032	-0.145
-175.983	352.499	-0.062	-0.121
-174.969	124.733	0.095	-0.117
-173.954	-200.000	-0.017	-0.109
-172.939	55.226	0.121	-0.114
-171.925	68.975	0.237	-0.238
-170.910	-128.402	0.164	0.023
-169.896	14.995	-0.160	-0.123
-168.881	108.770	0.069	0.081
-167.866	-0.877	0.269	-0.186
-166.852	-66.024	0.303	-0.118
-165.837	526.650	-0.043	-0.099
-164.823	507.954	-0.074	0.167
-163.808	44.284	0.083	-0.075
-162.793	408.553	0.120	0.248
-161.779	-200.000	0.044	0.466
-160.764	213.714	-0.161	-0.248
-159.750	-200.000	-0.002	-0.021
-158.735	215.345	0.186	-0.289
-157.720	800.000	-0.076	0.291
-156.706	-4.419	0.254	-0.172
-155.691	-81.625	-0.081	0.026
-154.677	152.908	0.197	-0.263
-153.662	77.325	0.049	-0.051
-152.647	-200.000	-0.009	0.317
-151.633	-77.122	-0.138	0.047
-150.618	-200.000	-0.025	0.118
-149.604	624.408	0.027	-0.067
-148.589	-58.786	-0.097	-0.041
-147.574	-5.814	-0.223	0.149
-146.560	800.000	0.065	-0.188
-145.545	800.000	0.113	-0.317
-144.531	-9.193	0.263	-0.171
-143.516	800.000	-0.075	-0.237
-142.502	-200.000	0.015	-0.244
-141.487	39.745	-0.088	-0.077
-140.472	213.943	0.105	0.162
-139.458	-92.277	0.266	0.073
-138.443	175.625	-0.175	-0.247
-137.429	-36.897	-0.169	-0.089
-136.414	-200.000	0.042	0.229
-135.399	-200.000	0.033	-0.143
-134.385	-200.000	-0.067	-0.347
-133.370	22.465	0.314	0.251
-132.356	-1.472	-0.092	-0.063
-131.341	-147.276	-0.068	0.006
-130.326	-145.784	-0.306	-0.027
-129.312	343.377	-0.065	0.123
-128.297	-70.860	-0.436	0.160
-127.283	800.000	0.058	0.159
-126.268	-96.361	0.227	0.058
-125.253	-16.399	-0.189	0.117
-124.239	-0.321	0.091	-0.063
-123.224	-70.009	0.323	-0.120
-122.210	-200.000	0.041	-0.184
-121.195	62.960	-0.456	-0.445
-120.180	-99.198	-0.216	-0.053
-119.166	-152.132	-0.260	0.018
-118.151	125.833	0.129	-0.158
-117.137	133.344	-0.119	-0.149
-116.122	800.000	-0.026	0.088
-115.107	-65.419	0.117	-0.046
-114.093	-200.000	-0.005	0.102
-113.078	260.531	0.090	-0.152
-112.064	-79.756	0.182	0.060
-111.049	-34.865	-0.241	0.128
-110.034	-78.155	-0.228	-0.076
-109.020	-98.347	0.175	0.044
-108.005	127.439	-0.068	0.085
-106.991	14.236	-0.156	0.118
-105.976	-56.197	-0.149	0.065
-104.962	-82.218	-0.136	0.043
-103.947	-78.244	0.337	0.113
-102.932	-138.907	-0.357	0.038
-101.918	-54.751	0.279	-0.123
-100.903	173.658	0.137	0.192
-99.889	51.348	-0.195	-0.180
-98.874	139.423	-0.123	-0.158
-97.859	-47.923	-0.211	0.099
-96.845	-58.518	-0.226	-0.095
-95.830	-152.113	0.126	-0.009
-94.816	-130.231	-0.101	-0.013
-93.801	199.314	0.129	0.193
-92.786	-109.877	0.176	-0.036
-91.772	1.528	0.155	0.109
-90.757	26.455	-0.164	0.134
-89.743	7.797	-0.086	0.063
-88.728	471.200	0.059	-0.130
-87.713	-5.153	0.125	0.084
-86.699	338.110	-0.061	-0.116
-85.684	-58.526	0.222	0.094
-84.670	295.039	0.047	-0.084
-83.655	77.738	0.228	0.236
-82.640	-80.005	0.201	0.066
-81.626	172.967	0.059	-0.083
-80.611	-72.718	0.070	0.025
-79.597	-33.174	-0.174	-0.094
-78.582	590.438	0.141	-0.339
-77.567	13.317	0.163	-0.123
-76.553	-200.000	0.056	0.298
-75.538	428.373	-0.080	-0.167
-74.524	-98.282	-0.227	0.057
-73.509	-143.323	-0.060	-0.006
-72.494	274.657	-0.277	0.477
-71.480	550.482	0.110	0.258
-70.465	79.906	-0.169	-0.177
-69.451	-66.620	0.274	0.106
-68.436	81.797	0.074	-0.078
-67.422	32.796	-0.163	-0.137
-66.407	24.725	-0.208	0.168
-65.392	-175.066	-0.072	0.002
-64.378	5.303	-0.100	0.072
-63.363	-120.534	0.088	0.015
-62.349	100.396	0.152	0.172
-61.334	88.745	-1.200	-1.297
-60.319	-2.507	0.896	0.610
-59.305	428.707	-0.557	-1.170
-58.290	290.021	0.765	1.350
-57.276	732.327	0.506	1.316
-56.261	-200.000	125.751	651.485
-55.246	405.771	1583.900	3248.868
-54.232	140.341	2755.609	3535.435
-53.217	88.915	2312.619	2501.985
-52.203	32.321	1916.492	1608.413
-51.188	26.153	1712.165	1389.572
-50.173	24.069	1673.021	1342.058
-49.159	46.051	1742.671	1568.192
-48.144	43.369	1753.842	1557.528
-47.130	25.784	1705.739	1381.306
-46.115	23.331	1690.207	1350.001
-45.100	23.143	1684.962	1344.330
-44.086	23.115	1682.342	1341.974
-43.071	22.990	1680.787	1339.739
-42.057	23.078	1677.997	1338.124
-41.042	23.052	1676.176	1336.424
-40.027	23.113	1673.795	1334.931
-39.013	23.044	1672.134	1333.035
-37.998	23.069	1670.521	1331.881
-36.984	23.109	1669.789	1331.547
-35.969	23.134	1668.762	1330.866
-34.954	23.231	1666.512	1329.746
-33.940	23.076	1665.003	1327.322
-32.925	23.150	1663.216	1326.406
-31.911	23.171	1661.158	1324.867
-30.896	23.083	1659.934	1323.178
-29.881	23.180	1657.944	1322.267
-28.867	23.144	1656.969	1321.165
-27.852	23.178	1655.100	1319.877
-26.838	23.169	1653.208	1318.250
-25.823	23.218	1652.100	1317.677
-24.809	23.215	1651.058	1316.773
-23.794	23.189	1649.521	1315.300
-22.779	23.285	1648.194	1314.903
-21.765	23.199	1646.371	1312.761
-20.750	23.152	1644.646	1310.982
-19.736	23.258	1643.681	1310.945
-18.721	23.221	1642.333	1309.549
-17.706	23.259	1640.527	1308.332
-16.692	23.192	1639.327	1306.831
-15.677	23.212	1637.773	1305.691
-14.663	23.233	1636.357	1304.662
-13.648	23.272	1634.827	1303.679
-12.633	23.245	1633.650	1302.485
-11.619	23.282	1631.590	1301.067
-10.604	23.232	1630.901	1300.095
-9.590	23.304	1629.239	1299.249
-8.575	23.279	1627.736	1297.813
-7.560	23.200	1626.642	1296.312
-6.546	23.186	1625.889	1295.563
-5.531	23.230	1624.731	1294.909
-4.517	23.263	1623.181	1293.860
-3.502	23.275	1622.026	1292.980
-2.487	23.279	1620.720	1291.912
-1.473	22.892	1607.903	1278.848
-0.458	19.969	1587.612	1241.726
0.556	14.825	1589.622	1209.763
1.571	12.644	1613.212	1211.567
2.586	12.434	1625.291	1218.974
3.600	11.581	1570.798	1171.882
4.615	6.395	1463.575	1057.059
5.629	1.264	1404.963	981.517
6.644	0.264	1397.743	969.950
7.659	0.206	1396.463	968.603
8.673	0.206	1396.027	968.211
9.688	0.074	1393.776	965.717
10.702	0.009	1390.340	962.837
11.717	2.631	1393.299	981.606
12.731	9.235	1403.352	1031.089
13.746	14.835	1412.102	1073.491
14.761	16.702	1413.737	1086.630
15.775	16.229	1412.153	1082.286
16.790	15.183	1410.064	1073.886
17.804	14.497	1407.234	1067.251
18.819	14.120	1406.296	1064.033
19.834	13.886	1404.566	1061.131
20.848	13.634	1403.693	1058.771
21.863	13.392	1402.251	1056.043
22.877	13.263	1400.616	1053.899
23.892	13.214	1399.879	1052.939
24.907	13.173	1399.240	1052.102
25.921	13.205	1398.518	1051.670
26.936	13.233	1397.249	1050.797
27.950	13.293	1396.210	1050.309
28.965	13.262	1395.784	1049.698
29.980	13.395	1394.368	1049.383
30.994	13.322	1393.720	1048.342
32.009	13.435	1392.445	1048.002
33.023	13.403	1391.486	1046.984
34.038	13.416	1390.216	1046.017
35.053	13.370	1389.053	1044.759
36.067	13.333	1387.979	1043.629
37.082	13.292	1387.384	1042.828
38.096	13.348	1385.824	1041.914
39.111	13.428	1384.634	1041.435
40.126	13.443	1383.577	1040.639
41.140	13.314	1382.998	1039.305
42.155	13.171	1383.242	1038.496
43.169	13.205	1382.704	1038.212
44.184	13.104	1382.717	1037.496
45.199	13.102	1382.528	1037.248
46.213	13.230	1381.402	1037.116
47.228	13.219	1380.662	1036.399
48.242	13.252	1379.492	1035.640
49.257	13.271	1377.542	1034.199
50.271	13.226	1376.623	1033.139
51.286	13.346	1374.683	1032.338
52.301	13.307	1373.286	1030.956
53.315	13.287	1372.167	1029.900
54.330	13.279	1371.381	1029.172
55.344	13.221	1370.075	1027.740
56.359	13.279	1369.146	1027.311
57.374	13.152	1368.207	1025.726
58.388	13.092	1367.521	1024.751
59.403	13.174	1366.782	1024.613
60.417	13.139	1365.837	1023.599
61.432	13.208	1364.711	1023.090
62.447	13.059	1364.232	1021.720
63.461	13.099	1362.653	1020.693
64.476	13.158	1361.635	1020.201
65.490	13.158	1360.213	1019.049
66.505	13.133	1358.626	1017.613
67.520	13.087	1357.540	1016.431
68.534	13.218	1356.465	1016.337
69.549	13.253	1355.046	1015.403
70.563	13.133	1354.148	1013.899
71.578	13.082	1353.329	1012.888
72.593	13.067	1352.343	1011.964
73.607	13.081	1351.685	1011.468
74.622	13.037	1350.877	1010.510
75.636	13.047	1350.137	1009.925
76.651	13.085	1349.360	1009.485
77.666	13.103	1348.671	1008.992
78.680	13.085	1347.864	1008.191
79.695	13.108	1346.895	1007.514
80.709	13.148	1346.122	1007.091
81.724	13.169	1345.189	1006.430
82.739	13.165	1344.365	1005.702
83.753	13.178	1343.168	1004.799
84.768	13.304	1342.359	1004.870
85.782	13.217	1341.105	1003.311
86.797	13.309	1339.274	1002.412
87.812	13.336	1338.362	1001.805
88.826	13.243	1337.511	1000.517
89.841	13.225	1336.268	999.388
90.855	13.296	1335.489	999.144
91.870	13.414	1334.008	998.666
92.884	13.260	1333.897	997.565
93.899	13.312	1333.175	997.248
94.914	13.287	1332.044	996.162
95.928	13.418	1331.101	996.158
96.943	13.409	1330.270	995.391
97.957	13.375	1329.237	994.328
98.972	13.230	1328.097	992.520
99.987	13.377	1327.041	992.524
101.001	13.422	1325.811	991.785
102.016	13.289	1324.780	990.127
103.030	13.385	1323.993	990.026
104.045	13.357	1323.144	989.138
105.060	13.321	1321.839	987.861
106.074	13.230	1320.921	986.543
107.089	13.158	1319.593	985.032
108.103	13.171	1317.896	983.755
109.118	13.138	1317.367	983.081
110.133	13.208	1315.752	982.201
111.147	13.153	1314.435	980.804
112.162	13.274	1312.875	980.273
113.176	13.280	1311.969	979.544
114.191	13.256	1310.827	978.464
115.206	13.336	1309.263	977.684
116.220	13.361	1307.827	976.671
117.235	13.201	1307.434	975.346
118.249	13.240	1306.459	974.762
119.264	13.223	1305.215	973.649
120.279	13.233	1303.870	972.620
121.293	13.202	1303.029	971.721
122.308	13.212	1301.846	970.815
123.322	13.175	1300.645	969.618
124.337	13.211	1299.784	969.101
125.352	13.136	1298.892	967.909
126.366	13.225	1297.084	966.999
127.381	13.162	1296.260	965.926
128.395	13.131	1295.374	965.002
129.410	13.110	1294.819	964.381
130.424	13.207	1293.528	963.898
131.439	13.251	1292.025	962.948
132.454	13.294	1291.458	962.691
133.468	13.250	1290.588	961.701
134.483	13.295	1289.263	960.892
135.497	13.256	1288.668	960.138
136.512	13.248	1287.205	958.918
137.527	13.272	1285.646	957.809
138.541	13.244	1283.988	956.324
139.556	13.324	1283.072	956.020
140.570	13.255	1282.368	955.017
141.585	13.397	1280.562	954.406
142.600	13.376	1279.772	953.611
143.614	13.448	1278.905	953.297
144.629	13.483	1277.806	952.592
145.643	13.450	1276.599	951.420
146.658	13.491	1275.158	950.497
147.673	13.337	1274.389	948.955
148.687	13.316	1272.959	947.684
149.702	13.296	1271.727	946.570
150.716	13.379	1269.960	945.644
151.731	13.372	1269.365	945.081
152.746	13.369	1268.013	943.972
153.760	13.404	1266.459	942.933
154.775	13.541	1265.386	942.827
155.789	13.548	1264.505	942.128
156.804	13.587	1263.154	941.260
157.819	13.494	1262.481	940.148
158.833	13.597	1261.149	939.655
159.848	13.605	1260.218	938.925
160.862	13.676	1259.457	938.675
161.877	13.542	1258.444	937.082
162.892	13.612	1257.465	936.665
163.906	13.633	1256.242	935.786
164.921	13.504	1255.693	934.568
165.935	13.552	1254.372	933.772
166.950	13.606	1253.587	933.412
167.964	13.622	1252.895	932.904
168.979	13.527	1252.185	931.758
169.994	13.568	1251.674	931.525
171.008	13.663	1250.172	930.857
172.023	13.628	1249.732	930.251
173.037	13.761	1248.749	930.182
174.052	13.814	1247.568	929.521
175.067	13.700	1246.317	927.868
176.081	13.564	1245.964	926.762
177.096	13.655	1245.119	926.558
178.110	13.725	1243.977	926.018
179.125	13.621	1242.950	924.590
180.140	13.787	1241.394	924.277
181.154	13.699	1240.161	922.787
182.169	13.750	1239.267	922.324
183.183	13.841	1238.020	921.820
184.198	13.908	1236.684	921.113
185.213	13.768	1235.777	919.583
186.227	13.902	1234.362	919.191
187.242	13.890	1233.482	918.385
188.256	13.885	1232.382	917.457
189.271	13.888	1231.847	916.997
190.286	13.820	1230.792	915.757
191.300	13.663	1230.159	914.335
192.315	13.790	1228.877	914.003
193.329	13.815	1228.234	913.579
194.344	13.732	1227.961	912.842
195.359	13.889	1226.920	912.850
196.373	13.785	1227.218	912.420
197.388	13.891	1225.989	912.008
198.402	13.923	1225.858	912.006
199.417	14.087	1224.685	911.952
200.432	14.043	1223.650	910.855
201.446	14.067	1223.254	910.614
202.461	14.188	1221.923	910.205
203.475	14.126	1220.978	909.081
204.490	14.055	1219.591	907.580
205.504	14.121	1218.204	906.829
206.519	14.082	1217.141	905.741
207.534	14.147	1215.853	905.060
208.548	13.995	1215.217	903.678
209.563	14.044	1214.463	903.304
210.577	14.140	1213.673	903.156
211.592	14.236	1212.272	902.556
212.607	14.237	1211.734	902.080
213.621	14.284	1210.361	901.236
214.636	14.250	1209.784	900.542
215.650	14.225	1208.853	899.631
216.665	14.327	1208.118	899.559
217.680	14.305	1207.154	898.638
218.694	14.317	1206.184	897.904
219.709	14.281	1205.273	896.954
220.723	14.224	1204.705	896.143
221.738	14.336	1204.231	896.316
222.753	14.339	1203.136	895.434
223.767	14.288	1202.745	894.790
224.782	14.388	1202.008	894.699
225.796	14.483	1200.938	894.335
226.811	14.475	1200.607	893.968
227.826	14.510	1199.847	893.507
228.840	14.448	1199.013	892.478
229.855	14.335	1198.645	891.520
230.869	14.493	1197.324	891.303
231.884	14.457	1196.395	890.342
232.899	14.406	1195.878	889.602
233.913	14.385	1195.414	889.069
234.928	14.410	1194.309	888.300
235.942	14.445	1193.311	887.667
236.957	14.424	1192.543	886.907
237.972	14.387	1192.179	886.357
238.986	14.359	1191.492	885.620
240.001	14.513	1190.442	885.580
241.015	14.505	1189.664	884.879
242.030	14.440	1189.207	884.119
243.045	14.650	1187.903	884.180
244.059	14.688	1187.114	883.715
245.074	14.577	1186.682	882.732
246.088	14.731	1185.903	882.887
247.103	14.624	1184.978	881.554
248.117	14.698	1184.413	881.445
249.132	14.670	1183.510	880.549
250.147	14.675	1182.809	879.975
251.161	14.806	1181.894	879.908
252.176	14.834	1181.083	879.373
253.190	14.853	1180.905	879.265
254.205	14.896	1180.425	879.055
255.220	14.933	1179.929	878.802
256.234	14.970	1178.844	878.110
257.249	14.869	1178.387	877.164
258.263	14.929	1177.855	877.001
259.278	14.908	1177.112	876.264
260.293	15.007	1176.327	876.120
261.307	15.031	1175.818	875.789
262.322	15.051	1175.317	875.440
263.336	15.090	1174.393	874.879
264.351	14.977	1173.803	873.770
265.366	15.077	1173.443	873.946
266.380	15.097	1172.278	873.108
267.395	15.180	1171.630	872.980
268.409	15.151	1170.878	872.191
269.424	15.129	1170.335	871.598
270.439	15.165	1169.790	871.298
271.453	15.072	1169.084	870.214
272.468	15.138	1167.690	869.444
273.482	15.133	1166.979	868.807
274.497	15.096	1166.632	868.281
275.512	15.092	1166.121	867.803
276.526	15.108	1165.309	867.205
277.541	15.110	1164.671	866.663
278.555	15.205	1163.783	866.421
279.570	15.146	1162.886	865.372
280.585	15.311	1162.103	865.563
281.599	15.337	1160.811	864.658
282.614	15.260	1160.239	863.759
283.628	15.252	1159.123	862.811
284.643	15.204	1158.396	861.946
285.657	15.373	1157.101	861.772
286.672	15.375	1156.289	861.101
287.687	15.241	1155.555	859.792
288.701	15.432	1154.462	859.881
289.716	15.431	1153.690	859.225
290.730	15.333	1153.049	858.172
291.745	15.368	1152.571	857.917
292.760	15.440	1151.839	857.668
293.774	15.439	1151.302	857.186
294.789	15.465	1150.514	856.655
295.803	15.460	1149.996	856.168
296.818	15.394	1149.705	855.540
297.833	15.574	1148.069	855.165
298.847	15.479	1148.026	854.572
299.862	15.528	1147.159	854.098
300.876	15.520	1146.316	853.357
301.891	15.583	1145.483	852.981
302.906	15.570	1144.873	852.382
303.920	15.557	1144.768	852.164
304.935	15.582	1143.442	851.230
305.949	15.666	1142.878	851.157
306.964	15.735	1142.117	850.865
307.979	15.764	1141.309	850.338
308.993	15.752	1140.766	849.795
310.008	15.713	1139.763	848.773
311.022	15.791	1139.334	848.773
312.037	15.860	1138.172	848.181
313.052	15.771	1137.545	847.190
314.066	15.724	1136.386	846.015
315.081	15.720	1135.758	845.454
316.095	15.735	1135.064	844.936
317.110	15.687	1134.889	844.490
318.125	15.810	1133.114	843.712
319.139	15.899	1132.605	843.704
320.154	15.754	1132.208	842.609
321.168	15.767	1131.700	842.223
322.183	15.928	1130.677	842.190
323.197	15.741	1130.544	841.081
324.212	15.871	1129.440	840.836
325.227	15.841	1129.465	840.631
326.241	15.914	1128.336	840.080
327.256	15.872	1127.742	839.353
328.270	15.868	1126.446	838.294
329.285	15.904	1125.695	837.841
330.300	15.935	1124.608	837.113
331.314	15.835	1123.882	836.001
332.329	15.888	1123.162	835.656
333.343	15.970	1122.008	835.128
334.358	16.009	1121.109	834.576
335.373	15.911	1121.092	834.005
336.387	16.062	1119.441	833.450
337.402	16.040	1119.047	832.974
338.416	15.971	1118.638	832.258
339.431	15.951	1117.936	831.561
340.446	16.055	1117.086	831.367
341.460	16.180	1116.058	831.148
342.475	16.202	1115.288	830.610
343.489	16.202	1114.517	829.958
344.504	16.217	1113.435	829.154
345.519	16.156	1112.835	828.333
346.533	16.305	1111.788	828.210
347.548	16.356	1111.232	827.978
348.562	16.375	1110.213	827.236
349.577	16.357	1109.666	826.665
350.592	16.279	1108.921	825.656
351.606	16.306	1108.167	825.156
352.621	16.265	1107.279	824.221
353.635	16.266	1106.853	823.833
354.650	16.213	1106.212	823.025
355.665	16.206	1105.501	822.391
356.679	16.332	1105.053	822.599
357.694	16.333	1104.225	821.915
358.708	16.429	1103.400	821.692
359.723	16.425	1103.001	821.303
360.738	16.575	1101.958	821.182
361.752	16.351	1101.579	819.743
362.767	16.359	1101.118	819.365
363.781	16.329	1100.925	819.001
364.796	16.484	1099.646	818.731
365.810	16.582	1099.362	818.922
366.825	16.577	1098.678	818.315
367.840	16.670	1097.923	818.128
368.854	16.685	1097.329	817.688
369.869	16.613	1096.729	816.819
370.883	16.702	1095.644	816.369
371.898	16.744	1094.690	815.787
372.913	16.658	1094.675	815.291
373.927	16.607	1094.205	814.622
374.942	16.721	1093.861	814.841
375.956	16.654	1093.342	814.062
376.971	16.708	1092.433	813.573
377.986	16.915	1091.546	813.835
379.000	16.853	1091.147	813.166
380.015	16.804	1090.402	812.306
381.029	16.798	1089.934	811.854
382.044	16.786	1089.411	811.337
383.059	16.829	1088.587	810.854
384.073	17.059	1087.405	811.004
385.088	16.807	1087.046	809.458
386.102	16.910	1085.697	808.876
387.117	16.898	1084.909	808.160
388.132	16.840	1083.826	807.006
389.146	16.875	1082.977	806.466
390.161	16.820	1082.402	805.708
391.175	16.938	1081.564	805.575
392.190	16.927	1081.352	805.291
393.205	17.023	1080.243	804.848
394.219	16.992	1079.665	804.201
395.234	16.982	1078.654	803.327
396.248	16.970	1077.557	802.383
397.263	16.894	1076.711	801.324
398.278	16.894	1075.841	800.606
399.292	16.992	1075.259	800.565
400.307	16.979	1074.719	800.030
401.321	17.012	1074.350	799.841
402.336	16.940	1073.749	798.982
403.350	17.014	1072.623	798.421
404.365	17.014	1072.217	798.051
405.380	17.118	1071.139	797.664
406.394	17.070	1070.618	796.981
407.409	17.127	1069.603	796.421
408.423	17.310	1068.702	796.539
409.438	17.254	1068.127	795.777
410.453	17.201	1067.435	794.945
411.467	17.254	1067.309	795.028
412.482	17.235	1066.281	794.101
413.496	17.268	1065.455	793.571
414.511	17.249	1065.231	793.247
415.526	17.380	1064.532	793.267
416.540	17.449	1064.158	793.238
417.555	17.429	1063.634	792.684
418.569	17.413	1062.914	792.005
419.584	17.458	1062.425	791.776
420.599	17.381	1061.924	790.974
421.613	107.974	1331.461	1488.253
422.628	99.700	1370.678	1488.325
