DTS Sentinel unit serial number:	SN413079Multiplexer serial number:	ORYXHardware model number:	OX4-SRSoftware version number:	ORYX F/W v4.00 Oryx Data Collector v3.7.2.0data status	okinstallation	princeton_trtdifferential loss correction	single-endedforward channel	channel 2reverse channel	N/Adate	2019/09/17time	10:19:34forward acquisition time	60.00reverse acquisition time	0.00gamma	496.2192k internal	0.2326k external	0.2326temperature offset calibration	0.9974default loss term (dB/km)	0.3790temperature slope calibration	1.0000multiplexer offset coefficient	1.0000multiplexer slope coefficient	1.0000fibre end	0.00T internal ref (°C)	29.86T ext. ref 1 (°C)	0.18T ext. ref 2 (°C)	25.46length (m)	temperature (°C)	Stokes	anti-Stokes-747.200	-200.000	-0.050	0.382
-746.185	-200.000	0.037	0.314
-745.171	86.592	0.127	0.141
-744.156	-30.411	0.305	0.174
-743.142	-117.974	0.129	-0.023
-742.127	-101.299	0.070	0.017
-741.112	20.491	-0.179	0.146
-740.098	-200.000	0.078	0.378
-739.083	-133.882	0.140	-0.018
-738.069	0.957	-0.394	0.285
-737.054	800.000	-0.055	-0.210
-736.039	33.536	-0.231	0.202
-735.025	-72.866	0.207	0.077
-734.010	-95.297	-0.238	-0.065
-732.996	-120.412	-0.382	-0.066
-731.981	-150.968	-0.295	-0.022
-730.966	-200.000	-0.032	0.145
-729.952	-111.361	-0.034	0.007
-728.937	-200.000	0.001	0.013
-727.923	427.286	0.160	0.349
-726.908	-89.372	-0.148	-0.044
-725.894	321.369	-0.125	-0.240
-724.879	-43.962	0.225	-0.114
-723.864	-43.094	-0.453	0.231
-722.850	257.918	-0.120	0.209
-721.835	372.676	-0.117	-0.239
-720.821	-86.761	-0.195	-0.060
-719.806	-200.000	-0.027	-0.146
-718.791	-81.757	-0.234	-0.077
-717.777	-54.881	-0.278	-0.126
-716.762	234.973	-0.233	-0.387
-715.748	254.623	-0.226	0.390
-714.733	24.222	-0.362	0.302
-713.718	800.000	-0.031	0.115
-712.704	-200.000	0.033	-0.224
-711.689	258.263	-0.045	0.078
-710.675	-200.000	0.011	-0.440
-709.660	-107.651	0.140	0.031
-708.645	-200.000	0.022	0.102
-707.631	800.000	0.027	-0.093
-706.616	76.280	-0.154	-0.165
-705.602	-66.936	-0.203	0.081
-704.587	-72.060	0.221	-0.083
-703.572	117.814	0.101	-0.126
-702.558	-30.755	-0.079	0.045
-701.543	209.868	0.305	-0.482
-700.529	800.000	-0.021	0.069
-699.514	73.699	-0.415	-0.437
-698.499	-50.384	0.236	-0.112
-697.485	-200.000	0.013	0.293
-696.470	35.140	-0.223	0.197
-695.456	-74.320	0.209	0.076
-694.441	-96.085	0.127	-0.034
-693.426	800.000	-0.075	0.324
-692.412	-200.000	0.026	0.141
-691.397	75.038	-0.183	0.194
-690.383	93.633	-0.145	-0.166
-689.368	233.568	0.102	0.169
-688.354	800.000	-0.015	-0.063
-687.339	-5.488	0.170	-0.117
-686.324	-200.000	-0.023	-0.171
-685.310	-92.959	-0.326	-0.092
-684.295	150.679	-0.060	-0.082
-683.281	-102.686	-0.288	0.069
-682.266	335.615	0.069	0.134
-681.251	311.096	-0.187	0.353
-680.237	800.000	-0.071	0.244
-679.222	-135.786	-0.216	-0.026
-678.208	-52.480	0.051	0.024
-677.193	-83.198	-0.180	0.058
-676.178	-52.120	-0.196	-0.091
-675.164	-200.000	0.043	-0.272
-674.149	51.754	0.219	0.210
-673.135	564.186	-0.110	-0.268
-672.120	800.000	-0.047	0.178
-671.105	-29.926	-0.040	-0.023
-670.091	-46.932	-0.074	0.036
-669.076	20.264	0.154	0.125
-668.062	113.234	0.111	-0.135
-667.047	-200.000	-0.044	-0.236
-666.032	273.623	-0.102	-0.181
-665.018	731.471	0.029	0.079
-664.003	-192.846	-0.190	0.002
-662.989	-200.000	-0.044	0.249
-661.974	-52.349	-0.341	0.159
-660.959	8.456	-0.230	-0.174
-659.945	-200.000	-0.029	0.197
-658.930	17.792	-0.065	-0.052
-657.916	624.064	-0.161	0.408
-656.901	45.006	-0.014	0.013
-655.886	-134.676	-0.268	0.033
-654.872	65.805	-0.183	-0.187
-653.857	-200.000	0.012	-0.057
-652.843	-156.707	0.157	-0.010
-651.828	-200.000	0.030	0.000
-650.814	-86.435	0.206	0.064
-649.799	-13.173	-0.071	0.046
-648.784	-115.924	-0.339	-0.064
-647.770	-100.048	0.150	-0.038
-646.755	-200.000	-0.009	0.075
-645.741	168.979	0.127	0.181
-644.726	136.409	-0.128	-0.168
-643.711	800.000	-0.085	0.334
-642.697	800.000	0.114	0.380
-641.682	-146.904	-0.086	-0.007
-640.668	-34.604	0.258	-0.142
-639.653	-91.527	0.189	-0.054
-638.638	13.844	-0.197	0.154
-637.624	-200.000	-0.019	-0.373
-636.609	-135.066	-0.174	0.021
-635.595	-23.495	-0.136	0.082
-634.580	-3.909	0.165	-0.115
-633.565	-200.000	-0.013	-0.188
-632.551	244.980	0.091	-0.153
-631.536	-200.000	0.011	-0.204
-630.522	800.000	-0.020	0.084
-629.507	-96.510	-0.256	-0.068
-628.492	168.185	-0.106	0.152
-627.478	-51.734	0.276	-0.129
-626.463	-200.000	-0.019	-0.116
-625.449	18.204	-0.100	-0.080
-624.434	-51.270	-0.322	-0.151
-623.419	-86.156	-0.303	-0.094
-622.405	800.000	-0.095	0.370
-621.390	417.738	-0.042	-0.089
-620.376	128.706	-0.162	0.207
-619.361	442.523	-0.093	0.203
-618.346	-200.000	-0.010	-0.071
-617.332	-85.398	0.131	-0.041
-616.317	39.140	-0.475	-0.427
-615.303	348.006	-0.089	0.176
-614.288	-164.654	0.280	-0.013
-613.273	1.482	0.218	-0.157
-612.259	-35.321	0.199	-0.108
-611.244	-200.000	0.027	-0.133
-610.230	800.000	-0.071	0.197
-609.215	-7.411	0.162	0.110
-608.201	-2.117	0.191	-0.134
-607.186	-46.193	0.162	-0.080
-606.171	-62.669	-0.356	-0.148
-605.157	259.495	0.073	0.126
-604.142	-47.361	-0.089	-0.043
-603.128	771.939	0.114	-0.313
-602.113	-186.874	-0.272	-0.004
-601.098	-137.910	0.112	-0.012
-600.084	178.639	0.098	-0.143
-599.069	100.923	-0.118	-0.138
-598.055	12.815	-0.193	0.150
-597.040	-200.000	0.030	-0.187
-596.025	233.148	0.172	0.283
-595.011	-107.949	0.328	0.071
-593.996	-91.006	0.145	-0.042
-592.982	22.875	-0.183	0.150
-591.967	221.040	-0.126	-0.203
-590.952	-89.649	0.162	0.048
-589.938	69.114	-0.310	-0.320
-588.923	-118.243	-0.189	0.034
-587.909	86.788	0.129	-0.143
-586.894	-200.000	-0.006	0.228
-585.879	13.821	-0.172	0.134
-584.865	191.338	0.259	0.391
-583.850	-110.965	0.263	-0.054
-582.836	-39.202	0.082	-0.043
-581.821	349.175	0.103	0.204
-580.806	-200.000	-0.063	-0.400
-579.792	800.000	0.113	-0.399
-578.777	85.351	0.056	0.061
-577.763	-120.374	-0.172	-0.029
-576.748	-143.479	-0.410	0.039
-575.733	532.352	0.082	-0.195
-574.719	258.277	0.025	0.043
-573.704	273.701	-0.063	0.111
-572.690	29.704	-0.187	-0.160
-571.675	1.171	-0.161	0.116
-570.661	122.729	-0.311	0.389
-569.646	800.000	0.005	0.019
-568.631	95.906	0.065	-0.074
-567.617	-200.000	0.005	0.201
-566.602	-200.000	-0.025	0.229
-565.588	5.152	0.250	-0.185
-564.573	-200.000	0.002	-0.197
-563.558	-200.000	-0.002	-0.021
-562.544	-43.197	0.367	-0.186
-561.529	123.285	-0.069	-0.087
-560.515	22.898	-0.243	0.199
-559.500	-113.165	-0.196	0.039
-558.485	623.877	0.120	-0.302
-557.471	-200.000	-0.061	-0.385
-556.456	-37.989	-0.085	-0.045
-555.442	-66.557	0.142	-0.056
-554.427	-164.755	-0.248	-0.011
-553.412	800.000	-0.078	-0.293
-552.398	94.142	-0.131	-0.149
-551.383	-6.070	0.199	0.136
-550.369	307.408	-0.056	0.105
-549.354	800.000	0.044	-0.143
-548.339	800.000	-0.081	-0.282
-547.325	-8.702	0.138	0.093
-546.310	-197.643	-0.104	-0.001
-545.296	800.000	-0.035	-0.117
-544.281	800.000	-0.053	-0.182
-543.266	-1.660	-0.264	-0.186
-542.252	37.786	0.107	-0.095
-541.237	433.157	-0.129	0.280
-540.223	-200.000	0.004	0.034
-539.208	21.367	0.142	0.116
-538.193	397.852	0.117	0.246
-537.179	24.848	-0.093	-0.077
-536.164	12.121	-0.051	-0.039
-535.150	603.130	-0.074	-0.185
-534.135	-27.708	0.155	-0.090
-533.121	-16.001	-0.191	-0.122
-532.106	-76.950	0.107	0.037
-531.091	423.789	0.038	-0.081
-530.077	-141.542	-0.284	-0.029
-529.062	12.707	0.237	0.183
-528.048	-200.000	0.026	0.160
-527.033	-200.000	-0.028	0.143
-526.018	-173.323	0.153	-0.005
-525.004	222.840	0.102	-0.165
-523.989	100.045	-0.257	-0.298
-522.975	71.956	0.257	-0.267
-521.960	353.110	-0.074	0.147
-520.945	118.556	0.139	0.172
-519.931	26.606	-0.208	0.174
-518.916	-137.460	-0.195	-0.022
-517.902	800.000	-0.118	-0.364
-516.887	800.000	-0.013	0.045
-515.872	-200.000	0.036	-0.188
-514.858	-31.627	-0.067	0.038
-513.843	264.771	0.101	-0.176
-512.829	-139.146	0.126	-0.014
-511.814	97.021	-0.212	0.243
-510.799	800.000	-0.023	0.099
-509.785	50.664	-0.083	0.078
-508.770	-147.458	0.231	-0.020
-507.756	184.060	0.078	0.116
-506.741	-200.000	0.003	0.124
-505.726	532.038	-0.078	0.185
-504.712	82.891	0.173	-0.188
-503.697	-45.237	-0.150	0.075
-502.683	72.718	-0.077	-0.080
-501.668	715.119	0.106	-0.282
-500.653	141.342	0.111	-0.147
-499.639	197.379	0.096	-0.146
-498.624	-167.260	0.256	-0.010
-497.610	800.000	0.130	0.406
-496.595	-144.128	-0.225	-0.021
-495.581	800.000	-0.025	0.098
-494.566	-19.063	-0.139	0.086
-493.551	-200.000	-0.011	0.395
-492.537	-200.000	0.042	-0.320
-491.522	-105.686	0.074	-0.017
-490.508	800.000	-0.098	-0.403
-489.493	102.757	0.228	-0.267
-488.478	800.000	0.040	0.127
-487.464	-4.227	0.039	-0.027
-486.449	-17.308	-0.193	0.121
-485.435	-11.553	0.117	0.077
-484.420	39.626	0.149	0.134
-483.405	81.342	0.218	-0.235
-482.391	-200.000	-0.048	0.273
-481.376	136.657	-0.151	-0.197
-480.362	-93.674	-0.124	-0.034
-479.347	234.287	-0.109	0.179
-478.332	-121.527	0.180	0.030
-477.318	553.651	-0.029	0.069
-476.303	-200.000	-0.005	-0.256
-475.289	215.566	-0.110	-0.174
-474.274	-142.485	0.114	0.011
-473.259	216.895	0.106	-0.169
-472.245	-200.000	0.042	-0.227
-471.230	800.000	0.077	-0.233
-470.216	50.653	0.056	-0.053
-469.201	-145.807	0.245	0.022
-468.186	800.000	0.103	-0.330
-467.172	49.167	-0.158	0.148
-466.157	465.810	0.044	-0.098
-465.143	581.943	0.067	0.165
-464.128	800.000	-0.071	0.227
-463.113	-96.401	0.303	-0.080
-462.099	-200.000	0.321	0.000
-461.084	-3.234	-0.254	-0.177
-460.070	60.015	0.075	0.074
-459.055	-200.000	0.005	0.120
-458.040	639.431	-0.114	-0.288
-457.026	104.900	0.048	0.056
-456.011	-148.170	-0.082	0.007
-454.997	-7.726	0.123	0.083
-453.982	259.772	-0.203	0.350
-452.968	259.058	0.116	0.200
-451.953	16.137	0.166	0.130
-450.938	-200.000	0.071	-0.471
-449.924	800.000	0.060	0.186
-448.909	-102.346	0.123	-0.029
-447.895	-65.954	0.237	-0.095
-446.880	-148.822	0.325	0.026
-445.865	537.081	-0.083	-0.197
-444.851	35.205	0.196	0.171
-443.836	800.000	0.017	0.058
-442.822	-200.000	-0.027	0.257
-441.807	-60.919	-0.131	0.055
-440.792	-82.301	0.320	0.104
-439.778	303.657	-0.123	0.227
-438.763	-96.033	0.070	0.019
-437.749	-200.000	-0.008	-0.046
-436.734	-200.000	-0.029	0.317
-435.719	-28.123	-0.135	0.078
-434.705	-112.087	0.077	-0.015
-433.690	-98.773	0.079	-0.020
-432.676	-43.472	-0.173	-0.087
-431.661	-128.618	0.257	-0.036
-430.646	127.663	0.215	-0.273
-429.632	800.000	0.026	0.075
-428.617	-120.618	0.205	0.035
-427.603	41.160	0.262	0.236
-426.588	-200.000	-0.019	-0.246
-425.573	-160.123	0.048	-0.003
-424.559	-144.689	-0.565	-0.052
-423.544	350.959	-0.113	-0.222
-422.530	-123.165	-0.257	-0.041
-421.515	-191.803	-0.172	0.002
-420.500	-200.000	0.027	-0.186
-419.486	-110.438	0.262	-0.054
-418.471	539.585	-0.040	-0.096
-417.457	-200.000	-0.014	0.160
-416.442	-200.000	0.015	0.147
-415.428	-31.718	-0.252	-0.141
-414.413	800.000	0.021	0.083
-413.398	56.868	0.336	-0.326
-412.384	161.896	-0.148	-0.207
-411.369	800.000	-0.072	0.297
-410.355	293.913	0.070	0.127
-409.340	159.785	-0.114	-0.158
-408.325	-187.784	0.099	0.001
-407.311	3.265	-0.200	-0.145
-406.296	-28.290	0.102	-0.059
-405.282	427.457	-0.056	-0.120
-404.267	800.000	0.040	0.112
-403.252	-59.958	0.142	-0.061
-402.238	-200.000	-0.019	0.177
-401.223	-200.000	-0.021	0.241
-400.209	-113.465	-0.239	-0.047
-399.194	800.000	-0.063	0.181
-398.179	-156.464	-0.065	-0.004
-397.165	-200.000	0.023	0.258
-396.150	-200.000	0.038	0.164
-395.136	84.490	0.220	0.240
-394.121	129.628	0.070	0.089
-393.106	322.506	0.021	-0.039
-392.092	-200.000	-0.027	-0.170
-391.077	800.000	-0.004	0.011
-390.063	800.000	-0.171	-0.596
-389.048	800.000	-0.052	-0.215
-388.033	-200.000	-0.025	0.177
-387.019	269.346	-0.127	-0.223
-386.004	510.558	0.135	-0.312
-384.990	277.296	0.177	-0.313
-383.975	315.830	0.097	0.182
-382.960	-92.415	0.340	0.095
-381.946	289.929	-0.084	0.151
-380.931	0.615	0.357	0.254
-379.917	-62.606	-0.137	0.057
-378.902	-89.910	-0.207	-0.060
-377.888	-61.579	0.305	0.127
-376.873	-200.000	0.043	0.217
-375.858	-70.848	0.158	-0.059
-374.844	285.426	-0.049	-0.087
-373.829	197.930	-0.207	0.314
-372.815	-162.854	-0.323	0.016
-371.800	150.598	-0.197	0.266
-370.785	-169.092	-0.063	-0.002
-369.771	-48.172	0.043	0.021
-368.756	-200.000	-0.034	-0.365
-367.742	-138.937	-0.290	-0.031
-366.727	-100.903	0.395	0.096
-365.712	-144.345	-0.249	-0.023
-364.698	-53.344	0.159	-0.072
-363.683	-200.000	0.035	-0.212
-362.669	-42.008	-0.171	0.087
-361.654	95.170	0.147	0.166
-360.639	773.980	-0.052	-0.140
-359.625	-200.000	0.187	0.000
-358.610	190.209	0.038	0.057
-357.596	-200.000	0.034	0.322
-356.581	-41.392	0.326	0.167
-355.566	-53.766	-0.101	0.046
-354.552	5.849	0.382	-0.281
-353.537	363.284	0.183	-0.365
-352.523	-145.297	-0.361	0.032
-351.508	77.282	-0.067	-0.071
-350.493	800.000	-0.101	-0.365
-349.479	-200.000	-0.009	0.100
-348.464	-43.763	0.172	-0.086
-347.450	32.262	-0.284	0.243
-346.435	-200.000	-0.017	0.138
-345.420	800.000	-0.025	-0.101
-344.406	-116.868	-0.118	-0.021
-343.391	-200.000	-0.014	0.133
-342.377	182.140	0.063	-0.093
-341.362	-200.000	0.004	0.062
-340.348	-129.016	0.041	-0.006
-339.333	-200.000	0.039	0.294
-338.318	137.052	-0.053	-0.069
-337.304	-33.520	0.037	-0.021
-336.289	-130.580	-0.130	0.017
-335.275	-13.375	-0.189	0.122
-334.260	-179.557	-0.139	0.003
-333.245	-200.000	0.031	-0.312
-332.231	-186.815	-0.092	-0.001
-331.216	-200.000	0.018	-0.217
-330.202	-99.308	-0.177	-0.044
-329.187	-200.000	0.005	0.201
-328.172	-1.543	-0.216	0.151
-327.158	-20.349	0.459	-0.280
-326.143	-19.844	-0.040	0.025
-325.129	107.326	-0.232	0.274
-324.114	-135.429	-0.230	0.027
-323.099	48.647	-0.277	-0.258
-322.085	5.196	0.111	-0.081
-321.070	-16.262	0.163	-0.103
-320.056	-200.000	-0.002	0.167
-319.041	219.066	0.061	0.097
-318.026	-200.000	0.003	0.445
-317.012	781.323	0.016	0.045
-315.997	25.711	-0.059	-0.048
-314.983	-27.079	-0.154	-0.089
-313.968	-59.136	0.078	0.033
-312.953	68.888	0.065	-0.066
-311.939	800.000	-0.053	0.149
-310.924	-110.804	-0.303	-0.062
-309.910	-128.452	-0.195	0.027
-308.895	92.330	0.166	0.185
-307.880	89.852	-0.090	-0.100
-306.866	-38.704	-0.024	0.013
-305.851	-113.571	0.332	0.064
-304.837	51.447	0.080	0.076
-303.822	-39.786	0.127	0.066
-302.807	411.418	-0.082	0.173
-301.793	23.249	0.220	0.179
-300.778	212.485	-0.066	0.104
-299.764	-85.651	0.104	0.032
-298.749	-37.054	0.090	-0.048
-297.735	-47.107	0.196	-0.095
-296.720	-200.000	0.011	0.063
-295.705	66.541	0.243	0.245
-294.691	-200.000	0.006	-0.059
-293.676	800.000	0.033	0.119
-292.662	-43.817	-0.099	0.050
-291.647	180.009	0.105	0.153
-290.632	800.000	-0.028	0.099
-289.618	-115.503	-0.148	0.028
-288.603	637.060	-0.053	-0.133
-287.589	-60.204	-0.343	0.145
-286.574	17.746	-0.356	-0.281
-285.559	265.199	-0.176	0.304
-284.545	-126.935	-0.059	0.009
-283.530	-129.992	0.195	0.026
-282.516	-17.078	0.086	-0.054
-281.501	-171.964	0.361	0.012
-280.486	17.529	-0.049	0.039
-279.472	655.359	-0.127	-0.323
-278.457	150.835	0.099	-0.133
-277.443	133.692	0.148	-0.190
-276.428	-102.326	-0.245	-0.058
-275.413	800.000	0.006	0.017
-274.399	104.196	0.111	0.129
-273.384	-33.279	-0.351	0.192
-272.370	-25.711	0.150	0.088
-271.355	-46.194	-0.282	-0.137
-270.340	4.537	-0.268	-0.195
-269.326	800.000	-0.058	0.204
-268.311	-132.226	-0.338	-0.043
-267.297	800.000	0.044	0.165
-266.282	302.606	-0.250	-0.458
-265.267	-50.103	0.137	-0.064
-264.253	578.931	-0.082	0.198
-263.238	-200.000	0.032	-0.176
-262.224	310.659	0.172	-0.320
-261.209	145.352	-0.171	0.226
-260.195	600.547	0.218	0.535
-259.180	581.055	0.075	-0.182
-258.165	-200.000	0.031	-0.295
-257.151	639.523	-0.077	-0.194
-256.136	62.065	0.016	0.016
-255.122	-2.329	0.173	-0.120
-254.107	-138.184	0.236	0.026
-253.092	800.000	-0.049	0.150
-252.078	264.918	0.115	-0.198
-251.063	247.546	-0.030	-0.050
-250.049	63.007	-0.232	-0.229
-249.034	-200.000	0.003	0.111
-248.019	79.304	-0.098	0.103
-247.005	-24.934	-0.233	0.137
-245.990	-46.335	-0.180	0.087
-244.976	800.000	0.078	0.322
-243.961	156.958	-0.077	0.105
-242.946	-200.000	-0.014	-0.180
-241.932	21.177	0.102	0.082
-240.917	-64.869	0.185	0.074
-239.903	-200.000	0.040	0.312
-238.888	-10.167	-0.108	-0.071
-237.873	8.268	-0.227	-0.168
-236.859	-112.465	-0.317	0.063
-235.844	624.884	-0.123	0.307
-234.830	-200.000	0.005	0.058
-233.815	-149.929	0.097	-0.007
-232.800	188.999	0.135	-0.201
-231.786	-73.862	0.229	0.082
-230.771	-132.819	-0.199	0.025
-229.757	-113.280	0.225	0.044
-228.742	240.336	0.120	-0.198
-227.727	800.000	0.056	0.173
-226.713	-167.320	0.188	0.007
-225.698	-130.298	0.381	0.051
-224.684	-123.007	0.203	0.032
-223.669	-97.011	-0.210	-0.054
-222.655	-53.387	-0.164	-0.074
-221.640	-114.389	-0.185	-0.035
-220.625	97.104	-0.085	0.097
-219.611	56.338	-0.223	-0.214
-218.596	-46.018	0.100	-0.049
-217.582	800.000	0.057	-0.232
-216.567	-27.804	0.157	-0.090
-215.552	-200.000	0.021	0.274
-214.538	-200.000	0.068	0.303
-213.523	145.216	0.100	-0.132
-212.509	-90.214	-0.199	0.057
-211.494	-121.738	0.199	0.032
-210.479	56.678	-0.172	-0.166
-209.465	416.916	0.035	0.073
-208.450	-76.459	0.132	-0.046
-207.436	-100.364	-0.225	-0.055
-206.421	-89.124	0.249	0.073
-205.406	133.920	0.150	0.192
-204.392	176.538	-0.131	0.189
-203.377	-200.000	0.011	0.073
-202.363	-33.600	-0.178	0.097
-201.348	-43.473	-0.137	-0.068
-200.333	37.003	-0.117	-0.102
-199.319	-200.000	0.022	0.119
-198.304	-103.771	0.138	0.032
-197.290	732.223	-0.013	0.035
-196.275	-86.245	0.086	0.026
-195.260	157.425	0.206	0.281
-194.246	-151.592	0.312	0.023
-193.231	203.142	0.143	-0.218
-192.217	88.057	0.037	-0.041
-191.202	217.743	0.038	-0.060
-190.187	-79.057	0.219	0.073
-189.173	504.883	-0.114	-0.261
-188.158	800.000	0.034	-0.129
-187.144	-154.582	0.427	0.028
-186.129	621.772	0.128	-0.317
-185.114	-172.130	-0.353	0.011
-184.100	641.160	-0.040	0.099
-183.085	-200.000	0.038	0.304
-182.071	173.614	-0.275	-0.391
-181.056	-200.000	0.013	-0.116
-180.042	-115.818	-0.106	0.020
-179.027	-149.156	-0.268	0.021
-178.012	-200.000	-0.003	0.181
-176.998	10.875	-0.137	-0.104
-175.983	-200.000	0.025	0.206
-174.969	-37.742	-0.028	0.015
-173.954	32.622	-0.038	0.033
-172.939	86.972	0.175	0.190
-171.925	-200.000	0.015	-0.243
-170.910	33.368	0.133	-0.114
-169.896	-48.780	-0.263	0.124
-168.881	785.603	0.068	-0.183
-167.866	-33.799	-0.059	-0.032
-166.852	128.940	-0.214	0.270
-165.837	466.019	0.146	-0.323
-164.823	-200.000	0.024	-0.297
-163.808	800.000	-0.118	0.428
-162.793	-119.947	0.324	-0.055
-161.779	85.308	0.171	0.185
-160.764	-99.916	-0.248	-0.061
-159.750	147.660	0.116	0.154
-158.735	190.386	0.237	0.351
-157.720	800.000	0.162	0.472
-156.706	-23.282	0.174	0.103
-155.691	372.165	-0.067	-0.135
-154.677	72.315	0.039	-0.040
-153.662	419.350	-0.186	0.393
-152.647	340.254	0.175	0.336
-151.633	-53.281	-0.214	0.097
-150.618	34.127	0.130	-0.112
-149.604	-99.932	0.183	0.045
-148.589	207.987	0.152	0.234
-147.574	-90.327	-0.163	0.047
-146.560	-14.566	0.094	0.060
-145.545	800.000	-0.051	-0.175
-144.531	-5.037	-0.073	-0.049
-143.516	106.247	0.132	-0.154
-142.502	-56.989	-0.263	0.114
-141.487	29.756	-0.044	-0.037
-140.472	438.207	-0.117	-0.252
-139.458	279.644	-0.094	-0.165
-138.443	436.963	0.054	0.117
-137.429	-200.000	0.004	-0.323
-136.414	45.963	-0.175	0.159
-135.399	800.000	-0.024	0.080
-134.385	-200.000	-0.030	0.211
-133.370	800.000	-0.062	0.175
-132.356	78.470	-0.320	0.337
-131.341	800.000	-0.060	0.244
-130.326	-27.691	-0.172	0.098
-129.312	12.337	0.147	-0.111
-128.297	-79.052	0.218	0.073
-127.283	-200.000	-0.011	-0.193
-126.268	-24.738	0.401	-0.235
-125.253	56.629	0.111	0.106
-124.239	800.000	-0.036	0.127
-123.224	-111.328	-0.208	-0.042
-122.210	3.236	-0.173	0.124
-121.195	-188.355	-0.211	-0.003
-120.180	-133.232	-0.265	-0.033
-119.166	-3.585	-0.121	0.083
-118.151	800.000	-0.108	0.378
-117.137	36.874	-0.227	-0.198
-116.122	-200.000	-0.079	-0.369
-115.107	-200.000	-0.048	-0.299
-114.093	-103.956	0.384	0.088
-113.078	300.781	-0.139	0.253
-112.064	-5.797	0.040	0.027
-111.049	16.677	-0.283	-0.220
-110.034	39.541	-0.226	0.200
-109.020	41.227	-0.171	-0.152
-108.005	-7.712	-0.151	0.100
-106.991	359.699	-0.173	-0.340
-105.976	-200.000	0.016	-0.264
-104.962	12.135	0.155	0.118
-103.947	66.330	-0.263	0.263
-102.932	800.000	0.077	0.224
-101.918	-62.824	-0.138	-0.056
-100.903	800.000	-0.070	0.244
-99.889	-145.022	0.173	0.016
-98.874	1.263	0.227	0.160
-97.859	-53.367	-0.200	-0.090
-96.845	-200.000	-0.003	0.152
-95.830	-116.781	0.415	-0.075
-94.816	-200.000	0.011	-0.085
-93.801	163.073	-0.306	0.423
-92.786	180.332	0.174	-0.250
-91.772	-200.000	-0.024	0.119
-90.757	-3.059	-0.399	-0.274
-89.743	-100.824	0.221	-0.053
-88.728	-73.290	0.276	-0.099
-87.713	-83.571	0.159	0.050
-86.699	40.246	-0.281	0.248
-85.684	-19.909	0.190	0.115
-84.670	247.759	-0.121	0.200
-83.655	215.042	0.117	-0.182
-82.640	-59.340	0.024	-0.010
-81.626	788.803	0.228	0.614
-80.611	586.986	-0.139	0.336
-79.597	-194.168	0.153	-0.001
-78.582	-81.989	-0.269	0.087
-77.567	196.458	0.116	0.174
-76.553	-180.387	0.293	0.006
-75.538	8.276	0.237	-0.175
-74.524	80.794	-0.021	-0.022
-73.509	-200.000	0.004	-0.091
-72.494	-200.000	0.016	-0.123
-71.480	-200.000	-0.019	0.284
-70.465	-18.197	-0.137	-0.084
-69.451	-31.560	-0.137	-0.075
-68.436	-40.114	-0.218	-0.112
-67.422	-200.000	0.009	-0.169
-66.407	-158.366	-0.287	-0.016
-65.392	800.000	-0.087	0.235
-64.378	-200.000	0.012	-0.155
-63.363	-200.000	0.008	0.041
-62.349	-78.082	-0.454	0.153
-61.334	220.299	-0.577	-0.909
-60.319	87.300	0.538	0.584
-59.305	800.000	-0.284	-1.000
-58.290	381.809	0.663	1.336
-57.276	376.651	0.746	1.495
-56.261	-200.000	104.531	568.195
-55.246	453.127	1460.149	3172.265
-54.232	147.144	2660.229	3514.402
-53.217	100.302	2304.494	2625.291
-52.203	39.047	1914.879	1680.742
-51.188	33.134	1702.002	1448.691
-50.173	30.447	1658.454	1391.475
-49.159	48.830	1710.113	1575.093
-48.144	49.304	1725.879	1593.160
-47.130	32.695	1684.628	1430.345
-46.115	30.002	1670.250	1397.789
-45.100	29.809	1665.707	1392.485
-44.086	29.727	1662.901	1389.467
-43.071	29.702	1660.223	1386.986
-42.057	29.763	1657.275	1384.921
-41.042	29.814	1655.448	1383.721
-40.027	29.815	1653.584	1382.118
-39.013	29.676	1651.773	1379.516
-37.998	29.703	1650.252	1378.390
-36.984	29.745	1648.606	1377.275
-35.969	29.792	1647.615	1376.738
-34.954	29.879	1645.665	1375.700
-33.940	29.906	1643.794	1374.281
-32.925	29.887	1642.344	1372.878
-31.911	29.825	1640.884	1371.139
-30.896	29.782	1638.812	1369.037
-29.881	29.827	1637.192	1367.962
-28.867	29.897	1635.234	1366.788
-27.852	29.969	1633.655	1365.947
-26.838	29.864	1632.518	1364.166
-25.823	29.812	1631.420	1362.813
-24.809	29.940	1629.990	1362.508
-23.794	29.832	1628.549	1360.455
-22.779	29.853	1627.112	1359.353
-21.765	29.876	1625.095	1357.780
-20.750	29.917	1623.644	1356.821
-19.736	29.887	1622.568	1355.646
-18.721	29.843	1621.247	1354.168
-17.706	29.927	1619.022	1352.869
-16.692	29.869	1618.150	1351.660
-15.677	29.911	1616.592	1350.614
-14.663	29.864	1615.426	1349.239
-13.648	29.930	1613.254	1347.852
-12.633	29.941	1611.993	1346.826
-11.619	29.709	1611.094	1344.338
-10.604	29.903	1609.108	1344.037
-9.590	30.001	1607.960	1343.737
-8.575	29.935	1607.276	1342.630
-7.560	29.898	1605.802	1341.077
-6.546	29.890	1605.018	1340.315
-5.531	29.976	1603.099	1339.279
-4.517	29.898	1602.398	1338.077
-3.502	29.836	1601.250	1336.614
-2.487	29.905	1599.405	1335.518
-1.473	29.716	1587.926	1324.528
-0.458	26.990	1568.789	1289.188
0.556	21.818	1569.429	1257.993
1.571	19.534	1593.848	1260.791
2.586	19.121	1607.278	1268.265
3.600	17.630	1554.649	1215.994
4.615	9.870	1443.446	1077.309
5.629	1.941	1377.727	977.500
6.644	0.340	1369.538	961.397
7.659	0.165	1368.643	959.571
8.673	0.100	1367.101	957.993
9.688	0.115	1365.323	956.755
10.702	-0.053	1362.408	953.565
11.717	3.668	1368.315	981.290
12.731	12.257	1382.210	1046.103
13.746	17.232	1388.926	1082.873
14.761	17.229	1386.532	1080.890
15.775	16.263	1384.544	1073.109
16.790	15.194	1381.944	1064.212
17.804	14.505	1379.754	1058.061
18.819	14.076	1378.758	1054.485
19.834	13.797	1376.968	1051.254
20.848	13.540	1375.908	1048.723
21.863	13.389	1374.318	1046.466
22.877	13.260	1373.029	1044.577
23.892	13.190	1372.197	1043.411
24.907	13.165	1371.014	1042.260
25.921	13.146	1370.260	1041.475
26.936	13.192	1369.240	1040.894
27.950	13.322	1368.576	1041.119
28.965	13.229	1367.522	1039.638
29.980	13.344	1366.651	1039.608
30.994	13.359	1365.785	1038.951
32.009	13.508	1364.694	1038.964
33.023	13.545	1363.832	1038.447
34.038	13.411	1362.632	1036.604
35.053	13.370	1361.395	1035.312
36.067	13.365	1360.335	1034.386
37.082	13.421	1359.335	1033.879
38.096	13.358	1358.604	1032.844
39.111	13.383	1357.780	1032.280
40.126	13.287	1357.079	1031.058
41.140	13.251	1355.946	1029.879
42.155	13.094	1355.841	1028.734
43.169	13.182	1355.480	1028.912
44.184	13.131	1355.826	1028.770
45.199	13.079	1355.141	1027.834
46.213	13.079	1354.357	1027.148
47.228	13.186	1353.485	1027.062
48.242	13.212	1352.215	1026.169
49.257	13.330	1349.990	1025.121
50.271	13.318	1349.293	1024.425
51.286	13.350	1348.248	1023.739
52.301	13.265	1346.987	1022.166
53.315	13.176	1346.101	1020.853
54.330	13.090	1345.391	1019.697
55.344	13.132	1343.617	1018.520
56.359	13.223	1342.579	1018.202
57.374	13.257	1341.990	1017.875
58.388	13.171	1340.793	1016.347
59.403	13.121	1340.042	1015.381
60.417	13.095	1339.699	1014.872
61.432	13.068	1338.740	1013.888
62.447	13.075	1338.044	1013.315
63.461	13.111	1336.302	1012.127
64.476	13.128	1335.236	1011.334
65.490	13.058	1334.265	1010.083
66.505	13.165	1332.259	1009.125
67.520	13.032	1331.813	1007.885
68.534	13.136	1330.887	1007.730
69.549	13.105	1329.377	1006.309
70.563	13.154	1327.870	1005.378
71.578	13.035	1327.216	1004.075
72.593	12.963	1326.467	1002.976
73.607	13.007	1325.613	1002.508
74.622	13.049	1324.821	1002.076
75.636	13.066	1323.429	1001.041
76.651	13.048	1322.947	1000.480
77.666	13.034	1322.249	999.776
78.680	13.108	1321.582	999.632
79.695	13.054	1320.687	998.538
80.709	13.040	1320.465	998.201
81.724	13.110	1319.422	997.747
82.739	13.083	1318.293	996.641
83.753	13.205	1317.149	996.422
84.768	13.296	1316.158	996.135
85.782	13.422	1314.586	995.611
86.797	13.281	1313.839	994.109
87.812	13.206	1312.828	992.805
88.826	13.180	1312.041	991.972
89.841	13.310	1309.906	991.045
90.855	13.296	1309.657	990.686
91.870	13.227	1308.936	989.639
92.884	13.305	1307.880	989.221
93.899	13.356	1307.032	988.796
94.914	13.335	1306.382	988.094
95.928	13.361	1305.258	987.310
96.943	13.345	1304.899	986.853
97.957	13.280	1303.934	985.650
98.972	13.269	1302.140	984.141
99.987	13.274	1302.005	983.984
101.001	13.297	1300.664	983.021
102.016	13.285	1299.726	982.153
103.030	13.361	1298.826	981.836
104.045	13.307	1298.159	980.923
105.060	13.373	1296.037	979.628
106.074	13.264	1295.312	978.347
107.089	13.149	1294.028	976.606
108.103	13.142	1292.755	975.522
109.118	13.221	1291.615	975.039
110.133	13.255	1290.330	974.185
111.147	13.076	1289.655	972.534
112.162	13.241	1287.945	972.126
113.176	13.189	1286.558	970.692
114.191	13.334	1285.505	970.661
115.206	13.286	1284.911	969.846
116.220	13.301	1283.693	968.928
117.235	13.214	1282.620	967.523
118.249	13.188	1281.771	966.645
119.264	13.234	1280.295	965.717
120.279	13.189	1279.484	964.753
121.293	13.157	1278.220	963.532
122.308	13.222	1276.855	962.792
123.322	13.116	1276.733	962.003
124.337	13.138	1275.437	961.066
125.352	13.177	1273.947	960.087
126.366	13.222	1272.285	959.011
127.381	13.200	1271.720	958.371
128.395	13.171	1270.784	957.413
129.410	13.112	1269.986	956.385
130.424	13.303	1269.192	956.807
131.439	13.238	1268.178	955.581
132.454	13.293	1267.184	955.068
133.468	13.202	1266.262	953.765
134.483	13.268	1265.746	953.668
135.497	13.292	1264.213	952.566
136.512	13.237	1263.351	951.520
137.527	13.264	1261.730	950.369
138.541	13.281	1260.576	949.516
139.556	13.328	1258.955	948.479
140.570	13.263	1257.948	947.262
141.585	13.387	1256.599	946.870
142.600	13.405	1255.648	946.174
143.614	13.371	1254.848	945.293
144.629	13.323	1254.011	944.304
145.643	13.454	1252.101	943.532
146.658	13.461	1250.853	942.544
147.673	13.401	1249.748	941.288
148.687	13.355	1248.548	940.039
149.702	13.366	1247.351	939.119
150.716	13.341	1246.191	938.020
151.731	13.362	1244.790	937.003
152.746	13.352	1243.587	935.960
153.760	13.401	1242.482	935.322
154.775	13.421	1241.176	934.369
155.789	13.483	1240.377	934.035
156.804	13.501	1239.270	933.220
157.819	13.387	1238.392	931.833
158.833	13.389	1237.518	931.105
159.848	13.552	1236.616	931.260
160.862	13.685	1235.269	930.908
161.877	13.537	1234.107	929.123
162.892	13.500	1232.768	927.823
163.906	13.539	1232.623	927.848
164.921	13.401	1231.845	926.409
165.935	13.522	1230.661	926.112
166.950	13.504	1230.294	925.656
167.964	13.621	1229.177	925.386
168.979	13.590	1228.257	924.438
169.994	13.560	1227.517	923.631
171.008	13.547	1227.006	923.092
172.023	13.559	1226.152	922.437
173.037	13.739	1225.264	922.687
174.052	13.712	1224.355	921.774
175.067	13.623	1223.276	920.384
176.081	13.608	1222.256	919.454
177.096	13.620	1221.458	918.839
178.110	13.558	1220.516	917.703
179.125	13.706	1218.810	917.159
180.140	13.649	1217.794	916.000
181.154	13.703	1216.534	915.268
182.169	13.697	1215.674	914.504
183.183	13.673	1214.642	913.516
184.198	13.745	1213.497	912.971
185.213	13.731	1212.565	912.113
186.227	13.825	1211.228	911.544
187.242	13.894	1209.819	910.779
188.256	14.015	1208.903	910.674
189.271	13.935	1207.740	909.275
190.286	13.786	1206.968	907.802
191.300	13.618	1206.243	906.255
192.315	13.591	1205.633	905.571
193.329	13.720	1204.896	905.641
194.344	13.613	1204.790	904.895
195.359	13.825	1203.731	905.180
196.373	13.855	1203.138	904.814
197.388	13.997	1202.106	904.733
198.402	14.041	1201.859	904.707
199.417	13.974	1201.953	904.331
200.432	14.028	1200.244	903.261
201.446	14.068	1199.938	903.167
202.461	14.065	1198.985	902.352
203.475	14.060	1198.242	901.689
204.490	14.062	1196.630	900.407
205.504	13.993	1195.251	898.913
206.519	13.998	1194.487	898.290
207.534	14.045	1193.136	897.446
208.548	14.000	1192.445	896.602
209.563	14.088	1191.930	896.612
210.577	14.061	1190.130	895.031
211.592	14.090	1189.553	894.679
212.607	14.203	1188.715	894.576
213.621	14.209	1187.963	893.964
214.636	14.155	1187.251	893.058
215.650	14.201	1186.135	892.385
216.665	14.176	1185.526	891.712
217.680	14.230	1184.652	891.269
218.694	14.353	1183.008	890.607
219.709	14.237	1182.776	889.735
220.723	14.232	1182.186	889.187
221.738	14.302	1181.139	888.695
222.753	14.263	1180.681	888.061
223.767	14.336	1179.835	887.738
224.782	14.395	1179.681	887.854
225.796	14.516	1178.738	887.711
226.811	14.459	1177.725	886.569
227.826	14.475	1177.273	886.234
228.840	14.426	1176.599	885.387
229.855	14.416	1175.765	884.626
230.869	14.368	1175.164	883.842
231.884	14.228	1174.623	882.614
232.899	14.303	1173.551	882.131
233.913	14.364	1172.633	881.687
234.928	14.211	1172.390	880.615
235.942	14.357	1171.171	880.395
236.957	14.316	1170.587	879.660
237.972	14.399	1169.252	879.015
238.986	14.332	1169.100	878.470
240.001	14.402	1168.115	878.024
241.015	14.443	1167.197	877.469
242.030	14.490	1167.060	877.538
243.045	14.417	1166.144	876.387
244.059	14.488	1164.963	875.795
245.074	14.430	1164.483	875.051
246.088	14.472	1163.518	874.471
247.103	14.543	1162.537	874.029
248.117	14.618	1161.967	873.915
249.132	14.635	1161.095	873.270
250.147	14.779	1160.165	873.245
251.161	14.763	1159.882	872.869
252.176	14.800	1159.174	872.452
253.190	14.765	1158.705	871.841
254.205	14.852	1157.624	871.402
255.220	14.816	1157.095	870.741
256.234	14.938	1156.580	870.911
257.249	15.002	1155.765	870.552
258.263	14.917	1155.034	869.484
259.278	14.872	1154.589	868.839
260.293	14.882	1154.055	868.415
261.307	15.055	1153.168	868.565
262.322	15.109	1152.420	868.207
263.336	14.970	1152.394	867.388
264.351	15.116	1151.149	867.129
265.366	15.067	1150.762	866.507
266.380	15.043	1150.030	865.756
267.395	15.121	1149.199	865.459
268.409	15.046	1148.579	864.525
269.424	15.102	1148.009	864.308
270.439	15.005	1147.578	863.409
271.453	15.011	1146.683	862.689
272.468	15.049	1145.738	862.100
273.482	15.043	1145.084	861.502
274.497	15.036	1144.602	861.022
275.512	15.133	1143.697	860.768
276.526	15.106	1143.164	860.152
277.541	15.149	1141.855	859.311
278.555	15.186	1141.613	859.244
279.570	15.238	1140.657	858.714
280.585	15.256	1140.128	858.331
281.599	15.262	1138.752	857.251
282.614	15.379	1137.664	856.952
283.628	15.414	1136.743	856.362
284.643	15.232	1136.278	855.005
285.657	15.304	1135.120	854.425
286.672	15.232	1134.368	853.419
287.687	15.338	1133.205	853.009
288.701	15.265	1133.112	852.491
289.716	15.333	1132.197	852.070
290.730	15.376	1131.188	851.456
291.745	15.357	1130.846	851.028
292.760	15.442	1129.930	850.693
293.774	15.460	1129.407	850.313
294.789	15.427	1128.730	849.562
295.803	15.425	1128.540	849.334
296.818	15.480	1127.323	848.622
297.833	15.458	1126.647	847.924
298.847	15.449	1125.739	847.122
299.862	15.523	1125.212	847.026
300.876	15.510	1124.258	846.164
301.891	15.473	1123.936	845.662
302.906	15.569	1122.917	845.304
303.920	15.586	1122.699	845.151
304.935	15.554	1122.371	844.668
305.949	15.711	1120.648	844.085
306.964	15.683	1120.398	843.681
307.979	15.681	1119.850	843.181
308.993	15.667	1118.740	842.201
310.008	15.698	1117.993	841.719
311.022	15.685	1117.518	841.226
312.037	15.755	1116.635	840.836
313.052	15.629	1115.925	839.598
314.066	15.632	1114.957	838.809
315.081	15.629	1114.004	838.004
316.095	15.662	1113.215	837.497
317.110	15.773	1112.354	837.330
318.125	15.720	1111.718	836.515
319.139	15.680	1111.273	835.907
320.154	15.594	1110.483	834.809
321.168	15.649	1110.100	834.722
322.183	15.776	1109.197	834.599
323.197	15.741	1108.557	833.867
324.212	15.765	1108.141	833.603
325.227	15.767	1107.525	833.073
326.241	15.686	1107.210	832.364
327.256	15.678	1106.285	831.557
328.270	15.727	1105.278	830.968
329.285	15.768	1103.964	830.109
330.300	15.803	1103.170	829.607
331.314	15.883	1102.051	829.090
332.329	15.876	1101.189	828.333
333.343	15.910	1100.645	828.015
334.358	16.036	1099.283	827.538
335.373	15.999	1098.997	827.069
336.387	15.978	1098.053	826.180
337.402	15.950	1097.584	825.619
338.416	16.064	1097.077	825.720
339.431	16.013	1096.344	824.847
340.446	16.098	1095.601	824.630
341.460	16.142	1094.998	824.317
342.475	16.178	1094.078	823.729
343.489	16.175	1093.083	822.892
344.504	16.147	1092.214	822.031
345.519	16.294	1091.461	822.107
346.533	16.254	1090.616	821.200
347.548	16.334	1089.752	820.870
348.562	16.185	1089.374	819.784
349.577	16.215	1088.572	819.257
350.592	16.153	1087.814	818.310
351.606	16.187	1087.146	817.900
352.621	16.243	1086.397	817.539
353.635	16.249	1085.620	816.906
354.650	16.215	1084.731	816.006
355.665	16.248	1084.094	815.611
356.679	16.226	1083.655	815.102
357.694	16.300	1083.165	815.019
358.708	16.420	1082.151	814.761
359.723	16.273	1081.918	813.806
360.738	16.345	1080.845	813.274
361.752	16.261	1080.591	812.605
362.767	16.481	1079.953	813.111
363.781	16.338	1079.553	812.053
364.796	16.441	1078.748	811.870
365.810	16.511	1078.283	811.786
366.825	16.572	1077.787	811.632
367.840	16.647	1077.282	811.542
368.854	16.586	1076.641	810.694
369.869	16.609	1075.898	810.172
370.883	16.598	1074.664	809.120
371.898	16.670	1074.135	808.995
372.913	16.680	1073.514	808.501
373.927	16.581	1073.141	807.675
374.942	16.590	1072.910	807.471
375.956	16.688	1072.099	807.258
376.971	16.778	1071.396	807.086
377.986	16.699	1071.201	806.494
379.000	16.737	1070.413	806.008
380.015	16.914	1069.821	806.331
381.029	16.825	1069.070	805.271
382.044	16.717	1068.571	804.312
383.059	16.881	1067.536	804.241
384.073	16.823	1066.892	803.409
385.088	16.902	1066.112	803.127
386.102	16.869	1065.153	802.177
387.117	16.934	1063.596	801.241
388.132	16.880	1062.801	800.314
389.146	16.754	1062.354	799.313
390.161	16.822	1061.703	799.074
391.175	16.812	1061.435	798.753
392.190	17.082	1060.077	798.930
393.205	16.956	1059.628	797.931
394.219	16.943	1059.273	797.529
395.234	16.863	1058.366	796.399
396.248	16.883	1057.045	795.432
397.263	16.904	1056.025	794.689
398.278	16.892	1055.413	794.106
399.292	16.922	1054.537	793.515
400.307	16.812	1054.526	792.924
401.321	16.967	1053.553	792.843
402.336	16.985	1052.817	792.303
403.350	16.961	1052.085	791.573
404.365	16.878	1051.779	790.882
405.380	17.012	1050.607	790.558
406.394	17.172	1049.905	790.702
407.409	17.140	1049.293	790.025
408.423	17.065	1048.386	788.920
409.438	17.126	1047.717	788.633
410.453	17.194	1047.253	788.528
411.467	17.196	1046.521	787.920
412.482	17.196	1045.833	787.329
413.496	17.352	1044.849	787.240
414.511	17.382	1044.191	786.817
415.526	17.289	1044.226	786.340
416.540	17.354	1043.979	786.388
417.555	17.442	1043.080	786.048
418.569	17.412	1042.565	785.451
419.584	17.309	1042.234	784.656
420.599	17.362	1041.641	784.387
421.613	102.640	1321.769	1466.450
422.628	94.235	1362.536	1466.566
