DTS Sentinel unit serial number:	SN413079Multiplexer serial number:	ORYXHardware model number:	OX4-SRSoftware version number:	ORYX F/W v4.00 Oryx Data Collector v3.7.2.0data status	okinstallation	princeton_trtdifferential loss correction	single-endedforward channel	channel 2reverse channel	N/Adate	2019/09/17time	03:23:35forward acquisition time	60.00reverse acquisition time	0.00gamma	496.2192k internal	0.2326k external	0.2326temperature offset calibration	0.9975default loss term (dB/km)	0.3790temperature slope calibration	1.0000multiplexer offset coefficient	1.0000multiplexer slope coefficient	1.0000fibre end	0.00T internal ref (°C)	30.00T ext. ref 1 (°C)	0.14T ext. ref 2 (°C)	24.84length (m)	temperature (°C)	Stokes	anti-Stokes-747.200	-56.966	0.063	0.028
-746.185	82.341	-0.110	0.120
-745.171	79.565	0.291	-0.315
-744.156	-126.773	-0.292	0.043
-743.142	7.442	0.377	0.284
-742.127	298.208	-0.091	0.168
-741.112	77.773	-0.076	0.082
-740.098	207.410	0.174	0.274
-739.083	-200.000	0.024	-0.208
-738.069	431.160	-0.185	0.405
-737.054	-78.316	-0.322	0.111
-736.039	47.436	-0.099	-0.093
-735.025	182.164	-0.100	-0.148
-734.010	-55.176	-0.198	-0.090
-732.996	-38.880	0.174	-0.092
-731.981	134.151	0.017	-0.023
-730.966	-101.547	-0.103	0.025
-729.952	305.654	-0.064	0.120
-728.937	800.000	0.116	0.324
-727.923	-1.294	-0.113	0.080
-726.908	-200.000	-0.019	0.322
-725.894	346.625	-0.028	0.055
-724.879	-83.657	0.141	0.045
-723.864	-200.000	-0.017	0.182
-722.850	134.695	-0.079	-0.103
-721.835	28.417	0.318	-0.271
-720.821	94.327	-0.114	-0.131
-719.806	502.899	0.064	-0.148
-718.791	120.842	0.277	0.348
-717.777	-183.507	-0.136	0.002
-716.762	582.571	0.060	0.147
-715.748	-103.511	-0.091	-0.022
-714.733	800.000	-0.022	-0.061
-713.718	-13.607	0.189	-0.124
-712.704	-69.433	0.175	0.068
-711.689	575.145	0.030	0.073
-710.675	353.715	-0.081	0.162
-709.660	-200.000	0.005	-0.423
-708.645	22.565	-0.126	-0.104
-707.631	107.711	0.317	0.381
-706.616	-123.741	-0.264	0.042
-705.602	-130.961	0.207	0.028
-704.587	-200.000	-0.004	-0.032
-703.572	-142.443	0.440	-0.044
-702.558	679.918	-0.123	0.323
-701.543	800.000	0.027	-0.088
-700.529	-200.000	-0.019	0.196
-699.514	-47.858	0.160	0.078
-698.499	-22.265	0.157	-0.096
-697.485	127.718	-0.098	-0.126
-696.470	47.547	0.064	-0.060
-695.456	171.290	0.089	-0.128
-694.441	-60.893	0.262	-0.111
-693.426	-9.087	0.398	-0.268
-692.412	123.089	-0.145	-0.182
-691.397	303.055	-0.170	-0.317
-690.383	205.767	0.034	0.053
-689.368	47.691	0.158	0.148
-688.354	124.715	-0.221	-0.280
-687.339	-36.692	-0.020	-0.011
-686.324	-200.000	-0.098	0.480
-685.310	800.000	-0.074	-0.296
-684.295	800.000	-0.047	-0.165
-683.281	-200.000	-0.012	-0.251
-682.266	-41.945	0.191	0.098
-681.251	-183.862	-0.200	-0.003
-680.237	-48.505	-0.327	0.158
-679.222	82.700	0.069	0.075
-678.208	-1.012	-0.246	-0.175
-677.193	-41.076	0.035	0.018
-676.178	800.000	0.045	-0.161
-675.164	32.868	0.215	-0.187
-674.149	45.678	0.299	-0.278
-673.135	-200.000	-0.012	-0.225
-672.120	28.262	-0.346	-0.294
-671.105	-45.698	-0.223	-0.111
-670.091	437.060	-0.108	-0.236
-669.076	174.101	0.100	0.145
-668.062	-80.589	-0.084	0.028
-667.047	-145.384	-0.044	0.004
-666.032	226.382	-0.157	0.257
-665.018	-61.483	0.299	0.127
-664.003	-121.020	-0.135	0.023
-662.989	800.000	0.061	0.176
-661.974	561.016	-0.087	-0.212
-660.959	45.742	-0.214	-0.199
-659.945	-25.780	-0.161	-0.096
-658.930	63.552	0.186	0.188
-657.916	508.212	0.104	0.242
-656.901	-200.000	-0.063	0.298
-655.886	800.000	0.029	-0.107
-654.872	-57.207	0.218	-0.096
-653.857	-34.357	-0.117	0.065
-652.843	193.106	-0.162	0.247
-651.828	-76.824	-0.145	-0.051
-650.814	-200.000	-0.014	-0.183
-649.799	800.000	-0.046	0.155
-648.784	11.539	0.260	-0.201
-647.770	4.305	-0.157	0.115
-646.755	38.590	0.154	-0.138
-645.741	147.984	-0.108	0.147
-644.726	800.000	0.074	0.272
-643.711	-200.000	-0.002	-0.123
-642.697	74.321	-0.061	-0.065
-641.682	-152.499	-0.129	0.009
-640.668	469.945	-0.030	-0.069
-639.653	42.328	0.265	-0.242
-638.638	-46.045	-0.194	0.096
-637.624	-159.344	-0.104	-0.006
-636.609	-103.261	0.198	0.047
-635.595	222.407	-0.061	-0.099
-634.580	-200.000	-0.060	0.374
-633.565	-200.000	-0.077	0.414
-632.551	-200.000	0.017	-0.083
-631.536	-69.385	-0.136	-0.052
-630.522	-200.000	0.032	-0.207
-629.507	-146.624	0.328	0.029
-628.492	400.689	0.063	-0.133
-627.478	155.475	-0.072	0.100
-626.463	-126.172	-0.498	0.075
-625.449	705.240	-0.072	0.192
-624.434	112.126	0.157	0.190
-623.419	119.528	-0.150	0.186
-622.405	-200.000	0.015	-0.189
-621.390	-83.122	-0.193	-0.062
-620.376	-14.145	-0.060	-0.039
-619.361	-17.324	0.191	0.121
-618.346	19.496	0.241	0.194
-617.332	56.912	0.055	-0.054
-616.317	-200.000	-0.049	-0.357
-615.303	-139.095	-0.289	0.031
-614.288	-200.000	0.005	-0.356
-613.273	-200.000	-0.032	0.151
-612.259	700.599	0.025	0.066
-611.244	120.018	0.280	-0.349
-610.230	-160.500	0.268	-0.014
-609.215	286.406	-0.138	-0.251
-608.201	800.000	0.104	-0.333
-607.186	6.716	0.032	0.024
-606.171	-70.944	0.445	-0.168
-605.157	79.945	-0.169	-0.182
-604.142	154.040	-0.153	-0.210
-603.128	147.823	0.313	0.423
-602.113	-200.000	-0.026	-0.502
-601.098	61.825	-0.012	-0.012
-600.084	161.418	-0.131	-0.184
-599.069	-123.939	0.144	-0.023
-598.055	77.244	-0.211	0.225
-597.040	548.723	-0.076	-0.183
-596.025	-87.437	0.091	0.028
-595.011	-49.544	0.235	0.112
-593.996	-7.111	-0.238	0.162
-592.982	384.276	-0.065	-0.134
-591.967	-111.729	-0.248	-0.050
-590.952	32.481	0.153	0.132
-589.938	-200.000	0.022	0.155
-588.923	-121.721	0.327	-0.054
-587.909	-200.000	0.047	-0.216
-586.894	53.416	-0.144	0.138
-585.879	218.578	0.064	0.103
-584.865	438.680	0.046	0.101
-583.850	-200.000	0.029	-0.301
-582.836	-200.000	-0.032	0.217
-581.821	162.239	-0.189	0.266
-580.806	493.877	-0.023	-0.053
-579.792	-200.000	0.015	-0.211
-578.777	-200.000	-0.012	0.054
-577.763	-23.549	-0.284	-0.171
-576.748	-200.000	0.009	-0.152
-575.733	392.301	0.042	-0.087
-574.719	76.901	-0.189	0.201
-573.704	-48.366	0.167	0.081
-572.690	160.768	-0.188	0.263
-571.675	-119.969	0.122	0.021
-570.661	369.635	0.050	0.101
-569.646	3.904	0.045	-0.033
-568.631	-47.115	-0.057	-0.028
-567.617	-123.486	0.338	0.054
-566.602	110.251	-0.064	-0.076
-565.588	618.916	0.058	-0.146
-564.573	-200.000	-0.003	-0.255
-563.558	-200.000	-0.030	0.550
-562.544	-200.000	0.007	0.262
-561.529	-80.209	0.351	-0.117
-560.515	-200.000	0.007	-0.186
-559.500	800.000	-0.082	-0.237
-558.485	-41.495	-0.252	-0.130
-557.471	401.802	0.054	-0.113
-556.456	-200.000	0.022	0.193
-555.442	-200.000	-0.086	-0.396
-554.427	-200.000	-0.044	0.238
-553.412	-200.000	0.007	0.199
-552.398	-200.000	-0.028	-0.179
-551.383	-81.170	-0.196	-0.065
-550.369	218.427	0.106	0.170
-549.354	581.872	0.097	-0.238
-548.339	246.191	0.178	0.300
-547.325	8.995	-0.280	0.212
-546.310	67.413	-0.155	0.158
-545.296	-11.237	0.120	0.079
-544.281	529.303	0.107	0.252
-543.266	95.101	-0.125	-0.143
-542.252	176.238	0.178	-0.259
-541.237	4.141	-0.282	0.206
-540.223	-23.873	-0.335	-0.200
-539.208	800.000	-0.060	0.169
-538.193	249.146	-0.088	-0.150
-537.179	800.000	0.082	0.232
-536.164	148.691	0.127	0.172
-535.150	750.380	-0.102	0.276
-534.135	-10.342	0.257	-0.171
-533.121	-57.801	0.119	-0.052
-532.106	800.000	0.043	0.119
-531.091	-118.072	-0.321	0.057
-530.077	214.626	-0.146	-0.232
-529.062	-200.000	-0.067	-0.300
-528.048	-126.387	0.131	0.020
-527.033	-97.846	-0.321	-0.083
-526.018	-70.888	0.169	0.064
-525.004	129.873	-0.142	0.182
-523.989	164.776	-0.155	0.218
-522.975	-108.567	0.166	-0.036
-521.960	-200.000	0.008	0.294
-520.945	30.747	0.149	0.128
-519.931	-112.648	0.204	-0.041
-518.916	226.725	-0.109	0.177
-517.902	118.986	0.064	-0.079
-516.887	153.781	-0.044	0.060
-515.872	-28.828	-0.397	0.228
-514.858	-200.000	0.000	0.119
-513.843	382.505	-0.096	-0.198
-512.829	202.063	0.083	-0.128
-511.814	281.139	-0.172	0.307
-510.799	-42.347	0.155	-0.079
-509.785	144.336	0.129	0.172
-508.770	800.000	-0.018	-0.062
-507.756	563.890	0.182	-0.439
-506.741	-105.362	-0.326	-0.074
-505.726	112.308	-0.228	-0.276
-504.712	-21.316	0.351	0.214
-503.697	-200.000	0.006	0.112
-502.683	-185.870	0.439	0.007
-501.668	403.227	-0.122	-0.256
-500.653	-200.000	0.011	-0.162
-499.639	-103.103	-0.250	-0.059
-498.624	74.493	-0.097	0.102
-497.610	-200.000	0.003	-0.181
-496.595	800.000	-0.049	0.166
-495.581	-111.558	0.199	-0.040
-494.566	-35.052	-0.026	-0.014
-493.551	-116.980	-0.510	0.093
-492.537	-144.401	0.218	0.020
-491.522	334.006	-0.082	-0.159
-490.508	25.825	0.216	0.179
-489.493	-200.000	-0.014	0.132
-488.478	237.463	0.205	0.340
-487.464	-110.755	0.084	-0.017
-486.449	-114.071	-0.143	-0.028
-485.435	800.000	0.064	0.198
-484.420	-44.450	-0.191	0.095
-483.405	269.537	-0.109	0.191
-482.391	-200.000	-0.082	0.413
-481.376	-51.826	-0.023	0.011
-480.362	-22.308	-0.129	-0.078
-479.347	-3.058	-0.216	-0.150
-478.332	-139.556	-0.232	0.025
-477.318	-200.000	-0.009	0.100
-476.303	-15.806	0.235	0.150
-475.289	-160.240	0.318	0.017
-474.274	68.134	0.262	-0.267
-473.259	-65.064	-0.243	-0.098
-472.245	25.887	0.137	0.114
-471.230	109.302	0.190	-0.227
-470.216	187.690	-0.045	0.066
-469.201	-94.711	-0.605	0.164
-468.186	328.348	0.023	-0.043
-467.172	-200.000	0.024	0.107
-466.157	134.344	0.091	0.118
-465.143	30.236	0.107	0.091
-464.128	204.122	0.035	-0.054
-463.113	-200.000	0.001	-0.062
-462.099	-99.282	0.166	-0.042
-461.084	112.084	0.111	0.133
-460.070	-145.149	0.301	-0.027
-459.055	82.319	0.116	0.125
-458.040	-116.091	-0.244	-0.045
-457.026	457.991	-0.072	-0.159
-456.011	800.000	-0.110	-0.328
-454.997	709.251	0.125	-0.329
-453.982	-200.000	-0.009	0.286
-452.968	165.051	0.095	-0.134
-451.953	-200.000	0.026	-0.287
-450.938	-200.000	-0.003	0.140
-449.924	-200.000	0.001	-0.336
-448.909	139.871	0.031	0.041
-447.895	-149.600	0.236	-0.019
-446.880	-200.000	0.007	-0.064
-445.865	229.769	-0.162	-0.264
-444.851	-200.000	0.018	-0.336
-443.836	-90.184	-0.196	-0.057
-442.822	-200.000	-0.002	-0.071
-441.807	-69.490	-0.025	-0.010
-440.792	800.000	-0.090	-0.252
-439.778	-86.479	0.215	0.066
-438.763	-200.000	0.033	-0.162
-437.749	-200.000	0.006	-0.070
-436.734	429.932	0.119	0.256
-435.719	-200.000	-0.067	0.330
-434.705	43.350	0.259	0.236
-433.690	-34.951	-0.419	-0.228
-432.676	464.993	0.073	0.163
-431.661	-94.690	-0.249	0.067
-430.646	-200.000	0.030	0.227
-429.632	125.172	-0.079	0.099
-428.617	-200.000	0.023	0.225
-427.603	-33.037	0.240	-0.132
-426.588	14.849	0.323	-0.252
-425.573	244.261	0.146	0.244
-424.559	-28.241	-0.288	-0.165
-423.544	129.013	-0.127	-0.161
-422.530	255.707	0.028	-0.048
-421.515	-146.353	-0.356	-0.031
-420.500	-71.510	0.271	0.101
-419.486	-200.000	0.004	0.195
-418.471	102.252	-0.263	0.306
-417.457	103.290	0.212	0.247
-416.442	359.873	0.073	-0.145
-415.428	119.516	0.118	-0.145
-414.413	800.000	-0.077	0.310
-413.398	-2.092	0.132	-0.092
-412.384	-127.858	0.196	-0.028
-411.369	-200.000	-0.013	0.143
-410.355	800.000	0.099	-0.368
-409.340	-166.465	0.142	-0.006
-408.325	-81.444	-0.038	0.013
-407.311	451.132	0.142	-0.311
-406.296	-159.033	-0.314	-0.018
-405.282	212.415	-0.193	0.303
-404.267	539.073	-0.069	0.163
-403.252	239.430	-0.139	-0.231
-402.238	-200.000	0.016	0.291
-401.223	800.000	-0.041	-0.153
-400.209	38.822	-0.181	-0.161
-399.194	317.059	-0.071	-0.134
-398.179	-95.706	-0.181	0.048
-397.165	-118.279	0.345	-0.061
-396.150	13.910	-0.123	-0.095
-395.136	-129.283	0.350	-0.049
-394.121	103.268	-0.100	-0.116
-393.106	77.359	0.350	-0.370
-392.092	159.362	0.107	-0.149
-391.077	-79.089	0.239	0.081
-390.063	-180.514	-0.243	0.005
-389.048	227.011	-0.048	-0.078
-388.033	579.367	-0.036	0.088
-387.019	-62.099	-0.216	0.090
-386.004	36.108	0.153	-0.134
-384.990	270.364	0.123	-0.214
-383.975	20.467	-0.125	0.101
-382.960	-200.000	-0.047	0.313
-381.946	-58.353	-0.131	0.056
-380.931	-200.000	0.016	-0.304
-379.917	-200.000	0.035	0.163
-378.902	113.979	0.163	0.197
-377.888	800.000	-0.080	-0.301
-376.873	51.734	0.199	0.188
-375.858	5.271	-0.082	-0.060
-374.844	279.188	-0.096	0.170
-373.829	437.486	-0.109	-0.236
-372.815	-200.000	-0.016	-0.295
-371.800	-152.697	0.310	0.022
-370.785	-57.567	-0.386	0.168
-369.771	-6.031	0.107	-0.073
-368.756	230.683	0.133	0.216
-367.742	76.722	0.088	0.092
-366.727	-36.677	-0.287	-0.153
-365.712	111.152	-0.263	-0.314
-364.698	-129.430	-0.187	-0.026
-363.683	-77.203	-0.010	-0.003
-362.669	43.441	-0.205	0.186
-361.654	38.921	0.122	-0.108
-360.639	6.485	-0.148	0.109
-359.625	178.475	0.065	-0.094
-358.610	45.894	-0.134	0.123
-357.596	289.385	0.042	-0.075
-356.581	97.500	-0.081	0.092
-355.566	-165.049	0.093	0.004
-354.552	136.491	-0.082	-0.106
-353.537	50.906	-0.023	-0.022
-352.523	-200.000	0.050	-0.331
-351.508	509.498	0.060	-0.138
-350.493	-200.000	-0.052	0.260
-349.479	-8.667	-0.233	0.155
-348.464	-115.099	0.429	0.081
-347.450	12.293	0.176	-0.134
-346.435	161.663	-0.051	0.071
-345.420	-43.792	-0.143	0.071
-344.406	-84.121	0.146	-0.046
-343.391	-66.139	-0.137	0.054
-342.377	-27.885	-0.125	-0.072
-341.362	-119.783	0.146	-0.025
-340.348	-200.000	-0.011	0.071
-339.333	425.014	-0.026	0.055
-338.318	190.327	-0.117	0.174
-337.304	-85.716	0.165	0.051
-336.289	92.302	0.143	0.160
-335.275	-65.069	-0.080	0.032
-334.260	40.139	-0.114	0.102
-333.245	272.662	0.070	0.122
-332.231	-165.639	0.165	-0.007
-331.216	40.489	0.243	-0.217
-330.202	48.714	-0.267	0.249
-329.187	-166.270	0.229	0.010
-328.172	75.669	-0.049	-0.051
-327.158	93.829	-0.143	-0.161
-326.143	547.334	-0.176	0.417
-325.129	276.263	0.088	-0.156
-324.114	-176.982	-0.089	-0.002
-323.099	-125.321	0.203	-0.031
-322.085	115.307	-0.108	0.131
-321.070	99.726	-0.042	0.048
-320.056	88.883	0.066	0.073
-319.041	-200.000	0.003	-0.324
-318.026	223.777	-0.256	0.410
-317.012	424.867	-0.158	0.338
-315.997	800.000	0.120	-0.338
-314.983	-146.444	-0.188	0.016
-313.968	425.568	0.031	0.066
-312.953	-200.000	0.010	-0.203
-311.939	155.755	0.055	-0.075
-310.924	-200.000	-0.003	0.238
-309.910	-144.988	-0.338	-0.031
-308.895	-135.154	-0.060	-0.007
-307.880	-157.462	-0.249	-0.015
-306.866	800.000	-0.045	-0.128
-305.851	249.180	0.229	-0.385
-304.837	89.297	0.167	-0.184
-303.822	-200.000	-0.003	0.021
-302.807	-46.997	0.220	0.106
-301.793	-140.501	-0.278	-0.029
-300.778	200.256	-0.060	0.091
-299.764	142.556	0.062	0.082
-298.749	503.116	0.086	-0.196
-297.735	-67.712	-0.130	0.051
-296.720	800.000	-0.053	0.182
-295.705	-200.000	0.036	-0.221
-294.691	267.043	0.059	0.102
-293.676	-166.580	-0.219	-0.009
-292.662	-200.000	0.011	0.207
-291.647	-200.000	0.025	0.190
-290.632	508.793	0.190	-0.437
-289.618	37.110	-0.101	-0.089
-288.603	-104.294	0.196	0.045
-287.589	-46.012	0.332	0.162
-286.574	-139.581	-0.141	0.015
-285.559	800.000	0.033	-0.138
-284.545	581.838	0.094	0.228
-283.530	-200.000	0.032	-0.160
-282.516	-85.971	0.116	-0.036
-281.501	-200.000	0.015	0.098
-280.486	800.000	0.062	0.235
-279.472	351.093	-0.104	-0.204
-278.457	51.435	-0.119	0.112
-277.443	-200.000	-0.061	-0.441
-276.428	-101.382	0.280	0.068
-275.413	126.357	-0.145	0.181
-274.399	107.260	-0.144	-0.169
-273.384	-104.055	0.363	0.084
-272.370	3.642	-0.138	-0.100
-271.355	546.974	0.088	0.208
-270.340	-111.923	-0.279	-0.056
-269.326	21.306	0.236	0.189
-268.311	-200.000	-0.034	-0.312
-267.297	-200.000	0.032	0.242
-266.282	60.836	-0.159	0.156
-265.267	205.520	-0.101	-0.155
-264.253	-158.505	0.334	0.019
-263.238	-200.000	0.002	0.038
-262.224	181.046	0.174	-0.253
-261.209	-156.933	-0.409	0.025
-260.195	571.175	-0.080	-0.193
-259.180	91.753	0.061	-0.067
-258.165	800.000	-0.045	0.180
-257.151	44.350	0.196	0.178
-256.136	-70.713	-0.233	0.087
-255.122	96.266	0.263	-0.298
-254.107	-38.957	0.315	-0.164
-253.092	-200.000	0.024	0.190
-252.078	97.455	-0.062	0.071
-251.063	-200.000	0.044	-0.259
-250.049	-97.234	0.069	0.018
-249.034	-183.328	0.017	0.000
-248.019	-104.513	-0.074	0.017
-247.005	800.000	0.009	0.036
-245.990	48.236	-0.111	-0.103
-244.976	-131.928	0.209	-0.027
-243.961	-13.800	-0.087	-0.056
-242.946	224.915	0.143	0.228
-241.932	-139.386	0.186	-0.020
-240.917	-115.259	0.228	-0.043
-239.903	-35.681	-0.245	-0.131
-238.888	31.484	-0.276	0.234
-237.873	-34.774	0.253	0.137
-236.859	393.366	-0.056	-0.115
-235.844	777.563	0.067	-0.182
-234.830	-70.527	0.224	-0.084
-233.815	-116.899	0.244	0.044
-232.800	-106.326	0.098	-0.022
-231.786	33.944	0.188	-0.162
-230.771	171.080	-0.103	-0.146
-229.757	490.160	0.083	-0.187
-228.742	-65.513	-0.116	0.046
-227.727	135.177	0.243	0.312
-226.713	111.719	0.105	-0.126
-225.698	-90.770	-0.079	-0.023
-224.684	-73.561	0.152	-0.055
-223.669	3.410	-0.260	-0.187
-222.655	140.633	-0.144	0.188
-221.640	-200.000	-0.002	0.137
-220.625	-71.415	-0.134	0.049
-219.611	-61.303	-0.177	0.074
-218.596	-200.000	-0.043	0.371
-217.582	30.677	-0.020	-0.017
-216.567	-83.839	-0.070	-0.022
-215.552	800.000	-0.007	-0.023
-214.538	800.000	-0.051	0.156
-213.523	-200.000	-0.018	0.410
-212.509	170.701	-0.054	-0.076
-211.494	-6.498	-0.147	-0.099
-210.479	-83.890	0.081	-0.026
-209.465	-61.292	-0.070	-0.029
-208.450	-15.177	0.117	-0.074
-207.436	159.006	-0.137	0.188
-206.421	800.000	-0.040	0.121
-205.406	800.000	-0.045	-0.136
-204.392	-200.000	0.041	-0.238
-203.377	297.221	0.156	0.282
-202.363	-94.697	-0.592	0.159
-201.348	52.327	-0.143	-0.135
-200.333	97.266	0.129	-0.147
-199.319	-134.307	0.217	0.026
-198.304	-200.000	0.005	-0.169
-197.290	800.000	0.028	-0.107
-196.275	135.040	0.230	0.295
-195.260	415.754	-0.111	-0.234
-194.246	800.000	-0.132	-0.409
-193.231	14.758	-0.045	0.035
-192.217	-54.969	-0.153	0.068
-191.202	1.875	-0.146	0.104
-190.187	-153.603	0.026	-0.002
-189.173	800.000	0.018	0.054
-188.158	56.283	-0.144	0.138
-187.144	680.565	0.050	0.129
-186.129	-4.032	-0.193	0.132
-185.114	-200.000	-0.019	0.137
-184.100	800.000	-0.026	0.074
-183.085	507.917	-0.046	-0.105
-182.071	36.424	-0.280	-0.244
-181.056	-21.354	0.329	0.198
-180.042	301.727	-0.090	-0.164
-179.027	163.708	0.153	-0.213
-178.012	-200.000	0.051	0.286
-176.998	-22.111	-0.202	-0.121
-175.983	-200.000	0.003	0.160
-174.969	-98.439	-0.141	0.036
-173.954	392.094	0.063	0.130
-172.939	-200.000	-0.055	0.679
-171.925	-138.582	0.321	-0.035
-170.910	74.880	0.180	-0.187
-169.896	287.529	0.069	-0.123
-168.881	-200.000	-0.042	-0.264
-167.866	-200.000	-0.031	-0.355
-166.852	198.952	0.072	-0.108
-165.837	-200.000	-0.057	0.310
-164.823	-66.714	0.318	-0.124
-163.808	-80.263	-0.210	-0.069
-162.793	140.319	-0.102	-0.132
-161.779	-200.000	-0.002	0.048
-160.764	800.000	0.011	-0.039
-159.750	76.419	0.174	0.182
-158.735	-74.793	0.183	-0.065
-157.720	-193.706	0.266	-0.002
-156.706	-200.000	-0.023	0.133
-155.691	95.318	0.063	-0.070
-154.677	33.702	-0.129	0.111
-153.662	609.659	0.101	-0.248
-152.647	-187.298	0.215	-0.003
-151.633	50.533	0.094	-0.087
-150.618	135.440	0.214	-0.274
-149.604	800.000	-0.022	-0.095
-148.589	360.391	-0.109	0.215
-147.574	18.349	-0.235	0.185
-146.560	-11.254	0.206	-0.134
-145.545	-80.778	-0.474	-0.155
-144.531	800.000	0.103	-0.301
-143.516	-200.000	-0.020	0.147
-142.502	125.746	0.033	0.041
-141.487	27.394	0.174	-0.144
-140.472	48.877	-0.209	0.194
-139.458	-200.000	0.005	-0.100
-138.443	-132.457	0.229	0.029
-137.429	418.210	-0.121	0.255
-136.414	67.185	0.134	-0.135
-135.399	-54.319	0.199	-0.089
-134.385	227.077	0.189	0.303
-133.370	50.572	0.149	0.139
-132.356	-9.585	0.133	-0.087
-131.341	29.690	-0.262	0.220
-130.326	-117.711	0.212	0.038
-129.312	-74.929	-0.177	0.062
-128.297	136.988	-0.122	-0.157
-127.283	508.095	0.135	0.308
-126.268	4.091	-0.036	-0.026
-125.253	194.842	-0.198	0.296
-124.239	34.977	0.134	0.116
-123.224	-10.759	-0.201	-0.131
-122.210	135.196	0.166	0.213
-121.195	-63.486	0.307	-0.124
-120.180	118.463	-0.100	-0.122
-119.166	255.958	-0.111	-0.188
-118.151	-200.000	0.020	-0.255
-117.137	-12.418	0.149	0.096
-116.122	569.436	-0.098	-0.235
-115.107	-200.000	0.047	0.305
-114.093	-116.344	-0.185	0.034
-113.078	25.193	-0.192	0.157
-112.064	57.003	-0.365	0.350
-111.049	-200.000	0.037	0.206
-110.034	531.659	0.047	0.109
-109.020	81.102	-0.064	-0.068
-108.005	174.579	-0.146	-0.208
-106.991	-139.598	0.320	-0.034
-105.976	490.849	-0.034	0.077
-104.962	800.000	0.084	-0.278
-103.947	200.853	-0.203	0.307
-102.932	-56.012	-0.112	-0.049
-101.918	416.199	0.119	0.249
-100.903	-128.162	0.120	0.017
-99.889	800.000	-0.031	0.092
-98.874	-22.654	0.219	-0.130
-97.859	13.773	-0.318	0.243
-96.845	-144.079	0.257	0.024
-95.830	53.007	0.188	0.177
-94.816	800.000	0.106	0.290
-93.801	158.103	0.220	0.300
-92.786	557.040	-0.055	0.130
-91.772	-6.828	0.080	0.054
-90.757	23.903	-0.217	0.176
-89.743	261.720	-0.069	-0.117
-88.728	518.426	-0.073	0.169
-87.713	-47.764	0.124	0.059
-86.699	37.888	0.142	0.124
-85.684	-68.038	0.348	0.133
-84.670	-200.000	-0.015	-0.204
-83.655	-193.616	0.224	0.002
-82.640	548.843	0.051	-0.119
-81.626	59.687	-0.301	0.292
-80.611	-165.428	-0.238	-0.010
-79.597	60.454	0.133	-0.129
-78.582	-2.438	0.136	0.094
-77.567	-102.573	-0.212	-0.050
-76.553	-14.676	0.212	0.134
-75.538	800.000	0.137	0.476
-74.524	-17.036	0.070	0.043
-73.509	360.778	0.271	-0.533
-72.494	-200.000	0.009	-0.139
-71.480	-36.887	-0.166	-0.087
-70.465	-200.000	-0.005	-0.183
-69.451	-74.838	-0.316	0.112
-68.436	263.331	0.021	0.035
-67.422	-158.536	0.127	0.007
-66.407	-104.059	0.335	-0.077
-65.392	466.453	0.060	0.131
-64.378	92.961	-0.208	0.231
-63.363	114.950	-0.088	-0.106
-62.349	-51.543	0.053	-0.024
-61.334	42.615	-1.052	-0.940
-60.319	316.333	0.357	0.663
-59.305	800.000	-0.350	-1.047
-58.290	123.270	0.847	1.043
-57.276	800.000	0.614	1.700
-56.261	-200.000	105.826	575.381
-55.246	462.938	1455.123	3189.668
-54.232	149.133	2647.697	3516.686
-53.217	101.013	2291.419	2616.499
-52.203	39.214	1904.931	1673.118
-51.188	33.231	1693.586	1441.998
-50.173	30.592	1650.220	1385.387
-49.159	48.355	1701.735	1563.520
-48.144	49.207	1717.294	1584.201
-47.130	32.693	1675.973	1422.718
-46.115	30.064	1661.533	1390.702
-45.100	29.942	1656.837	1385.803
-44.086	29.941	1654.326	1383.643
-43.071	29.907	1650.914	1380.478
-42.057	29.904	1649.012	1378.812
-41.042	29.995	1646.949	1377.709
-40.027	29.901	1645.475	1375.718
-39.013	29.899	1643.153	1373.709
-37.998	29.847	1641.775	1372.120
-36.984	29.860	1640.467	1371.069
-35.969	29.943	1639.248	1370.606
-34.954	30.101	1636.858	1369.721
-33.940	29.981	1635.453	1367.608
-32.925	30.021	1633.601	1366.298
-31.911	30.018	1631.969	1364.861
-30.896	30.059	1629.805	1363.294
-29.881	29.940	1628.796	1361.520
-28.867	30.002	1626.925	1360.359
-27.852	29.939	1625.768	1358.876
-26.838	30.020	1623.900	1357.855
-25.823	29.986	1622.746	1356.589
-24.809	30.107	1621.324	1356.229
-23.794	30.049	1620.414	1354.988
-22.779	29.903	1618.945	1352.639
-21.765	29.906	1617.416	1351.332
-20.750	29.967	1615.282	1349.939
-19.736	30.029	1613.766	1349.069
-18.721	30.072	1612.024	1347.874
-17.706	30.088	1610.649	1346.789
-16.692	30.079	1609.303	1345.545
-15.677	30.018	1607.839	1343.827
-14.663	30.039	1606.768	1343.028
-13.648	29.998	1605.472	1341.595
-12.633	30.088	1603.764	1340.762
-11.619	29.981	1602.109	1338.558
-10.604	30.010	1600.802	1337.620
-9.590	30.037	1599.516	1336.686
-8.575	30.049	1598.287	1335.691
-7.560	30.084	1597.567	1335.286
-6.546	30.129	1596.173	1334.397
-5.531	30.004	1595.111	1332.555
-4.517	30.030	1593.863	1331.646
-3.502	29.919	1592.982	1330.060
-2.487	30.008	1591.051	1329.035
-1.473	29.802	1579.069	1317.507
-0.458	27.071	1560.117	1282.389
0.556	21.913	1561.975	1252.309
1.571	19.669	1585.662	1254.909
2.586	19.450	1598.733	1263.536
3.600	17.897	1546.266	1210.949
4.615	10.040	1436.181	1072.677
5.629	1.950	1370.695	972.264
6.644	0.315	1362.082	955.710
7.659	0.161	1361.169	954.003
8.673	0.027	1360.569	952.653
9.688	0.057	1358.227	951.119
10.702	0.053	1354.954	948.719
11.717	3.790	1361.411	976.800
12.731	12.444	1375.237	1041.683
13.746	17.519	1381.796	1078.793
14.761	17.244	1380.443	1075.901
15.775	16.342	1376.819	1067.285
16.790	15.241	1374.528	1058.467
17.804	14.455	1372.395	1051.773
18.819	14.133	1370.774	1048.407
19.834	13.899	1369.497	1045.862
20.848	13.668	1367.981	1043.164
21.863	13.397	1366.865	1040.515
22.877	13.285	1365.744	1038.868
23.892	13.122	1365.285	1037.402
24.907	13.190	1363.975	1036.743
25.921	13.274	1363.150	1036.546
26.936	13.259	1361.783	1035.325
27.950	13.259	1361.548	1035.051
28.965	13.279	1360.600	1034.364
29.980	13.399	1359.452	1034.151
30.994	13.442	1358.660	1033.727
32.009	13.430	1357.938	1033.010
33.023	13.551	1356.340	1032.455
34.038	13.412	1355.771	1031.064
35.053	13.392	1354.093	1029.575
36.067	13.387	1353.253	1028.811
37.082	13.355	1352.762	1028.149
38.096	13.369	1351.878	1027.475
39.111	13.324	1351.173	1026.571
40.126	13.407	1349.867	1026.003
41.140	13.243	1349.153	1024.353
42.155	13.246	1348.932	1024.112
43.169	13.136	1348.869	1023.289
44.184	13.211	1348.009	1023.010
45.199	13.107	1347.819	1022.135
46.213	13.232	1347.296	1022.418
47.228	13.276	1346.806	1022.232
48.242	13.266	1345.351	1020.975
49.257	13.197	1343.684	1019.194
50.271	13.391	1342.280	1019.234
51.286	13.326	1341.004	1017.776
52.301	13.305	1339.730	1016.587
53.315	13.315	1338.364	1015.524
54.330	13.287	1337.570	1014.658
55.344	13.243	1336.522	1013.502
56.359	13.349	1334.999	1012.908
57.374	13.189	1334.826	1011.708
58.388	13.176	1333.720	1010.703
59.403	13.152	1333.270	1010.125
60.417	13.219	1332.581	1009.924
61.432	13.127	1331.999	1008.831
62.447	13.166	1330.432	1007.793
63.461	13.153	1329.378	1006.823
64.476	13.155	1328.265	1005.902
65.490	13.174	1327.422	1005.290
66.505	13.009	1325.971	1003.102
67.520	13.030	1325.049	1002.442
68.534	13.154	1323.399	1001.857
69.549	13.212	1322.045	1001.094
70.563	13.066	1321.492	999.702
71.578	13.137	1320.342	999.176
72.593	13.122	1319.278	998.192
73.607	13.074	1318.403	997.153
74.622	13.091	1317.491	996.475
75.636	12.958	1316.984	995.200
76.651	13.093	1316.241	995.364
77.666	13.049	1315.817	994.690
78.680	13.116	1315.313	994.630
79.695	13.017	1314.439	993.283
80.709	13.129	1313.176	992.914
81.724	13.230	1312.233	992.717
82.739	13.278	1311.424	992.308
83.753	13.240	1311.164	991.794
84.768	13.353	1309.697	991.275
85.782	13.265	1308.688	989.897
86.797	13.252	1307.260	988.649
87.812	13.177	1306.416	987.476
88.826	13.242	1305.080	986.768
89.841	13.233	1303.914	985.746
90.855	13.296	1303.322	985.584
91.870	13.269	1302.686	984.858
92.884	13.401	1301.512	984.664
93.899	13.315	1300.362	983.200
94.914	13.442	1299.618	983.302
95.928	13.452	1298.574	982.487
96.943	13.351	1297.688	981.131
97.957	13.421	1296.369	980.462
98.972	13.257	1296.563	979.550
99.987	13.390	1294.827	978.935
101.001	13.243	1293.725	977.146
102.016	13.288	1293.042	976.814
103.030	13.296	1292.275	976.193
104.045	13.373	1291.165	975.725
105.060	13.369	1289.671	974.482
106.074	13.181	1288.793	972.626
107.089	13.050	1287.757	970.989
108.103	13.176	1285.901	970.245
109.118	13.251	1284.697	969.692
110.133	13.242	1283.115	968.355
111.147	13.228	1281.948	967.310
112.162	13.206	1280.237	965.805
113.176	13.289	1280.012	966.035
114.191	13.381	1278.664	965.466
115.206	13.315	1277.823	964.364
116.220	13.218	1276.793	962.933
117.235	13.347	1275.246	962.434
118.249	13.377	1274.522	961.977
119.264	13.161	1274.134	960.339
120.279	13.220	1272.912	959.677
121.293	13.282	1271.054	958.554
122.308	13.300	1269.927	957.722
123.322	13.162	1269.320	956.383
124.337	13.185	1268.192	955.579
125.352	13.188	1266.993	954.608
126.366	13.172	1266.061	953.733
127.381	13.237	1264.776	953.051
128.395	13.245	1263.796	952.276
129.410	13.264	1263.118	951.792
130.424	13.201	1262.431	950.826
131.439	13.324	1261.202	950.521
132.454	13.327	1260.351	949.813
133.468	13.281	1259.124	948.541
134.483	13.296	1258.693	948.220
135.497	13.219	1257.767	946.994
136.512	13.270	1256.375	946.157
137.527	13.225	1255.323	945.021
138.541	13.317	1253.368	943.993
139.556	13.370	1251.820	943.045
140.570	13.414	1251.231	942.769
141.585	13.519	1249.601	942.055
142.600	13.387	1248.807	940.624
143.614	13.550	1248.135	940.960
144.629	13.467	1247.061	939.596
145.643	13.451	1246.069	938.673
146.658	13.374	1244.835	937.228
147.673	13.483	1243.268	936.580
148.687	13.366	1242.691	935.402
149.702	13.340	1241.047	933.936
150.716	13.400	1239.598	933.100
151.731	13.308	1238.846	931.931
152.746	13.388	1237.131	931.010
153.760	13.467	1236.157	930.636
154.775	13.483	1235.306	930.003
155.789	13.518	1233.958	929.102
156.804	13.484	1233.036	928.140
157.819	13.576	1231.862	927.685
158.833	13.614	1231.336	927.421
159.848	13.656	1230.501	926.945
160.862	13.695	1229.144	926.059
161.877	13.508	1228.482	924.437
162.892	13.546	1226.851	923.335
163.906	13.612	1226.219	923.149
164.921	13.597	1225.195	922.212
165.935	13.515	1224.576	921.209
166.950	13.534	1223.900	920.722
167.964	13.586	1223.161	920.375
168.979	13.542	1222.427	919.496
169.994	13.542	1221.815	918.956
171.008	13.635	1220.559	918.446
172.023	13.649	1219.715	917.803
173.037	13.731	1218.778	917.470
174.052	13.668	1218.060	916.505
175.067	13.580	1217.361	915.411
176.081	13.618	1216.104	914.592
177.096	13.617	1215.291	913.895
178.110	13.644	1214.302	913.222
179.125	13.708	1212.798	912.358
180.140	13.791	1211.619	911.851
181.154	13.798	1210.455	910.931
182.169	13.657	1209.511	909.364
183.183	13.715	1208.345	908.724
184.198	13.810	1207.221	908.321
185.213	13.723	1206.117	906.932
186.227	13.819	1204.953	906.502
187.242	13.903	1204.023	906.183
188.256	13.852	1203.454	905.396
189.271	13.888	1202.153	904.532
190.286	13.779	1200.997	902.987
191.300	13.688	1200.010	901.674
192.315	13.688	1199.678	901.342
193.329	13.745	1198.915	901.000
194.344	13.621	1198.713	900.096
195.359	13.743	1197.980	900.128
196.373	13.887	1196.805	899.945
197.388	13.819	1196.879	899.551
198.402	13.953	1195.928	899.485
199.417	14.107	1195.434	899.867
200.432	14.129	1194.573	899.254
201.446	14.095	1193.850	898.452
202.461	14.159	1192.959	898.045
203.475	14.153	1191.593	896.907
204.490	14.090	1190.113	895.372
205.504	14.104	1189.104	894.608
206.519	14.089	1188.151	893.730
207.534	14.081	1187.083	892.805
208.548	14.061	1186.189	891.949
209.563	14.081	1185.140	891.190
210.577	14.109	1184.503	890.781
211.592	14.247	1183.212	890.467
212.607	14.248	1182.517	889.871
213.621	14.293	1181.848	889.530
214.636	14.150	1180.788	887.891
215.650	14.348	1179.769	888.103
216.665	14.347	1178.730	887.236
217.680	14.253	1178.648	886.593
218.694	14.353	1177.461	886.155
219.709	14.264	1176.796	885.101
220.723	14.287	1176.041	884.580
221.738	14.256	1175.230	883.725
222.753	14.319	1174.649	883.545
223.767	14.225	1174.197	882.628
224.782	14.427	1173.217	882.884
225.796	14.374	1172.898	882.285
226.811	14.441	1171.967	881.863
227.826	14.389	1171.092	880.848
228.840	14.430	1170.388	880.460
229.855	14.489	1169.163	879.773
230.869	14.372	1168.796	878.800
231.884	14.416	1167.989	878.348
232.899	14.479	1166.854	877.748
233.913	14.383	1166.778	877.106
234.928	14.396	1165.918	876.453
235.942	14.344	1165.070	875.466
236.957	14.273	1164.648	874.698
237.972	14.339	1163.308	873.960
238.986	14.420	1162.964	874.048
240.001	14.360	1162.144	873.040
241.015	14.430	1161.331	872.719
242.030	14.507	1160.624	872.513
243.045	14.568	1159.721	872.076
244.059	14.521	1158.936	871.161
245.074	14.536	1158.357	870.730
246.088	14.623	1157.315	870.324
247.103	14.536	1156.734	869.354
248.117	14.618	1155.866	869.050
249.132	14.726	1155.176	869.017
250.147	14.771	1154.429	868.612
251.161	14.860	1153.406	868.228
252.176	14.906	1153.201	868.238
253.190	14.822	1152.511	867.204
254.205	14.865	1152.293	867.186
255.220	15.047	1150.835	866.954
256.234	14.971	1150.528	866.254
257.249	15.024	1149.898	865.980
258.263	14.984	1149.087	865.084
259.278	14.944	1148.824	864.603
260.293	14.963	1148.211	864.164
261.307	14.990	1147.845	863.951
262.322	15.025	1146.911	863.349
263.336	15.077	1146.154	862.976
264.351	15.178	1145.567	862.974
265.366	15.069	1144.780	861.742
266.380	15.012	1144.621	861.255
267.395	15.068	1143.274	860.455
268.409	15.045	1142.647	859.789
269.424	15.065	1141.952	859.294
270.439	15.004	1141.379	858.474
271.453	15.163	1140.570	858.604
272.468	15.069	1139.865	857.511
273.482	15.052	1139.167	856.825
274.497	15.095	1138.789	856.683
275.512	15.135	1137.983	856.207
276.526	15.134	1136.885	855.301
277.541	15.179	1136.079	854.847
278.555	15.256	1135.531	854.755
279.570	15.187	1134.744	853.734
280.585	15.373	1133.989	854.035
281.599	15.246	1133.310	852.801
282.614	15.259	1132.234	851.985
283.628	15.237	1131.182	851.006
284.643	15.231	1130.145	850.119
285.657	15.267	1129.672	849.872
286.672	15.342	1128.692	849.438
287.687	15.321	1127.728	848.533
288.701	15.275	1127.319	847.918
289.716	15.257	1126.403	847.062
290.730	15.334	1125.336	846.572
291.745	15.404	1124.890	846.516
292.760	15.420	1124.103	845.927
293.774	15.440	1123.577	845.557
294.789	15.450	1123.221	845.267
295.803	15.481	1122.595	844.879
296.818	15.455	1121.653	843.962
297.833	15.435	1120.685	843.060
298.847	15.446	1120.280	842.737
299.862	15.506	1119.394	842.297
300.876	15.470	1118.751	841.554
301.891	15.554	1117.625	841.056
302.906	15.594	1117.212	840.872
303.920	15.722	1116.202	840.673
304.935	15.735	1115.696	840.283
305.949	15.715	1114.981	839.574
306.964	15.694	1114.262	838.854
307.979	15.781	1113.775	838.844
308.993	15.741	1113.251	838.176
310.008	15.748	1112.255	837.388
311.022	15.771	1111.672	836.990
312.037	15.843	1110.890	836.682
313.052	15.797	1109.770	835.537
314.066	15.718	1108.771	834.318
315.081	15.706	1108.149	833.719
316.095	15.667	1107.070	832.639
317.110	15.630	1106.906	832.260
318.125	15.722	1105.982	831.944
319.139	15.693	1105.575	831.423
320.154	15.802	1104.597	831.152
321.168	15.733	1104.150	830.401
322.183	15.722	1103.475	829.768
323.197	15.785	1102.894	829.566
324.212	15.815	1102.425	829.286
325.227	15.818	1101.661	828.655
326.241	15.761	1101.020	827.817
327.256	15.912	1100.223	827.891
328.270	15.748	1099.647	826.579
329.285	15.855	1098.367	826.067
330.300	15.842	1097.494	825.275
331.314	15.815	1096.852	824.586
332.329	15.956	1095.641	824.291
333.343	15.848	1095.256	823.400
334.358	15.934	1094.073	822.860
335.373	15.902	1094.006	822.580
336.387	15.947	1093.041	822.002
337.402	15.975	1092.187	821.420
338.416	16.059	1091.402	821.167
339.431	16.041	1090.933	820.654
340.446	16.143	1090.196	820.524
341.460	16.139	1089.624	820.002
342.475	16.096	1088.853	819.141
343.489	16.237	1087.591	818.801
344.504	16.235	1086.882	818.186
345.519	16.224	1085.984	817.384
346.533	16.230	1085.109	816.685
347.548	16.450	1084.513	817.227
348.562	16.370	1083.636	816.104
349.577	16.284	1083.104	815.220
350.592	16.156	1082.622	814.164
351.606	16.321	1081.467	814.019
352.621	16.225	1080.962	813.107
353.635	16.204	1080.038	812.240
354.650	16.328	1079.158	812.101
355.665	16.153	1078.888	810.984
356.679	16.230	1078.396	810.910
357.694	16.307	1077.446	810.496
358.708	16.442	1076.801	810.585
359.723	16.407	1076.347	810.005
360.738	16.443	1075.566	809.521
361.752	16.301	1074.971	808.317
362.767	16.352	1074.881	808.423
363.781	16.313	1074.162	807.623
364.796	16.372	1073.630	807.436
365.810	16.588	1072.457	807.514
366.825	16.451	1072.452	806.786
367.840	16.614	1071.730	806.945
368.854	16.753	1070.883	806.900
369.869	16.689	1069.998	805.856
370.883	16.560	1069.751	804.985
371.898	16.618	1068.308	804.103
372.913	16.653	1068.114	804.055
373.927	16.588	1067.858	803.482
374.942	16.769	1066.754	803.437
375.956	16.729	1066.446	802.946
376.971	16.730	1065.909	802.475
377.986	16.638	1065.662	801.782
379.000	16.843	1064.871	802.086
380.015	16.720	1064.417	801.092
381.029	16.923	1063.546	801.323
382.044	16.786	1063.168	800.321
383.059	16.983	1061.896	800.224
384.073	16.968	1061.102	799.485
385.088	16.854	1060.704	798.576
386.102	16.841	1059.715	797.699
387.117	17.030	1058.051	797.263
388.132	16.907	1057.608	796.283
389.146	16.935	1057.130	795.981
390.161	16.783	1056.614	794.812
391.175	16.810	1056.023	794.424
392.190	16.940	1054.909	794.123
393.205	17.044	1053.743	793.663
394.219	16.957	1053.454	792.965
395.234	16.939	1052.522	792.112
396.248	16.899	1051.438	791.037
397.263	16.872	1050.658	790.257
398.278	16.773	1050.348	789.491
399.292	16.856	1049.937	789.496
400.307	16.862	1049.134	788.852
401.321	16.921	1048.104	788.285
402.336	16.955	1047.412	787.851
403.350	16.936	1046.908	787.313
404.365	16.849	1046.325	786.401
405.380	16.931	1045.431	786.039
406.394	17.094	1044.818	786.265
407.409	17.177	1043.921	785.905
408.423	17.190	1043.052	785.240
409.438	17.262	1042.850	785.351
410.453	17.167	1041.979	784.189
411.467	17.134	1041.093	783.300
412.482	17.132	1040.836	783.029
413.496	17.343	1039.781	783.137
414.511	17.138	1039.378	781.819
415.526	17.329	1038.825	782.216
416.540	17.357	1038.443	781.986
417.555	17.370	1037.822	781.509
418.569	17.234	1037.679	780.706
419.584	17.350	1037.043	780.694
420.599	17.429	1036.493	780.572
421.613	103.266	1321.351	1468.750
422.628	94.686	1362.832	1468.854
