DTS Sentinel unit serial number:	SN413079Multiplexer serial number:	ORYXHardware model number:	OX4-SRSoftware version number:	ORYX F/W v4.00 Oryx Data Collector v3.7.2.0data status	okinstallation	princeton_trtdifferential loss correction	single-endedforward channel	channel 2reverse channel	N/Adate	2019/09/14time	21:15:35forward acquisition time	60.00reverse acquisition time	0.00gamma	496.2192k internal	0.2323k external	0.2323temperature offset calibration	1.0076default loss term (dB/km)	0.3790temperature slope calibration	1.0000multiplexer offset coefficient	1.0000multiplexer slope coefficient	1.0000fibre end	0.00T internal ref (°C)	33.00T ext. ref 1 (°C)	4.76T ext. ref 2 (°C)	27.81length (m)	temperature (°C)	Stokes	anti-Stokes-747.200	223.456	0.158	0.257
-746.185	-33.719	0.215	0.120
-745.171	800.000	-0.053	-0.211
-744.156	532.756	-0.193	0.461
-743.142	162.082	0.048	0.068
-742.127	-200.000	-0.012	0.198
-741.112	800.000	0.099	0.280
-740.098	399.799	-0.060	0.127
-739.083	478.426	0.089	-0.204
-738.069	125.124	0.145	-0.185
-737.054	191.091	0.104	0.158
-736.039	11.277	-0.238	-0.184
-735.025	-163.163	0.258	0.013
-734.010	-89.410	-0.120	0.036
-732.996	-169.376	0.151	-0.006
-731.981	-25.058	-0.108	0.065
-730.966	111.680	-0.207	-0.252
-729.952	28.284	-0.511	-0.436
-728.937	-112.578	0.131	0.026
-727.923	45.660	0.081	0.075
-726.908	-200.000	0.029	-0.422
-725.894	7.109	-0.277	-0.209
-724.879	800.000	0.035	0.145
-723.864	-81.438	-0.426	-0.141
-722.850	79.241	-0.261	-0.282
-721.835	23.240	-0.316	0.261
-720.821	-200.000	0.029	-0.314
-719.806	-167.782	-0.416	0.017
-718.791	-71.752	-0.166	0.062
-717.777	-65.502	0.137	-0.056
-716.762	-97.914	-0.029	-0.008
-715.748	-48.189	0.336	-0.164
-714.733	580.108	-0.057	-0.141
-713.718	-72.622	-0.225	-0.084
-712.704	161.157	-0.163	-0.229
-711.689	-135.404	-0.217	-0.026
-710.675	-131.675	-0.179	-0.024
-709.660	-200.000	-0.003	-0.086
-708.645	712.193	-0.041	-0.109
-707.631	-53.025	0.242	-0.112
-706.616	800.000	0.065	-0.213
-705.602	520.334	-0.095	0.225
-704.587	31.243	0.287	0.248
-703.572	-183.327	-0.501	-0.009
-702.558	800.000	0.045	-0.132
-701.543	-200.000	0.146	-0.000
-700.529	-171.302	-0.335	0.011
-699.514	261.796	0.083	-0.144
-698.499	107.047	0.336	-0.403
-697.485	-124.885	0.169	0.026
-696.470	-163.538	0.105	-0.005
-695.456	-106.761	-0.015	0.003
-694.441	-200.000	0.005	0.052
-693.426	-101.105	0.118	0.029
-692.412	-55.454	0.126	0.057
-691.397	-17.304	0.069	-0.044
-690.383	-4.611	-0.355	-0.247
-689.368	800.000	0.039	0.145
-688.354	-4.001	-0.220	-0.154
-687.339	800.000	-0.112	-0.387
-686.324	472.890	-0.083	0.189
-685.310	-172.602	-0.212	-0.007
-684.295	-148.154	-0.277	0.023
-683.281	331.939	0.143	-0.278
-682.266	-94.872	-0.217	-0.059
-681.251	382.123	0.161	-0.334
-680.237	800.000	-0.054	0.149
-679.222	-192.590	-0.518	0.005
-678.208	-131.419	0.286	0.038
-677.193	-134.701	-0.070	0.009
-676.178	-200.000	-0.004	0.133
-675.164	-47.775	0.245	-0.120
-674.149	4.127	0.012	-0.009
-673.135	78.132	-0.193	0.207
-672.120	367.342	-0.089	-0.180
-671.105	-62.852	-0.164	-0.068
-670.091	203.048	-0.118	0.184
-669.076	-11.452	0.199	-0.132
-668.062	-200.000	0.038	-0.170
-667.047	45.435	0.255	0.237
-666.032	692.231	0.083	-0.218
-665.018	-200.000	-0.195	0.000
-664.003	-200.000	0.004	-0.131
-662.989	168.149	-0.036	0.051
-661.974	-200.000	-0.008	0.419
-660.959	111.445	0.138	-0.167
-659.945	800.000	0.080	0.230
-658.930	2.633	-0.436	0.318
-657.916	606.486	0.055	0.139
-656.901	785.159	-0.121	-0.335
-655.886	-200.000	0.026	-0.119
-654.872	-200.000	-0.017	0.213
-653.857	-200.000	0.022	-0.122
-652.843	45.337	-0.181	0.168
-651.828	-69.209	-0.142	-0.055
-650.814	-48.740	0.277	-0.134
-649.799	-200.000	-0.006	-0.235
-648.784	-0.836	0.095	0.068
-647.770	800.000	-0.065	0.252
-646.755	-15.792	0.266	0.170
-645.741	551.067	-0.153	-0.370
-644.726	-67.294	-0.146	-0.058
-643.711	235.255	0.069	-0.115
-642.697	469.230	0.121	-0.273
-641.682	800.000	-0.081	-0.331
-640.668	277.773	-0.006	-0.010
-639.653	-13.645	0.023	-0.015
-638.638	185.971	-0.098	0.146
-637.624	-200.000	0.055	0.287
-636.609	-36.744	-0.217	-0.117
-635.595	-115.642	-0.110	0.021
-634.580	-200.000	-0.031	0.181
-633.565	-132.207	-0.218	0.028
-632.551	73.784	-0.335	0.353
-631.536	176.180	-0.126	-0.184
-630.522	407.465	-0.144	0.305
-629.507	-9.722	0.143	0.096
-628.492	-117.581	-0.048	0.009
-627.478	150.618	0.054	-0.074
-626.463	-83.359	0.197	0.064
-625.449	-113.018	0.184	-0.037
-624.434	-21.725	0.217	-0.133
-623.419	31.740	-0.163	0.141
-622.405	323.698	0.176	-0.338
-621.390	-200.000	0.017	-0.158
-620.376	-84.437	0.143	0.045
-619.361	38.864	-0.153	-0.137
-618.346	-200.000	-0.016	0.159
-617.332	-103.736	0.587	-0.138
-616.317	9.026	-0.259	0.196
-615.303	244.694	-0.131	-0.221
-614.288	800.000	0.100	0.279
-613.273	15.127	-0.069	0.054
-612.259	-112.922	0.109	-0.022
-611.244	-116.957	0.087	0.016
-610.230	-200.000	0.005	0.212
-609.215	-49.110	0.186	0.090
-608.201	299.088	-0.163	-0.302
-607.186	170.555	0.039	0.056
-606.171	-200.000	0.039	-0.268
-605.157	-200.000	0.020	-0.230
-604.142	-119.237	0.261	0.046
-603.128	-18.129	-0.130	0.082
-602.113	104.561	-0.156	0.184
-601.098	-95.144	0.252	0.068
-600.084	419.436	-0.047	0.100
-599.069	405.324	-0.027	0.058
-598.055	148.382	0.055	0.074
-597.040	240.851	-0.103	0.173
-596.025	208.563	0.006	-0.009
-595.011	-25.228	0.346	-0.206
-593.996	800.000	-0.089	-0.332
-592.982	549.568	-0.064	-0.154
-591.967	-100.361	0.314	0.078
-590.952	-73.053	-0.152	0.056
-589.938	-200.000	-0.005	-0.022
-588.923	-200.000	-0.008	0.125
-587.909	222.851	-0.030	0.049
-586.894	-157.924	-0.276	0.016
-585.879	146.183	0.173	0.232
-584.865	-140.743	0.170	-0.018
-583.850	93.189	-0.105	-0.119
-582.836	51.329	-0.072	0.069
-581.821	-17.914	0.371	0.233
-580.806	115.112	0.178	0.218
-579.792	-99.160	0.152	-0.038
-578.777	-200.000	-0.066	-0.327
-577.763	-44.771	-0.181	0.091
-576.748	-130.002	0.206	0.028
-575.733	81.982	-0.168	-0.183
-574.719	-200.000	0.030	0.242
-573.704	800.000	0.057	0.217
-572.690	-43.133	-0.066	0.034
-571.675	-4.829	-0.114	0.079
-570.661	747.592	0.104	0.280
-569.646	74.488	0.208	-0.219
-568.631	63.085	-0.107	-0.108
-567.617	242.330	-0.029	0.049
-566.602	3.909	0.148	-0.109
-565.588	-41.979	0.272	0.140
-564.573	-82.380	0.192	0.063
-563.558	-124.306	-0.144	0.023
-562.544	49.865	-0.119	-0.112
-561.529	84.741	0.312	-0.342
-560.515	-98.694	-0.209	-0.053
-559.500	-200.000	0.089	0.405
-558.485	232.154	-0.148	0.243
-557.471	-91.483	-0.081	0.023
-556.456	-200.000	-0.002	-0.078
-555.442	-138.048	-0.365	0.041
-554.427	45.472	0.074	0.069
-553.412	-9.306	0.349	0.234
-552.398	800.000	-0.112	-0.352
-551.383	11.189	-0.046	0.035
-550.369	18.848	0.138	-0.110
-549.354	595.361	-0.055	0.136
-548.339	63.763	-0.263	0.265
-547.325	-6.728	-0.081	-0.055
-546.310	-75.392	-0.182	-0.065
-545.296	347.686	-0.156	-0.308
-544.281	33.867	0.053	-0.047
-543.266	91.083	-0.184	0.207
-542.252	800.000	0.061	-0.184
-541.237	155.940	-0.260	0.359
-540.223	613.747	0.069	-0.173
-539.208	-66.568	-0.129	-0.051
-538.193	-200.000	0.516	0.002
-537.179	-200.000	0.011	-0.075
-536.164	-173.287	0.221	0.007
-535.150	66.214	-0.138	0.140
-534.135	78.647	0.071	-0.076
-533.121	-99.227	0.230	0.058
-532.106	-200.000	-0.031	-0.149
-531.091	36.040	-0.109	-0.096
-530.077	57.758	0.181	-0.177
-529.062	-58.999	0.221	0.095
-528.048	-200.000	-0.018	0.096
-527.033	-164.692	-0.179	0.008
-526.018	-200.000	-0.029	0.377
-525.004	-70.197	-0.143	0.054
-523.989	-30.440	0.155	-0.088
-522.975	26.427	-0.130	-0.109
-521.960	800.000	-0.088	-0.273
-520.945	-5.944	-0.128	0.088
-519.931	800.000	-0.037	0.117
-518.916	-200.000	0.037	-0.271
-517.902	-172.614	-0.068	0.002
-516.887	79.542	0.101	0.108
-515.872	512.243	0.039	0.091
-514.858	800.000	-0.067	-0.265
-513.843	-24.786	0.208	0.123
-512.829	92.816	-0.090	-0.101
-511.814	170.793	-0.215	-0.309
-510.799	-16.043	0.095	-0.060
-509.785	-200.000	0.022	0.229
-508.770	800.000	-0.050	-0.166
-507.756	-67.026	-0.142	0.056
-506.741	90.474	0.020	0.023
-505.726	127.299	0.114	-0.145
-504.712	145.838	0.300	-0.402
-503.697	-200.000	0.033	0.148
-502.683	800.000	-0.057	0.205
-501.668	41.434	0.128	-0.116
-500.653	-200.000	0.000	-0.147
-499.639	632.187	-0.106	0.270
-498.624	-200.000	-0.006	-0.139
-497.610	39.928	-0.235	0.211
-496.595	-200.000	0.019	-0.175
-495.581	189.931	-0.127	-0.190
-494.566	87.803	0.294	-0.326
-493.551	-200.000	0.046	-0.245
-492.537	168.401	-0.124	-0.176
-491.522	-188.513	-0.183	0.002
-490.508	-200.000	0.010	-0.236
-489.493	576.876	0.158	-0.386
-488.478	800.000	0.053	0.195
-487.464	123.006	0.105	0.131
-486.449	92.739	0.075	0.085
-485.435	49.433	-0.048	0.045
-484.420	-126.741	-0.282	0.042
-483.405	-29.713	-0.170	0.097
-482.391	-28.567	-0.128	-0.074
-481.376	112.198	0.165	-0.200
-480.362	-200.000	0.004	-0.243
-479.347	57.961	0.209	0.204
-478.332	-200.000	0.028	0.150
-477.318	761.277	0.080	-0.217
-476.303	-200.000	-0.008	-0.322
-475.289	34.041	-0.111	0.097
-474.274	-153.156	0.221	-0.015
-473.259	800.000	-0.061	0.170
-472.245	-88.469	-0.030	0.009
-471.230	48.989	0.097	0.091
-470.216	314.962	0.162	0.305
-469.201	-200.000	0.028	-0.243
-468.186	7.048	0.064	-0.048
-467.172	-83.605	-0.167	0.053
-466.157	21.556	0.172	-0.140
-465.143	-54.958	0.228	0.103
-464.128	76.638	-0.207	0.219
-463.113	-66.825	0.075	0.030
-462.099	298.020	-0.210	-0.385
-461.084	-200.000	0.006	0.273
-460.070	69.688	-0.090	-0.092
-459.055	45.294	-0.329	-0.303
-458.040	51.257	-0.328	0.311
-457.026	49.950	0.110	-0.103
-456.011	-200.000	0.023	-0.189
-454.997	85.853	0.317	0.348
-453.982	577.683	-0.037	0.089
-452.968	74.380	-0.200	-0.210
-451.953	-112.314	0.129	-0.026
-450.938	-115.008	-0.439	0.083
-449.924	498.353	-0.078	0.179
-448.909	439.614	0.081	0.176
-447.895	800.000	0.033	-0.119
-446.880	198.522	-0.126	0.193
-445.865	800.000	-0.096	-0.362
-444.851	-112.330	0.098	-0.020
-443.836	-112.224	0.106	-0.021
-442.822	291.494	-0.165	-0.300
-441.807	437.873	-0.072	-0.157
-440.792	96.728	0.162	0.186
-439.778	61.688	-0.097	-0.097
-438.763	800.000	-0.091	0.352
-437.749	-200.000	-0.066	-0.306
-436.734	-200.000	-0.042	-0.336
-435.719	800.000	-0.023	0.090
-434.705	-200.000	0.001	-0.280
-433.690	-110.801	-0.185	-0.038
-432.676	800.000	0.045	-0.148
-431.661	307.723	0.074	0.138
-430.646	243.052	-0.137	-0.229
-429.632	-29.767	-0.147	-0.084
-428.617	381.079	-0.110	-0.225
-427.603	800.000	-0.097	-0.273
-426.588	774.115	-0.171	0.464
-425.573	68.413	0.195	-0.199
-424.559	-57.637	-0.192	0.084
-423.544	208.078	0.025	0.039
-422.530	-68.135	-0.275	-0.107
-421.515	46.787	-0.096	-0.088
-420.500	-200.000	0.021	0.196
-419.486	-200.000	-0.022	0.407
-418.471	-16.515	0.229	-0.145
-417.457	44.395	0.145	-0.133
-416.442	-104.915	-0.240	-0.055
-415.428	393.284	-0.226	-0.470
-414.413	-200.000	0.005	-0.120
-413.398	359.800	-0.053	0.105
-412.384	-60.097	0.325	-0.138
-411.369	-163.288	0.260	0.012
-410.355	-72.049	0.335	0.124
-409.340	42.750	0.220	-0.200
-408.325	-200.000	0.019	0.245
-407.311	44.527	0.123	0.112
-406.296	-73.220	-0.190	-0.069
-405.282	-82.468	0.460	-0.149
-404.267	800.000	-0.062	0.179
-403.252	106.015	-0.167	-0.196
-402.238	535.398	0.061	-0.145
-401.223	-21.709	0.389	0.236
-400.209	316.141	0.102	0.192
-399.194	-72.001	-0.281	0.104
-398.179	-200.000	-0.048	0.225
-397.165	95.922	-0.057	0.065
-396.150	11.492	0.124	0.095
-395.136	772.589	0.015	-0.040
-394.121	-200.000	0.037	0.282
-393.106	-200.000	0.018	0.150
-392.092	240.236	0.085	-0.142
-391.077	-62.629	-0.263	-0.109
-390.063	68.519	0.144	0.148
-389.048	420.894	0.125	0.266
-388.033	110.820	-0.116	0.139
-387.019	148.191	0.120	-0.161
-386.004	227.402	-0.071	-0.114
-384.990	800.000	0.062	0.199
-383.975	-87.039	0.202	0.061
-382.960	800.000	0.135	0.372
-381.946	-9.725	0.361	0.240
-380.931	-74.942	-0.273	0.098
-379.917	-122.856	-0.107	0.017
-378.902	-79.474	0.252	-0.085
-377.888	718.337	0.107	0.282
-376.873	-130.508	-0.091	-0.012
-375.858	30.110	0.084	-0.071
-374.844	151.183	0.245	-0.332
-373.829	272.766	0.082	-0.144
-372.815	-126.263	0.453	-0.067
-371.800	719.634	0.098	0.260
-370.785	-200.000	-0.049	-0.236
-369.771	144.592	0.145	0.193
-368.756	41.663	0.162	-0.146
-367.742	-159.893	-0.111	-0.006
-366.727	2.412	-0.069	0.049
-365.712	800.000	0.080	0.294
-364.698	141.299	0.193	0.254
-363.683	-111.942	-0.320	-0.064
-362.669	646.014	-0.080	-0.203
-361.654	-49.130	0.193	0.092
-360.639	389.610	0.080	0.164
-359.625	-200.000	-0.038	-0.180
-358.610	2.830	-0.081	-0.059
-357.596	-165.659	0.180	0.008
-356.581	-200.000	0.019	-0.323
-355.566	263.927	-0.007	-0.012
-354.552	-200.000	0.051	0.238
-353.537	-69.232	-0.086	-0.033
-352.523	194.485	-0.202	0.304
-351.508	-30.118	-0.206	0.117
-350.493	-50.439	0.211	0.099
-349.479	-100.145	-0.131	0.033
-348.464	800.000	0.072	0.219
-347.450	153.835	0.093	-0.126
-346.435	391.534	0.249	0.514
-345.420	58.877	0.179	0.175
-344.406	-200.000	-0.006	-0.030
-343.391	101.721	0.089	0.103
-342.377	800.000	-0.078	0.315
-341.362	-18.770	-0.199	-0.123
-340.348	-22.683	0.235	0.141
-339.333	194.932	-0.065	0.098
-338.318	-106.688	-0.195	0.043
-337.304	800.000	-0.056	-0.168
-336.289	-8.470	0.186	-0.124
-335.275	-200.000	0.000	-0.148
-334.260	-116.470	-0.220	-0.040
-333.245	-23.630	0.072	-0.043
-332.231	-165.235	-0.113	-0.005
-331.216	142.048	0.164	0.216
-330.202	800.000	0.111	0.312
-329.187	465.153	0.057	-0.126
-328.172	-102.774	-0.167	0.040
-327.158	-4.508	-0.013	-0.009
-326.143	252.198	0.088	-0.149
-325.129	213.152	-0.143	-0.225
-324.114	-125.094	-0.194	0.030
-323.099	-173.745	0.099	-0.003
-322.085	20.657	0.217	0.174
-321.070	800.000	0.096	0.314
-320.056	-200.000	-0.060	-0.277
-319.041	-180.915	0.160	-0.003
-318.026	-65.227	-0.053	0.021
-317.012	87.528	-0.102	0.112
-315.997	-103.013	-0.245	-0.058
-314.983	-200.000	-0.004	-0.079
-313.968	800.000	-0.041	-0.173
-312.953	-133.765	-0.211	0.026
-311.939	53.296	-0.202	0.193
-310.924	800.000	-0.062	0.195
-309.910	-118.977	-0.333	0.058
-308.895	-200.000	-0.014	-0.080
-307.880	21.063	-0.163	0.132
-306.866	-61.658	0.131	0.055
-305.851	162.518	0.088	-0.123
-304.837	-23.974	-0.194	0.115
-303.822	208.842	-0.197	0.306
-302.807	311.627	-0.163	0.304
-301.793	-137.910	0.163	0.018
-300.778	-99.171	0.287	0.072
-299.764	-61.645	-0.421	-0.175
-298.749	800.000	-0.048	0.175
-297.735	-200.000	0.011	0.051
-296.720	59.547	-0.069	0.067
-295.705	127.386	-0.100	-0.126
-294.691	-110.794	0.168	0.034
-293.676	-47.285	-0.343	0.165
-292.662	40.701	-0.277	-0.247
-291.647	-106.190	0.174	0.039
-290.632	254.089	-0.032	-0.055
-289.618	800.000	-0.033	-0.113
-288.603	800.000	-0.049	-0.199
-287.589	800.000	-0.041	0.171
-286.574	-119.156	0.065	-0.011
-285.559	-86.993	0.166	-0.050
-284.545	153.944	-0.195	-0.265
-283.530	800.000	0.015	0.058
-282.516	92.056	-0.086	-0.095
-281.501	-200.000	0.033	0.183
-280.486	-200.000	-0.007	-0.369
-279.472	341.369	-0.053	-0.102
-278.457	554.777	-0.058	-0.137
-277.443	-160.867	-0.155	0.008
-276.428	241.880	0.062	0.103
-275.413	-152.624	-0.163	0.012
-274.399	-88.667	0.331	0.098
-273.384	-57.179	-0.203	-0.089
-272.370	776.411	-0.068	-0.185
-271.355	800.000	-0.035	0.098
-270.340	800.000	0.052	-0.168
-269.326	-129.143	-0.524	-0.073
-268.311	372.014	-0.093	-0.187
-267.297	39.126	0.026	0.023
-266.282	-100.724	-0.233	-0.057
-265.267	-200.000	0.031	0.276
-264.253	491.697	0.041	-0.093
-263.238	-142.912	0.436	0.042
-262.224	-143.982	-0.308	-0.029
-261.209	-25.877	0.217	-0.127
-260.195	134.187	-0.103	-0.132
-259.180	-63.712	0.421	0.171
-258.165	-21.937	0.083	-0.050
-257.151	-34.043	0.310	-0.169
-256.136	-20.975	0.350	0.212
-255.122	41.147	-0.313	-0.280
-254.107	25.124	0.291	-0.240
-253.092	-200.000	-0.022	0.158
-252.078	-16.658	-0.075	-0.047
-251.063	800.000	0.014	0.046
-250.049	-183.597	0.203	0.003
-249.034	-200.000	-0.041	-0.384
-248.019	682.390	0.112	-0.288
-247.005	-200.000	-0.038	-0.214
-245.990	-200.000	-0.039	-0.390
-244.976	-200.000	-0.012	-0.208
-243.961	-131.443	-0.051	-0.007
-242.946	18.505	0.190	0.150
-241.932	299.198	0.002	0.005
-240.917	124.297	0.118	-0.146
-239.903	-48.593	0.272	0.130
-238.888	800.000	-0.104	0.393
-237.873	26.892	-0.143	0.119
-236.859	639.324	-0.175	-0.440
-235.844	-100.242	-0.228	-0.056
-234.830	-73.113	0.214	-0.078
-233.815	94.275	-0.132	0.148
-232.800	800.000	-0.046	0.130
-231.786	81.359	0.184	0.197
-230.771	81.110	-0.200	0.214
-229.757	106.474	-0.126	0.148
-228.742	-43.685	0.086	-0.043
-227.727	-200.000	0.050	0.239
-226.713	175.669	-0.173	0.249
-225.698	473.591	-0.076	0.169
-224.684	73.689	0.037	-0.038
-223.669	-200.000	-0.124	0.000
-222.655	235.972	0.216	-0.354
-221.640	-98.296	0.085	0.022
-220.625	-69.361	0.097	-0.037
-219.611	-42.424	-0.096	-0.048
-218.596	152.687	0.111	-0.151
-217.582	-64.744	0.193	-0.077
-216.567	73.759	-0.176	0.183
-215.552	-200.000	-0.002	-0.060
-214.538	800.000	0.075	-0.220
-213.523	62.233	-0.282	-0.278
-212.509	2.928	0.097	-0.069
-211.494	28.770	-0.151	0.126
-210.479	149.361	-0.274	-0.367
-209.465	-200.000	0.083	-0.376
-208.450	550.499	0.083	0.197
-207.436	-88.825	-0.211	0.062
-206.421	256.062	0.055	-0.094
-205.406	-140.883	-0.363	-0.037
-204.392	599.707	0.149	-0.367
-203.377	-61.975	0.175	-0.072
-202.363	-28.344	-0.505	0.288
-201.348	-75.975	0.270	-0.094
-200.333	800.000	-0.069	-0.211
-199.319	800.000	0.048	0.190
-198.304	-49.418	-0.163	0.077
-197.290	-6.999	0.202	0.135
-196.275	464.280	-0.098	0.216
-195.260	10.431	-0.213	-0.160
-194.246	-146.984	0.423	0.036
-193.231	-200.000	0.007	0.031
-192.217	-116.247	-0.107	-0.020
-191.202	-176.708	-0.474	-0.012
-190.187	149.547	-0.077	-0.103
-189.173	-200.000	0.014	0.121
-188.158	-146.943	0.177	0.015
-187.144	800.000	-0.034	0.125
-186.129	-164.584	0.042	0.002
-185.114	141.802	-0.102	0.133
-184.100	800.000	0.031	-0.125
-183.085	571.483	0.037	0.090
-182.071	800.000	-0.107	0.309
-181.056	68.201	0.189	0.191
-180.042	-200.000	-0.009	0.087
-179.027	800.000	0.058	-0.247
-178.012	54.876	0.184	-0.176
-176.998	-46.201	0.053	0.026
-175.983	-87.817	-0.139	0.041
-174.969	190.264	-0.047	-0.070
-173.954	709.215	0.147	-0.385
-172.939	294.443	-0.061	0.110
-171.925	-150.661	0.169	0.013
-170.910	233.500	0.115	-0.187
-169.896	139.476	0.195	0.253
-168.881	2.985	-0.182	0.131
-167.866	-92.122	-0.277	-0.077
-166.852	132.964	-0.067	-0.086
-165.837	-200.000	-0.078	0.345
-164.823	-64.678	-0.386	0.155
-163.808	134.603	0.093	0.119
-162.793	188.496	-0.051	0.076
-161.779	348.241	0.044	-0.086
-160.764	-176.107	-0.061	-0.002
-159.750	-200.000	0.057	0.293
-158.735	-24.056	0.236	0.139
-157.720	-134.442	0.120	0.014
-156.706	-200.000	0.034	-0.354
-155.691	36.564	-0.100	0.087
-154.677	199.574	0.152	0.230
-153.662	-190.845	-0.320	-0.003
-152.647	-200.000	0.008	0.275
-151.633	-166.437	0.260	0.011
-150.618	-200.000	-0.021	0.313
-149.604	-107.391	0.283	0.061
-148.589	-95.063	0.254	-0.068
-147.574	800.000	-0.080	0.260
-146.560	251.283	-0.105	0.177
-145.545	-200.000	-0.024	0.146
-144.531	157.110	-0.017	0.023
-143.516	-200.000	0.029	0.260
-142.502	213.723	0.128	0.199
-141.487	4.354	0.239	0.172
-140.472	41.080	0.163	-0.145
-139.458	349.103	-0.084	-0.163
-138.443	-186.005	-0.289	0.004
-137.429	-144.698	-0.257	-0.023
-136.414	-85.326	0.202	0.062
-135.399	-42.884	-0.198	-0.099
-134.385	-30.677	0.139	0.078
-133.370	280.675	-0.085	-0.151
-132.356	-42.335	0.181	0.091
-131.341	-96.539	0.130	-0.034
-130.326	-200.000	-0.006	-0.154
-129.312	498.480	0.149	0.339
-128.297	59.042	-0.146	-0.142
-127.283	588.419	-0.135	0.328
-126.268	-118.333	-0.192	0.034
-125.253	23.151	0.245	0.198
-124.239	-30.678	0.380	-0.212
-123.224	-30.763	-0.043	0.024
-122.210	153.137	0.203	0.274
-121.195	-200.000	-0.083	0.390
-120.180	568.714	-0.045	0.107
-119.166	-65.455	0.315	0.125
-118.151	-200.000	0.009	-0.125
-117.137	-91.405	-0.148	-0.042
-116.122	29.562	0.071	-0.059
-115.107	75.976	0.201	-0.210
-114.093	-96.019	-0.186	0.049
-113.078	49.035	-0.245	0.226
-112.064	-20.833	-0.105	-0.063
-111.049	58.673	-0.060	0.059
-110.034	-136.586	-0.081	-0.009
-109.020	-200.000	0.004	-0.025
-108.005	-45.828	-0.253	-0.123
-106.991	-51.159	-0.431	-0.199
-105.976	-72.688	-0.031	-0.011
-104.962	-200.000	0.353	0.001
-103.947	-35.850	0.082	-0.044
-102.932	139.925	-0.036	-0.047
-101.918	800.000	-0.039	0.125
-100.903	-200.000	-0.006	0.229
-99.889	18.473	0.116	0.091
-98.874	-200.000	-0.033	0.310
-97.859	57.802	0.139	0.133
-96.845	-145.706	-0.240	-0.021
-95.830	800.000	0.085	-0.274
-94.816	-200.000	-0.020	-0.091
-93.801	161.417	0.038	-0.052
-92.786	52.609	-0.165	-0.155
-91.772	-133.003	-0.152	0.019
-90.757	424.626	0.033	0.070
-89.743	800.000	-0.069	0.259
-88.728	-165.737	0.040	-0.002
-87.713	-80.983	0.174	0.057
-86.699	152.513	-0.121	0.163
-85.684	-115.788	-0.299	0.055
-84.670	-200.000	0.021	-0.213
-83.655	80.039	-0.126	-0.133
-82.640	-65.365	0.200	-0.079
-81.626	-200.000	0.003	-0.052
-80.611	-91.612	-0.067	-0.019
-79.597	-63.384	0.330	0.134
-78.582	800.000	0.076	0.314
-77.567	63.601	-0.096	0.095
-76.553	-71.337	0.104	0.038
-75.538	259.431	-0.078	0.133
-74.524	122.388	-0.292	0.359
-73.509	-200.000	0.067	0.302
-72.494	-125.198	-0.208	-0.031
-71.480	-115.386	0.078	0.014
-70.465	68.774	-0.365	0.369
-69.451	-49.424	0.287	0.135
-68.436	-23.213	0.412	0.244
-67.422	-200.000	-0.043	0.222
-66.407	219.288	-0.029	0.046
-65.392	-122.863	0.113	0.018
-64.378	715.458	0.091	-0.237
-63.363	-85.835	0.329	-0.100
-62.349	228.872	0.062	0.099
-61.334	9.810	-0.765	-0.570
-60.319	29.165	0.728	0.608
-59.305	-200.000	-0.090	-0.673
-58.290	247.115	0.504	0.836
-57.276	321.770	0.893	1.671
-56.261	-200.000	95.109	563.030
-55.246	641.483	1376.622	3446.547
-54.232	197.243	2560.371	3840.042
-53.217	112.850	2270.957	2704.334
-52.203	42.368	1895.639	1693.843
-51.188	36.341	1685.475	1460.568
-50.173	33.582	1641.243	1401.815
-49.159	50.861	1686.848	1570.524
-48.144	52.642	1703.952	1599.719
-47.130	35.876	1664.735	1438.885
-46.115	33.234	1650.064	1406.540
-45.100	33.022	1645.409	1400.942
-44.086	32.881	1643.020	1397.809
-43.071	32.882	1639.717	1394.951
-42.057	32.825	1637.707	1392.764
-41.042	32.904	1635.509	1391.425
-40.027	32.809	1633.859	1389.266
-39.013	32.866	1631.891	1387.956
-37.998	32.830	1630.250	1386.241
-36.984	32.827	1628.864	1384.986
-35.969	33.015	1627.383	1385.050
-34.954	33.038	1625.710	1383.739
-33.940	32.929	1624.395	1381.763
-32.925	33.080	1622.389	1381.107
-31.911	32.970	1620.784	1378.884
-30.896	33.083	1618.841	1378.003
-29.881	32.997	1617.095	1375.831
-28.867	32.996	1615.401	1374.334
-27.852	32.924	1614.260	1372.780
-26.838	33.070	1612.248	1372.076
-25.823	33.051	1611.385	1371.153
-24.809	33.075	1609.756	1369.887
-23.794	32.988	1608.683	1368.287
-22.779	33.075	1606.481	1366.989
-21.765	32.945	1605.279	1364.969
-20.750	33.071	1603.167	1364.032
-19.736	32.993	1602.265	1362.648
-18.721	33.000	1601.288	1361.811
-17.706	33.016	1599.414	1360.278
-16.692	32.980	1598.192	1358.924
-15.677	33.015	1596.612	1357.779
-14.663	33.075	1594.779	1356.601
-13.648	33.050	1593.761	1355.501
-12.633	33.075	1592.026	1354.147
-11.619	32.949	1590.956	1352.284
-10.604	32.992	1589.341	1351.163
-9.590	33.070	1587.649	1350.228
-8.575	33.056	1586.622	1349.201
-7.560	32.983	1585.415	1347.605
-6.546	33.075	1584.175	1347.152
-5.531	33.097	1583.345	1346.546
-4.517	33.005	1582.281	1344.933
-3.502	32.966	1580.978	1343.494
-2.487	33.041	1579.073	1342.357
-1.473	32.764	1567.660	1330.645
-0.458	30.015	1547.603	1294.393
0.556	26.506	1548.071	1262.472
1.571	24.042	1571.221	1263.771
2.586	23.488	1583.649	1269.684
3.600	20.801	1530.239	1208.138
4.615	12.655	1422.261	1070.046
5.629	5.834	1359.483	980.219
6.644	4.859	1351.227	968.125
7.659	4.709	1350.056	966.268
8.673	4.735	1348.616	965.312
9.688	4.737	1347.026	964.102
10.702	4.646	1344.410	961.581
11.717	7.721	1350.434	984.875
12.731	15.273	1364.261	1041.978
13.746	19.995	1371.017	1076.464
14.761	19.611	1369.111	1072.493
15.775	18.630	1366.150	1063.994
16.790	17.534	1363.603	1055.129
17.804	16.702	1361.265	1048.083
18.819	16.394	1359.852	1044.998
19.834	16.064	1358.827	1042.073
20.848	15.915	1357.570	1040.100
21.863	15.605	1356.669	1037.405
22.877	15.505	1355.231	1035.593
23.892	15.524	1354.034	1034.708
24.907	15.421	1353.583	1033.633
25.921	15.544	1352.283	1033.305
26.936	15.511	1351.525	1032.438
27.950	15.591	1350.343	1031.935
28.965	15.568	1350.125	1031.530
29.980	15.746	1348.737	1031.471
30.994	15.836	1347.723	1031.154
32.009	15.813	1346.269	1029.812
33.023	15.769	1345.381	1028.774
34.038	15.676	1344.115	1027.149
35.053	15.546	1343.264	1025.609
36.067	15.634	1341.584	1024.774
37.082	15.573	1341.113	1023.951
38.096	15.695	1339.791	1023.596
39.111	15.723	1339.004	1023.072
40.126	15.570	1338.339	1021.545
41.140	15.428	1337.306	1019.805
42.155	15.405	1336.379	1018.866
43.169	15.416	1336.374	1018.840
44.184	15.397	1335.774	1018.176
45.199	15.384	1335.928	1018.122
46.213	15.577	1335.030	1018.517
47.228	15.682	1334.236	1018.460
48.242	15.616	1333.166	1017.156
49.257	15.591	1331.789	1015.863
50.271	15.545	1330.682	1014.650
51.286	15.517	1329.638	1013.597
52.301	15.606	1327.740	1012.598
53.315	15.436	1326.937	1010.870
54.330	15.379	1325.789	1009.563
55.344	15.432	1324.440	1008.762
56.359	15.446	1323.594	1008.116
57.374	15.443	1322.742	1007.359
58.388	15.466	1321.638	1006.564
59.403	15.296	1321.713	1005.513
60.417	15.290	1320.748	1004.659
61.432	15.263	1319.796	1003.682
62.447	15.238	1318.608	1002.540
63.461	15.308	1317.302	1001.874
64.476	15.271	1316.644	1001.063
65.490	15.186	1315.698	999.748
66.505	15.296	1313.667	998.777
67.520	15.235	1312.569	997.486
68.534	15.401	1310.949	997.157
69.549	15.361	1310.052	996.148
70.563	15.194	1310.011	995.036
71.578	15.219	1308.019	993.583
72.593	15.080	1307.427	992.221
73.607	15.095	1306.813	991.757
74.622	15.178	1305.656	991.283
75.636	15.164	1304.983	990.601
76.651	15.133	1304.534	989.993
77.666	15.120	1304.116	989.506
78.680	15.241	1303.302	989.519
79.695	15.274	1302.654	989.130
80.709	15.233	1302.352	988.574
81.724	15.323	1301.449	988.329
82.739	15.443	1300.641	988.335
83.753	15.520	1299.640	987.944
84.768	15.620	1298.685	987.717
85.782	15.634	1297.693	986.959
86.797	15.639	1296.204	985.766
87.812	15.598	1295.188	984.665
88.826	15.544	1294.207	983.516
89.841	15.686	1292.570	983.018
90.855	15.576	1292.353	982.119
91.870	15.632	1291.527	981.735
92.884	15.686	1290.242	980.985
93.899	15.698	1289.792	980.624
94.914	15.750	1288.778	980.072
95.928	15.766	1288.146	979.599
96.943	15.672	1287.384	978.386
97.957	15.645	1285.800	976.935
98.972	15.683	1285.097	976.540
99.987	15.592	1284.157	975.208
101.001	15.681	1282.970	974.735
102.016	15.618	1282.028	973.568
103.030	15.619	1280.947	972.671
104.045	15.650	1280.425	972.366
105.060	15.614	1278.697	970.762
106.074	15.481	1277.288	968.835
107.089	15.346	1275.864	966.890
108.103	15.340	1274.462	965.709
109.118	15.202	1273.656	964.222
110.133	15.387	1271.904	963.873
111.147	15.352	1271.150	963.016
112.162	15.410	1269.510	962.017
113.176	15.364	1268.842	961.164
114.191	15.407	1267.884	960.601
115.206	15.497	1266.866	960.258
116.220	15.448	1265.461	958.826
117.235	15.419	1264.233	957.644
118.249	15.443	1263.440	957.099
119.264	15.435	1261.896	955.796
120.279	15.438	1261.032	955.075
121.293	15.324	1259.905	953.491
122.308	15.263	1258.964	952.347
123.322	15.198	1257.857	951.058
124.337	15.205	1256.955	950.330
125.352	15.181	1256.009	949.392
126.366	15.275	1254.826	948.947
127.381	15.186	1253.905	947.664
128.395	15.388	1252.278	947.495
129.410	15.327	1251.759	946.672
130.424	15.406	1251.136	946.564
131.439	15.345	1250.001	945.276
132.454	15.405	1249.213	944.937
133.468	15.395	1248.603	944.332
134.483	15.390	1247.912	943.696
135.497	15.494	1246.298	942.977
136.512	15.472	1245.226	941.959
137.527	15.550	1244.253	941.579
138.541	15.536	1242.803	940.317
139.556	15.481	1241.196	938.713
140.570	15.506	1240.401	938.168
141.585	15.518	1239.622	937.564
142.600	15.671	1238.255	937.300
143.614	15.774	1237.279	937.052
144.629	15.781	1236.312	936.276
145.643	15.718	1235.130	934.946
146.658	15.595	1233.688	933.089
147.673	15.511	1232.858	931.911
148.687	15.476	1232.003	930.991
149.702	15.529	1230.143	929.799
150.716	15.450	1228.707	928.193
151.731	15.554	1227.542	927.804
152.746	15.558	1226.288	926.797
153.760	15.627	1225.199	926.274
154.775	15.624	1223.961	925.239
155.789	15.635	1223.582	924.927
156.804	15.703	1222.320	924.267
157.819	15.858	1221.180	924.174
158.833	15.729	1220.725	923.040
159.848	15.763	1220.051	922.634
160.862	15.759	1219.019	921.751
161.877	15.701	1217.401	920.128
162.892	15.551	1216.642	918.656
163.906	15.546	1215.607	917.767
164.921	15.625	1214.538	917.305
165.935	15.647	1214.216	917.105
166.950	15.686	1213.231	916.488
167.964	15.682	1212.508	915.843
168.979	15.520	1212.441	914.825
169.994	15.837	1210.574	915.062
171.008	15.765	1209.961	914.126
172.023	15.839	1209.240	913.903
173.037	15.794	1208.670	913.149
174.052	15.883	1207.855	912.930
175.067	15.690	1206.888	911.075
176.081	15.610	1205.814	909.751
177.096	15.632	1205.233	909.351
178.110	15.670	1203.699	908.317
179.125	15.744	1202.148	907.465
180.140	15.809	1200.728	906.665
181.154	15.879	1199.815	906.274
182.169	15.894	1198.929	905.603
183.183	15.915	1198.065	904.980
184.198	15.875	1196.629	903.605
185.213	15.901	1195.716	902.974
186.227	16.014	1194.427	902.525
187.242	16.061	1193.810	902.228
188.256	16.029	1192.903	901.294
189.271	16.021	1191.984	900.476
190.286	15.994	1190.546	899.166
191.300	15.683	1189.854	896.905
192.315	15.621	1188.910	895.787
193.329	15.737	1188.163	895.759
194.344	15.755	1187.799	895.503
195.359	15.832	1187.261	895.430
196.373	15.916	1186.879	895.510
197.388	16.092	1186.277	895.909
198.402	16.141	1186.269	896.083
199.417	16.156	1185.755	895.694
200.432	16.237	1184.687	895.239
201.446	16.264	1183.756	894.599
202.461	16.427	1182.757	894.629
203.475	16.266	1182.117	893.213
204.490	16.202	1180.560	891.619
205.504	16.218	1178.944	890.407
206.519	16.213	1177.762	889.408
207.534	16.177	1176.986	888.553
208.548	16.132	1175.606	887.197
209.563	16.254	1175.082	887.362
210.577	16.254	1174.351	886.735
211.592	16.159	1173.798	885.738
212.607	16.372	1172.923	886.118
213.621	16.378	1171.928	885.321
214.636	16.325	1170.911	884.196
215.650	16.329	1170.253	883.639
216.665	16.355	1169.111	882.835
217.680	16.398	1168.630	882.619
218.694	16.452	1168.126	882.443
219.709	16.368	1167.253	881.266
220.723	16.448	1166.414	880.972
221.738	16.426	1165.312	879.945
222.753	16.546	1164.805	880.113
223.767	16.535	1164.308	879.599
224.782	16.661	1163.255	879.379
225.796	16.687	1162.565	878.919
226.811	16.631	1162.387	878.413
227.826	16.519	1161.557	877.128
228.840	16.577	1160.640	876.660
229.855	16.574	1159.830	875.956
230.869	16.535	1158.991	875.042
231.884	16.530	1158.320	874.433
232.899	16.403	1157.491	873.071
233.913	16.540	1156.779	873.164
234.928	16.372	1156.359	871.904
235.942	16.429	1155.383	871.384
236.957	16.470	1154.805	871.082
237.972	16.453	1153.783	870.148
238.986	16.379	1153.242	869.279
240.001	16.372	1152.838	868.864
241.015	16.564	1151.422	868.704
242.030	16.532	1151.035	868.173
243.045	16.596	1150.096	867.718
244.059	16.742	1148.865	867.457
245.074	16.645	1148.810	866.844
246.088	16.625	1148.044	866.084
247.103	16.741	1146.787	865.652
248.117	16.763	1146.427	865.420
249.132	16.843	1146.029	865.452
250.147	17.099	1145.222	866.073
251.161	17.044	1144.402	865.092
252.176	17.091	1143.870	864.855
253.190	17.053	1143.235	864.103
254.205	17.041	1142.947	863.748
255.220	17.175	1142.028	863.657
256.234	17.167	1141.532	863.169
257.249	17.239	1140.570	862.729
258.263	17.188	1140.198	862.110
259.278	17.198	1139.030	861.201
260.293	17.187	1139.109	861.132
261.307	17.211	1138.307	860.568
262.322	17.319	1137.549	860.468
263.336	17.376	1136.808	860.121
264.351	17.298	1136.525	859.433
265.366	17.259	1135.758	858.581
266.380	17.336	1134.794	858.164
267.395	17.275	1134.249	857.369
268.409	17.242	1133.529	856.582
269.424	17.243	1133.087	856.176
270.439	17.251	1132.050	855.360
271.453	17.288	1131.598	855.130
272.468	17.191	1130.360	853.632
273.482	17.155	1129.609	852.807
274.497	17.212	1129.556	852.975
275.512	17.150	1128.604	851.872
276.526	17.187	1127.559	851.191
277.541	17.286	1126.814	851.052
278.555	17.357	1126.746	851.278
279.570	17.487	1125.634	851.015
280.585	17.400	1125.229	850.199
281.599	17.469	1123.971	849.518
282.614	17.441	1122.899	848.491
283.628	17.384	1121.752	847.266
284.643	17.391	1121.069	846.711
285.657	17.326	1120.297	845.731
286.672	17.509	1119.191	845.726
287.687	17.364	1118.365	844.310
288.701	17.469	1117.774	844.309
289.716	17.530	1116.905	843.879
290.730	17.458	1116.515	843.155
291.745	17.448	1115.691	842.410
292.760	17.481	1114.836	841.852
293.774	17.546	1114.634	841.947
294.789	17.533	1114.398	841.628
295.803	17.670	1112.917	841.109
296.818	17.497	1112.594	839.940
297.833	17.561	1111.687	839.494
298.847	17.515	1110.797	838.524
299.862	17.604	1109.881	838.197
300.876	17.568	1109.786	837.872
301.891	17.674	1109.047	837.763
302.906	17.737	1108.418	837.522
303.920	17.753	1107.508	836.840
304.935	17.754	1106.901	836.312
305.949	17.794	1106.560	836.173
306.964	17.878	1105.432	835.659
307.979	17.784	1104.807	834.655
308.993	17.849	1104.167	834.414
310.008	17.908	1103.441	834.082
311.022	17.943	1102.391	833.384
312.037	17.909	1101.700	832.621
313.052	17.878	1100.629	831.585
314.066	17.842	1099.673	830.616
315.081	17.790	1098.812	829.640
316.095	17.664	1098.323	828.583
317.110	17.675	1097.669	828.070
318.125	17.753	1096.882	827.784
319.139	17.689	1096.071	826.786
320.154	17.670	1095.841	826.449
321.168	17.774	1095.115	826.329
322.183	17.807	1094.733	826.130
323.197	17.954	1093.221	825.628
324.212	17.855	1093.100	824.983
325.227	17.787	1092.594	824.200
326.241	17.922	1092.056	824.372
327.256	17.867	1091.211	823.395
328.270	17.868	1090.302	822.644
329.285	17.856	1089.228	821.701
330.300	17.848	1088.182	820.802
331.314	17.902	1087.199	820.249
332.329	17.884	1086.263	819.382
333.343	17.919	1085.454	818.865
334.358	18.086	1084.365	818.774
335.373	18.024	1084.156	818.245
336.387	17.967	1083.729	817.580
337.402	18.074	1082.941	817.422
338.416	18.136	1081.974	816.919
339.431	18.162	1081.690	816.756
340.446	18.196	1081.155	816.441
341.460	18.242	1080.499	816.095
342.475	18.325	1079.855	815.929
343.489	18.374	1078.644	815.174
344.504	18.313	1078.015	814.339
345.519	18.337	1077.102	813.690
346.533	18.439	1076.153	813.385
347.548	18.430	1075.437	812.731
348.562	18.513	1074.581	812.404
349.577	18.432	1073.819	811.372
350.592	18.249	1072.872	809.718
351.606	18.270	1072.342	809.346
352.621	18.241	1071.664	808.625
353.635	18.300	1070.888	808.247
354.650	18.266	1070.176	807.481
355.665	18.238	1069.762	806.962
356.679	18.270	1068.766	806.294
357.694	18.362	1068.214	806.239
358.708	18.406	1067.563	805.879
359.723	18.492	1067.142	805.896
360.738	18.354	1066.594	804.762
361.752	18.393	1066.434	804.754
362.767	18.311	1065.894	803.889
363.781	18.520	1064.962	804.095
364.796	18.514	1064.142	803.377
365.810	18.461	1064.003	802.955
366.825	18.631	1063.140	803.027
367.840	18.788	1062.500	803.209
368.854	18.818	1062.205	803.056
369.869	18.752	1061.002	801.764
370.883	18.733	1060.509	801.232
371.898	18.619	1059.753	800.057
372.913	18.681	1059.279	799.919
373.927	18.895	1058.430	800.203
374.942	18.781	1058.181	799.412
375.956	18.741	1057.670	798.769
376.971	18.821	1057.025	798.583
377.986	18.717	1056.486	797.624
379.000	18.863	1055.975	797.845
380.015	18.873	1055.558	797.504
381.029	18.955	1054.952	797.360
382.044	19.023	1053.911	796.814
383.059	19.055	1053.242	796.386
384.073	18.993	1052.225	795.263
385.088	19.011	1051.735	794.904
386.102	18.999	1050.748	794.031
387.117	18.845	1049.913	792.619
388.132	18.881	1048.924	791.972
389.146	18.820	1048.163	791.044
390.161	18.842	1047.360	790.470
391.175	18.826	1046.798	789.902
392.190	18.955	1045.906	789.752
393.205	18.962	1045.513	789.419
394.219	19.087	1044.610	789.236
395.234	19.072	1043.326	788.127
396.248	19.003	1042.463	787.092
397.263	19.072	1041.174	786.363
398.278	18.965	1040.842	785.558
399.292	18.933	1040.330	784.953
400.307	18.825	1039.684	783.904
401.321	18.929	1038.748	783.605
402.336	18.882	1038.304	782.985
403.350	18.977	1037.314	782.601
404.365	19.001	1036.334	781.901
405.380	19.028	1035.888	781.617
406.394	19.034	1035.666	781.410
407.409	19.045	1034.697	780.660
408.423	19.185	1033.951	780.663
409.438	19.281	1033.526	780.705
410.453	19.222	1032.821	779.837
411.467	19.319	1032.096	779.662
412.482	19.314	1031.544	779.150
413.496	19.336	1030.810	778.630
414.511	19.404	1030.252	778.444
415.526	19.550	1029.818	778.704
416.540	19.449	1029.820	778.181
417.555	19.428	1029.363	777.672
418.569	19.438	1028.490	776.992
419.584	19.523	1027.643	776.665
420.599	19.480	1027.359	776.188
421.613	151.643	1400.503	1793.141
422.628	138.284	1454.853	1793.240
