DTS Sentinel unit serial number:	SN413079Multiplexer serial number:	ORYXHardware model number:	OX4-SRSoftware version number:	ORYX F/W v4.00 Oryx Data Collector v3.7.2.0data status	okinstallation	princeton_trtdifferential loss correction	single-endedforward channel	channel 2reverse channel	N/Adate	2019/09/11time	13:45:11forward acquisition time	60.00reverse acquisition time	0.00gamma	496.2192k internal	0.2293k external	0.2293temperature offset calibration	1.0004default loss term (dB/km)	0.3790temperature slope calibration	1.0000multiplexer offset coefficient	1.0000multiplexer slope coefficient	1.0000fibre end	0.00T internal ref (°C)	41.94T ext. ref 1 (°C)	0.84T ext. ref 2 (°C)	36.27length (m)	temperature (°C)	Stokes	anti-Stokes-747.200	-24.088	-0.076	0.047
-746.185	-200.000	-0.001	0.274
-745.171	-25.555	-0.308	-0.186
-744.156	-200.000	0.099	0.446
-743.142	-25.604	-0.235	0.142
-742.127	800.000	-0.048	0.139
-741.112	466.002	0.084	-0.192
-740.098	72.776	-0.234	0.250
-739.083	800.000	0.121	-0.378
-738.069	89.598	-0.104	0.119
-737.054	-111.649	0.097	-0.020
-736.039	-74.174	-0.267	-0.099
-735.025	110.867	0.090	0.110
-734.010	-200.000	0.007	-0.146
-732.996	781.071	-0.061	0.171
-731.981	39.973	-0.200	-0.184
-730.966	-103.115	0.080	0.019
-729.952	-106.166	-0.379	0.087
-728.937	-9.141	-0.037	-0.025
-727.923	-200.000	0.014	0.267
-726.908	-17.023	-0.028	-0.018
-725.894	-200.000	-0.018	-0.421
-724.879	397.126	-0.063	-0.135
-723.864	-163.649	0.083	0.004
-722.850	47.421	-0.096	-0.091
-721.835	406.343	-0.023	0.050
-720.821	27.664	0.135	-0.116
-719.806	-200.000	-0.017	0.164
-718.791	1.315	0.174	0.127
-717.777	-200.000	0.015	-0.103
-716.762	-200.000	-0.072	-0.455
-715.748	-200.000	0.022	-0.140
-714.733	-166.570	-0.265	0.011
-713.718	800.000	0.091	0.313
-712.704	-120.666	-0.268	0.046
-711.689	800.000	0.063	0.188
-710.675	800.000	0.082	-0.259
-709.660	64.314	-0.273	0.281
-708.645	800.000	0.082	-0.236
-707.631	-95.870	0.279	0.076
-706.616	-129.372	-0.305	-0.043
-705.602	-58.824	-0.173	0.077
-704.587	-59.283	-0.218	0.096
-703.572	-59.537	-0.301	-0.132
-702.558	182.498	-0.090	-0.135
-701.543	137.984	-0.215	0.288
-700.529	800.000	0.019	0.055
-699.514	101.592	-0.190	-0.227
-698.499	110.993	-0.173	0.213
-697.485	12.424	-0.374	-0.294
-696.470	-200.000	0.051	-0.555
-695.456	364.432	0.103	0.211
-694.441	800.000	-0.078	0.223
-693.426	79.127	-0.192	0.210
-692.412	-109.946	0.213	0.046
-691.397	-67.884	0.133	0.053
-690.383	203.367	0.070	0.110
-689.368	-145.183	0.301	-0.028
-688.354	-200.000	-0.009	-0.107
-687.339	-112.539	-0.092	0.019
-686.324	207.471	0.176	-0.280
-685.310	95.279	0.169	-0.196
-684.295	800.000	0.035	-0.127
-683.281	27.417	0.129	-0.111
-682.266	131.220	-0.155	-0.203
-681.251	20.488	0.184	0.152
-680.237	800.000	0.140	0.420
-679.222	52.252	-0.169	-0.165
-678.208	299.237	0.248	-0.465
-677.193	-200.000	0.022	-0.265
-676.178	-200.000	0.216	0.000
-675.164	-200.000	0.037	0.178
-674.149	229.298	0.180	-0.300
-673.135	394.219	0.213	-0.452
-672.120	-69.292	-0.192	0.075
-671.105	-66.441	-0.250	-0.101
-670.091	171.625	-0.113	-0.165
-669.076	401.661	0.060	0.129
-668.062	-127.280	-0.509	0.076
-667.047	-200.000	0.060	0.363
-666.032	-200.000	0.034	0.427
-665.018	-200.000	-0.002	0.112
-664.003	463.774	0.032	0.074
-662.989	-108.457	-0.267	-0.059
-661.974	-200.000	-0.018	-0.102
-660.959	-60.075	-0.435	0.189
-659.945	-169.704	-0.370	0.014
-658.930	213.273	0.119	-0.191
-657.916	702.833	-0.090	-0.243
-656.901	-200.000	-0.039	-0.282
-655.886	-200.000	0.039	-0.293
-654.872	-30.191	-0.151	0.087
-653.857	-148.620	0.412	-0.034
-652.843	191.583	-0.208	0.319
-651.828	142.477	0.223	-0.302
-650.814	-144.219	-0.315	-0.030
-649.799	138.399	-0.079	0.106
-648.784	-82.633	-0.231	-0.076
-647.770	-34.554	-0.130	0.073
-646.755	-93.162	0.281	-0.080
-645.741	-200.000	-0.012	-0.107
-644.726	133.890	-0.142	-0.187
-643.711	-200.000	-0.034	-0.289
-642.697	118.519	0.195	-0.245
-641.682	-200.000	-0.000	0.083
-640.668	-58.722	-0.180	0.080
-639.653	502.233	0.051	-0.121
-638.638	12.853	0.090	-0.071
-637.624	-57.973	0.053	0.024
-636.609	338.392	0.080	0.158
-635.595	398.431	-0.108	0.230
-634.580	-200.000	-0.019	-0.224
-633.565	-107.083	0.133	0.030
-632.551	44.849	-0.211	0.197
-631.536	-1.727	-0.057	0.041
-630.522	15.378	-0.051	-0.041
-629.507	30.817	0.361	-0.315
-628.492	-78.137	-0.033	0.012
-627.478	40.435	0.071	0.065
-626.463	-80.316	-0.225	0.077
-625.449	-200.000	0.002	-0.321
-624.434	-82.500	0.133	0.044
-623.419	800.000	-0.065	-0.230
-622.405	-200.000	-0.052	-0.237
-621.390	47.692	-0.145	-0.137
-620.376	-137.218	-0.229	-0.027
-619.361	-200.000	0.019	0.236
-618.346	307.326	-0.044	-0.083
-617.332	167.879	-0.101	0.147
-616.317	-21.522	0.114	0.071
-615.303	-37.904	-0.254	0.137
-614.288	26.238	0.171	0.145
-613.273	-110.951	0.460	0.096
-612.259	-57.443	0.286	-0.128
-611.244	146.109	0.078	-0.106
-610.230	-200.000	0.049	-0.303
-609.215	800.000	0.064	0.277
-608.201	-200.000	-0.003	0.023
-607.186	163.835	0.123	0.176
-606.171	-108.030	-0.271	0.060
-605.157	800.000	0.054	0.238
-604.142	-0.060	0.272	0.197
-603.128	635.303	-0.200	-0.517
-602.113	150.788	0.183	-0.253
-601.098	-46.665	0.045	-0.023
-600.084	800.000	-0.017	-0.060
-599.069	-124.881	0.395	0.062
-598.055	144.945	0.111	0.151
-597.040	800.000	0.026	-0.103
-596.025	126.505	0.109	-0.140
-595.011	-47.323	0.393	0.195
-593.996	800.000	0.112	-0.359
-592.982	-152.517	-0.428	0.031
-591.967	523.358	-0.088	0.210
-590.952	-85.258	0.241	-0.077
-589.938	135.050	-0.237	-0.314
-588.923	-17.113	-0.036	0.023
-587.909	-200.000	-0.033	0.148
-586.894	-41.019	0.114	-0.060
-585.879	-24.514	0.226	0.137
-584.865	-200.000	-0.054	0.254
-583.850	-77.366	0.155	-0.055
-582.836	-110.154	-0.062	0.013
-581.821	-200.000	-0.019	0.412
-580.806	-200.000	0.035	0.195
-579.792	-200.000	0.016	0.140
-578.777	260.003	-0.184	0.323
-577.763	49.087	0.084	-0.080
-576.748	26.499	-0.235	-0.200
-575.733	139.263	0.053	-0.072
-574.719	800.000	0.043	-0.182
-573.704	800.000	0.025	0.094
-572.690	-33.178	-0.014	0.008
-571.675	-82.251	-0.075	0.025
-570.661	-105.642	-0.273	0.063
-569.646	-30.210	0.069	0.040
-568.631	-137.867	-0.171	-0.019
-567.617	253.050	0.017	-0.029
-566.602	-200.000	0.019	0.303
-565.588	-87.056	-0.241	-0.074
-564.573	336.955	0.082	-0.162
-563.558	-72.009	-0.181	0.068
-562.544	800.000	0.066	0.201
-561.529	-69.449	0.204	0.080
-560.515	-134.715	0.310	0.038
-559.500	-65.176	-0.205	0.084
-558.485	800.000	0.038	-0.167
-557.471	-200.000	-0.014	-0.098
-556.456	800.000	0.077	-0.325
-555.442	-165.853	-0.231	0.010
-554.427	-102.624	0.281	-0.068
-553.412	30.562	0.160	0.139
-552.398	369.639	0.123	-0.252
-551.383	-16.961	-0.290	-0.186
-550.369	-134.891	-0.333	-0.041
-549.354	800.000	0.020	-0.080
-548.339	-31.996	0.235	0.134
-547.325	103.280	-0.115	0.137
-546.310	-103.254	-0.097	0.023
-545.296	-83.704	0.115	0.037
-544.281	-200.000	0.060	-0.411
-543.266	28.332	0.244	-0.209
-542.252	-167.163	-0.230	-0.009
-541.237	-200.000	0.015	0.073
-540.223	-134.314	0.041	0.005
-539.208	-155.598	0.209	-0.014
-538.193	800.000	-0.141	-0.421
-537.179	-55.023	-0.310	0.142
-536.164	-200.000	0.014	0.105
-535.150	-200.000	-0.034	-0.214
-534.135	-23.187	-0.216	0.132
-533.121	158.939	-0.062	-0.088
-532.106	-108.259	-0.129	-0.028
-531.091	-43.202	0.111	-0.057
-530.077	-200.000	-0.007	-0.221
-529.062	-131.289	0.490	-0.066
-528.048	51.008	-0.032	0.031
-527.033	449.205	0.133	-0.297
-526.018	-120.002	0.256	-0.044
-525.004	800.000	-0.158	0.454
-523.989	-175.973	-0.348	0.009
-522.975	-15.724	0.206	0.133
-521.960	-103.584	0.387	-0.092
-520.945	-200.000	-0.013	-0.287
-519.931	161.148	-0.127	-0.181
-518.916	42.164	0.134	0.124
-517.902	-119.963	-0.303	-0.053
-516.887	-183.729	0.275	-0.005
-515.872	-24.614	0.230	0.139
-514.858	-139.023	-0.167	-0.018
-513.843	61.287	-0.301	-0.303
-512.829	109.355	-0.117	0.142
-511.814	800.000	-0.046	-0.162
-510.799	-200.000	-0.015	0.251
-509.785	58.825	0.107	0.106
-508.770	-200.000	0.022	0.419
-507.756	800.000	0.058	0.199
-506.741	-41.651	-0.237	-0.124
-505.726	-22.955	-0.173	0.106
-504.712	70.478	0.094	0.099
-503.697	97.795	-0.086	0.100
-502.683	-200.000	0.017	0.261
-501.668	111.759	0.059	-0.072
-500.653	265.857	0.160	-0.283
-499.639	-70.898	-0.221	0.084
-498.624	-135.733	0.251	0.030
-497.610	353.712	-0.076	-0.154
-496.595	-10.287	-0.051	0.035
-495.581	103.276	-0.036	0.043
-494.566	470.319	-0.076	0.174
-493.551	-50.153	-0.079	-0.038
-492.537	-200.000	0.009	0.162
-491.522	800.000	0.017	0.071
-490.508	290.387	0.059	0.109
-489.493	-200.000	-0.036	0.344
-488.478	-27.077	-0.063	-0.037
-487.464	800.000	-0.172	0.485
-486.449	800.000	0.022	0.085
-485.435	93.550	-0.102	-0.116
-484.420	-132.180	0.202	0.027
-483.405	-200.000	0.012	0.343
-482.391	800.000	0.095	-0.355
-481.376	-187.044	0.065	0.001
-480.362	800.000	-0.094	0.309
-479.347	56.584	-0.085	-0.084
-478.332	800.000	-0.087	-0.244
-477.318	-100.388	0.142	-0.036
-476.303	800.000	-0.167	-0.561
-475.289	-200.000	0.020	-0.284
-474.274	-56.722	0.334	-0.150
-473.259	203.507	0.114	0.179
-472.245	45.968	0.006	0.005
-471.230	-200.000	0.021	-0.098
-470.216	3.187	-0.195	0.144
-469.201	379.931	-0.153	-0.318
-468.186	432.385	0.049	-0.109
-467.172	99.566	-0.046	-0.054
-466.157	60.540	0.276	-0.277
-465.143	11.804	-0.179	0.139
-464.128	216.494	-0.151	-0.242
-463.113	70.224	-0.101	0.105
-462.099	7.843	-0.068	0.051
-461.084	800.000	-0.031	0.123
-460.070	-200.000	-0.011	-0.077
-459.055	293.525	0.072	-0.133
-458.040	-85.642	-0.158	-0.050
-457.026	800.000	-0.069	0.228
-456.011	671.001	0.051	0.133
-454.997	800.000	-0.097	-0.278
-453.982	236.853	0.219	-0.367
-452.968	71.390	0.070	0.073
-451.953	-36.206	-0.382	-0.209
-450.938	156.519	-0.157	-0.219
-449.924	231.251	-0.180	0.299
-448.909	-146.765	0.115	-0.010
-447.895	-103.951	-0.091	-0.022
-446.880	46.783	-0.146	-0.137
-445.865	-200.000	0.014	0.087
-444.851	531.905	0.150	0.358
-443.836	-67.718	0.062	-0.025
-442.822	34.847	-0.141	-0.125
-441.807	-200.000	0.004	-0.050
-440.792	800.000	-0.049	0.165
-439.778	-25.808	-0.176	-0.105
-438.763	61.235	0.140	-0.140
-437.749	-93.618	0.089	0.025
-436.734	800.000	-0.068	0.252
-435.719	-87.397	-0.074	-0.023
-434.705	315.985	0.062	0.117
-433.690	412.459	-0.144	-0.310
-432.676	-82.428	0.122	0.040
-431.661	2.308	-0.232	-0.170
-430.646	-200.000	-0.021	-0.135
-429.632	-97.750	0.293	0.077
-428.617	-50.042	0.245	0.117
-427.603	-74.192	-0.245	0.090
-426.588	-200.000	0.003	-0.058
-425.573	20.318	-0.318	0.259
-424.559	-4.831	0.262	0.183
-423.544	580.027	-0.118	0.291
-422.530	800.000	-0.025	-0.090
-421.515	-200.000	0.011	0.131
-420.500	800.000	0.085	0.241
-419.486	-27.757	0.214	-0.126
-418.471	-200.000	0.014	0.111
-417.457	214.356	0.059	0.095
-416.442	-87.658	0.183	0.056
-415.428	-200.000	-0.001	-0.078
-414.413	-200.000	0.024	0.205
-413.398	-99.200	-0.191	0.049
-412.384	800.000	-0.114	-0.395
-411.369	800.000	-0.076	-0.291
-410.355	-6.119	0.201	0.139
-409.340	-23.889	-0.216	0.131
-408.325	-89.717	-0.244	-0.072
-407.311	150.461	0.155	0.212
-406.296	194.817	0.112	-0.171
-405.282	-200.000	-0.035	0.165
-404.267	-23.902	0.296	-0.179
-403.252	-144.918	0.230	-0.021
-402.238	-200.000	-0.014	-0.272
-401.223	-141.986	-0.040	-0.004
-400.209	-74.580	-0.414	-0.150
-399.194	16.604	0.280	0.224
-398.179	-200.000	-0.005	0.030
-397.165	-14.184	-0.226	-0.147
-396.150	60.343	-0.059	-0.059
-395.136	-200.000	0.002	0.021
-394.121	-200.000	0.039	0.322
-393.106	-51.403	-0.225	0.106
-392.092	800.000	-0.088	-0.360
-391.077	-41.122	-0.186	-0.097
-390.063	599.282	0.049	-0.123
-389.048	63.017	0.136	-0.137
-388.033	-40.036	0.219	-0.115
-387.019	800.000	-0.133	-0.424
-386.004	-100.471	0.472	0.118
-384.990	19.805	0.026	-0.022
-383.975	104.356	-0.119	0.142
-382.960	-91.010	-0.277	-0.080
-381.946	-155.779	-0.276	-0.018
-380.931	-63.412	0.357	-0.148
-379.917	800.000	-0.102	-0.326
-378.902	-200.000	0.050	-0.234
-377.888	-187.267	0.240	0.003
-376.873	800.000	-0.059	-0.253
-375.858	151.368	-0.154	-0.212
-374.844	-23.853	0.153	0.092
-373.829	325.007	-0.075	0.145
-372.815	-62.197	-0.193	0.081
-371.800	-81.485	-0.129	0.043
-370.785	-110.020	-0.079	0.017
-369.771	-38.153	-0.089	0.048
-368.756	-200.000	-0.014	0.235
-367.742	-134.355	-0.211	0.026
-366.727	-137.730	0.177	0.020
-365.712	-200.000	-0.010	-0.181
-364.698	41.947	-0.135	-0.123
-363.683	-102.714	0.081	-0.019
-362.669	-97.072	-0.258	-0.068
-361.654	-116.535	0.105	-0.020
-360.639	-97.321	-0.185	0.049
-359.625	-20.118	0.079	-0.049
-358.610	790.980	-0.060	-0.167
-357.596	-144.979	-0.153	0.014
-356.581	45.615	-0.042	0.039
-355.566	-57.172	-0.221	-0.098
-354.552	102.016	-0.234	-0.275
-353.537	-52.227	-0.069	-0.032
-352.523	-52.170	0.284	0.133
-351.508	-200.000	-0.002	0.176
-350.493	159.069	0.126	0.176
-349.479	27.966	0.202	-0.172
-348.464	-88.273	-0.063	0.019
-347.450	12.352	0.088	-0.068
-346.435	441.947	-0.172	-0.379
-345.420	-12.748	0.169	-0.111
-344.406	644.887	-0.084	-0.216
-343.391	800.000	-0.044	-0.154
-342.377	58.750	-0.193	-0.191
-341.362	-10.483	-0.312	-0.208
-340.348	-200.000	0.002	0.271
-339.333	-200.000	-0.026	-0.375
-338.318	-89.616	-0.450	-0.133
-337.304	-4.043	0.090	-0.063
-336.289	-43.724	0.126	-0.064
-335.275	-117.769	0.434	0.079
-334.260	-73.466	0.265	-0.097
-333.245	-72.645	0.425	-0.158
-332.231	-90.907	-0.411	-0.119
-331.216	506.441	0.088	0.206
-330.202	-86.153	0.231	0.072
-329.187	-42.192	-0.310	0.159
-328.172	-118.334	0.131	-0.023
-327.158	-179.394	0.039	-0.001
-326.143	-146.196	0.007	-0.001
-325.129	340.227	0.302	0.593
-324.114	800.000	0.124	0.391
-323.099	96.417	-0.208	-0.239
-322.085	-18.641	0.344	0.216
-321.070	11.591	-0.106	-0.082
-320.056	356.242	-0.163	0.326
-319.041	-48.237	-0.231	0.112
-318.026	181.666	-0.174	0.257
-317.012	274.548	-0.086	-0.154
-315.997	312.465	0.170	0.322
-314.983	-200.000	0.031	0.246
-313.968	800.000	-0.058	0.187
-312.953	-67.790	0.112	0.044
-311.939	243.861	0.121	-0.204
-310.924	-28.484	0.450	0.261
-309.910	50.756	0.155	-0.147
-308.895	44.766	0.212	0.196
-307.880	-77.413	0.029	0.010
-306.866	800.000	-0.049	-0.181
-305.851	-200.000	0.027	0.143
-304.837	-200.000	-0.009	0.229
-303.822	319.000	-0.075	0.142
-302.807	-64.916	0.181	0.073
-301.793	-43.258	0.129	-0.066
-300.778	800.000	0.072	0.268
-299.764	-128.260	-0.095	-0.014
-298.749	-151.574	0.311	-0.023
-297.735	800.000	0.114	0.447
-296.720	-185.239	-0.373	0.006
-295.705	73.183	0.343	-0.360
-294.691	-33.289	0.243	0.135
-293.676	-33.852	0.385	-0.213
-292.662	800.000	0.024	0.090
-291.647	-200.000	-0.004	0.121
-290.632	-101.081	-0.309	0.076
-289.618	-200.000	-0.005	-0.097
-288.603	-44.716	0.412	0.207
-287.589	68.809	-0.248	0.256
-286.574	1.915	-0.201	0.146
-285.559	90.277	-0.181	0.203
-284.545	-62.878	0.101	-0.042
-283.530	800.000	-0.076	-0.232
-282.516	296.011	-0.053	0.097
-281.501	262.907	0.094	0.164
-280.486	-200.000	0.006	0.154
-279.472	-200.000	0.079	-0.393
-278.457	-63.734	-0.045	0.019
-277.443	-36.455	0.222	0.120
-276.428	623.918	-0.114	-0.290
-275.413	-1.650	-0.126	0.089
-274.399	-89.038	0.319	-0.095
-273.384	-114.420	-0.253	-0.049
-272.370	490.625	0.162	0.372
-271.355	-169.212	-0.076	0.003
-270.340	356.745	-0.096	-0.193
-269.326	-0.969	-0.120	-0.085
-268.311	-2.750	-0.207	-0.145
-267.297	-200.000	0.046	0.357
-266.282	340.880	-0.113	0.222
-265.267	-56.570	-0.121	0.054
-264.253	54.681	-0.072	0.069
-263.238	120.696	0.182	-0.227
-262.224	172.967	0.162	-0.234
-261.209	375.843	0.071	-0.146
-260.195	-82.098	-0.406	-0.133
-259.180	8.569	-0.207	0.156
-258.165	80.452	-0.193	0.209
-257.151	-121.379	-0.398	-0.067
-256.136	-200.000	-0.150	-0.001
-255.122	-200.000	0.030	0.406
-254.107	-200.000	0.013	0.084
-253.092	1.019	0.181	0.131
-252.078	-153.821	-0.093	0.006
-251.063	-151.126	0.203	0.015
-250.049	-122.436	-0.164	0.027
-249.034	256.894	-0.090	-0.156
-248.019	-200.000	-0.015	-0.241
-247.005	800.000	-0.051	-0.171
-245.990	-130.407	-0.152	0.021
-244.976	-78.391	-0.224	-0.077
-243.961	-55.701	-0.225	-0.101
-242.946	-200.000	0.020	0.160
-241.932	800.000	-0.024	-0.079
-240.917	800.000	0.061	-0.176
-239.903	238.729	0.075	0.126
-238.888	-99.841	-0.015	0.004
-237.873	29.054	-0.061	-0.052
-236.859	-104.285	-0.415	0.097
-235.844	165.251	0.179	0.253
-234.830	-112.986	0.190	0.038
-233.815	-142.612	-0.054	-0.005
-232.800	487.218	-0.079	0.180
-231.786	-104.572	0.375	0.087
-230.771	-85.348	-0.018	-0.006
-229.757	-200.000	-0.061	0.303
-228.742	-132.631	-0.298	-0.038
-227.727	395.630	-0.073	-0.152
-226.713	-200.000	-0.056	0.258
-225.698	-200.000	0.009	-0.288
-224.684	-118.693	0.227	0.040
-223.669	-66.216	-0.226	0.090
-222.655	120.997	0.327	0.407
-221.640	615.279	0.095	-0.239
-220.625	800.000	0.043	-0.185
-219.611	-94.188	-0.484	-0.133
-218.596	79.534	0.052	-0.056
-217.582	236.663	0.079	-0.132
-216.567	-113.676	0.312	0.061
-215.552	-77.766	-0.064	0.022
-214.538	7.311	-0.140	-0.104
-213.523	253.455	0.117	-0.201
-212.509	199.123	-0.136	0.209
-211.494	-159.988	-0.307	0.017
-210.479	-100.591	0.114	0.028
-209.465	800.000	-0.055	0.238
-208.450	76.620	-0.226	0.240
-207.436	-76.936	0.088	0.031
-206.421	30.691	0.098	-0.084
-205.406	48.431	0.189	-0.178
-204.392	-0.238	0.208	0.148
-203.377	286.012	0.117	-0.211
-202.363	533.552	-0.058	-0.138
-201.348	328.987	0.096	0.184
-200.333	-200.000	0.015	0.236
-199.319	-200.000	0.039	-0.201
-198.304	-137.008	-0.366	-0.042
-197.290	-68.464	-0.202	0.079
-196.275	32.016	0.235	0.203
-195.260	28.200	0.090	0.076
-194.246	-200.000	-0.025	0.272
-193.231	236.842	-0.121	0.201
-192.217	0.406	-0.095	0.068
-191.202	-200.000	-0.025	-0.140
-190.187	-146.192	-0.202	0.018
-189.173	-82.452	-0.115	0.037
-188.158	-55.956	0.166	0.074
-187.144	800.000	0.076	-0.274
-186.129	-48.567	-0.042	-0.020
-185.114	7.113	0.233	0.174
-184.100	-127.976	-0.219	0.031
-183.085	-7.385	-0.267	-0.181
-182.071	-200.000	0.030	-0.239
-181.056	-102.591	0.112	0.027
-180.042	-104.982	0.416	-0.095
-179.027	-62.534	0.296	-0.123
-178.012	113.088	0.082	0.099
-176.998	-146.452	0.031	0.003
-175.983	-200.000	0.002	-0.576
-174.969	-81.348	-0.354	-0.117
-173.954	135.932	0.285	0.372
-172.939	106.675	0.258	0.306
-171.925	-200.000	0.030	-0.365
-170.910	-200.000	-0.021	-0.188
-169.896	-190.146	0.080	-0.001
-168.881	-31.381	-0.143	-0.081
-167.866	32.909	-0.128	0.111
-166.852	-200.000	0.043	0.246
-165.837	142.159	-0.188	-0.250
-164.823	22.693	0.235	0.192
-163.808	-93.309	-0.105	0.029
-162.793	-200.000	0.157	-0.000
-161.779	-200.000	-0.011	0.061
-160.764	-200.000	0.006	0.135
-159.750	228.193	-0.037	-0.061
-158.735	-200.000	0.051	0.448
-157.720	-72.010	0.411	0.153
-156.706	800.000	0.073	-0.236
-155.691	-10.346	0.276	-0.183
-154.677	-20.238	0.125	0.077
-153.662	800.000	0.114	-0.317
-152.647	109.763	-0.060	0.071
-151.633	166.123	0.132	0.187
-150.618	-115.817	0.016	0.003
-149.604	67.099	-0.051	-0.052
-148.589	292.074	0.124	-0.227
-147.574	12.014	-0.034	0.026
-146.560	-200.000	-0.021	-0.199
-145.545	718.951	-0.029	0.077
-144.531	-200.000	0.003	0.119
-143.516	-18.628	0.165	-0.103
-142.502	384.037	0.071	0.146
-141.487	81.735	0.248	0.268
-140.472	-86.501	-0.067	0.020
-139.458	99.745	-0.059	-0.068
-138.443	-101.896	0.337	0.081
-137.429	198.929	-0.089	0.136
-136.414	-126.060	-0.129	-0.019
-135.399	-200.000	0.038	0.198
-134.385	49.029	0.307	-0.288
-133.370	-140.894	-0.225	-0.023
-132.356	-200.000	0.022	-0.100
-131.341	-62.643	0.177	-0.073
-130.326	-200.000	0.002	0.035
-129.312	-115.537	-0.151	0.028
-128.297	174.529	-0.065	0.094
-127.283	288.720	0.101	0.183
-126.268	-39.040	-0.395	0.208
-125.253	68.214	-0.114	0.116
-124.239	192.962	-0.168	-0.254
-123.224	-75.683	-0.039	-0.014
-122.210	-162.158	-0.039	0.002
-121.195	217.666	0.159	0.254
-120.180	-72.287	0.124	-0.046
-119.166	213.347	0.180	-0.284
-118.151	127.210	0.051	-0.065
-117.137	-34.150	-0.214	-0.118
-116.122	394.020	0.182	-0.379
-115.107	800.000	0.054	-0.213
-114.093	199.200	0.090	0.138
-113.078	113.993	-0.112	-0.136
-112.064	-200.000	0.027	0.346
-111.049	159.215	0.145	0.202
-110.034	-200.000	-0.024	-0.247
-109.020	-80.341	-0.157	-0.052
-108.005	444.877	-0.221	-0.485
-106.991	-127.709	0.130	0.019
-105.976	311.280	-0.276	0.517
-104.962	139.547	-0.308	-0.405
-103.947	-3.607	0.029	0.020
-102.932	800.000	-0.071	-0.214
-101.918	255.018	-0.084	0.144
-100.903	547.240	-0.156	0.374
-99.889	80.736	-0.141	0.151
-98.874	800.000	-0.075	-0.208
-97.859	96.678	0.135	0.154
-96.845	-143.473	-0.256	-0.024
-95.830	-181.931	0.312	-0.006
-94.816	-169.063	0.136	-0.005
-93.801	-141.844	-0.097	0.010
-92.786	38.391	-0.082	0.073
-91.772	22.753	0.108	-0.088
-90.757	-104.940	0.029	-0.007
-89.743	800.000	-0.076	0.246
-88.728	-3.245	0.359	0.249
-87.713	800.000	0.054	-0.211
-86.699	-3.437	0.137	0.095
-85.684	-108.776	0.076	-0.016
-84.670	-94.588	-0.251	0.068
-83.655	800.000	-0.115	-0.345
-82.640	-189.783	0.222	0.003
-81.626	117.416	-0.091	-0.111
-80.611	800.000	-0.009	-0.028
-79.597	-9.287	-0.326	0.217
-78.582	-26.055	-0.027	-0.016
-77.567	-22.831	0.220	-0.132
-76.553	6.358	-0.125	0.093
-75.538	-200.000	0.040	-0.235
-74.524	93.814	-0.083	0.094
-73.509	402.818	0.114	-0.238
-72.494	-107.941	0.199	0.043
-71.480	-200.000	-0.004	-0.380
-70.465	-172.053	0.101	0.003
-69.451	3.409	-0.286	-0.208
-68.436	-99.969	0.186	-0.046
-67.422	167.867	0.085	-0.121
-66.407	-200.000	0.012	-0.201
-65.392	-109.939	-0.248	0.052
-64.378	89.712	-0.096	-0.107
-63.363	312.948	0.118	-0.220
-62.349	800.000	-0.035	0.147
-61.334	80.481	-0.617	-0.662
-60.319	9.464	0.238	0.179
-59.305	800.000	-0.294	-0.831
-58.290	268.681	0.398	0.695
-57.276	224.809	1.142	1.840
-56.261	-200.000	75.436	527.935
-55.246	554.669	1308.716	3136.304
-54.232	145.187	2554.998	3405.081
-53.217	112.695	2354.837	2839.876
-52.203	51.618	1970.203	1865.492
-51.188	45.481	1757.214	1615.513
-50.173	42.438	1711.492	1549.960
-49.159	56.718	1745.882	1692.411
-48.144	62.466	1763.896	1754.431
-47.130	45.198	1727.610	1585.846
-46.115	41.966	1713.800	1548.157
-45.100	41.825	1709.087	1542.748
-44.086	41.782	1706.465	1539.988
-43.071	41.776	1703.587	1537.289
-42.057	41.685	1701.578	1534.714
-41.042	41.780	1699.231	1533.267
-40.027	41.822	1697.418	1531.887
-39.013	41.876	1694.850	1529.920
-37.998	41.810	1693.541	1528.178
-36.984	41.866	1691.846	1527.014
-35.969	41.981	1690.094	1526.249
-34.954	42.031	1688.880	1525.475
-33.940	41.906	1686.966	1522.735
-32.925	42.022	1684.436	1521.267
-31.911	42.001	1682.968	1519.723
-30.896	41.899	1681.311	1517.398
-29.881	41.918	1679.662	1515.992
-28.867	41.948	1677.926	1514.589
-27.852	41.896	1676.711	1513.042
-26.838	41.883	1675.129	1511.456
-25.823	41.953	1672.826	1509.841
-24.809	41.947	1671.754	1508.771
-23.794	41.882	1670.248	1506.865
-22.779	41.905	1668.529	1505.426
-21.765	41.980	1666.948	1504.501
-20.750	41.829	1665.546	1502.044
-19.736	42.078	1663.493	1502.001
-18.721	41.968	1662.341	1500.076
-17.706	41.988	1660.795	1498.775
-16.692	41.944	1659.165	1496.909
-15.677	41.885	1657.977	1495.342
-14.663	41.937	1656.794	1494.603
-13.648	41.954	1655.003	1493.053
-12.633	41.926	1654.216	1492.075
-11.619	41.973	1652.112	1490.469
-10.604	41.981	1650.599	1489.101
-9.590	41.998	1649.376	1488.065
-8.575	41.978	1647.978	1486.596
-7.560	42.019	1646.517	1485.527
-6.546	41.993	1645.407	1484.270
-5.531	41.972	1644.082	1482.863
-4.517	41.915	1643.052	1481.456
-3.502	41.882	1642.363	1480.532
-2.487	41.961	1640.353	1479.243
-1.473	41.816	1629.229	1468.089
-0.458	39.360	1609.099	1432.052
0.556	34.392	1608.045	1396.375
1.571	31.875	1632.299	1398.567
2.586	31.025	1647.449	1405.018
3.600	27.297	1592.871	1331.132
4.615	14.886	1470.466	1144.333
5.629	3.253	1394.226	1009.023
6.644	1.022	1383.751	986.832
7.659	0.838	1381.646	984.047
8.673	0.802	1380.603	982.984
9.688	0.709	1379.603	981.583
10.702	0.438	1376.554	977.572
11.717	4.717	1385.749	1011.886
12.731	16.625	1408.611	1106.803
13.746	24.165	1421.967	1166.784
14.761	24.426	1420.722	1167.367
15.775	24.306	1419.837	1165.750
16.790	24.435	1419.160	1165.937
17.804	24.519	1418.320	1165.691
18.819	24.665	1418.545	1166.725
19.834	24.750	1417.753	1166.526
20.848	24.681	1416.858	1165.237
21.863	24.669	1416.080	1164.412
22.877	24.743	1414.873	1163.798
23.892	24.712	1413.804	1162.618
24.907	24.695	1413.290	1161.982
25.921	24.655	1412.553	1161.012
26.936	24.744	1411.290	1160.449
27.950	24.701	1410.203	1159.172
28.965	24.780	1408.825	1158.453
29.980	24.664	1407.785	1156.740
30.994	24.811	1406.028	1156.149
32.009	24.672	1405.113	1154.395
33.023	24.724	1403.968	1153.685
34.038	24.756	1402.781	1152.812
35.053	24.719	1401.891	1151.741
36.067	24.769	1400.660	1150.953
37.082	24.632	1400.026	1149.446
38.096	24.769	1398.810	1149.230
39.111	24.703	1398.289	1148.273
40.126	24.779	1397.415	1147.940
41.140	24.592	1397.040	1146.331
42.155	24.748	1396.594	1146.869
43.169	24.728	1396.443	1146.511
44.184	24.663	1396.415	1145.974
45.199	24.659	1396.173	1145.644
46.213	24.705	1395.069	1144.933
47.228	24.712	1394.088	1144.074
48.242	24.717	1392.892	1143.024
49.257	24.641	1391.920	1141.639
50.271	24.763	1389.881	1140.643
51.286	24.718	1388.735	1139.315
52.301	24.697	1387.667	1138.203
53.315	24.656	1387.142	1137.407
54.330	24.764	1385.788	1136.884
55.344	24.777	1384.647	1135.932
56.359	24.725	1383.630	1134.668
57.374	24.663	1382.956	1133.619
58.388	24.783	1381.516	1133.099
59.403	24.724	1382.049	1133.061
60.417	24.686	1381.080	1131.928
61.432	24.603	1380.339	1130.697
62.447	24.801	1379.387	1131.067
63.461	24.782	1378.141	1129.828
64.476	24.689	1377.762	1128.826
65.490	24.697	1376.160	1127.464
66.505	24.742	1374.431	1126.233
67.520	24.679	1373.573	1125.037
68.534	24.833	1372.398	1124.942
69.549	24.770	1371.570	1123.766
70.563	24.790	1370.564	1122.968
71.578	24.787	1369.350	1121.857
72.593	24.750	1368.428	1120.767
73.607	24.786	1367.890	1120.454
74.622	24.736	1367.364	1119.613
75.636	24.809	1366.473	1119.239
76.651	24.694	1366.196	1118.193
77.666	24.698	1365.395	1117.462
78.680	24.744	1364.811	1117.174
79.695	24.779	1363.922	1116.565
80.709	24.774	1362.865	1115.570
81.724	24.709	1362.387	1114.677
82.739	24.617	1361.489	1113.267
83.753	24.651	1360.624	1112.678
84.768	24.780	1358.851	1111.929
85.782	24.690	1358.591	1111.058
86.797	24.767	1356.611	1109.819
87.812	24.705	1355.459	1108.395
88.826	24.773	1354.585	1108.001
89.841	24.769	1353.784	1107.224
90.855	24.814	1352.448	1106.315
91.870	24.835	1351.491	1105.563
92.884	24.835	1350.994	1105.056
93.899	24.881	1349.864	1104.321
94.914	24.786	1349.187	1103.079
95.928	24.795	1348.567	1102.535
96.943	24.794	1347.895	1101.880
97.957	24.843	1346.858	1101.234
98.972	24.735	1345.743	1099.564
99.987	24.781	1344.310	1098.578
101.001	24.724	1344.279	1098.103
102.016	24.808	1342.990	1097.469
103.030	24.779	1341.870	1096.279
104.045	24.664	1341.847	1095.459
105.060	24.778	1340.571	1095.021
106.074	24.826	1339.516	1094.355
107.089	24.771	1338.528	1093.113
108.103	24.867	1336.993	1092.350
109.118	24.904	1335.927	1091.606
110.133	24.929	1334.939	1090.856
111.147	24.711	1334.274	1088.886
112.162	24.789	1333.040	1088.260
113.176	24.905	1331.626	1087.715
114.191	24.862	1330.772	1086.657
115.206	24.822	1330.012	1085.698
116.220	24.873	1328.621	1084.777
117.235	24.825	1327.465	1083.447
118.249	24.838	1327.140	1083.161
119.264	24.882	1325.981	1082.385
120.279	24.852	1325.229	1081.499
121.293	24.858	1324.616	1080.935
122.308	24.941	1323.253	1080.232
123.322	24.904	1322.889	1079.615
124.337	24.951	1321.967	1079.050
125.352	24.898	1320.769	1077.659
126.366	24.899	1320.112	1077.033
127.381	24.949	1319.041	1076.361
128.395	24.919	1318.528	1075.670
129.410	24.885	1317.949	1074.896
130.424	24.919	1316.864	1074.122
131.439	24.989	1315.952	1073.700
132.454	24.938	1314.839	1072.393
133.468	24.885	1314.788	1071.939
134.483	24.896	1314.181	1071.415
135.497	24.869	1313.446	1070.558
136.512	24.900	1312.475	1069.859
137.527	24.954	1311.034	1068.911
138.541	24.957	1309.339	1067.450
139.556	24.934	1308.369	1066.428
140.570	24.933	1307.700	1065.786
141.585	24.921	1306.130	1064.339
142.600	24.949	1305.237	1063.684
143.614	24.934	1304.504	1062.906
144.629	24.842	1303.660	1061.579
145.643	24.845	1302.333	1060.420
146.658	24.807	1301.447	1059.379
147.673	24.888	1300.219	1058.767
148.687	24.994	1299.051	1058.348
149.702	24.820	1298.269	1056.590
150.716	24.861	1296.831	1055.568
151.731	24.889	1295.746	1054.756
152.746	24.843	1295.179	1053.932
153.760	24.910	1293.819	1053.121
154.775	24.868	1293.019	1052.134
155.789	24.875	1292.014	1051.265
156.804	24.910	1290.868	1050.440
157.819	24.919	1290.058	1049.746
158.833	24.882	1289.821	1049.241
159.848	24.975	1288.512	1048.625
160.862	24.959	1287.838	1047.891
161.877	24.894	1287.046	1046.779
162.892	24.930	1285.988	1046.031
163.906	24.950	1285.336	1045.526
164.921	24.933	1285.234	1045.252
165.935	25.028	1283.841	1044.581
166.950	25.009	1283.251	1043.897
167.964	24.912	1282.811	1042.883
168.979	24.910	1282.638	1042.637
169.994	25.038	1281.388	1042.274
171.008	25.027	1280.792	1041.632
172.023	24.897	1280.161	1040.274
173.037	25.033	1279.005	1040.031
174.052	24.917	1278.307	1038.700
175.067	24.981	1277.479	1038.304
176.081	24.951	1276.849	1037.524
177.096	24.953	1276.187	1036.908
178.110	24.965	1274.874	1035.818
179.125	24.991	1274.067	1035.222
180.140	24.942	1273.222	1034.158
181.154	25.038	1271.720	1033.402
182.169	25.083	1270.545	1032.616
183.183	24.995	1269.919	1031.509
184.198	25.088	1268.567	1030.855
185.213	25.130	1267.541	1030.173
186.227	24.990	1267.204	1029.000
187.242	25.142	1266.159	1028.935
188.256	25.116	1265.027	1027.774
189.271	25.097	1264.100	1026.821
190.286	25.067	1263.726	1026.254
191.300	25.051	1262.893	1025.395
192.315	25.053	1262.791	1025.234
193.329	25.133	1261.964	1024.927
194.344	25.125	1261.463	1024.385
195.359	25.093	1261.398	1024.061
196.373	25.025	1260.815	1023.110
197.388	25.017	1260.173	1022.451
198.402	24.959	1260.085	1021.955
199.417	25.013	1259.505	1021.702
200.432	25.111	1258.892	1021.673
201.446	25.031	1258.336	1020.678
202.461	25.077	1257.323	1020.029
203.475	25.075	1256.514	1019.272
204.490	25.115	1255.478	1018.567
205.504	25.248	1254.318	1018.293
206.519	25.216	1253.458	1017.318
207.534	25.216	1252.396	1016.366
208.548	25.206	1251.734	1015.682
209.563	25.129	1251.001	1014.566
210.577	25.194	1250.363	1014.326
211.592	25.239	1249.608	1013.878
212.607	25.205	1248.667	1012.829
213.621	25.140	1247.984	1011.823
214.636	25.193	1247.044	1011.268
215.650	25.198	1246.171	1010.499
216.665	25.218	1245.065	1009.628
217.680	25.162	1244.499	1008.760
218.694	25.237	1243.354	1008.165
219.709	25.134	1242.839	1007.078
220.723	25.222	1242.052	1006.846
221.738	25.215	1241.072	1005.926
222.753	25.188	1241.058	1005.673
223.767	25.235	1240.148	1005.111
224.782	25.278	1239.927	1005.082
225.796	25.299	1239.344	1004.639
226.811	25.300	1238.702	1004.038
227.826	25.385	1237.843	1003.723
228.840	25.396	1236.931	1002.961
229.855	25.368	1236.207	1002.128
230.869	25.379	1235.621	1001.622
231.884	25.360	1235.036	1000.956
232.899	25.292	1234.397	999.970
233.913	25.332	1233.961	999.752
234.928	25.343	1233.346	999.226
235.942	25.416	1232.935	999.212
236.957	25.308	1231.906	997.688
237.972	25.278	1231.684	997.251
238.986	25.394	1230.348	996.725
240.001	25.408	1229.935	996.383
241.015	25.492	1229.220	996.180
242.030	25.451	1228.268	995.093
243.045	25.451	1227.460	994.349
244.059	25.448	1226.830	993.738
245.074	25.495	1226.338	993.507
246.088	25.582	1225.006	992.823
247.103	25.582	1224.462	992.296
248.117	25.439	1223.956	991.005
249.132	25.414	1223.203	990.172
250.147	25.474	1222.516	989.860
251.161	25.601	1221.636	989.757
252.176	25.538	1220.717	988.577
253.190	25.557	1220.417	988.351
254.205	25.606	1219.713	987.965
255.220	25.633	1218.730	987.229
256.234	25.554	1218.670	986.660
257.249	25.588	1217.887	986.125
258.263	25.575	1217.255	985.456
259.278	25.565	1216.824	984.965
260.293	25.573	1216.031	984.276
261.307	25.578	1215.760	983.997
262.322	25.541	1215.275	983.315
263.336	25.520	1214.383	982.393
264.351	25.657	1213.688	982.495
265.366	25.635	1212.515	981.337
266.380	25.622	1212.378	981.066
267.395	25.655	1211.384	980.356
268.409	25.447	1211.347	979.107
269.424	25.616	1210.714	979.426
270.439	25.630	1210.159	978.966
271.453	25.624	1209.604	978.402
272.468	25.607	1208.258	977.133
273.482	25.653	1207.787	976.914
274.497	25.705	1207.644	976.994
275.512	25.781	1206.789	976.627
276.526	25.704	1206.146	975.603
277.541	25.713	1205.130	974.747
278.555	25.741	1204.517	974.315
279.570	25.690	1204.062	973.583
280.585	25.790	1203.217	973.355
281.599	25.732	1202.256	972.179
282.614	25.734	1201.216	971.265
283.628	25.749	1200.200	970.437
284.643	25.786	1199.730	970.169
285.657	25.824	1198.834	969.566
286.672	25.789	1198.017	968.632
287.687	25.791	1196.804	967.576
288.701	25.799	1196.502	967.288
289.716	25.846	1196.237	967.239
290.730	25.899	1195.391	966.753
291.745	25.879	1194.365	965.731
292.760	25.875	1194.420	965.671
293.774	25.959	1193.539	965.319
294.789	25.957	1192.812	964.637
295.803	25.888	1192.434	963.879
296.818	25.932	1191.733	963.461
297.833	25.934	1191.203	962.955
298.847	25.969	1190.204	962.251
299.862	25.913	1189.269	961.114
300.876	25.997	1188.446	960.810
301.891	25.943	1188.234	960.266
302.906	26.002	1187.683	960.050
303.920	26.094	1186.675	959.638
304.935	26.030	1186.465	959.043
305.949	26.033	1185.627	958.298
306.964	26.115	1184.887	958.047
307.979	26.045	1184.296	957.113
308.993	26.073	1183.679	956.683
310.008	26.046	1183.092	955.977
311.022	26.115	1182.066	955.432
312.037	26.147	1181.210	954.821
313.052	26.087	1180.556	953.890
314.066	26.099	1179.535	953.047
315.081	26.122	1178.690	952.402
316.095	26.098	1178.065	951.683
317.110	26.092	1177.860	951.405
318.125	26.196	1176.985	951.160
319.139	26.075	1176.685	950.197
320.154	26.114	1175.908	949.692
321.168	26.153	1175.327	949.341
322.183	26.065	1174.953	948.495
323.197	26.096	1174.094	947.879
324.212	26.192	1173.369	947.713
325.227	26.274	1173.060	947.808
326.241	26.252	1172.693	947.314
327.256	26.281	1171.356	946.304
328.270	26.137	1170.824	945.033
329.285	26.218	1170.268	944.925
330.300	26.241	1169.313	944.190
331.314	26.189	1168.479	943.165
332.329	26.304	1167.320	942.744
333.343	26.356	1166.804	942.516
334.358	26.284	1166.334	941.674
335.373	26.253	1165.639	940.871
336.387	26.259	1165.146	940.420
337.402	26.347	1164.032	939.896
338.416	26.403	1163.294	939.510
339.431	26.342	1162.967	938.842
340.446	26.357	1162.491	938.454
341.460	26.371	1161.739	937.836
342.475	26.469	1160.763	937.475
343.489	26.407	1160.040	936.483
344.504	26.419	1159.097	935.705
345.519	26.401	1158.135	934.754
346.533	26.503	1157.380	934.586
347.548	26.494	1156.540	933.779
348.562	26.467	1155.870	933.015
349.577	26.472	1155.292	932.490
350.592	26.350	1154.433	931.090
351.606	26.361	1153.883	930.619
352.621	26.427	1153.156	930.288
353.635	26.567	1152.270	930.214
354.650	26.601	1151.952	930.049
355.665	26.579	1151.519	929.504
356.679	26.487	1150.730	928.310
357.694	26.592	1150.106	928.266
358.708	26.537	1149.090	927.081
359.723	26.600	1148.649	926.964
360.738	26.445	1148.256	925.771
361.752	26.524	1147.805	925.732
362.767	26.575	1147.151	925.382
363.781	26.611	1146.530	924.983
364.796	26.570	1146.057	924.311
365.810	26.645	1145.467	924.137
366.825	26.666	1145.008	923.793
367.840	26.750	1144.361	923.618
368.854	26.718	1143.532	922.703
369.869	26.603	1142.897	921.524
370.883	26.802	1141.794	921.562
371.898	26.789	1141.151	920.898
372.913	26.625	1140.864	919.753
373.927	26.747	1140.283	919.820
374.942	26.809	1139.703	919.583
375.956	26.735	1139.415	918.897
376.971	26.649	1138.934	917.994
377.986	26.651	1138.398	917.488
379.000	26.830	1137.638	917.698
380.015	26.813	1136.907	916.944
381.029	26.888	1136.057	916.558
382.044	26.811	1135.548	915.676
383.059	26.911	1135.088	915.729
384.073	26.908	1134.198	914.915
385.088	26.856	1133.319	913.864
386.102	26.953	1132.260	913.416
387.117	26.956	1131.773	912.957
388.132	27.026	1130.356	912.086
389.146	26.938	1129.989	911.265
390.161	27.098	1129.314	911.444
391.175	26.884	1128.910	909.964
392.190	26.899	1128.342	909.503
393.205	26.985	1127.490	909.162
394.219	26.986	1126.938	908.642
395.234	26.960	1126.012	907.685
396.248	26.903	1125.463	906.878
397.263	26.977	1124.406	906.315
398.278	27.020	1123.676	905.865
399.292	26.992	1123.208	905.267
400.307	27.141	1122.531	905.382
401.321	27.102	1121.861	904.565
402.336	26.984	1121.495	903.606
403.350	27.132	1120.622	903.560
404.365	27.062	1119.931	902.574
405.380	27.191	1118.754	902.183
406.394	27.117	1118.721	901.711
407.409	27.113	1117.592	900.703
408.423	27.173	1117.184	900.592
409.438	27.266	1116.124	900.117
410.453	27.258	1115.713	899.666
411.467	27.174	1114.624	898.292
412.482	27.229	1114.456	898.348
413.496	27.193	1113.464	897.291
414.511	27.166	1112.828	896.569
415.526	27.233	1112.413	896.484
416.540	27.309	1112.207	896.613
417.555	27.404	1111.303	896.275
418.569	27.305	1110.780	895.284
419.584	27.326	1110.468	895.059
420.599	27.293	1110.438	894.792
421.613	84.281	1294.251	1356.971
422.628	79.139	1321.006	1357.123
