DTS Sentinel unit serial number:	SN413079Multiplexer serial number:	ORYXHardware model number:	OX4-SRSoftware version number:	ORYX F/W v4.00 Oryx Data Collector v3.7.2.0data status	okinstallation	princeton_trtdifferential loss correction	single-endedforward channel	channel 2reverse channel	N/Adate	2019/09/12time	19:34:48forward acquisition time	15.00reverse acquisition time	0.00gamma	496.2192k internal	0.2327k external	0.2327temperature offset calibration	1.0151default loss term (dB/km)	0.3790temperature slope calibration	1.0000multiplexer offset coefficient	1.0000multiplexer slope coefficient	1.0000fibre end	0.00T internal ref (°C)	32.19T ext. ref 1 (°C)	3.35T ext. ref 2 (°C)	26.71length (m)	temperature (°C)	Stokes	anti-Stokes-747.200	559.139	0.079	-0.192
-746.185	47.368	-0.744	0.699
-745.171	53.807	0.265	-0.257
-744.156	800.000	-0.137	-0.500
-743.142	-151.505	-0.629	0.047
-742.127	-79.242	-0.436	0.149
-741.112	-151.807	0.521	0.039
-740.098	-177.451	-0.284	-0.007
-739.083	-52.569	0.713	0.332
-738.069	-200.000	-0.043	0.362
-737.054	134.712	0.112	-0.146
-736.039	800.000	-0.353	-1.192
-735.025	162.677	0.400	-0.566
-734.010	-66.886	0.133	0.053
-732.996	21.952	0.317	0.261
-731.981	121.479	-0.352	-0.442
-730.966	-200.000	-0.054	-0.315
-729.952	114.319	-0.164	-0.201
-728.937	-72.347	-0.148	0.055
-727.923	-6.241	0.158	-0.109
-726.908	677.258	-0.232	0.608
-725.894	-126.956	0.266	0.039
-724.879	287.968	-0.344	-0.627
-723.864	-113.353	-0.106	0.021
-722.850	285.191	-0.077	0.140
-721.835	86.866	-0.442	-0.492
-720.821	-120.638	0.428	-0.073
-719.806	705.638	-0.425	-1.131
-718.791	302.012	0.174	-0.324
-717.777	696.231	0.189	0.500
-716.762	-84.547	-0.506	0.161
-715.748	99.307	0.569	0.663
-714.733	-128.015	-0.396	0.057
-713.718	-200.000	0.031	-0.463
-712.704	-112.083	-0.614	-0.124
-711.689	-182.293	-0.240	-0.005
-710.675	-5.842	0.281	-0.193
-709.660	-103.852	-0.190	-0.045
-708.645	-21.106	-0.909	0.560
-707.631	87.994	0.393	-0.439
-706.616	696.825	0.190	-0.503
-705.602	-50.821	-0.868	-0.411
-704.587	-19.036	-0.613	-0.384
-703.572	800.000	0.435	-1.210
-702.558	152.685	-0.221	-0.304
-701.543	131.073	0.241	-0.312
-700.529	-98.521	-0.260	0.067
-699.514	-132.074	-0.591	-0.077
-698.499	-200.000	-0.010	-0.428
-697.485	-200.000	0.013	-0.268
-696.470	765.364	-0.289	-0.791
-695.456	12.682	-0.132	0.103
-694.441	503.405	0.199	-0.463
-693.426	-200.000	0.110	-0.540
-692.412	82.129	-0.943	-1.028
-691.397	759.195	-0.169	-0.460
-690.383	20.961	0.794	0.648
-689.368	202.618	0.301	0.468
-688.354	-200.000	-0.091	0.606
-687.339	800.000	0.127	0.416
-686.324	-142.439	-0.657	-0.065
-685.310	-60.042	-0.460	-0.198
-684.295	-56.109	0.269	-0.121
-683.281	-3.277	0.434	0.304
-682.266	-200.000	-0.045	0.314
-681.251	-20.972	-0.790	0.486
-680.237	-35.422	-0.430	-0.235
-679.222	443.904	0.310	0.684
-678.208	-23.042	-0.656	0.398
-677.193	-151.453	0.146	0.011
-676.178	-55.012	-0.126	-0.057
-675.164	-46.622	0.166	0.082
-674.149	-120.652	-0.503	0.086
-673.135	800.000	-0.125	-0.359
-672.120	155.322	0.189	0.261
-671.105	-136.753	-0.681	-0.079
-670.091	-200.000	0.081	-0.517
-669.076	375.018	0.065	0.134
-668.062	-200.000	0.080	-0.543
-667.047	253.939	0.108	0.186
-666.032	103.234	0.456	-0.538
-665.018	223.302	0.302	-0.489
-664.003	38.410	0.520	-0.466
-662.989	-5.977	0.392	0.270
-661.974	437.337	-0.318	-0.696
-660.959	-132.479	0.250	0.032
-659.945	108.194	0.344	0.412
-658.930	-59.319	0.643	-0.278
-657.916	-10.746	-0.705	-0.468
-656.901	129.043	-0.268	0.343
-655.886	-163.207	0.558	0.027
-654.872	-25.478	0.483	0.287
-653.857	-200.000	0.026	-0.437
-652.843	332.651	-0.183	0.356
-651.828	313.841	0.416	-0.786
-650.814	-105.046	0.496	0.114
-649.799	400.406	0.156	-0.330
-648.784	112.450	-0.350	-0.426
-647.770	2.752	-0.639	-0.465
-646.755	-131.175	0.862	0.115
-645.741	-135.010	0.195	-0.024
-644.726	-200.000	0.105	-0.478
-643.711	312.369	-0.301	0.569
-642.697	104.629	0.532	0.629
-641.682	-27.239	0.630	0.368
-640.668	800.000	0.240	-0.835
-639.653	-97.865	0.305	-0.079
-638.638	179.209	-0.092	-0.135
-637.624	17.140	-0.573	-0.456
-636.609	-86.579	0.331	0.102
-635.595	80.762	0.947	1.025
-634.580	-142.055	-0.629	-0.063
-633.565	-200.000	-0.032	0.826
-632.551	800.000	-0.099	0.419
-631.536	-60.765	0.500	0.213
-630.522	-142.854	0.628	-0.061
-629.507	376.243	0.278	0.570
-628.492	-26.488	-0.183	-0.108
-627.478	-200.000	0.003	0.086
-626.463	-200.000	0.070	0.576
-625.449	391.452	-0.151	0.316
-624.434	-65.774	-0.486	-0.195
-623.419	-43.360	-0.580	-0.294
-622.405	24.138	0.216	0.179
-621.390	436.066	-0.234	-0.512
-620.376	340.919	-0.161	0.316
-619.361	800.000	-0.129	-0.430
-618.346	-96.257	0.831	-0.221
-617.332	12.487	0.658	0.509
-616.317	800.000	-0.136	-0.461
-615.303	-200.000	0.089	-0.409
-614.288	-37.239	0.712	0.382
-613.273	64.159	0.543	-0.548
-612.259	800.000	0.088	0.253
-611.244	-200.000	-0.098	0.471
-610.230	800.000	0.275	-0.899
-609.215	-151.312	0.661	-0.050
-608.201	-10.122	0.405	0.269
-607.186	207.898	0.129	0.202
-606.171	-152.728	0.305	-0.022
-605.157	-200.000	-0.049	0.289
-604.142	96.382	0.088	0.101
-603.128	75.181	-0.542	-0.573
-602.113	57.391	0.498	0.488
-601.098	-50.513	0.553	-0.261
-600.084	102.762	0.353	-0.415
-599.069	-101.966	0.490	-0.119
-598.055	235.901	0.309	-0.512
-597.040	-24.207	-0.389	0.233
-596.025	113.741	0.612	0.746
-595.011	53.915	0.581	-0.560
-593.996	-179.607	0.337	0.007
-592.982	-87.843	-0.661	-0.200
-591.967	-200.000	-0.118	-0.764
-590.952	594.512	-0.233	-0.578
-589.938	-35.844	0.574	-0.311
-588.923	800.000	-0.061	0.223
-587.909	337.414	-0.159	0.310
-586.894	800.000	0.241	0.936
-585.879	800.000	0.073	-0.230
-584.865	-76.547	0.679	-0.239
-583.850	254.187	-0.039	-0.068
-582.836	-200.000	-0.079	1.312
-581.821	-110.190	-0.955	-0.200
-580.806	-200.000	-0.016	-0.239
-579.792	-200.000	0.080	-0.680
-578.777	-171.502	-0.587	-0.020
-577.763	-200.000	0.102	-0.900
-576.748	567.865	0.231	0.563
-575.733	-137.127	0.323	-0.037
-574.719	340.700	-0.059	-0.116
-573.704	284.835	0.182	-0.329
-572.690	-65.859	0.258	-0.104
-571.675	5.123	-0.450	0.332
-570.661	370.488	-0.400	-0.813
-569.646	-93.927	0.714	-0.197
-568.631	-200.000	-0.111	0.569
-567.617	649.285	-0.122	-0.313
-566.602	28.150	-0.254	-0.214
-565.588	87.118	0.402	-0.445
-564.573	-200.000	-0.121	-0.643
-563.558	-72.710	-0.235	-0.087
-562.544	-132.378	-0.649	0.084
-561.529	129.111	0.487	-0.622
-560.515	-91.390	0.121	-0.035
-559.500	-200.000	-0.037	-0.180
-558.485	800.000	-0.025	0.103
-557.471	-117.185	-0.521	0.095
-556.456	-91.103	0.343	-0.099
-555.442	-93.131	-0.377	-0.105
-554.427	158.929	-0.235	-0.327
-553.412	85.604	-0.280	-0.308
-552.398	-189.515	0.292	-0.003
-551.383	46.636	0.067	-0.063
-550.369	-146.079	-0.334	-0.030
-549.354	-2.545	-0.748	0.524
-548.339	383.942	-0.157	0.323
-547.325	130.911	-0.213	0.273
-546.310	-5.624	0.513	0.352
-545.296	-200.000	-0.116	-0.616
-544.281	-98.895	-0.468	0.119
-543.266	-105.608	-0.713	-0.162
-542.252	-122.131	-0.392	-0.064
-541.237	200.972	-0.169	0.260
-540.223	42.939	0.612	0.558
-539.208	-80.744	-0.349	-0.116
-538.193	-39.287	0.009	-0.005
-537.179	-100.334	-0.808	0.201
-536.164	622.720	-0.086	0.218
-535.150	800.000	-0.173	0.542
-534.135	-6.607	0.340	-0.232
-533.121	65.955	0.050	-0.051
-532.106	-47.430	0.270	0.131
-531.091	291.838	0.292	0.531
-530.077	45.769	-0.438	-0.405
-529.062	-170.967	-0.358	0.012
-528.048	-25.784	-0.356	0.210
-527.033	-57.810	0.713	-0.312
-526.018	-45.815	-0.282	-0.139
-525.004	179.471	-0.287	0.420
-523.989	27.661	0.140	0.118
-522.975	461.291	0.156	0.347
-521.960	154.546	-0.213	-0.293
-520.945	-200.000	-0.081	0.577
-519.931	-62.546	-0.496	0.206
-518.916	-157.619	-0.526	-0.031
-517.902	-200.000	-0.079	-0.867
-516.887	118.728	0.117	0.144
-515.872	417.839	-0.195	0.416
-514.858	26.292	0.233	0.194
-513.843	-98.831	-0.053	-0.013
-512.829	249.192	-0.530	-0.898
-511.814	169.705	0.104	0.148
-510.799	-200.000	0.044	0.296
-509.785	-200.000	0.020	-0.212
-508.770	-200.000	-0.112	-0.504
-507.756	-6.968	0.611	-0.415
-506.741	-15.555	0.216	0.138
-505.726	-58.526	-0.601	-0.261
-504.712	407.469	-0.407	0.860
-503.697	-85.472	-0.917	0.285
-502.683	22.177	-0.891	-0.726
-501.668	-194.739	0.846	0.007
-500.653	489.434	0.520	1.187
-499.639	108.827	0.354	0.423
-498.624	-200.000	-0.070	0.680
-497.610	-93.369	0.466	-0.129
-496.595	-200.000	-0.025	-0.132
-495.581	-35.677	-0.083	0.045
-494.566	48.561	0.131	-0.122
-493.551	-200.000	0.140	-0.616
-492.537	782.851	-0.437	-1.194
-491.522	270.694	0.384	0.674
-490.508	161.856	-0.258	0.361
-489.493	-69.614	0.513	0.196
-488.478	-200.000	0.095	-0.674
-487.464	172.843	0.396	0.570
-486.449	350.732	0.275	0.543
-485.435	-200.000	-0.035	0.760
-484.420	-57.461	-0.388	-0.170
-483.405	331.352	0.332	0.638
-482.391	-49.633	0.457	0.217
-481.376	-130.765	0.900	0.121
-480.362	-180.848	-0.548	-0.011
-479.347	-138.230	0.340	0.038
-478.332	44.424	-0.368	0.337
-477.318	4.371	0.533	-0.390
-476.303	-161.266	0.600	-0.031
-475.289	139.301	-0.397	-0.521
-474.274	-144.114	-0.467	-0.044
-473.259	73.433	-0.126	0.131
-472.245	-200.000	-0.132	-0.587
-471.230	627.463	0.145	-0.366
-470.216	765.924	0.310	0.841
-469.201	3.957	0.294	-0.215
-468.186	800.000	-0.053	0.215
-467.172	-24.580	0.643	-0.382
-466.157	-52.026	-0.293	-0.136
-465.143	284.664	-0.095	0.171
-464.128	-200.000	0.030	0.370
-463.113	50.302	-0.831	0.783
-462.099	-165.787	0.608	0.026
-461.084	-13.653	0.210	-0.135
-460.070	-200.000	-0.023	0.290
-459.055	-114.468	0.312	0.060
-458.040	-22.185	0.196	0.118
-457.026	-200.000	0.207	-0.910
-456.011	-123.650	-0.774	-0.122
-454.997	-63.674	-0.400	0.164
-453.982	-200.000	0.038	0.235
-452.968	122.473	0.576	0.718
-451.953	-3.695	-0.297	-0.206
-450.938	370.749	-0.052	-0.106
-449.924	-200.000	0.045	0.519
-448.909	411.427	-0.169	-0.358
-447.895	245.061	0.553	-0.927
-446.880	-200.000	-0.024	0.245
-445.865	9.557	0.160	0.121
-444.851	-4.781	-0.328	-0.225
-443.836	-133.797	-0.689	-0.086
-442.822	-200.000	-0.046	-0.697
-441.807	-89.871	-0.546	0.159
-440.792	73.350	0.259	0.270
-439.778	-153.712	0.125	-0.009
-438.763	36.051	0.556	0.487
-437.749	-16.761	-0.470	-0.296
-436.734	126.248	0.439	0.553
-435.719	128.671	-0.177	-0.224
-434.705	-135.852	-0.606	0.071
-433.690	760.754	-0.073	0.198
-432.676	27.324	0.391	0.327
-431.661	-100.505	-0.050	0.012
-430.646	800.000	-0.245	0.764
-429.632	-53.634	0.090	0.041
-428.617	10.526	0.380	-0.289
-427.603	4.133	0.794	-0.579
-426.588	704.841	-0.231	-0.606
-425.573	-36.440	-0.497	0.266
-424.559	121.370	0.104	0.129
-423.544	-200.000	0.015	0.789
-422.530	-44.417	-0.532	0.265
-421.515	-4.616	-0.363	-0.249
-420.500	428.439	0.280	-0.601
-419.486	5.814	0.640	0.472
-418.471	349.979	-0.104	-0.204
-417.457	-155.757	0.952	-0.061
-416.442	-48.105	-0.313	-0.150
-415.428	134.511	0.381	-0.492
-414.413	-200.000	0.114	0.618
-413.398	452.448	-0.415	-0.913
-412.384	-129.899	-0.745	-0.102
-411.369	-200.000	-0.100	0.576
-410.355	-61.311	-0.741	-0.310
-409.340	84.290	-0.554	0.603
-408.325	-151.320	0.607	0.045
-407.311	-11.159	-0.660	0.433
-406.296	19.963	0.755	0.606
-405.282	-74.841	0.518	-0.185
-404.267	43.268	-0.263	-0.239
-403.252	-161.208	-0.295	-0.015
-402.238	68.381	-1.127	-1.149
-401.223	611.796	-0.204	0.508
-400.209	20.129	-0.116	-0.093
-399.194	276.763	-0.367	0.649
-398.179	-145.207	-0.619	0.056
-397.165	162.842	0.740	-1.034
-396.150	52.336	0.902	0.856
-395.136	-125.787	1.493	0.224
-394.121	-200.000	-0.045	-0.313
-393.106	-200.000	-0.069	0.633
-392.092	-59.093	0.572	0.245
-391.077	103.787	-0.312	-0.365
-390.063	150.601	0.286	-0.386
-389.048	-200.000	0.006	-0.303
-388.033	800.000	0.282	-1.153
-387.019	11.205	0.044	-0.034
-386.004	-101.887	0.123	-0.030
-384.990	-141.963	0.368	-0.036
-383.975	337.423	0.137	0.265
-382.960	-200.000	0.010	0.768
-381.946	87.341	0.163	-0.180
-380.931	-200.000	0.028	0.566
-379.917	-0.521	-0.225	0.159
-378.902	474.432	-0.296	0.664
-377.888	38.494	0.471	-0.417
-376.873	-73.028	-0.735	0.268
-375.858	146.598	-0.486	-0.649
-374.844	-0.894	-0.434	-0.306
-373.829	-139.070	0.737	0.079
-372.815	-34.054	-0.636	-0.347
-371.800	-122.547	-0.599	0.097
-370.785	122.810	0.183	-0.228
-369.771	800.000	-0.102	0.288
-368.756	186.217	-0.551	-0.814
-367.742	-83.029	0.596	-0.191
-366.727	-200.000	0.010	0.386
-365.712	-200.000	-0.024	0.342
-364.698	36.664	-0.269	-0.236
-363.683	-91.075	-0.621	0.177
-362.669	800.000	0.093	0.328
-361.654	184.244	0.301	0.443
-360.639	-78.764	-0.272	-0.092
-359.625	-82.739	-0.417	-0.134
-358.610	643.373	0.267	-0.677
-357.596	58.616	0.358	-0.349
-356.581	-43.338	0.477	-0.240
-355.566	168.777	-0.227	0.321
-354.552	399.463	0.216	-0.450
-353.537	67.430	-0.484	0.490
-352.523	-157.406	0.474	-0.028
-351.508	-200.000	0.103	-0.627
-350.493	110.233	-0.385	-0.459
-349.479	101.458	-0.031	0.036
-348.464	66.209	-0.102	-0.103
-347.450	-200.000	-0.101	-0.484
-346.435	120.704	-0.257	-0.317
-345.420	-5.479	-0.127	-0.086
-344.406	55.445	-0.206	0.198
-343.391	-131.932	-0.477	0.062
-342.377	-117.248	-0.815	-0.147
-341.362	-52.252	-0.489	-0.225
-340.348	364.367	0.174	-0.347
-339.333	-67.619	-0.209	-0.081
-338.318	-24.742	-0.414	0.244
-337.304	64.667	0.184	0.185
-336.289	217.149	0.381	0.601
-335.275	-200.000	0.051	-0.367
-334.260	800.000	0.050	-0.194
-333.245	800.000	0.251	-0.962
-332.231	40.803	-0.269	0.241
-331.216	800.000	-0.087	-0.307
-330.202	-138.822	0.699	0.076
-329.187	101.370	0.081	-0.093
-328.172	-113.069	0.757	-0.148
-327.158	-12.946	0.131	-0.085
-326.143	-200.000	0.035	0.504
-325.129	800.000	0.301	0.959
-324.114	800.000	-0.019	-0.084
-323.099	-58.093	0.807	0.349
-322.085	10.687	0.154	0.117
-321.070	76.768	0.083	0.087
-320.056	-59.333	-0.514	-0.220
-319.041	322.326	-0.339	0.641
-318.026	800.000	-0.084	0.243
-317.012	128.217	-0.118	-0.148
-315.997	27.066	0.693	-0.576
-314.983	336.460	-0.343	-0.660
-313.968	407.180	0.024	-0.051
-312.953	183.736	0.406	-0.596
-311.939	-5.552	-0.191	0.130
-310.924	37.120	-0.521	-0.457
-309.910	-200.000	0.096	-0.437
-308.895	548.572	0.438	-1.039
-307.880	362.452	-0.096	-0.191
-306.866	-200.000	-0.007	1.083
-305.851	718.883	-0.190	0.500
-304.837	-10.172	0.286	0.188
-303.822	800.000	-0.182	-0.536
-302.807	-50.849	0.391	-0.182
-301.793	64.277	-0.737	0.735
-300.778	800.000	-0.176	-0.511
-299.764	-200.000	-0.003	-0.458
-298.749	800.000	0.141	-0.529
-297.735	-94.469	0.078	0.021
-296.720	-142.670	0.118	0.011
-295.705	387.555	0.077	-0.158
-294.691	-200.000	0.015	-0.584
-293.676	46.422	0.320	0.294
-292.662	-81.611	-0.453	0.147
-291.647	-200.000	0.005	0.357
-290.632	216.589	-0.634	-0.999
-289.618	101.464	-0.284	-0.328
-288.603	-200.000	0.101	-0.535
-287.589	258.892	0.381	0.651
-286.574	-71.466	-0.541	0.200
-285.559	-132.925	0.586	0.074
-284.545	-137.743	-0.960	0.107
-283.530	-101.602	0.190	0.046
-282.516	143.673	0.184	0.243
-281.501	-194.453	-0.513	-0.004
-280.486	-110.327	-0.279	-0.057
-279.472	-200.000	-0.023	0.655
-278.457	-71.199	-0.337	-0.125
-277.443	720.331	0.073	0.192
-276.428	-200.000	0.002	0.321
-275.413	-69.121	-0.620	0.236
-274.399	10.584	-0.352	0.266
-273.384	38.835	-0.198	-0.175
-272.370	800.000	0.122	-0.340
-271.355	262.222	0.208	0.357
-270.340	411.545	-0.159	-0.333
-269.326	63.825	-0.255	0.253
-268.311	-24.359	0.587	-0.346
-267.297	212.758	0.216	0.338
-266.282	148.687	-0.434	-0.580
-265.267	157.293	0.393	0.537
-264.253	-83.297	0.463	-0.147
-263.238	-200.000	-0.040	-0.748
-262.224	-200.000	-0.038	0.792
-261.209	301.284	0.227	0.416
-260.195	78.900	0.405	0.429
-259.180	5.197	-0.674	-0.491
-258.165	-120.476	-0.310	0.052
-257.151	-200.000	-0.003	-0.339
-256.136	-2.219	-0.844	-0.586
-255.122	-63.933	-0.211	-0.085
-254.107	104.911	-0.086	-0.100
-253.092	61.724	-0.243	-0.239
-252.078	780.103	-0.346	0.935
-251.063	9.535	0.656	0.491
-250.049	456.020	0.137	-0.301
-249.034	-200.000	0.010	-0.489
-248.019	-119.190	-0.242	-0.042
-247.005	800.000	0.121	-0.366
-245.990	46.357	0.365	-0.335
-244.976	350.467	-0.483	-0.944
-243.961	642.094	0.225	0.567
-242.946	-200.000	-0.028	-0.330
-241.932	120.265	0.340	-0.417
-240.917	-134.860	0.253	0.030
-239.903	158.478	0.370	0.508
-238.888	-200.000	0.072	-0.323
-237.873	-92.386	-0.437	0.122
-236.859	338.925	0.063	0.122
-235.844	625.637	-0.231	0.576
-234.830	-31.230	-0.302	0.168
-233.815	-200.000	0.162	-0.825
-232.800	139.623	0.341	-0.444
-231.786	-158.095	-0.988	-0.057
-230.771	706.412	0.307	0.800
-229.757	-200.000	0.207	1.086
-228.742	-200.000	-0.007	-0.335
-227.727	-103.702	-0.779	-0.180
-226.713	-46.172	-0.491	0.239
-225.698	-200.000	-0.030	-0.142
-224.684	-5.705	-0.778	0.527
-223.669	66.401	-0.241	0.242
-222.655	-200.000	-0.134	0.746
-221.640	-200.000	-0.000	0.363
-220.625	57.096	0.175	-0.169
-219.611	-168.059	-0.923	-0.036
-218.596	-53.834	-0.344	-0.155
-217.582	-55.177	0.225	-0.100
-216.567	-55.725	-0.596	0.263
-215.552	-82.359	-0.634	-0.204
-214.538	106.390	0.280	-0.328
-213.523	241.911	-0.187	0.309
-212.509	31.652	0.600	-0.509
-211.494	800.000	0.084	0.306
-210.479	723.540	0.219	-0.575
-209.465	117.692	-0.324	0.394
-208.450	-86.435	0.470	-0.142
-207.436	-96.171	0.613	0.161
-206.421	-99.257	0.318	-0.079
-205.406	9.008	-0.388	-0.289
-204.392	-99.607	-0.922	-0.229
-203.377	-52.562	-0.334	-0.152
-202.363	204.596	0.550	0.842
-201.348	-200.000	0.006	1.183
-200.333	-200.000	-0.063	0.307
-199.319	320.013	-0.380	-0.713
-198.304	353.892	-0.276	-0.540
-197.290	-180.723	-0.491	0.010
-196.275	-200.000	-0.065	0.439
-195.260	145.952	0.319	-0.422
-194.246	10.175	0.266	0.200
-193.231	-200.000	0.002	-0.125
-192.217	-200.000	-0.098	0.956
-191.202	-108.825	-1.187	0.251
-190.187	800.000	-0.164	-0.602
-189.173	-21.848	0.568	0.341
-188.158	-22.855	0.354	0.211
-187.144	145.757	0.272	-0.360
-186.129	-79.266	-0.330	0.110
-185.114	53.859	0.380	0.360
-184.100	23.500	0.272	0.221
-183.085	58.212	-0.416	-0.402
-182.071	-73.927	0.428	-0.153
-181.056	237.551	0.487	0.797
-180.042	800.000	-0.111	-0.310
-179.027	-200.000	0.076	-0.541
-178.012	20.543	-0.530	0.422
-176.998	4.629	0.795	-0.576
-175.983	-200.000	0.076	1.113
-174.969	30.652	-0.156	0.132
-173.954	-94.846	0.327	-0.087
-172.939	-200.000	0.022	0.267
-171.925	-16.746	0.668	-0.417
-170.910	97.756	-0.374	0.424
-169.896	-146.669	-0.389	-0.033
-168.881	-200.000	0.083	-0.967
-167.866	-200.000	0.049	-0.227
-166.852	-200.000	-0.084	0.863
-165.837	409.023	0.345	-0.720
-164.823	378.299	0.306	0.618
-163.808	-200.000	-0.124	0.628
-162.793	27.044	-0.264	0.218
-161.779	-200.000	0.066	0.307
-160.764	-85.712	0.784	-0.240
-159.750	307.181	0.607	-1.114
-158.735	51.993	0.765	-0.719
-157.720	71.269	0.441	-0.451
-156.706	152.517	0.425	0.572
-155.691	-99.220	0.373	0.093
-154.677	50.881	0.283	0.265
-153.662	-200.000	0.041	0.212
-152.647	147.431	-0.235	0.312
-151.633	800.000	-0.283	0.939
-150.618	39.697	-0.322	0.285
-149.604	-200.000	0.029	-0.262
-148.589	-200.000	-0.037	-0.516
-147.574	-148.006	0.535	0.044
-146.560	-103.469	-0.614	-0.142
-145.545	-200.000	0.037	0.425
-144.531	397.507	0.059	0.122
-143.516	800.000	0.272	0.880
-142.502	800.000	-0.051	-0.163
-141.487	80.625	-0.312	0.332
-140.472	-127.854	-0.649	-0.092
-139.458	-68.722	-0.015	-0.006
-138.443	-70.608	-0.762	0.284
-137.429	800.000	0.157	-0.526
-136.414	-200.000	0.180	-0.798
-135.399	271.259	0.407	0.707
-134.385	436.137	0.050	-0.108
-133.370	111.142	-0.364	0.432
-132.356	58.299	0.208	-0.201
-131.341	-200.000	0.039	0.733
-130.326	-103.345	-0.752	-0.174
-129.312	-23.177	-0.514	-0.304
-128.297	-119.570	-0.798	0.136
-127.283	232.672	0.346	0.560
-126.268	-13.024	0.508	0.325
-125.253	800.000	-0.145	-0.433
-124.239	166.336	0.395	0.550
-123.224	166.031	0.178	0.247
-122.210	-47.864	0.401	0.191
-121.195	-53.179	-0.174	0.079
-120.180	-200.000	-0.106	0.623
-119.166	81.802	0.781	-0.832
-118.151	-45.811	-0.518	-0.252
-117.137	180.411	-0.481	-0.694
-116.122	57.833	-0.548	-0.528
-115.107	-200.000	-0.062	0.375
-114.093	-200.000	-0.010	-0.424
-113.078	41.773	0.729	-0.650
-112.064	140.449	-0.148	-0.193
-111.049	-200.000	0.094	-1.110
-110.034	800.000	0.049	0.204
-109.020	40.047	0.326	0.288
-108.005	-6.438	0.238	0.160
-106.991	-145.095	0.370	-0.033
-105.976	-112.002	-0.136	-0.027
-104.962	120.805	0.692	0.846
-103.947	-200.000	-0.080	-0.525
-102.932	328.657	0.223	-0.421
-101.918	-98.718	-0.412	-0.103
-100.903	-139.678	0.288	0.030
-99.889	800.000	-0.272	-0.761
-98.874	-200.000	-0.010	-0.065
-97.859	-200.000	-0.064	0.774
-96.845	96.053	-0.250	-0.280
-95.830	365.929	-0.237	0.469
-94.816	32.828	-0.430	-0.366
-93.801	-200.000	-0.071	-0.677
-92.786	-200.000	0.041	-0.449
-91.772	166.830	0.173	-0.241
-90.757	-200.000	-0.060	-0.328
-89.743	160.278	0.164	0.225
-88.728	120.136	-0.324	-0.395
-87.713	375.232	0.448	0.898
-86.699	-200.000	-0.041	-0.389
-85.684	-123.084	-0.128	-0.020
-84.670	-92.384	0.102	-0.028
-83.655	-86.676	0.519	-0.156
-82.640	-200.000	-0.004	-0.730
-81.626	96.149	0.364	0.409
-80.611	-30.609	0.543	0.302
-79.597	681.007	0.360	-0.921
-78.582	-200.000	0.010	0.417
-77.567	122.804	-0.303	0.372
-76.553	-61.194	0.823	-0.341
-75.538	-56.075	-0.434	-0.190
-74.524	-200.000	0.186	0.957
-73.509	-30.741	-0.817	0.454
-72.494	402.313	0.307	0.634
-71.480	-5.148	0.124	-0.084
-70.465	82.424	0.482	0.514
-69.451	-110.150	-0.414	0.085
-68.436	-200.000	-0.082	-0.823
-67.422	-21.685	0.380	-0.227
-66.407	800.000	0.292	0.922
-65.392	-22.477	0.497	0.295
-64.378	-81.087	-0.247	0.080
-63.363	-117.033	-0.479	0.086
-62.349	-40.607	0.157	-0.080
-61.334	40.833	-0.949	-0.840
-60.319	-51.484	0.768	0.352
-59.305	667.718	-0.401	-1.019
-58.290	10.318	0.691	0.516
-57.276	800.000	0.396	1.219
-56.261	-200.000	96.672	603.510
-55.246	671.764	1358.096	3454.629
-54.232	203.523	2528.661	3839.812
-53.217	113.783	2246.459	2679.452
-52.203	42.030	1879.483	1674.067
-51.188	35.521	1673.400	1441.782
-50.173	32.734	1631.137	1384.874
-49.159	51.338	1679.682	1565.034
-48.144	52.080	1695.692	1585.414
-47.130	35.139	1655.540	1423.331
-46.115	32.524	1641.801	1392.154
-45.100	32.279	1636.132	1385.487
-44.086	31.976	1635.045	1382.279
-43.071	32.127	1632.073	1380.825
-42.057	32.283	1628.637	1379.010
-41.042	32.159	1627.224	1376.847
-40.027	32.281	1626.259	1376.869
-39.013	32.007	1624.106	1372.990
-37.998	32.057	1621.929	1371.457
-36.984	32.050	1620.770	1370.376
-35.969	32.254	1619.324	1370.584
-34.954	32.251	1617.095	1368.622
-33.940	32.011	1616.555	1366.363
-32.925	32.184	1613.596	1365.062
-31.911	32.194	1612.550	1364.201
-30.896	32.307	1611.372	1363.966
-29.881	32.332	1609.115	1362.183
-28.867	32.107	1606.982	1358.693
-27.852	32.095	1605.308	1357.139
-26.838	32.201	1603.996	1356.744
-25.823	32.350	1601.887	1355.982
-24.809	31.995	1603.383	1354.626
-23.794	32.032	1600.907	1352.750
-22.779	32.221	1598.886	1352.352
-21.765	32.298	1597.103	1351.342
-20.750	32.069	1595.780	1348.527
-19.736	32.194	1594.320	1348.134
-18.721	32.304	1593.073	1347.815
-17.706	32.214	1591.013	1345.374
-16.692	32.334	1588.733	1344.250
-15.677	32.259	1588.150	1343.167
-14.663	32.198	1587.206	1341.878
-13.648	32.304	1585.731	1341.333
-12.633	32.206	1584.694	1339.705
-11.619	32.245	1583.240	1338.703
-10.604	32.273	1581.575	1337.439
-9.590	32.189	1580.341	1335.745
-8.575	32.222	1579.017	1334.812
-7.560	32.149	1578.088	1333.456
-6.546	32.040	1578.144	1332.672
-5.531	32.469	1575.093	1333.085
-4.517	32.268	1573.871	1330.573
-3.502	32.269	1573.669	1330.360
-2.487	32.448	1570.744	1329.099
-1.473	31.584	1560.191	1314.048
-0.458	29.119	1540.259	1280.099
0.556	26.885	1540.509	1247.811
1.571	24.308	1563.768	1248.521
2.586	23.768	1575.553	1254.007
3.600	20.898	1524.129	1193.341
4.615	12.560	1414.684	1054.330
5.629	4.757	1351.325	959.095
6.644	3.425	1343.867	945.546
7.659	3.262	1341.597	942.868
8.673	3.428	1341.444	943.696
9.688	3.285	1338.538	940.696
10.702	3.083	1336.293	937.798
11.717	6.511	1342.401	962.975
12.731	15.907	1360.507	1033.820
13.746	23.331	1370.609	1087.144
14.761	24.872	1372.932	1098.355
15.775	24.801	1372.399	1097.396
16.790	24.576	1370.461	1094.371
17.804	24.254	1370.100	1092.012
18.819	24.230	1368.949	1090.853
19.834	24.118	1368.313	1089.562
20.848	24.322	1367.160	1089.800
21.863	24.118	1367.428	1088.670
22.877	24.262	1366.250	1088.513
23.892	24.383	1364.457	1087.725
24.907	24.221	1363.933	1086.224
25.921	23.974	1363.509	1084.285
26.936	24.234	1362.050	1084.613
27.950	24.227	1361.171	1083.771
28.965	24.366	1360.947	1084.342
29.980	24.728	1357.999	1084.096
30.994	24.258	1358.921	1081.881
32.009	24.524	1356.380	1081.374
33.023	24.364	1356.483	1080.390
34.038	24.302	1356.308	1079.783
35.053	24.556	1354.122	1079.481
36.067	24.491	1351.642	1077.016
37.082	24.306	1352.061	1076.138
38.096	24.088	1352.580	1075.144
39.111	24.543	1350.664	1076.266
40.126	24.306	1350.301	1074.455
41.140	24.007	1349.026	1071.542
42.155	23.937	1348.433	1070.559
43.169	23.724	1349.278	1069.850
44.184	23.702	1348.304	1068.848
45.199	23.681	1348.559	1068.831
46.213	24.104	1346.583	1069.710
47.228	24.244	1347.010	1070.799
48.242	24.330	1344.633	1069.327
49.257	24.424	1344.219	1069.471
50.271	24.402	1342.719	1068.048
51.286	24.066	1341.741	1065.164
52.301	24.572	1339.469	1066.288
53.315	24.278	1339.547	1064.501
54.330	24.106	1339.404	1063.267
55.344	24.049	1337.971	1061.698
56.359	24.256	1335.244	1060.668
57.374	23.918	1335.987	1059.151
58.388	24.138	1334.668	1059.322
59.403	23.922	1334.808	1058.053
60.417	23.761	1334.126	1056.467
61.432	23.917	1332.681	1056.151
62.447	23.914	1331.466	1055.075
63.461	24.069	1329.768	1054.555
64.476	23.869	1329.705	1053.231
65.490	24.064	1328.416	1053.272
66.505	23.789	1326.751	1050.232
67.520	24.081	1325.914	1051.198
68.534	23.968	1325.398	1050.033
69.549	23.702	1324.824	1047.914
70.563	23.572	1323.061	1045.660
71.578	23.654	1322.392	1045.522
72.593	23.761	1321.334	1045.221
73.607	23.582	1321.121	1043.907
74.622	23.610	1319.739	1042.890
75.636	23.644	1319.608	1042.891
76.651	23.940	1317.835	1043.137
77.666	23.792	1318.199	1042.464
78.680	23.725	1317.997	1041.817
79.695	24.009	1317.528	1043.019
80.709	23.761	1316.720	1040.837
81.724	23.518	1317.281	1039.762
82.739	24.100	1314.630	1040.980
83.753	24.509	1314.344	1043.052
84.768	24.472	1313.360	1041.964
85.782	24.563	1312.787	1041.946
86.797	24.678	1311.844	1041.777
87.812	24.470	1310.568	1039.459
88.826	24.377	1309.858	1038.264
89.841	24.437	1309.200	1038.001
90.855	24.340	1308.809	1037.036
91.870	24.752	1306.524	1037.525
92.884	24.627	1306.243	1036.484
93.899	24.531	1305.636	1035.354
94.914	24.780	1304.175	1035.543
95.928	24.731	1304.270	1035.247
96.943	24.808	1302.612	1034.284
97.957	24.442	1302.594	1032.062
98.972	24.637	1301.686	1032.375
99.987	24.470	1300.547	1030.415
101.001	24.631	1299.032	1030.055
102.016	24.465	1299.526	1029.400
103.030	24.426	1298.790	1028.501
104.045	24.247	1297.659	1026.479
105.060	24.402	1295.034	1025.207
106.074	23.923	1294.807	1022.183
107.089	24.123	1292.473	1021.398
108.103	23.932	1292.016	1019.848
109.118	23.717	1290.547	1017.368
110.133	23.632	1289.599	1016.041
111.147	23.816	1288.556	1016.186
112.162	23.623	1287.119	1013.859
113.176	23.966	1286.199	1015.004
114.191	23.970	1285.569	1014.438
115.206	24.027	1284.861	1014.114
116.220	23.945	1283.307	1012.334
117.235	24.137	1281.379	1011.813
118.249	23.799	1280.561	1009.157
119.264	23.944	1280.125	1009.546
120.279	23.762	1279.695	1008.084
121.293	23.902	1278.481	1007.837
122.308	23.329	1278.177	1004.259
123.322	23.279	1277.213	1003.131
124.337	23.619	1276.001	1004.010
125.352	23.177	1276.313	1001.666
126.366	23.514	1274.239	1001.855
127.381	23.821	1272.148	1001.851
128.395	23.574	1271.324	999.724
129.410	23.028	1271.891	997.002
130.424	23.305	1270.843	997.656
131.439	23.609	1270.019	998.631
132.454	23.561	1270.756	998.848
133.468	24.064	1269.180	1000.351
134.483	23.828	1267.975	997.989
135.497	23.937	1267.630	998.237
136.512	23.978	1265.905	997.025
137.527	23.893	1265.194	995.900
138.541	23.808	1264.837	995.051
139.556	24.113	1262.661	994.958
140.570	23.826	1262.755	993.338
141.585	24.248	1260.994	994.224
142.600	24.770	1259.516	995.877
143.614	24.526	1260.119	994.902
144.629	24.312	1259.537	993.164
145.643	24.317	1258.427	992.232
146.658	24.226	1256.641	990.231
147.673	24.333	1255.456	989.801
148.687	24.206	1254.426	988.196
149.702	23.954	1253.076	985.651
150.716	23.833	1251.679	983.795
151.731	23.518	1250.626	981.139
152.746	23.449	1249.863	980.072
153.760	23.991	1248.323	981.767
154.775	24.158	1247.101	981.638
155.789	24.233	1247.507	982.286
156.804	24.138	1245.630	980.200
157.819	24.133	1245.632	980.087
158.833	24.088	1244.778	979.081
159.848	24.442	1243.142	979.649
160.862	24.305	1241.760	977.725
161.877	24.104	1241.185	976.084
162.892	23.914	1241.085	974.874
163.906	23.871	1238.311	972.378
164.921	23.786	1239.379	972.662
165.935	23.991	1238.647	973.121
166.950	24.106	1237.256	972.573
167.964	24.290	1236.567	972.951
168.979	24.082	1236.226	971.459
169.994	23.885	1235.403	969.654
171.008	24.010	1234.207	969.309
172.023	23.855	1234.344	968.487
173.037	24.153	1234.165	969.886
174.052	24.385	1232.540	969.780
175.067	24.171	1231.439	967.670
176.081	23.953	1230.265	965.475
177.096	23.798	1229.122	963.654
178.110	24.021	1228.431	964.237
179.125	23.939	1227.786	963.197
180.140	23.635	1227.876	961.539
181.154	24.343	1225.933	963.762
182.169	23.946	1225.541	961.222
183.183	24.366	1223.147	961.524
184.198	24.540	1222.571	961.920
185.213	24.226	1222.090	959.767
186.227	24.381	1220.688	959.415
187.242	24.163	1219.752	957.424
188.256	24.433	1219.297	958.433
189.271	24.348	1217.999	956.871
190.286	24.192	1217.480	955.543
191.300	23.681	1217.772	952.942
192.315	24.092	1216.559	954.116
193.329	24.097	1215.776	953.441
194.344	24.007	1214.505	951.880
195.359	23.920	1214.022	950.951
196.373	24.071	1212.580	950.547
197.388	23.612	1213.390	948.645
198.402	23.969	1214.137	951.053
199.417	24.398	1213.508	952.764
200.432	24.395	1212.980	952.250
201.446	24.483	1211.467	951.450
202.461	24.554	1212.017	952.176
203.475	24.263	1210.998	949.740
204.490	24.063	1208.768	946.841
205.504	23.931	1208.154	945.576
206.519	23.956	1206.744	944.521
207.534	23.718	1205.526	942.225
208.548	23.695	1204.605	941.295
209.563	23.907	1202.935	941.029
210.577	23.902	1202.055	940.232
211.592	24.030	1202.356	941.061
212.607	24.562	1201.523	943.136
213.621	24.377	1201.819	942.308
214.636	24.162	1199.496	939.271
215.650	24.269	1198.545	939.004
216.665	24.644	1198.007	940.478
217.680	24.653	1198.873	941.121
218.694	24.476	1197.431	938.976
219.709	24.339	1195.349	936.540
220.723	24.128	1195.467	935.441
221.738	24.117	1195.969	935.691
222.753	24.422	1193.714	935.444
223.767	24.236	1191.868	932.939
224.782	24.249	1193.310	934.056
225.796	24.825	1191.831	935.829
226.811	24.391	1191.819	933.466
227.826	24.465	1190.336	932.609
228.840	24.433	1189.379	931.608
229.855	24.203	1189.551	930.458
230.869	24.403	1187.983	930.196
231.884	24.275	1186.657	928.407
232.899	23.971	1185.583	925.903
233.913	23.542	1186.343	924.181
234.928	23.894	1185.472	925.253
235.942	23.945	1183.330	923.763
236.957	23.554	1183.798	922.014
237.972	23.647	1182.886	921.706
238.986	23.799	1182.345	921.991
240.001	24.121	1180.786	922.362
241.015	23.922	1180.449	920.987
242.030	23.889	1180.064	920.435
243.045	24.050	1179.475	920.728
244.059	24.332	1178.206	921.111
245.074	24.164	1178.024	920.022
246.088	24.470	1176.579	920.389
247.103	24.128	1177.066	918.924
248.117	24.452	1175.586	919.353
249.132	24.682	1175.298	920.235
250.147	24.653	1175.990	920.543
251.161	25.037	1174.858	921.554
252.176	25.072	1174.836	921.634
253.190	25.084	1174.049	920.994
254.205	25.090	1173.872	920.804
255.220	25.303	1172.708	920.905
256.234	25.351	1172.377	920.809
257.249	25.520	1170.445	920.075
258.263	25.352	1169.264	918.206
259.278	25.451	1169.414	918.748
260.293	25.109	1170.054	917.420
261.307	25.154	1169.554	917.180
262.322	25.301	1167.397	916.157
263.336	25.054	1167.407	914.824
264.351	24.842	1168.284	914.344
265.366	25.066	1165.960	913.589
266.380	25.618	1164.790	915.399
267.395	25.052	1165.580	913.056
268.409	25.181	1163.703	912.159
269.424	24.889	1163.744	910.626
270.439	24.956	1163.355	910.585
271.453	25.087	1162.081	910.172
272.468	24.745	1161.281	907.728
273.482	24.461	1160.641	905.705
274.497	24.619	1159.781	905.754
275.512	24.800	1158.553	905.634
276.526	24.629	1158.183	904.398
277.541	24.688	1157.222	903.866
278.555	25.069	1157.605	906.013
279.570	25.329	1156.146	906.101
280.585	25.302	1156.621	906.260
281.599	25.024	1156.223	904.464
282.614	25.212	1153.650	903.319
283.628	24.794	1153.211	900.788
284.643	24.583	1152.413	899.025
285.657	24.873	1150.663	899.037
286.672	24.645	1150.823	897.936
287.687	25.080	1149.214	898.786
288.701	25.187	1148.578	898.741
289.716	25.057	1147.630	897.271
290.730	25.026	1147.328	896.801
291.745	24.934	1146.025	895.245
292.760	25.181	1146.018	896.393
293.774	25.253	1146.175	896.794
294.789	25.188	1145.429	895.809
295.803	25.331	1144.893	896.025
296.818	25.057	1144.288	894.103
297.833	24.947	1142.899	892.389
298.847	25.196	1142.052	892.893
299.862	24.729	1141.951	890.408
300.876	24.855	1141.539	890.632
301.891	25.107	1139.723	890.388
302.906	25.170	1140.066	890.893
303.920	25.406	1139.283	891.374
304.935	25.133	1138.866	889.616
305.949	25.276	1138.789	890.187
306.964	25.319	1138.626	890.190
307.979	25.469	1135.838	888.676
308.993	25.286	1135.961	887.789
310.008	25.172	1135.381	886.693
311.022	25.289	1134.792	886.733
312.037	25.428	1133.522	886.348
313.052	25.088	1134.174	885.101
314.066	25.084	1131.479	882.899
315.081	24.863	1130.599	881.046
316.095	24.691	1129.143	878.989
317.110	24.906	1128.597	879.541
318.125	24.863	1128.344	879.056
319.139	24.671	1128.379	878.060
320.154	24.728	1127.322	877.441
321.168	24.486	1127.828	876.568
322.183	25.044	1125.533	877.440
323.197	24.837	1125.453	876.288
324.212	24.988	1124.952	876.560
325.227	24.850	1124.625	875.552
326.241	24.753	1124.855	875.178
327.256	24.858	1123.349	874.440
328.270	24.741	1122.798	873.364
329.285	24.625	1121.817	871.956
330.300	24.817	1121.478	872.556
331.314	25.013	1119.697	872.045
332.329	24.937	1118.449	870.626
333.343	24.630	1118.980	869.471
334.358	24.795	1118.621	869.917
335.373	25.181	1117.672	870.977
336.387	25.476	1116.492	871.410
337.402	25.399	1116.036	870.603
338.416	25.431	1114.717	869.654
339.431	25.504	1114.902	870.074
340.446	25.379	1115.719	870.027
341.460	25.922	1114.409	871.558
342.475	25.728	1112.757	869.249
343.489	25.970	1112.142	869.858
344.504	25.909	1110.858	868.486
345.519	25.642	1110.668	866.972
346.533	25.561	1110.480	866.360
347.548	25.893	1109.475	867.098
348.562	25.743	1108.813	865.784
349.577	25.614	1106.923	863.612
350.592	25.178	1106.240	860.907
351.606	25.111	1105.418	859.872
352.621	25.019	1104.686	858.785
353.635	25.003	1103.463	857.680
354.650	24.993	1103.281	857.415
355.665	25.031	1102.391	856.830
356.679	25.187	1102.567	857.640
357.694	25.329	1101.332	857.280
358.708	25.331	1101.495	857.338
359.723	25.499	1100.409	857.218
360.738	25.214	1100.460	855.826
361.752	25.136	1099.787	854.853
362.767	25.527	1099.617	856.511
363.781	25.315	1098.407	854.483
364.796	25.741	1097.977	856.097
365.810	25.777	1098.022	856.231
366.825	25.802	1097.442	855.820
367.840	26.065	1097.214	856.816
368.854	26.082	1096.847	856.532
369.869	26.221	1095.553	856.104
370.883	25.923	1094.071	853.460
371.898	25.918	1093.037	852.556
372.913	25.622	1093.313	851.295
373.927	25.897	1092.926	852.219
374.942	26.034	1092.340	852.335
375.956	26.086	1091.891	852.151
376.971	25.755	1090.621	849.524
377.986	26.034	1089.486	849.880
379.000	26.250	1089.795	851.064
380.015	26.075	1089.558	849.977
381.029	26.346	1088.396	850.272
382.044	26.419	1087.938	850.183
383.059	26.213	1087.852	849.073
384.073	25.893	1087.969	847.582
385.088	25.837	1086.007	845.719
386.102	25.995	1085.066	845.649
387.117	26.026	1083.765	844.707
388.132	25.537	1082.091	841.041
389.146	25.641	1081.980	841.366
390.161	25.436	1080.626	839.283
391.175	25.140	1080.593	837.800
392.190	25.739	1079.432	839.620
393.205	25.873	1079.379	840.130
394.219	26.088	1079.840	841.416
395.234	25.872	1077.741	838.698
396.248	25.723	1075.859	836.469
397.263	25.680	1075.090	835.595
398.278	25.551	1074.882	834.763
399.292	25.530	1073.556	833.564
400.307	25.854	1074.002	835.337
401.321	25.832	1072.769	834.200
402.336	25.372	1071.989	831.393
403.350	25.232	1071.813	830.534
404.365	25.553	1071.466	831.680
405.380	25.729	1070.624	831.763
406.394	25.572	1070.597	830.943
407.409	25.840	1069.696	831.408
408.423	26.061	1069.577	832.263
409.438	26.412	1068.558	833.012
410.453	26.296	1067.914	831.904
411.467	26.316	1066.930	831.156
412.482	26.103	1066.937	830.105
413.496	26.304	1066.260	830.428
414.511	26.230	1064.886	828.947
415.526	26.261	1064.961	829.074
416.540	26.537	1064.865	830.193
417.555	26.416	1064.315	829.134
418.569	26.412	1062.728	827.807
419.584	26.530	1061.913	827.640
420.599	26.306	1062.407	826.927
421.613	154.003	1403.716	1792.902
422.628	141.613	1453.464	1792.965
