DTS Sentinel unit serial number:	SN413079Multiplexer serial number:	ORYXHardware model number:	OX4-SRSoftware version number:	ORYX F/W v4.00 Oryx Data Collector v3.7.2.0data status	okinstallation	princeton_trtdifferential loss correction	single-endedforward channel	channel 2reverse channel	N/Adate	2019/09/10time	18:13:11forward acquisition time	60.00reverse acquisition time	0.00gamma	496.2192k internal	0.2316k external	0.2316temperature offset calibration	0.9937default loss term (dB/km)	0.3790temperature slope calibration	1.0000multiplexer offset coefficient	1.0000multiplexer slope coefficient	1.0000fibre end	0.00T internal ref (°C)	36.64T ext. ref 1 (°C)	-0.37T ext. ref 2 (°C)	28.79length (m)	temperature (°C)	Stokes	anti-Stokes-747.200	-38.781	0.394	0.210
-746.185	221.927	0.131	-0.214
-745.171	12.882	-0.316	-0.248
-744.156	373.908	0.072	0.148
-743.142	166.489	0.177	0.254
-742.127	-200.000	-0.018	-0.350
-741.112	-6.613	-0.023	0.016
-740.098	19.904	-0.157	-0.128
-739.083	-200.000	-0.011	-0.057
-738.069	-56.741	-0.084	-0.037
-737.054	-77.817	-0.146	-0.051
-736.039	-108.735	-0.329	0.071
-735.025	-158.763	0.264	-0.015
-734.010	-68.081	0.121	0.048
-732.996	-200.000	0.022	-0.241
-731.981	-98.079	-0.106	-0.028
-730.966	-84.942	0.194	0.062
-729.952	-109.575	-0.132	0.028
-728.937	-55.689	-0.260	0.118
-727.923	-200.000	0.018	0.257
-726.908	18.688	-0.203	-0.165
-725.894	-200.000	0.012	0.083
-724.879	326.176	-0.039	0.076
-723.864	800.000	0.024	-0.083
-722.850	612.888	-0.120	-0.303
-721.835	-200.000	0.005	0.048
-720.821	25.776	0.203	0.171
-719.806	428.339	0.062	-0.135
-718.791	488.228	-0.103	0.237
-717.777	-200.000	0.036	-0.223
-716.762	-78.423	-0.527	-0.183
-715.748	42.991	0.317	-0.292
-714.733	-46.311	0.267	0.133
-713.718	-144.774	-0.456	0.042
-712.704	-200.000	0.004	0.135
-711.689	-148.467	0.286	0.024
-710.675	268.647	0.095	-0.169
-709.660	81.519	-0.104	-0.114
-708.645	-175.828	-0.088	0.002
-707.631	603.671	-0.056	-0.141
-706.616	-47.514	-0.296	-0.145
-705.602	-95.508	0.111	0.030
-704.587	156.309	0.068	-0.094
-703.572	-19.537	-0.227	0.142
-702.558	302.492	0.079	-0.148
-701.543	-200.000	-0.024	-0.146
-700.529	-200.000	-0.030	-0.153
-699.514	153.663	-0.299	0.414
-698.499	-125.593	0.140	-0.022
-697.485	428.295	0.089	-0.193
-696.470	-58.627	-0.208	0.091
-695.456	-72.918	-0.304	0.113
-694.441	180.243	-0.063	-0.093
-693.426	800.000	-0.056	-0.165
-692.412	-73.211	0.135	0.050
-691.397	-63.696	0.066	-0.028
-690.383	-57.363	-0.211	-0.094
-689.368	237.775	0.100	0.168
-688.354	448.127	0.071	0.158
-687.339	-200.000	0.033	0.282
-686.324	151.917	0.165	0.227
-685.310	-33.720	-0.126	-0.070
-684.295	-171.317	-0.149	-0.005
-683.281	122.402	-0.126	-0.159
-682.266	-29.722	-0.215	-0.124
-681.251	800.000	0.032	-0.113
-680.237	-2.404	-0.148	0.105
-679.222	-43.742	-0.080	0.041
-678.208	297.315	0.132	-0.246
-677.193	93.722	0.116	-0.133
-676.178	58.179	-0.210	-0.208
-675.164	-62.772	-0.152	-0.063
-674.149	323.068	-0.114	-0.220
-673.135	140.940	0.101	0.135
-672.120	480.585	-0.031	-0.072
-671.105	-200.000	0.041	0.191
-670.091	800.000	-0.073	-0.227
-669.076	-174.338	0.018	0.001
-668.062	36.275	0.137	-0.122
-667.047	146.989	-0.273	-0.370
-666.032	174.436	0.030	-0.044
-665.018	192.295	0.103	-0.156
-664.003	313.189	-0.097	-0.183
-662.989	-200.000	0.004	-0.201
-661.974	340.996	0.182	-0.359
-660.959	111.329	-0.014	-0.017
-659.945	-153.657	0.188	-0.013
-658.930	52.212	0.095	-0.092
-657.916	-14.507	-0.187	0.121
-656.901	-200.000	-0.059	-0.388
-655.886	-200.000	-0.032	-0.246
-654.872	-132.504	0.219	0.028
-653.857	163.789	0.032	0.045
-652.843	-200.000	-0.051	-0.328
-651.828	-127.660	-0.271	0.039
-650.814	-144.716	-0.249	-0.023
-649.799	-200.000	0.031	-0.202
-648.784	-22.771	-0.142	0.086
-647.770	-200.000	-0.004	0.017
-646.755	-200.000	0.005	-0.176
-645.741	230.238	-0.076	-0.126
-644.726	-1.013	-0.065	0.046
-643.711	-200.000	-0.314	-0.001
-642.697	65.067	-0.139	-0.141
-641.682	-125.796	-0.388	0.059
-640.668	-173.720	-0.175	-0.005
-639.653	441.296	-0.089	-0.196
-638.638	800.000	-0.113	-0.409
-637.624	-21.442	-0.312	-0.192
-636.609	17.498	-0.229	-0.183
-635.595	-148.303	-0.345	-0.029
-634.580	-72.389	0.188	0.070
-633.565	-22.990	-0.341	0.207
-632.551	0.998	-0.187	-0.135
-631.536	24.703	0.164	0.137
-630.522	263.228	-0.238	0.416
-629.507	-146.517	-0.146	0.013
-628.492	-61.677	0.171	-0.072
-627.478	35.948	0.033	-0.029
-626.463	-44.453	0.408	0.206
-625.449	-72.966	-0.301	0.111
-624.434	-200.000	-0.004	-0.147
-623.419	-46.893	0.255	-0.126
-622.405	-7.726	-0.171	0.117
-621.390	-75.352	-0.109	-0.039
-620.376	-82.750	-0.106	0.035
-619.361	-15.119	-0.029	-0.019
-618.346	800.000	0.101	-0.344
-617.332	55.504	-0.294	0.287
-616.317	-200.000	0.027	-0.261
-615.303	-105.204	-0.068	-0.016
-614.288	-200.000	-0.013	-0.171
-613.273	74.390	-0.103	-0.109
-612.259	-76.807	-0.194	-0.068
-611.244	-92.205	0.322	0.092
-610.230	-200.000	0.006	0.153
-609.215	800.000	0.052	-0.227
-608.201	-50.633	-0.306	-0.145
-607.186	-133.325	-0.145	0.018
-606.171	-45.743	-0.084	0.042
-605.157	-86.253	-0.047	0.015
-604.142	71.054	-0.068	0.071
-603.128	165.996	0.076	0.109
-602.113	-23.966	0.114	0.069
-601.098	39.447	-0.160	-0.144
-600.084	-40.706	0.032	-0.017
-599.069	-29.315	0.333	0.192
-598.055	-12.009	0.114	-0.075
-597.040	-200.000	0.006	0.172
-596.025	-134.915	-0.226	0.028
-595.011	-200.000	-0.033	-0.283
-593.996	29.463	-0.092	-0.079
-592.982	6.581	0.052	0.039
-591.967	-200.000	-0.012	0.108
-590.952	-33.244	-0.170	-0.095
-589.938	119.151	-0.093	0.115
-588.923	-81.333	-0.189	-0.063
-587.909	-75.470	-0.245	0.088
-586.894	-200.000	-0.010	-0.083
-585.879	-14.995	-0.043	-0.028
-584.865	246.342	-0.039	0.067
-583.850	98.102	0.090	0.104
-582.836	-59.977	-0.377	0.162
-581.821	-200.000	0.073	0.405
-580.806	-145.464	0.139	-0.013
-579.792	-120.705	0.512	-0.087
-578.777	104.395	-0.215	0.255
-577.763	0.531	0.392	0.282
-576.748	312.632	0.197	0.373
-575.733	34.120	0.068	-0.059
-574.719	300.797	0.158	-0.294
-573.704	345.002	-0.159	0.314
-572.690	800.000	-0.048	0.202
-571.675	544.380	0.050	0.119
-570.661	-82.280	0.266	0.087
-569.646	-111.210	0.192	0.039
-568.631	8.841	0.133	-0.101
-567.617	122.357	-0.158	-0.199
-566.602	-77.166	-0.103	-0.036
-565.588	-118.969	-0.324	-0.057
-564.573	-85.838	-0.144	-0.045
-563.558	-164.168	0.120	0.006
-562.544	66.636	0.047	-0.048
-561.529	800.000	-0.051	0.154
-560.515	800.000	0.067	0.238
-559.500	-200.000	-0.003	-0.184
-558.485	-83.538	-0.359	-0.115
-557.471	12.453	0.186	-0.144
-556.456	93.461	0.091	0.103
-555.442	-200.000	0.002	-0.178
-554.427	-135.702	0.131	0.016
-553.412	71.506	-0.094	-0.099
-552.398	36.931	-0.198	0.176
-551.383	-13.919	-0.028	-0.018
-550.369	-43.004	-0.245	-0.125
-549.354	-8.500	0.387	-0.262
-548.339	-200.000	0.009	0.121
-547.325	613.520	-0.092	-0.233
-546.310	-51.888	-0.131	-0.061
-545.296	-120.487	0.056	-0.010
-544.281	800.000	0.086	0.313
-543.266	92.224	0.124	0.140
-542.252	-170.830	0.219	-0.008
-541.237	800.000	0.065	0.186
-540.223	-19.966	-0.211	0.131
-539.208	-118.561	0.103	0.018
-538.193	-200.000	-0.071	0.321
-537.179	10.488	0.140	0.107
-536.164	192.782	0.263	-0.398
-535.150	62.256	0.063	0.063
-534.135	275.006	0.065	0.116
-533.121	61.663	-0.060	-0.060
-532.106	529.064	-0.078	-0.185
-531.091	134.556	0.081	-0.106
-530.077	462.110	0.101	0.226
-529.062	-100.396	0.129	-0.032
-528.048	-200.000	-0.026	-0.155
-527.033	800.000	0.016	0.063
-526.018	38.484	0.181	0.162
-525.004	-88.916	-0.437	-0.130
-523.989	22.550	-0.239	0.196
-522.975	800.000	-0.106	0.379
-521.960	205.764	-0.104	-0.162
-520.945	800.000	0.035	0.111
-519.931	325.177	-0.147	-0.281
-518.916	-14.759	-0.147	0.095
-517.902	-200.000	0.003	-0.078
-516.887	-66.722	0.153	-0.061
-515.872	136.846	0.190	0.249
-514.858	-181.643	0.234	0.005
-513.843	698.337	0.072	-0.189
-512.829	-63.353	-0.139	-0.057
-511.814	-200.000	0.000	0.089
-510.799	-104.759	0.097	-0.022
-509.785	-200.000	0.020	-0.110
-508.770	-200.000	0.003	-0.309
-507.756	-125.203	0.065	-0.010
-506.741	-200.000	-0.007	-0.090
-505.726	395.275	-0.060	-0.126
-504.712	205.624	-0.054	-0.084
-503.697	21.030	-0.313	0.254
-502.683	800.000	0.076	0.316
-501.668	800.000	-0.045	0.170
-500.653	-157.223	-0.335	-0.020
-499.639	-146.690	-0.270	-0.023
-498.624	-156.299	0.166	-0.010
-497.610	-90.925	0.253	0.073
-496.595	800.000	0.036	0.136
-495.581	-135.230	0.184	-0.022
-494.566	-75.320	0.201	0.072
-493.551	-124.362	0.147	0.023
-492.537	800.000	0.134	0.401
-491.522	172.248	-0.159	0.229
-490.508	-146.286	0.072	-0.006
-489.493	-34.486	-0.248	-0.136
-488.478	172.570	0.205	-0.295
-487.464	-62.304	0.065	-0.027
-486.449	340.311	-0.063	-0.124
-485.435	-200.000	-0.020	0.152
-484.420	-121.016	-0.338	0.057
-483.405	-169.711	-0.189	0.007
-482.391	88.717	0.140	-0.156
-481.376	-40.026	0.343	-0.179
-480.362	-123.944	0.253	-0.040
-479.347	-28.190	-0.181	0.105
-478.332	-116.963	-0.196	-0.036
-477.318	146.677	-0.092	0.124
-476.303	476.422	0.052	-0.117
-475.289	-200.000	0.042	0.187
-474.274	59.799	0.262	0.259
-473.259	32.908	-0.096	-0.083
-472.245	-200.000	-0.013	-0.105
-471.230	-200.000	-0.015	0.179
-470.216	580.236	0.050	-0.123
-469.201	-126.180	-0.320	0.048
-468.186	-21.411	0.167	-0.102
-467.172	85.612	-0.139	-0.153
-466.157	-53.884	-0.282	-0.129
-465.143	141.800	0.166	-0.220
-464.128	-63.871	0.085	-0.035
-463.113	-73.156	0.190	-0.070
-462.099	376.293	0.126	0.258
-461.084	56.326	0.199	-0.194
-460.070	800.000	0.019	0.052
-459.055	542.627	0.057	0.136
-458.040	-139.642	0.322	0.034
-457.026	-200.000	-0.039	-0.404
-456.011	-95.702	0.232	-0.062
-454.997	132.341	0.059	0.076
-453.982	-144.820	0.225	-0.021
-452.968	233.437	0.157	-0.258
-451.953	-96.013	0.113	-0.030
-450.938	800.000	-0.026	-0.104
-449.924	-42.061	0.148	0.076
-448.909	800.000	-0.103	0.425
-447.895	218.058	0.081	0.129
-446.880	-200.000	-0.003	-0.105
-445.865	-139.977	-0.282	0.030
-444.851	-118.863	0.284	-0.050
-443.836	-158.272	0.080	-0.005
-442.822	800.000	-0.081	-0.264
-441.807	800.000	-0.076	0.319
-440.792	-47.949	-0.217	0.105
-439.778	33.318	-0.046	-0.040
-438.763	22.078	-0.117	0.095
-437.749	37.680	0.273	-0.242
-436.734	-200.000	0.016	-0.150
-435.719	-200.000	-0.012	-0.193
-434.705	191.370	0.075	-0.114
-433.690	-200.000	0.092	-0.411
-432.676	-49.652	-0.106	-0.051
-431.661	-26.576	0.216	-0.127
-430.646	-22.738	0.420	-0.254
-429.632	-133.452	-0.568	-0.071
-428.617	431.755	-0.045	-0.097
-427.603	-56.232	-0.440	0.196
-426.588	-200.000	-0.031	0.312
-425.573	188.944	-0.081	-0.121
-424.559	-60.680	-0.186	0.079
-423.544	-200.000	0.006	-0.106
-422.530	800.000	0.043	-0.185
-421.515	37.370	0.197	0.175
-420.500	-171.525	0.188	-0.006
-419.486	-177.856	-0.102	-0.002
-418.471	800.000	-0.023	-0.094
-417.457	88.890	0.020	-0.022
-416.442	-50.933	0.191	-0.090
-415.428	-136.600	0.188	-0.022
-414.413	-100.402	0.199	-0.049
-413.398	800.000	-0.028	-0.100
-412.384	15.863	-0.254	0.200
-411.369	188.710	-0.030	-0.045
-410.355	11.826	0.139	0.107
-409.340	-159.394	-0.200	-0.011
-408.325	174.822	0.084	-0.122
-407.311	758.852	0.044	0.120
-406.296	1.143	0.301	-0.216
-405.282	728.082	0.052	-0.140
-404.267	-200.000	-0.328	0.001
-403.252	-129.848	-0.259	0.036
-402.238	-76.855	0.053	0.019
-401.223	-184.545	0.253	0.004
-400.209	222.894	-0.097	0.157
-399.194	-200.000	-0.028	0.139
-398.179	800.000	0.037	0.107
-397.165	-105.666	-0.400	0.090
-396.150	-200.000	-0.058	0.347
-395.136	-66.252	-0.198	-0.079
-394.121	-200.000	-0.029	-0.169
-393.106	-102.469	-0.341	0.082
-392.092	179.379	0.096	0.141
-391.077	-200.000	0.048	-0.451
-390.063	-72.922	-0.110	0.040
-389.048	27.072	0.258	0.216
-388.033	-97.989	0.185	0.048
-387.019	-200.000	-0.001	0.330
-386.004	-130.620	-0.064	0.009
-384.990	-26.380	-0.053	-0.031
-383.975	-200.000	-0.013	0.154
-382.960	124.882	-0.075	0.095
-381.946	701.622	0.049	-0.128
-380.931	-176.863	0.190	-0.005
-379.917	-56.947	0.262	-0.115
-378.902	-111.472	-0.534	0.108
-377.888	-16.300	0.220	0.139
-376.873	9.543	0.138	0.104
-375.858	647.067	0.080	0.205
-374.844	117.607	-0.196	0.240
-373.829	-7.790	-0.195	-0.131
-372.815	-147.897	0.291	-0.024
-371.800	-160.863	0.242	-0.013
-370.785	-83.185	-0.489	0.157
-369.771	-77.137	-0.111	-0.039
-368.756	-57.081	0.290	-0.128
-367.742	-72.351	0.215	-0.080
-366.727	800.000	0.075	-0.302
-365.712	34.028	-0.264	-0.229
-364.698	31.915	-0.139	-0.119
-363.683	-200.000	0.025	0.146
-362.669	-6.550	-0.025	0.017
-361.654	40.896	-0.084	-0.076
-360.639	393.486	0.049	-0.102
-359.625	43.000	-0.160	0.146
-358.610	-200.000	-0.000	0.182
-357.596	-2.917	0.176	-0.123
-356.581	-200.000	-0.012	-0.079
-355.566	-200.000	-0.033	-0.181
-354.552	-125.465	-0.143	-0.022
-353.537	-200.000	-0.018	-0.324
-352.523	-200.000	0.020	-0.135
-351.508	800.000	-0.025	0.088
-350.493	17.760	-0.162	0.128
-349.479	83.066	-0.080	0.087
-348.464	-138.989	-0.346	-0.037
-347.450	-200.000	0.010	0.071
-346.435	-139.406	0.084	0.009
-345.420	-57.340	0.201	-0.088
-344.406	800.000	-0.063	-0.261
-343.391	-10.897	0.206	-0.136
-342.377	-155.089	-0.138	0.009
-341.362	646.808	0.063	-0.161
-340.348	-200.000	-0.013	0.135
-339.333	176.918	0.050	-0.072
-338.318	-110.828	-0.250	-0.051
-337.304	-200.000	0.001	-0.040
-336.289	-157.987	0.127	-0.007
-335.275	141.751	-0.234	0.309
-334.260	-70.420	-0.272	0.103
-333.245	-200.000	0.007	-0.050
-332.231	549.436	0.016	0.039
-331.216	-74.521	-0.211	0.076
-330.202	-200.000	0.009	-0.274
-329.187	-20.839	-0.167	0.102
-328.172	-165.037	0.115	-0.005
-327.158	312.616	-0.078	-0.146
-326.143	-119.134	-0.293	-0.051
-325.129	492.638	0.097	-0.222
-324.114	-158.954	-0.096	-0.005
-323.099	117.546	-0.156	0.192
-322.085	547.492	0.126	-0.300
-321.070	-24.737	-0.341	-0.202
-320.056	-7.765	-0.150	0.101
-319.041	-85.810	0.394	-0.122
-318.026	59.262	0.148	-0.145
-317.012	93.540	-0.105	-0.119
-315.997	154.239	0.328	0.448
-314.983	-80.705	0.340	-0.113
-313.968	-142.303	-0.321	-0.032
-312.953	-200.000	0.039	0.287
-311.939	-200.000	-0.036	-0.218
-310.924	12.711	0.094	0.072
-309.910	283.200	-0.211	-0.377
-308.895	396.767	0.058	0.122
-307.880	29.400	-0.073	-0.062
-306.866	418.141	-0.189	-0.403
-305.851	-57.433	-0.242	0.106
-304.837	-200.000	0.026	-0.162
-303.822	-200.000	-0.057	-0.444
-302.807	-117.312	0.103	-0.019
-301.793	-59.203	-0.094	-0.040
-300.778	-76.482	-0.198	0.069
-299.764	-200.000	-0.118	-0.001
-298.749	4.835	0.264	0.193
-297.735	-200.000	0.020	-0.105
-296.720	190.996	-0.047	-0.070
-295.705	-38.540	0.216	0.114
-294.691	-200.000	0.011	-0.111
-293.676	800.000	0.030	0.112
-292.662	800.000	0.073	0.214
-291.647	800.000	0.053	0.177
-290.632	-200.000	0.015	0.213
-289.618	-101.029	-0.211	0.052
-288.603	118.520	0.188	0.231
-287.589	0.218	-0.210	0.149
-286.574	-127.841	0.118	0.017
-285.559	800.000	-0.042	0.178
-284.545	48.143	-0.194	-0.181
-283.530	327.583	0.070	0.134
-282.516	-200.000	0.023	-0.378
-281.501	29.879	0.086	0.073
-280.486	228.206	0.149	0.242
-279.472	175.294	0.106	0.153
-278.457	-156.404	-0.163	0.010
-277.443	-127.618	0.191	-0.028
-276.428	299.080	0.251	0.460
-275.413	-11.094	0.410	0.269
-274.399	-20.187	0.075	0.046
-273.384	-167.881	-0.234	0.009
-272.370	-158.304	0.072	-0.004
-271.355	-45.776	0.182	0.089
-270.340	43.291	-0.073	-0.066
-269.326	123.108	-0.138	-0.172
-268.311	492.092	-0.114	-0.260
-267.297	-18.417	-0.210	0.131
-266.282	-157.570	0.187	-0.011
-265.267	-134.556	-0.332	-0.040
-264.253	-69.374	0.429	-0.164
-263.238	254.466	0.032	-0.054
-262.224	-200.000	0.013	-0.081
-261.209	50.982	-0.167	-0.157
-260.195	25.351	0.103	0.085
-259.180	-137.803	0.257	0.029
-258.165	606.757	0.046	-0.113
-257.151	447.788	-0.076	0.165
-256.136	140.773	0.124	-0.163
-255.122	-121.233	0.203	-0.034
-254.107	-183.103	0.151	-0.003
-253.092	309.205	0.146	0.270
-252.078	642.628	-0.062	-0.156
-251.063	402.325	-0.025	0.051
-250.049	73.663	0.146	0.152
-249.034	-181.238	0.306	0.006
-248.019	43.630	0.079	-0.072
-247.005	19.219	0.253	0.202
-245.990	-94.717	0.107	-0.029
-244.976	73.485	-0.194	0.202
-243.961	-22.015	-0.409	0.247
-242.946	-9.519	-0.170	0.113
-241.932	38.671	-0.219	-0.194
-240.917	800.000	-0.070	-0.212
-239.903	98.068	0.152	0.174
-238.888	90.079	-0.197	0.219
-237.873	-200.000	-0.022	-0.112
-236.859	800.000	0.029	-0.124
-235.844	84.856	0.108	-0.118
-234.830	-200.000	-0.034	0.175
-233.815	172.309	0.165	-0.236
-232.800	-102.169	-0.064	0.015
-231.786	117.380	0.145	0.178
-230.771	-45.294	-0.191	-0.094
-229.757	-200.000	-0.055	0.246
-228.742	-200.000	0.002	0.193
-227.727	-162.286	0.360	0.018
-226.713	-132.252	0.187	0.024
-225.698	-200.000	-0.026	-0.194
-224.684	-200.000	0.035	0.338
-223.669	234.314	0.157	0.256
-222.655	114.092	-0.188	0.228
-221.640	78.622	-0.253	-0.268
-220.625	36.876	0.065	0.057
-219.611	397.841	-0.123	0.256
-218.596	-200.000	0.035	0.185
-217.582	-97.190	-0.049	0.013
-216.567	800.000	-0.018	-0.066
-215.552	23.090	0.297	-0.242
-214.538	190.390	-0.132	0.196
-213.523	182.996	0.229	-0.335
-212.509	-110.423	-0.052	0.011
-211.494	286.734	-0.040	-0.071
-210.479	-200.000	-0.005	-0.052
-209.465	-200.000	-0.055	0.308
-208.450	-87.649	0.392	0.118
-207.436	-139.959	0.396	0.041
-206.421	226.514	0.127	-0.204
-205.406	-12.599	0.064	0.041
-204.392	166.673	-0.031	0.044
-203.377	-200.000	0.018	0.305
-202.363	214.555	0.205	-0.322
-201.348	-140.334	0.444	0.046
-200.333	-134.906	-0.129	-0.016
-199.319	-52.627	-0.039	0.018
-198.304	3.225	0.185	0.134
-197.290	800.000	-0.064	-0.226
-196.275	800.000	-0.031	0.106
-195.260	-107.651	-0.406	0.088
-194.246	-66.140	0.134	-0.053
-193.231	116.533	-0.354	-0.430
-192.217	-64.194	0.199	-0.080
-191.202	-146.487	0.117	-0.010
-190.187	535.796	0.093	0.219
-189.173	-34.606	0.361	0.196
-188.158	-124.655	0.180	0.028
-187.144	-187.864	-0.218	-0.003
-186.129	-60.340	0.141	0.059
-185.114	185.932	-0.148	0.218
-184.100	333.542	0.157	-0.301
-183.085	800.000	0.089	-0.342
-182.071	800.000	-0.130	-0.498
-181.056	584.320	0.080	0.195
-180.042	0.008	0.242	0.171
-179.027	436.854	-0.053	0.115
-178.012	14.694	0.132	-0.102
-176.998	19.751	-0.222	-0.177
-175.983	372.336	-0.079	-0.159
-174.969	800.000	-0.041	-0.175
-173.954	-6.714	0.179	-0.120
-172.939	-120.453	0.119	-0.020
-171.925	-98.823	-0.199	-0.050
-170.910	-24.784	-0.161	0.095
-169.896	-12.010	-0.243	0.157
-168.881	-200.000	0.019	0.368
-167.866	-78.433	0.134	0.046
-166.852	-24.249	0.203	0.120
-165.837	291.078	-0.084	0.152
-164.823	800.000	-0.060	0.169
-163.808	333.124	0.102	0.195
-162.793	-200.000	-0.016	0.412
-161.779	-200.000	0.017	0.089
-160.764	-159.116	-0.117	-0.007
-159.750	-40.232	-0.041	-0.021
-158.735	408.638	0.088	-0.185
-157.720	31.381	0.034	-0.029
-156.706	490.295	-0.021	0.048
-155.691	191.404	-0.104	-0.155
-154.677	-56.542	-0.118	0.052
-153.662	-27.114	0.403	-0.233
-152.647	468.241	-0.121	-0.268
-151.633	31.200	0.352	-0.299
-150.618	-33.637	0.114	-0.062
-149.604	-43.020	-0.221	0.111
-148.589	-200.000	0.099	0.442
-147.574	68.009	-0.323	-0.327
-146.560	94.630	0.216	-0.243
-145.545	92.376	0.125	0.139
-144.531	-200.000	-0.030	0.398
-143.516	-70.290	-0.288	-0.108
-142.502	-188.269	-0.390	-0.005
-141.487	-26.321	0.224	0.130
-140.472	29.645	-0.304	-0.256
-139.458	-41.540	-0.260	-0.132
-138.443	300.419	-0.085	0.155
-137.429	-200.000	0.053	0.231
-136.414	-45.068	0.129	-0.063
-135.399	88.371	-0.097	-0.106
-134.385	-200.000	0.021	-0.336
-133.370	-200.000	-0.020	0.120
-132.356	-200.000	0.045	-0.208
-131.341	-200.000	0.037	-0.298
-130.326	55.941	-0.128	0.123
-129.312	-128.033	-0.150	-0.021
-128.297	800.000	-0.078	-0.251
-127.283	-200.000	0.011	-0.213
-126.268	-200.000	0.001	0.087
-125.253	-74.450	0.226	-0.081
-124.239	-89.021	0.129	0.038
-123.224	277.778	0.098	0.173
-122.210	-57.413	-0.078	0.034
-121.195	-200.000	-0.071	0.422
-120.180	-10.771	-0.332	-0.217
-119.166	221.483	0.109	0.174
-118.151	-200.000	-0.006	-0.087
-117.137	33.357	-0.334	0.287
-116.122	-25.725	0.148	0.086
-115.107	294.116	-0.173	0.312
-114.093	-113.397	-0.208	0.040
-113.078	-154.724	0.422	0.028
-112.064	-30.571	0.198	-0.111
-111.049	-41.969	-0.338	0.171
-110.034	98.977	0.165	0.188
-109.020	-200.000	-0.009	0.256
-108.005	-200.000	0.019	-0.137
-106.991	35.365	0.227	0.197
-105.976	9.926	0.253	-0.190
-104.962	800.000	-0.031	-0.105
-103.947	-42.001	-0.214	-0.108
-102.932	-19.453	0.002	-0.001
-101.918	456.157	-0.038	-0.084
-100.903	-162.255	-0.203	-0.010
-99.889	800.000	0.051	-0.158
-98.874	-200.000	0.028	-0.177
-97.859	20.296	-0.355	0.283
-96.845	16.206	-0.127	-0.099
-95.830	-200.000	-0.002	-0.375
-94.816	800.000	-0.044	-0.157
-93.801	-17.246	0.064	0.040
-92.786	315.543	-0.070	-0.130
-91.772	295.092	-0.074	0.134
-90.757	-200.000	0.003	-0.016
-89.743	-114.167	0.235	-0.045
-88.728	-125.383	-0.184	-0.028
-87.713	-200.000	-0.002	-0.137
-86.699	800.000	0.094	0.397
-85.684	-1.686	0.129	0.090
-84.670	-88.090	-0.270	0.080
-83.655	-200.000	0.040	-0.251
-82.640	-127.340	0.180	0.026
-81.626	800.000	-0.044	-0.181
-80.611	173.153	-0.179	-0.254
-79.597	-105.395	-0.144	0.032
-78.582	-200.000	-0.005	-0.321
-77.567	29.552	-0.167	0.140
-76.553	73.654	0.123	-0.127
-75.538	29.258	-0.150	-0.126
-74.524	800.000	-0.017	0.061
-73.509	800.000	-0.120	-0.427
-72.494	-40.783	0.446	-0.228
-71.480	800.000	0.160	-0.458
-70.465	-200.000	-0.493	0.001
-69.451	65.490	0.076	-0.076
-68.436	621.928	0.067	-0.166
-67.422	-186.607	0.445	-0.006
-66.407	-161.906	-0.459	-0.023
-65.392	80.186	0.198	0.210
-64.378	712.395	0.101	0.265
-63.363	-97.399	-0.327	0.084
-62.349	25.292	-0.158	0.129
-61.334	52.852	-0.948	-0.894
-60.319	-104.851	0.750	0.170
-59.305	800.000	-0.182	-0.691
-58.290	268.711	0.523	0.905
-57.276	440.265	0.777	1.675
-56.261	-200.000	91.584	505.397
-55.246	549.508	1379.263	3259.420
-54.232	182.741	2635.891	3834.012
-53.217	112.117	2344.838	2793.624
-52.203	45.659	1956.378	1781.915
-51.188	39.838	1741.389	1540.779
-50.173	37.184	1696.249	1480.567
-49.159	52.175	1743.254	1637.883
-48.144	55.619	1760.870	1681.013
-47.130	39.448	1717.906	1516.760
-46.115	36.734	1702.503	1482.344
-45.100	36.518	1697.536	1476.313
-44.086	36.540	1694.853	1474.087
-43.071	36.468	1692.297	1471.260
-42.057	36.465	1689.811	1469.014
-41.042	36.440	1687.799	1467.022
-40.027	36.532	1685.618	1465.764
-39.013	36.487	1683.803	1463.786
-37.998	36.540	1681.903	1462.477
-36.984	36.471	1680.874	1460.999
-35.969	36.626	1679.211	1460.668
-34.954	36.639	1677.475	1459.197
-33.940	36.589	1675.627	1457.156
-32.925	36.693	1673.777	1456.270
-31.911	36.588	1672.470	1454.290
-30.896	36.680	1670.338	1453.072
-29.881	36.600	1668.918	1451.172
-28.867	36.577	1667.422	1449.643
-27.852	36.730	1665.283	1448.874
-26.838	36.663	1664.121	1447.302
-25.823	36.604	1662.815	1445.669
-24.809	36.748	1661.186	1445.269
-23.794	36.674	1659.684	1443.355
-22.779	36.796	1657.869	1442.630
-21.765	36.633	1656.670	1440.314
-20.750	36.668	1654.975	1439.040
-19.736	36.682	1653.873	1438.128
-18.721	36.626	1651.896	1435.938
-17.706	36.711	1650.078	1434.930
-16.692	36.724	1648.409	1433.524
-15.677	36.670	1647.350	1432.142
-14.663	36.637	1646.399	1431.018
-13.648	36.662	1644.852	1429.802
-12.633	36.569	1643.372	1427.766
-11.619	36.716	1641.578	1427.236
-10.604	36.612	1639.747	1424.825
-9.590	36.747	1638.401	1424.593
-8.575	36.750	1636.894	1423.245
-7.560	36.628	1636.155	1421.651
-6.546	36.644	1634.729	1420.471
-5.531	36.656	1634.175	1420.025
-4.517	36.599	1632.755	1418.311
-3.502	36.552	1631.919	1417.187
-2.487	36.741	1630.134	1416.962
-1.473	36.184	1617.846	1402.180
-0.458	32.886	1595.353	1358.932
0.556	25.905	1594.172	1317.711
1.571	22.980	1618.070	1315.608
2.586	22.378	1631.543	1321.926
3.600	20.074	1579.120	1262.571
4.615	10.917	1463.565	1107.954
5.629	1.662	1392.827	994.075
6.644	-0.270	1383.453	974.759
7.659	-0.380	1382.087	972.994
8.673	-0.435	1380.806	971.652
9.688	-0.415	1379.127	970.512
10.702	-0.751	1376.397	966.334
11.717	2.631	1383.102	992.889
12.731	11.851	1400.857	1065.816
13.746	17.756	1410.015	1111.280
14.761	17.866	1409.034	1111.121
15.775	17.724	1408.384	1109.588
16.790	17.799	1407.626	1109.380
17.804	17.908	1407.117	1109.589
18.819	18.125	1406.184	1110.166
19.834	18.119	1405.799	1109.727
20.848	18.178	1404.941	1109.330
21.863	18.008	1404.869	1108.073
22.877	18.153	1403.122	1107.540
23.892	18.101	1402.536	1106.639
24.907	18.033	1401.845	1105.557
25.921	18.032	1400.760	1104.596
26.936	18.089	1400.049	1104.309
27.950	18.125	1398.591	1103.295
28.965	18.188	1397.045	1102.380
29.980	18.112	1395.939	1100.923
30.994	18.022	1395.016	1099.514
32.009	18.104	1393.329	1098.614
33.023	18.103	1392.432	1097.807
34.038	18.075	1391.107	1096.483
35.053	18.005	1390.331	1095.327
36.067	18.065	1388.894	1094.483
37.082	18.080	1387.754	1093.581
38.096	18.055	1387.440	1093.082
39.111	18.201	1385.525	1092.408
40.126	18.081	1385.466	1091.495
41.140	18.037	1384.944	1090.706
42.155	18.046	1384.442	1090.272
43.169	18.118	1384.257	1090.491
44.184	18.025	1383.966	1089.573
45.199	18.142	1383.367	1089.748
46.213	18.150	1382.246	1088.822
47.228	18.034	1381.924	1087.733
48.242	18.072	1380.443	1086.713
49.257	18.151	1378.616	1085.678
50.271	18.011	1377.312	1083.670
51.286	17.944	1376.428	1082.450
52.301	18.028	1374.967	1081.742
53.315	18.088	1374.249	1081.462
54.330	17.988	1373.384	1080.047
55.344	18.028	1372.514	1079.525
56.359	18.008	1371.341	1078.379
57.374	18.064	1370.075	1077.644
58.388	18.083	1369.516	1077.223
59.403	18.127	1368.844	1076.878
60.417	18.072	1368.409	1076.097
61.432	18.251	1366.910	1075.948
62.447	18.086	1366.225	1074.276
63.461	18.080	1365.119	1073.271
64.476	18.166	1363.799	1072.677
65.490	18.103	1362.632	1071.274
66.505	18.108	1361.065	1069.974
67.520	18.083	1359.943	1068.841
68.534	18.099	1358.591	1067.783
69.549	18.172	1357.653	1067.409
70.563	18.110	1356.419	1065.957
71.578	18.049	1355.963	1065.123
72.593	18.068	1355.037	1064.424
73.607	18.040	1354.334	1063.602
74.622	18.085	1353.127	1062.843
75.636	18.078	1352.169	1061.952
76.651	18.161	1351.571	1061.904
77.666	18.026	1351.556	1060.956
78.680	18.059	1350.999	1060.631
79.695	18.134	1349.676	1059.961
80.709	18.119	1349.018	1059.262
81.724	18.185	1347.527	1058.403
82.739	18.067	1347.110	1057.254
83.753	18.080	1345.822	1056.229
84.768	18.008	1344.446	1054.611
85.782	18.125	1343.299	1054.342
86.797	18.173	1341.484	1053.120
87.812	18.079	1340.534	1051.700
88.826	18.166	1339.555	1051.374
89.841	18.166	1338.665	1050.583
90.855	18.156	1337.410	1049.445
91.870	18.117	1336.814	1048.643
92.884	18.119	1335.731	1047.714
93.899	18.143	1334.748	1046.994
94.914	18.264	1333.390	1046.581
95.928	18.181	1333.022	1045.688
96.943	18.205	1332.196	1045.096
97.957	18.151	1331.261	1043.943
98.972	18.165	1330.618	1043.428
99.987	18.191	1329.149	1042.344
101.001	18.095	1328.272	1040.979
102.016	18.127	1326.923	1040.026
103.030	18.203	1325.716	1039.446
104.045	18.153	1325.270	1038.702
105.060	18.233	1323.709	1037.872
106.074	18.236	1322.574	1036.912
107.089	18.305	1321.236	1036.188
108.103	18.062	1321.029	1034.461
109.118	18.212	1319.182	1033.829
110.133	18.165	1317.627	1032.238
111.147	18.244	1316.372	1031.640
112.162	18.344	1314.971	1031.050
113.176	18.259	1314.197	1029.844
114.191	18.236	1312.938	1028.625
115.206	18.193	1312.116	1027.630
116.220	18.221	1310.496	1026.439
117.235	18.184	1310.034	1025.769
118.249	18.239	1308.368	1024.699
119.264	18.246	1307.276	1023.797
120.279	18.302	1306.680	1023.572
121.293	18.322	1305.335	1022.552
122.308	18.366	1304.338	1021.940
123.322	18.298	1303.255	1020.596
124.337	18.257	1302.416	1019.606
125.352	18.335	1301.123	1018.969
126.366	18.285	1299.971	1017.676
127.381	18.209	1299.406	1016.690
128.395	18.272	1297.891	1015.789
129.410	18.255	1297.306	1015.142
130.424	18.270	1296.341	1014.385
131.439	18.292	1295.338	1013.643
132.454	18.307	1294.259	1012.796
133.468	18.202	1293.695	1011.643
134.483	18.220	1292.961	1011.086
135.497	18.268	1291.729	1010.320
136.512	18.154	1290.899	1008.907
137.527	18.172	1289.775	1008.044
138.541	18.311	1287.576	1007.057
139.556	18.224	1286.307	1005.465
140.570	18.084	1285.822	1004.173
141.585	18.221	1284.029	1003.485
142.600	18.190	1283.014	1002.422
143.614	18.207	1282.131	1001.746
144.629	18.321	1280.450	1001.006
145.643	18.161	1279.440	999.196
146.658	18.171	1278.508	998.439
147.673	18.179	1277.458	997.578
148.687	18.266	1276.476	997.227
149.702	18.099	1275.210	995.179
150.716	18.095	1274.082	994.185
151.731	18.240	1272.929	994.039
152.746	18.193	1271.582	992.631
153.760	18.222	1270.344	991.746
154.775	18.303	1269.137	991.182
155.789	18.363	1267.950	990.514
156.804	18.184	1267.423	988.979
157.819	18.170	1266.298	987.931
158.833	18.316	1265.245	987.870
159.848	18.339	1264.382	987.240
160.862	18.344	1263.359	986.382
161.877	18.298	1262.768	985.567
162.892	18.353	1261.895	985.115
163.906	18.424	1260.736	984.534
164.921	18.456	1259.939	984.004
165.935	18.359	1259.246	982.821
166.950	18.290	1258.481	981.739
167.964	18.330	1257.806	981.359
168.979	18.278	1257.619	980.828
169.994	18.341	1256.689	980.373
171.008	18.449	1256.047	980.404
172.023	18.369	1255.151	979.164
173.037	18.285	1254.759	978.293
174.052	18.343	1253.659	977.676
175.067	18.408	1252.516	977.072
176.081	18.351	1252.111	976.340
177.096	18.319	1251.568	975.649
178.110	18.442	1249.801	974.885
179.125	18.346	1249.077	973.691
180.140	18.469	1247.892	973.377
181.154	18.421	1246.439	971.888
182.169	18.424	1245.545	971.122
183.183	18.412	1244.468	970.126
184.198	18.370	1243.719	969.220
185.213	18.349	1242.942	968.408
186.227	18.404	1241.977	967.883
187.242	18.427	1241.323	967.418
188.256	18.418	1240.195	966.404
189.271	18.362	1239.505	965.462
190.286	18.492	1238.242	965.124
191.300	18.448	1237.813	964.457
192.315	18.414	1237.334	963.807
193.329	18.384	1237.189	963.441
194.344	18.445	1236.231	962.955
195.359	18.450	1236.018	962.730
196.373	18.380	1235.232	961.641
197.388	18.423	1234.923	961.553
198.402	18.330	1234.294	960.457
199.417	18.411	1233.677	960.350
200.432	18.429	1233.180	959.975
201.446	18.346	1232.710	959.059
202.461	18.511	1231.559	959.003
203.475	18.388	1230.793	957.634
204.490	18.423	1229.551	956.777
205.504	18.495	1228.429	956.224
206.519	18.515	1227.485	955.513
207.534	18.464	1226.526	954.401
208.548	18.464	1225.874	953.809
209.563	18.439	1224.762	952.719
210.577	18.475	1223.884	952.154
211.592	18.439	1223.414	951.505
212.607	18.586	1222.253	951.331
213.621	18.529	1221.916	950.671
214.636	18.626	1220.544	950.056
215.650	18.561	1219.767	949.006
216.665	18.539	1218.772	948.026
217.680	18.576	1217.925	947.485
218.694	18.561	1217.249	946.797
219.709	18.560	1216.633	946.228
220.723	18.636	1215.882	945.976
221.738	18.518	1215.077	944.620
222.753	18.580	1214.492	944.419
223.767	18.641	1213.883	944.197
224.782	18.664	1213.238	943.741
225.796	18.637	1212.739	943.119
226.811	18.611	1212.201	942.478
227.826	18.631	1211.415	941.892
228.840	18.630	1210.847	941.362
229.855	18.548	1210.501	940.561
230.869	18.628	1209.413	940.067
231.884	18.713	1208.431	939.688
232.899	18.669	1207.606	938.723
233.913	18.643	1207.380	938.318
234.928	18.728	1206.795	938.246
235.942	18.637	1206.310	937.288
236.957	18.646	1205.513	936.636
237.972	18.762	1204.624	936.497
238.986	18.745	1203.987	935.825
240.001	18.742	1203.366	935.241
241.015	18.684	1202.777	934.388
242.030	18.733	1201.805	933.816
243.045	18.854	1200.857	933.656
244.059	18.870	1200.323	933.243
245.074	18.767	1199.688	932.106
246.088	18.873	1198.527	931.697
247.103	18.730	1197.811	930.284
248.117	18.734	1197.027	929.613
249.132	18.779	1196.066	929.028
250.147	18.851	1195.141	928.618
251.161	18.835	1194.765	928.158
252.176	18.875	1193.684	927.450
253.190	18.928	1193.272	927.335
254.205	18.811	1192.887	926.322
255.220	18.922	1191.930	926.094
256.234	18.873	1191.305	925.267
257.249	18.886	1190.977	925.000
258.263	18.872	1190.045	924.115
259.278	18.940	1189.822	924.225
260.293	18.828	1189.547	923.330
261.307	18.934	1188.775	923.220
262.322	18.929	1188.198	922.661
263.336	18.929	1187.553	922.080
264.351	18.877	1187.010	921.296
265.366	18.889	1185.885	920.404
266.380	18.886	1185.501	920.010
267.395	18.948	1184.859	919.765
268.409	18.875	1184.084	918.689
269.424	18.881	1183.409	918.115
270.439	18.874	1183.301	917.918
271.453	18.850	1182.735	917.268
272.468	18.995	1181.093	916.687
273.482	18.911	1180.621	915.792
274.497	18.995	1180.413	915.997
275.512	19.016	1179.383	915.225
276.526	18.974	1178.605	914.321
277.541	19.079	1177.797	914.170
278.555	18.928	1177.720	913.223
279.570	18.976	1176.801	912.689
280.585	19.060	1175.797	912.273
281.599	19.005	1174.890	911.199
282.614	19.026	1174.028	910.561
283.628	19.082	1172.672	909.724
284.643	19.101	1172.046	909.259
285.657	19.013	1171.850	908.561
286.672	19.049	1170.641	907.733
287.687	19.157	1169.531	907.360
288.701	19.214	1168.820	907.028
289.716	19.075	1168.294	905.807
290.730	19.070	1167.747	905.276
291.745	19.126	1167.052	904.953
292.760	19.082	1166.494	904.210
293.774	19.075	1166.089	903.779
294.789	19.130	1165.230	903.322
295.803	19.191	1164.613	903.082
296.818	19.252	1163.783	902.681
297.833	19.133	1163.479	901.738
298.847	19.166	1162.568	901.127
299.862	19.158	1161.493	900.170
300.876	19.240	1160.757	899.950
301.891	19.191	1160.574	899.475
302.906	19.217	1159.728	898.871
303.920	19.264	1159.264	898.680
304.935	19.249	1158.278	897.759
305.949	19.333	1157.501	897.514
306.964	19.213	1157.414	896.741
307.979	19.257	1156.349	896.067
308.993	19.255	1155.841	895.583
310.008	19.242	1155.060	894.830
311.022	19.307	1154.028	894.290
312.037	19.331	1153.654	894.047
313.052	19.419	1152.635	893.630
314.066	19.292	1151.806	892.252
315.081	19.322	1151.141	891.816
316.095	19.471	1150.340	891.885
317.110	19.345	1149.919	890.827
318.125	19.374	1149.251	890.384
319.139	19.310	1148.692	889.541
320.154	19.389	1147.915	889.268
321.168	19.396	1147.041	888.549
322.183	19.419	1146.663	888.291
323.197	19.364	1145.884	887.328
324.212	19.414	1145.442	887.163
325.227	19.512	1145.043	887.280
326.241	19.335	1144.719	886.043
327.256	19.342	1143.979	885.426
328.270	19.405	1142.491	884.518
329.285	19.460	1141.988	884.335
330.300	19.410	1140.976	883.218
331.314	19.519	1140.221	883.110
332.329	19.459	1139.396	882.087
333.343	19.524	1138.379	881.555
334.358	19.534	1137.611	880.933
335.373	19.494	1137.037	880.207
336.387	19.523	1136.242	879.662
337.402	19.678	1135.130	879.510
338.416	19.647	1135.081	879.235
339.431	19.554	1134.472	878.216
340.446	19.586	1133.565	877.595
341.460	19.619	1133.258	877.447
342.475	19.602	1132.245	876.503
343.489	19.618	1131.214	875.705
344.504	19.756	1129.894	875.308
345.519	19.692	1129.670	874.731
346.533	19.479	1129.400	873.366
347.548	19.666	1128.238	873.334
348.562	19.778	1127.184	873.009
349.577	19.744	1126.499	872.226
350.592	19.794	1125.991	872.010
351.606	19.775	1125.159	871.191
352.621	19.712	1124.623	870.386
353.635	19.715	1124.132	869.944
354.650	19.649	1123.782	869.262
355.665	19.782	1122.720	869.033
356.679	19.773	1122.139	868.459
357.694	19.774	1121.756	868.092
358.708	19.822	1121.177	867.809
359.723	19.774	1120.075	866.638
360.738	19.717	1119.506	865.838
361.752	19.844	1118.776	865.831
362.767	19.817	1118.818	865.650
363.781	19.796	1118.104	864.915
364.796	19.927	1116.987	864.630
365.810	19.931	1116.639	864.304
366.825	19.961	1116.051	863.924
367.840	19.960	1115.438	863.365
368.854	19.926	1115.073	862.839
369.869	19.762	1114.415	861.436
370.883	19.980	1113.146	861.465
371.898	19.969	1112.748	861.024
372.913	19.900	1112.471	860.390
373.927	19.815	1112.205	859.686
374.942	20.002	1111.278	859.825
375.956	19.873	1110.720	858.674
376.971	19.956	1109.896	858.372
377.986	20.008	1109.666	858.377
379.000	19.979	1109.371	857.928
380.015	19.954	1108.788	857.277
381.029	20.026	1107.821	856.812
382.044	20.008	1106.986	856.001
383.059	20.044	1106.502	855.727
384.073	20.048	1105.610	854.981
385.088	20.089	1104.564	854.301
386.102	20.057	1103.869	853.528
387.117	20.139	1102.760	853.002
388.132	20.124	1101.891	852.178
389.146	20.110	1101.042	851.380
390.161	20.139	1100.696	851.175
391.175	20.107	1100.277	850.619
392.190	20.130	1099.586	850.123
393.205	20.116	1098.533	849.166
394.219	20.130	1097.795	848.588
395.234	20.240	1096.960	848.404
396.248	20.204	1095.854	847.300
397.263	20.157	1094.826	846.203
398.278	20.212	1094.537	846.171
399.292	20.332	1093.871	846.165
400.307	20.246	1093.049	845.036
401.321	20.230	1092.327	844.325
402.336	20.192	1091.806	843.665
403.350	20.260	1091.024	843.314
404.365	20.231	1090.214	842.472
405.380	20.242	1089.370	841.800
406.394	20.302	1088.810	841.583
407.409	20.430	1087.862	841.399
408.423	20.451	1086.995	840.756
409.438	20.377	1086.453	839.902
410.453	20.404	1085.894	839.526
411.467	20.437	1085.496	839.303
412.482	20.363	1084.497	838.102
413.496	20.444	1083.791	837.871
414.511	20.340	1083.263	836.886
415.526	20.304	1082.972	836.413
416.540	20.369	1082.551	836.328
417.555	20.366	1081.845	835.695
418.569	20.438	1081.300	835.547
419.584	20.427	1080.887	835.102
420.599	20.476	1080.629	835.063
421.613	145.813	1394.884	1786.935
422.628	134.743	1440.659	1787.037
