DTS Sentinel unit serial number:	SN413079Multiplexer serial number:	ORYXHardware model number:	OX4-SRSoftware version number:	ORYX F/W v4.00 Oryx Data Collector v3.7.2.0data status	okinstallation	princeton_trtdifferential loss correction	single-endedforward channel	channel 2reverse channel	N/Adate	2019/09/18time	13:03:35forward acquisition time	60.00reverse acquisition time	0.00gamma	496.2192k internal	0.2320k external	0.2320temperature offset calibration	0.9992default loss term (dB/km)	0.3790temperature slope calibration	1.0000multiplexer offset coefficient	1.0000multiplexer slope coefficient	1.0000fibre end	0.00T internal ref (°C)	33.55T ext. ref 1 (°C)	0.57T ext. ref 2 (°C)	31.88length (m)	temperature (°C)	Stokes	anti-Stokes-747.200	-200.000	-0.000	0.081
-746.185	763.309	0.063	-0.173
-745.171	-115.129	0.109	-0.021
-744.156	-200.000	-0.044	0.303
-743.142	120.398	0.036	0.046
-742.127	146.895	-0.190	0.258
-741.112	-67.820	-0.017	0.007
-740.098	-65.223	0.040	0.016
-739.083	-200.000	-0.001	-0.168
-738.069	-200.000	-0.014	0.320
-737.054	-101.211	-0.077	0.019
-736.039	680.825	-0.051	0.135
-735.025	-200.000	0.022	0.152
-734.010	-200.000	-0.042	-0.252
-732.996	-124.315	-0.127	0.020
-731.981	57.483	-0.069	0.068
-730.966	161.828	0.077	0.110
-729.952	47.262	-0.091	-0.085
-728.937	-9.220	0.282	-0.191
-727.923	89.414	0.183	0.206
-726.908	-20.883	0.181	0.112
-725.894	-6.893	-0.163	0.112
-724.879	122.609	-0.198	-0.250
-723.864	-16.262	0.139	-0.089
-722.850	20.574	-0.122	-0.099
-721.835	-200.000	0.056	-0.562
-720.821	-200.000	-0.022	-0.249
-719.806	243.420	-0.159	-0.270
-718.791	-200.000	0.082	-0.367
-717.777	-21.701	-0.091	0.056
-716.762	-161.860	-0.280	-0.014
-715.748	-100.582	-0.220	-0.055
-714.733	179.245	-0.203	-0.300
-713.718	-39.271	0.144	0.076
-712.704	800.000	0.062	-0.212
-711.689	46.203	0.272	-0.254
-710.675	-106.239	-0.310	-0.070
-709.660	27.496	-0.249	-0.212
-708.645	800.000	0.026	0.083
-707.631	-61.399	0.543	0.230
-706.616	-200.000	-0.007	-0.100
-705.602	800.000	-0.091	-0.293
-704.587	-8.229	0.231	0.157
-703.572	800.000	-0.034	-0.140
-702.558	-32.930	0.080	0.045
-701.543	52.301	0.136	-0.131
-700.529	-119.509	-0.279	0.049
-699.514	76.901	-0.187	-0.200
-698.499	95.138	-0.149	-0.171
-697.485	800.000	0.040	-0.127
-696.470	-1.700	-0.282	-0.200
-695.456	-155.955	-0.196	-0.013
-694.441	88.097	-0.165	0.185
-693.426	-86.816	-0.337	-0.104
-692.412	-97.494	-0.102	-0.027
-691.397	75.608	0.104	0.111
-690.383	-200.000	-0.016	0.199
-689.368	-60.364	-0.204	-0.088
-688.354	-132.342	-0.218	0.028
-687.339	254.799	-0.098	-0.169
-686.324	11.264	-0.166	-0.128
-685.310	183.557	-0.209	-0.312
-684.295	-200.000	0.028	0.215
-683.281	-89.034	-0.201	0.060
-682.266	-104.539	-0.354	-0.082
-681.251	172.979	0.088	0.127
-680.237	800.000	0.099	0.291
-679.222	-16.301	-0.104	-0.067
-678.208	-22.824	-0.430	-0.262
-677.193	372.180	-0.128	-0.262
-676.178	800.000	-0.152	-0.475
-675.164	39.796	-0.289	-0.262
-674.149	-140.871	0.096	0.010
-673.135	-1.548	-0.119	-0.085
-672.120	8.854	-0.274	-0.208
-671.105	-200.000	0.032	-0.521
-670.091	605.481	-0.057	0.143
-669.076	-144.537	-0.299	-0.028
-668.062	-97.486	0.198	-0.052
-667.047	-157.145	-0.217	0.013
-666.032	75.253	-0.244	-0.259
-665.018	-200.000	0.058	-0.303
-664.003	-32.373	-0.328	-0.184
-662.989	-98.350	-0.142	0.037
-661.974	-72.452	0.038	-0.014
-660.959	-42.257	-0.398	-0.205
-659.945	-108.162	-0.327	-0.071
-658.930	-200.000	-0.012	-0.154
-657.916	-62.334	0.111	-0.047
-656.901	800.000	0.082	-0.240
-655.886	-57.308	0.169	-0.075
-654.872	-22.833	-0.159	0.097
-653.857	262.093	-0.131	0.229
-652.843	23.702	0.113	-0.094
-651.828	792.354	-0.056	-0.156
-650.814	-99.608	-0.313	0.079
-649.799	-161.478	0.216	0.011
-648.784	-90.050	-0.388	-0.114
-647.770	-177.402	-0.034	-0.001
-646.755	-30.626	0.101	-0.057
-645.741	186.353	-0.062	0.092
-644.726	-28.589	-0.292	-0.170
-643.711	369.920	0.186	0.379
-642.697	712.365	-0.103	0.276
-641.682	197.755	-0.120	0.185
-640.668	-200.000	0.032	0.244
-639.653	-105.124	0.399	-0.092
-638.638	-200.000	-0.024	-0.240
-637.624	-175.607	0.358	-0.010
-636.609	-77.206	0.041	0.014
-635.595	-102.398	-0.074	-0.018
-634.580	44.382	0.082	0.076
-633.565	254.402	0.063	0.108
-632.551	73.334	0.050	0.053
-631.536	-105.484	-0.371	-0.085
-630.522	-121.672	0.065	0.011
-629.507	104.807	-0.288	0.342
-628.492	-200.000	-0.131	0.637
-627.478	369.881	0.158	0.321
-626.463	800.000	-0.047	-0.133
-625.449	149.222	0.084	-0.115
-624.434	86.431	0.236	0.262
-623.419	188.143	-0.210	-0.316
-622.405	-200.000	0.012	-0.197
-621.390	800.000	0.019	-0.073
-620.376	52.612	-0.103	0.099
-619.361	-22.891	0.103	0.063
-618.346	800.000	-0.072	0.271
-617.332	215.291	-0.083	0.133
-616.317	774.228	0.060	-0.164
-615.303	109.601	-0.172	-0.208
-614.288	-200.000	-0.057	0.279
-613.273	140.487	0.130	-0.173
-612.259	46.783	-0.231	-0.216
-611.244	-44.488	-0.074	-0.037
-610.230	17.985	0.180	-0.144
-609.215	-52.870	0.338	-0.157
-608.201	80.123	-0.185	-0.201
-607.186	-111.098	0.441	-0.091
-606.171	-122.052	0.111	-0.018
-605.157	-200.000	-0.030	-0.528
-604.142	764.385	-0.196	-0.534
-603.128	501.375	0.086	0.200
-602.113	-134.234	0.121	0.015
-601.098	-138.861	-0.270	0.030
-600.084	-200.000	-0.013	0.365
-599.069	-200.000	0.002	0.134
-598.055	-158.493	-0.035	0.002
-597.040	-200.000	-0.001	0.013
-596.025	800.000	0.076	0.220
-595.011	-65.996	0.189	-0.076
-593.996	15.568	-0.060	-0.047
-592.982	773.495	-0.100	-0.274
-591.967	800.000	-0.043	-0.154
-590.952	92.972	-0.243	-0.276
-589.938	-86.994	-0.168	0.051
-588.923	-153.624	0.131	0.009
-587.909	-125.013	-0.161	-0.025
-586.894	-200.000	-0.038	-0.200
-585.879	152.429	0.091	-0.125
-584.865	-200.000	0.004	0.213
-583.850	-19.816	-0.140	0.087
-582.836	-185.966	0.287	-0.004
-581.821	-200.000	-0.013	0.223
-580.806	-120.772	0.224	-0.038
-579.792	45.002	0.214	0.198
-578.777	-3.998	0.196	0.137
-577.763	187.691	-0.105	-0.158
-576.748	-200.000	0.006	0.265
-575.733	83.397	0.230	0.252
-574.719	-200.000	0.008	-0.111
-573.704	-121.624	-0.109	-0.018
-572.690	-200.000	-0.017	-0.124
-571.675	337.471	-0.167	-0.326
-570.661	-55.966	-0.319	0.143
-569.646	60.319	-0.163	-0.162
-568.631	743.585	-0.046	-0.123
-567.617	754.849	-0.063	-0.170
-566.602	211.818	-0.080	-0.127
-565.588	-69.785	-0.211	-0.081
-564.573	688.427	-0.053	-0.139
-563.558	-131.588	0.307	0.041
-562.544	-200.000	0.042	-0.217
-561.529	-57.561	0.103	-0.045
-560.515	391.338	-0.094	-0.195
-559.500	-82.491	0.091	0.029
-558.485	65.806	-0.284	0.288
-557.471	-200.000	-0.014	-0.168
-556.456	362.771	-0.061	-0.122
-555.442	64.456	-0.211	0.214
-554.427	-42.937	-0.143	-0.073
-553.412	63.367	-0.114	-0.115
-552.398	772.196	0.049	0.134
-551.383	-105.811	-0.116	-0.026
-550.369	253.152	-0.115	0.197
-549.354	-52.332	0.270	-0.126
-548.339	800.000	-0.095	0.287
-547.325	-200.000	0.011	-0.354
-546.310	183.536	-0.238	-0.353
-545.296	-197.040	0.262	-0.002
-544.281	171.840	0.275	-0.397
-543.266	-61.444	0.440	-0.186
-542.252	-18.930	-0.140	-0.087
-541.237	-200.000	0.154	0.000
-540.223	-19.140	0.091	-0.057
-539.208	-108.950	-0.065	-0.014
-538.193	800.000	-0.061	-0.195
-537.179	800.000	-0.092	-0.372
-536.164	334.486	0.135	-0.262
-535.150	140.011	0.144	-0.190
-534.135	120.518	0.132	-0.164
-533.121	-161.581	-0.016	-0.001
-532.106	83.441	-0.063	-0.069
-531.091	-200.000	-0.345	0.001
-530.077	-200.000	-0.016	0.163
-529.062	800.000	0.085	0.284
-528.048	-121.879	0.119	0.020
-527.033	-20.822	0.122	0.075
-526.018	-94.680	-0.244	0.066
-525.004	-195.969	-0.281	-0.002
-523.989	0.612	-0.331	0.238
-522.975	-64.330	-0.200	0.082
-521.960	-138.492	0.105	-0.012
-520.945	-200.000	0.010	-0.058
-519.931	-53.223	-0.053	-0.025
-518.916	38.946	0.344	0.308
-517.902	-67.810	0.254	-0.100
-516.887	622.581	0.098	0.247
-515.872	-45.309	0.097	-0.048
-514.858	594.960	-0.083	0.205
-513.843	69.595	0.090	0.093
-512.829	-200.000	-0.020	-0.088
-511.814	32.924	0.140	0.121
-510.799	-73.653	0.217	-0.079
-509.785	269.499	0.011	0.020
-508.770	62.047	-0.247	0.246
-507.756	-130.906	-0.250	-0.034
-506.741	676.007	-0.059	0.152
-505.726	50.982	-0.170	0.162
-504.712	-143.201	-0.224	0.022
-503.697	800.000	-0.015	0.057
-502.683	261.512	-0.056	-0.097
-501.668	-59.428	-0.402	-0.173
-500.653	739.620	-0.045	0.120
-499.639	240.220	-0.205	0.342
-498.624	-37.679	-0.117	0.062
-497.610	374.555	0.101	0.206
-496.595	-200.000	0.040	-0.187
-495.581	-66.848	0.224	0.089
-494.566	363.253	-0.020	0.040
-493.551	-113.410	-0.250	0.049
-492.537	-200.000	-0.005	0.169
-491.522	-141.577	0.373	0.038
-490.508	-200.000	-0.006	0.193
-489.493	-94.130	-0.394	0.108
-488.478	282.837	-0.198	-0.356
-487.464	-113.282	-0.303	0.060
-486.449	5.582	0.252	0.187
-485.435	737.823	0.108	0.289
-484.420	167.177	0.172	0.245
-483.405	800.000	-0.076	0.253
-482.391	-194.008	-0.368	0.003
-481.376	-58.733	-0.294	0.127
-480.362	-4.903	-0.107	-0.074
-479.347	-9.729	-0.154	0.102
-478.332	4.854	-0.175	0.129
-477.318	474.616	-0.061	-0.138
-476.303	-61.681	-0.130	0.055
-475.289	-139.541	0.428	0.046
-474.274	25.206	-0.159	-0.132
-473.259	13.281	0.121	0.093
-472.245	-188.908	-0.189	-0.002
-471.230	-110.559	0.392	-0.081
-470.216	-200.000	-0.057	-0.389
-469.201	54.351	0.069	-0.066
-468.186	-148.602	0.183	-0.015
-467.172	-160.717	0.279	-0.015
-466.157	800.000	0.040	-0.128
-465.143	-141.796	-0.225	-0.023
-464.128	40.567	-0.154	0.139
-463.113	16.033	-0.052	0.041
-462.099	164.669	0.216	-0.304
-461.084	-50.968	0.276	-0.130
-460.070	-123.104	0.278	-0.045
-459.055	-8.327	-0.087	0.059
-458.040	258.582	0.099	0.170
-457.026	800.000	0.082	0.271
-456.011	-12.291	-0.112	0.073
-454.997	-200.000	0.049	-0.217
-453.982	384.957	-0.126	-0.259
-452.968	24.753	-0.179	0.148
-451.953	-200.000	0.015	0.230
-450.938	-97.821	0.084	-0.022
-449.924	-51.009	0.117	-0.055
-448.909	-147.195	0.173	0.015
-447.895	377.738	-0.084	-0.172
-446.880	800.000	-0.011	0.033
-445.865	733.071	0.119	0.319
-444.851	-200.000	-0.028	0.322
-443.836	472.956	-0.102	-0.231
-442.822	-116.053	0.217	0.040
-441.807	415.989	0.057	-0.122
-440.792	-97.336	-0.022	0.006
-439.778	-200.000	0.001	0.139
-438.763	202.921	-0.061	-0.094
-437.749	800.000	-0.072	0.227
-436.734	326.062	-0.125	-0.239
-435.719	-200.000	0.031	0.193
-434.705	-156.022	-0.203	0.013
-433.690	-200.000	-0.043	-0.269
-432.676	-200.000	-0.068	0.495
-431.661	32.201	-0.384	0.331
-430.646	-113.982	-0.240	-0.046
-429.632	-200.000	0.029	-0.162
-428.617	708.891	-0.042	-0.111
-427.603	800.000	0.073	-0.287
-426.588	11.632	-0.056	-0.043
-425.573	-200.000	0.027	-0.119
-424.559	36.231	0.225	-0.198
-423.544	-200.000	-0.068	-0.443
-422.530	-8.882	-0.178	-0.119
-421.515	-114.440	0.358	0.069
-420.500	6.111	0.332	-0.246
-419.486	-200.000	-0.013	-0.113
-418.471	-109.780	0.263	-0.055
-417.457	-200.000	-0.017	-0.158
-416.442	115.862	-0.086	-0.105
-415.428	149.289	0.305	-0.412
-414.413	-94.238	0.046	0.013
-413.398	301.601	0.063	-0.117
-412.384	411.517	0.079	-0.168
-411.369	263.519	0.132	-0.229
-410.355	467.939	0.035	0.078
-409.340	-105.316	0.303	0.069
-408.325	-200.000	-0.045	-0.248
-407.311	-31.013	-0.215	0.121
-406.296	200.215	0.098	-0.150
-405.282	-165.851	0.050	-0.002
-404.267	-200.000	-0.040	0.219
-403.252	169.533	-0.118	0.168
-402.238	800.000	-0.076	0.244
-401.223	800.000	0.071	0.238
-400.209	371.328	-0.037	0.074
-399.194	134.349	-0.130	-0.168
-398.179	39.281	-0.194	0.173
-397.165	800.000	0.050	0.205
-396.150	-115.561	0.338	0.063
-395.136	-85.747	-0.050	-0.016
-394.121	-200.000	-0.049	-0.264
-393.106	-200.000	0.072	-0.368
-392.092	23.215	-0.386	-0.316
-391.077	-28.178	0.249	-0.144
-390.063	-102.080	-0.365	0.088
-389.048	-124.877	-0.579	0.089
-388.033	800.000	0.024	0.082
-387.019	800.000	-0.101	-0.307
-386.004	-94.646	-0.097	0.026
-384.990	-93.665	0.276	-0.076
-383.975	-200.000	-0.005	-0.024
-382.960	319.755	-0.039	-0.074
-381.946	-18.686	-0.362	-0.225
-380.931	-2.460	-0.189	-0.132
-379.917	-200.000	-0.041	0.194
-378.902	-2.893	-0.100	0.069
-377.888	-199.189	0.176	0.001
-376.873	555.371	0.098	-0.236
-375.858	648.901	0.053	-0.136
-374.844	-48.365	0.085	-0.041
-373.829	-200.000	-0.024	0.155
-372.815	61.492	0.199	0.197
-371.800	-200.000	0.051	-0.296
-370.785	66.810	-0.072	-0.073
-369.771	-200.000	-0.010	0.076
-368.756	-141.560	0.215	-0.022
-367.742	23.610	0.128	-0.105
-366.727	-129.557	-0.194	-0.027
-365.712	4.712	-0.282	0.207
-364.698	-88.752	-0.347	0.103
-363.683	84.617	-0.134	-0.146
-362.669	-30.003	0.038	0.022
-361.654	-6.444	-0.162	0.110
-360.639	800.000	0.124	-0.424
-359.625	800.000	-0.062	-0.190
-358.610	-165.559	-0.382	0.017
-357.596	235.872	-0.092	0.151
-356.581	9.820	0.029	-0.022
-355.566	-200.000	0.020	-0.186
-354.552	-73.980	0.160	0.058
-353.537	-148.743	-0.287	0.023
-352.523	582.347	-0.093	-0.227
-351.508	56.678	0.218	0.212
-350.493	-120.551	-0.329	0.055
-349.479	-19.520	0.183	0.113
-348.464	52.143	0.209	-0.198
-347.450	48.102	-0.134	-0.125
-346.435	-200.000	0.000	-0.075
-345.420	-200.000	-0.003	-0.233
-344.406	-200.000	0.005	-0.118
-343.391	-18.544	-0.184	0.114
-342.377	-24.431	-0.015	-0.009
-341.362	28.532	0.132	-0.111
-340.348	282.807	-0.171	0.306
-339.333	-200.000	-0.023	-0.136
-338.318	-26.045	0.104	-0.061
-337.304	262.249	0.203	0.350
-336.289	72.993	0.232	0.242
-335.275	-46.423	-0.423	-0.207
-334.260	18.602	-0.105	-0.083
-333.245	211.138	0.308	0.482
-332.231	-107.837	-0.386	0.084
-331.216	-200.000	0.017	-0.119
-330.202	800.000	0.044	0.124
-329.187	-200.000	0.018	0.206
-328.172	-200.000	0.007	0.042
-327.158	732.449	0.147	-0.391
-326.143	-200.000	-0.037	-0.201
-325.129	-90.123	-0.240	-0.070
-324.114	-69.237	-0.284	-0.108
-323.099	-99.706	-0.298	-0.074
-322.085	-128.525	0.118	-0.017
-321.070	222.160	0.065	-0.103
-320.056	440.190	-0.048	0.105
-319.041	54.212	-0.075	0.072
-318.026	-41.484	0.047	-0.024
-317.012	-98.411	-0.291	0.074
-315.997	128.039	0.107	-0.135
-314.983	-114.226	0.023	0.004
-313.968	-28.068	-0.125	0.072
-312.953	589.228	-0.065	0.158
-311.939	-119.165	0.454	-0.079
-310.924	182.061	0.178	0.261
-309.910	-33.363	0.166	-0.091
-308.895	-101.791	-0.171	0.041
-307.880	4.834	0.174	0.127
-306.866	255.721	-0.141	-0.241
-305.851	-200.000	-0.040	0.302
-304.837	174.237	-0.107	0.154
-303.822	-200.000	0.009	-0.340
-302.807	404.235	0.112	-0.234
-301.793	655.076	-0.091	0.232
-300.778	-200.000	0.012	-0.161
-299.764	-88.103	-0.270	0.081
-298.749	33.459	0.077	-0.066
-297.735	8.984	-0.236	-0.177
-296.720	166.058	-0.041	-0.057
-295.705	7.612	0.130	0.097
-294.691	-151.352	0.113	0.008
-293.676	800.000	0.053	0.227
-292.662	166.740	0.088	-0.124
-291.647	369.695	0.060	0.121
-290.632	240.452	0.038	0.062
-289.618	-110.765	-0.355	-0.073
-288.603	-200.000	0.007	0.136
-287.589	-166.290	0.172	-0.007
-286.574	800.000	-0.136	0.462
-285.559	-4.703	0.205	0.140
-284.545	207.314	-0.086	-0.133
-283.530	-200.000	0.029	-0.256
-282.516	-32.443	0.352	-0.195
-281.501	-200.000	0.005	0.075
-280.486	-200.000	0.019	0.176
-279.472	98.115	-0.122	0.139
-278.457	-72.697	-0.174	0.064
-277.443	-200.000	0.015	0.217
-276.428	-200.000	-0.005	0.076
-275.413	-96.822	-0.283	-0.074
-274.399	-145.090	-0.037	-0.003
-273.384	172.810	0.051	0.073
-272.370	-200.000	-0.027	-0.405
-271.355	-59.868	0.167	-0.071
-270.340	-56.894	-0.222	0.097
-269.326	53.003	0.254	-0.241
-268.311	-66.082	0.291	-0.115
-267.297	24.523	-0.219	0.180
-266.282	287.339	0.135	-0.242
-265.267	-26.441	-0.178	-0.104
-264.253	91.947	-0.069	-0.077
-263.238	-200.000	-0.072	0.000
-262.224	-18.906	-0.151	-0.093
-261.209	44.567	-0.045	0.041
-260.195	-186.719	-0.450	0.006
-259.180	-46.731	0.080	0.039
-258.165	-49.898	0.275	0.130
-257.151	-77.474	0.179	0.062
-256.136	-200.000	0.035	-0.169
-255.122	-200.000	0.038	-0.381
-254.107	160.352	0.032	-0.045
-253.092	-200.000	0.067	0.417
-252.078	728.730	-0.031	-0.083
-251.063	-1.905	0.051	0.036
-250.049	-152.002	-0.173	0.013
-249.034	15.364	-0.107	-0.083
-248.019	-3.546	0.207	0.143
-247.005	164.869	-0.096	0.135
-245.990	548.652	-0.112	0.265
-244.976	-200.000	0.052	-0.405
-243.961	-200.000	0.004	-0.048
-242.946	771.862	-0.046	0.124
-241.932	132.996	0.170	-0.217
-240.917	203.882	-0.260	0.400
-239.903	260.093	-0.018	0.031
-238.888	-99.952	0.431	0.107
-237.873	-200.000	-0.039	-0.186
-236.859	-200.000	0.024	-0.119
-235.844	-146.724	0.233	-0.020
-234.830	452.351	0.101	0.222
-233.815	-97.760	-0.187	-0.048
-232.800	-200.000	0.003	0.045
-231.786	32.383	-0.312	0.267
-230.771	551.211	0.036	0.085
-229.757	-200.000	-0.004	-0.060
-228.742	-200.000	0.057	0.337
-227.727	-175.519	0.167	0.005
-226.713	293.006	-0.127	0.230
-225.698	690.114	0.072	-0.186
-224.684	-136.116	0.111	0.013
-223.669	800.000	0.021	0.085
-222.655	-44.238	0.053	0.026
-221.640	155.543	-0.174	-0.238
-220.625	-157.794	0.229	0.013
-219.611	82.039	0.100	0.108
-218.596	-200.000	-0.003	0.033
-217.582	-106.039	0.165	-0.037
-216.567	-88.671	0.205	-0.060
-215.552	119.651	0.211	0.259
-214.538	-82.476	-0.172	-0.055
-213.523	-200.000	0.050	0.240
-212.509	22.995	0.450	-0.366
-211.494	-6.439	-0.262	0.177
-210.479	800.000	0.027	-0.091
-209.465	-200.000	-0.013	-0.105
-208.450	90.280	0.322	-0.356
-207.436	-200.000	0.035	-0.156
-206.421	569.314	-0.110	0.264
-205.406	109.433	0.208	0.246
-204.392	301.562	-0.139	0.254
-203.377	188.952	0.243	0.360
-202.363	385.409	-0.062	-0.127
-201.348	-110.309	0.148	-0.030
-200.333	-200.000	0.003	-0.059
-199.319	-103.113	-0.289	-0.068
-198.304	-124.060	0.319	0.050
-197.290	109.275	0.158	-0.187
-196.275	30.681	0.150	-0.127
-195.260	164.271	0.129	0.179
-194.246	171.786	-0.166	-0.236
-193.231	-49.591	0.191	-0.090
-192.217	-200.000	-0.010	0.052
-191.202	800.000	0.068	-0.288
-190.187	176.780	-0.158	0.228
-189.173	-35.525	0.379	-0.204
-188.158	-50.188	0.218	0.102
-187.144	640.522	0.056	0.141
-186.129	-200.000	-0.271	0.000
-185.114	-200.000	-0.024	0.170
-184.100	-200.000	0.016	-0.126
-183.085	-200.000	0.017	0.252
-182.071	246.021	-0.043	-0.072
-181.056	-14.866	-0.351	0.222
-180.042	224.890	0.185	0.297
-179.027	-82.781	0.112	0.036
-178.012	16.454	0.280	0.219
-176.998	-95.504	0.489	-0.130
-175.983	111.468	-0.153	-0.183
-174.969	102.688	-0.112	0.129
-173.954	-156.061	-0.265	-0.017
-172.939	-96.454	-0.086	0.022
-171.925	33.122	-0.089	0.077
-170.910	-130.358	-0.133	0.018
-169.896	156.096	0.297	0.405
-168.881	800.000	-0.094	0.367
-167.866	-200.000	0.021	0.322
-166.852	52.237	0.089	0.084
-165.837	-200.000	0.027	-0.256
-164.823	-200.000	0.065	-0.322
-163.808	-71.885	-0.309	-0.114
-162.793	228.697	0.081	-0.130
-161.779	800.000	0.099	0.290
-160.764	195.676	0.058	-0.087
-159.750	346.866	0.093	0.180
-158.735	-49.787	0.103	-0.049
-157.720	17.445	0.130	0.102
-156.706	800.000	-0.037	0.107
-155.691	112.958	0.103	-0.123
-154.677	-124.876	0.274	-0.042
-153.662	-200.000	-0.016	0.173
-152.647	-71.373	0.230	0.085
-151.633	-198.319	0.535	0.003
-150.618	800.000	0.135	0.371
-149.604	186.262	0.099	0.145
-148.589	-200.000	0.019	0.292
-147.574	-77.998	-0.111	-0.038
-146.560	-145.067	0.149	0.013
-145.545	-99.497	-0.354	-0.088
-144.531	800.000	0.090	-0.296
-143.516	102.016	0.055	-0.064
-142.502	92.147	0.136	-0.151
-141.487	469.406	0.142	-0.315
-140.472	-64.351	0.127	-0.051
-139.458	800.000	-0.097	-0.332
-138.443	800.000	0.043	0.167
-137.429	97.843	0.134	-0.152
-136.414	-200.000	0.079	0.431
-135.399	-50.354	0.335	0.156
-134.385	-41.605	0.321	0.163
-133.370	-18.252	-0.413	0.255
-132.356	-200.000	0.064	-0.392
-131.341	260.033	0.135	0.230
-130.326	-26.746	0.058	0.034
-129.312	484.607	-0.057	-0.128
-128.297	-79.620	-0.033	0.011
-127.283	14.601	0.291	0.224
-126.268	77.177	-0.107	0.112
-125.253	193.707	0.150	-0.225
-124.239	160.761	0.121	0.167
-123.224	377.196	-0.061	0.123
-122.210	-127.278	0.116	0.017
-121.195	-114.736	-0.188	-0.035
-120.180	-200.000	-0.018	-0.259
-119.166	-22.262	-0.156	0.093
-118.151	415.757	0.089	-0.187
-117.137	-25.497	0.119	0.069
-116.122	-155.905	0.410	0.026
-115.107	255.145	0.121	0.205
-114.093	-6.263	0.271	-0.182
-113.078	-56.461	0.076	-0.033
-112.064	-72.929	-0.052	0.019
-111.049	704.373	-0.073	0.190
-110.034	-200.000	-0.039	-0.250
-109.020	-13.564	0.218	0.139
-108.005	800.000	0.040	0.149
-106.991	337.978	0.095	0.183
-105.976	-42.394	-0.130	0.065
-104.962	148.035	0.218	0.290
-103.947	285.388	0.169	0.300
-102.932	306.453	0.142	0.260
-101.918	-200.000	0.028	0.156
-100.903	-200.000	0.010	-0.109
-99.889	-200.000	0.028	-0.207
-98.874	-24.310	0.204	-0.120
-97.859	-145.561	0.467	-0.041
-96.845	285.304	-0.137	-0.244
-95.830	-121.693	0.348	0.057
-94.816	800.000	0.075	-0.243
-93.801	44.551	0.125	-0.113
-92.786	-23.901	0.291	0.171
-91.772	-139.562	-0.314	-0.033
-90.757	-200.000	0.000	0.128
-89.743	-135.510	0.130	-0.015
-88.728	800.000	-0.083	0.286
-87.713	800.000	-0.027	0.101
-86.699	800.000	0.065	0.190
-85.684	-200.000	0.021	-0.103
-84.670	-181.800	-0.192	-0.004
-83.655	-185.198	0.178	0.003
-82.640	-29.779	-0.149	0.084
-81.626	378.466	-0.094	0.189
-80.611	524.220	-0.118	0.274
-79.597	-53.350	0.126	-0.057
-78.582	28.376	0.294	-0.244
-77.567	89.829	0.224	-0.247
-76.553	-16.262	-0.187	0.117
-75.538	-61.033	0.141	-0.059
-74.524	-31.982	-0.255	-0.141
-73.509	11.049	-0.298	-0.224
-72.494	-98.664	-0.319	0.080
-71.480	590.924	0.142	-0.346
-70.465	-200.000	-0.029	0.156
-69.451	-8.271	0.171	-0.113
-68.436	-124.037	0.231	-0.036
-67.422	207.163	0.135	0.207
-66.407	-142.364	0.296	-0.029
-65.392	750.037	-0.064	-0.171
-64.378	-44.161	0.252	0.125
-63.363	-200.000	-0.003	0.111
-62.349	429.712	0.129	-0.275
-61.334	-7.169	-0.848	-0.566
-60.319	-200.000	0.137	0.626
-59.305	253.779	-0.391	-0.658
-58.290	104.902	0.836	0.970
-57.276	255.400	0.773	1.304
-56.261	-200.000	96.208	544.462
-55.246	487.925	1437.590	3229.829
-54.232	143.959	2667.202	3500.076
-53.217	102.623	2354.088	2710.143
-52.203	42.615	1958.822	1754.525
-51.188	36.739	1744.682	1516.785
-50.173	34.066	1699.808	1457.266
-49.159	50.052	1746.615	1621.866
-48.144	52.410	1763.860	1656.126
-47.130	36.396	1721.977	1494.152
-46.115	33.542	1706.957	1459.129
-45.100	33.438	1701.988	1454.025
-44.086	33.389	1699.578	1451.534
-43.071	33.394	1696.699	1449.058
-42.057	33.444	1693.918	1447.006
-41.042	33.446	1691.995	1445.323
-40.027	33.514	1689.607	1443.739
-39.013	33.410	1687.946	1441.470
-37.998	33.452	1686.237	1440.278
-36.984	33.435	1685.273	1439.269
-35.969	33.527	1683.691	1438.557
-34.954	33.574	1681.938	1437.362
-33.940	33.601	1679.850	1435.721
-32.925	33.546	1678.195	1433.834
-31.911	33.525	1676.456	1432.131
-30.896	33.531	1674.202	1430.194
-29.881	33.497	1673.131	1428.969
-28.867	33.585	1671.070	1427.811
-27.852	33.637	1669.151	1426.511
-26.838	33.527	1668.155	1424.775
-25.823	33.563	1666.606	1423.662
-24.809	33.632	1665.030	1422.781
-23.794	33.606	1663.803	1421.478
-22.779	33.649	1662.156	1420.339
-21.765	33.494	1660.959	1418.098
-20.750	33.469	1659.315	1416.449
-19.736	33.610	1657.213	1415.657
-18.721	33.493	1656.259	1413.911
-17.706	33.584	1654.272	1412.839
-16.692	33.531	1652.678	1411.025
-15.677	33.526	1651.032	1409.528
-14.663	33.553	1650.049	1408.831
-13.648	33.645	1648.031	1407.738
-12.633	33.506	1647.151	1405.896
-11.619	33.591	1645.033	1404.661
-10.604	33.582	1643.769	1403.464
-9.590	33.637	1642.266	1402.526
-8.575	33.584	1641.025	1401.020
-7.560	33.529	1640.471	1400.088
-6.546	33.591	1638.468	1398.777
-5.531	33.613	1637.487	1398.044
-4.517	33.539	1636.571	1396.668
-3.502	33.594	1635.247	1395.888
-2.487	33.599	1633.553	1394.417
-1.473	33.675	1622.105	1385.145
-0.458	31.386	1604.039	1353.117
0.556	26.566	1603.195	1320.486
1.571	23.872	1626.988	1319.990
2.586	22.760	1638.967	1321.272
3.600	20.023	1585.223	1257.984
4.615	11.232	1469.504	1106.603
5.629	2.474	1400.895	997.955
6.644	0.698	1391.631	979.757
7.659	0.591	1390.296	978.042
8.673	0.574	1389.471	977.265
9.688	0.437	1387.374	974.818
10.702	0.289	1384.711	971.905
11.717	4.072	1391.279	1000.913
12.731	12.910	1405.328	1068.411
13.746	17.558	1411.253	1102.989
14.761	17.319	1408.938	1099.540
15.775	16.615	1406.709	1093.157
16.790	15.468	1404.074	1083.608
17.804	14.671	1401.840	1076.654
18.819	14.349	1400.192	1073.216
19.834	14.091	1398.498	1070.165
20.848	13.750	1397.629	1067.212
21.863	13.485	1396.607	1064.630
22.877	13.388	1394.503	1062.311
23.892	13.320	1393.835	1061.269
24.907	13.371	1393.219	1061.039
25.921	13.337	1392.124	1059.888
26.936	13.346	1391.660	1059.499
27.950	13.364	1390.618	1058.731
28.965	13.466	1389.455	1058.400
29.980	13.497	1388.375	1057.685
30.994	13.597	1387.518	1057.575
32.009	13.544	1386.798	1056.597
33.023	13.611	1385.155	1055.675
34.038	13.501	1384.359	1054.274
35.053	13.530	1382.885	1053.247
36.067	13.525	1382.037	1052.472
37.082	13.517	1381.030	1051.562
38.096	13.496	1380.111	1050.636
39.111	13.477	1379.705	1050.116
40.126	13.491	1378.328	1049.060
41.140	13.393	1377.702	1047.875
42.155	13.356	1377.198	1047.163
43.169	13.322	1377.327	1046.952
44.184	13.388	1376.334	1046.522
45.199	13.237	1376.505	1045.608
46.213	13.334	1375.720	1045.527
47.228	13.331	1374.973	1044.850
48.242	13.469	1373.145	1044.236
49.257	13.423	1371.724	1042.776
50.271	13.451	1370.658	1042.052
51.286	13.413	1369.270	1040.663
52.301	13.403	1367.935	1039.493
53.315	13.351	1367.021	1038.384
54.330	13.292	1366.304	1037.376
55.344	13.420	1364.126	1036.429
56.359	13.381	1363.616	1035.706
57.374	13.413	1362.405	1034.897
58.388	13.360	1361.761	1033.987
59.403	13.318	1361.115	1033.138
60.417	13.344	1360.515	1032.757
61.432	13.274	1359.871	1031.736
62.447	13.251	1358.544	1030.497
63.461	13.196	1357.661	1029.394
64.476	13.115	1356.845	1028.180
65.490	13.292	1354.927	1027.738
66.505	13.267	1353.156	1026.146
67.520	13.245	1352.432	1025.372
68.534	13.320	1351.324	1024.905
69.549	13.335	1349.828	1023.773
70.563	13.250	1348.889	1022.440
71.578	13.274	1347.852	1021.713
72.593	13.220	1346.833	1020.519
73.607	13.148	1346.257	1019.545
74.622	13.308	1344.969	1019.469
75.636	13.124	1344.550	1017.926
76.651	13.175	1343.434	1017.304
77.666	13.168	1343.301	1017.073
78.680	13.224	1342.522	1016.733
79.695	13.160	1341.533	1015.503
80.709	13.215	1341.156	1015.465
81.724	13.295	1339.863	1014.891
82.739	13.328	1338.729	1014.144
83.753	13.358	1337.822	1013.551
84.768	13.443	1336.709	1013.136
85.782	13.478	1335.379	1012.253
86.797	13.406	1334.470	1011.032
87.812	13.388	1333.344	1009.984
88.826	13.361	1332.022	1008.728
89.841	13.383	1331.168	1008.127
90.855	13.381	1330.044	1007.172
91.870	13.480	1329.324	1007.138
92.884	13.447	1328.396	1006.144
93.899	13.405	1327.838	1005.381
94.914	13.465	1327.062	1005.066
95.928	13.544	1325.948	1004.613
96.943	13.474	1325.534	1003.788
97.957	13.438	1324.382	1002.610
98.972	13.524	1323.055	1002.033
99.987	13.501	1321.732	1000.807
101.001	13.543	1321.228	1000.587
102.016	13.448	1320.045	999.029
103.030	13.502	1319.229	998.653
104.045	13.501	1318.174	997.761
105.060	13.459	1317.280	996.742
106.074	13.365	1315.704	994.893
107.089	13.432	1314.070	993.972
108.103	13.268	1313.621	992.560
109.118	13.318	1312.204	991.700
110.133	13.280	1310.781	990.313
111.147	13.425	1309.163	989.871
112.162	13.445	1307.682	988.784
113.176	13.408	1306.738	987.759
114.191	13.334	1306.122	986.767
115.206	13.354	1305.037	985.976
116.220	13.351	1303.744	984.894
117.235	13.378	1302.663	984.154
118.249	13.443	1301.665	983.695
119.264	13.403	1300.619	982.583
120.279	13.289	1299.450	980.938
121.293	13.344	1298.267	980.280
122.308	13.466	1296.973	979.942
123.322	13.302	1296.368	978.424
124.337	13.387	1295.344	978.067
125.352	13.352	1294.191	976.905
126.366	13.419	1292.712	976.095
127.381	13.393	1292.080	975.383
128.395	13.287	1290.972	973.835
129.410	13.349	1290.287	973.594
130.424	13.377	1289.225	972.874
131.439	13.436	1288.259	972.404
132.454	13.375	1287.487	971.376
133.468	13.474	1286.498	971.126
134.483	13.415	1285.890	970.236
135.497	13.440	1284.857	969.519
136.512	13.496	1282.967	968.330
137.527	13.499	1282.256	967.728
138.541	13.408	1280.543	965.820
139.556	13.385	1279.491	964.803
140.570	13.503	1278.449	964.621
141.585	13.541	1276.678	963.420
142.600	13.531	1276.143	962.876
143.614	13.511	1274.736	961.608
144.629	13.579	1273.570	961.042
145.643	13.603	1272.358	960.182
146.658	13.500	1271.214	958.634
147.673	13.570	1269.506	957.669
148.687	13.516	1268.448	956.470
149.702	13.462	1267.072	955.039
150.716	13.496	1265.601	954.041
151.731	13.446	1264.732	953.012
152.746	13.568	1263.541	952.731
153.760	13.419	1262.657	951.125
154.775	13.622	1261.063	951.007
155.789	13.541	1260.342	949.913
156.804	13.490	1259.530	948.925
157.819	13.606	1258.213	948.515
158.833	13.667	1257.203	948.018
159.848	13.685	1256.240	947.313
160.862	13.695	1255.192	946.493
161.877	13.733	1253.945	945.687
162.892	13.630	1253.103	944.378
163.906	13.602	1252.036	943.332
164.921	13.680	1250.632	942.634
165.935	13.619	1250.583	942.167
166.950	13.601	1249.820	941.410
167.964	13.728	1248.913	941.363
168.979	13.632	1248.061	940.093
169.994	13.705	1247.304	939.851
171.008	13.642	1246.552	938.847
172.023	13.754	1245.983	938.971
173.037	13.752	1244.928	938.078
174.052	13.833	1243.579	937.440
175.067	13.761	1242.681	936.271
176.081	13.661	1242.222	935.276
177.096	13.680	1241.387	934.674
178.110	13.795	1240.252	934.382
179.125	13.820	1238.753	933.312
180.140	13.732	1237.700	931.943
181.154	13.812	1236.552	931.447
182.169	13.844	1235.130	930.469
183.183	13.912	1233.761	929.735
184.198	13.946	1233.027	929.293
185.213	14.001	1231.120	928.079
186.227	13.991	1230.307	927.332
187.242	13.990	1229.314	926.492
188.256	14.042	1228.333	925.962
189.271	14.001	1227.685	925.162
190.286	13.921	1226.786	923.960
191.300	13.855	1225.910	922.852
192.315	13.884	1224.776	922.076
193.329	13.785	1224.314	921.097
194.344	13.874	1224.087	921.338
195.359	14.046	1222.903	921.319
196.373	14.017	1222.759	920.971
197.388	13.900	1222.475	920.025
198.402	13.993	1221.878	920.007
199.417	14.201	1220.663	920.164
200.432	14.214	1220.006	919.658
201.446	14.222	1219.078	918.921
202.461	14.247	1218.224	918.332
203.475	14.185	1217.252	917.179
204.490	14.267	1215.878	916.512
205.504	14.371	1214.378	915.872
206.519	14.175	1213.752	914.242
207.534	14.230	1212.379	913.432
208.548	14.207	1211.439	912.514
209.563	14.236	1210.934	912.215
210.577	14.232	1210.039	911.437
211.592	14.187	1208.861	910.220
212.607	14.302	1207.894	910.040
213.621	14.226	1207.231	909.050
214.636	14.192	1206.430	908.181
215.650	14.334	1205.041	907.827
216.665	14.352	1204.226	907.232
217.680	14.381	1203.261	906.581
218.694	14.300	1202.446	905.443
219.709	14.372	1201.768	905.247
220.723	14.396	1201.176	904.849
221.738	14.376	1200.654	904.269
222.753	14.463	1199.122	903.504
223.767	14.434	1198.707	902.956
224.782	14.562	1198.237	903.216
225.796	14.550	1197.259	902.336
226.811	14.545	1197.015	902.045
227.826	14.470	1196.316	901.031
228.840	14.564	1195.190	900.613
229.855	14.583	1194.493	900.111
230.869	14.419	1193.759	898.594
231.884	14.454	1192.921	898.070
232.899	14.545	1191.992	897.782
233.913	14.489	1191.411	896.962
234.928	14.448	1191.134	896.456
235.942	14.434	1190.207	895.603
236.957	14.521	1189.330	895.331
237.972	14.550	1188.396	894.702
238.986	14.422	1187.953	893.602
240.001	14.525	1187.381	893.647
241.015	14.574	1186.267	892.992
242.030	14.598	1185.711	892.623
243.045	14.572	1184.862	891.765
244.059	14.694	1184.056	891.732
245.074	14.749	1182.942	891.109
246.088	14.686	1182.289	890.203
247.103	14.732	1181.481	889.756
248.117	14.584	1181.046	888.566
249.132	14.791	1180.210	888.955
250.147	14.842	1179.394	888.537
251.161	14.898	1178.298	887.927
252.176	15.022	1177.485	887.898
253.190	14.938	1177.459	887.351
254.205	14.829	1176.905	886.278
255.220	14.863	1176.279	885.906
256.234	14.961	1175.458	885.728
257.249	14.969	1174.874	885.252
258.263	14.932	1174.041	884.350
259.278	15.120	1173.144	884.591
260.293	14.966	1173.200	883.744
261.307	15.126	1172.254	883.797
262.322	15.110	1171.930	883.389
263.336	15.082	1171.101	882.541
264.351	15.148	1170.166	882.103
265.366	15.096	1169.749	881.436
266.380	15.249	1168.528	881.242
267.395	15.242	1167.766	880.556
268.409	15.240	1166.997	879.888
269.424	15.138	1166.742	879.082
270.439	15.128	1166.244	878.576
271.453	15.192	1165.599	878.347
272.468	15.162	1164.592	877.353
273.482	15.160	1163.710	876.599
274.497	15.207	1162.825	876.100
275.512	15.200	1162.382	875.654
276.526	15.272	1161.481	875.273
277.541	15.338	1160.789	875.021
278.555	15.362	1160.106	874.550
279.570	15.371	1159.359	873.959
280.585	15.362	1158.134	872.912
281.599	15.369	1157.205	872.169
282.614	15.336	1155.867	870.911
283.628	15.364	1155.493	870.700
284.643	15.402	1154.586	870.135
285.657	15.377	1154.008	869.492
286.672	15.409	1152.884	868.733
287.687	15.424	1151.925	868.014
288.701	15.387	1151.199	867.197
289.716	15.470	1150.501	867.027
290.730	15.478	1149.784	866.448
291.745	15.465	1149.362	865.989
292.760	15.600	1148.402	865.884
293.774	15.470	1147.908	864.763
294.789	15.642	1146.879	864.797
295.803	15.552	1146.602	864.049
296.818	15.496	1146.198	863.381
297.833	15.539	1145.305	862.852
298.847	15.532	1144.427	862.081
299.862	15.655	1143.312	861.793
300.876	15.537	1142.831	860.748
301.891	15.601	1142.174	860.506
302.906	15.551	1141.639	859.771
303.920	15.748	1140.356	859.736
304.935	15.751	1139.815	859.268
305.949	15.750	1139.532	858.973
306.964	15.765	1138.474	858.177
307.979	15.858	1137.741	858.024
308.993	15.860	1137.098	857.471
310.008	15.861	1136.673	857.077
311.022	15.849	1135.284	855.896
312.037	15.931	1134.496	855.641
313.052	15.803	1133.560	854.208
314.066	15.858	1132.794	853.836
315.081	15.812	1132.089	852.995
316.095	15.673	1131.658	851.895
317.110	15.782	1130.983	851.860
318.125	15.826	1130.107	851.348
319.139	15.816	1129.320	850.628
320.154	15.871	1128.262	850.035
321.168	15.867	1128.198	849.891
322.183	15.768	1127.532	848.813
323.197	15.808	1126.684	848.301
324.212	15.878	1126.074	848.122
325.227	15.868	1125.510	847.570
326.241	15.937	1124.557	847.124
327.256	15.881	1123.752	846.162
328.270	15.870	1123.042	845.499
329.285	15.945	1121.907	844.944
330.300	16.023	1120.526	844.222
331.314	15.917	1119.802	843.070
332.329	15.981	1118.993	842.708
333.343	15.957	1118.044	841.795
334.358	16.027	1117.536	841.689
335.373	15.987	1116.870	840.916
336.387	16.004	1116.481	840.633
337.402	16.017	1115.566	839.932
338.416	16.175	1114.214	839.628
339.431	16.209	1113.730	839.356
340.446	16.212	1113.271	838.951
341.460	16.256	1112.808	838.747
342.475	16.303	1111.595	837.996
343.489	16.308	1110.506	837.123
344.504	16.336	1109.547	836.463
345.519	16.255	1109.195	835.725
346.533	16.366	1107.662	835.042
347.548	16.434	1107.196	834.953
348.562	16.441	1106.627	834.484
349.577	16.222	1105.855	832.751
350.592	16.368	1105.074	832.808
351.606	16.259	1104.655	831.881
352.621	16.288	1103.523	831.099
353.635	16.257	1103.217	830.640
354.650	16.324	1102.351	830.245
355.665	16.337	1101.796	829.815
356.679	16.388	1101.013	829.404
357.694	16.434	1100.371	829.074
358.708	16.395	1099.824	828.394
359.723	16.547	1098.662	828.193
360.738	16.523	1098.440	827.833
361.752	16.509	1097.722	827.152
362.767	16.690	1096.918	827.355
363.781	16.558	1096.332	826.195
364.796	16.512	1096.130	825.747
365.810	16.636	1095.594	825.875
366.825	16.640	1094.567	825.046
367.840	16.708	1094.167	825.004
368.854	16.711	1093.370	824.344
369.869	16.680	1092.556	823.507
370.883	16.697	1091.906	823.026
371.898	16.693	1090.973	822.231
372.913	16.729	1090.572	822.033
373.927	16.711	1090.271	821.646
374.942	16.773	1089.669	821.422
375.956	16.699	1089.254	820.672
376.971	16.851	1088.177	820.528
377.986	16.811	1087.496	819.747
379.000	16.780	1087.172	819.279
380.015	16.886	1087.040	819.623
381.029	16.858	1085.980	818.613
382.044	16.980	1085.143	818.498
383.059	16.983	1084.469	817.936
384.073	16.936	1083.735	817.081
385.088	17.002	1082.540	816.427
386.102	16.943	1081.807	815.516
387.117	16.912	1080.822	814.554
388.132	17.028	1079.461	814.010
389.146	16.896	1079.531	813.358
390.161	17.022	1078.570	813.164
391.175	16.981	1077.899	812.393
392.190	17.063	1076.868	811.936
393.205	17.036	1076.571	811.510
394.219	17.092	1075.796	811.121
395.234	17.043	1074.512	809.851
396.248	17.041	1073.388	808.919
397.263	17.155	1072.635	808.823
398.278	16.984	1072.482	807.824
399.292	16.990	1071.475	807.023
400.307	16.942	1070.866	806.265
401.321	17.003	1070.183	805.969
402.336	17.043	1069.357	805.466
403.350	17.028	1068.869	804.954
404.365	16.991	1068.398	804.351
405.380	17.084	1067.454	804.009
406.394	17.142	1066.653	803.612
407.409	17.329	1065.413	803.492
408.423	17.172	1065.191	802.512
409.438	17.217	1064.558	802.175
410.453	17.245	1063.720	801.603
411.467	17.302	1062.875	801.166
412.482	17.391	1062.241	801.036
413.496	17.372	1061.732	800.490
414.511	17.264	1061.289	799.580
415.526	17.415	1060.758	799.815
416.540	17.538	1060.108	799.836
417.555	17.486	1059.553	799.100
418.569	17.473	1059.219	798.717
419.584	17.370	1058.613	797.706
420.599	17.480	1058.172	797.819
421.613	100.425	1318.409	1452.104
422.628	92.671	1356.260	1452.194
