DTS Sentinel unit serial number:	SN413079Multiplexer serial number:	ORYXHardware model number:	OX4-SRSoftware version number:	ORYX F/W v4.00 Oryx Data Collector v3.7.2.0data status	okinstallation	princeton_trtdifferential loss correction	single-endedforward channel	channel 2reverse channel	N/Adate	2019/09/12time	19:12:49forward acquisition time	15.00reverse acquisition time	0.00gamma	496.2192k internal	0.2325k external	0.2325temperature offset calibration	1.0141default loss term (dB/km)	0.3790temperature slope calibration	1.0000multiplexer offset coefficient	1.0000multiplexer slope coefficient	1.0000fibre end	0.00T internal ref (°C)	32.56T ext. ref 1 (°C)	3.19T ext. ref 2 (°C)	27.14length (m)	temperature (°C)	Stokes	anti-Stokes-747.200	-26.127	-0.513	0.304
-746.185	-87.159	-0.280	-0.086
-745.171	-200.000	-0.186	-1.051
-744.156	-44.146	-0.656	-0.332
-743.142	-117.400	-0.656	-0.120
-742.127	-39.174	0.328	0.174
-741.112	-65.749	0.315	0.127
-740.098	235.218	-0.470	0.782
-739.083	57.192	-0.197	-0.194
-738.069	-24.213	-0.285	0.172
-737.054	-4.404	0.235	-0.164
-736.039	800.000	0.130	-0.445
-735.025	-135.173	-0.601	-0.073
-734.010	-96.353	-0.373	-0.100
-732.996	-74.354	-1.239	0.451
-731.981	-155.757	-0.284	-0.018
-730.966	-111.232	0.424	-0.087
-729.952	-200.000	0.165	0.833
-728.937	-57.535	-0.873	0.386
-727.923	-92.836	0.306	-0.086
-726.908	-62.877	-0.394	0.164
-725.894	-71.282	0.178	0.067
-724.879	31.618	-0.531	0.460
-723.864	-49.275	0.247	-0.119
-722.850	-200.000	0.050	0.591
-721.835	208.127	0.248	-0.391
-720.821	-73.785	-0.615	-0.225
-719.806	176.255	0.250	0.367
-718.791	-198.451	-1.116	-0.006
-717.777	14.505	0.699	-0.550
-716.762	-0.965	0.339	-0.242
-715.748	-48.484	0.600	-0.291
-714.733	-23.629	0.702	-0.425
-713.718	51.302	-0.644	-0.616
-712.704	110.302	-0.236	0.286
-711.689	163.784	-0.037	0.052
-710.675	-200.000	-0.024	-0.263
-709.660	-200.000	0.022	-0.628
-708.645	-200.000	0.156	0.822
-707.631	138.878	-0.922	1.220
-706.616	-72.130	-0.659	-0.247
-705.602	-200.000	0.189	-0.882
-704.587	-200.000	0.010	-0.245
-703.572	757.243	0.065	-0.176
-702.558	176.937	0.375	-0.550
-701.543	561.216	-0.223	-0.542
-700.529	-111.903	-0.727	0.148
-699.514	85.678	-0.021	-0.023
-698.499	249.345	-0.160	-0.272
-697.485	-200.000	-0.026	0.809
-696.470	658.979	0.345	0.895
-695.456	-198.480	-0.183	-0.001
-694.441	75.514	0.407	-0.433
-693.426	197.828	-0.440	0.678
-692.412	-75.946	1.082	-0.386
-691.397	-200.000	0.015	0.352
-690.383	-200.000	0.010	-0.072
-689.368	-6.639	-0.524	0.359
-688.354	243.557	-0.332	-0.561
-687.339	472.030	-0.292	-0.662
-686.324	85.124	-0.415	-0.459
-685.310	-92.446	-0.210	-0.059
-684.295	458.793	-0.567	-1.269
-683.281	-70.460	0.482	-0.184
-682.266	88.748	0.133	-0.149
-681.251	150.110	-0.390	-0.533
-680.237	-200.000	-0.064	0.516
-679.222	-43.588	-0.376	-0.191
-678.208	95.833	-0.416	-0.478
-677.193	-84.917	1.618	0.511
-676.178	456.647	-0.261	-0.584
-675.164	411.983	-0.096	-0.205
-674.149	258.257	-0.263	-0.457
-673.135	-200.000	-0.015	-0.218
-672.120	-69.440	0.264	-0.102
-671.105	195.202	-0.175	0.268
-670.091	-200.000	-0.038	0.765
-669.076	-111.807	0.685	-0.139
-668.062	643.867	0.149	0.383
-667.047	-32.856	0.177	0.099
-666.032	102.510	0.529	-0.622
-665.018	-157.709	0.361	-0.022
-664.003	183.953	0.183	0.272
-662.989	-72.410	0.980	0.365
-661.974	-88.705	-0.596	-0.178
-660.959	-179.870	-0.472	0.010
-659.945	359.976	-0.146	-0.295
-658.930	40.337	-0.294	-0.266
-657.916	-9.824	0.658	-0.440
-656.901	323.562	-0.272	0.522
-655.886	-66.357	-0.346	0.138
-654.872	9.939	0.513	0.392
-653.857	155.934	-0.202	-0.281
-652.843	-168.566	-1.424	-0.055
-651.828	-29.937	0.178	0.102
-650.814	-200.000	-0.022	-0.293
-649.799	800.000	0.216	-0.802
-648.784	-137.514	0.466	0.053
-647.770	-82.211	-0.291	-0.095
-646.755	395.448	-0.117	-0.246
-645.741	-9.689	-0.503	-0.337
-644.726	134.313	-0.337	0.439
-643.711	36.126	0.096	-0.085
-642.697	-200.000	-0.035	0.938
-641.682	-149.116	-0.061	0.005
-640.668	800.000	0.292	1.091
-639.653	800.000	-0.073	0.237
-638.638	-117.559	0.393	-0.071
-637.624	56.725	-0.565	0.553
-636.609	22.884	0.750	-0.618
-635.595	-43.411	-0.442	-0.224
-634.580	104.838	0.442	0.524
-633.565	-115.868	0.248	-0.047
-632.551	605.733	-0.197	0.492
-631.536	653.466	-0.018	0.046
-630.522	-24.983	-0.482	0.287
-629.507	-200.000	0.061	-0.432
-628.492	106.804	0.166	0.198
-627.478	-200.000	0.114	-0.519
-626.463	800.000	-0.152	-0.568
-625.449	167.489	-0.145	-0.208
-624.434	21.259	-0.789	0.644
-623.419	800.000	0.095	-0.417
-622.405	800.000	0.118	-0.394
-621.390	720.524	-0.166	-0.444
-620.376	45.742	-0.287	-0.266
-619.361	-84.782	-0.697	0.220
-618.346	23.664	0.167	-0.138
-617.332	-99.635	0.370	0.093
-616.317	-200.000	0.013	0.061
-615.303	800.000	-0.273	-0.880
-614.288	65.214	0.360	-0.365
-613.273	-60.690	0.819	-0.349
-612.259	407.279	-0.288	0.610
-611.244	-116.975	0.521	-0.095
-610.230	-57.017	-0.557	-0.246
-609.215	-88.580	-0.476	0.142
-608.201	-19.571	-0.290	-0.180
-607.186	800.000	0.266	-0.780
-606.171	-39.658	-0.179	-0.094
-605.157	-41.074	0.677	-0.351
-604.142	-105.035	0.133	0.031
-603.128	205.048	0.155	0.242
-602.113	-77.649	0.423	-0.147
-601.098	-64.416	-0.502	0.205
-600.084	378.847	-0.263	-0.539
-599.069	800.000	-0.109	0.383
-598.055	-200.000	0.003	0.430
-597.040	33.804	-0.209	0.182
-596.025	-200.000	0.002	-0.138
-595.011	66.089	0.504	0.513
-593.996	-161.577	-0.568	0.029
-592.982	-107.437	0.869	0.191
-591.967	800.000	0.306	-1.229
-590.952	663.154	-0.118	-0.305
-589.938	3.363	-0.457	-0.334
-588.923	-85.476	0.186	-0.058
-587.909	-26.378	-0.256	-0.150
-586.894	-200.000	0.046	0.490
-585.879	146.262	-0.258	0.348
-584.865	153.568	-0.271	0.372
-583.850	-96.401	-0.435	-0.115
-582.836	-28.186	-0.373	-0.216
-581.821	-200.000	-0.005	-0.305
-580.806	316.366	-0.271	0.513
-579.792	-97.670	0.418	-0.109
-578.777	-117.062	0.644	-0.118
-577.763	800.000	-0.189	-0.790
-576.748	-128.428	-0.976	-0.139
-575.733	-179.035	0.398	0.009
-574.719	-100.176	-0.760	-0.189
-573.704	800.000	0.266	-0.999
-572.690	-200.000	-0.046	-0.848
-571.675	-117.684	0.268	-0.048
-570.661	800.000	-0.059	0.166
-569.646	800.000	-0.154	0.485
-568.631	-91.752	-0.465	-0.133
-567.617	57.135	-0.427	-0.418
-566.602	-79.188	-0.797	0.271
-565.588	101.198	-0.293	-0.341
-564.573	-200.000	-0.003	0.138
-563.558	270.415	0.160	0.281
-562.544	-30.078	-0.800	-0.456
-561.529	-108.853	0.389	0.083
-560.515	800.000	-0.164	0.468
-559.500	398.273	0.142	0.297
-558.485	-200.000	0.042	-0.590
-557.471	-128.108	0.832	0.119
-556.456	-41.703	-0.725	0.373
-555.442	31.922	-0.140	-0.121
-554.427	800.000	-0.101	-0.355
-553.412	800.000	-0.362	-1.153
-552.398	-38.365	-0.354	-0.188
-551.383	244.816	-0.446	0.751
-550.369	-141.621	0.875	0.088
-549.354	-183.089	-0.505	0.009
-548.339	178.882	-0.496	0.726
-547.325	793.175	-0.009	0.026
-546.310	94.844	0.425	0.485
-545.296	290.831	-0.410	0.747
-544.281	-75.020	-0.980	0.351
-543.266	76.600	-0.235	-0.250
-542.252	10.035	-0.556	-0.423
-541.237	-200.000	-0.027	0.413
-540.223	-200.000	0.024	-0.441
-539.208	-12.284	-0.346	0.226
-538.193	257.808	0.260	0.448
-537.179	800.000	-0.205	0.784
-536.164	800.000	-0.235	-0.968
-535.150	-78.071	0.118	0.041
-534.135	319.959	-0.353	0.671
-533.121	-125.941	1.017	0.153
-532.106	-200.000	-0.012	0.073
-531.091	-200.000	-0.080	0.363
-530.077	-57.141	0.624	-0.275
-529.062	-37.154	0.296	-0.159
-528.048	-69.496	0.619	0.237
-527.033	438.265	0.214	-0.468
-526.018	-200.000	-0.010	0.664
-525.004	162.378	-0.300	0.421
-523.989	-163.821	-0.400	0.019
-522.975	243.972	0.232	-0.389
-521.960	113.311	0.413	0.502
-520.945	27.320	0.638	0.536
-519.931	-133.295	0.917	0.116
-518.916	9.423	-0.309	-0.234
-517.902	121.655	0.585	-0.729
-516.887	-35.940	-0.623	0.337
-515.872	-116.243	-0.282	0.052
-514.858	-95.773	-0.101	0.027
-513.843	252.486	0.047	0.081
-512.829	-200.000	-0.015	-0.262
-511.814	-1.389	-0.610	-0.430
-510.799	-200.000	0.040	-0.728
-509.785	-105.973	-0.593	-0.133
-508.770	-82.736	0.265	-0.086
-507.756	-36.748	-0.125	-0.067
-506.741	-36.832	0.735	-0.395
-505.726	-37.641	-0.604	-0.322
-504.712	376.005	-0.246	-0.502
-503.697	-57.527	-0.880	0.386
-502.683	-200.000	0.043	-0.416
-501.668	561.741	-0.214	-0.516
-500.653	-121.894	-0.175	0.029
-499.639	-14.106	0.786	0.507
-498.624	114.847	0.315	0.383
-497.610	-200.000	-0.040	0.345
-496.595	-140.670	-0.964	-0.100
-495.581	218.111	-0.430	-0.686
-494.566	-120.624	0.697	0.118
-493.551	-147.466	0.757	-0.064
-492.537	452.520	0.287	0.634
-491.522	72.480	0.413	0.430
-490.508	-53.044	-0.208	-0.096
-489.493	-48.287	0.095	-0.046
-488.478	800.000	-0.218	0.797
-487.464	-106.044	-0.924	-0.208
-486.449	-89.034	0.426	-0.126
-485.435	-24.962	-0.344	-0.204
-484.420	402.574	-0.181	-0.379
-483.405	-92.776	-0.348	0.097
-482.391	38.988	-0.718	0.641
-481.376	-200.000	-0.012	0.196
-480.362	-126.912	-0.270	-0.040
-479.347	-111.235	0.264	0.054
-478.332	-78.324	0.790	-0.271
-477.318	-184.628	0.320	0.005
-476.303	-29.050	-0.259	-0.148
-475.289	-51.728	-0.665	0.310
-474.274	64.957	0.381	-0.384
-473.259	-200.000	-0.051	0.532
-472.245	-12.272	0.674	0.440
-471.230	416.101	-0.154	-0.327
-470.216	23.542	0.531	-0.436
-469.201	-83.301	-0.021	-0.007
-468.186	-53.412	-0.587	-0.269
-467.172	-153.551	0.180	-0.012
-466.157	-200.000	0.018	-0.980
-465.143	-200.000	-0.003	0.964
-464.128	-200.000	-0.104	0.803
-463.113	-58.793	-0.170	-0.074
-462.099	322.131	-0.427	0.811
-461.084	-43.198	-0.157	0.079
-460.070	161.321	-0.060	-0.084
-459.055	-47.761	0.536	0.259
-458.040	64.463	-0.151	0.152
-457.026	-44.431	-0.397	-0.198
-456.011	213.643	0.313	0.493
-454.997	79.676	0.316	-0.339
-453.982	426.190	0.223	0.481
-452.968	-53.717	-0.480	-0.218
-451.953	50.157	0.588	-0.554
-450.938	-172.091	-0.262	-0.008
-449.924	-160.214	-0.164	-0.009
-448.909	-200.000	0.586	-0.002
-447.895	-200.000	-0.046	-0.540
-446.880	461.417	-0.530	-1.178
-445.865	800.000	0.117	-0.393
-444.851	149.709	0.226	0.305
-443.836	26.411	0.378	0.315
-442.822	133.452	-0.493	-0.636
-441.807	-200.000	0.008	-0.754
-440.792	-28.998	-0.289	0.165
-439.778	-181.744	-0.473	0.009
-438.763	8.363	0.358	-0.268
-437.749	-26.576	-0.588	0.343
-436.734	266.770	-0.412	-0.718
-435.719	-200.000	-0.022	-0.511
-434.705	231.956	0.483	-0.790
-433.690	103.936	0.588	0.689
-432.676	-35.399	1.040	0.563
-431.661	15.308	-0.199	0.155
-430.646	-84.772	-0.243	0.076
-429.632	-129.624	-0.137	0.019
-428.617	748.422	0.116	0.311
-427.603	-103.072	0.438	0.103
-426.588	-138.189	0.329	-0.036
-425.573	-200.000	0.029	-0.260
-424.559	264.048	0.272	0.471
-423.544	800.000	-0.078	0.311
-422.530	-134.368	0.598	-0.073
-421.515	498.529	0.266	-0.611
-420.500	-127.422	0.413	0.060
-419.486	62.953	-0.155	-0.154
-418.471	-178.877	-0.282	0.006
-417.457	800.000	0.169	-0.480
-416.442	56.888	0.491	-0.476
-415.428	84.057	0.315	-0.343
-414.413	38.768	-0.118	0.105
-413.398	70.986	-0.646	-0.667
-412.384	-200.000	0.052	1.002
-411.369	23.911	-0.364	-0.299
-410.355	-140.374	-0.289	-0.030
-409.340	242.869	-0.298	0.497
-408.325	-55.643	-0.290	-0.129
-407.311	381.857	0.365	0.746
-406.296	-200.000	-0.045	-0.312
-405.282	-200.000	-0.049	-0.218
-404.267	111.110	-0.366	-0.439
-403.252	-9.474	-0.619	-0.411
-402.238	-117.104	0.084	-0.015
-401.223	-72.954	-0.548	-0.201
-400.209	-10.511	0.081	-0.054
-399.194	-200.000	0.013	0.204
-398.179	-200.000	0.101	0.677
-397.165	91.083	0.321	0.358
-396.150	136.894	0.202	0.262
-395.136	-13.677	-0.255	-0.164
-394.121	376.738	0.145	0.296
-393.106	129.374	-0.576	0.732
-392.092	131.047	0.362	0.462
-391.077	-200.000	-0.007	0.634
-390.063	-200.000	-0.087	1.247
-389.048	800.000	-0.243	0.874
-388.033	376.088	0.111	0.226
-387.019	-115.390	0.284	0.053
-386.004	-200.000	0.017	0.224
-384.990	271.003	0.239	0.419
-383.975	-43.734	0.569	0.285
-382.960	89.349	0.391	0.433
-381.946	160.023	0.426	0.591
-380.931	-200.000	0.043	0.209
-379.917	800.000	0.074	0.215
-378.902	-200.000	0.017	-0.314
-377.888	-200.000	0.031	-0.287
-376.873	76.338	0.190	-0.200
-375.858	35.396	0.352	-0.307
-374.844	151.302	0.266	0.360
-373.829	478.340	0.474	-1.066
-372.815	800.000	0.175	0.533
-371.800	389.632	-0.518	1.068
-370.785	235.462	0.242	-0.398
-369.771	325.493	-0.166	0.315
-368.756	-200.000	-0.003	-0.047
-367.742	50.840	-0.378	0.356
-366.727	-200.000	0.003	-0.285
-365.712	-129.129	-0.601	0.084
-364.698	-60.169	-0.116	-0.049
-363.683	-200.000	0.110	-1.162
-362.669	800.000	0.061	0.190
-361.654	-68.494	0.307	-0.118
-360.639	-56.641	-0.359	0.158
-359.625	44.053	0.701	0.639
-358.610	-200.000	-0.129	1.187
-357.596	-49.935	0.325	0.153
-356.581	800.000	-0.187	-0.603
-355.566	-165.790	0.363	-0.016
-354.552	-200.000	-0.124	-0.702
-353.537	69.483	1.150	1.177
-352.523	191.944	0.566	0.848
-351.508	-176.116	-0.602	-0.016
-350.493	180.298	-0.392	0.571
-349.479	50.887	-0.420	-0.395
-348.464	-55.740	-0.311	-0.138
-347.450	-139.681	-0.193	-0.020
-346.435	-136.197	-0.587	-0.068
-345.420	-200.000	0.010	0.233
-344.406	4.739	0.240	0.175
-343.391	800.000	0.379	-1.075
-342.377	291.503	0.415	0.750
-341.362	132.309	-0.165	-0.211
-340.348	800.000	-0.133	0.554
-339.333	-200.000	-0.025	-0.466
-338.318	281.007	-0.159	0.283
-337.304	-200.000	-0.010	-0.143
-336.289	384.634	-0.104	0.213
-335.275	176.708	-0.547	-0.790
-334.260	65.972	0.531	-0.535
-333.245	144.966	0.280	0.372
-332.231	-127.508	-0.362	0.052
-331.216	-200.000	-0.038	-0.298
-330.202	800.000	0.140	-0.510
-329.187	-10.521	0.118	-0.077
-328.172	70.829	-0.478	-0.492
-327.158	-63.594	-0.395	0.161
-326.143	-142.519	0.681	-0.066
-325.129	-66.860	0.190	0.074
-324.114	800.000	-0.104	-0.337
-323.099	3.529	-0.424	-0.307
-322.085	215.083	0.544	-0.856
-321.070	247.203	0.100	0.167
-320.056	-7.305	-0.420	0.283
-319.041	-200.000	0.028	0.254
-318.026	-32.280	-0.340	-0.188
-317.012	-122.417	-1.117	-0.181
-315.997	493.800	0.119	0.270
-314.983	-53.850	0.655	0.297
-313.968	305.743	-0.121	-0.223
-312.953	800.000	-0.159	-0.671
-311.939	-38.234	-0.066	-0.035
-310.924	-105.208	1.118	-0.253
-309.910	-200.000	-0.124	0.594
-308.895	-139.323	0.077	0.008
-307.880	480.878	-0.417	-0.938
-306.866	-48.856	0.380	-0.181
-305.851	-200.000	0.212	-1.057
-304.837	-119.892	0.413	0.070
-303.822	-107.465	0.340	0.074
-302.807	49.942	0.115	-0.108
-301.793	-65.794	-0.450	0.179
-300.778	-200.000	-0.002	0.052
-299.764	-109.812	0.713	0.148
-298.749	-130.118	0.473	-0.064
-297.735	21.597	0.249	-0.201
-296.720	-92.674	-0.915	-0.254
-295.705	-6.218	-0.843	0.571
-294.691	531.688	0.442	-1.037
-293.676	266.385	-0.208	0.360
-292.662	733.713	0.148	-0.393
-291.647	-19.598	-0.616	0.378
-290.632	-200.000	0.018	-0.735
-289.618	-37.885	-0.748	0.394
-288.603	-156.297	-0.470	-0.029
-287.589	-15.406	-0.172	0.109
-286.574	-200.000	0.050	0.240
-285.559	-81.192	0.177	0.058
-284.545	-200.000	0.027	-0.138
-283.530	-1.238	0.428	-0.300
-282.516	21.612	0.307	0.247
-281.501	800.000	-0.129	-0.554
-280.486	9.050	-0.468	-0.350
-279.472	-76.649	0.401	-0.140
-278.457	-25.647	-0.058	0.034
-277.443	-200.000	-0.163	0.815
-276.428	-97.817	0.517	-0.132
-275.413	110.645	-0.524	-0.625
-274.399	-126.421	-0.417	0.062
-273.384	-55.012	-0.415	-0.185
-272.370	-141.242	-0.450	-0.045
-271.355	-20.845	0.138	-0.084
-270.340	-122.333	0.416	-0.067
-269.326	-200.000	-0.013	0.431
-268.311	199.444	-0.142	0.216
-267.297	-4.529	0.659	0.451
-266.282	-200.000	0.114	-0.763
-265.267	485.669	-0.185	-0.418
-264.253	-4.606	-0.234	-0.160
-263.238	-200.000	-0.035	1.405
-262.224	-74.286	-0.417	-0.149
-261.209	-12.420	0.456	0.295
-260.195	170.008	-0.462	0.655
-259.180	-13.525	-0.377	-0.242
-258.165	234.525	-0.455	0.743
-257.151	-39.946	0.241	0.125
-256.136	-200.000	0.164	1.107
-255.122	74.753	0.188	0.196
-254.107	518.371	0.141	-0.327
-253.092	719.187	0.056	-0.147
-252.078	800.000	-0.139	0.454
-251.063	-2.497	-0.618	0.429
-250.049	99.491	-0.108	-0.124
-249.034	800.000	0.080	0.268
-248.019	-61.338	0.429	0.179
-247.005	703.968	0.387	1.009
-245.990	-59.783	-0.160	-0.068
-244.976	-187.687	0.193	0.003
-243.961	-2.483	-0.704	-0.488
-242.946	-23.110	-0.586	-0.349
-241.932	61.433	-0.636	0.626
-240.917	14.523	0.155	0.120
-239.903	-155.176	-0.314	0.020
-238.888	61.310	-0.442	-0.434
-237.873	-30.341	0.861	-0.484
-236.859	800.000	-0.104	0.314
-235.844	-200.000	-0.038	0.229
-234.830	-107.189	0.540	-0.118
-233.815	-58.071	1.029	-0.444
-232.800	733.572	0.343	-0.908
-231.786	-164.014	-0.052	0.002
-230.771	216.933	0.351	-0.552
-229.757	800.000	0.263	-1.093
-228.742	85.180	-0.447	-0.485
-227.727	34.021	0.269	0.232
-226.713	-52.921	-0.431	0.196
-225.698	-133.382	0.741	0.092
-224.684	-72.777	0.606	-0.221
-223.669	42.639	-0.654	0.589
-222.655	-48.147	-0.146	-0.070
-221.640	161.597	-0.086	-0.119
-220.625	78.077	-0.419	-0.441
-219.611	-200.000	-0.074	-0.558
-218.596	-11.569	-0.578	-0.376
-217.582	38.797	0.279	0.246
-216.567	47.107	-0.076	-0.070
-215.552	8.546	0.334	0.248
-214.538	250.402	0.236	0.396
-213.523	-37.107	0.699	0.370
-212.509	-200.000	0.004	0.337
-211.494	41.883	0.294	-0.263
-210.479	800.000	0.162	0.587
-209.465	121.257	0.455	0.560
-208.450	676.248	0.124	0.317
-207.436	-82.780	-0.355	0.113
-206.421	77.572	0.617	-0.649
-205.406	254.431	-0.152	0.256
-204.392	3.204	-0.930	-0.669
-203.377	800.000	-0.196	-0.555
-202.363	-200.000	0.085	-0.744
-201.348	3.815	0.562	0.406
-200.333	-79.145	-1.104	-0.370
-199.319	-23.232	-0.470	-0.279
-198.304	-6.311	0.582	-0.393
-197.290	-200.000	0.091	0.737
-196.275	-200.000	-0.040	-0.485
-195.260	69.792	0.771	-0.785
-194.246	800.000	-0.145	0.544
-193.231	-40.297	0.407	0.209
-192.217	-146.863	0.179	-0.015
-191.202	-144.204	-0.436	-0.040
-190.187	-165.834	0.429	0.018
-189.173	119.627	0.381	0.466
-188.158	-200.000	-0.002	-0.435
-187.144	421.540	0.310	0.657
-186.129	199.743	0.509	-0.772
-185.114	-11.246	-0.406	0.264
-184.100	-88.700	-0.395	-0.116
-183.085	406.365	-0.169	-0.352
-182.071	-153.135	1.039	0.072
-181.056	-200.000	-0.158	0.999
-180.042	-134.588	0.718	-0.086
-179.027	-200.000	0.302	1.346
-178.012	-84.790	0.982	-0.305
-176.998	-200.000	-0.076	-0.393
-175.983	800.000	-0.230	0.675
-174.969	-143.666	0.266	-0.025
-173.954	716.759	0.047	-0.124
-172.939	-95.856	-0.924	0.243
-171.925	192.899	-0.280	0.418
-170.910	800.000	0.056	-0.239
-169.896	-4.584	0.678	0.462
-168.881	-29.701	0.715	0.402
-167.866	408.617	-0.250	0.523
-166.852	-131.214	-0.304	-0.040
-165.837	368.191	0.415	-0.828
-164.823	-109.316	0.779	-0.163
-163.808	-62.027	0.412	0.170
-162.793	66.111	-0.485	0.485
-161.779	-59.865	-0.272	-0.115
-160.764	107.883	-0.302	-0.355
-159.750	-200.000	-0.057	0.353
-158.735	-196.081	-0.366	-0.003
-157.720	18.111	-0.446	0.351
-156.706	-65.459	0.536	0.212
-155.691	-144.473	0.745	-0.068
-154.677	-5.540	-0.079	0.053
-153.662	-200.000	-0.031	-0.319
-152.647	82.279	0.314	-0.336
-151.633	115.938	0.333	-0.402
-150.618	223.923	-0.432	-0.688
-149.604	-85.505	0.993	-0.305
-148.589	-200.000	-0.029	0.445
-147.574	-164.014	-0.592	-0.027
-146.560	-172.691	0.177	0.005
-145.545	519.208	0.087	0.200
-144.531	228.384	0.157	-0.253
-143.516	259.912	0.417	0.710
-142.502	800.000	-0.138	0.553
-141.487	361.966	-0.027	0.053
-140.472	497.144	-0.336	0.763
-139.458	-200.000	0.056	0.757
-138.443	-200.000	0.048	-0.309
-137.429	-129.339	0.551	-0.076
-136.414	411.239	-0.252	0.527
-135.399	-13.336	-0.426	-0.272
-134.385	437.565	0.520	1.117
-133.370	17.234	0.230	-0.180
-132.356	203.173	-0.221	-0.336
-131.341	-59.664	-0.827	-0.349
-130.326	63.003	-0.125	0.123
-129.312	102.309	-0.217	0.250
-128.297	-156.810	0.258	-0.016
-127.283	438.343	0.392	0.843
-126.268	-84.868	-0.555	-0.172
-125.253	-97.209	-0.316	0.081
-124.239	-200.000	0.044	0.266
-123.224	800.000	0.163	-0.499
-122.210	800.000	-0.131	-0.553
-121.195	430.500	-0.156	-0.332
-120.180	-106.662	-0.364	0.080
-119.166	608.894	0.229	0.562
-118.151	-200.000	-0.016	0.096
-117.137	-200.000	0.097	-0.693
-116.122	-200.000	-0.008	0.225
-115.107	-200.000	0.089	0.780
-114.093	800.000	-0.229	-0.645
-113.078	800.000	0.398	-1.253
-112.064	24.920	-0.308	0.252
-111.049	-200.000	0.048	-0.417
-110.034	-200.000	0.099	-0.583
-109.020	232.984	0.420	0.679
-108.005	-121.754	-0.621	0.101
-106.991	9.099	-0.286	0.212
-105.976	-155.506	0.454	0.029
-104.962	-76.486	-0.315	-0.109
-103.947	134.870	0.170	0.217
-102.932	23.319	-0.264	-0.214
-101.918	180.318	0.187	0.270
-100.903	800.000	-0.174	0.481
-99.889	29.710	-0.373	-0.312
-98.874	88.603	0.254	0.278
-97.859	-200.000	-0.004	0.873
-96.845	-200.000	0.053	-0.306
-95.830	-101.872	-1.008	0.240
-94.816	-67.439	0.121	-0.047
-93.801	-200.000	-0.092	-0.406
-92.786	-200.000	0.022	0.357
-91.772	57.435	0.185	0.177
-90.757	-24.956	-0.075	-0.044
-89.743	-40.055	0.331	-0.170
-88.728	-122.358	0.150	0.024
-87.713	-95.573	-0.738	0.194
-86.699	-184.499	-0.631	0.010
-85.684	-58.870	-0.369	-0.157
-84.670	-58.244	-0.580	0.248
-83.655	-13.744	0.532	-0.338
-82.640	-200.000	0.000	0.807
-81.626	800.000	-0.101	0.360
-80.611	-36.355	0.534	-0.283
-79.597	103.241	0.593	-0.683
-78.582	-200.000	0.057	-0.592
-77.567	558.747	0.182	-0.432
-76.553	800.000	0.092	0.278
-75.538	66.745	-0.319	-0.319
-74.524	800.000	0.195	0.648
-73.509	-126.031	-0.367	0.054
-72.494	67.747	-0.276	-0.278
-71.480	-48.031	-0.655	-0.311
-70.465	-95.333	-0.092	0.024
-69.451	434.975	0.142	0.303
-68.436	-20.977	-0.152	0.091
-67.422	-200.000	-0.019	-0.174
-66.407	-200.000	0.042	-0.407
-65.392	-94.430	0.751	-0.201
-64.378	43.459	-0.388	-0.348
-63.363	531.186	-0.102	0.236
-62.349	-200.000	-0.083	-0.434
-61.334	460.146	-0.547	-1.197
-60.319	131.084	0.478	0.603
-59.305	287.900	-0.356	-0.634
-58.290	191.793	0.932	1.380
-57.276	-200.000	0.072	1.983
-56.261	-200.000	94.199	590.117
-55.246	683.626	1351.195	3462.109
-54.232	204.059	2523.951	3840.008
-53.217	113.533	2246.242	2678.974
-52.203	42.054	1879.308	1675.363
-51.188	35.701	1673.834	1444.586
-50.173	33.008	1629.764	1386.755
-49.159	51.322	1678.118	1564.629
-48.144	52.011	1694.405	1584.880
-47.130	35.452	1655.004	1426.259
-46.115	32.690	1640.357	1393.201
-45.100	32.352	1635.697	1386.697
-44.086	32.260	1633.793	1384.344
-43.071	32.462	1630.505	1382.989
-42.057	32.571	1627.402	1381.104
-41.042	32.569	1626.205	1380.019
-40.027	32.654	1623.723	1378.478
-39.013	32.416	1622.042	1375.259
-37.998	32.405	1621.235	1374.440
-36.984	32.315	1619.169	1371.978
-35.969	32.367	1618.046	1371.348
-34.954	32.623	1616.137	1371.544
-33.940	32.578	1614.029	1369.368
-32.925	32.520	1611.896	1367.084
-31.911	32.590	1610.886	1366.685
-30.896	32.479	1609.847	1364.939
-29.881	32.541	1608.597	1364.276
-28.867	32.639	1605.960	1362.698
-27.852	32.573	1605.384	1361.676
-26.838	32.782	1602.020	1360.276
-25.823	32.610	1601.524	1358.561
-24.809	32.684	1600.283	1357.986
-23.794	32.659	1599.162	1356.802
-22.779	33.006	1595.530	1356.158
-21.765	32.538	1595.907	1353.060
-20.750	32.496	1594.389	1351.419
-19.736	32.578	1592.754	1350.567
-18.721	32.593	1592.385	1350.308
-17.706	32.573	1591.098	1349.018
-16.692	32.815	1588.350	1348.367
-15.677	32.586	1587.130	1345.639
-14.663	32.517	1586.957	1344.951
-13.648	32.593	1584.668	1343.496
-12.633	32.434	1583.533	1341.347
-11.619	32.447	1581.655	1339.797
-10.604	32.601	1579.117	1338.693
-9.590	32.425	1579.370	1337.602
-8.575	32.467	1577.757	1336.477
-7.560	32.630	1575.796	1335.923
-6.546	32.639	1573.788	1334.232
-5.531	32.644	1574.513	1334.829
-4.517	32.672	1573.029	1333.713
-3.502	32.528	1572.164	1331.909
-2.487	32.756	1569.766	1331.436
-1.473	32.135	1558.988	1317.884
-0.458	29.459	1538.940	1282.321
0.556	26.753	1540.369	1248.994
1.571	24.498	1561.851	1250.530
2.586	23.878	1574.927	1256.509
3.600	21.070	1522.143	1195.079
4.615	12.294	1413.037	1053.263
5.629	4.584	1349.249	958.251
6.644	3.080	1340.963	943.061
7.659	3.259	1340.092	943.464
8.673	3.192	1338.670	941.967
9.688	3.229	1337.264	941.122
10.702	3.049	1333.782	937.493
11.717	6.378	1340.916	962.801
12.731	15.678	1358.023	1032.356
13.746	23.082	1369.791	1086.891
14.761	24.813	1372.472	1099.573
15.775	24.844	1371.886	1099.198
16.790	24.749	1370.286	1097.236
17.804	24.522	1369.283	1094.938
18.819	24.526	1368.448	1094.202
19.834	24.428	1367.962	1093.116
20.848	24.490	1367.776	1093.248
21.863	24.725	1367.665	1094.505
22.877	24.658	1365.924	1092.600
23.892	24.874	1364.651	1092.805
24.907	24.778	1363.163	1090.931
25.921	24.898	1362.672	1091.173
26.936	24.881	1361.435	1089.985
27.950	24.674	1361.897	1088.998
28.965	24.930	1359.380	1088.448
29.980	24.732	1359.406	1087.164
30.994	24.811	1357.778	1086.248
32.009	24.867	1357.208	1086.035
33.023	24.654	1356.576	1084.138
34.038	24.911	1354.869	1084.235
35.053	24.830	1354.044	1082.988
36.067	24.564	1353.210	1080.621
37.082	24.519	1352.175	1079.426
38.096	24.616	1350.798	1078.814
39.111	24.939	1349.808	1079.876
40.126	24.792	1349.714	1078.822
41.140	24.606	1348.107	1076.323
42.155	24.766	1348.242	1077.296
43.169	24.342	1349.258	1075.456
44.184	24.212	1347.916	1073.507
45.199	24.458	1347.558	1074.609
46.213	24.783	1346.818	1075.882
47.228	24.690	1346.936	1075.317
48.242	24.898	1344.409	1074.453
49.257	24.574	1345.045	1072.926
50.271	24.658	1343.987	1072.489
51.286	24.785	1340.924	1070.710
52.301	24.857	1340.016	1070.320
53.315	24.598	1340.426	1069.006
54.330	24.622	1339.104	1068.001
55.344	24.563	1337.882	1066.578
56.359	24.932	1335.687	1066.932
57.374	24.444	1336.404	1064.498
58.388	24.494	1336.080	1064.445
59.403	24.524	1334.874	1063.570
60.417	24.435	1333.640	1061.960
61.432	24.632	1332.637	1062.241
62.447	24.527	1331.763	1060.829
63.461	24.536	1330.265	1059.593
64.476	24.418	1329.477	1058.175
65.490	24.566	1328.477	1058.159
66.505	24.371	1327.531	1056.159
67.520	24.620	1325.608	1056.007
68.534	24.232	1326.103	1054.010
69.549	24.496	1324.529	1054.230
70.563	24.489	1323.676	1053.413
71.578	24.474	1322.913	1052.624
72.593	24.220	1321.547	1049.952
73.607	24.336	1319.877	1049.215
74.622	24.399	1319.653	1049.313
75.636	24.310	1320.077	1049.033
76.651	24.631	1317.679	1048.919
77.666	24.180	1319.113	1047.316
78.680	24.309	1318.325	1047.355
79.695	24.309	1316.149	1045.535
80.709	24.715	1316.130	1047.806
81.724	24.658	1315.617	1046.973
82.739	24.439	1315.403	1045.425
83.753	24.555	1315.124	1045.788
84.768	25.147	1313.299	1047.706
85.782	24.950	1312.815	1046.078
86.797	24.907	1311.761	1044.893
87.812	25.303	1309.075	1044.970
88.826	24.587	1310.290	1041.671
89.841	24.710	1308.086	1040.543
90.855	25.047	1306.284	1040.976
91.870	25.293	1306.250	1042.287
92.884	24.952	1306.569	1040.470
93.899	25.020	1305.292	1039.753
94.914	25.019	1303.418	1038.164
95.928	24.896	1304.319	1038.073
96.943	24.913	1302.741	1036.825
97.957	24.889	1302.666	1036.537
98.972	24.868	1302.069	1035.849
99.987	24.874	1300.287	1034.372
101.001	24.924	1299.465	1033.917
102.016	24.805	1298.380	1032.275
103.030	24.844	1297.391	1031.622
104.045	24.812	1297.458	1031.400
105.060	24.775	1295.004	1029.146
106.074	24.508	1294.503	1027.117
107.089	24.566	1291.902	1025.299
108.103	24.207	1291.469	1022.803
109.118	24.655	1289.087	1023.392
110.133	24.222	1290.052	1021.588
111.147	24.142	1288.211	1019.578
112.162	24.762	1286.613	1021.767
113.176	24.553	1286.254	1020.199
114.191	24.535	1285.400	1019.329
115.206	24.628	1284.091	1018.731
116.220	24.605	1283.593	1018.117
117.235	24.423	1282.818	1016.375
118.249	24.456	1280.931	1014.975
119.264	24.196	1281.313	1013.707
120.279	24.611	1278.985	1014.136
121.293	24.466	1279.586	1013.701
122.308	24.232	1278.596	1011.498
123.322	24.370	1276.975	1010.903
124.337	24.289	1276.383	1009.891
125.352	24.293	1274.818	1008.585
126.366	24.189	1274.319	1007.511
127.381	24.196	1273.511	1006.823
128.395	24.079	1273.064	1005.723
129.410	23.914	1271.313	1003.315
130.424	23.825	1271.075	1002.537
131.439	24.140	1270.630	1003.876
132.454	24.524	1268.893	1004.576
133.468	24.739	1268.654	1005.505
134.483	24.501	1269.065	1004.404
135.497	24.656	1267.794	1004.177
136.512	24.368	1266.749	1001.648
137.527	24.503	1265.210	1001.099
138.541	24.174	1263.669	997.950
139.556	24.438	1262.452	998.373
140.570	24.588	1262.467	999.138
141.585	24.556	1262.397	998.812
142.600	24.969	1259.996	999.131
143.614	25.200	1260.214	1000.505
144.629	24.942	1259.619	998.503
145.643	24.902	1256.985	996.109
146.658	24.544	1257.117	994.132
147.673	24.520	1256.047	993.061
148.687	24.754	1255.157	993.574
149.702	24.578	1253.493	991.189
150.716	24.625	1251.050	989.428
151.731	24.215	1250.093	986.315
152.746	24.389	1248.506	985.940
153.760	24.379	1248.999	986.186
154.775	24.714	1247.902	987.080
155.789	24.821	1246.376	986.378
156.804	24.748	1246.191	985.740
157.819	24.615	1245.400	984.296
158.833	24.902	1243.612	984.372
159.848	25.133	1244.060	985.910
160.862	24.773	1244.077	983.856
161.877	24.803	1242.071	982.351
162.892	24.503	1240.707	979.541
163.906	24.471	1239.271	978.141
164.921	24.466	1239.489	978.204
165.935	24.704	1238.291	978.474
166.950	24.546	1238.677	977.824
167.964	24.563	1237.725	977.078
168.979	24.860	1235.896	977.171
169.994	24.641	1236.041	976.006
171.008	24.459	1235.786	974.720
172.023	24.685	1235.064	975.302
173.037	24.736	1234.701	975.202
174.052	24.698	1233.563	974.013
175.067	24.771	1233.096	973.956
176.081	24.434	1231.658	970.902
177.096	24.207	1231.385	969.363
178.110	24.427	1230.360	969.667
179.125	24.493	1228.824	968.731
180.140	24.870	1226.201	968.615
181.154	24.665	1227.183	968.196
182.169	24.708	1224.996	966.619
183.183	25.068	1224.051	967.731
184.198	25.049	1223.165	966.840
185.213	24.944	1222.605	965.749
186.227	24.793	1221.895	964.288
187.242	24.872	1221.048	963.959
188.256	24.842	1220.277	963.103
189.271	25.041	1219.256	963.282
190.286	24.884	1218.403	961.679
191.300	24.632	1217.454	959.493
192.315	24.831	1216.268	959.541
193.329	24.701	1216.520	958.958
194.344	24.665	1215.735	958.060
195.359	24.199	1215.942	955.640
196.373	24.341	1214.361	955.072
197.388	24.203	1214.156	954.090
198.402	24.476	1214.093	955.418
199.417	24.819	1213.891	957.009
200.432	24.872	1214.163	957.420
201.446	25.078	1212.597	957.202
202.461	24.996	1213.076	957.060
203.475	25.063	1210.276	955.119
204.490	24.462	1209.747	951.418
205.504	24.346	1208.987	950.119
206.519	24.493	1207.098	949.332
207.534	24.306	1205.952	947.351
208.548	24.350	1204.734	946.541
209.563	24.199	1205.555	946.304
210.577	24.306	1202.938	944.730
211.592	24.405	1202.314	944.685
212.607	24.921	1202.834	947.740
213.621	24.988	1201.881	947.258
214.636	24.520	1201.444	944.358
215.650	24.701	1200.620	944.584
216.665	24.862	1199.489	944.458
217.680	24.946	1199.399	944.749
218.694	25.002	1198.191	944.009
219.709	24.676	1197.609	941.746
220.723	24.981	1195.259	941.422
221.738	24.574	1196.843	940.443
222.753	24.369	1195.136	937.939
223.767	24.629	1193.765	938.146
224.782	24.727	1194.755	939.353
225.796	24.967	1193.649	939.663
226.811	24.792	1193.183	938.296
227.826	24.660	1192.099	936.669
228.840	24.562	1191.094	935.282
229.855	24.586	1190.378	934.760
230.869	24.800	1189.516	935.120
231.884	24.797	1187.984	933.820
232.899	24.349	1187.542	931.053
233.913	24.274	1186.653	929.881
234.928	24.701	1185.996	931.510
235.942	24.452	1185.704	929.898
236.957	24.367	1185.412	929.147
237.972	23.949	1184.497	926.171
238.986	24.326	1183.427	927.211
240.001	24.297	1183.040	926.677
241.015	24.357	1182.079	926.154
242.030	24.652	1182.195	927.696
243.045	24.359	1182.464	926.303
244.059	24.453	1180.735	925.354
245.074	24.851	1179.148	926.087
246.088	24.877	1179.124	926.117
247.103	25.069	1178.307	926.391
248.117	25.142	1177.907	926.367
249.132	24.853	1176.877	923.985
250.147	25.024	1177.871	925.567
251.161	25.642	1175.143	926.525
252.176	24.954	1176.663	924.092
253.190	25.345	1175.570	925.169
254.205	25.546	1175.612	926.157
255.220	25.624	1173.531	924.837
256.234	25.629	1173.192	924.513
257.249	25.769	1172.311	924.456
258.263	25.590	1171.820	923.067
259.278	25.238	1171.606	921.010
260.293	25.572	1170.419	921.709
261.307	25.469	1170.445	921.119
262.322	25.375	1169.828	920.071
263.336	25.654	1168.172	920.112
264.351	25.567	1168.329	919.710
265.366	25.226	1167.925	917.565
266.380	25.481	1166.182	917.417
267.395	25.510	1166.142	917.455
268.409	25.526	1164.619	916.254
269.424	25.272	1164.615	914.877
270.439	25.264	1163.633	913.984
271.453	25.195	1163.483	913.432
272.468	25.142	1162.328	912.175
273.482	25.356	1160.824	912.004
274.497	25.280	1160.509	911.291
275.512	25.151	1160.679	910.687
276.526	24.709	1160.229	908.007
277.541	25.035	1159.427	908.957
278.555	25.359	1157.873	909.296
279.570	25.216	1159.310	909.621
280.585	25.637	1157.518	910.266
281.599	25.347	1156.644	908.027
282.614	25.273	1154.938	906.236
283.628	25.191	1154.279	905.226
284.643	25.286	1153.526	905.036
285.657	25.345	1152.674	904.581
286.672	24.992	1152.063	902.247
287.687	25.520	1150.208	903.367
288.701	25.282	1150.316	902.178
289.716	25.475	1149.127	902.131
290.730	25.450	1148.291	901.269
291.745	25.235	1148.245	900.076
292.760	24.957	1148.329	898.670
293.774	25.390	1147.289	899.943
294.789	25.472	1146.950	900.008
295.803	25.637	1146.742	900.595
296.818	25.509	1145.265	898.714
297.833	25.460	1144.501	897.788
298.847	25.448	1143.537	896.893
299.862	25.400	1142.709	895.925
300.876	25.398	1141.936	895.232
301.891	25.216	1142.951	895.040
302.906	25.463	1141.556	895.099
303.920	25.586	1140.629	894.905
304.935	25.637	1140.263	894.793
305.949	25.665	1140.117	894.738
306.964	25.887	1139.184	895.029
307.979	25.930	1137.806	894.079
308.993	25.626	1137.208	892.023
310.008	25.300	1137.464	890.528
311.022	25.451	1136.764	890.649
312.037	25.942	1135.004	891.622
313.052	25.625	1133.758	888.999
314.066	25.501	1132.840	887.586
315.081	25.043	1132.233	884.771
316.095	24.846	1132.653	884.050
317.110	25.118	1130.415	883.566
318.125	25.230	1130.074	883.774
319.139	25.083	1129.761	882.723
320.154	25.074	1129.333	882.270
321.168	24.798	1129.333	880.830
322.183	25.148	1128.172	881.570
323.197	24.887	1127.782	879.901
324.212	25.269	1126.132	880.414
325.227	25.295	1126.134	880.462
326.241	25.487	1125.506	880.835
327.256	25.204	1124.832	878.843
328.270	25.113	1124.037	877.698
329.285	25.213	1122.783	877.132
330.300	25.153	1122.816	876.785
331.314	25.541	1121.422	877.516
332.329	25.181	1121.081	875.415
333.343	25.310	1119.366	874.624
334.358	25.389	1119.018	874.662
335.373	25.798	1118.340	876.045
336.387	25.782	1118.183	875.764
337.402	25.681	1117.221	874.443
338.416	25.704	1117.105	874.386
339.431	25.419	1116.956	872.808
340.446	25.902	1115.500	873.938
341.460	26.108	1115.578	874.916
342.475	26.178	1114.846	874.604
343.489	25.958	1113.379	872.316
344.504	25.872	1113.006	871.529
345.519	26.092	1111.979	871.712
346.533	26.147	1111.130	871.234
347.548	26.320	1110.711	871.659
348.562	26.009	1110.376	869.824
349.577	25.931	1108.460	867.871
350.592	25.704	1107.425	865.891
351.606	25.547	1106.558	864.378
352.621	25.746	1105.792	864.662
353.635	25.566	1104.538	862.739
354.650	25.288	1104.710	861.467
355.665	25.606	1103.664	862.097
356.679	25.440	1103.994	861.482
357.694	25.509	1103.084	861.029
358.708	25.616	1102.890	861.313
359.723	25.795	1101.808	861.247
360.738	25.874	1101.259	861.117
361.752	25.382	1101.541	858.912
362.767	25.720	1100.382	859.546
363.781	25.723	1099.227	858.583
364.796	25.712	1098.566	857.938
365.810	26.263	1099.341	861.092
366.825	26.309	1099.311	861.213
367.840	26.362	1097.799	860.203
368.854	26.466	1097.918	860.717
369.869	26.407	1097.509	860.039
370.883	26.183	1094.841	856.807
371.898	26.045	1094.194	855.574
372.913	25.686	1094.489	854.023
373.927	26.108	1093.452	855.137
374.942	26.341	1093.473	856.182
375.956	26.311	1092.380	855.111
376.971	26.355	1091.717	854.723
377.986	26.267	1091.507	854.069
379.000	26.361	1091.323	854.291
380.015	26.367	1090.732	853.781
381.029	26.449	1090.265	853.729
382.044	26.261	1089.308	852.017
383.059	26.441	1088.051	851.808
384.073	26.380	1087.735	851.198
385.088	26.292	1087.246	850.325
386.102	26.149	1086.023	848.621
387.117	25.914	1085.508	847.037
388.132	25.749	1084.572	845.456
389.146	25.929	1082.930	844.947
390.161	25.846	1081.267	843.186
391.175	25.639	1083.047	843.528
392.190	25.727	1082.480	843.424
393.205	26.275	1081.713	845.318
394.219	26.429	1080.042	844.658
395.234	26.263	1079.098	843.071
396.248	25.856	1077.818	840.097
397.263	25.961	1077.160	840.000
398.278	25.729	1077.367	839.007
399.292	25.830	1076.906	839.045
400.307	26.270	1074.636	839.247
401.321	25.945	1074.500	837.555
402.336	25.775	1073.319	835.769
403.350	25.494	1073.549	834.572
404.365	25.943	1073.012	836.165
405.380	26.020	1071.965	835.630
406.394	26.071	1070.660	834.772
407.409	26.113	1070.777	834.986
408.423	26.213	1070.271	834.981
409.438	26.384	1069.197	834.858
410.453	26.277	1069.216	834.303
411.467	26.903	1067.634	835.881
412.482	26.753	1067.157	834.745
413.496	26.701	1067.304	834.545
414.511	26.544	1066.917	833.447
415.526	26.258	1067.206	832.281
416.540	26.772	1065.864	833.525
417.555	26.584	1065.617	832.395
418.569	26.420	1064.495	830.691
419.584	26.472	1064.074	830.525
420.599	26.278	1063.682	829.256
421.613	153.304	1404.356	1793.482
422.628	140.984	1453.974	1793.514
