DTS Sentinel unit serial number:	SN413079Multiplexer serial number:	ORYXHardware model number:	OX4-SRSoftware version number:	ORYX F/W v4.00 Oryx Data Collector v3.7.2.0data status	okinstallation	princeton_trtdifferential loss correction	single-endedforward channel	channel 2reverse channel	N/Adate	2019/09/11time	22:49:11forward acquisition time	60.00reverse acquisition time	0.00gamma	496.2192k internal	0.2325k external	0.2325temperature offset calibration	1.0071default loss term (dB/km)	0.3790temperature slope calibration	1.0000multiplexer offset coefficient	1.0000multiplexer slope coefficient	1.0000fibre end	0.00T internal ref (°C)	34.75T ext. ref 1 (°C)	1.77T ext. ref 2 (°C)	29.33length (m)	temperature (°C)	Stokes	anti-Stokes-747.200	-88.515	-0.039	-0.012
-746.185	-200.000	-0.027	0.271
-745.171	-95.514	0.340	-0.092
-744.156	800.000	-0.131	0.387
-743.142	43.530	0.094	0.087
-742.127	25.988	-0.324	0.273
-741.112	-0.979	-0.241	0.172
-740.098	-43.986	-0.106	0.054
-739.083	46.237	-0.182	0.171
-738.069	-101.772	-0.104	0.025
-737.054	55.910	0.288	-0.282
-736.039	-200.000	0.030	-0.446
-735.025	102.698	0.058	-0.068
-734.010	579.010	-0.066	-0.162
-732.996	167.011	-0.118	0.168
-731.981	-124.886	-0.360	0.056
-730.966	800.000	0.089	0.320
-729.952	174.234	-0.141	-0.206
-728.937	-16.160	-0.205	0.131
-727.923	-41.810	-0.236	0.122
-726.908	800.000	-0.036	-0.107
-725.894	-34.726	-0.200	-0.110
-724.879	742.349	-0.111	-0.302
-723.864	-50.614	-0.370	-0.176
-722.850	-200.000	-0.242	0.001
-721.835	-200.000	0.006	-0.209
-720.821	109.295	0.227	-0.274
-719.806	44.085	0.059	-0.055
-718.791	800.000	-0.007	-0.026
-717.777	800.000	-0.052	-0.189
-716.762	-200.000	-0.005	0.075
-715.748	110.505	-0.129	-0.156
-714.733	26.119	0.078	0.065
-713.718	72.926	0.140	0.148
-712.704	-100.090	0.074	-0.018
-711.689	197.194	-0.086	0.132
-710.675	-200.000	0.001	0.085
-709.660	-53.691	-0.093	-0.043
-708.645	-200.000	-0.053	0.437
-707.631	88.968	0.108	-0.122
-706.616	332.141	0.058	-0.112
-705.602	-60.692	0.331	0.141
-704.587	-149.712	-0.202	-0.016
-703.572	-151.589	0.048	-0.004
-702.558	-102.639	0.222	0.053
-701.543	-78.726	0.234	0.080
-700.529	-111.064	0.103	0.021
-699.514	159.310	-0.019	-0.026
-698.499	800.000	-0.078	-0.334
-697.485	-200.000	0.017	-0.220
-696.470	299.909	0.069	0.128
-695.456	26.170	-0.061	0.051
-694.441	-159.357	-0.161	0.009
-693.426	-101.897	0.253	0.062
-692.412	-88.662	0.362	0.108
-691.397	37.309	0.110	-0.099
-690.383	700.280	0.067	-0.179
-689.368	-102.733	0.033	0.008
-688.354	380.313	-0.031	0.064
-687.339	180.801	-0.055	-0.081
-686.324	10.240	-0.261	-0.200
-685.310	313.403	-0.111	0.209
-684.295	800.000	-0.096	0.312
-683.281	119.205	-0.074	0.093
-682.266	-200.000	-0.006	0.227
-681.251	800.000	-0.050	-0.164
-680.237	92.157	-0.203	0.230
-679.222	-122.830	-0.189	-0.031
-678.208	-200.000	-0.010	-0.063
-677.193	654.069	0.031	-0.080
-676.178	101.239	-0.124	-0.145
-675.164	-200.000	-0.004	-0.058
-674.149	-21.635	0.334	-0.205
-673.135	-96.477	-0.181	-0.048
-672.120	141.657	0.034	0.046
-671.105	138.201	0.188	0.249
-670.091	-114.758	-0.137	-0.026
-669.076	-21.362	0.043	-0.026
-668.062	380.825	0.125	0.259
-667.047	73.076	0.305	0.321
-666.032	-91.429	0.396	-0.114
-665.018	-154.023	-0.221	0.015
-664.003	-200.000	-0.035	0.170
-662.989	18.018	-0.209	0.167
-661.974	-200.000	-0.073	-0.385
-660.959	-121.412	-0.251	-0.042
-659.945	-200.000	-0.010	0.106
-658.930	282.822	-0.104	-0.188
-657.916	167.282	-0.109	-0.155
-656.901	-135.632	0.529	0.063
-655.886	-80.349	0.326	-0.110
-654.872	199.593	0.110	-0.169
-653.857	-150.142	-0.105	0.008
-652.843	686.162	-0.105	0.275
-651.828	96.044	0.228	-0.262
-650.814	800.000	-0.106	0.355
-649.799	800.000	-0.054	-0.181
-648.784	373.855	-0.014	-0.028
-647.770	277.103	-0.205	0.367
-646.755	-200.000	-0.009	-0.199
-645.741	11.621	0.233	-0.180
-644.726	-200.000	0.008	0.290
-643.711	-200.000	0.023	0.105
-642.697	86.928	0.112	0.124
-641.682	236.214	0.208	-0.346
-640.668	-55.607	-0.190	0.085
-639.653	-170.663	-0.172	0.006
-638.638	207.881	-0.132	0.207
-637.624	93.772	0.187	0.213
-636.609	-22.393	0.230	-0.140
-635.595	112.732	0.084	-0.102
-634.580	-200.000	0.053	0.264
-633.565	166.927	-0.069	-0.098
-632.551	-23.099	0.190	-0.115
-631.536	-120.138	-0.221	-0.038
-630.522	-142.398	-0.156	-0.015
-629.507	-121.156	0.056	-0.009
-628.492	-120.348	-0.168	0.029
-627.478	-79.399	0.374	0.127
-626.463	265.450	0.251	0.440
-625.449	-121.263	0.122	0.021
-624.434	178.237	0.086	-0.126
-623.419	-184.849	0.068	0.001
-622.405	-120.808	-0.082	-0.014
-621.390	-200.000	-0.029	0.357
-620.376	-13.228	0.331	-0.216
-619.361	-38.602	-0.265	-0.141
-618.346	15.808	-0.168	-0.133
-617.332	74.660	-0.223	0.236
-616.317	-200.000	-0.005	0.283
-615.303	69.904	0.113	-0.117
-614.288	23.935	-0.165	-0.137
-613.273	-200.000	-0.009	0.153
-612.259	-119.003	0.342	0.060
-611.244	253.832	-0.077	0.132
-610.230	149.741	0.127	0.172
-609.215	800.000	-0.053	-0.155
-608.201	-64.153	0.170	0.070
-607.186	770.489	-0.197	0.538
-606.171	365.956	-0.104	0.210
-605.157	-38.429	0.225	-0.119
-604.142	-200.000	0.029	-0.373
-603.128	-200.000	-0.013	-0.387
-602.113	-200.000	-0.021	-0.191
-601.098	604.206	-0.085	-0.213
-600.084	40.149	0.043	0.038
-599.069	-52.333	0.190	-0.088
-598.055	106.564	0.115	-0.136
-597.040	32.717	-0.201	0.175
-596.025	-86.952	-0.123	-0.038
-595.011	311.310	-0.115	0.216
-593.996	-111.198	0.145	-0.030
-592.982	696.822	0.075	-0.197
-591.967	493.524	-0.125	-0.288
-590.952	16.909	0.287	-0.228
-589.938	-200.000	-0.016	-0.105
-588.923	-200.000	0.002	-0.239
-587.909	-200.000	-0.032	-0.318
-586.894	157.725	-0.108	-0.151
-585.879	-200.000	-0.010	0.077
-584.865	-200.000	0.026	-0.192
-583.850	47.873	-0.341	0.320
-582.836	46.322	0.210	-0.195
-581.821	800.000	0.046	0.177
-580.806	-111.633	0.066	-0.013
-579.792	-29.367	0.084	-0.048
-578.777	800.000	0.062	0.268
-577.763	800.000	-0.004	-0.012
-576.748	-200.000	-0.066	0.514
-575.733	141.765	0.144	-0.191
-574.719	-3.410	0.270	-0.188
-573.704	125.435	-0.246	-0.311
-572.690	31.008	0.099	0.085
-571.675	166.758	-0.252	0.358
-570.661	-74.391	-0.459	-0.166
-569.646	14.812	0.311	0.244
-568.631	-35.967	-0.358	-0.194
-567.617	-4.125	-0.176	-0.122
-566.602	51.029	-0.140	0.133
-565.588	-118.653	0.208	-0.037
-564.573	-150.173	0.223	-0.017
-563.558	-108.072	0.165	-0.036
-562.544	800.000	-0.022	-0.061
-561.529	-143.374	0.073	0.007
-560.515	-20.279	-0.242	-0.149
-559.500	-50.559	0.333	0.157
-558.485	330.809	0.067	-0.129
-557.471	17.981	-0.201	0.160
-556.456	-1.670	0.208	-0.147
-555.442	484.157	-0.086	0.196
-554.427	-200.000	0.005	0.040
-553.412	454.348	0.142	-0.316
-552.398	-200.000	-0.007	0.111
-551.383	800.000	0.061	0.168
-550.369	-4.431	0.297	0.205
-549.354	-149.320	0.178	-0.014
-548.339	629.406	0.027	-0.067
-547.325	-102.253	0.012	-0.003
-546.310	-84.772	-0.243	-0.077
-545.296	541.774	-0.104	-0.248
-544.281	273.156	0.043	-0.075
-543.266	-200.000	0.000	0.214
-542.252	800.000	-0.061	0.213
-541.237	360.893	0.074	-0.149
-540.223	-152.021	-0.315	-0.023
-539.208	371.932	0.068	0.138
-538.193	-96.904	0.323	0.085
-537.179	253.129	0.143	-0.244
-536.164	-37.997	0.289	0.154
-535.150	-98.328	0.340	-0.087
-534.135	800.000	-0.030	0.097
-533.121	-29.951	-0.329	0.187
-532.106	-41.221	0.114	-0.059
-531.091	-200.000	0.006	-0.353
-530.077	7.039	0.231	0.172
-529.062	198.537	0.175	-0.268
-528.048	-200.000	-0.015	0.169
-527.033	-108.079	0.054	-0.012
-526.018	-190.960	-0.109	-0.001
-525.004	114.863	-0.057	-0.069
-523.989	-200.000	-0.010	0.047
-522.975	-112.331	0.075	-0.015
-521.960	249.702	-0.276	0.468
-520.945	8.744	0.266	0.201
-519.931	-105.964	-0.022	-0.005
-518.916	-58.502	-0.292	0.127
-517.902	68.624	0.101	0.104
-516.887	-76.301	-0.469	-0.165
-515.872	-108.950	0.392	0.084
-514.858	-200.000	0.007	0.192
-513.843	800.000	0.074	0.312
-512.829	800.000	-0.061	0.207
-511.814	8.755	-0.225	0.169
-510.799	-80.137	0.143	-0.048
-509.785	-200.000	-0.103	-0.454
-508.770	-58.878	0.161	-0.070
-507.756	242.669	-0.153	-0.257
-506.741	-100.549	-0.285	0.070
-505.726	-200.000	-0.030	0.242
-504.712	-156.575	-0.129	-0.008
-503.697	-116.408	-0.278	-0.051
-502.683	800.000	0.043	0.129
-501.668	-200.000	-0.036	-0.177
-500.653	-200.000	-0.014	-0.529
-499.639	756.975	0.010	-0.026
-498.624	-148.389	-0.125	-0.010
-497.610	158.849	-0.125	-0.174
-496.595	800.000	-0.132	-0.402
-495.581	58.432	0.219	-0.215
-494.566	-57.557	-0.444	-0.195
-493.551	800.000	0.021	-0.081
-492.537	-30.045	-0.277	-0.157
-491.522	-104.017	-0.253	-0.059
-490.508	-156.074	0.162	-0.010
-489.493	-63.602	-0.200	-0.082
-488.478	245.842	0.265	-0.445
-487.464	142.552	0.100	-0.133
-486.449	-200.000	-0.016	-0.116
-485.435	-131.985	0.154	0.020
-484.420	210.827	0.074	-0.116
-483.405	-185.601	0.043	0.001
-482.391	4.088	-0.214	-0.156
-481.376	175.211	0.116	0.168
-480.362	29.280	-0.079	0.067
-479.347	221.400	-0.089	0.143
-478.332	-122.424	-0.332	0.054
-477.318	-168.862	-0.157	-0.006
-476.303	364.933	0.083	0.166
-475.289	-200.000	0.007	-0.225
-474.274	-93.576	0.177	0.049
-473.259	800.000	-0.097	-0.375
-472.245	4.921	0.189	0.139
-471.230	67.013	-0.094	0.096
-470.216	800.000	0.024	0.106
-469.201	-5.311	0.105	-0.072
-468.186	32.487	0.276	0.238
-467.172	271.441	0.141	0.248
-466.157	-118.183	-0.082	0.015
-465.143	800.000	-0.121	-0.466
-464.128	36.848	-0.169	-0.149
-463.113	800.000	-0.100	0.326
-462.099	-81.509	0.295	0.097
-461.084	141.386	0.149	-0.197
-460.070	211.177	-0.159	-0.250
-459.055	13.300	-0.300	-0.232
-458.040	107.677	0.073	0.087
-457.026	21.639	0.055	0.044
-456.011	29.800	-0.429	-0.364
-454.997	800.000	-0.095	-0.296
-453.982	-200.000	-0.037	0.191
-452.968	-200.000	0.010	0.111
-451.953	-24.771	-0.269	-0.160
-450.938	9.839	-0.221	-0.168
-449.924	667.256	0.098	-0.254
-448.909	-79.506	0.368	-0.124
-447.895	800.000	-0.095	0.337
-446.880	-91.176	-0.180	-0.051
-445.865	-28.162	-0.167	-0.096
-444.851	150.329	-0.078	0.105
-443.836	231.820	-0.061	-0.100
-442.822	800.000	0.108	-0.315
-441.807	70.958	0.188	0.194
-440.792	19.830	-0.191	0.153
-439.778	800.000	0.054	0.148
-438.763	800.000	-0.049	-0.173
-437.749	52.347	0.043	0.041
-436.734	-38.888	0.178	-0.094
-435.719	132.911	0.107	-0.138
-434.705	-200.000	-0.022	0.491
-433.690	156.979	0.132	0.182
-432.676	-16.444	-0.342	0.216
-431.661	-200.000	0.052	0.372
-430.646	-30.552	-0.039	-0.022
-429.632	4.616	-0.119	-0.087
-428.617	-200.000	0.027	0.221
-427.603	75.096	-0.062	0.065
-426.588	-131.222	-0.172	0.023
-425.573	164.523	0.164	0.230
-424.559	-157.908	-0.258	0.015
-423.544	345.484	-0.136	-0.267
-422.530	-126.687	-0.387	-0.057
-421.515	140.317	0.071	0.093
-420.500	282.422	0.068	0.122
-419.486	-66.597	0.159	-0.063
-418.471	-30.725	-0.249	0.141
-417.457	310.476	0.061	0.113
-416.442	137.690	-0.058	0.076
-415.428	291.225	0.005	-0.009
-414.413	-18.741	0.058	-0.036
-413.398	800.000	-0.109	-0.328
-412.384	60.153	-0.109	0.107
-411.369	410.847	0.181	0.383
-410.355	-200.000	-0.057	0.304
-409.340	-112.287	0.317	0.063
-408.325	-16.583	0.260	-0.164
-407.311	-75.687	-0.108	0.038
-406.296	9.280	0.161	-0.121
-405.282	437.114	0.086	-0.187
-404.267	-119.390	-0.110	-0.019
-403.252	-26.328	0.029	0.017
-402.238	800.000	-0.044	-0.142
-401.223	49.347	-0.133	-0.124
-400.209	74.533	-0.156	-0.163
-399.194	-200.000	-0.006	0.094
-398.179	-200.000	0.045	-0.284
-397.165	106.076	-0.230	0.271
-396.150	74.595	0.233	0.244
-395.136	-182.809	-0.182	-0.003
-394.121	-100.863	0.205	-0.050
-393.106	498.231	-0.149	-0.341
-392.092	33.756	0.037	0.032
-391.077	-32.950	-0.074	0.041
-390.063	800.000	-0.052	0.179
-389.048	70.508	0.204	-0.209
-388.033	575.501	-0.071	-0.172
-387.019	800.000	-0.070	-0.243
-386.004	57.621	0.097	-0.094
-384.990	402.963	-0.154	-0.322
-383.975	-200.000	0.039	-0.190
-382.960	5.657	-0.070	-0.051
-381.946	314.036	0.073	-0.136
-380.931	-200.000	0.027	0.273
-379.917	-200.000	-0.065	0.401
-378.902	-182.284	0.256	0.005
-377.888	-200.000	-0.040	-0.188
-376.873	-63.280	-0.034	0.014
-375.858	-21.392	0.136	0.083
-374.844	-200.000	0.085	0.446
-373.829	285.059	-0.088	0.157
-372.815	210.016	-0.309	-0.482
-371.800	217.032	-0.223	0.354
-370.785	387.806	-0.063	-0.130
-369.771	333.150	-0.051	0.097
-368.756	800.000	0.036	0.116
-367.742	-155.531	-0.157	-0.010
-366.727	-165.953	0.192	0.008
-365.712	36.740	-0.165	0.145
-364.698	-200.000	-0.016	-0.091
-363.683	15.897	0.233	-0.183
-362.669	27.716	0.080	-0.067
-361.654	65.295	-0.145	-0.146
-360.639	-200.000	-0.052	0.263
-359.625	-200.000	0.009	-0.217
-358.610	-120.659	0.340	-0.057
-357.596	-40.172	0.210	-0.109
-356.581	-185.244	-0.106	-0.002
-355.566	-200.000	-0.015	-0.152
-354.552	-110.118	-0.265	0.055
-353.537	196.071	0.066	0.100
-352.523	-28.476	0.270	0.155
-351.508	481.862	0.146	0.330
-350.493	-200.000	-0.016	-0.073
-349.479	520.839	-0.052	-0.122
-348.464	68.544	-0.275	0.280
-347.450	176.092	-0.134	0.193
-346.435	89.753	-0.041	-0.045
-345.420	-34.641	0.097	0.053
-344.406	32.088	-0.010	0.009
-343.391	-16.232	0.125	-0.079
-342.377	800.000	-0.118	-0.468
-341.362	-200.000	-0.009	-0.276
-340.348	800.000	0.055	-0.180
-339.333	-100.596	0.153	0.038
-338.318	148.391	0.126	0.169
-337.304	159.356	-0.133	-0.184
-336.289	-29.119	0.174	0.099
-335.275	-200.000	0.006	0.245
-334.260	-109.000	0.380	0.080
-333.245	-71.217	0.165	-0.062
-332.231	606.138	-0.193	-0.478
-331.216	800.000	-0.022	-0.090
-330.202	151.614	-0.155	0.209
-329.187	-85.049	0.103	-0.032
-328.172	118.638	0.081	0.099
-327.158	-45.212	-0.219	-0.108
-326.143	-59.849	-0.109	-0.046
-325.129	-159.093	-0.084	-0.005
-324.114	-56.818	0.080	-0.035
-323.099	-153.323	0.152	-0.010
-322.085	124.092	0.108	0.135
-321.070	-200.000	-0.060	-0.261
-320.056	29.021	0.075	0.063
-319.041	-200.000	0.031	0.407
-318.026	-200.000	-0.049	0.562
-317.012	-93.492	-0.288	-0.079
-315.997	-200.000	-0.012	0.092
-314.983	-185.445	0.329	-0.005
-313.968	55.950	0.226	0.218
-312.953	397.235	0.114	-0.236
-311.939	113.010	-0.217	-0.261
-310.924	-97.194	0.156	-0.040
-309.910	-35.223	0.176	0.095
-308.895	-200.000	0.013	-0.106
-307.880	-200.000	0.024	0.147
-306.866	206.078	0.107	-0.166
-305.851	-61.181	-0.153	0.064
-304.837	-134.462	0.139	0.017
-303.822	-200.000	0.008	0.058
-302.807	-59.507	0.137	-0.059
-301.793	800.000	0.021	-0.090
-300.778	-117.329	-0.095	-0.017
-299.764	-157.809	-0.310	0.018
-298.749	-200.000	0.029	0.512
-297.735	-71.526	-0.276	0.102
-296.720	-76.464	0.193	0.067
-295.705	-30.231	-0.180	0.102
-294.691	606.939	-0.084	0.207
-293.676	-154.361	0.370	0.025
-292.662	23.364	-0.239	0.195
-291.647	-21.113	0.213	-0.129
-290.632	-200.000	0.014	0.204
-289.618	375.840	-0.224	0.453
-288.603	-19.489	0.307	0.188
-287.589	80.605	-0.107	-0.114
-286.574	-28.613	0.106	0.060
-285.559	-59.484	0.085	0.036
-284.545	107.023	-0.169	-0.199
-283.530	136.365	-0.298	0.385
-282.516	-200.000	-0.029	0.203
-281.501	136.906	0.263	-0.340
-280.486	118.209	0.159	0.194
-279.472	-158.514	0.140	-0.008
-278.457	-63.625	0.456	0.185
-277.443	-71.103	-0.076	0.028
-276.428	51.402	0.096	0.091
-275.413	590.242	-0.155	0.380
-274.399	-180.300	0.017	0.000
-273.384	800.000	-0.044	-0.124
-272.370	339.009	0.099	0.191
-271.355	-6.507	0.123	-0.083
-270.340	58.386	-0.166	-0.161
-269.326	800.000	0.057	-0.193
-268.311	-200.000	-0.050	-0.237
-267.297	572.038	-0.100	0.240
-266.282	213.917	0.036	0.056
-265.267	-79.121	0.281	0.094
-264.253	-200.000	-0.023	0.137
-263.238	-27.822	-0.334	0.192
-262.224	-200.000	-0.043	0.285
-261.209	41.069	0.235	-0.210
-260.195	-200.000	-0.024	-0.155
-259.180	-200.000	0.033	-0.151
-258.165	-12.685	0.218	-0.141
-257.151	-142.650	0.130	0.013
-256.136	-7.808	0.159	0.106
-255.122	-129.528	0.182	-0.025
-254.107	-200.000	-0.008	0.132
-253.092	-200.000	-0.003	0.062
-252.078	-64.283	-0.157	-0.063
-251.063	-120.270	-0.204	0.034
-250.049	48.307	-0.081	0.075
-249.034	65.113	-0.123	0.123
-248.019	800.000	0.017	0.059
-247.005	-96.780	0.277	-0.072
-245.990	-195.283	-0.154	-0.001
-244.976	-111.681	0.089	0.018
-243.961	95.541	-0.279	0.315
-242.946	95.081	0.241	0.272
-241.932	420.788	0.121	0.256
-240.917	-13.124	-0.293	-0.188
-239.903	144.051	0.318	0.420
-238.888	448.604	-0.117	0.254
-237.873	-43.936	0.448	-0.223
-236.859	-102.607	-0.126	-0.030
-235.844	-125.387	-0.353	0.053
-234.830	67.957	-0.126	-0.128
-233.815	144.909	-0.122	-0.162
-232.800	-30.740	0.149	0.084
-231.786	-200.000	-0.033	-0.204
-230.771	800.000	0.023	0.095
-229.757	800.000	0.061	-0.168
-228.742	642.534	0.082	-0.206
-227.727	-122.709	0.478	-0.077
-226.713	800.000	0.173	0.482
-225.698	41.529	-0.221	0.198
-224.684	800.000	-0.082	-0.285
-223.669	737.362	0.098	-0.261
-222.655	-200.000	0.043	0.294
-221.640	26.314	0.113	0.093
-220.625	800.000	0.051	0.210
-219.611	56.432	-0.201	-0.194
-218.596	-200.000	0.007	-0.234
-217.582	427.853	0.043	-0.091
-216.567	58.843	0.084	-0.082
-215.552	800.000	0.134	0.398
-214.538	13.228	0.122	0.094
-213.523	121.093	-0.068	-0.083
-212.509	72.407	-0.173	0.178
-211.494	167.132	-0.113	-0.159
-210.479	-3.359	-0.320	-0.220
-209.465	101.473	-0.019	0.022
-208.450	510.998	-0.049	-0.112
-207.436	41.566	-0.030	0.027
-206.421	322.663	-0.091	-0.171
-205.406	-140.899	0.242	-0.025
-204.392	270.208	0.127	-0.221
-203.377	-200.000	-0.019	-0.283
-202.363	-97.540	-0.142	0.036
-201.348	-34.648	0.084	-0.045
-200.333	3.905	0.096	-0.069
-199.319	57.528	-0.042	-0.040
-198.304	7.790	-0.242	0.179
-197.290	238.541	0.073	-0.120
-196.275	-200.000	-0.021	-0.342
-195.260	-74.849	0.224	0.079
-194.246	574.895	0.174	-0.421
-193.231	-10.577	-0.284	-0.186
-192.217	-26.234	0.153	0.089
-191.202	417.265	-0.073	0.154
-190.187	800.000	0.070	-0.279
-189.173	257.681	0.161	0.274
-188.158	166.380	0.080	0.111
-187.144	666.366	-0.015	-0.038
-186.129	800.000	-0.043	-0.147
-185.114	253.847	-0.009	0.016
-184.100	57.003	0.170	0.163
-183.085	-200.000	0.030	0.245
-182.071	-26.191	-0.158	-0.092
-181.056	-200.000	0.051	0.256
-180.042	800.000	0.099	-0.338
-179.027	112.340	0.205	-0.245
-178.012	118.820	-0.028	-0.035
-176.998	-200.000	-0.005	0.111
-175.983	-98.060	-0.197	-0.050
-174.969	-62.944	-0.198	-0.081
-173.954	-200.000	0.007	-0.266
-172.939	110.323	0.086	-0.102
-171.925	800.000	0.081	0.344
-170.910	4.550	-0.293	-0.212
-169.896	-200.000	-0.064	0.396
-168.881	211.429	-0.130	-0.201
-167.866	85.156	0.151	-0.164
-166.852	220.829	-0.142	-0.225
-165.837	-200.000	0.022	-0.115
-164.823	-138.010	0.324	-0.036
-163.808	-16.173	0.091	0.057
-162.793	-82.946	-0.354	-0.113
-161.779	21.112	-0.101	-0.081
-160.764	-200.000	-0.000	0.008
-159.750	-93.258	-0.434	-0.119
-158.735	124.929	-0.105	-0.130
-157.720	800.000	-0.057	0.158
-156.706	7.441	-0.287	-0.212
-155.691	-78.711	-0.238	0.080
-154.677	55.221	0.153	0.146
-153.662	-200.000	-0.017	0.459
-152.647	-200.000	0.002	-0.030
-151.633	-68.381	0.293	0.112
-150.618	-27.650	-0.221	0.126
-149.604	-53.871	0.255	-0.115
-148.589	-39.809	0.118	0.061
-147.574	416.551	-0.070	-0.148
-146.560	78.950	0.211	0.223
-145.545	101.437	-0.103	-0.118
-144.531	800.000	0.019	-0.054
-143.516	-54.898	0.078	0.035
-142.502	120.305	-0.015	0.019
-141.487	640.418	0.099	-0.247
-140.472	-200.000	0.009	-0.193
-139.458	-141.991	0.427	-0.042
-138.443	-0.072	-0.048	0.034
-137.429	20.632	-0.227	0.181
-136.414	575.080	0.116	0.279
-135.399	250.088	0.166	0.278
-134.385	-120.821	-0.208	-0.035
-133.370	109.976	-0.112	-0.133
-132.356	728.614	-0.192	0.506
-131.341	104.545	0.182	-0.211
-130.326	-77.750	0.023	-0.008
-129.312	43.217	-0.183	0.164
-128.297	-90.667	0.368	-0.105
-127.283	800.000	0.043	0.134
-126.268	-13.103	0.172	0.110
-125.253	-200.000	0.007	0.126
-124.239	23.423	-0.115	0.093
-123.224	193.730	0.059	0.088
-122.210	286.657	-0.077	0.138
-121.195	800.000	0.136	0.512
-120.180	-200.000	-0.039	0.265
-119.166	800.000	0.053	0.192
-118.151	-52.632	-0.177	-0.080
-117.137	182.506	-0.023	-0.033
-116.122	800.000	0.036	-0.115
-115.107	50.953	0.233	0.218
-114.093	692.120	0.074	-0.190
-113.078	64.211	-0.129	0.128
-112.064	-119.886	0.199	-0.034
-111.049	800.000	-0.016	-0.050
-110.034	333.265	0.192	0.366
-109.020	570.915	-0.026	0.062
-108.005	-29.581	0.086	0.048
-106.991	-148.844	0.160	0.013
-105.976	124.947	0.103	-0.128
-104.962	191.673	0.113	0.168
-103.947	-69.660	0.345	0.130
-102.932	-41.243	0.078	-0.040
-101.918	800.000	-0.059	0.251
-100.903	356.104	0.166	0.325
-99.889	105.502	-0.158	0.183
-98.874	-100.563	0.169	0.041
-97.859	-155.959	0.260	-0.016
-96.845	63.062	-0.130	0.128
-95.830	-126.025	0.179	-0.027
-94.816	-200.000	0.010	-0.072
-93.801	-134.405	0.037	0.005
-92.786	64.519	-0.085	-0.085
-91.772	-50.109	0.024	-0.011
-90.757	-185.363	-0.177	0.003
-89.743	-8.846	0.088	0.058
-88.728	-35.368	-0.056	-0.030
-87.713	-105.666	0.102	0.023
-86.699	-174.294	-0.620	0.018
-85.684	-200.000	0.014	0.551
-84.670	176.841	0.186	-0.266
-83.655	157.259	-0.087	-0.118
-82.640	-22.274	0.086	-0.051
-81.626	196.164	0.067	0.100
-80.611	-151.212	0.101	-0.007
-79.597	213.581	0.296	-0.461
-78.582	-200.000	0.005	0.063
-77.567	-63.714	0.156	0.063
-76.553	158.996	-0.059	-0.081
-75.538	-200.000	-0.010	0.111
-74.524	-200.000	0.004	0.303
-73.509	28.929	0.200	-0.167
-72.494	-63.799	0.092	-0.037
-71.480	-37.132	0.205	0.108
-70.465	298.782	-0.066	0.120
-69.451	-200.000	0.013	-0.116
-68.436	-152.933	-0.205	-0.014
-67.422	-40.225	-0.173	-0.089
-66.407	-200.000	-0.051	-0.257
-65.392	29.286	-0.155	0.130
-64.378	-78.836	-0.251	0.084
-63.363	-22.533	0.197	0.117
-62.349	85.882	0.149	-0.161
-61.334	93.441	-0.891	-0.990
-60.319	299.578	0.390	0.707
-59.305	747.220	-0.400	-1.059
-58.290	301.162	0.462	0.837
-57.276	240.197	1.024	1.676
-56.261	-200.000	97.463	589.771
-55.246	570.007	1383.119	3304.664
-54.232	154.246	2592.461	3494.037
-53.217	110.277	2281.617	2691.655
-52.203	44.461	1898.256	1712.551
-51.188	38.084	1686.793	1473.778
-50.173	35.333	1642.063	1414.382
-49.159	53.611	1691.764	1594.325
-48.144	57.047	1710.021	1637.134
-47.130	37.705	1665.357	1451.988
-46.115	34.794	1650.176	1417.149
-45.100	34.636	1645.161	1411.623
-44.086	34.540	1642.910	1408.927
-43.071	34.597	1639.817	1406.637
-42.057	34.550	1637.677	1404.395
-41.042	34.636	1635.320	1402.957
-40.027	34.672	1633.558	1401.652
-39.013	34.570	1631.526	1399.105
-37.998	34.563	1629.868	1397.575
-36.984	34.600	1628.628	1396.728
-35.969	34.770	1626.665	1396.231
-34.954	34.764	1625.134	1394.821
-33.940	34.772	1623.572	1393.481
-32.925	34.716	1621.700	1391.410
-31.911	34.750	1619.529	1389.742
-30.896	34.801	1618.010	1388.754
-29.881	34.699	1616.788	1386.909
-28.867	34.754	1615.317	1385.991
-27.852	34.718	1613.596	1384.197
-26.838	34.661	1612.325	1382.635
-25.823	34.696	1610.827	1381.552
-24.809	34.745	1609.625	1380.819
-23.794	34.831	1607.978	1379.970
-22.779	34.757	1606.481	1378.104
-21.765	34.734	1605.096	1376.693
-20.750	34.749	1603.548	1375.418
-19.736	34.865	1601.919	1374.799
-18.721	34.799	1600.663	1373.192
-17.706	34.796	1598.533	1371.289
-16.692	34.737	1597.164	1369.636
-15.677	34.803	1595.889	1368.960
-14.663	34.728	1594.450	1367.137
-13.648	34.773	1593.288	1366.409
-12.633	34.788	1591.766	1365.154
-11.619	34.840	1590.054	1364.003
-10.604	34.831	1588.389	1362.459
-9.590	34.808	1587.154	1361.185
-8.575	34.791	1586.094	1360.095
-7.560	34.790	1584.600	1358.752
-6.546	34.837	1583.559	1358.142
-5.531	34.927	1582.636	1357.938
-4.517	34.843	1581.538	1356.341
-3.502	34.741	1580.773	1354.907
-2.487	34.802	1578.820	1353.612
-1.473	34.600	1567.231	1342.202
-0.458	31.751	1548.249	1306.071
0.556	28.286	1548.277	1274.778
1.571	25.939	1572.507	1277.995
2.586	25.404	1586.362	1285.320
3.600	22.512	1532.880	1221.848
4.615	12.655	1421.147	1068.986
5.629	3.510	1353.431	961.183
6.644	1.914	1344.534	944.895
7.659	1.794	1343.093	943.053
8.673	1.669	1342.081	941.488
9.688	1.694	1339.912	940.035
10.702	1.356	1337.247	936.003
11.717	4.986	1344.371	963.367
12.731	15.317	1363.828	1041.699
13.746	23.721	1378.019	1104.965
14.761	25.692	1380.741	1119.320
15.775	25.923	1380.533	1120.492
16.790	26.133	1379.448	1120.812
17.804	26.149	1379.196	1120.610
18.819	26.382	1378.785	1121.618
19.834	26.445	1378.119	1121.374
20.848	26.572	1377.701	1121.720
21.863	26.578	1376.437	1120.625
22.877	26.435	1376.223	1119.467
23.892	26.431	1374.964	1118.319
24.907	26.488	1373.804	1117.630
25.921	26.521	1373.218	1117.260
26.936	26.493	1372.399	1116.319
27.950	26.413	1371.752	1115.204
28.965	26.444	1370.003	1113.873
29.980	26.492	1368.631	1112.953
30.994	26.498	1367.435	1111.921
32.009	26.361	1366.736	1110.410
33.023	26.341	1365.605	1109.274
34.038	26.491	1364.223	1108.972
35.053	26.580	1362.323	1107.871
36.067	26.483	1361.819	1106.773
37.082	26.508	1360.977	1106.143
38.096	26.449	1360.263	1105.105
39.111	26.435	1359.600	1104.384
40.126	26.507	1358.926	1104.178
41.140	26.436	1358.298	1103.135
42.155	26.510	1357.909	1103.173
43.169	26.475	1357.851	1102.813
44.184	26.404	1357.819	1102.257
45.199	26.393	1357.573	1101.891
46.213	26.422	1356.895	1101.421
47.228	26.428	1355.675	1100.369
48.242	26.479	1354.181	1099.373
49.257	26.485	1353.230	1098.538
50.271	26.479	1351.564	1097.055
51.286	26.479	1350.245	1095.883
52.301	26.482	1349.266	1095.014
53.315	26.479	1348.458	1094.238
54.330	26.487	1347.129	1093.111
55.344	26.505	1346.050	1092.249
56.359	26.347	1345.413	1090.680
57.374	26.494	1344.749	1090.933
58.388	26.320	1344.647	1089.707
59.403	26.405	1343.946	1089.555
60.417	26.432	1342.909	1088.783
61.432	26.562	1341.958	1088.694
62.447	26.524	1341.232	1087.782
63.461	26.463	1340.095	1086.394
64.476	26.422	1339.588	1085.643
65.490	26.410	1338.707	1084.763
66.505	26.482	1336.604	1083.389
67.520	26.405	1335.501	1081.943
68.534	26.495	1334.074	1081.227
69.549	26.523	1333.469	1080.811
70.563	26.524	1332.835	1080.202
71.578	26.471	1332.308	1079.369
72.593	26.630	1330.653	1078.879
73.607	26.474	1330.660	1077.856
74.622	26.493	1329.416	1076.870
75.636	26.473	1328.772	1076.134
76.651	26.498	1328.335	1075.832
77.666	26.391	1328.061	1074.875
78.680	26.479	1327.573	1074.913
79.695	26.569	1326.464	1074.450
80.709	26.500	1325.697	1073.326
81.724	26.508	1324.796	1072.550
82.739	26.467	1323.628	1071.266
83.753	26.471	1323.022	1070.701
84.768	26.483	1321.555	1069.496
85.782	26.429	1321.003	1068.635
86.797	26.553	1319.394	1067.967
87.812	26.626	1318.152	1067.299
88.826	26.526	1317.225	1065.863
89.841	26.575	1316.570	1065.526
90.855	26.511	1315.762	1064.402
91.870	26.524	1314.776	1063.586
92.884	26.530	1313.635	1062.606
93.899	26.526	1312.969	1061.949
94.914	26.508	1312.530	1061.396
95.928	26.568	1311.674	1060.962
96.943	26.538	1311.056	1060.195
97.957	26.604	1309.900	1059.547
98.972	26.505	1309.258	1058.361
99.987	26.565	1308.179	1057.740
101.001	26.473	1307.476	1056.546
102.016	26.452	1306.572	1055.599
103.030	26.533	1305.553	1055.152
104.045	26.499	1305.167	1054.550
105.060	26.570	1304.169	1054.064
106.074	26.594	1303.171	1053.304
107.089	26.658	1301.694	1052.386
108.103	26.662	1300.619	1051.448
109.118	26.624	1299.828	1050.497
110.133	26.634	1298.692	1049.543
111.147	26.730	1297.551	1049.085
112.162	26.640	1296.395	1047.535
113.176	26.612	1295.573	1046.617
114.191	26.667	1294.728	1046.156
115.206	26.499	1294.150	1044.632
116.220	26.582	1292.826	1043.945
117.235	26.665	1291.813	1043.515
118.249	26.628	1290.992	1042.548
119.264	26.474	1290.655	1041.296
120.279	26.622	1289.559	1041.169
121.293	26.736	1288.492	1040.870
122.308	26.705	1287.853	1040.085
123.322	26.694	1287.124	1039.339
124.337	26.770	1286.084	1038.844
125.352	26.708	1285.131	1037.627
126.366	26.671	1284.665	1036.950
127.381	26.687	1283.706	1036.175
128.395	26.585	1283.115	1035.023
129.410	26.682	1281.807	1034.429
130.424	26.672	1281.597	1034.110
131.439	26.622	1281.062	1033.305
132.454	26.780	1279.598	1032.929
133.468	26.777	1278.950	1032.301
134.483	26.658	1279.004	1031.574
135.497	26.622	1277.534	1030.094
136.512	26.673	1277.173	1030.000
137.527	26.665	1275.925	1028.860
138.541	26.664	1274.739	1027.803
139.556	26.552	1273.833	1026.350
140.570	26.591	1272.765	1025.614
141.585	26.651	1271.638	1024.960
142.600	26.544	1270.543	1023.382
143.614	26.644	1269.514	1023.024
144.629	26.546	1268.911	1021.895
145.643	26.646	1267.370	1021.125
146.658	26.497	1266.763	1019.707
147.673	26.571	1265.804	1019.264
148.687	26.627	1264.381	1018.345
149.702	26.587	1263.309	1017.162
150.716	26.602	1262.633	1016.611
151.731	26.608	1261.247	1015.444
152.746	26.680	1260.353	1015.036
153.760	26.616	1259.586	1013.968
154.775	26.622	1258.464	1013.011
155.789	26.610	1257.978	1012.460
156.804	26.619	1257.135	1011.742
157.819	26.681	1255.588	1010.757
158.833	26.644	1255.210	1010.158
159.848	26.548	1255.024	1009.382
160.862	26.600	1253.922	1008.698
161.877	26.655	1252.885	1008.080
162.892	26.710	1252.324	1007.845
163.906	26.777	1251.378	1007.364
164.921	26.799	1250.794	1006.927
165.935	26.769	1249.876	1005.931
166.950	26.788	1249.067	1005.302
167.964	26.758	1248.569	1004.641
168.979	26.706	1248.629	1004.316
169.994	26.793	1247.576	1003.859
171.008	26.723	1246.997	1002.918
172.023	26.808	1245.834	1002.364
173.037	26.803	1245.517	1001.993
174.052	26.761	1244.739	1001.047
175.067	26.738	1243.975	1000.216
176.081	26.673	1243.246	999.182
177.096	26.700	1242.596	998.723
178.110	26.795	1241.605	998.358
179.125	26.885	1240.173	997.613
180.140	26.790	1239.660	996.590
181.154	26.876	1238.410	995.971
182.169	26.881	1236.836	994.643
183.183	26.835	1236.306	993.879
184.198	26.848	1235.295	993.048
185.213	26.861	1234.099	992.071
186.227	26.845	1233.850	991.693
187.242	26.917	1232.554	990.958
188.256	26.834	1231.674	989.710
189.271	26.921	1230.971	989.534
190.286	26.830	1230.526	988.592
191.300	26.860	1229.986	988.235
192.315	26.773	1229.545	987.314
193.329	26.916	1229.126	987.669
194.344	26.949	1228.142	986.975
195.359	26.962	1228.019	986.858
196.373	26.847	1227.231	985.515
197.388	26.752	1227.707	985.293
198.402	26.861	1226.740	985.020
199.417	26.952	1226.145	984.950
200.432	26.825	1225.961	984.026
201.446	26.757	1225.425	983.138
202.461	26.887	1224.135	982.718
203.475	26.800	1223.522	981.672
204.490	26.772	1222.845	980.890
205.504	26.846	1221.417	980.055
206.519	26.889	1220.590	979.537
207.534	26.916	1219.834	978.989
208.548	26.937	1218.770	978.162
209.563	26.901	1217.976	977.246
210.577	26.974	1217.255	976.971
211.592	26.936	1216.234	975.862
212.607	26.918	1215.726	975.276
213.621	27.029	1214.958	975.167
214.636	26.998	1214.166	974.280
215.650	27.091	1212.971	973.732
216.665	26.973	1212.442	972.588
217.680	26.994	1211.648	971.978
218.694	27.036	1210.920	971.533
219.709	27.095	1210.065	971.075
220.723	27.093	1209.322	970.381
221.738	26.947	1208.869	969.157
222.753	26.911	1208.388	968.492
223.767	27.020	1207.315	968.128
224.782	27.088	1206.803	967.994
225.796	27.145	1206.242	967.761
226.811	27.010	1206.249	966.960
227.826	27.055	1205.131	966.219
228.840	27.098	1204.860	966.147
229.855	27.088	1204.141	965.428
230.869	27.041	1203.345	964.457
231.884	27.061	1202.151	963.519
232.899	27.049	1202.153	963.374
233.913	27.138	1201.428	963.179
234.928	27.215	1200.729	962.939
235.942	27.175	1200.128	962.160
236.957	27.144	1199.594	961.485
237.972	27.056	1199.004	960.464
238.986	27.060	1198.450	959.955
240.001	27.219	1197.329	959.809
241.015	27.186	1197.173	959.427
242.030	27.292	1196.324	959.222
243.045	27.189	1195.543	957.963
244.059	27.128	1195.185	957.271
245.074	27.270	1193.892	956.898
246.088	27.280	1193.057	956.200
247.103	27.332	1191.933	955.488
248.117	27.248	1191.607	954.701
249.132	27.250	1190.740	953.929
250.147	27.282	1190.303	953.663
251.161	27.476	1188.892	953.467
252.176	27.427	1188.733	952.995
253.190	27.387	1188.243	952.308
254.205	27.283	1187.672	951.226
255.220	27.325	1186.568	950.473
256.234	27.314	1186.651	950.401
257.249	27.349	1185.864	949.870
258.263	27.414	1185.112	949.523
259.278	27.496	1184.398	949.293
260.293	27.433	1184.263	948.772
261.307	27.339	1183.805	947.831
262.322	27.382	1183.018	947.343
263.336	27.354	1182.412	946.629
264.351	27.355	1181.792	946.054
265.366	27.335	1181.472	945.608
266.380	27.386	1180.404	944.937
267.395	27.393	1179.366	944.058
268.409	27.291	1179.472	943.526
269.424	27.362	1178.612	943.124
270.439	27.523	1177.725	943.165
271.453	27.485	1177.549	942.742
272.468	27.360	1176.763	941.386
273.482	27.427	1175.871	940.934
274.497	27.479	1175.433	940.766
275.512	27.448	1174.983	940.164
276.526	27.527	1174.198	939.862
277.541	27.465	1173.391	938.813
278.555	27.554	1172.872	938.772
279.570	27.479	1172.454	937.967
280.585	27.536	1171.253	937.217
281.599	27.500	1170.737	936.540
282.614	27.667	1169.382	936.225
283.628	27.565	1168.875	935.218
284.643	27.504	1168.300	934.362
285.657	27.525	1167.488	933.737
286.672	27.513	1166.687	932.951
287.687	27.626	1165.593	932.574
288.701	27.532	1165.286	931.763
289.716	27.632	1164.198	931.320
290.730	27.684	1163.525	930.964
291.745	27.586	1163.096	930.038
292.760	27.669	1162.087	929.573
293.774	27.709	1161.775	929.447
294.789	27.644	1161.450	928.774
295.803	27.730	1160.661	928.497
296.818	27.594	1160.389	927.507
297.833	27.721	1159.653	927.480
298.847	27.730	1158.707	926.688
299.862	27.780	1157.979	926.277
300.876	27.704	1157.243	925.224
301.891	27.802	1156.707	925.209
302.906	27.769	1156.257	924.599
303.920	27.835	1155.624	924.345
304.935	27.807	1155.139	923.733
305.949	27.815	1154.353	923.065
306.964	27.735	1153.658	922.023
307.979	27.839	1152.992	921.935
308.993	27.991	1152.467	922.198
310.008	27.782	1151.771	920.509
311.022	27.814	1151.292	920.201
312.037	27.747	1150.643	919.265
313.052	27.860	1149.338	918.711
314.066	27.903	1148.481	918.163
315.081	27.816	1147.845	917.133
316.095	27.858	1147.298	916.826
317.110	27.914	1146.534	916.416
318.125	27.806	1146.202	915.526
319.139	27.966	1145.540	915.717
320.154	28.028	1144.871	915.413
321.168	27.980	1144.439	914.748
322.183	27.955	1144.037	914.221
323.197	27.996	1143.113	913.605
324.212	28.017	1142.666	913.272
325.227	27.973	1142.125	912.538
326.241	28.052	1141.345	912.228
327.256	28.051	1140.597	911.548
328.270	28.069	1139.875	910.981
329.285	28.086	1138.978	910.267
330.300	28.001	1138.547	909.418
331.314	28.049	1137.376	908.643
332.329	28.048	1136.891	908.167
333.343	28.077	1136.233	907.705
334.358	28.145	1134.976	906.958
335.373	28.085	1134.603	906.284
336.387	28.174	1134.079	906.224
337.402	28.211	1133.671	906.003
338.416	28.176	1132.801	905.054
339.431	28.156	1132.045	904.270
340.446	28.182	1131.843	904.159
341.460	28.253	1130.951	903.716
342.475	28.296	1130.277	903.311
343.489	28.266	1129.323	902.321
344.504	28.214	1128.595	901.404
345.519	28.218	1127.716	900.637
346.533	28.301	1126.914	900.326
347.548	28.326	1126.237	899.828
348.562	28.215	1125.559	898.662
349.577	28.121	1125.416	898.008
350.592	28.166	1124.174	897.160
351.606	28.280	1123.373	896.999
352.621	28.238	1123.253	896.618
353.635	28.201	1122.642	895.867
354.650	28.185	1121.910	895.127
355.665	28.350	1121.035	895.154
356.679	28.424	1120.372	894.910
357.694	28.391	1119.768	894.188
358.708	28.292	1119.235	893.197
359.723	28.259	1118.901	892.692
360.738	28.258	1118.084	891.955
361.752	28.268	1117.717	891.632
362.767	28.432	1117.005	891.782
363.781	28.533	1116.464	891.763
364.796	28.415	1115.787	890.573
365.810	28.497	1115.173	890.403
366.825	28.525	1114.644	890.033
367.840	28.616	1114.152	890.006
368.854	28.626	1113.518	889.471
369.869	28.492	1113.255	888.530
370.883	28.546	1112.216	887.884
371.898	28.635	1111.119	887.360
372.913	28.632	1110.909	887.101
373.927	28.625	1110.415	886.593
374.942	28.635	1110.402	886.554
375.956	28.618	1109.612	885.762
376.971	28.551	1109.034	884.898
377.986	28.598	1108.384	884.529
379.000	28.662	1107.937	884.400
380.015	28.727	1107.077	883.946
381.029	28.542	1106.871	882.817
382.044	28.530	1106.001	881.989
383.059	28.645	1105.483	882.049
384.073	28.674	1104.770	881.541
385.088	28.780	1103.402	880.880
386.102	28.735	1102.742	880.060
387.117	28.776	1102.216	879.758
388.132	28.646	1101.602	878.568
389.146	28.637	1100.890	877.879
390.161	28.694	1100.496	877.760
391.175	28.704	1099.725	877.113
392.190	28.678	1098.987	876.322
393.205	28.769	1097.930	875.837
394.219	28.749	1097.355	875.206
395.234	28.789	1096.585	874.705
396.248	28.742	1095.876	873.838
397.263	28.863	1094.987	873.626
398.278	28.835	1094.259	872.837
399.292	28.942	1093.702	872.824
400.307	28.900	1093.544	872.421
401.321	28.947	1092.864	872.021
402.336	28.863	1092.218	871.034
403.350	28.795	1091.380	869.965
404.365	28.950	1090.682	870.066
405.380	28.894	1090.079	869.243
406.394	28.908	1089.324	868.628
407.409	29.079	1088.503	868.705
408.423	29.071	1087.939	868.140
409.438	28.982	1087.191	867.047
410.453	29.033	1086.489	866.651
411.467	29.042	1085.824	866.086
412.482	29.075	1085.198	865.663
413.496	29.097	1084.422	865.072
414.511	29.175	1083.882	864.934
415.526	29.035	1083.625	863.991
416.540	29.000	1083.529	863.677
417.555	29.002	1082.978	863.167
418.569	29.038	1081.963	862.455
419.584	29.206	1081.533	862.819
420.599	29.102	1081.534	862.257
421.613	102.298	1317.058	1445.994
422.628	95.184	1351.330	1446.100
