DTS Sentinel unit serial number:	SN413079Multiplexer serial number:	ORYXHardware model number:	OX4-SRSoftware version number:	ORYX F/W v4.00 Oryx Data Collector v3.7.2.0data status	okinstallation	princeton_trtdifferential loss correction	single-endedforward channel	channel 2reverse channel	N/Adate	2019/09/11time	15:53:11forward acquisition time	60.00reverse acquisition time	0.00gamma	496.2192k internal	0.2288k external	0.2288temperature offset calibration	1.0014default loss term (dB/km)	0.3790temperature slope calibration	1.0000multiplexer offset coefficient	1.0000multiplexer slope coefficient	1.0000fibre end	0.00T internal ref (°C)	42.94T ext. ref 1 (°C)	1.00T ext. ref 2 (°C)	38.52length (m)	temperature (°C)	Stokes	anti-Stokes-747.200	373.261	0.162	0.338
-746.185	52.545	0.060	0.059
-745.171	-8.578	-0.185	0.127
-744.156	-97.244	-0.227	-0.061
-743.142	-74.374	-0.104	0.038
-742.127	-137.567	-0.099	-0.011
-741.112	-200.000	0.035	-0.166
-740.098	-33.705	0.265	0.150
-739.083	-17.521	-0.015	-0.010
-738.069	-133.332	0.175	-0.023
-737.054	-200.000	0.009	-0.082
-736.039	64.369	-0.071	-0.073
-735.025	-200.000	0.315	0.001
-734.010	-200.000	0.014	-0.065
-732.996	-46.322	-0.326	0.164
-731.981	6.146	-0.186	-0.141
-730.966	-121.164	0.269	0.046
-729.952	11.437	0.338	-0.265
-728.937	-41.685	0.258	-0.136
-727.923	59.584	0.094	0.095
-726.908	-200.000	-0.022	-0.175
-725.894	-152.578	-0.203	0.015
-724.879	-17.998	-0.211	-0.136
-723.864	268.610	0.092	0.166
-722.850	-142.777	-0.280	-0.028
-721.835	-51.008	-0.209	0.101
-720.821	162.351	0.177	0.255
-719.806	402.939	0.070	-0.151
-718.791	-57.866	-0.124	-0.055
-717.777	81.028	0.177	-0.195
-716.762	15.769	-0.152	0.123
-715.748	255.523	0.114	-0.200
-714.733	-200.000	0.002	0.079
-713.718	28.585	-0.094	-0.081
-712.704	-86.952	-0.253	0.079
-711.689	567.331	-0.243	-0.604
-710.675	-200.000	-0.032	-0.266
-709.660	-34.617	0.335	-0.188
-708.645	-108.967	0.259	0.057
-707.631	-122.502	0.234	-0.039
-706.616	426.806	0.116	-0.256
-705.602	-82.011	-0.445	0.149
-704.587	217.794	-0.112	0.183
-703.572	-200.000	0.063	-0.368
-702.558	241.976	0.126	-0.215
-701.543	-35.569	-0.188	0.105
-700.529	481.728	0.130	-0.302
-699.514	-7.720	0.012	0.008
-698.499	82.520	0.071	0.079
-697.485	-36.241	-0.049	0.027
-696.470	-200.000	-0.017	-0.359
-695.456	-94.279	0.124	-0.035
-694.441	-200.000	0.047	0.255
-693.426	-186.600	-0.398	-0.006
-692.412	-200.000	0.035	0.251
-691.397	466.082	0.051	-0.118
-690.383	112.127	-0.091	0.112
-689.368	252.027	0.179	0.311
-688.354	163.861	0.131	0.188
-687.339	-200.000	-0.013	0.062
-686.324	-200.000	-0.029	-0.440
-685.310	7.291	0.171	0.131
-684.295	168.887	0.166	0.241
-683.281	-106.361	-0.119	0.027
-682.266	-27.980	0.252	0.149
-681.251	-200.000	-0.020	0.095
-680.237	800.000	-0.017	-0.076
-679.222	-200.000	-0.006	-0.148
-678.208	-200.000	-0.085	-0.380
-677.193	-125.034	-0.291	0.046
-676.178	458.465	-0.100	0.228
-675.164	423.186	0.158	-0.346
-674.149	-172.764	-0.293	-0.009
-673.135	-34.822	0.390	-0.218
-672.120	169.408	-0.157	-0.229
-671.105	-80.153	-0.151	0.052
-670.091	-79.260	0.064	0.022
-669.076	-9.016	-0.197	0.135
-668.062	-16.752	-0.262	0.170
-667.047	-9.617	0.176	0.120
-666.032	-200.000	0.001	0.024
-665.018	-200.000	0.031	0.279
-664.003	800.000	0.030	-0.130
-662.989	27.695	0.188	-0.162
-661.974	-200.000	-0.033	-0.170
-660.959	30.881	-0.063	-0.055
-659.945	-65.595	-0.251	-0.103
-658.930	28.638	-0.075	0.065
-657.916	17.079	-0.193	0.156
-656.901	-103.922	-0.220	0.052
-655.886	-61.206	0.199	0.086
-654.872	-70.850	-0.079	-0.030
-653.857	-108.119	0.123	-0.027
-652.843	-62.423	0.239	-0.101
-651.828	13.780	0.126	0.100
-650.814	-200.000	0.007	-0.032
-649.799	18.300	-0.323	0.263
-648.784	135.032	-0.101	-0.133
-647.770	-150.004	0.200	-0.016
-646.755	-180.764	-0.035	-0.001
-645.741	82.549	-0.073	-0.081
-644.726	800.000	0.065	0.195
-643.711	185.925	-0.061	-0.092
-642.697	800.000	-0.063	-0.188
-641.682	-90.229	0.322	-0.095
-640.668	20.761	-0.053	0.043
-639.653	322.499	0.088	-0.171
-638.638	800.000	-0.047	0.140
-637.624	77.387	0.166	0.181
-636.609	353.118	0.006	0.012
-635.595	-22.572	-0.125	-0.077
-634.580	-95.510	-0.097	0.026
-633.565	-183.230	0.156	0.003
-632.551	-200.000	-0.035	-0.376
-631.536	-200.000	-0.012	-0.076
-630.522	-91.703	-0.044	-0.013
-629.507	-80.400	-0.147	0.050
-628.492	62.269	-0.238	0.242
-627.478	-200.000	0.001	0.067
-626.463	-200.000	-0.000	0.413
-625.449	270.459	0.131	-0.234
-624.434	9.714	-0.202	-0.156
-623.419	89.226	-0.087	-0.099
-622.405	335.171	0.132	0.260
-621.390	800.000	-0.029	0.094
-620.376	-110.997	0.103	-0.022
-619.361	499.577	-0.093	-0.218
-618.346	-6.920	-0.083	0.057
-617.332	-136.035	0.386	0.046
-616.317	800.000	0.039	0.158
-615.303	164.902	-0.162	-0.233
-614.288	-103.924	0.141	0.034
-613.273	47.739	-0.152	-0.145
-612.259	59.221	-0.130	0.130
-611.244	-95.402	0.098	-0.027
-610.230	-200.000	-0.086	-0.404
-609.215	238.294	-0.127	-0.215
-608.201	35.345	0.126	0.112
-607.186	171.742	-0.157	0.229
-606.171	-130.010	-0.150	0.021
-605.157	-151.211	-0.048	0.004
-604.142	104.756	0.196	0.236
-603.128	657.144	0.033	-0.085
-602.113	237.906	-0.093	0.157
-601.098	191.760	-0.047	0.073
-600.084	421.127	0.088	-0.192
-599.069	-200.000	-0.014	-0.309
-598.055	146.112	0.017	-0.023
-597.040	72.705	-0.213	-0.227
-596.025	-144.493	-0.223	0.021
-595.011	321.230	-0.191	-0.370
-593.996	-200.000	-0.035	-0.264
-592.982	224.504	-0.150	0.246
-591.967	146.343	0.045	-0.061
-590.952	-98.875	-0.368	0.095
-589.938	-200.000	-0.012	0.104
-588.923	-84.193	-0.203	-0.065
-587.909	-190.022	-0.727	-0.008
-586.894	398.024	0.143	0.305
-585.879	268.084	0.073	-0.129
-584.865	800.000	-0.033	-0.118
-583.850	-24.095	-0.318	-0.193
-582.836	193.336	0.146	0.226
-581.821	-200.000	0.003	0.118
-580.806	-10.542	-0.116	-0.078
-579.792	99.866	0.160	-0.189
-578.777	59.051	-0.117	-0.117
-577.763	-51.714	0.221	0.105
-576.748	16.332	0.022	-0.018
-575.733	800.000	0.136	-0.400
-574.719	-200.000	-0.024	-0.227
-573.704	5.195	-0.031	-0.023
-572.690	800.000	-0.109	-0.400
-571.675	800.000	-0.069	-0.252
-570.661	-11.410	0.109	-0.073
-569.646	355.841	0.120	-0.244
-568.631	433.758	0.042	-0.092
-567.617	44.951	-0.105	0.099
-566.602	-200.000	-0.024	-0.172
-565.588	260.804	-0.075	-0.132
-564.573	-200.000	-0.017	0.265
-563.558	-13.387	0.395	0.261
-562.544	-149.440	0.229	0.019
-561.529	800.000	0.031	0.093
-560.515	70.490	-0.152	-0.160
-559.500	282.088	-0.199	0.362
-558.485	-142.995	0.190	-0.019
-557.471	406.876	-0.164	-0.352
-556.456	323.011	0.109	0.211
-555.442	99.398	-0.121	-0.143
-554.427	-87.420	0.106	0.033
-553.412	800.000	0.028	-0.109
-552.398	9.114	-0.293	0.226
-551.383	157.148	0.086	0.121
-550.369	35.707	0.078	-0.069
-549.354	2.256	-0.084	-0.062
-548.339	-128.089	0.383	0.056
-547.325	-40.736	0.394	0.208
-546.310	-5.865	0.028	-0.019
-545.296	-200.000	-0.073	0.469
-544.281	-200.000	-0.025	0.139
-543.266	-74.179	0.354	-0.130
-542.252	92.096	-0.032	-0.037
-541.237	45.228	-0.194	0.182
-540.223	28.745	0.115	-0.099
-539.208	-108.671	0.213	-0.046
-538.193	800.000	0.165	0.491
-537.179	-200.000	0.013	-0.201
-536.164	398.488	-0.053	-0.114
-535.150	-143.353	0.213	-0.021
-534.135	89.176	-0.155	-0.176
-533.121	-19.039	0.266	-0.168
-532.106	63.235	-0.089	0.090
-531.091	694.722	0.060	-0.159
-530.077	-73.979	-0.373	0.137
-529.062	-44.762	-0.159	-0.080
-528.048	-200.000	0.012	-0.359
-527.033	-200.000	0.012	0.072
-526.018	125.916	0.102	0.132
-525.004	363.170	-0.089	0.182
-523.989	-200.000	0.081	0.458
-522.975	-112.257	-0.164	-0.034
-521.960	39.596	0.218	-0.198
-520.945	522.423	-0.162	0.387
-519.931	-35.788	0.237	0.131
-518.916	578.237	0.077	0.191
-517.902	-111.828	-0.140	0.029
-516.887	308.786	0.144	0.273
-515.872	-200.000	0.001	-0.052
-514.858	261.846	0.099	-0.174
-513.843	-57.852	0.156	-0.069
-512.829	-200.000	-0.060	0.428
-511.814	-39.067	0.247	0.132
-510.799	-95.520	-0.107	0.029
-509.785	-101.235	-0.489	0.122
-508.770	10.728	-0.061	0.047
-507.756	-85.769	0.367	0.116
-506.741	-104.890	-0.066	0.015
-505.726	-199.061	-0.031	-0.000
-504.712	-200.000	-0.010	-0.247
-503.697	-67.435	0.079	-0.032
-502.683	475.899	-0.086	-0.198
-501.668	-200.000	-0.000	0.027
-500.653	-200.000	-0.034	-0.219
-499.639	342.365	0.121	-0.241
-498.624	-61.778	-0.356	-0.152
-497.610	800.000	0.042	-0.156
-496.595	-4.799	-0.122	0.085
-495.581	-126.854	-0.101	-0.015
-494.566	-200.000	0.000	0.086
-493.551	-200.000	0.020	-0.164
-492.537	112.634	0.182	-0.223
-491.522	-200.000	-0.050	0.426
-490.508	-136.305	0.157	0.019
-489.493	118.275	0.041	0.051
-488.478	25.378	0.131	0.110
-487.464	-200.000	0.019	-0.102
-486.449	-76.530	-0.296	-0.105
-485.435	48.993	0.172	0.164
-484.420	230.226	-0.102	-0.170
-483.405	-9.886	0.300	0.203
-482.391	-167.770	-0.181	-0.007
-481.376	370.318	0.092	0.190
-480.362	-111.880	-0.282	0.058
-479.347	163.072	-0.059	0.085
-478.332	149.051	-0.094	0.129
-477.318	721.114	-0.070	-0.189
-476.303	-200.000	0.036	0.368
-475.289	-200.000	0.014	0.319
-474.274	74.153	-0.204	-0.218
-473.259	24.500	0.273	-0.229
-472.245	-200.000	0.014	0.387
-471.230	-23.101	0.128	0.078
-470.216	-123.745	0.247	0.040
-469.201	531.373	-0.240	-0.576
-468.186	-23.441	0.198	-0.121
-467.172	57.362	-0.216	-0.214
-466.157	-69.749	-0.303	0.118
-465.143	781.514	0.035	-0.098
-464.128	339.931	0.101	-0.200
-463.113	-167.872	0.079	-0.003
-462.099	-78.807	-0.067	0.023
-461.084	-47.763	-0.210	-0.103
-460.070	-110.198	0.435	-0.092
-459.055	-200.000	-0.026	-0.142
-458.040	800.000	-0.108	0.430
-457.026	-20.938	-0.085	-0.053
-456.011	-113.387	-0.238	-0.047
-454.997	800.000	0.059	0.212
-453.982	-200.000	0.013	-0.336
-452.968	800.000	-0.039	0.149
-451.953	235.316	0.126	0.211
-450.938	-200.000	-0.016	0.100
-449.924	800.000	0.050	-0.178
-448.909	-106.751	-0.147	-0.033
-447.895	-200.000	0.009	-0.422
-446.880	266.017	-0.101	-0.178
-445.865	318.252	-0.140	0.268
-444.851	121.778	-0.183	0.231
-443.836	-54.771	-0.167	-0.077
-442.822	-82.686	0.037	-0.012
-441.807	-110.738	-0.411	-0.086
-440.792	399.425	0.150	-0.319
-439.778	54.232	-0.234	-0.228
-438.763	178.868	-0.201	-0.298
-437.749	223.939	-0.036	-0.059
-436.734	44.241	0.221	-0.206
-435.719	30.146	0.090	0.078
-434.705	-200.000	-0.041	0.255
-433.690	-200.000	-0.013	0.430
-432.676	-200.000	-0.005	0.471
-431.661	76.371	0.176	0.189
-430.646	800.000	-0.024	-0.093
-429.632	184.594	0.132	-0.198
-428.617	800.000	-0.035	0.150
-427.603	110.133	0.280	-0.341
-426.588	100.870	0.352	0.414
-425.573	-36.015	0.384	0.210
-424.559	171.163	-0.204	-0.297
-423.544	-37.653	0.118	0.064
-422.530	-17.383	0.328	0.209
-421.515	28.951	-0.055	-0.047
-420.500	318.264	0.098	-0.187
-419.486	-200.000	0.039	-0.266
-418.471	-12.994	-0.178	0.117
-417.457	-106.500	0.148	-0.034
-416.442	-162.090	0.202	-0.010
-415.428	303.014	0.080	0.150
-414.413	-200.000	-0.052	-0.299
-413.398	-27.942	-0.177	0.103
-412.384	159.947	0.195	-0.275
-411.369	-12.699	0.215	-0.142
-410.355	87.482	0.102	-0.115
-409.340	-173.313	0.145	0.004
-408.325	117.121	-0.103	-0.128
-407.311	-200.000	0.020	-0.147
-406.296	800.000	0.065	-0.237
-405.282	-35.029	0.130	0.072
-404.267	-155.485	0.184	0.012
-403.252	-167.895	0.236	0.009
-402.238	-90.423	-0.222	0.065
-401.223	-51.838	0.408	0.192
-400.209	-52.277	0.107	-0.050
-399.194	-34.640	-0.109	0.061
-398.179	126.946	0.276	-0.353
-397.165	-200.000	0.018	0.123
-396.150	-200.000	0.007	0.061
-395.136	-200.000	-0.204	-0.000
-394.121	800.000	-0.042	-0.156
-393.106	284.446	-0.098	-0.178
-392.092	800.000	0.055	0.182
-391.077	39.110	0.238	0.215
-390.063	559.888	0.158	-0.386
-389.048	6.533	-0.090	-0.068
-388.033	50.124	0.194	0.185
-387.019	-48.626	-0.066	-0.032
-386.004	-200.000	0.034	0.181
-384.990	-30.658	0.158	0.090
-383.975	93.634	0.319	-0.366
-382.960	-16.218	0.147	-0.094
-381.946	55.777	0.295	-0.289
-380.931	167.241	0.289	0.415
-379.917	-200.000	0.012	0.328
-378.902	-106.582	0.276	0.062
-377.888	-15.680	-0.302	-0.195
-376.873	-111.876	0.144	-0.029
-375.858	-200.000	0.065	0.419
-374.844	-200.000	-0.056	0.289
-373.829	-24.140	0.188	-0.114
-372.815	-100.875	0.169	0.042
-371.800	187.658	-0.203	0.306
-370.785	-100.035	-0.181	-0.046
-369.771	-79.305	-0.289	0.099
-368.756	154.120	-0.147	0.203
-367.742	-200.000	-0.007	-0.233
-366.727	800.000	0.036	-0.130
-365.712	-41.995	0.158	-0.082
-364.698	544.637	0.035	0.085
-363.683	-200.000	0.006	0.107
-362.669	-124.820	0.347	-0.054
-361.654	800.000	-0.125	-0.374
-360.639	143.118	0.079	0.106
-359.625	57.183	-0.114	-0.112
-358.610	-135.104	0.112	0.014
-357.596	-50.382	0.326	-0.155
-356.581	-169.256	0.159	-0.006
-355.566	232.033	0.163	0.269
-354.552	-98.004	0.084	-0.022
-353.537	2.076	0.257	0.188
-352.523	-41.489	-0.098	0.051
-351.508	35.782	0.110	0.098
-350.493	-200.000	0.036	0.211
-349.479	43.890	-0.151	0.140
-348.464	191.291	-0.201	0.306
-347.450	-144.744	-0.074	-0.007
-346.435	800.000	-0.070	0.245
-345.420	-11.479	-0.150	0.099
-344.406	85.395	-0.160	-0.177
-343.391	-200.000	-0.009	-0.059
-342.377	87.297	-0.022	-0.025
-341.362	-73.974	0.320	0.117
-340.348	469.616	0.149	-0.338
-339.333	-60.754	0.202	0.086
-338.318	289.354	0.167	-0.305
-337.304	228.443	-0.126	-0.207
-336.289	80.247	0.122	0.133
-335.275	457.654	-0.063	-0.142
-334.260	-48.951	0.042	0.020
-333.245	416.122	0.245	0.528
-332.231	386.108	0.056	-0.116
-331.216	-200.000	-0.029	-0.184
-330.202	-200.000	-0.016	-0.291
-329.187	800.000	-0.084	0.348
-328.172	686.411	-0.093	-0.246
-327.158	210.468	0.207	-0.328
-326.143	-79.908	0.262	0.089
-325.129	432.223	0.097	-0.212
-324.114	-59.845	-0.103	0.045
-323.099	323.434	0.052	-0.100
-322.085	-144.743	0.463	-0.043
-321.070	231.239	-0.198	-0.327
-320.056	46.624	-0.179	0.168
-319.041	-200.000	-0.048	0.242
-318.026	-2.393	-0.252	-0.178
-317.012	78.992	-0.381	-0.411
-315.997	13.493	-0.036	0.028
-314.983	84.917	-0.108	0.119
-313.968	800.000	0.040	-0.122
-312.953	-50.014	0.267	0.128
-311.939	-85.849	0.127	0.040
-310.924	-200.000	0.003	0.122
-309.910	-35.768	-0.077	0.042
-308.895	-50.744	-0.132	0.063
-307.880	3.722	-0.185	-0.136
-306.866	15.885	-0.078	0.062
-305.851	374.947	0.011	0.023
-304.837	106.568	0.215	-0.257
-303.822	-200.000	-0.029	-0.343
-302.807	477.524	-0.083	-0.189
-301.793	-200.000	0.004	0.215
-300.778	-200.000	0.048	0.259
-299.764	-17.589	-0.010	0.006
-298.749	-114.146	-0.203	-0.039
-297.735	42.246	-0.285	-0.261
-296.720	293.599	0.130	-0.239
-295.705	-113.653	0.045	0.009
-294.691	27.532	-0.126	-0.107
-293.676	-200.000	0.017	0.100
-292.662	800.000	0.006	-0.028
-291.647	170.296	-0.190	0.274
-290.632	-60.892	-0.262	0.111
-289.618	174.923	0.183	0.266
-288.603	-200.000	-0.014	-0.080
-287.589	-71.571	-0.032	0.012
-286.574	-99.861	-0.101	0.026
-285.559	-200.000	-0.034	-0.185
-284.545	-200.000	0.030	0.234
-283.530	362.824	-0.144	0.291
-282.516	14.685	0.133	-0.105
-281.501	-85.145	-0.293	-0.092
-280.486	-200.000	-0.075	-0.352
-279.472	-75.389	-0.288	0.103
-278.457	707.077	0.015	-0.040
-277.443	60.361	0.256	-0.255
-276.428	286.624	-0.155	0.281
-275.413	93.158	0.078	0.089
-274.399	-200.000	-0.008	0.349
-273.384	800.000	0.097	0.400
-272.370	-145.452	0.147	0.013
-271.355	91.680	-0.201	0.228
-270.340	112.196	-0.195	-0.237
-269.326	-200.000	0.002	0.074
-268.311	-34.435	-0.181	-0.100
-267.297	114.933	-0.184	0.226
-266.282	56.900	0.138	-0.135
-265.267	-200.000	-0.069	-0.328
-264.253	-157.925	0.248	-0.015
-263.238	133.381	-0.098	0.127
-262.224	102.540	0.082	0.096
-261.209	-129.344	-0.245	0.034
-260.195	-17.035	-0.071	0.045
-259.180	0.841	-0.069	0.050
-258.165	-95.508	0.386	0.104
-257.151	40.205	0.022	0.020
-256.136	204.733	-0.069	0.108
-255.122	-115.441	0.337	-0.064
-254.107	781.793	-0.033	0.091
-253.092	-184.865	0.122	0.002
-252.078	178.027	0.112	0.164
-251.063	-57.606	0.173	0.076
-250.049	-15.357	0.188	-0.121
-249.034	-200.000	0.030	-0.238
-248.019	41.357	-0.358	-0.325
-247.005	-80.878	0.296	-0.099
-245.990	237.398	0.068	-0.113
-244.976	274.038	0.142	0.252
-243.961	-73.255	0.438	0.161
-242.946	-1.259	0.207	0.147
-241.932	-200.000	0.002	0.115
-240.917	67.001	-0.268	-0.275
-239.903	-94.817	-0.130	-0.035
-238.888	800.000	-0.050	0.180
-237.873	-200.000	-0.015	0.164
-236.859	88.553	-0.054	-0.060
-235.844	-200.000	-0.000	-0.029
-234.830	-0.076	-0.240	0.171
-233.815	-200.000	0.012	0.252
-232.800	800.000	0.056	-0.213
-231.786	9.110	-0.195	-0.148
-230.771	-47.662	-0.146	-0.071
-229.757	-200.000	-0.008	0.039
-228.742	-200.000	-0.027	-0.260
-227.727	-87.435	0.213	-0.065
-226.713	35.642	0.191	0.169
-225.698	105.623	0.163	-0.193
-224.684	-41.915	-0.109	0.056
-223.669	64.274	-0.213	0.216
-222.655	0.923	0.238	0.171
-221.640	-55.500	0.140	0.063
-220.625	800.000	-0.139	-0.396
-219.611	-63.356	-0.391	-0.162
-218.596	-73.581	-0.265	0.097
-217.582	63.299	-0.188	-0.189
-216.567	-61.669	0.175	-0.074
-215.552	593.852	-0.025	0.062
-214.538	76.124	0.143	-0.152
-213.523	229.844	-0.119	0.195
-212.509	1.786	-0.055	-0.039
-211.494	11.310	0.368	0.283
-210.479	-65.741	0.018	0.007
-209.465	9.983	-0.104	0.079
-208.450	213.782	-0.077	-0.122
-207.436	9.613	-0.101	0.077
-206.421	-59.774	0.099	0.042
-205.406	84.349	0.055	0.061
-204.392	105.134	-0.172	0.203
-203.377	171.614	-0.159	0.229
-202.363	41.181	0.219	0.199
-201.348	-154.572	-0.506	-0.034
-200.333	800.000	0.087	-0.349
-199.319	-66.363	0.099	-0.039
-198.304	178.542	-0.224	-0.328
-197.290	800.000	0.033	-0.139
-196.275	-104.270	0.129	-0.030
-195.260	128.360	-0.094	-0.121
-194.246	278.057	-0.178	-0.319
-193.231	800.000	0.096	0.324
-192.217	93.185	0.163	0.185
-191.202	-27.602	0.089	0.052
-190.187	-4.398	-0.188	0.130
-189.173	-114.859	-0.378	-0.072
-188.158	-200.000	0.016	-0.226
-187.144	800.000	-0.026	0.094
-186.129	310.812	-0.108	-0.203
-185.114	-59.168	0.043	-0.019
-184.100	197.968	-0.364	0.558
-183.085	372.957	0.122	0.249
-182.071	-28.145	-0.134	0.077
-181.056	-40.485	0.053	-0.028
-180.042	-200.000	-0.016	0.202
-179.027	-50.677	-0.152	0.072
-178.012	800.000	0.076	-0.246
-176.998	-61.635	-0.122	-0.051
-175.983	-144.218	-0.323	-0.030
-174.969	-200.000	0.072	0.342
-173.954	170.951	0.190	-0.272
-172.939	-30.168	-0.099	0.056
-171.925	100.445	0.173	-0.201
-170.910	425.819	0.039	0.084
-169.896	-29.387	-0.146	0.084
-168.881	66.068	-0.151	0.153
-167.866	330.406	-0.055	-0.106
-166.852	-200.000	-0.042	0.339
-165.837	-96.375	0.288	0.076
-164.823	800.000	-0.091	-0.266
-163.808	-118.004	0.424	-0.076
-162.793	800.000	-0.040	0.145
-161.779	-59.006	-0.285	0.123
-160.764	-138.535	-0.221	-0.024
-159.750	206.430	-0.122	-0.190
-158.735	-104.800	-0.227	0.052
-157.720	455.150	-0.038	-0.084
-156.706	-50.118	-0.148	0.070
-155.691	30.838	0.027	-0.023
-154.677	16.855	-0.204	0.162
-153.662	-200.000	0.018	-0.218
-152.647	800.000	0.077	0.298
-151.633	499.029	0.011	0.026
-150.618	15.784	0.070	0.055
-149.604	-129.523	0.321	0.045
-148.589	-35.106	-0.151	0.082
-147.574	62.008	0.043	0.043
-146.560	-71.573	0.216	0.081
-145.545	146.709	-0.147	-0.198
-144.531	116.423	-0.223	-0.274
-143.516	396.992	0.106	-0.221
-142.502	800.000	0.107	-0.303
-141.487	-200.000	-0.032	0.156
-140.472	191.417	-0.119	0.179
-139.458	-35.367	0.131	-0.071
-138.443	-104.127	-0.436	0.101
-137.429	28.000	-0.061	0.052
-136.414	65.031	-0.163	0.165
-135.399	155.804	0.196	-0.271
-134.385	-95.212	-0.254	0.068
-133.370	-200.000	0.006	-0.094
-132.356	45.273	0.390	-0.360
-131.341	-149.929	-0.114	-0.009
-130.326	167.277	0.058	-0.082
-129.312	800.000	-0.087	0.296
-128.297	33.385	-0.169	-0.147
-127.283	40.846	-0.163	-0.147
-126.268	45.244	0.124	0.115
-125.253	487.592	-0.058	-0.133
-124.239	800.000	0.064	-0.201
-123.224	-4.510	0.225	0.156
-122.210	224.679	-0.121	0.196
-121.195	-74.390	0.211	-0.076
-120.180	-101.385	0.236	-0.057
-119.166	255.087	-0.214	-0.366
-118.151	45.983	-0.173	-0.160
-117.137	-200.000	-0.001	-0.103
-116.122	-98.599	-0.251	-0.064
-115.107	-200.000	-0.055	-0.331
-114.093	161.212	0.086	0.120
-113.078	-118.070	-0.206	0.037
-112.064	-200.000	-0.033	-0.335
-111.049	509.661	0.159	0.369
-110.034	800.000	-0.031	0.116
-109.020	-122.711	-0.087	-0.014
-108.005	-200.000	-0.017	0.374
-106.991	-200.000	-0.004	0.269
-105.976	193.792	0.107	-0.162
-104.962	-200.000	-0.013	0.058
-103.947	800.000	0.029	-0.124
-102.932	-17.496	0.090	0.057
-101.918	-38.047	0.128	-0.068
-100.903	-64.250	0.304	0.124
-99.889	12.119	0.225	-0.173
-98.874	313.242	-0.125	-0.235
-97.859	-200.000	0.083	0.419
-96.845	-31.130	-0.177	0.100
-95.830	-24.703	0.147	0.087
-94.816	70.468	-0.176	-0.182
-93.801	-76.617	0.389	-0.136
-92.786	262.854	-0.031	-0.053
-91.772	146.346	-0.309	0.415
-90.757	61.188	-0.147	0.145
-89.743	-53.126	-0.124	-0.057
-88.728	-56.358	0.161	-0.071
-87.713	-72.636	-0.182	-0.067
-86.699	800.000	-0.074	-0.272
-85.684	333.604	-0.029	0.056
-84.670	14.322	-0.125	0.098
-83.655	-200.000	-0.018	-0.191
-82.640	176.623	0.057	-0.083
-81.626	-40.067	-0.103	-0.054
-80.611	800.000	0.077	-0.326
-79.597	-100.774	-0.390	0.096
-78.582	124.689	-0.125	-0.157
-77.567	-200.000	0.039	0.257
-76.553	-156.410	0.328	0.020
-75.538	-121.960	0.111	-0.018
-74.524	-136.766	-0.233	-0.027
-73.509	-20.401	0.178	0.109
-72.494	71.966	-0.185	-0.192
-71.480	-119.086	-0.212	0.037
-70.465	63.791	0.203	-0.204
-69.451	202.451	-0.028	-0.044
-68.436	800.000	-0.009	0.037
-67.422	-200.000	0.012	-0.203
-66.407	-125.611	0.086	-0.013
-65.392	148.971	-0.093	0.126
-64.378	1.897	0.191	-0.137
-63.363	800.000	-0.107	0.330
-62.349	-200.000	0.028	-0.345
-61.334	22.292	-0.844	-0.688
-60.319	76.726	0.268	0.284
-59.305	172.299	0.240	-0.345
-58.290	495.494	0.291	0.668
-57.276	267.838	0.978	1.708
-56.261	-200.000	74.060	540.635
-55.246	585.306	1297.155	3181.790
-54.232	146.335	2522.832	3379.494
-53.217	115.238	2342.276	2853.977
-52.203	52.849	1958.798	1868.936
-51.188	46.590	1746.154	1617.071
-50.173	43.526	1698.812	1549.722
-49.159	57.540	1731.480	1687.908
-48.144	63.836	1749.808	1754.199
-47.130	46.401	1713.557	1585.180
-46.115	42.950	1700.317	1546.430
-45.100	42.769	1695.895	1540.956
-44.086	42.771	1693.242	1538.504
-43.071	42.740	1690.718	1535.909
-42.057	42.811	1688.188	1534.089
-41.042	42.782	1686.217	1532.018
-40.027	42.802	1684.247	1530.325
-39.013	42.779	1682.219	1528.243
-37.998	42.757	1680.235	1526.217
-36.984	42.806	1679.294	1525.670
-35.969	42.891	1677.895	1524.984
-34.954	43.090	1676.040	1524.741
-33.940	42.889	1674.087	1521.383
-32.925	42.941	1672.116	1519.925
-31.911	42.994	1670.424	1518.727
-30.896	42.947	1668.580	1516.635
-29.881	42.947	1666.732	1514.894
-28.867	42.860	1665.375	1512.953
-27.852	42.951	1663.666	1512.017
-26.838	42.984	1661.980	1510.677
-25.823	42.891	1661.188	1509.195
-24.809	42.956	1659.542	1508.131
-23.794	43.030	1658.021	1507.244
-22.779	43.022	1656.636	1505.863
-21.765	42.967	1654.866	1503.786
-20.750	43.025	1653.040	1502.499
-19.736	42.968	1651.487	1500.602
-18.721	42.990	1650.135	1499.474
-17.706	42.966	1648.544	1497.791
-16.692	42.911	1647.162	1496.069
-15.677	42.971	1645.520	1494.965
-14.663	42.944	1644.400	1493.685
-13.648	43.087	1642.512	1492.975
-12.633	42.954	1641.189	1490.728
-11.619	42.969	1639.780	1489.497
-10.604	42.923	1638.593	1488.023
-9.590	42.932	1636.656	1486.270
-8.575	42.951	1635.672	1485.459
-7.560	42.927	1634.393	1484.062
-6.546	42.955	1632.821	1482.776
-5.531	42.952	1631.758	1481.729
-4.517	42.979	1630.830	1481.031
-3.502	42.893	1629.675	1479.292
-2.487	43.031	1628.225	1478.932
-1.473	42.991	1617.415	1468.758
-0.458	40.840	1597.589	1435.186
0.556	36.202	1595.662	1400.089
1.571	33.307	1618.797	1398.899
2.586	32.384	1633.318	1404.438
3.600	28.362	1579.111	1328.611
4.615	15.553	1456.981	1139.429
5.629	3.493	1380.379	1001.505
6.644	1.202	1369.782	978.958
7.659	0.981	1368.466	976.500
8.673	0.946	1367.182	975.278
9.688	0.881	1365.071	973.265
10.702	0.591	1363.345	970.087
11.717	4.730	1371.217	1002.298
12.731	16.180	1393.258	1092.891
13.746	24.058	1405.944	1154.033
14.761	24.700	1406.467	1158.520
15.775	24.835	1405.682	1158.644
16.790	24.780	1405.181	1157.777
17.804	24.855	1404.425	1157.534
18.819	25.071	1404.088	1158.551
19.834	25.163	1403.279	1158.374
20.848	25.171	1402.551	1157.721
21.863	25.126	1401.302	1156.297
22.877	25.099	1400.789	1155.596
23.892	25.116	1399.899	1154.875
24.907	25.105	1399.193	1154.119
25.921	25.149	1397.908	1153.239
26.936	25.168	1397.178	1152.656
27.950	25.156	1395.689	1151.245
28.965	25.092	1394.737	1149.952
29.980	25.175	1393.485	1149.345
30.994	25.130	1392.374	1148.041
32.009	25.085	1391.186	1146.675
33.023	24.968	1390.313	1145.101
34.038	24.948	1389.393	1144.118
35.053	25.011	1388.395	1143.599
36.067	25.173	1386.517	1142.978
37.082	25.124	1385.947	1142.099
38.096	25.120	1385.002	1141.191
39.111	25.085	1384.062	1140.093
40.126	25.051	1383.686	1139.471
41.140	25.065	1383.357	1139.185
42.155	25.150	1382.727	1139.103
43.169	25.115	1382.729	1138.782
44.184	25.048	1382.415	1138.000
45.199	24.997	1382.204	1137.399
46.213	25.138	1381.516	1137.629
47.228	25.079	1380.777	1136.547
48.242	25.151	1379.213	1135.611
49.257	25.089	1377.775	1133.939
50.271	24.989	1376.845	1132.438
51.286	25.089	1374.793	1131.279
52.301	25.116	1373.431	1130.233
53.315	25.111	1372.542	1129.369
54.330	25.087	1372.348	1128.958
55.344	25.098	1371.009	1127.824
56.359	25.019	1369.827	1126.256
57.374	25.042	1369.617	1126.130
58.388	24.979	1368.623	1124.814
59.403	25.081	1367.740	1124.631
60.417	25.107	1367.168	1124.224
61.432	25.079	1366.694	1123.559
62.447	25.051	1365.981	1122.700
63.461	25.051	1364.791	1121.621
64.476	25.137	1363.512	1121.006
65.490	25.046	1362.388	1119.417
66.505	25.048	1360.894	1118.103
67.520	25.129	1359.577	1117.424
68.534	25.131	1358.648	1116.577
69.549	25.166	1357.387	1115.662
70.563	25.042	1356.554	1114.104
71.578	25.116	1355.459	1113.568
72.593	25.081	1355.006	1112.876
73.607	25.059	1354.195	1111.980
74.622	25.089	1353.362	1111.383
75.636	24.995	1352.939	1110.353
76.651	25.021	1351.846	1109.517
77.666	25.103	1351.199	1109.399
78.680	25.097	1351.329	1109.366
79.695	25.052	1350.588	1108.382
80.709	25.205	1349.392	1108.252
81.724	25.099	1348.639	1106.880
82.739	25.150	1347.423	1106.097
83.753	24.965	1346.796	1104.342
84.768	25.091	1345.013	1103.560
85.782	25.205	1344.171	1103.473
86.797	25.148	1342.842	1101.935
87.812	25.161	1341.808	1101.064
88.826	25.154	1340.948	1100.223
89.841	25.087	1340.223	1099.120
90.855	25.236	1338.767	1098.741
91.870	25.150	1338.157	1097.617
92.884	25.078	1337.796	1096.784
93.899	25.199	1336.394	1096.274
94.914	25.186	1336.024	1095.796
95.928	25.173	1335.057	1094.828
96.943	25.200	1333.857	1093.909
97.957	25.159	1333.475	1093.247
98.972	25.199	1332.710	1092.767
99.987	25.143	1331.851	1091.629
101.001	25.102	1330.960	1090.553
102.016	25.005	1329.961	1089.049
103.030	25.146	1328.856	1088.899
104.045	25.206	1328.109	1088.557
105.060	25.139	1327.335	1087.420
106.074	25.231	1325.801	1086.623
107.089	25.251	1325.262	1086.209
108.103	25.149	1323.736	1084.242
109.118	25.203	1322.590	1083.535
110.133	25.227	1321.590	1082.763
111.147	25.223	1320.763	1081.964
112.162	25.113	1319.664	1080.306
113.176	25.218	1318.475	1079.869
114.191	25.198	1317.578	1078.921
115.206	25.206	1316.654	1078.119
116.220	25.239	1315.665	1077.409
117.235	25.239	1314.586	1076.433
118.249	25.181	1314.276	1075.732
119.264	25.171	1313.038	1074.568
120.279	25.259	1312.190	1074.302
121.293	25.174	1311.668	1073.273
122.308	25.100	1310.899	1072.107
123.322	25.190	1309.788	1071.642
124.337	25.235	1308.918	1071.101
125.352	25.280	1308.008	1070.532
126.366	25.450	1306.741	1070.413
127.381	25.286	1306.094	1068.814
128.395	25.357	1305.159	1068.375
129.410	25.299	1304.444	1067.348
130.424	25.277	1303.606	1066.440
131.439	25.229	1303.017	1065.577
132.454	25.314	1301.768	1064.968
133.468	25.331	1301.329	1064.615
134.483	25.307	1300.598	1063.780
135.497	25.389	1299.603	1063.354
136.512	25.282	1299.018	1062.150
137.527	25.233	1297.883	1060.840
138.541	25.272	1296.473	1059.825
139.556	25.294	1295.063	1058.709
140.570	25.376	1293.990	1058.215
141.585	25.263	1293.298	1056.890
142.600	25.343	1292.157	1056.338
143.614	25.364	1291.322	1055.684
144.629	25.189	1290.451	1053.852
145.643	25.166	1289.241	1052.634
146.658	25.229	1288.315	1052.158
147.673	25.178	1287.335	1050.961
148.687	25.240	1286.381	1050.455
149.702	25.217	1284.894	1049.013
150.716	25.254	1283.630	1048.101
151.731	25.204	1282.809	1047.046
152.746	25.164	1282.124	1046.166
153.760	25.232	1280.940	1045.502
154.775	25.261	1279.855	1044.691
155.789	25.293	1278.466	1043.655
156.804	25.164	1278.339	1042.706
157.819	25.280	1277.010	1042.203
158.833	25.204	1276.395	1041.166
159.848	25.274	1275.776	1040.980
160.862	25.252	1274.899	1040.044
161.877	25.332	1273.741	1039.466
162.892	25.356	1273.266	1039.130
163.906	25.256	1272.508	1037.838
164.921	25.308	1271.467	1037.197
165.935	25.387	1271.168	1037.317
166.950	25.313	1270.703	1036.419
167.964	25.389	1269.722	1035.967
168.979	25.309	1269.432	1035.176
169.994	25.414	1268.598	1035.010
171.008	25.306	1267.893	1033.721
172.023	25.377	1267.326	1033.576
173.037	25.359	1266.582	1032.776
174.052	25.332	1266.132	1032.163
175.067	25.369	1264.902	1031.283
176.081	25.331	1264.259	1030.445
177.096	25.340	1263.682	1029.935
178.110	25.317	1262.619	1028.849
179.125	25.397	1261.433	1028.246
180.140	25.500	1260.059	1027.629
181.154	25.390	1259.329	1026.311
182.169	25.401	1258.667	1025.746
183.183	25.284	1257.441	1023.985
184.198	25.443	1256.397	1023.950
185.213	25.361	1255.415	1022.596
186.227	25.465	1254.123	1022.042
187.242	25.453	1253.361	1021.263
188.256	25.412	1252.608	1020.327
189.271	25.474	1251.641	1019.800
190.286	25.464	1251.342	1019.411
191.300	25.371	1251.085	1018.584
192.315	25.431	1250.201	1018.111
193.329	25.408	1249.945	1017.687
194.344	25.472	1249.519	1017.607
195.359	25.492	1248.929	1017.150
196.373	25.386	1248.269	1015.926
197.388	25.411	1247.562	1015.401
198.402	25.411	1247.484	1015.247
199.417	25.588	1246.894	1015.678
200.432	25.399	1246.481	1014.184
201.446	25.410	1246.089	1013.837
202.461	25.517	1245.073	1013.525
203.475	25.382	1244.666	1012.345
204.490	25.329	1243.489	1010.995
205.504	25.392	1242.391	1010.370
206.519	25.493	1241.167	1009.850
207.534	25.522	1240.222	1009.158
208.548	25.457	1239.581	1008.182
209.563	25.460	1238.639	1007.343
210.577	25.455	1238.109	1006.797
211.592	25.471	1237.223	1006.076
212.607	25.500	1236.393	1005.474
213.621	25.459	1235.642	1004.542
214.636	25.494	1234.877	1004.030
215.650	25.614	1233.966	1003.870
216.665	25.506	1232.872	1002.288
217.680	25.626	1231.989	1002.151
218.694	25.604	1231.337	1001.408
219.709	25.603	1230.768	1000.854
220.723	25.674	1229.867	1000.427
221.738	25.516	1228.987	998.742
222.753	25.442	1228.534	997.873
223.767	25.487	1228.017	997.616
224.782	25.650	1227.406	997.937
225.796	25.658	1226.792	997.390
226.811	25.663	1226.311	996.939
227.826	25.675	1225.899	996.583
228.840	25.632	1225.124	995.630
229.855	25.548	1224.477	994.547
230.869	25.632	1223.789	994.366
231.884	25.649	1222.798	993.571
232.899	25.617	1221.908	992.580
233.913	25.667	1221.784	992.670
234.928	25.749	1221.134	992.506
235.942	25.760	1220.280	991.780
236.957	25.836	1219.379	991.380
237.972	25.738	1218.733	990.229
238.986	25.650	1218.357	989.350
240.001	25.705	1218.053	989.323
241.015	25.821	1216.747	988.807
242.030	25.795	1216.056	988.018
243.045	25.743	1215.382	987.096
244.059	25.818	1214.616	986.797
245.074	25.877	1213.818	986.383
246.088	25.908	1213.106	985.888
247.103	25.894	1212.262	985.038
248.117	25.901	1211.309	984.215
249.132	25.805	1210.953	983.318
250.147	25.949	1210.379	983.547
251.161	25.906	1209.086	982.178
252.176	25.974	1208.850	982.267
253.190	25.874	1208.100	981.026
254.205	25.955	1207.295	980.728
255.220	25.902	1207.179	980.257
256.234	26.100	1206.050	980.331
257.249	25.911	1206.159	979.306
258.263	25.876	1205.224	978.268
259.278	25.993	1204.509	978.240
260.293	25.941	1204.234	977.646
261.307	26.024	1203.330	977.277
262.322	25.957	1202.858	976.439
263.336	26.012	1201.765	975.766
264.351	25.975	1201.795	975.502
265.366	25.986	1200.932	974.776
266.380	25.973	1200.345	974.143
267.395	26.033	1199.640	973.811
268.409	26.010	1198.729	972.862
269.424	26.033	1198.469	972.688
270.439	25.939	1198.023	971.730
271.453	26.057	1197.293	971.690
272.468	25.978	1196.516	970.550
273.482	25.928	1196.055	969.819
274.497	26.086	1195.458	970.097
275.512	26.094	1194.900	969.603
276.526	26.094	1194.216	968.962
277.541	26.068	1193.407	968.081
278.555	26.097	1192.394	967.330
279.570	26.020	1191.959	966.478
280.585	26.059	1191.151	965.946
281.599	26.079	1190.386	965.344
282.614	26.129	1189.834	965.083
283.628	26.017	1188.729	963.503
284.643	26.069	1187.729	962.884
285.657	26.024	1186.888	961.873
286.672	26.011	1186.439	961.357
287.687	26.146	1185.181	960.974
288.701	26.286	1184.061	960.723
289.716	26.163	1184.076	959.995
290.730	26.195	1183.254	959.415
291.745	26.163	1182.962	958.924
292.760	26.275	1182.025	958.676
293.774	26.191	1181.282	957.540
294.789	26.232	1181.124	957.543
295.803	26.366	1180.230	957.444
296.818	26.249	1179.908	956.477
297.833	26.357	1178.538	955.857
298.847	26.420	1178.163	955.798
299.862	26.337	1177.883	955.047
300.876	26.281	1177.252	954.156
301.891	26.351	1176.198	953.589
302.906	26.334	1175.440	952.799
303.920	26.355	1174.849	952.347
304.935	26.367	1174.282	951.867
305.949	26.353	1173.974	951.460
306.964	26.339	1173.077	950.571
307.979	26.320	1172.659	950.051
308.993	26.413	1172.012	949.928
310.008	26.428	1170.902	949.024
311.022	26.418	1170.515	948.577
312.037	26.437	1169.446	947.725
313.052	26.432	1168.952	947.214
314.066	26.435	1168.190	946.530
315.081	26.355	1167.354	945.349
316.095	26.556	1166.555	945.669
317.110	26.470	1165.706	944.451
318.125	26.427	1165.385	943.878
319.139	26.448	1164.988	943.585
320.154	26.521	1164.231	943.271
321.168	26.395	1163.825	942.199
322.183	26.508	1163.195	942.193
323.197	26.495	1162.390	941.394
324.212	26.475	1161.782	940.715
325.227	26.500	1161.349	940.406
326.241	26.506	1161.144	940.189
327.256	26.569	1160.204	939.670
328.270	26.603	1159.154	938.915
329.285	26.627	1157.918	937.956
330.300	26.601	1157.469	937.373
331.314	26.607	1156.523	936.555
332.329	26.520	1156.382	935.911
333.343	26.667	1155.083	935.533
334.358	26.732	1153.996	934.904
335.373	26.675	1153.817	934.386
336.387	26.582	1153.562	933.615
337.402	26.712	1152.458	933.309
338.416	26.599	1152.132	932.384
339.431	26.585	1151.572	931.774
340.446	26.673	1150.799	931.518
341.460	26.803	1149.882	931.359
342.475	26.756	1149.231	930.512
343.489	26.698	1148.201	929.298
344.504	26.866	1146.624	928.799
345.519	26.758	1146.288	927.889
346.533	26.740	1145.966	927.456
347.548	26.778	1145.352	927.069
348.562	26.737	1144.379	925.991
349.577	26.835	1143.859	925.992
350.592	26.813	1142.618	924.789
351.606	26.774	1142.048	924.051
352.621	26.840	1141.791	924.096
353.635	26.813	1141.122	923.333
354.650	26.861	1140.379	922.897
355.665	26.751	1139.997	921.946
356.679	26.962	1138.739	921.918
357.694	26.864	1138.421	921.081
358.708	26.900	1137.810	920.692
359.723	26.816	1137.225	919.710
360.738	26.873	1136.571	919.385
361.752	26.853	1136.313	918.996
362.767	26.932	1135.422	918.594
363.781	26.884	1134.935	917.875
364.796	27.050	1134.303	918.121
365.810	27.018	1133.716	917.403
366.825	26.962	1133.187	916.614
367.840	27.160	1132.482	916.960
368.854	27.136	1132.074	916.428
369.869	27.025	1131.485	915.309
370.883	27.080	1130.314	914.560
371.898	27.048	1129.804	913.903
372.913	27.173	1129.352	914.087
373.927	27.127	1128.820	913.344
374.942	27.110	1128.369	912.813
375.956	27.035	1127.923	911.996
376.971	27.112	1127.306	911.803
377.986	27.120	1126.606	911.192
379.000	27.233	1125.756	910.992
380.015	27.198	1125.424	910.465
381.029	27.198	1125.168	910.178
382.044	27.152	1124.358	909.215
383.059	27.238	1123.248	908.664
384.073	27.159	1123.072	908.050
385.088	27.270	1122.051	907.697
386.102	27.225	1121.230	906.727
387.117	27.320	1120.270	906.347
388.132	27.235	1119.229	904.997
389.146	27.169	1118.752	904.207
390.161	27.360	1117.705	904.231
391.175	27.265	1117.612	903.601
392.190	27.372	1116.619	903.249
393.205	27.329	1116.107	902.541
394.219	27.201	1115.515	901.351
395.234	27.339	1114.346	901.007
396.248	27.313	1113.943	900.473
397.263	27.341	1113.097	899.849
398.278	27.310	1112.540	899.166
399.292	27.452	1111.601	899.028
400.307	27.456	1111.384	898.794
401.321	27.361	1110.483	897.515
402.336	27.466	1109.453	897.121
403.350	27.342	1109.593	896.544
404.365	27.553	1108.639	896.731
405.380	27.413	1108.201	895.609
406.394	27.500	1107.055	895.033
407.409	27.419	1106.810	894.359
408.423	27.680	1105.729	894.685
409.438	27.653	1104.607	893.565
410.453	27.554	1104.625	893.014
411.467	27.514	1103.938	892.184
412.482	27.562	1103.262	891.796
413.496	27.565	1102.511	891.122
414.511	27.612	1101.718	890.636
415.526	27.687	1101.298	890.581
416.540	27.514	1100.837	889.285
417.555	27.699	1100.639	889.950
418.569	27.550	1100.204	888.792
419.584	27.738	1099.262	888.870
420.599	27.728	1098.886	888.440
421.613	80.492	1287.671	1331.399
422.628	75.290	1315.182	1331.533
