DTS Sentinel unit serial number:	SN413079Multiplexer serial number:	ORYXHardware model number:	OX4-SRSoftware version number:	ORYX F/W v4.00 Oryx Data Collector v3.7.2.0data status	okinstallation	princeton_trtdifferential loss correction	single-endedforward channel	channel 2reverse channel	N/Adate	2019/09/10time	16:25:10forward acquisition time	60.00reverse acquisition time	0.00gamma	496.2192k internal	0.2307k external	0.2307temperature offset calibration	0.9938default loss term (dB/km)	0.3790temperature slope calibration	1.0000multiplexer offset coefficient	1.0000multiplexer slope coefficient	1.0000fibre end	0.00T internal ref (°C)	38.14T ext. ref 1 (°C)	-0.28T ext. ref 2 (°C)	30.93length (m)	temperature (°C)	Stokes	anti-Stokes-747.200	10.908	-0.023	-0.018
-746.185	-90.360	0.450	0.133
-745.171	-1.739	0.232	-0.166
-744.156	800.000	-0.023	-0.087
-743.142	-60.999	0.122	-0.052
-742.127	-152.481	0.272	0.020
-741.112	152.217	0.136	0.189
-740.098	253.396	0.203	0.352
-739.083	800.000	-0.059	-0.172
-738.069	133.588	0.127	0.167
-737.054	351.003	-0.160	-0.322
-736.039	81.692	-0.158	-0.174
-735.025	-123.370	0.041	0.007
-734.010	-155.797	0.134	0.009
-732.996	-3.592	0.252	-0.178
-731.981	-99.357	-0.308	-0.079
-730.966	-126.332	0.241	-0.037
-729.952	-200.000	-0.000	-0.095
-728.937	-200.000	-0.258	0.001
-727.923	-76.687	-0.115	-0.041
-726.908	106.661	0.228	0.274
-725.894	266.619	-0.040	-0.070
-724.879	-108.493	0.182	-0.040
-723.864	800.000	0.075	-0.230
-722.850	-115.189	0.474	0.091
-721.835	-139.800	0.181	0.020
-720.821	-10.854	0.259	0.174
-719.806	-136.349	-0.136	0.016
-718.791	154.932	-0.222	0.310
-717.777	-30.256	0.148	-0.085
-716.762	0.652	-0.272	-0.197
-715.748	-4.863	-0.188	0.132
-714.733	279.858	0.089	0.162
-713.718	-60.077	0.306	-0.133
-712.704	-78.838	-0.206	-0.071
-711.689	-200.000	0.007	-0.076
-710.675	-118.211	0.130	0.023
-709.660	14.405	0.132	0.105
-708.645	-97.891	-0.254	0.066
-707.631	-200.000	0.018	-0.090
-706.616	-136.463	-0.234	0.028
-705.602	50.314	-0.129	-0.123
-704.587	800.000	-0.050	0.194
-703.572	30.375	0.182	-0.158
-702.558	256.627	0.071	-0.124
-701.543	-39.125	0.111	-0.059
-700.529	419.484	-0.122	0.264
-699.514	-177.840	-0.242	0.006
-698.499	26.438	-0.110	-0.093
-697.485	-46.749	0.295	-0.146
-696.470	800.000	0.069	-0.292
-695.456	-200.000	-0.021	-0.206
-694.441	800.000	0.056	-0.156
-693.426	-200.000	-0.008	0.128
-692.412	-200.000	-0.027	-0.186
-691.397	-200.000	-0.002	-0.177
-690.383	-76.738	-0.141	0.050
-689.368	-200.000	0.001	0.042
-688.354	150.779	-0.306	-0.421
-687.339	113.329	0.143	0.176
-686.324	108.447	0.201	-0.243
-685.310	800.000	0.078	-0.240
-684.295	-200.000	0.031	-0.450
-683.281	-10.197	-0.109	-0.073
-682.266	800.000	-0.044	0.174
-681.251	-75.598	0.159	-0.057
-680.237	-22.167	0.263	0.162
-679.222	-149.393	0.222	0.018
-678.208	54.664	0.124	-0.121
-677.193	-200.000	0.005	-0.062
-676.178	-55.366	-0.242	-0.110
-675.164	175.628	0.054	-0.080
-674.149	247.885	0.076	-0.129
-673.135	-174.456	-0.165	-0.005
-672.120	255.850	0.171	-0.298
-671.105	279.035	0.147	-0.265
-670.091	800.000	-0.010	-0.045
-669.076	-172.954	0.214	-0.007
-668.062	171.679	0.100	-0.146
-667.047	210.607	-0.067	-0.107
-666.032	-109.223	0.110	-0.024
-665.018	800.000	-0.063	-0.209
-664.003	142.180	0.142	0.190
-662.989	-38.777	0.112	-0.060
-661.974	-85.580	0.111	-0.035
-660.959	-200.000	0.027	0.316
-659.945	800.000	0.055	-0.226
-658.930	172.909	-0.204	-0.298
-657.916	210.240	-0.117	-0.186
-656.901	-158.475	-0.327	-0.019
-655.886	-132.037	-0.277	-0.037
-654.872	-41.858	0.065	0.034
-653.857	39.703	0.273	0.248
-652.843	117.820	0.135	-0.169
-651.828	-43.465	-0.087	0.045
-650.814	800.000	0.050	0.159
-649.799	-4.584	0.407	0.285
-648.784	297.372	0.115	0.215
-647.770	776.524	0.060	-0.166
-646.755	-39.346	-0.168	-0.089
-645.741	800.000	-0.102	-0.286
-644.726	-79.061	0.554	0.191
-643.711	521.837	-0.137	-0.325
-642.697	323.535	0.138	-0.266
-641.682	-110.240	0.376	0.079
-640.668	-200.000	-0.013	-0.134
-639.653	177.184	-0.051	0.076
-638.638	-48.145	0.166	-0.081
-637.624	63.579	0.269	-0.273
-636.609	10.667	-0.317	-0.245
-635.595	-124.937	0.163	-0.025
-634.580	-3.088	0.305	-0.215
-633.565	545.425	-0.065	-0.157
-632.551	-103.800	-0.310	-0.073
-631.536	-200.000	0.012	-0.161
-630.522	-200.000	-0.002	0.175
-629.507	-86.846	0.144	0.044
-628.492	31.903	-0.184	-0.161
-627.478	-59.057	-0.185	-0.081
-626.463	383.822	-0.127	0.264
-625.449	85.177	0.158	0.175
-624.434	28.556	-0.129	-0.111
-623.419	39.344	-0.108	0.098
-622.405	533.297	0.057	-0.138
-621.390	-142.038	-0.069	-0.007
-620.376	-65.281	-0.275	0.112
-619.361	-192.539	-0.327	-0.003
-618.346	68.666	0.305	0.317
-617.332	282.561	-0.069	-0.125
-616.317	77.931	-0.291	0.314
-615.303	-200.000	-0.002	0.182
-614.288	-193.148	-0.144	0.001
-613.273	-200.000	-0.004	0.151
-612.259	-200.000	0.038	0.281
-611.244	-56.325	0.416	-0.187
-610.230	51.913	-0.124	0.119
-609.215	97.959	-0.168	0.195
-608.201	109.019	-0.121	-0.146
-607.186	-200.000	-0.009	-0.183
-606.171	33.583	0.067	0.059
-605.157	165.110	-0.142	-0.203
-604.142	-82.495	0.292	-0.096
-603.128	-200.000	-0.062	0.408
-602.113	442.740	-0.027	0.060
-601.098	-72.431	0.218	0.081
-600.084	-63.655	0.076	-0.032
-599.069	-121.539	0.045	-0.008
-598.055	318.535	0.025	0.047
-597.040	-200.000	0.025	0.111
-596.025	800.000	0.076	0.299
-595.011	-200.000	-0.082	0.403
-593.996	57.714	-0.024	0.024
-592.982	61.265	-0.085	0.085
-591.967	158.145	-0.067	-0.094
-590.952	21.701	-0.038	-0.031
-589.938	21.909	-0.072	0.060
-588.923	-80.357	0.229	0.077
-587.909	160.155	-0.171	0.241
-586.894	587.901	-0.073	0.183
-585.879	-17.830	0.139	-0.088
-584.865	24.192	0.159	-0.133
-583.850	478.183	-0.054	-0.123
-582.836	800.000	-0.065	-0.210
-581.821	119.527	-0.210	0.263
-580.806	-95.104	0.096	0.026
-579.792	130.342	-0.121	0.157
-578.777	88.613	0.210	-0.235
-577.763	4.790	0.136	-0.101
-576.748	20.447	0.036	-0.029
-575.733	-159.534	-0.187	0.010
-574.719	-99.205	0.384	-0.098
-573.704	-59.032	0.191	0.083
-572.690	-124.437	0.187	-0.029
-571.675	800.000	-0.071	-0.203
-570.661	266.050	0.245	-0.433
-569.646	140.754	0.081	-0.108
-568.631	26.820	0.065	-0.055
-567.617	-200.000	-0.018	0.255
-566.602	-200.000	-0.019	0.323
-565.588	-36.288	0.198	0.108
-564.573	33.826	-0.059	0.052
-563.558	423.288	-0.180	0.390
-562.544	20.683	0.207	-0.169
-561.529	-60.485	0.352	0.151
-560.515	-46.903	-0.317	0.156
-559.500	382.219	-0.182	-0.377
-558.485	-46.626	-0.284	-0.141
-557.471	-67.184	-0.175	0.070
-556.456	-160.713	-0.294	0.016
-555.442	169.654	-0.082	0.119
-554.427	-38.885	0.082	-0.044
-553.412	119.371	0.177	-0.221
-552.398	102.520	-0.096	-0.114
-551.383	225.188	-0.054	-0.088
-550.369	177.568	-0.065	-0.096
-549.354	800.000	-0.040	0.154
-548.339	-11.816	0.121	0.080
-547.325	-102.089	0.323	0.078
-546.310	719.341	0.070	0.189
-545.296	800.000	-0.081	0.263
-544.281	-31.175	-0.464	0.264
-543.266	7.872	-0.098	0.074
-542.252	-89.330	0.365	-0.109
-541.237	-78.150	-0.147	0.051
-540.223	297.053	-0.018	-0.033
-539.208	-5.954	-0.161	-0.111
-538.193	180.282	-0.387	0.572
-537.179	90.727	0.339	-0.383
-536.164	-133.051	-0.341	0.044
-535.150	177.344	0.091	-0.134
-534.135	-200.000	0.052	-0.327
-533.121	-200.000	-0.045	0.213
-532.106	131.129	-0.020	-0.025
-531.091	-200.000	0.013	0.215
-530.077	-62.993	0.089	0.037
-529.062	-96.680	0.292	-0.078
-528.048	-90.031	0.379	-0.111
-527.033	800.000	0.071	0.205
-526.018	-163.159	-0.231	-0.011
-525.004	-200.000	0.001	0.073
-523.989	-67.891	-0.316	-0.125
-522.975	-153.252	-0.213	-0.015
-521.960	-160.921	-0.135	0.007
-520.945	-199.694	-0.153	-0.001
-519.931	651.274	0.094	-0.243
-518.916	-200.000	0.067	-0.296
-517.902	800.000	0.148	0.520
-516.887	194.407	0.121	-0.185
-515.872	-95.047	0.181	-0.049
-514.858	132.849	-0.292	-0.380
-513.843	7.171	-0.051	0.038
-512.829	-56.459	0.350	0.157
-511.814	28.413	0.146	0.124
-510.799	-21.344	-0.257	0.158
-509.785	127.409	-0.155	-0.198
-508.770	82.374	-0.086	-0.093
-507.756	-91.751	0.064	-0.018
-506.741	-81.773	0.191	0.063
-505.726	-155.256	0.013	-0.001
-504.712	64.457	-0.140	0.142
-503.697	171.956	-0.092	-0.133
-502.683	471.108	-0.106	0.240
-501.668	-59.533	-0.269	-0.116
-500.653	633.089	0.158	-0.402
-499.639	33.594	0.060	-0.052
-498.624	424.217	-0.126	-0.273
-497.610	-119.898	0.222	-0.038
-496.595	-54.558	-0.334	-0.152
-495.581	193.700	-0.052	-0.079
-494.566	65.838	0.038	0.039
-493.551	404.872	0.079	0.168
-492.537	312.105	-0.030	0.057
-491.522	-200.000	-0.066	-0.334
-490.508	451.498	-0.100	-0.222
-489.493	800.000	0.032	-0.133
-488.478	8.482	-0.056	0.042
-487.464	-200.000	0.006	0.107
-486.449	-138.222	0.184	-0.021
-485.435	-22.550	-0.333	0.203
-484.420	-200.000	0.024	0.349
-483.405	492.868	-0.040	0.092
-482.391	-16.919	-0.313	-0.199
-481.376	-185.417	-0.045	-0.001
-480.362	-179.951	-0.329	0.007
-479.347	-44.640	-0.242	-0.122
-478.332	-200.000	0.065	0.409
-477.318	-154.542	0.208	0.014
-476.303	-200.000	0.003	0.263
-475.289	-200.000	0.023	-0.168
-474.274	-26.878	-0.136	-0.080
-473.259	70.767	0.058	0.060
-472.245	-200.000	-0.035	-0.210
-471.230	-76.801	-0.253	0.089
-470.216	-161.365	-0.267	0.014
-469.201	-200.000	0.021	0.139
-468.186	-141.279	0.126	0.013
-467.172	19.281	0.161	-0.130
-466.157	-115.935	-0.341	0.064
-465.143	-127.708	-0.318	-0.046
-464.128	-200.000	-0.014	0.379
-463.113	-128.497	0.210	-0.030
-462.099	-21.266	0.287	-0.176
-461.084	-47.798	-0.217	-0.106
-460.070	-17.431	0.351	0.222
-459.055	-36.462	-0.026	0.014
-458.040	-67.084	0.384	-0.152
-457.026	-165.522	-0.146	0.006
-456.011	752.729	0.151	0.411
-454.997	800.000	-0.053	-0.200
-453.982	391.302	-0.100	-0.210
-452.968	-200.000	-0.166	-0.001
-451.953	-0.809	-0.127	-0.090
-450.938	-41.488	0.313	-0.162
-449.924	-83.757	-0.406	-0.130
-448.909	-26.758	0.157	-0.092
-447.895	-200.000	0.064	-0.413
-446.880	282.326	0.123	-0.221
-445.865	535.428	0.013	0.031
-444.851	-160.506	0.097	0.005
-443.836	123.096	-0.147	0.185
-442.822	207.886	-0.204	-0.320
-441.807	96.194	-0.149	-0.171
-440.792	34.565	-0.309	-0.271
-439.778	-200.000	0.039	0.268
-438.763	718.432	-0.095	0.254
-437.749	506.093	-0.064	-0.149
-436.734	-2.226	0.240	-0.169
-435.719	800.000	0.045	-0.144
-434.705	14.223	-0.283	-0.221
-433.690	-200.000	0.001	-0.356
-432.676	356.829	0.260	-0.520
-431.661	-165.190	0.166	0.007
-430.646	41.166	-0.083	0.075
-429.632	459.985	-0.083	0.186
-428.617	-73.880	0.330	-0.121
-427.603	-200.000	0.003	0.129
-426.588	197.210	-0.210	-0.322
-425.573	-41.582	0.064	0.033
-424.559	-64.771	0.162	0.066
-423.544	59.317	-0.192	-0.190
-422.530	-200.000	-0.082	0.371
-421.515	318.053	-0.159	-0.302
-420.500	143.657	-0.222	-0.297
-419.486	546.665	-0.052	0.124
-418.471	794.421	0.068	0.189
-417.457	52.848	0.096	-0.093
-416.442	99.128	-0.056	-0.066
-415.428	-165.902	-0.156	-0.007
-414.413	66.595	-0.149	-0.152
-413.398	408.432	0.186	-0.394
-412.384	-61.533	-0.296	-0.125
-411.369	397.772	0.028	-0.058
-410.355	-71.754	-0.145	0.054
-409.340	70.294	-0.185	-0.191
-408.325	2.845	-0.230	-0.167
-407.311	-200.000	-0.006	0.285
-406.296	-104.108	-0.132	0.031
-405.282	800.000	0.046	0.150
-404.267	-37.944	-0.288	0.154
-403.252	-59.859	-0.111	-0.048
-402.238	-97.276	0.133	-0.035
-401.223	68.114	-0.070	-0.072
-400.209	-80.346	-0.217	0.073
-399.194	-99.625	0.327	-0.082
-398.179	512.718	0.158	0.369
-397.165	-148.884	0.204	-0.017
-396.150	221.556	0.102	-0.165
-395.136	187.507	0.165	0.247
-394.121	800.000	-0.054	0.181
-393.106	433.718	-0.085	-0.186
-392.092	-122.090	-0.145	-0.024
-391.077	-200.000	0.025	0.296
-390.063	223.052	-0.184	0.297
-389.048	800.000	-0.106	-0.359
-388.033	47.995	-0.128	0.120
-387.019	128.217	0.125	-0.159
-386.004	-28.277	0.172	-0.100
-384.990	251.442	-0.056	0.095
-383.975	-127.511	-0.025	0.004
-382.960	-36.717	0.060	0.032
-381.946	-15.120	-0.156	0.100
-380.931	-54.879	0.271	0.123
-379.917	-24.333	-0.266	0.159
-378.902	725.885	-0.035	-0.093
-377.888	196.559	-0.024	-0.037
-376.873	-122.370	-0.243	-0.040
-375.858	-200.000	0.090	0.535
-374.844	-43.785	0.163	-0.082
-373.829	-200.000	0.015	-0.215
-372.815	-29.773	-0.096	0.055
-371.800	-179.877	0.112	0.002
-370.785	-200.000	-0.016	0.282
-369.771	-190.206	0.291	-0.003
-368.756	800.000	-0.122	-0.463
-367.742	-85.080	0.278	0.087
-366.727	-15.965	0.094	0.060
-365.712	800.000	0.039	-0.141
-364.698	-200.000	-0.020	0.244
-363.683	-200.000	0.030	0.177
-362.669	-200.000	0.027	-0.264
-361.654	800.000	-0.043	-0.153
-360.639	83.159	-0.195	-0.213
-359.625	800.000	-0.036	-0.148
-358.610	48.039	-0.061	-0.057
-357.596	800.000	-0.007	-0.031
-356.581	800.000	-0.063	0.265
-355.566	-200.000	-0.024	0.466
-354.552	469.306	0.134	-0.301
-353.537	133.148	-0.147	-0.190
-352.523	-200.000	-0.010	0.339
-351.508	800.000	0.017	-0.055
-350.493	160.798	0.203	-0.283
-349.479	-106.509	-0.133	-0.030
-348.464	-170.602	0.255	0.009
-347.450	-200.000	0.016	0.096
-346.435	-41.221	0.224	-0.116
-345.420	374.013	-0.074	0.150
-344.406	82.013	-0.095	0.103
-343.391	-200.000	-0.004	0.084
-342.377	800.000	0.075	-0.284
-341.362	702.064	-0.004	-0.012
-340.348	-200.000	-0.041	0.285
-339.333	-186.200	-0.105	0.002
-338.318	-200.000	-0.037	-0.262
-337.304	-64.732	-0.124	0.050
-336.289	130.472	-0.156	0.200
-335.275	767.238	-0.074	-0.201
-334.260	-200.000	0.018	-0.168
-333.245	314.199	-0.066	-0.125
-332.231	800.000	0.016	-0.047
-331.216	304.279	0.077	0.143
-330.202	-41.588	0.136	0.070
-329.187	284.518	-0.076	0.137
-328.172	-163.906	0.068	-0.003
-327.158	-102.697	0.061	0.015
-326.143	83.451	0.183	-0.199
-325.129	113.499	-0.234	0.284
-324.114	104.750	-0.042	-0.050
-323.099	209.632	0.138	0.216
-322.085	267.576	-0.123	-0.215
-321.070	-200.000	-0.036	-0.251
-320.056	800.000	-0.053	0.199
-319.041	129.485	0.143	-0.183
-318.026	-181.057	0.213	0.004
-317.012	588.194	0.085	0.210
-315.997	-133.227	0.103	0.013
-314.983	290.106	-0.097	-0.176
-313.968	-12.547	0.086	0.056
-312.953	-200.000	-0.017	0.186
-311.939	-121.046	0.261	-0.044
-310.924	229.970	-0.107	0.174
-309.910	-86.506	0.155	0.048
-308.895	635.718	0.058	-0.146
-307.880	103.666	0.231	0.271
-306.866	800.000	0.022	-0.087
-305.851	228.389	0.090	-0.146
-304.837	800.000	0.191	0.567
-303.822	-40.636	0.098	0.051
-302.807	44.710	0.196	0.180
-301.793	737.371	-0.151	0.406
-300.778	501.979	-0.138	0.318
-299.764	-103.056	0.140	-0.033
-298.749	-25.443	0.298	0.176
-297.735	-69.508	0.133	-0.051
-296.720	641.566	0.069	-0.176
-295.705	800.000	-0.099	0.391
-294.691	322.946	0.153	0.291
-293.676	800.000	-0.029	0.086
-292.662	-57.056	-0.074	-0.033
-291.647	145.905	-0.145	-0.194
-290.632	800.000	0.083	-0.235
-289.618	179.668	-0.112	-0.164
-288.603	-45.719	-0.265	0.131
-287.589	-139.831	-0.304	0.032
-286.574	-101.038	0.282	0.069
-285.559	-63.664	-0.150	-0.061
-284.545	66.112	-0.159	0.161
-283.530	-24.143	0.113	0.067
-282.516	-130.994	-0.245	0.033
-281.501	-200.000	-0.049	-0.256
-280.486	-100.894	0.284	-0.070
-279.472	191.645	-0.068	-0.103
-278.457	128.151	-0.093	0.118
-277.443	346.910	-0.028	0.054
-276.428	800.000	0.014	-0.054
-275.413	5.545	0.036	0.027
-274.399	-200.000	-0.007	-0.257
-273.384	-200.000	-0.014	-0.173
-272.370	-77.384	-0.289	-0.100
-271.355	-12.698	-0.143	-0.093
-270.340	-200.000	0.014	-0.063
-269.326	-94.912	-0.368	0.099
-268.311	-190.491	-0.271	-0.003
-267.297	-90.675	-0.109	-0.031
-266.282	-150.899	0.445	-0.034
-265.267	-200.000	0.028	-0.348
-264.253	-83.316	-0.138	-0.044
-263.238	800.000	0.011	0.039
-262.224	-200.000	0.007	0.177
-261.209	27.045	0.193	-0.162
-260.195	-200.000	-0.003	-0.196
-259.180	-200.000	-0.216	-0.000
-258.165	-200.000	0.017	-0.286
-257.151	85.422	-0.110	-0.120
-256.136	-7.064	-0.029	0.020
-255.122	148.580	-0.068	-0.092
-254.107	-64.680	0.404	0.163
-253.092	-200.000	0.053	0.246
-252.078	-95.501	0.431	0.115
-251.063	61.115	-0.187	-0.185
-250.049	212.042	0.123	-0.193
-249.034	-135.108	-0.183	-0.022
-248.019	-10.864	0.277	-0.183
-247.005	63.772	-0.094	0.094
-245.990	800.000	-0.041	-0.140
-244.976	155.245	0.151	-0.207
-243.961	-200.000	-0.001	0.005
-242.946	800.000	0.097	0.282
-241.932	-200.000	-0.026	0.122
-240.917	-200.000	0.017	0.350
-239.903	403.019	0.074	0.154
-238.888	-56.611	-0.108	-0.048
-237.873	8.723	0.059	0.045
-236.859	-6.429	0.273	-0.185
-235.844	-55.058	-0.200	-0.090
-234.830	-200.000	0.066	-0.325
-233.815	-161.904	-0.393	-0.020
-232.800	1.419	-0.147	0.106
-231.786	626.465	-0.026	0.065
-230.771	-85.831	0.069	0.021
-229.757	-200.000	-0.009	-0.096
-228.742	-91.892	0.112	-0.032
-227.727	-23.252	-0.098	0.059
-226.713	158.874	-0.240	-0.333
-225.698	-185.009	0.220	0.003
-224.684	800.000	-0.061	0.201
-223.669	-200.000	0.007	-0.069
-222.655	-139.004	0.355	-0.038
-221.640	144.523	0.046	0.061
-220.625	19.694	0.084	0.068
-219.611	-29.186	0.349	-0.199
-218.596	-200.000	-0.029	-0.158
-217.582	8.300	0.283	-0.212
-216.567	-6.508	0.137	-0.093
-215.552	-80.940	-0.133	-0.044
-214.538	337.877	-0.150	0.290
-213.523	800.000	-0.037	-0.122
-212.509	210.069	0.038	-0.060
-211.494	800.000	-0.085	-0.349
-210.479	124.107	0.253	-0.317
-209.465	800.000	-0.090	0.261
-208.450	362.718	-0.134	-0.268
-207.436	800.000	0.082	-0.293
-206.421	-29.628	-0.184	-0.105
-205.406	83.052	0.167	-0.181
-204.392	-80.226	0.310	0.103
-203.377	-200.000	-0.010	0.179
-202.363	89.744	0.166	0.184
-201.348	631.444	0.003	-0.007
-200.333	40.240	-0.113	0.101
-199.319	40.244	-0.114	0.102
-198.304	-20.105	-0.065	-0.040
-197.290	102.694	-0.066	-0.076
-196.275	187.343	-0.119	-0.177
-195.260	23.583	0.197	0.162
-194.246	766.383	-0.125	0.339
-193.231	-200.000	-0.089	0.397
-192.217	-200.000	0.049	0.274
-191.202	56.025	-0.166	0.160
-190.187	117.405	-0.038	-0.046
-189.173	401.173	-0.051	0.107
-188.158	-21.977	0.068	-0.041
-187.144	-200.000	-0.007	-0.038
-186.129	25.896	0.172	-0.143
-185.114	20.048	-0.171	0.137
-184.100	252.291	0.053	0.089
-183.085	33.341	0.087	0.075
-182.071	43.177	0.205	0.187
-181.056	62.020	-0.428	0.424
-180.042	-52.817	0.121	0.055
-179.027	-31.429	-0.153	0.086
-178.012	265.795	-0.036	0.063
-176.998	-200.000	0.012	-0.127
-175.983	-200.000	0.016	0.141
-174.969	5.314	-0.300	-0.220
-173.954	-51.865	-0.044	-0.020
-172.939	-92.007	0.146	0.041
-171.925	8.503	0.437	0.327
-170.910	-190.736	0.164	-0.002
-169.896	388.237	0.079	-0.163
-168.881	141.876	0.030	-0.039
-167.866	800.000	0.067	0.203
-166.852	-78.901	0.229	-0.077
-165.837	-200.000	0.007	-0.110
-164.823	-35.505	0.215	-0.116
-163.808	-146.336	0.034	0.003
-162.793	-129.342	0.104	0.014
-161.779	-36.094	-0.157	-0.084
-160.764	167.114	0.010	-0.014
-159.750	-200.000	-0.028	0.240
-158.735	800.000	0.128	0.360
-157.720	-200.000	0.003	0.031
-156.706	55.890	-0.078	-0.075
-155.691	119.251	-0.035	-0.043
-154.677	-35.153	0.347	0.188
-153.662	-55.129	-0.235	0.105
-152.647	-180.367	0.263	-0.005
-151.633	447.991	0.110	0.240
-150.618	-26.719	-0.150	-0.087
-149.604	-40.603	-0.140	0.072
-148.589	765.343	-0.087	0.236
-147.574	800.000	0.070	-0.285
-146.560	-161.781	-0.378	-0.019
-145.545	-200.000	0.015	0.134
-144.531	-200.000	0.009	0.212
-143.516	-44.701	-0.140	-0.070
-142.502	-122.054	-0.195	-0.032
-141.487	20.173	0.181	-0.145
-140.472	-36.447	0.240	-0.128
-139.458	-119.007	-0.295	-0.051
-138.443	-200.000	-0.003	-0.292
-137.429	13.257	-0.012	0.009
-136.414	-172.034	-0.123	-0.004
-135.399	-161.365	-0.362	-0.019
-134.385	-118.583	0.277	0.049
-133.370	800.000	-0.125	-0.356
-132.356	-160.932	-0.069	0.004
-131.341	27.575	0.116	-0.097
-130.326	-200.000	0.021	-0.125
-129.312	-138.944	0.150	0.016
-128.297	800.000	-0.084	0.299
-127.283	788.759	-0.092	-0.251
-126.268	192.732	-0.137	-0.205
-125.253	-200.000	-0.013	-0.303
-124.239	-102.760	0.367	-0.087
-123.224	-200.000	0.003	-0.297
-122.210	800.000	-0.036	0.134
-121.195	-22.531	-0.182	0.109
-120.180	356.434	-0.038	-0.075
-119.166	418.752	-0.145	0.308
-118.151	-189.577	0.061	-0.001
-117.137	-200.000	0.027	-0.179
-116.122	143.591	-0.189	0.250
-115.107	452.390	0.138	0.303
-114.093	113.313	-0.281	0.339
-113.078	25.142	0.168	-0.138
-112.064	180.737	0.150	0.218
-111.049	191.630	-0.018	0.027
-110.034	-108.729	0.347	0.074
-109.020	-200.000	-0.020	0.153
-108.005	-106.063	0.095	0.021
-106.991	348.614	-0.069	0.136
-105.976	19.715	0.236	-0.188
-104.962	-128.556	0.338	-0.047
-103.947	-200.000	0.027	-0.151
-102.932	-13.414	0.275	0.177
-101.918	-74.987	-0.261	0.093
-100.903	800.000	-0.179	-0.526
-99.889	28.926	0.084	0.071
-98.874	800.000	-0.041	0.139
-97.859	62.792	0.114	-0.113
-96.845	-123.803	0.046	-0.007
-95.830	45.662	0.080	-0.073
-94.816	-158.257	0.229	-0.013
-93.801	343.062	0.077	-0.149
-92.786	127.284	0.225	0.283
-91.772	-42.930	0.150	-0.076
-90.757	663.323	-0.188	-0.481
-89.743	800.000	-0.040	0.125
-88.728	-200.000	0.009	0.320
-87.713	-83.935	0.152	0.048
-86.699	-92.315	-0.291	0.081
-85.684	-200.000	-0.027	-0.324
-84.670	188.153	0.107	0.158
-83.655	800.000	0.054	0.148
-82.640	23.781	-0.309	0.252
-81.626	32.579	-0.206	-0.176
-80.611	-4.843	-0.054	-0.037
-79.597	-43.494	-0.248	0.124
-78.582	44.198	0.062	-0.056
-77.567	109.278	-0.218	0.258
-76.553	169.472	0.132	0.187
-75.538	-79.299	0.038	0.013
-74.524	76.141	0.219	0.230
-73.509	800.000	0.069	0.295
-72.494	-55.272	0.319	0.142
-71.480	216.122	0.159	-0.250
-70.465	-193.192	0.276	-0.002
-69.451	800.000	-0.081	0.278
-68.436	800.000	-0.143	0.408
-67.422	48.386	-0.056	0.052
-66.407	57.133	-0.047	0.045
-65.392	133.295	0.084	-0.108
-64.378	-18.926	-0.079	0.049
-63.363	-169.978	0.150	-0.005
-62.349	-105.696	0.124	0.028
-61.334	48.082	-0.979	-0.906
-60.319	-68.779	0.678	0.259
-59.305	-200.000	-0.113	-1.025
-58.290	417.398	0.388	0.820
-57.276	380.432	0.770	1.562
-56.261	-200.000	84.033	501.121
-55.246	551.506	1387.590	3296.517
-54.232	177.968	2648.884	3823.436
-53.217	114.631	2392.700	2885.594
-52.203	47.251	1995.704	1838.884
-51.188	41.270	1777.001	1589.770
-50.173	38.519	1730.803	1526.960
-49.159	53.284	1769.642	1677.733
-48.144	57.207	1787.505	1725.473
-47.130	41.104	1749.592	1563.699
-46.115	38.161	1735.776	1528.306
-45.100	38.049	1730.942	1523.114
-44.086	38.090	1728.162	1520.925
-43.071	38.002	1725.561	1517.893
-42.057	38.012	1723.294	1515.914
-41.042	38.023	1720.992	1513.917
-40.027	38.053	1718.535	1511.924
-39.013	37.981	1716.643	1509.648
-37.998	38.000	1714.682	1508.008
-36.984	38.137	1713.398	1507.878
-35.969	38.135	1711.998	1506.568
-34.954	38.234	1710.331	1505.806
-33.940	38.164	1708.226	1503.350
-32.925	38.175	1706.809	1502.128
-31.911	38.079	1704.996	1499.737
-30.896	38.124	1703.111	1498.366
-29.881	38.150	1701.418	1497.014
-28.867	38.147	1699.735	1495.456
-27.852	38.086	1698.367	1493.723
-26.838	38.098	1696.825	1492.402
-25.823	38.071	1695.500	1490.968
-24.809	38.225	1693.765	1490.562
-23.794	38.186	1692.409	1489.009
-22.779	38.140	1690.649	1487.052
-21.765	38.186	1689.058	1485.944
-20.750	38.194	1687.137	1484.250
-19.736	38.052	1686.869	1482.878
-18.721	38.248	1684.209	1481.972
-17.706	38.169	1683.354	1480.564
-16.692	38.209	1681.128	1478.845
-15.677	38.157	1680.055	1477.450
-14.663	38.122	1678.737	1475.965
-13.648	38.202	1677.147	1475.119
-12.633	38.227	1675.590	1473.880
-11.619	38.214	1673.079	1471.510
-10.604	38.187	1671.872	1470.186
-9.590	38.199	1670.626	1469.126
-8.575	38.091	1669.557	1467.314
-7.560	38.107	1668.552	1466.493
-6.546	38.139	1666.974	1465.285
-5.531	38.203	1665.661	1464.555
-4.517	38.112	1664.764	1463.025
-3.502	38.053	1664.021	1461.873
-2.487	38.108	1662.402	1460.802
-1.473	38.016	1650.130	1449.280
-0.458	35.122	1629.008	1409.412
0.556	28.620	1627.317	1370.458
1.571	25.810	1651.842	1369.654
2.586	25.079	1667.026	1376.513
3.600	23.412	1615.656	1321.553
4.615	13.904	1497.306	1158.616
5.629	2.878	1421.323	1026.346
6.644	-0.036	1409.167	998.148
7.659	-0.267	1407.749	995.527
8.673	-0.356	1406.895	994.240
9.688	-0.440	1404.789	992.108
10.702	-0.523	1401.887	989.425
11.717	3.593	1411.079	1023.148
12.731	12.938	1428.869	1098.445
13.746	15.920	1432.380	1120.925
14.761	13.533	1426.134	1100.105
15.775	13.022	1424.968	1095.712
16.790	12.986	1424.332	1094.887
17.804	13.041	1423.325	1094.380
18.819	13.164	1423.666	1095.362
19.834	13.273	1422.366	1094.990
20.848	13.068	1421.934	1093.200
21.863	13.197	1420.715	1093.021
22.877	13.219	1419.371	1092.035
23.892	13.156	1419.092	1091.311
24.907	13.202	1417.665	1090.417
25.921	13.226	1416.955	1089.931
26.936	13.190	1415.946	1088.826
27.950	13.197	1415.012	1088.057
28.965	13.268	1413.294	1087.106
29.980	13.175	1411.834	1085.273
30.994	13.159	1410.650	1084.164
32.009	13.133	1409.367	1082.913
33.023	13.171	1407.681	1081.770
34.038	13.212	1406.053	1080.688
35.053	13.103	1405.783	1079.673
36.067	13.088	1404.054	1078.154
37.082	13.112	1402.938	1077.360
38.096	13.210	1401.572	1076.853
39.111	13.081	1401.258	1075.676
40.126	13.213	1399.885	1075.383
41.140	13.179	1399.603	1074.853
42.155	13.139	1399.010	1074.040
43.169	13.182	1399.046	1074.256
44.184	13.207	1398.557	1073.947
45.199	13.156	1397.920	1073.032
46.213	13.180	1397.586	1072.831
47.228	13.245	1395.964	1071.917
48.242	13.277	1394.687	1071.044
49.257	13.176	1393.503	1069.390
50.271	13.203	1391.710	1068.095
51.286	13.232	1390.267	1067.077
52.301	13.282	1388.355	1065.838
53.315	13.257	1387.617	1065.018
54.330	13.176	1387.008	1063.935
55.344	13.231	1385.173	1062.787
56.359	13.171	1384.294	1061.632
57.374	13.110	1383.942	1060.879
58.388	13.222	1383.091	1060.851
59.403	13.203	1382.178	1059.932
60.417	13.227	1381.215	1059.252
61.432	13.169	1380.053	1057.897
62.447	13.172	1379.277	1057.231
63.461	13.197	1377.857	1056.209
64.476	13.224	1376.522	1055.261
65.490	13.245	1374.886	1054.049
66.505	13.255	1373.089	1052.645
67.520	13.174	1371.775	1051.026
68.534	13.307	1370.007	1050.424
69.549	13.227	1369.217	1049.217
70.563	13.206	1367.968	1048.035
71.578	13.276	1366.801	1047.493
72.593	13.335	1365.579	1046.833
73.607	13.249	1364.840	1045.635
74.622	13.240	1364.027	1044.856
75.636	13.257	1362.749	1043.894
76.651	13.244	1362.185	1043.288
77.666	13.335	1361.019	1042.875
78.680	13.248	1360.992	1042.219
79.695	13.246	1359.440	1040.922
80.709	13.235	1358.782	1040.259
81.724	13.275	1357.156	1039.173
82.739	13.257	1356.550	1038.501
83.753	13.223	1355.599	1037.469
84.768	13.258	1353.610	1036.072
85.782	13.294	1352.016	1034.991
86.797	13.282	1351.313	1034.281
87.812	13.198	1349.785	1032.501
88.826	13.290	1348.464	1031.972
89.841	13.142	1347.533	1030.244
90.855	13.240	1346.039	1029.621
91.870	13.240	1345.069	1028.785
92.884	13.331	1343.415	1027.996
93.899	13.341	1342.570	1027.320
94.914	13.344	1341.738	1026.615
95.928	13.374	1340.390	1025.675
96.943	13.292	1339.783	1024.615
97.957	13.408	1338.714	1024.424
98.972	13.280	1337.851	1022.883
99.987	13.363	1336.465	1022.243
101.001	13.452	1334.258	1021.014
102.016	13.302	1333.531	1019.440
103.030	13.410	1332.212	1019.011
104.045	13.370	1330.936	1017.696
105.060	13.309	1330.000	1016.517
106.074	13.322	1328.369	1015.258
107.089	13.362	1326.885	1014.279
108.103	13.386	1325.356	1013.170
109.118	13.383	1324.143	1012.134
110.133	13.395	1322.419	1010.799
111.147	13.398	1320.787	1009.480
112.162	13.383	1319.631	1008.416
113.176	13.394	1318.138	1007.254
114.191	13.406	1316.566	1006.034
115.206	13.344	1315.395	1004.676
116.220	13.358	1314.821	1004.231
117.235	13.390	1313.372	1003.234
118.249	13.319	1312.201	1001.820
119.264	13.469	1310.449	1001.301
120.279	13.431	1309.244	1000.061
121.293	13.361	1308.354	998.873
122.308	13.402	1307.082	998.058
123.322	13.392	1305.915	997.016
124.337	13.301	1304.590	995.373
125.352	13.478	1303.176	995.268
126.366	13.442	1302.128	994.166
127.381	13.553	1300.643	993.609
128.395	13.394	1299.762	991.891
129.410	13.540	1298.049	991.373
130.424	13.500	1297.457	990.596
131.439	13.457	1296.255	989.329
132.454	13.461	1295.022	988.328
133.468	13.469	1293.778	987.335
134.483	13.487	1292.800	986.609
135.497	13.510	1291.886	985.963
136.512	13.469	1290.476	984.558
137.527	13.471	1289.208	983.511
138.541	13.433	1287.561	981.947
139.556	13.373	1286.340	980.571
140.570	13.484	1284.473	979.717
141.585	13.446	1282.898	978.203
142.600	13.461	1281.728	977.317
143.614	13.523	1280.175	976.412
144.629	13.475	1279.160	975.267
145.643	13.412	1278.088	973.994
146.658	13.380	1276.559	972.553
147.673	13.437	1275.277	971.826
148.687	13.425	1274.051	970.736
149.702	13.456	1272.716	969.814
150.716	13.428	1271.051	968.297
151.731	13.527	1270.137	968.094
152.746	13.365	1269.232	966.369
153.760	13.383	1267.372	964.975
154.775	13.372	1266.435	964.112
155.789	13.447	1265.241	963.551
156.804	13.333	1264.180	961.994
157.819	13.358	1262.925	961.101
158.833	13.522	1261.388	960.797
159.848	13.395	1260.909	959.610
160.862	13.383	1259.954	958.728
161.877	13.409	1258.606	957.773
162.892	13.445	1257.592	957.123
163.906	13.541	1256.727	956.935
164.921	13.511	1255.405	955.673
165.935	13.529	1254.536	955.028
166.950	13.406	1253.948	953.789
167.964	13.524	1253.287	953.876
168.979	13.413	1252.897	952.856
169.994	13.444	1251.754	952.081
171.008	13.490	1251.109	951.770
172.023	13.458	1249.898	950.582
173.037	13.362	1249.609	949.730
174.052	13.464	1248.366	949.283
175.067	13.487	1247.534	948.699
176.081	13.454	1246.516	947.652
177.096	13.419	1245.750	946.785
178.110	13.502	1244.163	945.968
179.125	13.560	1242.891	945.252
180.140	13.475	1241.982	943.991
181.154	13.421	1240.741	942.655
182.169	13.446	1239.808	942.009
183.183	13.542	1238.719	941.642
184.198	13.494	1237.407	940.290
185.213	13.555	1236.127	939.578
186.227	13.501	1235.343	938.594
187.242	13.418	1234.481	937.388
188.256	13.490	1233.487	936.954
189.271	13.474	1232.150	935.764
190.286	13.481	1231.443	935.187
191.300	13.472	1230.662	934.459
192.315	13.584	1230.415	934.822
193.329	13.464	1229.734	933.546
194.344	13.546	1228.764	933.189
195.359	13.511	1228.266	932.532
196.373	13.624	1227.730	932.674
197.388	13.574	1227.224	931.927
198.402	13.569	1227.018	931.659
199.417	13.573	1225.989	930.819
200.432	13.541	1225.406	930.115
201.446	13.508	1224.584	929.224
202.461	13.557	1223.467	928.571
203.475	13.535	1222.575	927.685
204.490	13.564	1221.451	926.914
205.504	13.556	1220.389	925.982
206.519	13.505	1219.189	924.704
207.534	13.535	1217.939	923.843
208.548	13.601	1216.965	923.391
209.563	13.615	1216.062	922.699
210.577	13.495	1215.378	921.432
211.592	13.552	1214.604	921.081
212.607	13.600	1213.333	920.303
213.621	13.583	1212.528	919.515
214.636	13.574	1211.878	918.888
215.650	13.520	1211.246	918.029
216.665	13.481	1210.121	916.878
217.680	13.594	1209.025	916.592
218.694	13.630	1208.381	916.225
219.709	13.664	1206.876	915.192
220.723	13.645	1206.265	914.539
221.738	13.523	1206.313	913.823
222.753	13.608	1205.559	913.642
223.767	13.639	1204.124	912.644
224.782	13.583	1203.873	912.065
225.796	13.644	1202.861	911.552
226.811	13.559	1202.766	910.931
227.826	13.590	1201.817	910.302
228.840	13.745	1200.890	910.367
229.855	13.609	1200.510	909.256
230.869	13.620	1199.618	908.557
231.884	13.577	1198.751	907.588
232.899	13.658	1197.878	907.289
233.913	13.601	1197.430	906.557
234.928	13.573	1197.041	906.027
235.942	13.666	1195.895	905.588
236.957	13.659	1195.486	905.160
237.972	13.657	1194.851	904.592
238.986	13.653	1193.532	903.490
240.001	13.591	1193.295	902.894
241.015	13.679	1192.153	902.429
242.030	13.634	1191.847	901.873
243.045	13.658	1190.943	901.239
244.059	13.657	1189.839	900.314
245.074	13.790	1189.148	900.439
246.088	13.732	1188.395	899.470
247.103	13.625	1187.603	898.212
248.117	13.605	1187.153	897.684
249.132	13.625	1186.006	896.844
250.147	13.649	1185.127	896.231
251.161	13.691	1184.067	895.579
252.176	13.678	1183.686	895.139
253.190	13.696	1183.035	894.666
254.205	13.579	1182.643	893.662
255.220	13.690	1181.803	893.544
256.234	13.680	1181.182	892.940
257.249	13.645	1180.370	892.063
258.263	13.708	1179.480	891.647
259.278	13.714	1179.135	891.339
260.293	13.610	1178.781	890.433
261.307	13.647	1178.099	890.042
262.322	13.716	1177.248	889.686
263.336	13.730	1176.307	888.971
264.351	13.806	1174.740	888.118
265.366	13.741	1174.873	887.792
266.380	13.725	1174.091	887.039
267.395	13.666	1173.649	886.309
268.409	13.647	1172.801	885.487
269.424	13.661	1172.261	885.079
270.439	13.652	1171.388	884.291
271.453	13.719	1170.805	884.127
272.468	13.768	1169.822	883.571
273.482	13.679	1169.327	882.646
274.497	13.639	1169.116	882.192
275.512	13.720	1168.241	881.889
276.526	13.747	1166.918	880.952
277.541	13.680	1166.481	880.189
278.555	13.748	1165.849	879.995
279.570	13.732	1164.682	878.953
280.585	13.747	1164.572	878.871
281.599	13.670	1163.409	877.508
282.614	13.701	1162.708	877.066
283.628	13.722	1161.319	876.051
284.643	13.748	1160.228	875.290
285.657	13.720	1159.267	874.339
286.672	13.771	1158.324	873.818
287.687	13.686	1157.436	872.625
288.701	13.783	1156.804	872.577
289.716	13.782	1155.540	871.542
290.730	13.730	1155.106	870.865
291.745	13.780	1154.134	870.318
292.760	13.769	1153.673	869.837
293.774	13.719	1153.522	869.383
294.789	13.673	1152.879	868.579
295.803	13.722	1152.194	868.246
296.818	13.683	1151.572	867.493
297.833	13.678	1150.436	866.536
298.847	13.730	1149.649	866.138
299.862	13.777	1149.179	865.951
300.876	13.689	1148.499	864.906
301.891	13.718	1147.679	864.362
302.906	13.737	1146.685	863.635
303.920	13.765	1146.065	863.240
304.935	13.769	1145.230	862.556
305.949	13.689	1144.566	861.560
306.964	13.751	1143.939	861.338
307.979	13.770	1143.056	860.695
308.993	13.742	1142.284	859.888
310.008	13.739	1141.624	859.299
311.022	13.738	1141.048	858.786
312.037	13.860	1139.918	858.492
313.052	13.650	1139.618	857.102
314.066	13.770	1138.523	856.825
315.081	13.758	1137.627	856.015
316.095	13.733	1136.743	855.143
317.110	13.808	1135.519	854.533
318.125	13.745	1135.215	853.904
319.139	13.749	1134.444	853.267
320.154	13.713	1134.169	852.802
321.168	13.780	1133.607	852.650
322.183	13.695	1133.196	851.829
323.197	13.722	1131.900	850.917
324.212	13.777	1131.346	850.706
325.227	13.677	1130.754	849.672
326.241	13.680	1130.477	849.405
327.256	13.701	1129.289	848.541
328.270	13.803	1128.307	848.253
329.285	13.794	1127.311	847.383
330.300	13.691	1126.432	846.120
331.314	13.627	1125.643	845.130
332.329	13.672	1124.495	844.420
333.343	13.679	1123.600	843.709
334.358	13.762	1122.685	843.368
335.373	13.691	1122.130	842.516
336.387	13.827	1121.224	842.454
337.402	13.523	1121.078	840.724
338.416	13.708	1119.777	840.615
339.431	13.725	1118.822	839.908
340.446	13.829	1118.259	839.936
341.460	13.686	1117.861	838.839
342.475	13.743	1116.428	837.978
343.489	13.700	1115.516	837.002
344.504	13.734	1114.771	836.544
345.519	13.688	1113.894	835.575
346.533	13.768	1112.714	835.021
347.548	13.738	1112.113	834.348
348.562	13.812	1111.177	833.943
349.577	13.729	1110.866	833.218
350.592	13.787	1109.902	832.712
351.606	13.801	1108.944	831.987
352.621	13.798	1108.372	831.473
353.635	13.830	1107.950	831.244
354.650	13.679	1107.158	829.820
355.665	13.774	1106.198	829.498
356.679	13.740	1106.051	829.148
357.694	13.761	1105.122	828.480
358.708	13.758	1104.472	827.907
359.723	13.634	1104.127	826.958
360.738	13.759	1103.079	826.724
361.752	13.715	1102.357	825.890
362.767	13.757	1101.857	825.651
363.781	13.644	1101.795	824.967
364.796	13.647	1100.893	824.232
365.810	13.654	1100.193	823.671
366.825	13.709	1099.706	823.507
367.840	13.776	1098.905	823.166
368.854	13.750	1098.034	822.311
369.869	13.620	1097.553	821.233
370.883	13.726	1096.277	820.735
371.898	13.643	1095.845	819.924
372.913	13.710	1095.370	819.827
373.927	13.631	1095.048	819.125
374.942	13.567	1094.433	818.277
375.956	13.748	1093.578	818.457
376.971	13.725	1092.484	817.451
377.986	13.677	1092.730	817.327
379.000	13.706	1091.874	816.759
380.015	13.673	1090.914	815.808
381.029	13.795	1089.932	815.597
382.044	13.616	1089.405	814.255
383.059	13.642	1088.529	813.653
384.073	13.705	1087.830	813.369
385.088	13.668	1086.819	812.359
386.102	13.746	1085.654	811.797
387.117	13.613	1084.801	810.440
388.132	13.595	1083.882	809.593
389.146	13.670	1082.961	809.199
390.161	13.645	1082.603	808.738
391.175	13.712	1081.515	808.181
392.190	13.587	1080.832	806.991
393.205	13.754	1079.642	806.840
394.219	13.732	1079.055	806.223
395.234	13.694	1078.161	805.303
396.248	13.702	1076.816	804.263
397.263	13.774	1075.782	803.770
398.278	13.546	1075.419	802.321
399.292	13.590	1074.803	802.003
400.307	13.751	1073.708	801.895
401.321	13.631	1073.410	801.024
402.336	13.545	1072.910	800.162
403.350	13.669	1071.384	799.554
404.365	13.631	1070.737	798.816
405.380	13.570	1070.532	798.300
406.394	13.599	1069.503	797.597
407.409	13.631	1068.899	797.230
408.423	13.518	1067.802	795.799
409.438	13.623	1066.765	795.460
410.453	13.647	1066.251	795.125
411.467	13.652	1065.579	794.575
412.482	13.544	1064.826	793.426
413.496	13.596	1063.734	792.792
414.511	13.546	1063.103	792.013
415.526	13.623	1063.144	792.338
416.540	13.487	1062.631	791.235
417.555	13.699	1061.439	791.293
418.569	13.636	1061.037	790.623
419.584	13.458	1060.812	789.535
420.599	13.467	1060.259	789.097
421.613	144.195	1387.390	1775.823
422.628	132.713	1435.060	1775.922
