DTS Sentinel unit serial number:	SN413079Multiplexer serial number:	ORYXHardware model number:	OX4-SRSoftware version number:	ORYX F/W v4.00 Oryx Data Collector v3.7.2.0data status	okinstallation	princeton_trtdifferential loss correction	single-endedforward channel	channel 2reverse channel	N/Adate	2019/09/19time	03:27:34forward acquisition time	60.00reverse acquisition time	0.00gamma	496.2192k internal	0.2352k external	0.2352temperature offset calibration	1.0014default loss term (dB/km)	0.3790temperature slope calibration	1.0000multiplexer offset coefficient	1.0000multiplexer slope coefficient	1.0000fibre end	0.00T internal ref (°C)	20.66T ext. ref 1 (°C)	0.62T ext. ref 2 (°C)	14.25length (m)	temperature (°C)	Stokes	anti-Stokes-747.200	-7.792	-0.306	0.206
-746.185	-26.222	-0.135	0.079
-745.171	-200.000	-0.009	0.374
-744.156	-95.946	0.374	0.099
-743.142	51.656	0.209	-0.199
-742.127	110.975	-0.157	0.188
-741.112	-200.000	-0.020	-0.165
-740.098	419.857	0.204	0.435
-739.083	117.311	0.080	0.098
-738.069	800.000	-0.129	0.411
-737.054	278.930	-0.050	0.089
-736.039	127.219	-0.144	0.182
-735.025	-178.478	0.348	-0.008
-734.010	201.991	-0.158	0.243
-732.996	89.402	-0.290	0.323
-731.981	800.000	0.084	-0.355
-730.966	530.047	-0.029	0.067
-729.952	-107.124	-0.380	-0.084
-728.937	472.591	-0.051	-0.114
-727.923	-144.844	0.121	-0.011
-726.908	800.000	0.111	-0.403
-725.894	-200.000	0.007	-0.102
-724.879	-93.376	0.444	-0.123
-723.864	434.858	0.184	-0.400
-722.850	800.000	-0.071	-0.239
-721.835	-124.950	0.150	0.023
-720.821	-82.837	0.308	-0.099
-719.806	-200.000	0.012	0.061
-718.791	477.955	-0.082	0.185
-717.777	-196.174	-0.437	0.003
-716.762	49.993	0.058	0.055
-715.748	147.577	-0.095	0.127
-714.733	-103.542	0.390	0.091
-713.718	718.915	-0.032	0.086
-712.704	-24.974	0.310	-0.183
-711.689	800.000	-0.060	-0.171
-710.675	164.818	0.083	-0.116
-709.660	12.907	-0.203	-0.157
-708.645	-70.175	-0.285	0.108
-707.631	-91.724	0.333	-0.094
-706.616	-200.000	0.001	-0.239
-705.602	-24.633	0.319	0.189
-704.587	-174.302	-0.578	-0.017
-703.572	107.279	-0.117	0.139
-702.558	97.615	0.145	0.166
-701.543	-200.000	-0.008	0.162
-700.529	800.000	0.093	0.324
-699.514	800.000	-0.060	-0.209
-698.499	2.456	-0.266	0.192
-697.485	152.963	0.066	-0.090
-696.470	16.201	-0.214	0.168
-695.456	223.405	0.081	-0.130
-694.441	114.147	-0.226	-0.274
-693.426	124.347	0.083	0.104
-692.412	-200.000	0.002	-0.182
-691.397	71.209	-0.122	-0.126
-690.383	-135.855	0.201	-0.024
-689.368	-139.803	-0.227	-0.024
-688.354	-66.899	0.149	-0.059
-687.339	265.366	-0.069	-0.119
-686.324	-82.351	-0.176	-0.057
-685.310	-140.288	0.290	-0.030
-684.295	160.427	-0.139	0.194
-683.281	13.832	-0.334	-0.258
-682.266	-200.000	-0.046	0.224
-681.251	11.680	0.304	0.232
-680.237	121.591	-0.040	0.049
-679.222	161.732	0.103	0.143
-678.208	800.000	0.082	0.239
-677.193	-92.980	0.322	-0.089
-676.178	152.821	0.099	-0.135
-675.164	-151.392	0.354	-0.026
-674.149	800.000	0.015	-0.050
-673.135	436.455	-0.074	0.161
-672.120	-71.886	-0.363	-0.135
-671.105	-200.000	0.004	-0.258
-670.091	517.979	-0.068	0.158
-669.076	32.450	-0.311	-0.267
-668.062	-200.000	-0.059	-0.303
-667.047	521.528	0.058	-0.135
-666.032	-200.000	0.031	-0.167
-665.018	-32.254	0.112	-0.062
-664.003	64.829	-0.204	-0.204
-662.989	-200.000	0.020	-0.177
-661.974	800.000	-0.095	0.278
-660.959	-200.000	0.006	0.196
-659.945	36.633	-0.025	0.022
-658.930	-38.417	0.319	-0.168
-657.916	-103.714	0.322	-0.075
-656.901	-155.104	-0.373	-0.024
-655.886	555.316	-0.107	-0.257
-654.872	108.325	-0.079	0.094
-653.857	359.598	-0.060	-0.120
-652.843	102.115	-0.046	0.054
-651.828	-200.000	-0.025	-0.111
-650.814	-162.562	0.280	-0.014
-649.799	7.915	0.020	-0.015
-648.784	36.452	-0.026	0.023
-647.770	-155.665	0.390	0.025
-646.755	-141.583	0.175	0.018
-645.741	800.000	0.043	-0.129
-644.726	-99.401	0.196	-0.049
-643.711	-42.530	0.124	-0.063
-642.697	272.293	-0.117	0.205
-641.682	800.000	-0.113	-0.342
-640.668	44.186	0.276	-0.251
-639.653	-133.718	-0.121	-0.015
-638.638	-69.333	-0.112	-0.043
-637.624	800.000	0.050	-0.144
-636.609	-200.000	0.031	-0.166
-635.595	-200.000	-0.009	0.489
-634.580	-200.000	0.012	-0.054
-633.565	800.000	0.012	0.042
-632.551	158.433	0.086	-0.118
-631.536	-83.728	0.016	0.005
-630.522	-200.000	-0.027	-0.130
-629.507	-15.383	-0.142	0.090
-628.492	-95.820	0.137	-0.036
-627.478	-59.225	0.393	0.168
-626.463	800.000	0.064	0.219
-625.449	184.592	-0.006	-0.009
-624.434	22.325	-0.207	0.168
-623.419	-75.370	0.067	0.024
-622.405	-31.586	-0.231	-0.129
-621.390	60.815	0.015	0.015
-620.376	599.719	0.078	-0.192
-619.361	-132.137	0.117	-0.015
-618.346	-9.861	-0.264	-0.175
-617.332	-172.440	-0.185	-0.006
-616.317	108.262	0.046	-0.054
-615.303	81.886	0.144	0.154
-614.288	800.000	0.050	-0.216
-613.273	-17.778	-0.293	0.183
-612.259	-198.516	-0.200	-0.001
-611.244	-114.167	-0.180	0.035
-610.230	-68.711	-0.324	0.124
-609.215	-39.216	0.363	-0.189
-608.201	-155.834	-0.294	0.019
-607.186	429.017	-0.117	-0.252
-606.171	800.000	0.079	-0.302
-605.157	-106.972	0.061	0.013
-604.142	244.809	-0.159	-0.266
-603.128	-122.183	-0.200	0.032
-602.113	-43.146	0.315	-0.158
-601.098	-200.000	-0.047	-0.241
-600.084	-120.767	0.091	-0.015
-599.069	-81.370	0.040	0.013
-598.055	800.000	0.098	0.359
-597.040	106.873	-0.057	0.067
-596.025	-108.023	-0.175	0.038
-595.011	130.394	0.119	0.152
-593.996	74.312	-0.230	-0.240
-592.982	148.605	0.160	-0.214
-591.967	67.987	-0.036	-0.036
-590.952	800.000	0.054	-0.194
-589.938	260.834	-0.093	0.159
-588.923	-200.000	0.003	-0.046
-587.909	412.111	-0.217	-0.457
-586.894	120.121	-0.051	-0.063
-585.879	-13.134	0.101	-0.065
-584.865	-152.395	0.078	-0.006
-583.850	-92.919	0.265	-0.073
-582.836	-49.960	-0.288	0.135
-581.821	-187.481	0.284	0.004
-580.806	158.421	0.219	-0.301
-579.792	625.427	0.047	0.118
-578.777	-50.259	0.233	0.109
-577.763	800.000	-0.057	-0.173
-576.748	-114.021	-0.312	-0.060
-575.733	-74.858	0.395	-0.141
-574.719	-127.816	-0.210	-0.030
-573.704	-200.000	-0.011	0.085
-572.690	-74.360	-0.320	0.114
-571.675	-135.200	0.231	0.027
-570.661	-124.628	0.431	0.066
-569.646	-92.742	-0.224	-0.062
-568.631	-28.492	-0.122	-0.070
-567.617	-200.000	-0.020	0.126
-566.602	-200.000	-0.037	-0.218
-565.588	142.416	-0.179	0.236
-564.573	335.528	-0.035	-0.068
-563.558	-32.446	0.163	0.090
-562.544	-200.000	-0.020	0.197
-561.529	-56.151	-0.063	0.028
-560.515	394.518	-0.089	-0.183
-559.500	-35.246	0.130	0.070
-558.485	76.227	-0.094	-0.099
-557.471	-200.000	-0.080	-0.468
-556.456	800.000	0.028	-0.095
-555.442	-48.731	0.158	-0.075
-554.427	800.000	0.054	-0.149
-553.412	-200.000	0.056	-0.331
-552.398	-64.028	-0.432	-0.175
-551.383	-200.000	-0.032	-0.160
-550.369	87.766	-0.072	-0.078
-549.354	-111.686	0.277	-0.056
-548.339	31.828	0.106	0.090
-547.325	522.285	-0.063	-0.147
-546.310	-200.000	0.046	0.328
-545.296	-77.865	0.161	-0.055
-544.281	-87.141	-0.375	0.113
-543.266	-113.309	0.490	0.095
-542.252	-200.000	0.039	0.265
-541.237	-98.163	-0.248	-0.063
-540.223	-200.000	0.027	-0.133
-539.208	-200.000	0.017	0.157
-538.193	133.614	-0.064	-0.082
-537.179	192.782	0.163	0.243
-536.164	17.288	0.203	0.159
-535.150	187.714	0.034	0.050
-534.135	564.027	-0.106	0.254
-533.121	-77.381	0.228	0.078
-532.106	-62.511	-0.147	-0.061
-531.091	-148.450	-0.118	-0.010
-530.077	-23.540	0.246	0.146
-529.062	-137.598	-0.348	0.039
-528.048	-200.000	-0.005	-0.380
-527.033	-33.550	0.198	-0.108
-526.018	-85.484	-0.301	-0.093
-525.004	-98.126	-0.140	0.036
-523.989	12.704	0.098	0.075
-522.975	345.717	0.050	-0.096
-521.960	-200.000	-0.054	-0.268
-520.945	-177.549	-0.256	-0.006
-519.931	108.610	0.188	0.222
-518.916	76.067	-0.124	-0.130
-517.902	800.000	-0.076	-0.234
-516.887	497.835	0.125	-0.284
-515.872	-81.437	-0.073	0.024
-514.858	-200.000	-0.016	-0.265
-513.843	800.000	0.035	0.146
-512.829	800.000	0.041	0.172
-511.814	-78.829	-0.129	-0.043
-510.799	800.000	-0.021	0.064
-509.785	77.874	0.117	-0.123
-508.770	-17.480	-0.155	-0.097
-507.756	117.976	-0.208	0.253
-506.741	-37.233	-0.322	-0.170
-505.726	-200.000	-0.004	0.308
-504.712	-200.000	0.028	0.149
-503.697	-200.000	-0.022	0.212
-502.683	1.781	-0.112	0.080
-501.668	-2.134	-0.157	0.109
-500.653	-140.720	-0.190	-0.019
-499.639	105.212	0.098	-0.115
-498.624	-200.000	-0.027	0.152
-497.610	5.381	-0.370	-0.270
-496.595	-200.000	-0.012	0.235
-495.581	-134.029	-0.162	-0.020
-494.566	41.622	0.343	-0.307
-493.551	-123.034	-0.058	0.009
-492.537	37.386	-0.295	0.258
-491.522	-200.000	-0.008	0.228
-490.508	-153.429	-0.369	-0.025
-489.493	30.910	0.186	0.158
-488.478	-29.489	-0.093	-0.053
-487.464	-117.076	-0.321	-0.058
-486.449	-95.640	-0.240	0.064
-485.435	461.599	-0.108	-0.238
-484.420	497.878	-0.105	-0.238
-483.405	-200.000	-0.001	-0.014
-482.391	-200.000	-0.002	0.218
-481.376	-90.204	0.178	-0.051
-480.362	-46.923	0.057	-0.028
-479.347	-11.529	-0.392	-0.255
-478.332	-100.849	0.418	-0.101
-477.318	666.602	0.106	-0.271
-476.303	202.894	-0.100	0.152
-475.289	-117.586	0.123	-0.022
-474.274	751.384	-0.099	-0.264
-473.259	-85.766	-0.130	0.040
-472.245	-124.254	0.301	-0.047
-471.230	294.516	0.169	0.305
-470.216	-200.000	-0.025	0.140
-469.201	800.000	0.101	-0.349
-468.186	-199.205	-0.298	-0.002
-467.172	493.858	0.050	-0.114
-466.157	141.022	-0.210	-0.274
-465.143	-200.000	0.028	-0.202
-464.128	-134.996	-0.194	0.023
-463.113	67.446	0.065	-0.066
-462.099	-16.425	-0.225	-0.141
-461.084	601.120	-0.133	-0.325
-460.070	800.000	0.057	-0.192
-459.055	-33.852	0.240	-0.131
-458.040	-5.551	-0.108	-0.073
-457.026	23.857	0.242	-0.196
-456.011	-123.805	0.451	-0.070
-454.997	24.314	-0.324	0.264
-453.982	5.020	-0.124	0.090
-452.968	437.778	0.082	-0.176
-451.953	310.197	0.102	0.188
-450.938	800.000	0.104	-0.352
-449.924	-200.000	0.003	-0.167
-448.909	-60.375	0.240	0.101
-447.895	-200.000	0.048	0.299
-446.880	92.835	-0.159	-0.177
-445.865	227.731	0.209	0.335
-444.851	-200.000	-0.054	0.259
-443.836	-200.000	-0.092	-0.448
-442.822	800.000	0.020	-0.072
-441.807	-106.139	-0.345	0.076
-440.792	-66.349	0.133	0.052
-439.778	-200.000	-0.034	0.227
-438.763	800.000	0.126	-0.352
-437.749	-22.945	-0.278	0.165
-436.734	-130.161	0.164	-0.022
-435.719	-97.921	-0.021	0.005
-434.705	-177.311	0.412	0.010
-433.690	51.727	-0.184	0.172
-432.676	379.132	0.077	0.156
-431.661	-200.000	-0.028	0.204
-430.646	-200.000	0.013	0.109
-429.632	-72.937	0.157	-0.057
-428.617	-11.490	-0.474	-0.307
-427.603	173.872	0.153	0.218
-426.588	-194.888	-0.279	-0.002
-425.573	-109.786	-0.298	-0.062
-424.559	800.000	0.050	0.152
-423.544	-79.780	-0.231	-0.077
-422.530	-200.000	0.022	-0.108
-421.515	121.210	-0.160	0.196
-420.500	57.275	0.175	-0.168
-419.486	-200.000	0.004	0.198
-418.471	114.405	0.247	0.296
-417.457	-200.000	0.006	-0.183
-416.442	13.462	-0.088	0.067
-415.428	296.812	-0.132	0.239
-414.413	800.000	0.112	0.306
-413.398	-71.259	0.352	-0.130
-412.384	178.418	-0.150	-0.215
-411.369	106.147	-0.251	0.292
-410.355	-193.930	0.283	0.002
-409.340	262.027	0.141	0.240
-408.325	-77.713	-0.383	-0.131
-407.311	231.948	0.124	0.201
-406.296	-102.455	0.177	0.042
-405.282	29.579	-0.030	0.025
-404.267	-154.863	-0.266	0.017
-403.252	-200.000	0.003	0.212
-402.238	-79.850	-0.200	0.066
-401.223	-16.685	0.217	0.135
-400.209	-200.000	-0.019	-0.170
-399.194	-48.744	-0.163	-0.077
-398.179	-105.053	0.209	0.047
-397.165	-29.313	0.114	0.064
-396.150	-89.154	-0.151	-0.044
-395.136	-34.786	-0.093	-0.050
-394.121	800.000	0.090	-0.262
-393.106	203.554	-0.077	-0.117
-392.092	-200.000	0.018	0.086
-391.077	-200.000	-0.029	-0.129
-390.063	405.513	0.075	-0.156
-389.048	-108.409	0.278	0.059
-388.033	18.799	-0.197	-0.155
-387.019	-200.000	-0.008	0.094
-386.004	261.997	-0.291	-0.497
-384.990	220.460	0.154	0.243
-383.975	-108.900	-0.420	-0.088
-382.960	-146.730	0.125	-0.011
-381.946	-93.296	0.285	0.078
-380.931	-91.659	-0.291	-0.082
-379.917	-200.000	-0.054	0.322
-378.902	-54.552	0.232	0.103
-377.888	108.057	0.098	0.115
-376.873	239.717	-0.096	0.156
-375.858	8.006	0.320	-0.236
-374.844	294.640	0.150	0.270
-373.829	-12.013	0.268	-0.173
-372.815	-200.000	0.081	0.480
-371.800	-126.797	-0.052	-0.008
-370.785	195.801	0.122	0.183
-369.771	-200.000	-0.041	0.216
-368.756	-200.000	0.011	-0.552
-367.742	-116.249	0.281	0.051
-366.727	-83.018	-0.407	-0.129
-365.712	-142.831	0.246	0.024
-364.698	-19.247	-0.023	0.014
-363.683	800.000	0.068	0.245
-362.669	711.826	0.049	-0.128
-361.654	-200.000	0.034	0.192
-360.639	-200.000	-0.001	0.351
-359.625	143.008	-0.225	0.294
-358.610	800.000	-0.114	-0.328
-357.596	62.713	0.109	-0.107
-356.581	-78.211	0.069	-0.023
-355.566	508.864	0.093	0.213
-354.552	-37.521	-0.073	0.038
-353.537	346.047	-0.075	-0.145
-352.523	165.574	0.044	-0.061
-351.508	0.397	-0.418	-0.293
-350.493	-150.204	0.317	-0.024
-349.479	286.299	-0.146	0.259
-348.464	-64.957	-0.200	-0.079
-347.450	144.703	0.226	0.297
-346.435	-200.000	-0.006	0.215
-345.420	90.873	0.327	0.360
-344.406	-22.176	-0.309	0.184
-343.391	-8.535	0.108	0.071
-342.377	111.039	-0.405	0.478
-341.362	800.000	-0.028	-0.113
-340.348	180.623	-0.076	-0.109
-339.333	11.542	-0.331	0.249
-338.318	-109.824	-0.325	-0.067
-337.304	80.705	-0.162	-0.172
-336.289	800.000	-0.036	0.103
-335.275	-53.880	0.245	-0.109
-334.260	117.513	0.148	0.179
-333.245	-200.000	0.002	-0.318
-332.231	-110.102	0.149	-0.031
-331.216	31.103	-0.199	0.167
-330.202	-100.307	0.135	-0.033
-329.187	-68.495	-0.146	-0.056
-328.172	146.474	0.103	-0.136
-327.158	107.136	0.106	0.123
-326.143	-142.713	0.269	-0.026
-325.129	-200.000	-0.015	-0.149
-324.114	-200.000	-0.002	-0.068
-323.099	-44.878	-0.183	0.089
-322.085	800.000	0.116	-0.318
-321.070	120.931	-0.152	0.186
-320.056	-149.891	0.298	0.023
-319.041	-200.000	-0.069	0.327
-318.026	-119.957	0.231	0.039
-317.012	292.029	0.152	0.271
-315.997	-84.117	-0.093	-0.029
-314.983	422.126	0.091	0.191
-313.968	-200.000	-0.046	0.453
-312.953	-81.492	0.154	-0.050
-311.939	-71.502	0.328	-0.120
-310.924	23.802	0.061	-0.049
-309.910	-200.000	-0.031	-0.196
-308.895	126.983	0.174	0.216
-307.880	41.064	0.131	0.116
-306.866	800.000	0.066	-0.181
-305.851	7.356	-0.130	0.095
-304.837	86.816	-0.239	-0.259
-303.822	-44.854	0.222	0.109
-302.807	-143.724	0.174	0.016
-301.793	-200.000	0.050	-0.239
-300.778	15.697	-0.069	-0.053
-299.764	185.363	0.196	0.285
-298.749	-129.167	0.088	-0.012
-297.735	485.810	0.016	-0.035
-296.720	368.263	-0.098	0.195
-295.705	-106.857	0.429	-0.093
-294.691	179.344	-0.103	-0.147
-293.676	-136.116	0.237	0.027
-292.662	287.044	0.043	0.075
-291.647	800.000	-0.109	-0.313
-290.632	-82.372	0.138	0.044
-289.618	-143.215	0.210	0.020
-288.603	-165.999	-0.297	0.012
-287.589	-20.677	0.276	-0.166
-286.574	-200.000	0.011	0.237
-285.559	-200.000	0.012	0.139
-284.545	-73.846	-0.147	-0.052
-283.530	192.503	-0.130	0.192
-282.516	-200.000	0.006	0.216
-281.501	-200.000	0.009	0.346
-280.486	68.147	-0.169	0.170
-279.472	149.701	-0.118	-0.157
-278.457	610.655	0.107	0.263
-277.443	-73.256	-0.411	-0.147
-276.428	-200.000	0.016	0.141
-275.413	-200.000	-0.034	0.224
-274.399	-200.000	0.065	0.339
-273.384	41.943	0.050	0.044
-272.370	8.161	-0.143	0.105
-271.355	800.000	-0.147	0.487
-270.340	-44.983	0.151	-0.074
-269.326	800.000	-0.014	-0.056
-268.311	30.524	0.269	0.225
-267.297	800.000	0.091	0.289
-266.282	-200.000	0.029	-0.244
-265.267	-39.285	0.265	-0.136
-264.253	800.000	-0.047	-0.155
-263.238	324.320	0.122	0.229
-262.224	620.876	-0.070	0.171
-261.209	92.372	-0.029	0.032
-260.195	24.338	-0.101	0.082
-259.180	-42.688	0.174	0.087
-258.165	-200.000	0.003	-0.169
-257.151	89.768	0.134	-0.147
-256.136	-6.501	0.261	0.174
-255.122	34.672	0.084	-0.072
-254.107	-200.000	-0.022	0.192
-253.092	373.169	-0.122	0.243
-252.078	-93.589	-0.269	-0.073
-251.063	-200.000	0.040	0.266
-250.049	-152.941	-0.082	-0.006
-249.034	-144.712	0.397	-0.036
-248.019	159.421	-0.106	0.145
-247.005	-200.000	-0.029	0.141
-245.990	554.918	-0.156	-0.368
-244.976	-79.887	0.310	0.102
-243.961	-62.168	-0.204	-0.083
-242.946	56.783	0.082	-0.078
-241.932	122.206	-0.204	0.249
-240.917	-79.008	0.167	0.055
-239.903	-77.953	0.098	-0.033
-238.888	-200.000	-0.063	-0.306
-237.873	-200.000	-0.035	-0.329
-236.859	-94.023	-0.170	0.046
-235.844	-126.286	0.360	-0.053
-234.830	706.549	-0.022	-0.057
-233.815	-173.480	-0.178	-0.005
-232.800	-104.842	0.148	0.033
-231.786	-113.187	-0.108	0.021
-230.771	-38.375	-0.404	0.209
-229.757	-4.264	0.255	0.172
-228.742	32.384	0.123	0.104
-227.727	-2.910	0.205	0.140
-226.713	-86.903	0.046	0.014
-225.698	-200.000	0.000	-0.152
-224.684	207.277	0.123	0.188
-223.669	800.000	-0.070	-0.207
-222.655	5.049	0.058	-0.042
-221.640	-200.000	0.004	0.262
-220.625	-200.000	-0.022	0.214
-219.611	27.302	0.039	0.032
-218.596	-45.969	-0.087	0.042
-217.582	-61.367	0.173	0.071
-216.567	125.798	0.161	-0.199
-215.552	-100.833	-0.270	-0.065
-214.538	800.000	-0.055	0.204
-213.523	800.000	-0.118	-0.422
-212.509	-4.904	0.032	-0.021
-211.494	800.000	0.084	-0.252
-210.479	299.067	-0.133	0.240
-209.465	642.673	0.145	0.362
-208.450	64.154	0.269	-0.264
-207.436	189.483	0.053	0.077
-206.421	5.887	-0.131	-0.095
-205.406	-154.893	-0.074	-0.005
-204.392	79.735	-0.077	0.081
-203.377	163.027	0.168	-0.230
-202.363	-189.176	0.095	0.001
-201.348	-79.756	0.122	0.040
-200.333	800.000	-0.016	0.058
-199.319	-25.884	0.099	0.057
-198.304	-12.298	-0.227	0.145
-197.290	357.957	0.132	0.258
-196.275	800.000	0.023	-0.092
-195.260	800.000	0.165	0.463
-194.246	431.352	0.103	-0.219
-193.231	483.281	-0.094	0.209
-192.217	-200.000	0.065	-0.365
-191.202	158.049	0.042	-0.057
-190.187	374.086	-0.063	-0.124
-189.173	-94.441	0.228	0.061
-188.158	800.000	-0.106	0.317
-187.144	-200.000	-0.007	-0.260
-186.129	-27.862	0.097	0.055
-185.114	-197.842	0.285	-0.002
-184.100	-70.979	-0.215	-0.079
-183.085	329.725	0.129	-0.243
-182.071	-27.799	-0.094	0.053
-181.056	800.000	0.079	-0.234
-180.042	781.096	-0.176	-0.470
-179.027	150.747	-0.083	-0.110
-178.012	-34.002	-0.261	-0.140
-176.998	-82.400	0.040	0.013
-175.983	-113.524	-0.033	-0.006
-174.969	150.260	-0.117	0.155
-173.954	358.505	0.203	-0.395
-172.939	800.000	0.115	0.379
-171.925	284.797	0.149	-0.262
-170.910	800.000	0.006	-0.019
-169.896	-107.686	-0.254	-0.054
-168.881	800.000	-0.054	-0.193
-167.866	-200.000	-0.011	-0.136
-166.852	-102.893	0.100	0.023
-165.837	-35.752	0.132	-0.070
-164.823	-34.875	-0.133	-0.071
-163.808	292.535	0.227	-0.403
-162.793	-200.000	-0.029	-0.162
-161.779	-171.630	-0.191	0.006
-160.764	-98.806	-0.304	-0.075
-159.750	164.035	-0.220	-0.302
-158.735	-159.168	-0.093	-0.005
-157.720	-106.321	-0.217	-0.047
-156.706	-26.577	0.113	0.065
-155.691	-14.890	-0.155	0.097
-154.677	-200.000	-0.022	0.150
-153.662	49.379	-0.024	0.022
-152.647	56.372	0.154	-0.146
-151.633	389.686	-0.099	0.200
-150.618	374.741	0.088	0.175
-149.604	-88.732	-0.273	-0.079
-148.589	250.018	0.085	0.140
-147.574	-28.757	0.188	0.105
-146.560	106.767	0.067	0.077
-145.545	362.627	-0.140	-0.274
-144.531	-200.000	-0.078	0.414
-143.516	-52.222	0.170	0.077
-142.502	800.000	-0.089	-0.248
-141.487	-200.000	-0.068	0.342
-140.472	-200.000	0.006	0.064
-139.458	20.390	-0.176	-0.138
-138.443	-125.349	-0.045	0.007
-137.429	-200.000	0.008	-0.456
-136.414	-200.000	-0.019	-0.268
-135.399	-182.907	-0.260	-0.005
-134.385	-19.990	-0.175	-0.105
-133.370	-62.345	-0.239	0.097
-132.356	49.990	-0.355	0.327
-131.341	-200.000	0.014	0.155
-130.326	-200.000	-0.002	0.126
-129.312	-98.533	-0.140	0.035
-128.297	74.055	0.164	-0.168
-127.283	-64.002	-0.108	0.043
-126.268	-25.926	-0.331	-0.189
-125.253	-143.422	0.136	0.013
-124.239	-75.328	0.307	0.106
-123.224	-69.591	0.415	0.155
-122.210	216.544	0.183	-0.283
-121.195	-108.423	-0.189	0.040
-120.180	171.006	0.111	0.155
-119.166	123.025	0.164	-0.200
-118.151	-56.824	0.071	-0.030
-117.137	74.466	-0.152	-0.155
-116.122	8.638	0.211	-0.155
-115.107	-173.571	0.059	-0.002
-114.093	753.026	-0.062	-0.162
-113.078	-144.976	-0.151	0.013
-112.064	-200.000	0.083	0.411
-111.049	101.464	0.108	0.123
-110.034	322.388	0.232	0.429
-109.020	166.432	-0.153	-0.211
-108.005	7.571	-0.279	-0.203
-106.991	161.985	-0.178	0.243
-105.976	-200.000	0.043	-0.194
-104.962	394.651	-0.084	-0.169
-103.947	-35.325	0.185	-0.098
-102.932	-200.000	-0.019	-0.350
-101.918	-200.000	0.015	0.199
-100.903	-166.912	0.102	0.004
-99.889	-63.652	-0.208	0.083
-98.874	188.149	0.098	0.142
-97.859	800.000	-0.029	0.079
-96.845	-116.219	0.416	-0.075
-95.830	-200.000	-0.018	-0.360
-94.816	109.685	-0.032	-0.037
-93.801	-139.871	0.294	0.030
-92.786	-148.738	0.296	-0.023
-91.772	-81.566	0.130	0.041
-90.757	249.050	-0.121	0.200
-89.743	-7.961	-0.114	0.075
-88.728	37.801	-0.047	-0.041
-87.713	800.000	-0.088	0.270
-86.699	-200.000	-0.019	-0.235
-85.684	-200.000	-0.040	-0.196
-84.670	-200.000	0.050	0.282
-83.655	575.676	-0.130	0.310
-82.640	-200.000	0.058	-0.275
-81.626	-74.269	0.242	0.085
-80.611	309.822	0.108	-0.197
-79.597	48.327	0.210	-0.191
-78.582	-116.393	0.173	-0.031
-77.567	58.726	-0.016	0.016
-76.553	-135.877	0.358	0.041
-75.538	352.508	-0.071	0.138
-74.524	-6.106	-0.230	0.153
-73.509	422.615	-0.237	0.494
-72.494	35.436	0.150	0.128
-71.480	59.581	0.168	0.161
-70.465	-200.000	0.008	-0.046
-69.451	-55.937	0.256	0.111
-68.436	-186.261	-0.196	-0.003
-67.422	-78.844	0.371	-0.123
-66.407	-112.712	-0.300	0.058
-65.392	6.603	-0.321	-0.232
-64.378	514.321	-0.101	0.229
-63.363	-56.036	-0.276	-0.119
-62.349	244.650	0.121	0.197
-61.334	91.947	-1.074	-1.174
-60.319	165.870	0.670	0.921
-59.305	-200.000	-0.339	-1.580
-58.290	171.735	0.986	1.374
-57.276	573.619	0.652	1.544
-56.261	-200.000	135.888	669.898
-55.246	340.091	1675.234	3172.486
-54.232	134.379	2812.083	3539.536
-53.217	81.277	2314.847	2427.694
-52.203	29.235	1912.224	1575.960
-51.188	23.536	1707.714	1363.689
-50.173	21.711	1669.903	1319.711
-49.159	43.292	1743.022	1544.958
-48.144	40.332	1751.622	1529.704
-47.130	23.167	1703.027	1356.902
-46.115	20.819	1687.716	1326.786
-45.100	20.556	1682.775	1320.849
-44.086	20.512	1680.135	1318.392
-43.071	20.510	1678.116	1316.737
-42.057	20.504	1675.623	1314.686
-41.042	20.602	1673.260	1313.518
-40.027	20.465	1671.839	1311.318
-39.013	20.638	1669.706	1310.893
-37.998	20.501	1668.037	1308.506
-36.984	20.578	1667.072	1308.273
-35.969	20.695	1665.296	1307.706
-34.954	20.693	1664.025	1306.641
-33.940	20.641	1662.369	1304.898
-32.925	20.586	1660.915	1303.294
-31.911	20.551	1659.185	1301.620
-30.896	20.661	1657.166	1300.812
-29.881	20.682	1655.608	1299.689
-28.867	20.615	1654.322	1298.131
-27.852	20.677	1652.979	1297.490
-26.838	20.577	1651.372	1295.429
-25.823	20.636	1650.312	1294.990
-24.809	20.658	1648.620	1293.775
-23.794	20.725	1647.249	1293.143
-22.779	20.714	1645.636	1291.739
-21.765	20.627	1644.806	1290.392
-20.750	20.673	1642.361	1288.765
-19.736	20.717	1641.261	1288.178
-18.721	20.760	1639.951	1287.415
-17.706	20.629	1638.838	1285.525
-16.692	20.664	1637.205	1284.445
-15.677	20.707	1635.692	1283.531
-14.663	20.703	1634.239	1282.310
-13.648	20.727	1633.000	1281.461
-12.633	20.728	1631.039	1279.880
-11.619	20.642	1629.616	1278.082
-10.604	20.693	1628.153	1277.254
-9.590	20.680	1626.909	1276.137
-8.575	20.627	1626.293	1275.215
-7.560	20.686	1624.816	1274.432
-6.546	20.699	1623.527	1273.468
-5.531	20.748	1622.099	1272.660
-4.517	20.664	1621.077	1271.188
-3.502	20.718	1620.318	1270.935
-2.487	20.756	1618.125	1269.448
-1.473	20.228	1606.249	1256.257
-0.458	17.187	1586.251	1218.781
0.556	12.489	1588.516	1186.822
1.571	10.298	1611.755	1188.020
2.586	10.159	1623.448	1195.500
3.600	9.447	1568.269	1149.683
4.615	5.462	1463.476	1046.155
5.629	1.397	1407.982	980.209
6.644	0.700	1401.190	970.916
7.659	0.608	1400.596	969.826
8.673	0.639	1399.463	969.156
9.688	0.543	1396.939	966.706
10.702	0.519	1393.375	964.004
11.717	2.451	1395.605	977.812
12.731	8.337	1404.337	1021.589
13.746	14.552	1413.868	1068.347
14.761	17.038	1417.091	1086.627
15.775	16.668	1415.215	1082.723
16.790	15.757	1412.503	1074.736
17.804	14.837	1410.562	1067.294
18.819	14.498	1409.081	1063.913
19.834	14.284	1407.985	1061.628
20.848	14.175	1406.418	1059.657
21.863	13.883	1405.066	1056.692
22.877	13.624	1403.976	1054.129
23.892	13.586	1403.211	1053.219
24.907	13.584	1402.383	1052.495
25.921	13.523	1401.585	1051.416
26.936	13.714	1400.581	1051.781
27.950	13.639	1399.828	1050.647
28.965	13.642	1399.104	1050.030
29.980	13.727	1397.755	1049.458
30.994	13.781	1396.820	1049.007
32.009	13.882	1395.255	1048.377
33.023	13.756	1394.993	1047.293
34.038	13.764	1393.170	1045.881
35.053	13.691	1392.373	1044.727
36.067	13.757	1390.905	1043.947
37.082	13.753	1390.153	1043.269
38.096	13.764	1389.331	1042.629
39.111	13.805	1388.380	1042.083
40.126	13.644	1387.817	1040.553
41.140	13.587	1387.181	1039.627
42.155	13.592	1386.581	1039.115
43.169	13.657	1385.956	1038.966
44.184	13.552	1386.054	1038.287
45.199	13.652	1385.353	1038.297
46.213	13.650	1384.790	1037.774
47.228	13.668	1383.974	1037.181
48.242	13.726	1382.601	1036.420
49.257	13.677	1380.966	1034.798
50.271	13.749	1379.474	1034.039
51.286	13.642	1378.227	1032.347
52.301	13.761	1377.267	1032.279
53.315	13.684	1375.803	1030.608
54.330	13.637	1374.971	1029.604
55.344	13.643	1373.553	1028.487
56.359	13.623	1372.738	1027.660
57.374	13.652	1371.855	1027.088
58.388	13.606	1371.045	1026.108
59.403	13.627	1370.109	1025.447
60.417	13.548	1370.127	1024.879
61.432	13.556	1368.641	1023.728
62.447	13.621	1367.580	1023.245
63.461	13.508	1366.258	1021.466
64.476	13.479	1365.376	1020.537
65.490	13.522	1363.854	1019.578
66.505	13.543	1362.510	1018.611
67.520	13.526	1361.387	1017.578
68.534	13.557	1359.765	1016.463
69.549	13.498	1359.407	1015.744
70.563	13.510	1358.001	1014.677
71.578	13.471	1356.929	1013.549
72.593	13.514	1355.945	1012.988
73.607	13.447	1355.239	1011.960
74.622	13.419	1354.448	1011.110
75.636	13.502	1353.933	1011.141
76.651	13.474	1352.832	1010.057
77.666	13.444	1352.367	1009.439
78.680	13.419	1352.448	1009.257
79.695	13.506	1350.926	1008.560
80.709	13.565	1350.126	1008.235
81.724	13.521	1349.336	1007.288
82.739	13.704	1348.195	1007.461
83.753	13.585	1347.549	1006.164
84.768	13.659	1346.134	1005.471
85.782	13.658	1345.092	1004.597
86.797	13.699	1343.681	1003.702
87.812	13.612	1342.001	1001.833
88.826	13.706	1340.774	1001.394
89.841	13.618	1340.042	1000.227
90.855	13.721	1339.060	1000.029
91.870	13.716	1337.999	999.118
92.884	13.755	1337.231	998.686
93.899	13.710	1336.117	997.501
94.914	13.748	1335.654	997.294
95.928	13.675	1334.825	996.146
96.943	13.769	1333.836	995.884
97.957	13.790	1332.560	994.968
98.972	13.736	1331.628	993.864
99.987	13.760	1330.428	993.020
101.001	13.764	1329.455	992.230
102.016	13.700	1328.652	991.162
103.030	13.721	1327.557	990.383
104.045	13.821	1326.232	989.907
105.060	13.683	1325.289	988.288
106.074	13.581	1324.295	986.853
107.089	13.597	1323.198	986.043
108.103	13.561	1321.914	984.785
109.118	13.592	1320.275	983.662
110.133	13.619	1318.667	982.537
111.147	13.611	1317.383	981.447
112.162	13.632	1316.140	980.555
113.176	13.611	1315.214	979.659
114.191	13.678	1314.120	979.154
115.206	13.667	1312.904	978.094
116.220	13.674	1311.330	976.876
117.235	13.771	1310.278	976.575
118.249	13.740	1309.338	975.610
119.264	13.595	1308.153	973.787
120.279	13.628	1307.430	973.355
121.293	13.708	1306.303	972.898
122.308	13.604	1305.415	971.541
123.322	13.651	1304.259	970.870
124.337	13.630	1303.208	969.881
125.352	13.519	1302.217	968.408
126.366	13.575	1300.741	967.552
127.381	13.581	1299.887	966.867
128.395	13.652	1298.229	965.958
129.410	13.640	1297.207	965.046
130.424	13.674	1296.692	964.773
131.439	13.645	1295.576	963.688
132.454	13.682	1294.446	962.977
133.468	13.670	1294.055	962.533
134.483	13.762	1292.740	962.002
135.497	13.793	1291.316	961.036
136.512	13.705	1290.651	959.950
137.527	13.682	1289.250	958.691
138.541	13.797	1287.155	957.712
139.556	13.740	1286.376	956.718
140.570	13.778	1285.360	956.097
141.585	13.790	1284.136	955.170
142.600	13.864	1282.637	954.399
143.614	13.904	1282.389	954.359
144.629	13.850	1281.079	952.990
145.643	13.894	1279.754	952.172
146.658	13.833	1278.758	950.998
147.673	13.895	1277.173	950.084
148.687	13.836	1276.116	948.878
149.702	13.768	1274.907	947.510
150.716	13.777	1273.775	946.633
151.731	13.861	1272.035	945.738
152.746	13.864	1270.957	944.869
153.760	13.859	1270.003	944.049
154.775	13.954	1268.451	943.350
155.789	14.031	1267.367	942.894
156.804	13.901	1266.499	941.431
157.819	13.960	1265.383	940.850
158.833	13.961	1264.585	940.180
159.848	14.126	1263.539	940.254
160.862	13.985	1262.453	938.564
161.877	13.904	1261.657	937.434
162.892	13.964	1260.016	936.471
163.906	13.937	1259.500	935.852
164.921	13.940	1258.553	935.079
165.935	13.991	1257.725	934.671
166.950	14.044	1256.601	934.052
167.964	14.076	1256.091	933.765
168.979	14.055	1255.383	933.041
169.994	13.936	1254.801	931.860
171.008	14.014	1253.665	931.368
172.023	14.092	1253.087	931.292
173.037	14.191	1252.208	931.110
174.052	14.249	1250.792	930.302
175.067	14.174	1249.709	928.994
176.081	14.065	1248.857	927.674
177.096	14.004	1248.183	926.748
178.110	14.018	1247.137	925.966
179.125	14.056	1245.729	925.051
180.140	14.141	1244.491	924.524
181.154	14.132	1243.269	923.483
182.169	14.143	1241.907	922.452
183.183	14.180	1241.267	922.101
184.198	14.212	1239.705	921.035
185.213	14.248	1238.510	920.266
186.227	14.209	1237.511	919.223
187.242	14.220	1236.845	918.709
188.256	14.339	1235.621	918.374
189.271	14.324	1234.865	917.647
190.286	14.246	1233.408	916.056
191.300	14.234	1232.302	915.087
192.315	14.205	1231.821	914.489
193.329	14.227	1231.006	913.923
194.344	14.247	1230.559	913.621
195.359	14.231	1230.164	913.160
196.373	14.387	1229.350	913.330
197.388	14.352	1228.780	912.633
198.402	14.466	1228.304	912.826
199.417	14.520	1227.525	912.461
200.432	14.516	1226.342	911.476
201.446	14.438	1226.120	910.808
202.461	14.554	1225.125	910.619
203.475	14.523	1224.080	909.595
204.490	14.593	1222.509	908.729
205.504	14.647	1221.373	908.096
206.519	14.506	1220.576	906.655
207.534	14.495	1219.204	905.497
208.548	14.474	1218.254	904.598
209.563	14.695	1217.065	904.832
210.577	14.640	1216.065	903.710
211.592	14.600	1215.926	903.309
212.607	14.648	1215.016	902.813
213.621	14.590	1214.095	901.739
214.636	14.654	1213.090	901.260
215.650	14.675	1212.241	900.660
216.665	14.683	1211.210	899.855
217.680	14.737	1210.063	899.217
218.694	14.770	1209.300	898.746
219.709	14.712	1208.816	897.994
220.723	14.739	1207.642	897.189
221.738	14.758	1206.948	896.699
222.753	14.665	1206.812	896.019
223.767	14.807	1205.840	895.980
224.782	14.810	1204.929	895.238
225.796	14.964	1203.982	895.281
226.811	14.938	1203.387	894.620
227.826	14.865	1203.027	893.881
228.840	14.818	1202.187	892.929
229.855	14.883	1201.364	892.586
230.869	14.863	1200.666	891.879
231.884	14.823	1199.649	890.830
232.899	14.764	1198.669	889.709
233.913	14.862	1198.201	889.806
234.928	14.940	1197.388	889.539
235.942	14.884	1196.942	888.833
236.957	14.816	1196.009	887.699
237.972	14.813	1194.967	886.833
238.986	14.995	1194.016	887.011
240.001	14.756	1193.823	885.522
241.015	14.771	1192.779	884.750
242.030	14.861	1191.983	884.559
243.045	14.981	1191.149	884.496
244.059	14.988	1190.337	883.850
245.074	14.987	1189.633	883.244
246.088	14.986	1189.026	882.711
247.103	15.072	1187.724	882.117
248.117	15.166	1187.372	882.276
249.132	15.045	1187.026	881.304
250.147	15.180	1185.910	881.107
251.161	15.246	1184.965	880.673
252.176	15.283	1184.547	880.479
253.190	15.301	1183.739	879.891
254.205	15.397	1183.179	879.901
255.220	15.328	1182.478	878.942
256.234	15.380	1181.928	878.728
257.249	15.432	1181.063	878.277
258.263	15.317	1180.756	877.373
259.278	15.454	1180.100	877.522
260.293	15.377	1179.851	876.856
261.307	15.491	1178.756	876.563
262.322	15.469	1178.183	875.941
263.336	15.515	1177.581	875.658
264.351	15.554	1177.109	875.435
265.366	15.507	1176.413	874.592
266.380	15.502	1175.713	873.967
267.395	15.485	1174.568	872.950
268.409	15.552	1173.476	872.408
269.424	15.434	1173.390	871.657
270.439	15.590	1172.864	872.001
271.453	15.511	1171.755	870.688
272.468	15.515	1171.125	870.164
273.482	15.444	1170.377	869.160
274.497	15.553	1169.702	869.147
275.512	15.492	1168.951	868.198
276.526	15.583	1168.059	867.928
277.541	15.714	1167.174	867.869
278.555	15.633	1166.849	867.136
279.570	15.587	1165.930	866.136
280.585	15.749	1165.003	866.205
281.599	15.682	1164.066	865.087
282.614	15.752	1163.283	864.788
283.628	15.723	1161.727	863.410
284.643	15.770	1160.798	862.881
285.657	15.653	1160.262	861.809
286.672	15.731	1159.189	861.334
287.687	15.748	1158.080	860.521
288.701	15.895	1157.438	860.717
289.716	15.787	1157.029	859.788
290.730	15.856	1155.986	859.288
291.745	15.861	1155.525	858.894
292.760	15.743	1154.929	857.775
293.774	15.871	1154.190	857.800
294.789	16.019	1153.570	858.018
295.803	16.037	1152.837	857.487
296.818	15.937	1151.948	856.243
297.833	15.927	1151.128	855.509
298.847	15.970	1150.378	855.094
299.862	16.029	1149.313	854.523
300.876	16.078	1148.739	854.269
301.891	16.052	1148.514	853.895
302.906	16.003	1147.583	852.881
303.920	16.068	1146.970	852.678
304.935	16.154	1146.314	852.549
305.949	16.247	1145.353	852.228
306.964	16.277	1144.910	851.976
307.979	16.153	1144.600	851.043
308.993	16.223	1143.271	850.333
310.008	16.103	1143.059	849.497
311.022	16.270	1141.655	849.215
312.037	16.269	1141.027	848.668
313.052	16.250	1140.039	847.765
314.066	16.162	1139.482	846.835
315.081	16.279	1138.498	846.613
316.095	16.158	1137.652	845.304
317.110	16.234	1136.738	844.932
318.125	16.188	1136.315	844.311
319.139	16.255	1134.921	843.536
320.154	16.159	1135.221	843.202
321.168	16.284	1134.179	842.977
322.183	16.313	1133.500	842.546
323.197	16.250	1133.238	841.960
324.212	16.336	1132.059	841.437
325.227	16.339	1131.322	840.831
326.241	16.250	1131.007	840.079
327.256	16.221	1130.281	839.324
328.270	16.266	1129.562	838.936
329.285	16.386	1128.151	838.413
330.300	16.377	1127.100	837.509
331.314	16.360	1126.237	836.711
332.329	16.221	1125.604	835.477
333.343	16.369	1124.746	835.503
334.358	16.395	1123.986	834.990
335.373	16.350	1123.555	834.372
336.387	16.408	1122.404	833.730
337.402	16.590	1121.698	834.030
338.416	16.574	1120.861	833.258
339.431	16.611	1120.078	832.783
340.446	16.643	1119.726	832.604
341.460	16.554	1119.123	831.647
342.475	16.625	1118.121	831.176
343.489	16.610	1117.465	830.539
344.504	16.664	1116.100	829.715
345.519	16.697	1115.167	829.113
346.533	16.727	1114.779	828.899
347.548	16.843	1113.672	828.568
348.562	16.728	1113.187	827.570
349.577	16.734	1112.349	826.905
350.592	16.756	1111.371	826.210
351.606	16.689	1110.612	825.249
352.621	16.697	1110.251	824.945
353.635	16.701	1109.781	824.542
354.650	16.709	1108.730	823.729
355.665	16.799	1107.771	823.380
356.679	16.794	1107.265	822.907
357.694	16.692	1107.005	822.147
358.708	16.856	1106.025	822.142
359.723	16.793	1105.809	821.600
360.738	16.846	1104.930	821.131
361.752	16.966	1104.244	821.133
362.767	16.852	1103.764	820.149
363.781	16.896	1103.314	819.953
364.796	16.968	1102.459	819.593
365.810	16.973	1101.759	819.025
366.825	17.010	1101.545	818.972
367.840	16.998	1101.026	818.457
368.854	17.125	1100.111	818.318
369.869	17.148	1098.944	817.487
370.883	17.085	1098.428	816.730
371.898	17.107	1097.781	816.281
372.913	17.127	1097.250	815.909
373.927	17.128	1096.805	815.512
374.942	17.221	1095.941	815.242
375.956	17.058	1095.588	814.129
376.971	17.194	1094.928	814.218
377.986	17.291	1094.246	814.103
379.000	17.347	1093.529	813.763
380.015	17.338	1092.775	813.088
381.029	17.378	1092.216	812.790
382.044	17.331	1091.532	811.984
383.059	17.403	1091.118	811.948
384.073	17.348	1090.550	811.193
385.088	17.393	1089.326	810.425
386.102	17.440	1087.932	809.538
387.117	17.228	1087.561	808.185
388.132	17.304	1086.624	807.776
389.146	17.301	1085.697	807.002
390.161	17.339	1084.986	806.582
391.175	17.416	1084.052	806.182
392.190	17.416	1083.466	805.675
393.205	17.426	1082.967	805.278
394.219	17.489	1082.305	805.014
395.234	17.600	1081.399	804.794
396.248	17.516	1080.126	803.379
397.263	17.491	1078.908	802.283
398.278	17.439	1078.954	802.000
399.292	17.470	1078.049	801.403
400.307	17.438	1077.351	800.661
401.321	17.358	1076.934	799.904
402.336	17.418	1076.423	799.738
403.350	17.444	1075.250	798.918
404.365	17.538	1074.865	799.004
405.380	17.495	1074.038	798.114
406.394	17.592	1073.295	797.949
407.409	17.720	1071.824	797.384
408.423	17.628	1071.495	796.633
409.438	17.769	1070.906	796.785
410.453	17.690	1070.203	795.822
411.467	17.671	1069.536	795.169
412.482	17.810	1068.779	795.185
413.496	17.690	1068.425	794.291
414.511	17.612	1067.882	793.454
415.526	17.781	1067.216	793.673
416.540	17.794	1066.888	793.423
417.555	17.898	1066.049	793.211
418.569	17.856	1065.709	792.690
419.584	17.930	1064.947	792.400
420.599	17.918	1064.494	791.935
421.613	109.998	1333.058	1493.799
422.628	101.676	1372.121	1493.861
