DTS Sentinel unit serial number:	SN413079Multiplexer serial number:	ORYXHardware model number:	OX4-SRSoftware version number:	ORYX F/W v4.00 Oryx Data Collector v3.7.2.0data status	okinstallation	princeton_trtdifferential loss correction	single-endedforward channel	channel 2reverse channel	N/Adate	2019/09/11time	05:01:11forward acquisition time	60.00reverse acquisition time	0.00gamma	496.2192k internal	0.2330k external	0.2330temperature offset calibration	0.9938default loss term (dB/km)	0.3790temperature slope calibration	1.0000multiplexer offset coefficient	1.0000multiplexer slope coefficient	1.0000fibre end	0.00T internal ref (°C)	29.50T ext. ref 1 (°C)	-0.27T ext. ref 2 (°C)	23.25length (m)	temperature (°C)	Stokes	anti-Stokes-747.200	-200.000	0.005	0.094
-746.185	160.448	0.134	0.188
-745.171	-200.000	0.008	-0.052
-744.156	373.559	-0.121	0.248
-743.142	59.801	0.045	-0.045
-742.127	-115.831	0.236	-0.044
-741.112	800.000	0.020	0.061
-740.098	327.838	0.060	0.115
-739.083	111.577	-0.105	-0.128
-738.069	-68.267	0.143	0.056
-737.054	-39.288	0.154	-0.081
-736.039	56.981	-0.166	-0.163
-735.025	689.926	0.148	0.389
-734.010	-1.931	0.089	-0.063
-732.996	-151.355	-0.241	-0.018
-731.981	219.591	0.230	0.370
-730.966	-200.000	-0.001	0.037
-729.952	279.726	-0.118	-0.213
-728.937	215.919	-0.061	-0.097
-727.923	800.000	-0.030	0.104
-726.908	-9.664	-0.228	-0.153
-725.894	-22.644	-0.156	0.095
-724.879	-200.000	0.016	-0.315
-723.864	47.585	0.255	-0.240
-722.850	-77.720	0.297	-0.103
-721.835	800.000	0.015	0.067
-720.821	-81.343	0.072	0.024
-719.806	-27.259	0.158	-0.093
-718.791	390.888	0.080	0.168
-717.777	-158.893	0.237	0.014
-716.762	-153.464	-0.176	-0.012
-715.748	8.706	-0.291	0.221
-714.733	-97.655	-0.052	0.014
-713.718	-95.679	0.069	-0.018
-712.704	800.000	0.027	0.095
-711.689	-95.162	0.266	-0.072
-710.675	-26.855	0.093	0.054
-709.660	514.199	-0.096	0.226
-708.645	-85.027	-0.247	0.078
-707.631	-146.008	-0.226	0.020
-706.616	206.427	-0.098	0.153
-705.602	85.345	-0.307	-0.339
-704.587	55.941	0.131	-0.128
-703.572	778.153	0.158	-0.435
-702.558	-95.794	-0.197	0.053
-701.543	-3.294	-0.114	0.080
-700.529	-99.615	0.277	-0.070
-699.514	-200.000	-0.018	0.293
-698.499	-28.316	0.209	0.121
-697.485	-147.039	-0.168	-0.014
-696.470	67.589	-0.083	0.085
-695.456	20.849	-0.099	-0.081
-694.441	800.000	-0.022	-0.076
-693.426	800.000	0.085	-0.241
-692.412	299.158	-0.117	-0.217
-691.397	-39.642	-0.219	-0.115
-690.383	9.171	0.189	-0.144
-689.368	-96.141	0.099	0.026
-688.354	-13.692	0.383	-0.249
-687.339	646.021	0.105	-0.270
-686.324	-162.974	-0.216	-0.011
-685.310	-48.422	0.402	-0.194
-684.295	609.236	-0.051	0.128
-683.281	-2.715	-0.333	-0.234
-682.266	136.501	-0.227	-0.297
-681.251	800.000	-0.038	0.155
-680.237	-157.133	-0.073	-0.004
-679.222	165.177	-0.132	-0.187
-678.208	-15.361	-0.312	0.200
-677.193	22.857	-0.211	-0.174
-676.178	44.630	-0.215	-0.199
-675.164	-132.559	-0.088	0.011
-674.149	71.834	-0.193	-0.202
-673.135	93.072	0.204	0.232
-672.120	-200.000	0.007	-0.097
-671.105	-200.000	0.018	-0.096
-670.091	276.801	-0.089	-0.158
-669.076	-200.000	0.009	0.103
-668.062	-200.000	-0.205	-0.000
-667.047	-200.000	0.013	-0.178
-666.032	-200.000	0.033	-0.208
-665.018	290.255	-0.134	0.244
-664.003	-200.000	-0.016	-0.102
-662.989	99.872	-0.074	-0.086
-661.974	149.590	-0.025	0.034
-660.959	660.247	0.105	0.272
-659.945	-159.967	-0.273	0.015
-658.930	-81.885	-0.018	0.006
-657.916	48.592	-0.150	0.141
-656.901	-200.000	-0.009	0.251
-655.886	198.617	0.062	0.095
-654.872	800.000	0.060	-0.256
-653.857	-200.000	0.019	-0.101
-652.843	-148.613	-0.178	-0.015
-651.828	-76.876	-0.099	0.035
-650.814	-108.593	0.161	0.035
-649.799	33.987	0.345	-0.302
-648.784	-52.001	-0.187	0.087
-647.770	-116.084	0.215	0.040
-646.755	187.871	-0.217	0.325
-645.741	-155.180	-0.235	-0.015
-644.726	164.388	-0.063	-0.089
-643.711	800.000	0.068	-0.271
-642.697	88.491	-0.130	-0.144
-641.682	-105.088	-0.061	-0.014
-640.668	-28.739	0.073	0.042
-639.653	418.309	-0.175	-0.376
-638.638	-144.373	0.076	0.007
-637.624	-84.685	0.153	0.048
-636.609	-200.000	-0.076	-0.338
-635.595	-29.218	-0.182	-0.105
-634.580	-200.000	-0.041	-0.339
-633.565	139.653	-0.029	-0.038
-632.551	-71.317	-0.255	-0.096
-631.536	290.832	-0.092	-0.167
-630.522	152.154	0.125	-0.171
-629.507	185.049	0.124	-0.185
-628.492	800.000	0.109	-0.412
-627.478	255.412	0.047	-0.080
-626.463	-174.216	-0.532	0.016
-625.449	78.013	0.070	0.074
-624.434	800.000	0.046	-0.133
-623.419	-200.000	0.019	-0.100
-622.405	397.209	-0.112	0.235
-621.390	43.257	0.295	-0.270
-620.376	-133.055	-0.304	0.039
-619.361	93.911	-0.327	-0.372
-618.346	150.528	0.038	-0.052
-617.332	394.647	0.142	0.297
-616.317	-83.716	0.123	0.039
-615.303	-200.000	0.053	0.260
-614.288	-15.528	-0.398	0.254
-613.273	156.463	-0.142	0.196
-612.259	-200.000	-0.043	0.244
-611.244	-156.043	-0.397	-0.025
-610.230	-200.000	-0.014	0.321
-609.215	184.999	-0.126	-0.188
-608.201	320.693	0.070	-0.132
-607.186	-90.885	0.110	-0.032
-606.171	-200.000	-0.033	0.269
-605.157	313.286	-0.141	0.266
-604.142	-94.317	0.286	0.078
-603.128	284.802	-0.134	-0.241
-602.113	-150.206	-0.039	-0.003
-601.098	6.270	-0.218	0.162
-600.084	-136.536	-0.118	0.014
-599.069	800.000	-0.063	0.238
-598.055	-200.000	-0.029	0.150
-597.040	-76.454	0.167	-0.059
-596.025	255.284	-0.193	-0.331
-595.011	-167.143	0.149	-0.006
-593.996	-35.733	-0.155	0.084
-592.982	-200.000	-0.013	-0.141
-591.967	800.000	0.113	-0.323
-590.952	800.000	0.073	-0.245
-589.938	-200.000	0.039	-0.341
-588.923	-101.940	0.350	0.085
-587.909	-44.467	-0.227	-0.114
-586.894	-97.596	-0.162	0.042
-585.879	-87.416	-0.390	0.118
-584.865	30.688	0.216	0.185
-583.850	-200.000	0.062	0.297
-582.836	800.000	-0.077	0.290
-581.821	19.320	-0.237	-0.191
-580.806	-157.936	0.120	-0.007
-579.792	127.918	0.053	0.068
-578.777	800.000	-0.025	0.084
-577.763	800.000	0.040	-0.149
-576.748	-123.681	-0.368	0.058
-575.733	190.684	-0.110	0.165
-574.719	-200.000	0.089	0.404
-573.704	-200.000	0.006	0.063
-572.690	-200.000	0.065	0.341
-571.675	-140.783	-0.064	-0.007
-570.661	-44.060	-0.079	-0.040
-569.646	498.728	-0.077	-0.177
-568.631	-17.768	0.268	-0.168
-567.617	800.000	0.047	0.143
-566.602	-54.110	0.227	0.103
-565.588	-200.000	-0.030	0.191
-564.573	206.865	0.065	0.101
-563.558	116.874	0.336	0.412
-562.544	-80.483	0.243	0.081
-561.529	342.576	-0.153	0.299
-560.515	65.007	0.138	-0.140
-559.500	-139.127	-0.068	-0.007
-558.485	-50.293	-0.176	0.083
-557.471	313.765	-0.130	-0.244
-556.456	-104.306	-0.028	0.007
-555.442	-200.000	0.049	0.236
-554.427	-46.321	-0.192	-0.094
-553.412	114.887	0.101	0.123
-552.398	800.000	0.085	-0.261
-551.383	-84.234	0.261	0.083
-550.369	56.004	-0.237	-0.230
-549.354	-0.020	-0.164	0.117
-548.339	-200.000	0.044	-0.352
-547.325	205.173	-0.204	0.316
-546.310	108.182	0.210	-0.250
-545.296	-88.032	-0.322	0.096
-544.281	15.725	-0.196	0.154
-543.266	-126.014	-0.175	-0.026
-542.252	-38.367	0.184	0.097
-541.237	49.026	0.156	0.146
-540.223	306.383	-0.083	0.154
-539.208	-172.891	0.227	0.007
-538.193	-92.543	0.173	0.049
-537.179	-54.169	-0.204	-0.093
-536.164	220.800	0.086	-0.138
-535.150	800.000	-0.102	-0.355
-534.135	-53.128	-0.100	-0.046
-533.121	-44.105	0.179	-0.090
-532.106	85.419	0.022	-0.024
-531.091	346.000	-0.111	0.218
-530.077	-200.000	0.022	-0.116
-529.062	-24.618	0.103	-0.061
-528.048	-20.855	-0.110	0.067
-527.033	-69.504	-0.215	0.082
-526.018	-51.296	0.038	-0.018
-525.004	-200.000	-0.035	0.214
-523.989	63.336	-0.087	-0.087
-522.975	-200.000	0.050	0.246
-521.960	520.758	-0.036	-0.085
-520.945	565.297	0.040	0.097
-519.931	460.300	-0.060	0.134
-518.916	-200.000	-0.013	0.068
-517.902	-29.615	0.239	-0.136
-516.887	409.402	-0.122	-0.257
-515.872	186.168	0.208	-0.309
-514.858	800.000	0.031	0.092
-513.843	227.873	0.109	-0.177
-512.829	25.968	0.159	0.132
-511.814	-134.432	-0.268	-0.033
-510.799	45.463	-0.310	-0.286
-509.785	-200.000	-0.008	-0.134
-508.770	696.288	-0.102	-0.268
-507.756	-200.000	-0.058	-0.309
-506.741	105.485	-0.030	0.035
-505.726	8.960	-0.062	-0.047
-504.712	-123.276	0.443	0.071
-503.697	-73.387	0.150	0.055
-502.683	183.286	-0.075	0.110
-501.668	-154.191	-0.156	0.011
-500.653	351.051	-0.054	-0.107
-499.639	-30.343	0.204	-0.116
-498.624	-200.000	0.008	-0.069
-497.610	28.737	-0.102	0.086
-496.595	15.904	-0.317	-0.249
-495.581	-200.000	-0.001	-0.036
-494.566	-72.623	0.125	0.046
-493.551	263.146	0.117	0.203
-492.537	611.336	0.080	-0.200
-491.522	800.000	-0.013	0.053
-490.508	800.000	-0.117	-0.346
-489.493	436.574	-0.038	-0.082
-488.478	-107.523	-0.282	-0.062
-487.464	-63.042	-0.164	-0.068
-486.449	67.727	0.127	0.130
-485.435	-200.000	0.002	-0.050
-484.420	800.000	0.066	-0.211
-483.405	-146.690	-0.112	0.010
-482.391	800.000	0.035	0.136
-481.376	348.827	0.175	0.343
-480.362	-172.441	-0.166	-0.005
-479.347	-133.687	0.351	0.044
-478.332	11.446	0.265	0.203
-477.318	-168.312	0.320	-0.012
-476.303	675.028	-0.154	-0.399
-475.289	-200.000	-0.019	0.113
-474.274	-200.000	-0.054	0.290
-473.259	-51.975	-0.238	-0.110
-472.245	-200.000	-0.026	0.168
-471.230	-200.000	-0.033	0.153
-470.216	-200.000	-0.003	0.034
-469.201	-12.780	-0.349	0.227
-468.186	800.000	-0.098	-0.381
-467.172	800.000	0.032	-0.101
-466.157	46.174	0.121	-0.112
-465.143	397.283	-0.174	-0.363
-464.128	-121.323	0.374	-0.062
-463.113	-200.000	-0.009	0.199
-462.099	29.572	0.159	0.135
-461.084	141.392	0.087	0.114
-460.070	-65.532	0.120	-0.048
-459.055	364.030	-0.088	0.177
-458.040	-129.532	0.128	0.018
-457.026	291.881	-0.076	-0.137
-456.011	-112.808	-0.090	-0.018
-454.997	360.676	-0.141	-0.282
-453.982	-85.467	-0.268	-0.083
-452.968	31.145	-0.300	-0.256
-451.953	-119.338	-0.324	0.056
-450.938	210.895	0.130	-0.203
-449.924	-120.769	0.596	-0.100
-448.909	-200.000	-0.037	-0.224
-447.895	172.657	-0.116	-0.166
-446.880	-200.000	-0.051	0.287
-445.865	26.022	0.295	0.245
-444.851	163.852	-0.078	-0.109
-443.836	-2.575	0.165	-0.115
-442.822	269.519	-0.185	0.324
-441.807	-195.314	0.331	0.002
-440.792	-5.567	0.296	0.202
-439.778	-95.963	-0.180	0.048
-438.763	-27.144	0.224	0.130
-437.749	299.113	0.137	0.251
-436.734	68.544	-0.107	-0.109
-435.719	-84.892	0.194	-0.061
-434.705	-40.518	-0.275	0.142
-433.690	78.836	0.223	0.238
-432.676	800.000	-0.035	0.130
-431.661	20.414	-0.117	0.094
-430.646	22.142	0.203	-0.164
-429.632	-67.151	0.116	-0.046
-428.617	105.611	0.177	-0.208
-427.603	-125.619	-0.640	-0.097
-426.588	-18.090	0.090	0.056
-425.573	-164.528	0.418	-0.019
-424.559	86.463	0.176	-0.193
-423.544	237.128	0.182	0.299
-422.530	-74.344	0.267	-0.096
-421.515	-41.197	0.271	-0.139
-420.500	579.260	-0.058	0.140
-419.486	61.484	0.254	-0.251
-418.471	51.004	0.110	0.104
-417.457	-71.232	-0.291	0.109
-416.442	104.579	0.322	0.377
-415.428	28.003	-0.116	-0.097
-414.413	397.389	-0.090	-0.187
-413.398	800.000	-0.035	-0.136
-412.384	-78.898	-0.203	-0.069
-411.369	800.000	0.139	0.587
-410.355	-104.807	-0.275	0.063
-409.340	800.000	0.060	-0.188
-408.325	204.644	-0.165	-0.254
-407.311	-148.537	-0.056	0.005
-406.296	5.164	-0.104	-0.076
-405.282	5.715	-0.092	-0.067
-404.267	-200.000	0.056	0.347
-403.252	-128.565	-0.134	-0.019
-402.238	-200.000	0.011	0.317
-401.223	106.823	0.022	0.025
-400.209	78.724	0.109	-0.116
-399.194	653.819	0.069	-0.177
-398.179	86.337	-0.202	0.221
-397.165	92.534	0.263	-0.295
-396.150	-32.431	0.442	-0.245
-395.136	678.868	-0.043	-0.112
-394.121	374.713	-0.136	-0.274
-393.106	29.211	0.257	0.217
-392.092	-46.319	-0.028	-0.014
-391.077	-108.443	-0.161	-0.034
-390.063	-151.670	-0.486	-0.036
-389.048	-139.219	0.075	-0.008
-388.033	-200.000	-0.015	-0.188
-387.019	-122.229	-0.123	0.020
-386.004	-2.994	0.264	0.183
-384.990	77.414	-0.047	-0.050
-383.975	-200.000	0.088	0.383
-382.960	-63.882	0.030	-0.012
-381.946	64.060	-0.241	0.240
-380.931	-157.405	-0.252	-0.015
-379.917	24.826	0.139	0.115
-378.902	217.445	0.050	-0.079
-377.888	-69.813	-0.276	0.105
-376.873	73.816	0.372	-0.387
-375.858	800.000	-0.124	-0.391
-374.844	-200.000	-0.002	-0.121
-373.829	62.229	-0.360	-0.356
-372.815	17.105	-0.182	-0.143
-371.800	-93.377	0.121	-0.033
-370.785	43.090	-0.118	0.106
-369.771	-60.726	0.438	0.184
-368.756	-200.000	-0.044	-0.383
-367.742	145.962	-0.051	0.069
-366.727	-137.009	0.118	0.013
-365.712	138.881	0.196	-0.255
-364.698	-92.686	-0.140	0.039
-363.683	-124.145	-0.180	-0.028
-362.669	-174.010	0.409	-0.012
-361.654	87.747	-0.094	0.103
-360.639	-26.324	-0.037	-0.022
-359.625	163.335	0.253	-0.353
-358.610	-49.955	-0.338	0.159
-357.596	521.383	0.096	0.224
-356.581	800.000	0.078	-0.248
-355.566	-200.000	0.019	-0.257
-354.552	-200.000	-0.044	0.600
-353.537	29.714	0.097	-0.082
-352.523	800.000	-0.014	-0.050
-351.508	800.000	0.065	0.181
-350.493	36.297	0.074	0.065
-349.479	-37.371	-0.137	-0.072
-348.464	-168.644	-0.553	-0.021
-347.450	-109.229	-0.021	0.004
-346.435	800.000	0.032	-0.088
-345.420	-200.000	0.005	-0.058
-344.406	-66.644	-0.147	0.058
-343.391	-149.801	-0.101	-0.008
-342.377	-88.363	0.137	-0.041
-341.362	-45.627	0.171	-0.084
-340.348	89.697	-0.107	-0.119
-339.333	653.542	0.023	-0.059
-338.318	-122.202	-0.205	-0.033
-337.304	-92.414	-0.167	-0.047
-336.289	483.442	0.055	-0.124
-335.275	-136.411	0.477	0.055
-334.260	-18.375	-0.052	-0.032
-333.245	-200.000	-0.019	-0.096
-332.231	-127.332	0.245	-0.035
-331.216	-200.000	-0.008	0.101
-330.202	10.552	-0.376	0.284
-329.187	8.932	0.146	0.109
-328.172	-200.000	-0.026	-0.128
-327.158	73.552	0.164	0.170
-326.143	255.198	-0.115	-0.196
-325.129	419.913	0.124	-0.263
-324.114	-83.410	0.135	-0.043
-323.099	244.345	0.087	0.145
-322.085	3.693	-0.328	-0.237
-321.070	137.102	-0.116	0.150
-320.056	800.000	-0.116	0.344
-319.041	-106.570	-0.259	-0.057
-318.026	3.953	0.144	0.104
-317.012	-24.267	-0.131	0.078
-315.997	38.137	0.174	-0.153
-314.983	-29.058	0.157	0.089
-313.968	9.812	-0.148	0.111
-312.953	-101.910	-0.172	0.041
-311.939	-21.605	0.180	0.108
-310.924	800.000	-0.067	-0.278
-309.910	8.228	0.071	0.053
-308.895	475.059	-0.121	-0.272
-307.880	58.957	-0.196	0.190
-306.866	-2.620	-0.246	-0.170
-305.851	-150.296	0.281	0.021
-304.837	-31.231	-0.278	-0.155
-303.822	-62.544	0.464	-0.191
-302.807	800.000	-0.032	0.115
-301.793	-56.018	-0.127	0.056
-300.778	-107.924	-0.208	0.045
-299.764	-158.168	0.293	-0.017
-298.749	-71.280	-0.301	-0.112
-297.735	-173.291	0.061	-0.002
-296.720	-21.104	-0.218	-0.132
-295.705	800.000	0.087	0.266
-294.691	282.240	0.090	0.159
-293.676	171.365	-0.144	-0.204
-292.662	239.668	0.092	0.152
-291.647	-131.277	-0.105	0.014
-290.632	13.880	0.345	-0.266
-289.618	-164.675	-0.161	-0.007
-288.603	-46.186	0.138	0.067
-287.589	122.222	-0.034	0.042
-286.574	26.537	0.197	-0.163
-285.559	-200.000	0.040	0.179
-284.545	-200.000	-0.003	-0.067
-283.530	-146.802	-0.248	0.021
-282.516	-178.026	-0.056	-0.001
-281.501	800.000	-0.076	-0.251
-280.486	-98.334	-0.171	-0.043
-279.472	800.000	-0.091	0.327
-278.457	-141.283	0.394	-0.040
-277.443	-78.294	-0.180	0.061
-276.428	800.000	-0.072	-0.239
-275.413	292.583	-0.064	-0.116
-274.399	32.895	0.271	0.232
-273.384	-200.000	-0.004	0.103
-272.370	800.000	-0.089	-0.250
-271.355	-62.891	-0.248	0.101
-270.340	-25.635	0.158	0.092
-269.326	-200.000	-0.032	-0.315
-268.311	-200.000	0.066	0.357
-267.297	-175.767	0.338	-0.009
-266.282	-129.581	0.169	0.023
-265.267	25.305	0.322	0.264
-264.253	85.135	-0.192	0.208
-263.238	-200.000	-0.012	0.054
-262.224	123.495	-0.227	0.281
-261.209	-161.951	0.361	0.018
-260.195	-50.586	-0.274	-0.128
-259.180	-200.000	0.018	-0.260
-258.165	-91.650	0.154	0.043
-257.151	98.978	-0.114	-0.130
-256.136	-26.223	-0.197	-0.114
-255.122	-80.456	-0.129	0.043
-254.107	25.327	0.203	0.167
-253.092	131.674	0.162	-0.205
-252.078	-84.832	-0.297	-0.092
-251.063	522.158	-0.045	0.104
-250.049	800.000	-0.056	-0.225
-249.034	225.575	0.072	0.116
-248.019	-13.313	-0.152	-0.097
-247.005	-200.000	0.009	-0.185
-245.990	-200.000	0.015	-0.133
-244.976	-200.000	-0.038	0.351
-243.961	-43.368	0.088	-0.044
-242.946	-65.240	0.172	0.068
-241.932	549.554	-0.053	-0.125
-240.917	175.890	-0.014	0.020
-239.903	800.000	-0.053	0.214
-238.888	94.213	0.209	-0.234
-237.873	-200.000	-0.028	0.289
-236.859	-145.494	0.232	0.021
-235.844	51.449	0.140	-0.132
-234.830	10.731	0.165	0.124
-233.815	-98.972	0.071	-0.018
-232.800	109.582	-0.264	0.312
-231.786	-120.749	-0.160	-0.027
-230.771	282.523	-0.046	0.082
-229.757	800.000	-0.121	0.514
-228.742	-68.944	0.101	-0.038
-227.727	-35.931	0.325	0.174
-226.713	-89.315	0.121	-0.035
-225.698	-200.000	0.007	0.238
-224.684	235.918	-0.098	-0.160
-223.669	-83.967	-0.228	0.071
-222.655	363.317	0.071	0.140
-221.640	106.987	-0.046	0.054
-220.625	319.433	0.167	0.313
-219.611	-200.000	-0.086	0.480
-218.596	381.898	-0.047	-0.095
-217.582	-77.920	-0.251	-0.086
-216.567	-125.627	0.260	-0.039
-215.552	-97.971	0.109	-0.028
-214.538	-22.783	-0.182	-0.108
-213.523	-200.000	0.024	0.165
-212.509	-200.000	-0.029	-0.235
-211.494	800.000	-0.066	0.186
-210.479	92.024	0.135	0.149
-209.465	33.022	0.152	-0.130
-208.450	409.835	0.099	-0.206
-207.436	-47.752	0.160	0.077
-206.421	117.483	0.118	-0.143
-205.406	-200.000	-0.012	-0.074
-204.392	-200.000	0.057	0.256
-203.377	800.000	0.040	0.168
-202.363	-100.125	0.290	-0.071
-201.348	-94.324	-0.343	-0.093
-200.333	122.804	0.166	-0.204
-199.319	-93.122	-0.134	0.037
-198.304	16.603	-0.113	0.088
-197.290	-83.501	0.184	0.058
-196.275	-93.444	0.258	0.070
-195.260	6.103	0.147	-0.108
-194.246	-200.000	-0.022	-0.188
-193.231	-17.434	0.162	0.100
-192.217	-28.502	-0.070	-0.040
-191.202	-54.598	-0.139	-0.062
-190.187	762.988	-0.082	-0.218
-189.173	-41.138	0.073	0.037
-188.158	-27.631	0.101	-0.058
-187.144	-79.733	0.309	-0.102
-186.129	2.814	0.324	-0.232
-185.114	68.236	-0.290	-0.293
-184.100	262.896	0.103	0.176
-183.085	800.000	0.054	0.192
-182.071	-121.963	0.123	-0.020
-181.056	-37.850	0.499	0.261
-180.042	-200.000	-0.063	0.330
-179.027	746.977	-0.084	-0.222
-178.012	-166.235	0.187	-0.008
-176.998	-200.000	0.010	0.124
-175.983	-60.243	-0.342	0.144
-174.969	-63.744	0.169	0.068
-173.954	-200.000	-0.014	-0.225
-172.939	174.026	-0.107	0.152
-171.925	11.111	0.207	0.156
-170.910	-200.000	0.011	0.321
-169.896	-200.000	-0.033	-0.197
-168.881	-96.015	0.275	-0.072
-167.866	-162.401	-0.196	0.010
-166.852	106.890	-0.172	0.201
-165.837	45.284	0.135	0.123
-164.823	-146.319	-0.081	0.007
-163.808	-200.000	-0.014	0.461
-162.793	-49.948	0.049	-0.023
-161.779	-200.000	0.034	0.202
-160.764	800.000	0.001	-0.004
-159.750	-200.000	-0.010	-0.049
-158.735	-55.697	-0.262	0.115
-157.720	-5.829	0.033	0.022
-156.706	81.499	-0.314	0.334
-155.691	800.000	-0.064	-0.213
-154.677	-100.627	0.443	0.108
-153.662	245.901	0.166	-0.275
-152.647	122.439	-0.174	-0.214
-151.633	160.918	-0.158	0.218
-150.618	-181.283	0.281	-0.005
-149.604	104.997	-0.105	-0.122
-148.589	-112.383	0.421	0.083
-147.574	-200.000	0.018	-0.144
-146.560	582.423	0.062	0.149
-145.545	-40.711	-0.262	-0.133
-144.531	-77.340	-0.118	-0.040
-143.516	151.740	-0.157	0.211
-142.502	-200.000	0.017	0.213
-141.487	-65.416	-0.192	-0.076
-140.472	-145.049	0.394	0.035
-139.458	-65.159	0.094	0.037
-138.443	-200.000	-0.037	-0.223
-137.429	120.508	-0.070	-0.086
-136.414	25.565	0.121	0.099
-135.399	-15.726	-0.038	-0.024
-134.385	-25.507	-0.131	-0.076
-133.370	667.756	-0.076	0.194
-132.356	800.000	-0.079	0.226
-131.341	444.788	0.140	0.303
-130.326	149.170	0.261	-0.347
-129.312	47.055	0.156	0.143
-128.297	498.395	0.055	0.125
-127.283	-45.843	0.303	-0.147
-126.268	-70.910	0.120	0.044
-125.253	-191.638	-0.461	-0.005
-124.239	26.184	0.336	-0.276
-123.224	-44.474	0.166	-0.082
-122.210	-135.387	0.168	-0.020
-121.195	665.881	-0.108	-0.275
-120.180	-55.362	0.245	-0.108
-119.166	96.046	-0.191	0.214
-118.151	-114.502	-0.159	-0.030
-117.137	-121.521	0.292	-0.048
-116.122	-24.269	0.178	0.105
-115.107	432.932	0.031	-0.066
-114.093	59.493	0.258	-0.250
-113.078	-200.000	-0.043	0.222
-112.064	-50.816	0.058	-0.027
-111.049	-58.553	0.177	0.076
-110.034	74.091	-0.194	-0.200
-109.020	657.454	-0.042	-0.106
-108.005	800.000	-0.063	-0.252
-106.991	422.243	-0.042	-0.088
-105.976	-139.809	0.274	0.028
-104.962	-122.245	0.187	0.030
-103.947	-55.077	0.035	-0.015
-102.932	-149.531	-0.348	0.027
-101.918	-200.000	0.001	-0.194
-100.903	-114.721	-0.199	-0.037
-99.889	-23.410	-0.325	-0.191
-98.874	-200.000	-0.084	-0.391
-97.859	212.670	-0.056	-0.086
-96.845	800.000	0.066	0.249
-95.830	236.909	-0.167	0.271
-94.816	-112.289	0.389	0.077
-93.801	-5.917	-0.194	0.131
-92.786	-200.000	0.001	-0.366
-91.772	28.301	-0.209	0.174
-90.757	800.000	-0.086	0.357
-89.743	85.787	-0.065	0.070
-88.728	27.201	-0.369	0.304
-87.713	1.002	0.252	-0.177
-86.699	516.364	-0.106	0.243
-85.684	17.213	-0.176	0.137
-84.670	-200.000	-0.018	0.342
-83.655	-71.224	-0.221	0.081
-82.640	92.721	-0.138	0.153
-81.626	214.480	0.086	-0.134
-80.611	263.020	0.158	0.270
-79.597	-35.023	0.239	-0.128
-78.582	-136.424	0.253	-0.029
-77.567	-166.544	0.475	-0.019
-76.553	-200.000	0.053	-0.261
-75.538	-58.462	-0.327	-0.140
-74.524	66.870	-0.240	0.240
-73.509	-58.434	-0.111	-0.047
-72.494	293.370	0.248	-0.444
-71.480	-200.000	0.023	0.152
-70.465	36.987	-0.026	-0.022
-69.451	-191.633	0.169	0.002
-68.436	-200.000	-0.044	0.204
-67.422	-67.706	-0.046	0.018
-66.407	3.821	0.115	0.083
-65.392	-200.000	0.026	0.146
-64.378	800.000	-0.091	-0.258
-63.363	-3.549	0.111	-0.076
-62.349	800.000	-0.143	0.393
-61.334	47.693	-1.093	-1.000
-60.319	291.164	0.084	0.150
-59.305	-200.000	-0.157	-1.103
-58.290	15.091	0.736	0.565
-57.276	364.840	0.702	1.385
-56.261	-200.000	106.480	616.212
-55.246	508.484	1509.165	3435.375
-54.232	174.586	2711.015	3843.624
-53.217	104.784	2301.040	2658.395
-52.203	38.681	1905.855	1666.824
-51.188	32.639	1691.333	1433.369
-50.173	30.151	1647.833	1377.982
-49.159	49.082	1701.907	1566.724
-48.144	49.325	1717.495	1582.845
-47.130	32.303	1674.631	1416.458
-46.115	29.554	1660.206	1383.638
-45.100	29.450	1654.750	1378.259
-44.086	29.338	1652.647	1375.615
-43.071	29.342	1649.568	1373.025
-42.057	29.417	1647.058	1371.442
-41.042	29.379	1645.478	1369.786
-40.027	29.408	1643.219	1368.072
-39.013	29.360	1641.037	1365.845
-37.998	29.295	1640.091	1364.520
-36.984	29.475	1638.597	1364.557
-35.969	29.540	1637.086	1363.725
-34.954	29.521	1635.468	1362.180
-33.940	29.506	1633.281	1360.192
-32.925	29.462	1631.851	1358.623
-31.911	29.502	1629.820	1357.171
-30.896	29.408	1628.622	1355.431
-29.881	29.478	1626.721	1354.307
-28.867	29.474	1625.307	1353.047
-27.852	29.504	1623.407	1351.632
-26.838	29.545	1622.104	1350.796
-25.823	29.477	1621.287	1349.563
-24.809	29.553	1619.897	1348.905
-23.794	29.476	1617.970	1346.690
-22.779	29.537	1616.623	1345.961
-21.765	29.492	1615.045	1344.263
-20.750	29.475	1613.356	1342.684
-19.736	29.542	1611.996	1341.982
-18.721	29.533	1610.789	1340.856
-17.706	29.577	1609.215	1339.812
-16.692	29.458	1607.973	1337.866
-15.677	29.491	1607.068	1337.297
-14.663	29.607	1605.019	1336.379
-13.648	29.631	1603.697	1335.398
-12.633	29.510	1602.462	1333.447
-11.619	29.430	1600.692	1331.344
-10.604	29.540	1599.199	1330.836
-9.590	29.571	1597.667	1329.732
-8.575	29.515	1596.996	1328.720
-7.560	29.610	1595.376	1328.005
-6.546	29.594	1594.429	1327.046
-5.531	29.563	1593.385	1325.900
-4.517	29.524	1592.191	1324.580
-3.502	29.542	1591.467	1324.052
-2.487	29.699	1589.493	1323.480
-1.473	29.263	1577.835	1310.624
-0.458	26.545	1558.494	1275.384
0.556	20.713	1559.768	1244.706
1.571	18.483	1584.098	1247.792
2.586	18.217	1598.287	1256.906
3.600	16.553	1545.940	1203.795
4.615	8.812	1436.082	1066.785
5.629	1.298	1372.595	971.578
6.644	-0.149	1364.301	956.411
7.659	-0.294	1363.350	954.739
8.673	-0.292	1361.891	953.643
9.688	-0.335	1359.787	951.812
10.702	-0.516	1357.127	948.722
11.717	3.070	1363.841	976.122
12.731	12.322	1381.581	1048.009
13.746	19.671	1393.975	1104.467
14.761	21.716	1396.725	1119.627
15.775	22.079	1396.292	1121.496
16.790	22.134	1395.749	1121.312
17.804	22.279	1395.307	1121.786
18.819	22.497	1394.844	1122.701
19.834	22.535	1394.327	1122.430
20.848	22.460	1393.841	1121.464
21.863	22.499	1393.430	1121.281
22.877	22.576	1392.254	1120.721
23.892	22.615	1391.022	1119.879
24.907	22.597	1390.685	1119.395
25.921	22.566	1389.297	1117.981
26.936	22.645	1388.295	1117.580
27.950	22.543	1387.324	1116.053
28.965	22.569	1386.071	1115.111
29.980	22.515	1385.134	1113.916
30.994	22.596	1383.827	1113.280
32.009	22.591	1382.817	1112.337
33.023	22.532	1382.079	1111.272
34.038	22.622	1380.808	1110.718
35.053	22.614	1379.728	1109.702
36.067	22.625	1378.791	1108.920
37.082	22.501	1378.281	1107.629
38.096	22.558	1376.825	1106.717
39.111	22.537	1376.199	1105.986
40.126	22.524	1375.654	1105.371
41.140	22.504	1375.277	1104.845
42.155	22.581	1374.623	1104.705
43.169	22.557	1374.416	1104.288
44.184	22.558	1374.186	1104.011
45.199	22.590	1373.767	1103.780
46.213	22.634	1372.911	1103.270
47.228	22.552	1372.304	1102.167
48.242	22.591	1370.976	1101.250
49.257	22.588	1369.615	1100.041
50.271	22.581	1368.093	1098.678
51.286	22.542	1366.734	1097.243
52.301	22.596	1365.565	1096.547
53.315	22.464	1365.067	1095.228
54.330	22.525	1363.999	1094.655
55.344	22.580	1362.694	1093.848
56.359	22.538	1361.352	1092.416
57.374	22.659	1361.017	1092.801
58.388	22.596	1360.641	1092.010
59.403	22.483	1360.373	1091.002
60.417	22.565	1358.946	1090.267
61.432	22.511	1358.666	1089.611
62.447	22.561	1357.779	1089.111
63.461	22.477	1356.801	1087.714
64.476	22.576	1355.466	1087.158
65.490	22.581	1354.172	1086.051
66.505	22.554	1352.974	1084.832
67.520	22.670	1351.295	1084.103
68.534	22.550	1350.854	1082.915
69.549	22.601	1349.734	1082.231
70.563	22.591	1348.969	1081.464
71.578	22.585	1347.619	1080.250
72.593	22.629	1346.915	1079.858
73.607	22.551	1346.642	1079.066
74.622	22.677	1345.705	1078.992
75.636	22.627	1344.417	1077.554
76.651	22.622	1344.110	1077.184
77.666	22.630	1343.799	1076.886
78.680	22.546	1343.417	1075.974
79.695	22.575	1342.142	1075.033
80.709	22.570	1341.461	1074.363
81.724	22.655	1340.361	1073.905
82.739	22.550	1339.823	1072.738
83.753	22.563	1338.904	1071.991
84.768	22.592	1337.992	1071.341
85.782	22.611	1336.459	1070.132
86.797	22.722	1334.850	1069.424
87.812	22.537	1334.800	1068.170
88.826	22.595	1333.196	1067.141
89.841	22.566	1332.317	1066.166
90.855	22.577	1331.484	1065.471
91.870	22.674	1330.306	1065.023
92.884	22.585	1329.519	1063.761
93.899	22.641	1329.285	1063.815
94.914	22.684	1328.042	1062.985
95.928	22.689	1327.191	1062.242
96.943	22.552	1326.962	1061.139
97.957	22.688	1326.266	1061.305
98.972	22.644	1324.951	1059.894
99.987	22.700	1323.642	1059.091
101.001	22.583	1323.092	1057.855
102.016	22.586	1322.125	1057.006
103.030	22.630	1321.215	1056.450
104.045	22.702	1319.965	1055.790
105.060	22.655	1319.493	1055.033
106.074	22.688	1318.015	1053.960
107.089	22.741	1316.778	1053.193
108.103	22.658	1316.287	1052.209
109.118	22.598	1315.270	1050.945
110.133	22.735	1313.893	1050.569
111.147	22.726	1312.573	1049.369
112.162	22.847	1310.878	1048.638
113.176	22.751	1310.324	1047.535
114.191	22.740	1309.821	1046.974
115.206	22.679	1309.047	1045.897
116.220	22.691	1307.546	1044.679
117.235	22.686	1306.603	1043.802
118.249	22.721	1305.289	1042.868
119.264	22.560	1304.929	1041.534
120.279	22.751	1303.685	1041.581
121.293	22.774	1303.019	1041.093
122.308	22.839	1301.985	1040.553
123.322	22.718	1301.005	1038.966
124.337	22.793	1300.250	1038.714
125.352	22.805	1299.925	1038.430
126.366	22.778	1299.033	1037.471
127.381	22.885	1297.825	1037.044
128.395	22.796	1296.937	1035.719
129.410	22.711	1296.024	1034.397
130.424	22.827	1295.201	1034.327
131.439	22.878	1294.148	1033.695
132.454	22.818	1293.513	1032.745
133.468	22.791	1292.866	1031.980
134.483	22.721	1292.648	1031.307
135.497	22.839	1291.222	1030.763
136.512	22.725	1290.359	1029.317
137.527	22.771	1288.996	1028.408
138.541	22.726	1287.655	1026.990
139.556	22.849	1286.662	1026.819
140.570	22.686	1286.078	1025.315
141.585	22.691	1284.664	1024.126
142.600	22.831	1283.363	1023.808
143.614	22.758	1282.319	1022.463
144.629	22.576	1281.568	1020.722
145.643	22.668	1280.532	1020.336
146.658	22.677	1279.841	1019.747
147.673	22.704	1278.528	1018.768
148.687	22.703	1277.248	1017.654
149.702	22.707	1275.911	1016.520
150.716	22.755	1274.877	1015.881
151.731	22.746	1274.322	1015.301
152.746	22.626	1273.553	1013.909
153.760	22.730	1272.377	1013.477
154.775	22.682	1271.424	1012.355
155.789	22.778	1270.114	1011.770
156.804	22.815	1269.391	1011.318
157.819	22.739	1268.898	1010.400
158.833	22.789	1268.281	1010.106
159.848	22.816	1267.504	1009.555
160.862	22.857	1266.268	1008.714
161.877	22.888	1265.505	1008.193
162.892	22.844	1264.637	1007.160
163.906	22.758	1264.301	1006.312
164.921	22.828	1263.841	1006.258
165.935	22.883	1262.577	1005.476
166.950	22.894	1262.245	1005.188
167.964	22.863	1261.835	1004.592
168.979	22.917	1260.728	1003.932
169.994	22.894	1260.415	1003.460
171.008	22.846	1259.413	1002.300
172.023	22.968	1258.944	1002.530
173.037	22.959	1257.842	1001.514
174.052	22.981	1257.208	1001.044
175.067	22.867	1256.561	999.796
176.081	22.842	1255.885	999.027
177.096	22.834	1255.182	998.337
178.110	22.903	1254.120	997.795
179.125	22.885	1253.339	996.982
180.140	22.899	1252.253	996.108
181.154	22.984	1251.027	995.527
182.169	22.887	1250.164	994.205
183.183	22.988	1248.741	993.554
184.198	23.014	1247.549	992.663
185.213	23.070	1246.577	992.115
186.227	22.939	1245.883	990.742
187.242	22.963	1245.048	990.120
188.256	23.012	1244.131	989.580
189.271	22.988	1243.290	988.690
190.286	22.970	1242.650	987.990
191.300	22.987	1242.205	987.644
192.315	22.977	1241.626	987.043
193.329	22.973	1241.304	986.677
194.344	23.039	1240.937	986.666
195.359	23.014	1240.454	986.057
196.373	23.000	1239.659	985.258
197.388	23.004	1239.387	984.975
198.402	22.915	1238.884	983.993
199.417	22.940	1239.019	984.152
200.432	23.116	1237.488	983.827
201.446	22.978	1237.470	982.959
202.461	23.047	1236.356	982.369
203.475	23.039	1235.584	981.629
204.490	22.923	1235.119	980.528
205.504	23.063	1233.777	980.151
206.519	23.100	1232.806	979.501
207.534	23.149	1231.863	978.933
208.548	22.999	1230.962	977.300
209.563	23.055	1230.267	976.972
210.577	23.081	1229.439	976.371
211.592	23.071	1228.604	975.566
212.607	23.107	1227.634	974.910
213.621	23.252	1226.788	974.948
214.636	23.165	1225.936	973.709
215.650	23.119	1225.324	972.885
216.665	23.098	1224.320	971.881
217.680	23.112	1223.592	971.296
218.694	23.222	1222.765	971.156
219.709	23.192	1221.721	970.079
220.723	23.157	1221.403	969.550
221.738	23.074	1220.850	968.568
222.753	23.108	1219.876	967.897
223.767	23.159	1219.321	967.650
224.782	23.297	1218.872	967.960
225.796	23.142	1218.565	966.788
226.811	23.155	1217.755	966.128
227.826	23.176	1217.394	965.873
228.840	23.228	1216.244	965.158
229.855	23.187	1215.781	964.478
230.869	23.126	1214.960	963.413
231.884	23.187	1214.171	963.034
232.899	23.117	1213.943	962.387
233.913	23.197	1213.004	961.990
234.928	23.334	1212.532	962.276
235.942	23.303	1211.625	961.303
236.957	23.311	1211.076	960.823
237.972	23.265	1210.219	959.810
238.986	23.416	1209.703	960.133
240.001	23.297	1209.230	959.030
241.015	23.426	1207.703	958.434
242.030	23.352	1207.597	957.860
243.045	23.329	1206.815	957.034
244.059	23.339	1206.127	956.458
245.074	23.343	1205.496	955.894
246.088	23.314	1204.705	955.024
247.103	23.422	1203.693	954.721
248.117	23.350	1203.243	953.891
249.132	23.421	1202.053	953.243
250.147	23.466	1201.478	952.949
251.161	23.546	1200.192	952.273
252.176	23.388	1200.120	951.283
253.190	23.418	1199.624	950.966
254.205	23.518	1198.638	950.636
255.220	23.407	1198.320	949.703
256.234	23.467	1198.173	949.827
257.249	23.499	1197.012	948.991
258.263	23.557	1196.239	948.608
259.278	23.548	1195.928	948.227
260.293	23.460	1195.941	947.685
261.307	23.512	1195.102	947.211
262.322	23.507	1194.478	946.610
263.336	23.427	1193.976	945.698
264.351	23.520	1193.020	945.357
265.366	23.518	1192.872	945.145
266.380	23.563	1191.935	944.556
267.395	23.531	1191.268	943.774
268.409	23.507	1190.576	943.013
269.424	23.601	1189.499	942.580
270.439	23.538	1189.831	942.424
271.453	23.555	1189.156	941.892
272.468	23.593	1187.685	940.849
273.482	23.561	1186.972	940.030
274.497	23.657	1186.994	940.474
275.512	23.580	1186.222	939.372
276.526	23.525	1185.991	938.814
277.541	23.527	1184.986	937.945
278.555	23.591	1184.496	937.814
279.570	23.673	1183.234	937.165
280.585	23.664	1182.619	936.547
281.599	23.712	1181.491	935.821
282.614	23.669	1180.811	934.974
283.628	23.678	1179.983	934.282
284.643	23.767	1179.434	934.234
285.657	23.754	1178.305	933.186
286.672	23.711	1177.314	932.094
287.687	23.733	1176.333	931.353
288.701	23.742	1175.859	930.943
289.716	23.754	1175.164	930.372
290.730	23.764	1174.906	930.139
291.745	23.765	1174.300	929.582
292.760	23.851	1173.439	929.266
293.774	23.791	1173.136	928.629
294.789	23.787	1172.804	928.264
295.803	23.871	1171.399	927.508
296.818	23.769	1171.245	926.773
297.833	23.983	1170.620	927.312
298.847	23.878	1169.744	925.987
299.862	23.799	1169.241	925.096
300.876	23.846	1168.536	924.700
301.891	23.970	1167.695	924.598
302.906	23.937	1167.376	924.092
303.920	23.865	1166.506	922.951
304.935	23.946	1165.866	922.779
305.949	23.984	1165.080	922.277
306.964	23.966	1164.793	921.874
307.979	24.029	1163.772	921.309
308.993	23.975	1163.525	920.750
310.008	23.923	1162.798	919.827
311.022	23.970	1162.126	919.459
312.037	23.933	1161.242	918.484
313.052	23.859	1160.694	917.591
314.066	23.961	1159.529	917.111
315.081	23.990	1158.699	916.526
316.095	23.893	1158.596	915.864
317.110	24.001	1157.660	915.595
318.125	24.026	1157.069	915.178
319.139	24.017	1156.600	914.677
320.154	24.077	1155.718	914.210
321.168	24.040	1154.925	913.307
322.183	24.056	1154.550	913.016
323.197	24.012	1154.117	912.364
324.212	24.141	1153.158	912.189
325.227	24.054	1152.995	911.533
326.241	24.081	1152.485	911.188
327.256	24.114	1151.576	910.557
328.270	24.084	1151.093	909.941
329.285	24.094	1150.060	909.093
330.300	24.088	1148.972	908.125
331.314	24.120	1148.232	907.623
332.329	24.066	1147.790	906.915
333.343	24.205	1146.548	906.561
334.358	24.191	1146.099	906.055
335.373	24.295	1145.275	905.855
336.387	24.159	1145.175	905.000
337.402	24.217	1144.065	904.338
338.416	24.199	1143.422	903.658
339.431	24.330	1143.102	903.991
340.446	24.166	1142.527	902.627
341.460	24.294	1141.412	902.313
342.475	24.349	1140.660	901.918
343.489	24.303	1139.920	901.021
344.504	24.356	1138.887	900.390
345.519	24.385	1138.247	899.952
346.533	24.295	1137.443	898.780
347.548	24.355	1136.580	898.324
348.562	24.342	1135.879	897.623
349.577	24.328	1135.401	897.096
350.592	24.327	1134.491	896.294
351.606	24.334	1133.711	895.631
352.621	24.408	1133.218	895.537
353.635	24.393	1132.734	894.997
354.650	24.382	1131.958	894.251
355.665	24.340	1131.604	893.682
356.679	24.486	1130.806	893.703
357.694	24.462	1130.371	893.163
358.708	24.492	1129.506	892.548
359.723	24.497	1128.877	891.997
360.738	24.393	1128.124	890.804
361.752	24.406	1127.873	890.593
362.767	24.532	1127.163	890.582
363.781	24.400	1126.944	889.672
364.796	24.702	1125.776	890.173
365.810	24.641	1125.169	889.310
366.825	24.532	1124.844	888.433
367.840	24.730	1124.449	889.028
368.854	24.598	1123.580	887.608
369.869	24.687	1123.089	887.582
370.883	24.630	1122.133	886.462
371.898	24.636	1121.551	885.958
372.913	24.661	1120.814	885.417
373.927	24.688	1120.712	885.394
374.942	24.831	1119.892	885.378
375.956	24.732	1119.397	884.416
376.971	24.678	1118.833	883.623
377.986	24.654	1118.488	883.156
379.000	24.678	1118.067	882.862
380.015	24.800	1117.505	882.942
381.029	24.776	1116.728	882.132
382.044	24.697	1115.964	881.064
383.059	24.674	1115.632	880.611
384.073	24.763	1114.542	880.108
385.088	24.762	1113.829	879.465
386.102	24.795	1113.080	878.954
387.117	24.876	1111.870	878.321
388.132	24.716	1111.300	877.008
389.146	24.804	1110.594	876.804
390.161	24.859	1110.176	876.665
391.175	24.838	1109.192	875.712
392.190	24.815	1108.362	874.864
393.205	24.793	1108.302	874.632
394.219	24.847	1106.950	873.750
395.234	24.864	1106.692	873.553
396.248	24.828	1105.518	872.375
397.263	24.966	1104.808	872.406
398.278	25.075	1103.846	872.104
399.292	25.061	1103.626	871.782
400.307	24.936	1103.094	870.677
401.321	25.022	1102.133	870.258
402.336	24.916	1101.409	869.098
403.350	24.873	1101.001	868.489
404.365	24.981	1100.428	868.485
405.380	25.003	1099.783	868.004
406.394	24.972	1098.958	867.126
407.409	25.007	1097.908	866.392
408.423	25.210	1097.511	866.980
409.438	25.102	1096.909	865.908
410.453	25.092	1096.445	865.415
411.467	25.167	1095.127	864.661
412.482	25.204	1094.656	864.391
413.496	25.161	1093.752	863.392
414.511	25.152	1093.445	863.033
415.526	25.254	1093.074	863.153
416.540	25.187	1092.857	862.584
417.555	25.116	1092.390	861.795
418.569	25.136	1091.676	861.254
419.584	25.077	1091.653	860.875
420.599	25.242	1090.926	861.020
421.613	147.823	1403.193	1797.199
422.628	136.784	1448.656	1797.299
