DTS Sentinel unit serial number:	SN413079Multiplexer serial number:	ORYXHardware model number:	OX4-SRSoftware version number:	ORYX F/W v4.00 Oryx Data Collector v3.7.2.0data status	okinstallation	princeton_trtdifferential loss correction	single-endedforward channel	channel 2reverse channel	N/Adate	2019/09/13time	03:19:35forward acquisition time	60.00reverse acquisition time	0.00gamma	496.2192k internal	0.2334k external	0.2334temperature offset calibration	1.0189default loss term (dB/km)	0.3790temperature slope calibration	1.0000multiplexer offset coefficient	1.0000multiplexer slope coefficient	1.0000fibre end	0.00T internal ref (°C)	27.37T ext. ref 1 (°C)	4.09T ext. ref 2 (°C)	22.05length (m)	temperature (°C)	Stokes	anti-Stokes-747.200	4.222	0.168	-0.124
-746.185	-49.723	0.440	0.210
-745.171	-37.136	-0.250	0.134
-744.156	128.029	0.019	-0.024
-743.142	142.815	-0.177	0.236
-742.127	-20.953	0.319	-0.196
-741.112	-47.968	0.100	-0.049
-740.098	800.000	0.033	-0.098
-739.083	-200.000	0.005	-0.033
-738.069	-134.316	-0.076	0.009
-737.054	-142.493	0.396	-0.039
-736.039	578.810	-0.078	0.192
-735.025	-200.000	-0.017	0.278
-734.010	130.734	-0.026	-0.034
-732.996	-200.000	-0.029	-0.317
-731.981	79.296	-0.161	-0.174
-730.966	109.589	0.073	-0.088
-729.952	-42.170	-0.183	-0.094
-728.937	-32.600	0.201	-0.113
-727.923	305.540	-0.126	-0.235
-726.908	206.711	-0.035	0.055
-725.894	47.675	-0.152	-0.143
-724.879	236.713	-0.172	-0.285
-723.864	475.899	-0.084	-0.192
-722.850	-8.872	0.130	-0.087
-721.835	-76.205	0.293	-0.104
-720.821	2.936	-0.223	-0.162
-719.806	479.113	-0.059	0.135
-718.791	-13.466	0.387	-0.252
-717.777	-200.000	0.019	0.216
-716.762	-200.000	0.011	-0.147
-715.748	800.000	0.015	-0.060
-714.733	48.117	0.386	-0.362
-713.718	13.385	0.231	-0.179
-712.704	800.000	0.071	-0.275
-711.689	38.258	-0.087	-0.078
-710.675	-4.679	-0.123	-0.085
-709.660	800.000	0.041	-0.116
-708.645	419.039	0.108	0.232
-707.631	800.000	0.039	0.126
-706.616	-200.000	-0.014	0.127
-705.602	800.000	0.061	-0.196
-704.587	-200.000	-0.017	-0.289
-703.572	-61.835	0.090	0.038
-702.558	82.875	0.128	0.140
-701.543	-200.000	0.043	0.209
-700.529	81.365	-0.178	-0.193
-699.514	-124.729	-0.235	0.036
-698.499	-58.521	-0.192	0.084
-697.485	-200.000	0.011	0.099
-696.470	-200.000	-0.025	-0.366
-695.456	800.000	0.045	-0.184
-694.441	212.397	0.211	-0.333
-693.426	294.743	0.041	0.075
-692.412	-97.974	-0.150	0.039
-691.397	800.000	-0.066	0.240
-690.383	189.268	-0.260	-0.391
-689.368	399.872	0.058	0.122
-688.354	27.912	0.124	-0.105
-687.339	-86.435	0.126	0.039
-686.324	-166.455	0.144	-0.006
-685.310	-2.695	0.138	-0.097
-684.295	-182.831	-0.311	-0.006
-683.281	-85.184	0.266	-0.083
-682.266	-140.113	-0.135	-0.014
-681.251	-128.324	0.130	0.019
-680.237	5.242	0.037	-0.028
-679.222	29.648	0.371	0.316
-678.208	99.738	-0.242	0.281
-677.193	521.467	-0.099	0.232
-676.178	800.000	0.011	0.030
-675.164	119.915	-0.185	0.230
-674.149	98.729	-0.453	0.524
-673.135	748.084	-0.026	-0.069
-672.120	79.544	-0.070	-0.075
-671.105	22.969	0.178	0.146
-670.091	89.694	0.062	-0.069
-669.076	-152.206	0.176	0.013
-668.062	41.494	-0.194	-0.176
-667.047	-132.572	-0.129	0.017
-666.032	170.239	0.208	-0.298
-665.018	11.203	-0.157	0.121
-664.003	67.800	0.114	0.117
-662.989	-200.000	0.039	0.174
-661.974	26.372	-0.023	-0.020
-660.959	-94.202	-0.114	0.031
-659.945	-102.406	0.338	-0.081
-658.930	-57.101	0.318	0.141
-657.916	21.761	0.248	-0.202
-656.901	588.523	0.063	-0.154
-655.886	-200.000	0.014	0.118
-654.872	-9.587	0.135	0.090
-653.857	84.482	-0.174	-0.191
-652.843	42.851	0.031	0.029
-651.828	-15.157	-0.043	-0.028
-650.814	-24.776	0.124	-0.074
-649.799	78.309	0.254	-0.271
-648.784	-45.876	0.058	0.029
-647.770	510.917	-0.024	-0.056
-646.755	800.000	-0.034	0.145
-645.741	166.277	-0.137	-0.195
-644.726	-33.370	0.371	0.206
-643.711	-80.623	0.063	0.021
-642.697	-138.701	-0.112	0.012
-641.682	800.000	-0.039	0.115
-640.668	-3.183	0.136	0.095
-639.653	800.000	0.139	0.505
-638.638	-88.476	0.248	-0.074
-637.624	-200.000	-0.009	-0.211
-636.609	-180.610	-0.295	-0.006
-635.595	-92.167	0.056	0.016
-634.580	-2.866	-0.284	-0.198
-633.565	-78.385	0.081	-0.028
-632.551	-25.857	-0.271	0.160
-631.536	-200.000	-0.009	-0.220
-630.522	-200.000	-0.051	-0.326
-629.507	-67.979	0.356	0.139
-628.492	-200.000	0.029	0.319
-627.478	-72.381	-0.137	-0.051
-626.463	71.432	0.214	-0.222
-625.449	800.000	0.012	-0.051
-624.434	-93.205	0.089	-0.025
-623.419	309.980	0.159	-0.299
-622.405	-62.985	0.173	0.072
-621.390	-200.000	-0.004	0.104
-620.376	-178.537	0.205	-0.005
-619.361	277.861	-0.155	-0.276
-618.346	-200.000	0.020	-0.103
-617.332	-166.165	-0.283	-0.012
-616.317	80.915	-0.221	0.238
-615.303	58.352	0.111	0.108
-614.288	72.825	0.133	0.139
-613.273	147.814	0.253	-0.341
-612.259	-128.611	0.174	-0.025
-611.244	517.028	0.053	-0.125
-610.230	-76.395	0.039	-0.014
-609.215	51.101	-0.142	-0.135
-608.201	800.000	-0.057	0.247
-607.186	116.001	0.170	-0.208
-606.171	269.640	-0.168	0.295
-605.157	-90.632	0.254	0.073
-604.142	-99.681	0.134	-0.034
-603.128	514.917	0.115	0.269
-602.113	-159.669	-0.223	0.012
-601.098	64.957	0.182	-0.184
-600.084	528.633	0.063	-0.147
-599.069	-31.486	-0.231	0.130
-598.055	-62.835	-0.384	0.159
-597.040	-175.391	0.298	-0.008
-596.025	-143.963	-0.390	-0.037
-595.011	-8.476	0.218	0.147
-593.996	-27.997	-0.064	-0.037
-592.982	-53.379	0.033	-0.015
-591.967	409.735	0.109	0.231
-590.952	263.442	-0.233	-0.404
-589.938	-200.000	-0.016	0.150
-588.923	-83.231	-0.256	0.082
-587.909	-200.000	0.029	0.290
-586.894	-68.962	0.162	-0.062
-585.879	70.647	0.095	-0.098
-584.865	11.499	0.109	0.084
-583.850	-200.000	0.077	-0.455
-582.836	800.000	0.052	-0.192
-581.821	-121.966	0.131	-0.022
-580.806	118.852	0.240	-0.296
-579.792	800.000	0.035	0.118
-578.777	446.411	0.109	0.240
-577.763	800.000	0.136	-0.381
-576.748	-117.733	0.077	0.014
-575.733	-200.000	-0.020	0.154
-574.719	-56.050	-0.221	0.098
-573.704	-200.000	-0.012	-0.219
-572.690	203.116	-0.185	0.286
-571.675	-33.375	0.208	0.115
-570.661	400.668	-0.209	0.439
-569.646	712.176	-0.038	-0.101
-568.631	800.000	0.064	0.183
-567.617	-200.000	-0.045	-0.261
-566.602	-200.000	-0.003	0.028
-565.588	-200.000	-0.016	0.126
-564.573	-82.676	-0.338	-0.109
-563.558	-20.995	0.146	-0.089
-562.544	101.014	-0.072	-0.084
-561.529	-200.000	0.008	-0.057
-560.515	-85.891	0.302	0.093
-559.500	406.844	-0.208	-0.439
-558.485	-85.703	-0.241	0.075
-557.471	-103.050	-0.094	0.022
-556.456	-164.177	0.041	-0.002
-555.442	516.418	-0.075	-0.175
-554.427	-31.561	-0.212	-0.119
-553.412	1.682	-0.078	0.056
-552.398	171.660	-0.167	0.239
-551.383	568.181	-0.101	-0.245
-550.369	163.395	0.134	-0.188
-549.354	-18.824	0.167	0.104
-548.339	800.000	0.012	-0.040
-547.325	-1.495	0.313	-0.220
-546.310	-200.000	0.042	-0.442
-545.296	-200.000	-0.010	0.116
-544.281	800.000	-0.073	-0.280
-543.266	714.902	0.116	-0.308
-542.252	800.000	-0.126	-0.381
-541.237	800.000	-0.139	0.401
-540.223	-155.021	0.120	-0.008
-539.208	800.000	0.018	-0.074
-538.193	-36.822	-0.125	-0.067
-537.179	-200.000	-0.010	0.118
-536.164	-105.326	0.254	-0.058
-535.150	-28.463	0.156	-0.090
-534.135	-53.705	-0.272	0.124
-533.121	-70.030	-0.158	0.060
-532.106	-49.949	0.091	0.043
-531.091	157.724	-0.154	0.213
-530.077	-7.026	-0.137	-0.092
-529.062	-200.000	0.007	0.098
-528.048	-5.949	-0.376	0.256
-527.033	467.089	0.073	0.163
-526.018	-200.000	0.065	-0.319
-525.004	86.728	0.029	-0.032
-523.989	800.000	-0.030	0.109
-522.975	737.771	0.097	-0.259
-521.960	-1.990	0.198	-0.138
-520.945	800.000	0.032	0.090
-519.931	-120.836	0.267	-0.045
-518.916	294.609	0.086	-0.157
-517.902	108.151	-0.178	-0.211
-516.887	800.000	-0.029	-0.113
-515.872	-113.506	-0.236	0.046
-514.858	41.194	-0.188	0.169
-513.843	113.188	0.285	-0.344
-512.829	-137.894	0.108	-0.012
-511.814	-91.602	-0.144	-0.041
-510.799	-70.007	-0.132	0.050
-509.785	759.618	0.045	0.121
-508.770	-146.818	0.166	-0.014
-507.756	-19.582	0.373	-0.230
-506.741	208.365	-0.084	0.131
-505.726	541.115	0.125	0.297
-504.712	-38.883	0.194	0.102
-503.697	20.308	0.306	-0.246
-502.683	29.844	-0.129	-0.110
-501.668	-94.044	-0.294	-0.080
-500.653	-45.351	0.152	0.075
-499.639	-148.835	-0.142	0.011
-498.624	800.000	-0.063	-0.183
-497.610	-113.993	0.347	0.067
-496.595	108.922	-0.295	0.351
-495.581	-83.189	-0.100	0.032
-494.566	-132.533	0.282	0.036
-493.551	276.804	-0.234	-0.414
-492.537	4.288	0.164	-0.120
-491.522	279.411	0.072	-0.127
-490.508	-60.453	-0.435	0.184
-489.493	-193.056	-0.548	-0.005
-488.478	-88.669	0.235	0.070
-487.464	-51.405	-0.210	-0.098
-486.449	-56.616	0.360	0.159
-485.435	-39.715	-0.138	0.072
-484.420	746.001	-0.065	0.175
-483.405	800.000	-0.077	0.234
-482.391	800.000	-0.038	0.138
-481.376	-9.268	0.095	0.063
-480.362	-128.788	0.206	-0.029
-479.347	800.000	-0.080	-0.278
-478.332	24.077	-0.212	-0.174
-477.318	800.000	0.037	-0.146
-476.303	800.000	-0.017	-0.072
-475.289	535.954	0.087	0.205
-474.274	523.068	-0.056	0.130
-473.259	-200.000	0.011	0.129
-472.245	-200.000	0.073	-0.375
-471.230	52.322	-0.143	-0.136
-470.216	-116.403	0.125	0.023
-469.201	-102.417	0.380	-0.090
-468.186	201.546	0.161	-0.246
-467.172	100.886	0.145	0.168
-466.157	-200.000	0.012	0.181
-465.143	-41.047	-0.245	0.126
-464.128	-9.402	-0.132	0.088
-463.113	-129.630	0.119	0.016
-462.099	-200.000	0.006	0.331
-461.084	-84.989	-0.244	0.076
-460.070	-200.000	-0.051	-0.270
-459.055	371.243	-0.057	0.114
-458.040	198.312	0.187	-0.284
-457.026	-4.915	-0.218	-0.149
-456.011	800.000	-0.029	0.103
-454.997	52.891	0.092	-0.087
-453.982	105.029	0.095	0.112
-452.968	-112.463	0.179	-0.036
-451.953	275.370	0.093	0.163
-450.938	-85.402	0.146	-0.045
-449.924	3.292	-0.154	0.111
-448.909	49.856	0.259	-0.243
-447.895	-115.408	0.249	-0.047
-446.880	-76.477	-0.113	-0.039
-445.865	-66.083	-0.293	0.116
-444.851	-161.075	0.194	-0.010
-443.836	-200.000	0.028	0.416
-442.822	224.846	0.050	0.081
-441.807	108.423	-0.068	-0.080
-440.792	-0.007	-0.174	0.123
-439.778	108.781	-0.176	-0.209
-438.763	165.725	0.029	-0.041
-437.749	800.000	-0.071	-0.213
-436.734	75.715	-0.195	0.205
-435.719	-148.187	-0.226	-0.019
-434.705	180.048	0.239	0.348
-433.690	-7.574	-0.051	0.034
-432.676	800.000	-0.038	-0.149
-431.661	215.419	-0.202	-0.318
-430.646	-63.981	0.288	-0.117
-429.632	33.779	-0.287	-0.248
-428.617	800.000	-0.076	-0.308
-427.603	-22.199	0.191	0.115
-426.588	72.432	-0.229	0.237
-425.573	54.082	0.191	0.182
-424.559	-12.788	0.149	-0.097
-423.544	-200.000	0.040	0.196
-422.530	800.000	-0.066	0.245
-421.515	302.180	-0.050	-0.093
-420.500	-20.952	-0.020	0.012
-419.486	192.843	0.208	-0.312
-418.471	21.893	0.143	0.116
-417.457	-72.749	-0.356	0.130
-416.442	181.786	-0.029	0.042
-415.428	-200.000	-0.024	0.137
-414.413	44.334	-0.197	0.179
-413.398	27.713	0.102	0.085
-412.384	-84.088	-0.151	0.048
-411.369	225.307	-0.147	-0.236
-410.355	-34.546	-0.322	0.175
-409.340	90.542	0.249	-0.276
-408.325	-29.941	0.239	0.135
-407.311	213.894	-0.125	-0.196
-406.296	322.123	-0.181	0.343
-405.282	28.150	0.093	-0.078
-404.267	740.180	-0.056	-0.149
-403.252	25.595	-0.098	-0.081
-402.238	800.000	0.049	-0.137
-401.223	-83.897	-0.271	-0.085
-400.209	-109.537	-0.138	0.029
-399.194	800.000	0.074	-0.271
-398.179	-110.250	0.246	0.051
-397.165	-27.974	-0.091	0.052
-396.150	-200.000	-0.023	0.239
-395.136	18.374	0.196	0.155
-394.121	-76.536	-0.256	0.089
-393.106	-200.000	0.009	-0.102
-392.092	427.622	-0.106	-0.227
-391.077	-200.000	-0.019	0.143
-390.063	-66.716	-0.228	-0.090
-389.048	-83.784	0.261	0.083
-388.033	-50.596	0.072	-0.033
-387.019	-139.739	-0.086	0.009
-386.004	83.718	-0.253	-0.274
-384.990	-36.766	-0.207	0.110
-383.975	-200.000	0.068	0.310
-382.960	30.784	0.241	-0.205
-381.946	536.846	0.033	-0.077
-380.931	0.052	-0.217	-0.153
-379.917	800.000	0.105	0.305
-378.902	-200.000	0.000	0.055
-377.888	93.350	0.172	-0.193
-376.873	1.918	-0.251	0.180
-375.858	231.983	0.091	0.148
-374.844	-63.157	-0.297	0.121
-373.829	300.422	-0.073	-0.133
-372.815	-99.434	-0.157	0.039
-371.800	3.793	0.186	0.135
-370.785	504.899	-0.060	-0.138
-369.771	-130.846	0.104	-0.014
-368.756	-200.000	0.005	-0.024
-367.742	-46.203	0.101	0.049
-366.727	35.209	-0.121	-0.105
-365.712	-77.530	-0.227	0.078
-364.698	-200.000	-0.016	0.180
-363.683	94.843	0.143	0.161
-362.669	-38.148	-0.072	0.038
-361.654	59.506	-0.004	-0.004
-360.639	25.280	-0.288	-0.237
-359.625	-88.236	-0.179	-0.053
-358.610	328.629	-0.032	0.060
-357.596	181.575	0.076	0.110
-356.581	-96.457	0.201	0.052
-355.566	-69.606	0.060	-0.023
-354.552	249.854	0.084	-0.141
-353.537	350.581	-0.038	0.074
-352.523	296.908	0.149	-0.271
-351.508	-156.934	0.286	0.017
-350.493	149.995	0.067	0.090
-349.479	-146.403	-0.336	0.029
-348.464	-141.821	-0.207	0.020
-347.450	13.288	0.390	0.299
-346.435	-59.929	0.442	0.187
-345.420	-8.008	-0.140	0.093
-344.406	317.080	0.075	0.141
-343.391	31.986	-0.176	0.150
-342.377	54.466	-0.141	0.134
-341.362	444.926	0.044	-0.095
-340.348	-123.357	0.162	-0.026
-339.333	-200.000	0.003	-0.127
-338.318	185.064	0.145	0.213
-337.304	481.848	0.190	0.426
-336.289	-122.028	-0.079	0.013
-335.275	-147.454	0.078	-0.007
-334.260	84.539	-0.093	-0.100
-333.245	478.961	0.099	0.223
-332.231	800.000	-0.075	0.235
-331.216	-155.745	0.115	0.007
-330.202	-143.844	0.224	0.021
-329.187	125.232	-0.198	-0.247
-328.172	-200.000	0.009	-0.113
-327.158	148.978	0.029	0.039
-326.143	270.687	-0.069	-0.121
-325.129	-65.492	-0.426	-0.169
-324.114	-158.568	0.312	0.018
-323.099	354.174	0.045	0.088
-322.085	-179.984	0.077	-0.002
-321.070	375.428	-0.096	-0.193
-320.056	411.932	-0.227	-0.477
-319.041	-55.118	-0.176	-0.078
-318.026	-200.000	0.013	0.069
-317.012	429.687	0.169	-0.361
-315.997	-110.516	-0.046	0.009
-314.983	196.309	-0.044	0.067
-313.968	-58.180	0.157	0.068
-312.953	-97.064	0.267	-0.069
-311.939	-200.000	0.002	0.266
-310.924	151.637	-0.056	-0.076
-309.910	-67.140	0.211	0.082
-308.895	342.408	-0.045	-0.086
-307.880	-95.625	-0.137	0.036
-306.866	161.582	0.161	-0.223
-305.851	-10.691	0.106	-0.069
-304.837	-60.673	-0.163	0.068
-303.822	-74.657	0.289	-0.103
-302.807	-112.042	-0.250	-0.050
-301.793	800.000	0.050	0.157
-300.778	26.543	0.247	-0.204
-299.764	8.315	-0.176	0.131
-298.749	-102.875	0.200	-0.047
-297.735	-42.105	0.134	-0.068
-296.720	8.968	-0.078	-0.058
-295.705	-200.000	-0.042	-0.264
-294.691	1.716	0.175	-0.125
-293.676	-200.000	-0.011	-0.054
-292.662	112.022	-0.057	-0.068
-291.647	-76.546	0.282	-0.098
-290.632	-23.030	0.153	0.091
-289.618	10.450	0.257	0.193
-288.603	438.184	-0.089	-0.191
-287.589	-36.393	-0.369	-0.196
-286.574	800.000	-0.040	0.137
-285.559	405.774	0.131	0.273
-284.545	90.211	-0.185	0.204
-283.530	-84.062	0.391	-0.122
-282.516	-35.095	-0.131	0.070
-281.501	-53.542	-0.222	-0.100
-280.486	800.000	0.061	0.257
-279.472	-200.000	-0.227	0.000
-278.457	-78.348	0.285	-0.097
-277.443	-115.442	0.202	-0.038
-276.428	187.954	-0.160	0.236
-275.413	249.272	0.152	0.254
-274.399	-200.000	-0.023	0.104
-273.384	-200.000	-0.041	0.193
-272.370	107.770	0.163	0.192
-271.355	-110.915	-0.316	0.064
-270.340	94.708	-0.216	0.243
-269.326	31.562	0.119	-0.101
-268.311	-132.345	0.427	0.054
-267.297	-17.755	0.053	0.033
-266.282	-111.748	0.217	0.043
-265.267	-141.836	-0.075	0.007
-264.253	101.541	0.096	-0.110
-263.238	63.661	-0.239	-0.237
-262.224	-136.705	-0.279	0.032
-261.209	-154.696	0.220	-0.014
-260.195	-200.000	0.001	0.160
-259.180	-109.874	-0.249	0.051
-258.165	619.717	0.138	-0.341
-257.151	-85.092	0.254	0.078
-256.136	757.930	0.096	-0.255
-255.122	-200.000	-0.073	-0.341
-254.107	800.000	0.019	0.056
-253.092	166.587	0.045	-0.062
-252.078	-200.000	0.013	0.272
-251.063	-200.000	-0.012	0.085
-250.049	-154.957	-0.345	-0.022
-249.034	193.589	0.147	-0.219
-248.019	-200.000	0.049	-0.235
-247.005	800.000	-0.052	0.153
-245.990	-41.210	-0.237	0.120
-244.976	83.014	-0.114	0.122
-243.961	-105.671	-0.361	-0.081
-242.946	-102.068	0.322	-0.076
-241.932	-154.409	-0.426	0.028
-240.917	-38.288	-0.130	0.068
-239.903	-200.000	-0.021	-0.164
-238.888	-84.249	-0.104	-0.032
-237.873	316.320	0.085	-0.159
-236.859	-200.000	0.008	-0.415
-235.844	27.406	0.060	-0.050
-234.830	-24.121	0.079	-0.047
-233.815	424.577	-0.084	-0.178
-232.800	92.671	-0.102	0.113
-231.786	64.813	-0.218	-0.216
-230.771	-107.835	-0.424	0.091
-229.757	-89.301	0.193	-0.056
-228.742	-124.796	0.230	-0.035
-227.727	745.241	-0.052	0.138
-226.713	-78.983	0.274	0.092
-225.698	76.135	0.162	-0.169
-224.684	-38.149	0.191	0.100
-223.669	-102.950	-0.100	0.023
-222.655	637.475	-0.054	-0.135
-221.640	-200.000	-0.047	0.443
-220.625	-47.152	0.076	0.037
-219.611	289.634	0.099	-0.176
-218.596	91.341	0.116	-0.128
-217.582	190.449	0.287	-0.425
-216.567	159.104	-0.144	-0.197
-215.552	-55.117	-0.285	0.126
-214.538	-85.145	-0.200	0.062
-213.523	-30.927	0.216	-0.120
-212.509	-64.013	0.271	0.109
-211.494	-200.000	0.046	0.469
-210.479	105.543	-0.139	0.162
-209.465	-66.197	0.084	0.033
-208.450	-109.215	0.253	0.053
-207.436	-22.918	0.364	0.216
-206.421	-176.307	0.133	-0.003
-205.406	-12.385	-0.195	-0.125
-204.392	800.000	0.041	0.153
-203.377	800.000	-0.152	0.553
-202.363	-12.728	-0.324	-0.208
-201.348	40.941	0.292	0.259
-200.333	-25.367	0.079	0.046
-199.319	800.000	0.050	-0.194
-198.304	-11.250	0.133	0.086
-197.290	-12.306	-0.224	-0.144
-196.275	62.304	-0.119	0.117
-195.260	329.422	0.125	-0.236
-194.246	47.568	-0.424	-0.389
-193.231	-200.000	-0.005	0.190
-192.217	-15.321	0.084	0.053
-191.202	740.918	-0.064	-0.169
-190.187	12.436	0.192	0.146
-189.173	197.614	-0.204	0.306
-188.158	-200.000	-0.030	-0.254
-187.144	65.799	0.206	-0.205
-186.129	-54.332	0.050	0.022
-185.114	-200.000	0.088	0.382
-184.100	21.966	-0.182	-0.146
-183.085	-39.405	-0.177	-0.091
-182.071	800.000	-0.066	-0.192
-181.056	-161.087	-0.129	-0.007
-180.042	-115.137	-0.412	0.077
-179.027	-6.641	-0.108	-0.072
-178.012	800.000	0.105	0.380
-176.998	800.000	0.076	0.306
-175.983	-200.000	-0.058	0.257
-174.969	-43.049	-0.080	-0.040
-173.954	-109.232	-0.142	-0.030
-172.939	32.449	-0.138	0.117
-171.925	-107.494	-0.264	0.057
-170.910	67.547	-0.154	0.155
-169.896	96.974	-0.181	-0.204
-168.881	217.747	0.110	-0.172
-167.866	-159.454	0.198	-0.011
-166.852	63.338	0.188	-0.185
-165.837	-79.401	0.405	0.135
-164.823	-200.000	0.005	-0.086
-163.808	655.863	0.062	0.157
-162.793	-200.000	-0.003	0.284
-161.779	12.860	-0.245	0.186
-160.764	79.032	-0.076	0.080
-159.750	-91.580	-0.200	-0.056
-158.735	-130.386	0.324	-0.043
-157.720	629.350	0.070	-0.173
-156.706	-3.874	-0.144	0.098
-155.691	-65.546	0.200	0.079
-154.677	146.760	0.129	0.170
-153.662	-200.000	0.031	0.186
-152.647	-200.000	0.010	0.268
-151.633	-146.447	-0.239	-0.020
-150.618	-70.976	-0.154	-0.057
-149.604	-143.356	-0.360	0.034
-148.589	800.000	0.104	-0.335
-147.574	117.241	-0.161	0.194
-146.560	800.000	0.039	-0.124
-145.545	349.978	0.123	0.240
-144.531	324.058	-0.037	0.070
-143.516	-51.357	0.297	-0.136
-142.502	-72.186	-0.363	-0.132
-141.487	13.301	0.254	0.193
-140.472	339.009	-0.101	0.193
-139.458	800.000	0.066	0.192
-138.443	269.453	-0.095	-0.164
-137.429	22.953	-0.210	0.169
-136.414	153.665	-0.206	-0.277
-135.399	-106.872	-0.237	-0.051
-134.385	183.812	-0.105	-0.153
-133.370	800.000	0.123	-0.336
-132.356	800.000	0.085	0.240
-131.341	62.716	0.051	-0.050
-130.326	-49.694	-0.064	-0.030
-129.312	209.554	0.176	0.270
-128.297	70.278	-0.106	0.107
-127.283	-78.022	0.314	0.106
-126.268	10.293	-0.260	-0.194
-125.253	-65.620	-0.130	0.051
-124.239	127.633	-0.190	0.237
-123.224	-178.269	-0.045	-0.001
-122.210	-47.102	-0.570	0.273
-121.195	800.000	-0.057	-0.222
-120.180	117.218	0.132	-0.159
-119.166	47.208	0.117	0.107
-118.151	153.857	0.183	-0.246
-117.137	123.001	0.123	-0.151
-116.122	158.808	-0.052	0.071
-115.107	-7.690	-0.162	-0.107
-114.093	-107.972	-0.136	-0.029
-113.078	-130.509	-0.100	-0.013
-112.064	44.075	0.281	0.252
-111.049	-20.476	0.122	-0.074
-110.034	800.000	0.036	0.151
-109.020	248.754	-0.040	0.067
-108.005	186.581	0.075	-0.109
-106.991	8.132	0.238	-0.175
-105.976	39.477	-0.236	-0.207
-104.962	41.598	0.134	0.119
-103.947	66.813	-0.220	0.220
-102.932	-145.611	-0.450	-0.039
-101.918	-200.000	0.027	0.135
-100.903	-39.328	-0.174	-0.089
-99.889	-200.000	0.026	0.364
-98.874	-70.694	-0.064	-0.024
-97.859	800.000	0.099	0.267
-96.845	322.836	0.128	0.240
-95.830	99.050	0.066	0.075
-94.816	-200.000	0.046	0.218
-93.801	791.062	-0.100	0.270
-92.786	54.588	0.298	0.281
-91.772	169.943	-0.121	-0.169
-90.757	-200.000	-0.014	-0.077
-89.743	40.661	-0.057	0.051
-88.728	453.985	0.024	-0.051
-87.713	-184.161	0.291	-0.005
-86.699	-69.838	0.262	-0.098
-85.684	800.000	0.106	0.306
-84.670	800.000	-0.032	0.132
-83.655	359.062	0.123	-0.241
-82.640	56.217	0.099	0.094
-81.626	54.943	0.075	0.071
-80.611	44.799	-0.053	0.048
-79.597	800.000	-0.059	-0.191
-78.582	-200.000	0.052	0.304
-77.567	800.000	-0.077	0.303
-76.553	134.747	-0.116	-0.147
-75.538	304.969	-0.083	-0.150
-74.524	-54.023	-0.087	0.039
-73.509	541.021	-0.069	0.161
-72.494	-112.718	-0.205	0.040
-71.480	-83.575	0.285	0.089
-70.465	-86.254	0.491	0.148
-69.451	343.256	-0.038	-0.073
-68.436	-200.000	-0.012	0.132
-67.422	13.877	-0.053	-0.040
-66.407	-200.000	-0.019	0.293
-65.392	92.942	0.095	-0.105
-64.378	-17.572	0.065	0.040
-63.363	387.714	0.057	0.115
-62.349	-55.083	0.281	0.124
-61.334	69.206	-1.044	-1.051
-60.319	1.747	0.779	0.549
-59.305	800.000	-0.351	-1.332
-58.290	424.054	0.637	1.341
-57.276	321.605	0.799	1.487
-56.261	-200.000	114.631	661.924
-55.246	544.336	1527.001	3567.153
-54.232	176.840	2701.978	3844.635
-53.217	103.081	2289.001	2623.691
-52.203	36.689	1895.698	1637.867
-51.188	30.627	1685.013	1409.989
-50.173	28.070	1643.116	1355.943
-49.159	50.178	1699.599	1569.724
-48.144	48.685	1713.057	1570.866
-47.130	30.236	1670.566	1394.742
-46.115	27.463	1656.145	1361.942
-45.100	27.326	1651.192	1356.793
-44.086	27.289	1648.716	1354.432
-43.071	27.239	1645.579	1351.427
-42.057	27.199	1643.610	1349.464
-41.042	27.275	1641.449	1348.199
-40.027	27.274	1639.574	1346.593
-39.013	27.254	1637.554	1344.732
-37.998	27.245	1635.869	1343.231
-36.984	27.320	1635.328	1343.288
-35.969	27.384	1633.121	1341.894
-34.954	27.408	1631.135	1340.384
-33.940	27.334	1629.739	1338.642
-32.925	27.349	1628.030	1337.293
-31.911	27.440	1625.878	1336.141
-30.896	27.343	1624.292	1334.071
-29.881	27.265	1622.939	1332.341
-28.867	27.379	1620.747	1331.317
-27.852	27.413	1619.256	1330.290
-26.838	27.335	1617.893	1328.548
-25.823	27.431	1616.601	1328.138
-24.809	27.459	1615.435	1327.325
-23.794	27.387	1614.128	1325.678
-22.779	27.326	1612.808	1324.099
-21.765	27.350	1611.021	1322.749
-20.750	27.382	1609.217	1321.449
-19.736	27.382	1608.024	1320.420
-18.721	27.415	1606.639	1319.466
-17.706	27.334	1605.141	1317.599
-16.692	27.327	1604.167	1316.697
-15.677	27.434	1602.118	1315.735
-14.663	27.446	1601.080	1314.921
-13.648	27.445	1599.053	1313.193
-12.633	27.385	1598.319	1312.103
-11.619	27.442	1596.609	1311.062
-10.604	27.446	1594.816	1309.568
-9.590	27.422	1593.700	1308.427
-8.575	27.487	1592.886	1308.171
-7.560	27.430	1591.535	1306.602
-6.546	27.365	1590.452	1305.191
-5.531	27.432	1589.206	1304.595
-4.517	27.411	1587.811	1303.250
-3.502	27.380	1586.896	1302.225
-2.487	27.473	1585.538	1301.726
-1.473	27.093	1573.603	1289.179
-0.458	24.329	1554.447	1254.026
0.556	22.836	1555.011	1222.733
1.571	20.218	1579.344	1223.323
2.586	19.785	1591.053	1229.204
3.600	17.778	1538.063	1174.358
4.615	11.051	1432.042	1050.046
5.629	5.071	1371.283	968.375
6.644	4.052	1363.708	956.649
7.659	4.010	1362.918	955.753
8.673	4.148	1361.700	955.660
9.688	4.140	1359.722	954.141
10.702	4.037	1357.223	951.673
11.717	6.916	1362.709	973.177
12.731	14.609	1376.571	1030.672
13.746	21.261	1387.577	1080.092
14.761	22.971	1389.493	1092.065
15.775	22.432	1387.347	1086.955
16.790	21.587	1385.113	1079.900
17.804	20.917	1383.152	1074.146
18.819	20.692	1382.191	1071.921
19.834	20.693	1380.849	1070.793
20.848	20.552	1380.236	1069.356
21.863	20.356	1379.068	1067.148
22.877	20.227	1377.665	1065.178
23.892	20.217	1377.226	1064.680
24.907	20.243	1375.938	1063.751
25.921	20.162	1375.063	1062.484
26.936	20.272	1373.773	1062.068
27.950	20.324	1372.840	1061.570
28.965	20.231	1372.420	1060.585
29.980	20.395	1371.817	1061.023
30.994	20.574	1370.979	1061.376
32.009	20.591	1369.846	1060.508
33.023	20.645	1368.189	1059.462
34.038	20.530	1366.718	1057.528
35.053	20.441	1366.080	1056.400
36.067	20.453	1364.234	1054.950
37.082	20.484	1363.427	1054.425
38.096	20.536	1362.858	1054.205
39.111	20.427	1362.289	1053.010
40.126	20.341	1360.940	1051.354
41.140	20.041	1360.101	1048.795
42.155	19.946	1359.118	1047.369
43.169	19.824	1359.586	1046.899
44.184	19.905	1358.757	1046.658
45.199	19.876	1359.199	1046.729
46.213	20.290	1358.108	1048.299
47.228	20.481	1357.259	1048.703
48.242	20.463	1356.352	1047.800
49.257	20.421	1354.656	1046.149
50.271	20.355	1353.296	1044.605
51.286	20.295	1352.401	1043.462
52.301	20.341	1350.753	1042.377
53.315	20.079	1350.046	1040.164
54.330	20.004	1348.808	1038.670
55.344	19.921	1347.892	1037.378
56.359	19.921	1346.450	1036.174
57.374	19.946	1345.191	1035.265
58.388	19.764	1344.964	1033.907
59.403	19.804	1344.226	1033.491
60.417	19.689	1343.792	1032.376
61.432	19.753	1342.554	1031.718
62.447	19.611	1341.723	1030.137
63.461	19.581	1340.004	1028.550
64.476	19.487	1339.859	1027.789
65.490	19.573	1338.240	1026.965
66.505	19.563	1336.767	1025.685
67.520	19.544	1335.450	1024.469
68.534	19.536	1334.130	1023.324
69.549	19.450	1333.824	1022.486
70.563	19.554	1331.926	1021.555
71.578	19.337	1331.216	1019.639
72.593	19.216	1330.280	1018.117
73.607	19.241	1329.429	1017.520
74.622	19.331	1328.763	1017.454
75.636	19.427	1328.055	1017.387
76.651	19.438	1327.512	1016.943
77.666	19.511	1326.946	1016.852
78.680	19.562	1326.413	1016.654
79.695	19.655	1325.434	1016.364
80.709	19.775	1325.890	1017.328
81.724	19.827	1324.911	1016.793
82.739	20.052	1324.083	1017.386
83.753	20.162	1323.500	1017.494
84.768	20.389	1322.564	1018.015
85.782	20.577	1321.327	1018.073
86.797	20.477	1320.340	1016.639
87.812	20.304	1319.362	1014.786
88.826	20.394	1318.161	1014.298
89.841	20.450	1317.124	1013.735
90.855	20.544	1316.030	1013.352
91.870	20.523	1315.566	1012.786
92.884	20.600	1314.698	1012.471
93.899	20.648	1313.943	1012.082
94.914	20.747	1312.751	1011.651
95.928	20.750	1312.099	1011.077
96.943	20.450	1311.659	1008.903
97.957	20.482	1310.170	1007.858
98.972	20.599	1309.414	1007.865
99.987	20.453	1308.398	1006.148
101.001	20.441	1307.486	1005.286
102.016	20.488	1306.444	1004.669
103.030	20.501	1305.487	1003.920
104.045	20.477	1305.006	1003.320
105.060	20.376	1302.777	1000.938
106.074	19.880	1301.273	996.834
107.089	19.625	1300.051	994.347
108.103	19.524	1299.002	992.872
109.118	19.501	1297.048	991.163
110.133	19.610	1295.863	990.792
111.147	19.686	1294.516	990.108
112.162	19.628	1293.809	989.149
113.176	19.731	1292.857	988.924
114.191	19.833	1291.658	988.500
115.206	19.822	1290.339	987.340
116.220	19.821	1289.065	986.275
117.235	19.840	1288.213	985.645
118.249	19.575	1287.536	983.529
119.264	19.569	1285.664	981.978
120.279	19.496	1284.965	980.945
121.293	19.453	1283.585	979.557
122.308	19.301	1282.763	977.981
123.322	19.198	1281.783	976.565
124.337	19.197	1280.411	975.427
125.352	19.262	1279.054	974.672
126.366	19.283	1278.420	974.221
127.381	19.194	1277.313	972.789
128.395	19.214	1276.449	972.161
129.410	19.273	1275.446	971.641
130.424	19.362	1275.032	971.741
131.439	19.575	1273.999	972.066
132.454	19.708	1272.932	971.917
133.468	19.667	1273.044	971.684
134.483	19.795	1271.901	971.444
135.497	19.748	1270.914	970.344
136.512	19.749	1269.885	969.475
137.527	19.862	1268.476	968.949
138.541	19.898	1267.187	968.081
139.556	19.921	1266.073	967.270
140.570	20.030	1265.581	967.416
141.585	20.180	1263.937	966.912
142.600	20.266	1263.266	966.792
143.614	20.391	1262.870	967.100
144.629	20.423	1261.843	966.408
145.643	20.391	1260.538	965.145
146.658	20.121	1259.043	962.412
147.673	20.043	1257.453	960.684
148.687	19.917	1255.904	958.713
149.702	19.698	1254.928	956.676
150.716	19.625	1253.908	955.405
151.731	19.805	1252.211	955.024
152.746	19.833	1251.132	954.271
153.760	19.877	1250.231	953.741
154.775	19.911	1249.475	953.269
155.789	20.043	1248.010	952.793
156.804	20.134	1247.178	952.573
157.819	20.176	1246.488	952.193
158.833	20.357	1245.794	952.568
159.848	20.366	1245.337	952.187
160.862	20.378	1244.252	951.340
161.877	19.981	1242.404	947.669
162.892	19.721	1241.321	945.337
163.906	19.740	1240.660	944.851
164.921	19.705	1239.879	943.982
165.935	19.840	1239.126	944.067
166.950	20.021	1238.344	944.370
167.964	19.995	1237.642	943.611
168.979	19.919	1237.227	942.800
169.994	19.939	1236.123	941.981
171.008	19.924	1235.049	941.000
172.023	20.133	1234.677	941.766
173.037	20.278	1234.138	942.061
174.052	20.225	1233.246	941.011
175.067	19.902	1231.809	938.076
176.081	19.678	1230.515	935.797
177.096	19.717	1229.791	935.373
178.110	19.800	1228.454	934.724
179.125	19.815	1227.137	933.721
180.140	20.001	1226.707	934.316
181.154	20.307	1225.717	935.126
182.169	20.285	1224.711	934.155
183.183	20.270	1223.997	933.451
184.198	20.383	1222.679	932.969
185.213	20.467	1221.437	932.388
186.227	20.453	1220.699	931.671
187.242	20.465	1219.680	930.871
188.256	20.554	1218.857	930.641
189.271	20.550	1218.174	930.016
190.286	20.346	1216.990	927.938
191.300	19.871	1215.587	924.251
192.315	19.773	1215.331	923.451
193.329	19.806	1214.547	922.946
194.344	19.874	1213.587	922.497
195.359	19.957	1213.192	922.561
196.373	20.055	1212.727	922.646
197.388	20.265	1212.639	923.616
198.402	20.544	1211.928	924.476
199.417	20.745	1211.740	925.319
200.432	20.831	1211.358	925.405
201.446	20.873	1211.077	925.331
202.461	20.943	1210.196	924.946
203.475	20.980	1208.741	923.946
204.490	20.580	1207.123	920.511
205.504	20.383	1206.182	918.670
206.519	20.383	1204.456	917.277
207.534	20.276	1203.489	915.891
208.548	20.348	1202.363	915.337
209.563	20.343	1201.972	914.932
210.577	20.444	1200.523	914.275
211.592	20.394	1200.584	913.977
212.607	20.607	1199.518	914.206
213.621	20.689	1198.855	914.054
214.636	20.616	1197.742	912.741
215.650	20.656	1196.651	912.039
216.665	20.760	1196.126	912.102
217.680	20.972	1195.306	912.506
218.694	20.914	1194.908	911.816
219.709	20.847	1194.109	910.776
220.723	20.789	1193.257	909.743
221.738	20.809	1192.852	909.456
222.753	20.758	1191.415	908.018
223.767	20.734	1190.841	907.370
224.782	20.936	1190.579	908.147
225.796	21.035	1190.304	908.370
226.811	20.925	1189.371	907.003
227.826	20.840	1188.220	905.607
228.840	20.720	1187.131	904.075
229.855	20.720	1186.814	903.751
230.869	20.592	1186.163	902.509
231.884	20.530	1185.167	901.354
232.899	20.472	1183.921	900.022
233.913	20.372	1183.196	898.876
234.928	20.263	1182.367	897.601
235.942	20.388	1181.475	897.492
236.957	20.242	1180.588	895.983
237.972	20.255	1179.921	895.465
238.986	20.412	1179.351	895.763
240.001	20.327	1179.105	895.059
241.015	20.274	1178.149	893.981
242.030	20.593	1176.963	894.642
243.045	20.637	1176.512	894.450
244.059	20.673	1175.700	893.935
245.074	20.702	1175.256	893.672
246.088	20.834	1174.555	893.736
247.103	20.944	1173.821	893.664
248.117	21.054	1173.482	893.890
249.132	21.211	1173.196	894.394
250.147	21.620	1172.287	895.714
251.161	21.715	1171.845	895.787
252.176	21.693	1171.654	895.447
253.190	21.845	1170.683	895.399
254.205	21.860	1170.482	895.248
255.220	21.956	1169.848	895.170
256.234	21.851	1168.888	893.823
257.249	21.752	1168.582	893.004
258.263	21.676	1167.809	891.949
259.278	21.775	1166.828	891.625
260.293	21.831	1166.157	891.317
261.307	21.850	1166.116	891.301
262.322	21.903	1165.497	891.022
263.336	22.056	1164.609	891.040
264.351	21.939	1164.227	890.073
265.366	22.036	1163.244	889.733
266.380	22.009	1162.818	889.196
267.395	21.809	1161.853	887.366
268.409	21.596	1161.017	885.571
269.424	21.683	1160.287	885.374
270.439	21.642	1159.657	884.607
271.453	21.514	1158.496	882.998
272.468	21.402	1157.698	881.748
273.482	21.221	1157.024	880.243
274.497	21.294	1156.253	879.945
275.512	21.357	1155.591	879.683
276.526	21.342	1154.865	878.975
277.541	21.327	1154.278	878.376
278.555	21.647	1153.409	879.242
279.570	21.780	1153.290	879.745
280.585	21.938	1152.735	880.034
281.599	21.928	1151.400	878.889
282.614	21.665	1150.429	876.752
283.628	21.585	1149.187	875.329
284.643	21.544	1148.045	874.175
285.657	21.560	1147.433	873.714
286.672	21.645	1146.480	873.334
287.687	21.570	1145.645	872.245
288.701	21.643	1145.004	872.044
289.716	21.537	1144.271	870.882
290.730	21.657	1143.270	870.641
291.745	21.741	1143.060	870.821
292.760	21.746	1142.411	870.275
293.774	21.826	1141.962	870.251
294.789	22.045	1141.387	870.824
295.803	21.886	1140.688	869.426
296.818	21.690	1139.837	867.728
297.833	21.749	1138.615	867.012
298.847	21.805	1137.972	866.724
299.862	21.645	1137.570	865.548
300.876	21.649	1136.762	864.877
301.891	21.772	1136.481	865.195
302.906	21.933	1135.900	865.469
303.920	22.083	1135.584	865.895
304.935	22.199	1135.015	865.952
305.949	22.400	1134.030	866.113
306.964	22.322	1133.354	865.137
307.979	22.039	1132.748	863.206
308.993	21.962	1131.870	862.084
310.008	22.100	1131.489	862.396
311.022	22.232	1130.470	862.190
312.037	21.983	1129.819	860.398
313.052	21.906	1128.427	858.884
314.066	21.817	1127.163	857.412
315.081	21.545	1126.145	855.233
316.095	21.514	1125.288	854.354
317.110	21.645	1124.675	854.451
318.125	21.535	1124.257	853.523
319.139	21.497	1123.128	852.404
320.154	21.674	1122.420	852.652
321.168	21.471	1122.342	851.531
322.183	21.624	1121.709	851.718
323.197	21.701	1120.651	851.214
324.212	21.720	1120.645	851.227
325.227	21.756	1119.945	850.794
326.241	21.836	1118.937	850.341
327.256	21.740	1118.484	849.458
328.270	21.646	1117.359	848.069
329.285	21.618	1115.932	846.777
330.300	21.694	1114.959	846.332
331.314	21.673	1114.171	845.556
332.329	21.740	1113.701	845.448
333.343	21.767	1112.688	844.735
334.358	21.860	1112.380	844.876
335.373	21.940	1111.793	844.741
336.387	22.091	1110.851	844.675
337.402	22.128	1110.354	844.398
338.416	22.094	1109.921	843.834
339.431	22.244	1109.122	843.871
340.446	22.472	1108.661	844.538
341.460	22.426	1108.397	844.045
342.475	22.719	1107.315	844.548
343.489	22.764	1106.367	843.965
344.504	22.844	1105.335	843.483
345.519	22.821	1104.732	842.838
346.533	22.898	1103.914	842.509
347.548	22.910	1103.728	842.350
348.562	22.772	1102.755	840.875
349.577	22.609	1101.338	838.943
350.592	22.286	1100.377	836.602
351.606	22.199	1099.478	835.433
352.621	22.096	1098.599	834.200
353.635	21.960	1097.890	832.942
354.650	22.069	1097.007	832.714
355.665	22.091	1096.640	832.466
356.679	22.275	1096.369	833.060
357.694	22.386	1095.500	832.853
358.708	22.495	1095.028	832.934
359.723	22.512	1094.480	832.522
360.738	22.549	1093.660	832.002
361.752	22.517	1092.931	831.225
362.767	22.449	1092.943	830.836
363.781	22.377	1092.268	829.911
364.796	22.633	1091.771	830.664
365.810	22.831	1091.878	831.605
366.825	22.893	1091.318	831.397
367.840	23.152	1090.474	831.898
368.854	23.309	1090.052	832.243
369.869	23.123	1089.310	830.730
370.883	23.007	1088.245	829.299
371.898	22.860	1087.160	827.711
372.913	22.890	1086.716	827.438
373.927	22.845	1086.492	826.985
374.942	23.046	1086.368	827.758
375.956	23.012	1085.524	826.882
376.971	22.922	1084.530	825.630
377.986	23.155	1084.033	826.268
379.000	23.251	1084.098	826.693
380.015	23.264	1083.788	826.445
381.029	23.366	1082.905	826.173
382.044	23.315	1082.193	825.318
383.059	23.330	1081.478	824.771
384.073	23.248	1080.619	823.661
385.088	23.315	1079.445	823.003
386.102	23.067	1078.710	821.220
387.117	22.902	1077.573	819.517
388.132	22.810	1076.169	817.952
389.146	22.735	1075.158	816.761
390.161	22.651	1074.978	816.162
391.175	22.783	1074.063	816.008
392.190	22.846	1074.227	816.353
393.205	23.137	1073.433	817.020
394.219	23.176	1072.063	816.086
395.234	22.891	1071.043	813.921
396.248	22.866	1069.839	812.822
397.263	22.780	1069.047	811.753
398.278	22.650	1068.229	810.462
399.292	22.677	1067.277	809.791
400.307	22.557	1066.925	808.900
401.321	22.531	1066.290	808.228
402.336	22.511	1065.561	807.515
403.350	22.617	1064.737	807.302
404.365	22.623	1064.239	806.881
405.380	22.858	1063.566	807.372
406.394	22.915	1063.027	807.155
407.409	23.072	1062.990	807.773
408.423	23.151	1062.518	807.703
409.438	23.290	1061.689	807.633
410.453	23.371	1061.004	807.413
411.467	23.382	1060.460	806.975
412.482	23.553	1059.683	807.093
413.496	23.646	1058.969	806.898
414.511	23.620	1058.790	806.575
415.526	23.731	1058.182	806.545
416.540	23.826	1057.858	806.657
417.555	23.777	1056.924	805.651
418.569	23.691	1056.562	804.914
419.584	23.661	1055.653	804.014
420.599	23.623	1055.488	803.646
421.613	157.616	1404.000	1798.115
422.628	144.784	1454.765	1798.227
