DTS Sentinel unit serial number:	SN413079Multiplexer serial number:	ORYXHardware model number:	OX4-SRSoftware version number:	ORYX F/W v4.00 Oryx Data Collector v3.7.2.0data status	okinstallation	princeton_trtdifferential loss correction	single-endedforward channel	channel 2reverse channel	N/Adate	2019/09/11time	00:37:11forward acquisition time	60.00reverse acquisition time	0.00gamma	496.2192k internal	0.2331k external	0.2331temperature offset calibration	0.9943default loss term (dB/km)	0.3790temperature slope calibration	1.0000multiplexer offset coefficient	1.0000multiplexer slope coefficient	1.0000fibre end	0.00T internal ref (°C)	29.19T ext. ref 1 (°C)	-0.31T ext. ref 2 (°C)	22.94length (m)	temperature (°C)	Stokes	anti-Stokes-747.200	-200.000	-0.015	-0.341
-746.185	-118.394	-0.135	-0.024
-745.171	800.000	-0.073	-0.277
-744.156	56.527	-0.154	0.151
-743.142	-200.000	-0.004	-0.030
-742.127	-58.642	0.126	-0.055
-741.112	249.221	0.187	-0.319
-740.098	673.685	0.032	0.084
-739.083	470.570	-0.091	-0.206
-738.069	-138.702	-0.361	-0.040
-737.054	87.205	-0.061	0.068
-736.039	-97.662	0.291	-0.076
-735.025	69.311	0.206	0.213
-734.010	-200.000	-0.002	-0.192
-732.996	-36.781	-0.206	-0.111
-731.981	28.687	-0.084	0.071
-730.966	-103.875	-0.362	-0.085
-729.952	580.376	0.022	-0.054
-728.937	784.031	0.116	-0.319
-727.923	-200.000	-0.056	-0.267
-726.908	-150.073	-0.322	-0.025
-725.894	-76.557	-0.208	-0.074
-724.879	745.827	0.104	-0.282
-723.864	-200.000	0.012	-0.319
-722.850	751.805	-0.115	0.311
-721.835	-132.602	0.141	0.018
-720.821	5.698	-0.282	-0.210
-719.806	-200.000	-0.004	-0.229
-718.791	-68.792	-0.196	-0.076
-717.777	41.240	-0.172	-0.156
-716.762	-101.000	-0.524	-0.129
-715.748	4.753	-0.074	-0.055
-714.733	-200.000	0.006	0.319
-713.718	323.250	0.037	-0.071
-712.704	186.402	-0.071	0.107
-711.689	-76.390	-0.229	-0.081
-710.675	-53.154	-0.333	-0.154
-709.660	-112.605	-0.362	-0.072
-708.645	34.268	-0.263	-0.231
-707.631	-10.581	0.141	0.094
-706.616	-200.000	-0.040	-0.406
-705.602	-105.672	-0.098	-0.022
-704.587	-14.932	-0.112	0.072
-703.572	-35.409	-0.158	-0.086
-702.558	562.110	-0.073	0.178
-701.543	800.000	0.040	0.120
-700.529	-200.000	0.001	0.146
-699.514	-200.000	-0.015	-0.150
-698.499	164.837	-0.171	-0.242
-697.485	-122.113	-0.275	-0.045
-696.470	347.276	0.211	-0.417
-695.456	-83.847	-0.086	0.027
-694.441	-125.225	0.029	0.005
-693.426	174.792	0.095	0.139
-692.412	480.719	-0.070	-0.160
-691.397	-116.531	-0.361	-0.067
-690.383	555.036	0.029	-0.071
-689.368	-44.228	-0.274	-0.138
-688.354	-132.966	-0.135	0.017
-687.339	-166.709	0.111	-0.005
-686.324	800.000	-0.046	-0.152
-685.310	-146.690	0.290	-0.025
-684.295	25.774	0.312	-0.261
-683.281	-108.205	-0.171	-0.037
-682.266	-171.094	-0.080	0.003
-681.251	612.758	0.119	-0.298
-680.237	-55.084	0.117	0.053
-679.222	-48.544	0.393	0.190
-678.208	300.130	-0.138	-0.256
-677.193	-69.050	0.155	-0.060
-676.178	-67.548	-0.151	0.060
-675.164	-139.963	0.228	0.024
-674.149	-159.010	-0.413	-0.024
-673.135	800.000	0.039	0.144
-672.120	-61.643	0.317	-0.133
-671.105	800.000	0.058	-0.163
-670.091	321.654	-0.080	-0.153
-669.076	32.774	0.248	-0.215
-668.062	-120.730	-0.276	0.047
-667.047	85.336	-0.038	0.042
-666.032	-19.314	-0.142	-0.088
-665.018	-57.118	0.057	-0.025
-664.003	-200.000	0.032	-0.331
-662.989	-44.962	-0.297	-0.149
-661.974	56.632	0.034	-0.033
-660.959	-104.694	0.126	-0.029
-659.945	134.772	-0.198	-0.257
-658.930	176.322	0.124	0.181
-657.916	-200.000	-0.004	0.104
-656.901	198.599	-0.128	0.196
-655.886	-166.620	-0.336	-0.014
-654.872	238.465	-0.213	-0.354
-653.857	-41.685	-0.135	-0.069
-652.843	-200.000	-0.078	0.365
-651.828	3.539	0.075	0.055
-650.814	800.000	0.132	-0.405
-649.799	-36.459	0.177	-0.096
-648.784	127.425	-0.175	-0.222
-647.770	-200.000	-0.033	0.318
-646.755	-9.793	-0.318	0.213
-645.741	42.550	0.149	0.136
-644.726	126.236	0.111	-0.140
-643.711	-200.000	0.004	0.074
-642.697	-200.000	0.005	0.037
-641.682	-111.839	-0.158	-0.032
-640.668	-175.104	-0.378	0.011
-639.653	-9.177	-0.237	-0.159
-638.638	-200.000	-0.060	-0.485
-637.624	219.123	-0.030	0.048
-636.609	246.964	-0.090	0.153
-635.595	-45.321	-0.077	-0.038
-634.580	800.000	0.064	0.232
-633.565	-29.306	0.083	0.048
-632.551	-200.000	0.042	-0.530
-631.536	171.995	0.169	-0.243
-630.522	-200.000	0.008	0.274
-629.507	-181.966	-0.354	0.007
-628.492	800.000	-0.060	-0.204
-627.478	-91.481	-0.356	-0.102
-626.463	-200.000	-0.023	-0.164
-625.449	-65.329	0.183	-0.074
-624.434	67.354	-0.054	-0.055
-623.419	-200.000	0.029	-0.184
-622.405	-88.767	-0.069	-0.020
-621.390	-54.612	0.318	0.144
-620.376	-95.216	-0.105	-0.028
-619.361	191.132	-0.242	-0.364
-618.346	-200.000	0.050	-0.348
-617.332	-20.677	-0.124	0.076
-616.317	-76.523	0.119	-0.042
-615.303	-112.371	-0.246	-0.049
-614.288	480.364	0.031	0.070
-613.273	-103.489	-0.249	-0.059
-612.259	398.827	-0.049	-0.104
-611.244	42.468	-0.175	-0.159
-610.230	146.393	0.180	0.242
-609.215	1.874	-0.070	0.051
-608.201	-80.737	0.084	0.028
-607.186	-80.606	-0.166	-0.055
-606.171	122.454	0.035	0.044
-605.157	-198.666	-0.250	0.001
-604.142	-200.000	-0.011	-0.322
-603.128	-200.000	-0.035	0.194
-602.113	34.054	-0.110	-0.096
-601.098	-200.000	-0.006	-0.253
-600.084	-88.472	0.135	-0.040
-599.069	555.596	-0.046	-0.111
-598.055	626.095	-0.080	0.203
-597.040	349.400	0.052	0.103
-596.025	132.934	-0.158	-0.204
-595.011	184.793	-0.147	0.217
-593.996	-35.072	0.391	0.213
-592.982	186.604	0.086	0.128
-591.967	-171.523	0.174	-0.006
-590.952	23.239	-0.209	-0.172
-589.938	-6.832	-0.062	0.042
-588.923	-34.235	-0.105	0.058
-587.909	9.061	0.045	-0.034
-586.894	-27.394	-0.141	0.082
-585.879	-94.917	-0.207	0.056
-584.865	54.531	-0.064	0.061
-583.850	-101.574	-0.096	0.023
-582.836	-49.337	0.427	0.204
-581.821	-77.506	0.173	-0.060
-580.806	-200.000	0.036	0.263
-579.792	24.313	0.109	-0.090
-578.777	-200.000	0.020	-0.093
-577.763	-200.000	-0.059	-0.266
-576.748	-23.116	0.075	0.045
-575.733	-200.000	0.038	0.344
-574.719	481.736	0.078	0.176
-573.704	-79.457	0.066	-0.022
-572.690	-124.963	0.275	0.042
-571.675	100.815	-0.013	0.015
-570.661	-15.072	-0.212	-0.136
-569.646	-3.699	-0.078	0.054
-568.631	174.116	0.073	0.105
-567.617	452.918	-0.063	-0.140
-566.602	-200.000	0.056	-0.393
-565.588	41.187	0.157	-0.142
-564.573	800.000	0.027	-0.077
-563.558	-200.000	0.014	-0.221
-562.544	-53.442	0.146	-0.067
-561.529	-28.770	0.286	-0.164
-560.515	41.400	0.266	-0.240
-559.500	-200.000	-0.047	-0.234
-558.485	-200.000	-0.047	-0.234
-557.471	362.225	0.133	0.267
-556.456	-22.464	0.113	-0.069
-555.442	-144.207	0.456	0.043
-554.427	800.000	0.057	0.238
-553.412	-50.732	0.282	-0.133
-552.398	-111.039	0.379	-0.078
-551.383	800.000	0.102	-0.320
-550.369	40.708	0.361	0.325
-549.354	-145.651	-0.171	0.015
-548.339	35.670	-0.177	-0.155
-547.325	118.684	-0.092	-0.114
-546.310	-200.000	-0.035	-0.284
-545.296	-22.476	0.126	-0.076
-544.281	-200.000	0.026	-0.308
-543.266	-14.397	-0.336	0.216
-542.252	-20.477	0.532	0.326
-541.237	-99.003	-0.131	-0.033
-540.223	544.665	-0.081	-0.194
-539.208	322.158	0.066	0.125
-538.193	6.450	-0.179	0.132
-537.179	546.683	-0.112	0.267
-536.164	18.276	0.103	-0.082
-535.150	-200.000	0.016	0.091
-534.135	-13.247	-0.307	0.199
-533.121	641.643	0.122	0.309
-532.106	266.348	0.066	0.114
-531.091	-64.846	-0.107	0.043
-530.077	-151.043	0.183	-0.014
-529.062	26.596	0.096	0.080
-528.048	-166.681	-0.331	0.014
-527.033	429.731	-0.106	-0.229
-526.018	-104.484	0.065	-0.015
-525.004	778.416	-0.020	0.055
-523.989	-200.000	-0.019	0.139
-522.975	-93.096	-0.244	0.068
-521.960	-54.149	0.029	0.013
-520.945	-25.638	-0.302	0.178
-519.931	-102.639	0.274	0.065
-518.916	21.732	-0.271	-0.220
-517.902	-28.806	-0.094	0.054
-516.887	800.000	0.119	0.410
-515.872	-142.040	-0.367	-0.036
-514.858	-200.000	-0.005	-0.197
-513.843	-58.048	0.062	0.027
-512.829	-56.016	0.245	-0.109
-511.814	22.131	-0.168	-0.137
-510.799	-62.371	-0.032	-0.013
-509.785	-200.000	-0.025	0.117
-508.770	-139.964	-0.410	-0.043
-507.756	-114.374	-0.070	-0.013
-506.741	-48.147	-0.256	0.123
-505.726	412.930	-0.055	0.117
-504.712	-175.292	-0.141	-0.004
-503.697	-95.566	-0.226	-0.060
-502.683	7.092	0.213	-0.159
-501.668	-191.310	0.096	-0.001
-500.653	800.000	-0.036	-0.104
-499.639	509.763	0.045	0.104
-498.624	-123.635	0.097	-0.015
-497.610	-200.000	-0.004	-0.153
-496.595	1.123	0.203	-0.145
-495.581	-200.000	0.023	0.242
-494.566	-200.000	-0.010	0.116
-493.551	-130.261	0.089	-0.012
-492.537	-51.626	-0.065	-0.030
-491.522	-200.000	0.007	-0.152
-490.508	55.408	-0.335	0.323
-489.493	800.000	0.032	0.104
-488.478	374.371	0.104	-0.212
-487.464	128.145	-0.158	0.201
-486.449	800.000	0.100	0.420
-485.435	-22.892	0.388	0.233
-484.420	283.122	-0.074	0.133
-483.405	-200.000	-0.012	-0.083
-482.391	20.319	0.256	-0.206
-481.376	147.158	-0.090	0.121
-480.362	800.000	-0.044	-0.180
-479.347	-200.000	0.002	0.136
-478.332	-134.530	-0.271	-0.033
-477.318	-44.959	-0.220	0.109
-476.303	-200.000	-0.013	-0.073
-475.289	117.738	0.124	-0.153
-474.274	-32.394	-0.238	0.132
-473.259	-119.210	-0.276	0.048
-472.245	-200.000	-0.034	0.332
-471.230	146.704	0.056	0.075
-470.216	145.316	0.120	-0.159
-469.201	589.597	-0.116	-0.284
-468.186	35.461	-0.137	-0.120
-467.172	283.142	0.139	-0.248
-466.157	-84.444	0.095	0.030
-465.143	94.525	-0.061	0.068
-464.128	707.571	0.103	0.271
-463.113	-86.719	0.140	-0.042
-462.099	-68.166	-0.081	0.031
-461.084	154.343	0.085	0.116
-460.070	-106.219	-0.249	0.055
-459.055	800.000	-0.093	0.344
-458.040	-60.184	0.200	0.085
-457.026	-72.397	-0.284	-0.104
-456.011	-154.572	-0.301	0.020
-454.997	-74.760	-0.082	-0.029
-453.982	66.629	0.186	0.188
-452.968	198.961	-0.078	0.118
-451.953	-176.248	-0.314	-0.008
-450.938	-200.000	0.001	0.050
-449.924	-138.388	-0.158	-0.017
-448.909	-82.446	0.444	-0.143
-447.895	-200.000	-0.008	-0.176
-446.880	-82.927	-0.572	0.184
-445.865	154.179	-0.095	0.129
-444.851	-200.000	-0.046	-0.348
-443.836	-101.363	0.388	0.094
-442.822	-200.000	0.053	0.279
-441.807	-200.000	-0.043	0.231
-440.792	800.000	0.087	0.243
-439.778	-180.092	0.303	0.006
-438.763	-200.000	0.046	0.632
-437.749	162.374	0.141	-0.196
-436.734	216.334	0.022	-0.035
-435.719	-200.000	-0.048	0.237
-434.705	-200.000	-0.003	0.031
-433.690	-22.671	-0.065	0.039
-432.676	800.000	0.043	-0.141
-431.661	-180.054	-0.514	-0.011
-430.646	-82.368	0.067	0.022
-429.632	143.470	0.221	-0.292
-428.617	-160.029	-0.059	-0.003
-427.603	-139.781	-0.077	0.008
-426.588	180.964	0.047	0.068
-425.573	-79.230	-0.150	-0.051
-424.559	-114.000	0.385	-0.074
-423.544	155.986	0.208	-0.285
-422.530	81.925	0.113	0.122
-421.515	-119.014	0.385	-0.067
-420.500	20.737	-0.280	-0.225
-419.486	-27.751	-0.098	0.056
-418.471	-198.005	0.363	0.002
-417.457	-89.139	-0.308	0.090
-416.442	104.269	-0.064	0.074
-415.428	46.582	0.177	0.163
-414.413	800.000	-0.019	-0.059
-413.398	430.356	0.173	-0.373
-412.384	81.133	-0.161	-0.172
-411.369	42.583	-0.099	0.089
-410.355	-200.000	0.014	-0.182
-409.340	68.419	-0.321	0.327
-408.325	-162.877	-0.167	0.008
-407.311	266.794	-0.104	-0.181
-406.296	800.000	-0.075	0.262
-405.282	-37.629	0.117	0.062
-404.267	-200.000	0.009	0.089
-403.252	5.324	0.037	-0.027
-402.238	124.689	-0.127	-0.158
-401.223	199.518	-0.111	0.169
-400.209	-54.432	-0.185	-0.083
-399.194	-35.757	0.122	-0.065
-398.179	50.103	-0.206	-0.193
-397.165	-68.471	-0.109	-0.042
-396.150	800.000	0.019	-0.054
-395.136	-62.327	-0.233	-0.096
-394.121	196.868	0.066	0.100
-393.106	-75.358	-0.111	-0.039
-392.092	-157.523	-0.375	0.022
-391.077	512.027	-0.158	-0.365
-390.063	186.130	-0.080	-0.118
-389.048	800.000	-0.128	-0.410
-388.033	-105.463	-0.066	-0.015
-387.019	800.000	0.074	0.311
-386.004	-72.159	0.154	0.057
-384.990	-118.466	-0.136	-0.024
-383.975	800.000	0.066	0.265
-382.960	-51.145	0.452	0.210
-381.946	316.952	-0.074	0.139
-380.931	134.028	-0.140	0.180
-379.917	-200.000	0.017	-0.136
-378.902	115.140	0.176	0.213
-377.888	-106.449	-0.385	0.085
-376.873	690.115	-0.043	-0.112
-375.858	-23.449	-0.088	0.053
-374.844	703.127	0.142	-0.371
-373.829	658.628	0.006	-0.015
-372.815	-39.731	-0.248	-0.129
-371.800	-183.201	-0.072	0.001
-370.785	-7.265	-0.106	0.071
-369.771	-71.694	-0.457	-0.169
-368.756	78.214	0.252	-0.266
-367.742	-175.715	0.091	0.002
-366.727	800.000	0.030	0.093
-365.712	-66.554	-0.088	0.035
-364.698	292.801	0.056	-0.102
-363.683	-82.435	0.058	-0.019
-362.669	-200.000	0.004	0.148
-361.654	348.818	-0.248	0.484
-360.639	131.101	0.103	-0.132
-359.625	238.404	-0.053	0.087
-358.610	176.200	-0.148	0.214
-357.596	69.134	0.159	0.162
-356.581	-56.014	-0.409	0.181
-355.566	-124.297	0.196	0.030
-354.552	387.771	0.096	0.196
-353.537	352.223	0.121	0.239
-352.523	299.944	-0.022	-0.041
-351.508	-58.875	0.029	-0.012
-350.493	365.471	-0.121	0.242
-349.479	40.332	-0.367	0.328
-348.464	-156.199	0.254	0.016
-347.450	-91.111	0.239	0.068
-346.435	-90.455	0.089	0.025
-345.420	-150.345	0.162	0.012
-344.406	-200.000	-0.012	0.342
-343.391	183.235	0.044	-0.065
-342.377	176.849	-0.155	-0.224
-341.362	-128.499	0.117	0.016
-340.348	800.000	0.033	0.129
-339.333	429.033	-0.075	0.161
-338.318	78.526	0.135	0.142
-337.304	-200.000	0.147	-0.000
-336.289	39.382	0.143	-0.127
-335.275	98.541	0.315	-0.360
-334.260	449.287	-0.091	0.198
-333.245	800.000	-0.052	-0.184
-332.231	800.000	-0.030	-0.105
-331.216	2.091	-0.110	0.078
-330.202	-157.332	0.129	0.008
-329.187	-200.000	0.017	-0.140
-328.172	380.168	0.116	-0.235
-327.158	124.652	-0.052	-0.065
-326.143	464.408	-0.038	-0.083
-325.129	176.267	0.043	-0.062
-324.114	-167.797	-0.171	0.007
-323.099	68.818	-0.170	-0.172
-322.085	-200.000	-0.068	0.000
-321.070	-200.000	0.048	-0.219
-320.056	-182.657	0.461	-0.008
-319.041	-200.000	-0.001	0.013
-318.026	112.650	0.226	0.271
-317.012	180.551	0.290	0.422
-315.997	182.833	-0.133	-0.194
-314.983	131.328	-0.047	0.059
-313.968	-54.423	0.311	-0.139
-312.953	-78.101	0.039	-0.013
-311.939	294.880	0.110	0.199
-310.924	800.000	-0.055	0.167
-309.910	213.550	-0.154	0.241
-308.895	82.585	0.129	-0.138
-307.880	422.039	-0.064	-0.136
-306.866	800.000	0.069	-0.254
-305.851	60.314	0.118	0.116
-304.837	-169.040	-0.271	0.010
-303.822	800.000	-0.039	-0.106
-302.807	110.502	0.272	-0.324
-301.793	-43.442	0.182	-0.091
-300.778	-148.097	-0.033	0.003
-299.764	330.825	0.047	-0.089
-298.749	109.154	-0.221	-0.262
-297.735	-152.903	0.191	-0.013
-296.720	120.368	0.170	-0.208
-295.705	-65.658	-0.240	0.095
-294.691	5.336	0.269	-0.196
-293.676	-93.822	0.094	-0.026
-292.662	-53.060	-0.367	0.167
-291.647	117.160	0.099	-0.120
-290.632	-114.439	-0.155	-0.029
-289.618	-26.053	-0.253	-0.147
-288.603	687.403	0.073	0.189
-287.589	-200.000	0.027	-0.179
-286.574	-63.188	-0.275	-0.112
-285.559	226.500	-0.093	-0.150
-284.545	-15.678	-0.027	0.017
-283.530	-200.000	-0.003	0.363
-282.516	-200.000	-0.021	-0.329
-281.501	-127.232	0.196	-0.028
-280.486	-106.375	0.205	-0.045
-279.472	-57.536	-0.080	0.035
-278.457	454.336	0.037	0.081
-277.443	-111.056	-0.280	0.057
-276.428	-200.000	-0.029	-0.249
-275.413	-200.000	0.028	0.169
-274.399	111.331	0.068	0.081
-273.384	38.378	0.163	0.144
-272.370	-60.136	0.164	0.069
-271.355	657.717	-0.130	0.330
-270.340	23.786	0.096	-0.078
-269.326	88.661	0.119	0.131
-268.311	-113.356	-0.282	0.055
-267.297	-176.680	0.293	0.007
-266.282	-51.365	-0.048	-0.022
-265.267	89.438	0.048	0.053
-264.253	-119.921	-0.245	-0.042
-263.238	-200.000	0.005	0.110
-262.224	158.591	0.098	-0.135
-261.209	218.721	0.119	0.188
-260.195	-200.000	-0.023	-0.323
-259.180	-200.000	0.049	-0.573
-258.165	800.000	-0.038	0.104
-257.151	-200.000	0.033	-0.183
-256.136	-88.039	-0.056	0.017
-255.122	-54.104	0.090	0.040
-254.107	588.344	-0.077	0.187
-253.092	-200.000	0.023	-0.154
-252.078	-200.000	-0.015	0.244
-251.063	301.012	0.204	0.373
-250.049	800.000	0.041	0.127
-249.034	-126.890	0.213	-0.031
-248.019	164.541	0.197	0.274
-247.005	-200.000	-0.000	-0.053
-245.990	166.261	-0.223	0.311
-244.976	-38.841	0.159	-0.083
-243.961	-200.000	0.038	-0.188
-242.946	266.679	0.055	0.095
-241.932	-200.000	0.008	0.118
-240.917	-169.616	-0.323	-0.012
-239.903	-200.000	-0.016	-0.147
-238.888	-90.953	0.201	-0.057
-237.873	-2.674	-0.073	-0.050
-236.859	-68.681	-0.125	0.048
-235.844	-200.000	0.003	0.160
-234.830	88.038	0.085	0.093
-233.815	-200.000	0.027	-0.181
-232.800	-136.122	-0.086	-0.010
-231.786	-153.864	0.194	0.013
-230.771	449.883	0.150	-0.326
-229.757	-200.000	-0.026	-0.185
-228.742	-82.605	-0.137	0.044
-227.727	-200.000	0.016	0.204
-226.713	-22.035	0.140	0.084
-225.698	-200.000	-0.014	-0.245
-224.684	190.632	0.124	0.183
-223.669	120.671	-0.119	0.146
-222.655	-74.888	-0.026	0.009
-221.640	-200.000	0.014	-0.108
-220.625	-92.149	-0.031	-0.009
-219.611	7.909	-0.276	-0.204
-218.596	800.000	0.063	-0.265
-217.582	57.067	-0.051	-0.049
-216.567	-39.012	0.111	-0.058
-215.552	-139.543	-0.091	0.010
-214.538	-200.000	0.009	0.308
-213.523	-44.090	0.332	-0.164
-212.509	-112.019	-0.189	0.038
-211.494	202.905	0.154	-0.234
-210.479	-49.507	-0.119	-0.056
-209.465	249.625	0.094	-0.156
-208.450	800.000	-0.061	0.212
-207.436	15.345	0.268	0.207
-206.421	-84.581	0.372	0.116
-205.406	-48.556	-0.145	0.069
-204.392	189.757	-0.074	-0.109
-203.377	-139.216	0.319	0.034
-202.363	363.221	-0.178	-0.353
-201.348	338.996	0.126	0.241
-200.333	800.000	-0.042	0.172
-199.319	800.000	0.051	0.174
-198.304	-200.000	-0.066	-0.446
-197.290	-4.351	0.073	-0.050
-196.275	-40.936	0.089	-0.045
-195.260	41.677	0.452	-0.403
-194.246	67.392	-0.205	0.206
-193.231	-107.123	0.054	0.012
-192.217	-107.405	0.362	0.078
-191.202	95.472	-0.063	0.071
-190.187	84.543	-0.017	0.018
-189.173	48.321	0.061	-0.057
-188.158	-200.000	-0.000	0.377
-187.144	-148.764	-0.216	0.017
-186.129	-182.536	-0.198	-0.004
-185.114	800.000	-0.052	0.212
-184.100	-2.586	-0.272	0.187
-183.085	-114.109	0.257	0.049
-182.071	365.193	0.168	-0.332
-181.056	-82.055	-0.154	-0.050
-180.042	8.567	0.164	0.122
-179.027	113.223	-0.257	0.307
-178.012	208.935	-0.115	0.177
-176.998	10.323	0.287	-0.215
-175.983	-200.000	-0.057	-0.358
-174.969	-44.774	0.329	0.161
-173.954	-52.167	0.191	-0.087
-172.939	-200.000	0.006	0.267
-171.925	-149.879	-0.445	0.034
-170.910	348.722	0.122	-0.237
-169.896	-137.750	-0.428	0.047
-168.881	-200.000	-0.026	0.189
-167.866	82.524	0.226	0.242
-166.852	-200.000	0.026	0.197
-165.837	234.510	-0.071	-0.114
-164.823	-67.593	0.341	0.131
-163.808	800.000	-0.093	0.327
-162.793	800.000	-0.076	-0.247
-161.779	-148.283	0.478	0.039
-160.764	-66.679	0.281	-0.110
-159.750	11.788	0.013	0.010
-158.735	45.556	0.082	-0.074
-157.720	23.148	-0.069	-0.056
-156.706	800.000	0.072	-0.281
-155.691	-135.249	0.316	-0.037
-154.677	800.000	0.071	-0.217
-153.662	269.862	0.171	-0.296
-152.647	800.000	-0.061	-0.228
-151.633	-199.795	-0.327	0.002
-150.618	-200.000	0.032	0.318
-149.604	-200.000	-0.003	-0.032
-148.589	77.990	0.134	-0.140
-147.574	-121.722	0.379	-0.062
-146.560	747.253	-0.060	-0.159
-145.545	-200.000	0.043	0.361
-144.531	93.959	-0.199	0.221
-143.516	-72.483	0.218	0.079
-142.502	-200.000	0.025	0.230
-141.487	138.308	0.093	-0.120
-140.472	363.452	-0.103	-0.204
-139.458	214.311	0.208	0.324
-138.443	-200.000	0.055	-0.286
-137.429	473.218	-0.145	0.321
-136.414	-135.680	-0.342	0.040
-135.399	66.953	0.196	-0.196
-134.385	370.478	-0.026	0.052
-133.370	162.352	-0.073	0.101
-132.356	479.883	0.120	0.267
-131.341	-2.046	0.135	-0.093
-130.326	86.762	-0.196	-0.213
-129.312	70.305	0.180	-0.182
-128.297	-39.777	-0.051	-0.026
-127.283	-41.077	0.174	-0.088
-126.268	800.000	0.047	-0.146
-125.253	93.355	0.156	-0.173
-124.239	202.831	-0.133	0.202
-123.224	63.494	0.265	0.261
-122.210	-128.467	-0.245	0.034
-121.195	-129.503	-0.073	-0.010
-120.180	-33.775	0.140	-0.076
-119.166	198.240	-0.185	-0.278
-118.151	800.000	0.022	0.076
-117.137	57.143	0.224	0.215
-116.122	-200.000	0.028	0.491
-115.107	-115.319	-0.024	-0.004
-114.093	370.111	0.194	-0.386
-113.078	-7.020	0.425	-0.283
-112.064	70.311	0.151	-0.153
-111.049	-1.314	-0.058	0.040
-110.034	397.744	0.144	0.296
-109.020	800.000	-0.137	0.385
-108.005	-53.164	-0.310	0.140
-106.991	-14.690	0.186	-0.117
-105.976	-84.338	-0.118	-0.037
-104.962	53.179	-0.331	-0.311
-103.947	312.166	-0.076	-0.141
-102.932	800.000	0.024	0.067
-101.918	-80.852	0.253	-0.082
-100.903	-124.724	-0.154	0.023
-99.889	80.241	0.049	0.052
-98.874	603.797	-0.006	-0.016
-97.859	-19.841	-0.153	-0.093
-96.845	-24.909	0.058	0.034
-95.830	-200.000	-0.019	0.133
-94.816	603.170	-0.078	0.191
-93.801	-200.000	-0.041	0.232
-92.786	76.383	0.068	0.071
-91.772	-166.982	-0.102	-0.004
-90.757	91.505	-0.218	0.240
-89.743	-190.213	0.321	0.003
-88.728	-80.501	0.283	0.092
-87.713	111.978	-0.153	0.181
-86.699	-121.998	0.228	0.037
-85.684	60.697	-0.204	0.198
-84.670	-57.108	0.377	-0.163
-83.655	48.748	0.158	-0.145
-82.640	206.810	-0.069	-0.106
-81.626	-21.398	0.275	0.164
-80.611	187.176	-0.103	-0.151
-79.597	293.382	-0.224	0.401
-78.582	-169.606	0.374	0.013
-77.567	-31.307	-0.101	0.056
-76.553	-200.000	0.022	-0.249
-75.538	206.083	-0.169	-0.258
-74.524	39.879	0.124	0.109
-73.509	210.312	-0.093	0.144
-72.494	800.000	0.062	-0.248
-71.480	-44.907	-0.198	0.097
-70.465	-59.931	-0.229	-0.096
-69.451	-200.000	0.000	0.318
-68.436	9.718	-0.223	-0.166
-67.422	-93.954	0.295	0.080
-66.407	-156.520	0.119	0.007
-65.392	-200.000	-0.011	-0.128
-64.378	139.400	0.043	-0.055
-63.363	36.465	0.336	0.291
-62.349	-200.000	-0.005	-0.025
-61.334	113.360	-0.829	-0.986
-60.319	33.753	0.821	0.699
-59.305	800.000	-0.348	-1.374
-58.290	132.405	0.647	0.817
-57.276	-200.000	0.410	1.864
-56.261	-200.000	107.434	621.033
-55.246	518.949	1511.473	3467.134
-54.232	175.190	2709.678	3844.722
-53.217	104.323	2293.884	2643.990
-52.203	38.427	1899.125	1657.606
-51.188	32.476	1685.828	1426.448
-50.173	29.848	1642.258	1370.097
-49.159	48.504	1696.868	1556.651
-48.144	48.722	1712.062	1572.176
-47.130	31.958	1669.052	1408.143
-46.115	29.429	1654.683	1377.115
-45.100	29.118	1650.052	1370.889
-44.086	29.080	1647.241	1368.215
-43.071	29.062	1644.556	1365.797
-42.057	29.046	1642.038	1363.536
-41.042	29.103	1640.001	1362.213
-40.027	29.083	1638.354	1360.641
-39.013	29.070	1636.056	1358.585
-37.998	29.028	1635.054	1357.387
-36.984	29.057	1633.372	1356.152
-35.969	29.170	1631.942	1355.745
-34.954	29.190	1630.247	1354.426
-33.940	29.167	1628.283	1352.571
-32.925	29.337	1626.020	1351.884
-31.911	29.211	1624.473	1349.622
-30.896	29.152	1623.058	1347.967
-29.881	29.213	1621.707	1347.235
-28.867	29.136	1620.221	1345.386
-27.852	29.168	1618.324	1343.989
-26.838	29.157	1617.065	1342.808
-25.823	29.163	1615.899	1341.832
-24.809	29.174	1614.747	1340.898
-23.794	29.235	1612.998	1339.841
-22.779	29.171	1611.305	1337.914
-21.765	29.145	1610.043	1336.624
-20.750	29.223	1607.899	1335.354
-19.736	29.182	1606.924	1334.199
-18.721	29.263	1605.470	1333.522
-17.706	29.194	1603.771	1331.563
-16.692	29.138	1602.651	1330.173
-15.677	29.237	1601.266	1329.687
-14.663	29.303	1599.676	1328.787
-13.648	29.263	1598.438	1327.417
-12.633	29.166	1597.031	1325.498
-11.619	29.293	1595.266	1324.897
-10.604	29.212	1593.684	1322.949
-9.590	29.247	1592.696	1322.326
-8.575	29.242	1591.379	1321.142
-7.560	29.204	1590.613	1320.185
-6.546	29.239	1589.220	1319.225
-5.531	29.260	1588.517	1318.739
-4.517	29.271	1586.877	1317.404
-3.502	29.163	1586.265	1316.074
-2.487	29.335	1583.850	1315.244
-1.473	29.010	1572.003	1303.057
-0.458	26.231	1552.487	1267.356
0.556	20.382	1554.378	1236.562
1.571	18.245	1579.180	1240.705
2.586	17.986	1592.204	1248.928
3.600	16.342	1539.755	1196.050
4.615	8.761	1430.648	1061.141
5.629	1.175	1367.300	965.888
6.644	-0.215	1359.225	951.292
7.659	-0.252	1358.024	950.132
8.673	-0.382	1357.028	948.532
9.688	-0.380	1354.878	946.956
10.702	-0.573	1352.024	943.664
11.717	2.529	1358.126	967.454
12.731	11.563	1375.290	1037.173
13.746	19.155	1387.835	1095.000
14.761	20.912	1390.636	1108.297
15.775	21.353	1390.389	1110.809
16.790	21.272	1390.007	1109.888
17.804	21.409	1389.082	1109.923
18.819	21.634	1389.121	1111.283
19.834	21.706	1388.422	1111.086
20.848	21.800	1387.596	1110.922
21.863	21.739	1386.636	1109.669
22.877	21.735	1386.058	1109.077
23.892	21.723	1384.701	1107.818
24.907	21.762	1384.064	1107.458
25.921	21.764	1383.599	1107.002
26.936	21.738	1382.471	1105.835
27.950	21.787	1381.028	1104.895
28.965	21.747	1380.265	1103.931
29.980	21.691	1378.697	1102.229
30.994	21.774	1377.229	1101.479
32.009	21.734	1376.537	1100.576
33.023	21.701	1375.410	1099.371
34.038	21.775	1374.332	1098.877
35.053	21.735	1373.616	1097.959
36.067	21.683	1372.327	1096.501
37.082	21.721	1371.295	1095.821
38.096	21.735	1370.353	1095.059
39.111	21.682	1369.800	1094.188
40.126	21.864	1368.610	1094.274
41.140	21.774	1368.249	1093.329
42.155	21.711	1368.566	1093.092
43.169	21.744	1368.136	1092.857
44.184	21.751	1368.032	1092.722
45.199	21.779	1367.178	1092.116
46.213	21.763	1366.814	1091.630
47.228	21.749	1365.069	1090.052
48.242	21.786	1364.394	1089.648
49.257	21.807	1362.885	1088.478
50.271	21.802	1361.235	1087.031
51.286	21.731	1360.435	1085.855
52.301	21.795	1358.904	1084.938
53.315	21.769	1358.145	1084.073
54.330	21.757	1357.676	1083.528
55.344	21.765	1356.127	1082.242
56.359	21.825	1355.128	1081.724
57.374	21.700	1354.909	1080.682
58.388	21.728	1353.870	1079.926
59.403	21.814	1353.655	1080.189
60.417	21.687	1352.661	1078.521
61.432	21.722	1351.681	1077.862
62.447	21.720	1351.387	1077.515
63.461	21.722	1350.256	1076.531
64.476	21.844	1348.741	1075.980
65.490	21.734	1347.778	1074.437
66.505	21.743	1346.393	1073.294
67.520	21.790	1345.324	1072.637
68.534	21.811	1343.969	1071.590
69.549	21.707	1343.514	1070.497
70.563	21.794	1342.269	1069.942
71.578	21.778	1341.096	1068.815
72.593	21.769	1340.276	1068.008
73.607	21.843	1339.312	1067.600
74.622	21.815	1338.922	1067.022
75.636	21.788	1338.069	1066.082
76.651	21.893	1337.242	1065.967
77.666	21.726	1337.171	1064.807
78.680	21.686	1336.423	1063.871
79.695	21.656	1335.951	1063.221
80.709	21.821	1334.429	1062.916
81.724	21.776	1334.236	1062.396
82.739	21.735	1332.992	1061.061
83.753	21.784	1331.734	1060.262
84.768	21.785	1330.411	1059.123
85.782	21.729	1329.424	1057.902
86.797	21.892	1328.230	1057.839
87.812	21.833	1327.412	1056.744
88.826	21.824	1326.111	1055.556
89.841	21.758	1325.253	1054.387
90.855	21.862	1323.921	1053.859
91.870	21.755	1323.428	1052.730
92.884	21.823	1322.497	1052.305
93.899	21.828	1321.508	1051.455
94.914	21.919	1320.863	1051.390
95.928	21.926	1319.628	1050.356
96.943	21.861	1319.255	1049.581
97.957	21.869	1318.438	1048.884
98.972	21.834	1317.558	1047.882
99.987	21.930	1316.780	1047.742
101.001	21.752	1316.235	1046.156
102.016	21.784	1314.763	1045.084
103.030	21.902	1313.688	1044.840
104.045	21.828	1313.662	1044.283
105.060	21.870	1311.736	1042.910
106.074	22.004	1310.796	1042.868
107.089	21.911	1309.808	1041.437
108.103	21.802	1308.769	1039.874
109.118	21.910	1307.418	1039.350
110.133	21.893	1306.335	1038.291
111.147	21.944	1305.406	1037.762
112.162	21.957	1304.703	1037.194
113.176	21.979	1303.035	1035.903
114.191	21.903	1302.870	1035.230
115.206	21.997	1301.420	1034.542
116.220	21.843	1300.368	1032.707
117.235	21.874	1299.010	1031.722
118.249	21.899	1298.147	1031.090
119.264	21.853	1297.583	1030.280
120.279	21.992	1296.331	1030.014
121.293	21.949	1295.992	1029.401
122.308	21.918	1294.931	1028.281
123.322	21.912	1294.304	1027.661
124.337	22.038	1293.041	1027.301
125.352	22.063	1291.994	1026.529
126.366	21.963	1291.167	1025.192
127.381	21.981	1290.226	1024.464
128.395	22.055	1289.113	1023.917
129.410	21.930	1288.829	1022.876
130.424	21.894	1287.891	1021.830
131.439	21.991	1287.039	1021.625
132.454	21.884	1286.339	1020.356
133.468	21.892	1285.196	1019.410
134.483	21.872	1284.847	1018.927
135.497	21.999	1283.655	1018.626
136.512	21.910	1282.755	1017.307
137.527	21.961	1281.617	1016.611
138.541	21.872	1280.385	1015.028
139.556	21.948	1279.019	1014.293
140.570	21.846	1277.698	1012.568
141.585	21.917	1276.774	1012.155
142.600	21.922	1275.274	1010.907
143.614	21.974	1274.890	1010.809
144.629	21.972	1273.561	1009.658
145.643	21.889	1272.585	1008.315
146.658	21.793	1271.759	1007.022
147.673	21.935	1270.277	1006.576
148.687	21.968	1269.345	1005.932
149.702	21.919	1268.170	1004.636
150.716	21.924	1266.870	1003.542
151.731	21.866	1266.505	1002.833
152.746	21.999	1265.503	1002.712
153.760	21.993	1264.311	1001.642
154.775	21.947	1263.285	1000.479
155.789	21.927	1262.501	999.658
156.804	21.896	1261.564	998.650
157.819	21.969	1260.468	998.109
158.833	22.023	1259.953	997.923
159.848	21.971	1258.894	996.701
160.862	22.004	1258.265	996.297
161.877	22.043	1256.970	995.408
162.892	21.989	1256.704	994.801
163.906	22.070	1255.971	994.592
164.921	22.066	1255.309	993.959
165.935	22.046	1254.156	992.844
166.950	22.054	1253.337	992.153
167.964	22.160	1252.957	992.364
168.979	22.153	1251.938	991.426
169.994	22.065	1251.842	990.770
171.008	22.139	1250.930	990.374
172.023	22.121	1249.896	989.368
173.037	21.998	1249.626	988.372
174.052	22.082	1248.923	988.201
175.067	22.070	1248.166	987.452
176.081	22.057	1246.929	986.313
177.096	22.058	1246.416	985.822
178.110	22.078	1245.279	984.951
179.125	22.140	1244.479	984.578
180.140	22.133	1243.331	983.541
181.154	22.139	1242.094	982.511
182.169	22.147	1241.002	981.603
183.183	22.137	1240.212	980.833
184.198	22.226	1239.033	980.312
185.213	22.137	1238.169	979.049
186.227	22.140	1237.510	978.458
187.242	22.177	1236.589	977.847
188.256	22.173	1235.762	977.087
189.271	22.132	1234.955	976.132
190.286	22.156	1234.262	975.634
191.300	22.198	1233.898	975.488
192.315	22.176	1232.965	974.547
193.329	22.201	1232.792	974.458
194.344	22.096	1232.651	973.679
195.359	22.215	1231.851	973.624
196.373	22.161	1231.296	972.799
197.388	22.185	1230.941	972.564
198.402	22.150	1230.609	972.024
199.417	22.124	1229.907	971.236
200.432	22.158	1229.298	970.858
201.446	22.162	1228.599	970.241
202.461	22.197	1227.423	969.420
203.475	22.115	1226.984	968.540
204.490	22.137	1225.758	967.603
205.504	22.214	1224.933	967.290
206.519	22.208	1224.075	966.494
207.534	22.247	1223.030	965.800
208.548	22.213	1222.098	964.793
209.563	22.240	1221.482	964.368
210.577	22.139	1221.043	963.383
211.592	22.325	1219.850	963.371
212.607	22.334	1219.023	962.686
213.621	22.253	1218.496	961.743
214.636	22.277	1217.496	960.998
215.650	22.280	1216.919	960.475
216.665	22.193	1215.901	959.112
217.680	22.235	1215.051	958.581
218.694	22.282	1214.140	958.034
219.709	22.310	1213.782	957.819
220.723	22.255	1212.751	956.621
221.738	22.286	1212.024	956.133
222.753	22.180	1211.398	954.978
223.767	22.254	1210.932	954.927
224.782	22.285	1210.425	954.615
225.796	22.236	1209.774	953.750
226.811	22.245	1209.316	953.352
227.826	22.439	1208.429	953.618
228.840	22.337	1207.933	952.594
229.855	22.287	1207.259	951.707
230.869	22.283	1206.849	951.275
231.884	22.289	1206.103	950.634
232.899	22.413	1205.133	950.455
233.913	22.379	1204.248	949.492
234.928	22.457	1203.993	949.628
235.942	22.445	1203.568	949.146
236.957	22.342	1202.838	947.931
237.972	22.244	1202.195	946.810
238.986	22.358	1201.344	946.673
240.001	22.438	1201.192	946.897
241.015	22.475	1200.346	946.346
242.030	22.555	1199.250	945.825
243.045	22.501	1198.586	944.929
244.059	22.601	1197.458	944.491
245.074	22.645	1196.708	944.055
246.088	22.498	1196.325	942.883
247.103	22.684	1194.922	942.685
248.117	22.645	1194.450	942.022
249.132	22.548	1193.924	941.004
250.147	22.644	1193.001	940.706
251.161	22.596	1192.325	939.835
252.176	22.651	1191.715	939.566
253.190	22.560	1191.190	938.582
254.205	22.694	1190.066	938.326
255.220	22.654	1190.060	938.027
256.234	22.614	1189.294	937.127
257.249	22.599	1188.834	936.599
258.263	22.526	1188.623	935.962
259.278	22.695	1187.201	935.656
260.293	22.692	1186.805	935.248
261.307	22.663	1186.680	934.910
262.322	22.743	1185.700	934.482
263.336	22.671	1185.014	933.479
264.351	22.540	1184.992	932.685
265.366	22.674	1184.095	932.604
266.380	22.635	1183.411	931.776
267.395	22.578	1182.668	930.808
268.409	22.700	1181.718	930.622
269.424	22.708	1181.444	930.364
270.439	22.708	1180.876	929.838
271.453	22.805	1179.891	929.491
272.468	22.611	1179.109	927.770
273.482	22.735	1178.560	927.910
274.497	22.660	1178.621	927.478
275.512	22.862	1177.401	927.497
276.526	22.771	1176.990	926.612
277.541	22.764	1176.547	926.149
278.555	22.824	1175.590	925.626
279.570	22.793	1174.615	924.616
280.585	22.771	1174.280	924.152
281.599	22.830	1173.160	923.500
282.614	22.734	1172.606	922.481
283.628	22.801	1171.519	921.895
284.643	22.853	1170.285	921.112
285.657	22.805	1169.842	920.429
286.672	22.806	1169.149	919.808
287.687	22.873	1168.136	919.278
288.701	22.821	1168.131	918.924
289.716	22.871	1167.314	918.462
290.730	22.912	1166.432	917.896
291.745	22.946	1165.450	917.222
292.760	22.990	1165.124	917.112
293.774	22.949	1164.631	916.429
294.789	22.879	1164.319	915.738
295.803	22.848	1163.841	915.120
296.818	22.932	1162.989	914.805
297.833	22.996	1162.042	914.313
298.847	23.129	1161.170	914.230
299.862	23.017	1160.717	913.214
300.876	23.080	1159.738	912.690
301.891	23.048	1159.238	912.052
302.906	23.081	1158.953	911.916
303.920	23.034	1158.078	910.907
304.935	23.166	1157.354	910.934
305.949	23.138	1156.708	910.201
306.964	23.138	1155.798	909.406
307.979	23.116	1155.305	908.824
308.993	23.148	1154.937	908.618
310.008	23.159	1153.929	907.801
311.022	23.063	1153.230	906.680
312.037	23.144	1152.609	906.523
313.052	23.144	1151.505	905.576
314.066	23.090	1150.885	904.734
315.081	22.986	1150.244	903.616
316.095	23.077	1149.635	903.524
317.110	23.165	1148.787	903.228
318.125	23.157	1148.172	902.619
319.139	23.223	1147.613	902.440
320.154	23.237	1147.168	902.078
321.168	23.239	1146.831	901.744
322.183	23.184	1146.147	900.847
323.197	23.189	1145.624	900.383
324.212	23.193	1144.887	899.743
325.227	23.231	1144.283	899.383
326.241	23.249	1143.850	899.053
327.256	23.307	1142.682	898.352
328.270	23.317	1142.015	897.795
329.285	23.250	1141.415	896.905
330.300	23.258	1140.652	896.268
331.314	23.418	1139.686	896.241
332.329	23.201	1139.441	894.870
333.343	23.273	1138.628	894.515
334.358	23.403	1137.404	894.130
335.373	23.325	1136.769	893.162
336.387	23.367	1136.288	892.915
337.402	23.449	1135.396	892.546
338.416	23.298	1134.985	891.386
339.431	23.366	1134.322	891.130
340.446	23.384	1134.030	890.911
341.460	23.480	1132.714	890.282
342.475	23.473	1131.639	889.319
343.489	23.404	1131.329	888.650
344.504	23.520	1130.201	888.271
345.519	23.433	1129.746	887.396
346.533	23.447	1128.888	886.714
347.548	23.613	1127.762	886.580
348.562	23.460	1127.432	885.478
349.577	23.519	1126.543	884.996
350.592	23.531	1125.645	884.275
351.606	23.522	1125.059	883.688
352.621	23.656	1124.626	883.938
353.635	23.519	1124.262	882.892
354.650	23.550	1123.820	882.623
355.665	23.561	1122.790	881.788
356.679	23.584	1122.332	881.468
357.694	23.544	1121.728	880.717
358.708	23.674	1120.521	880.336
359.723	23.570	1120.522	879.739
360.738	23.560	1119.823	879.063
361.752	23.653	1119.062	878.849
362.767	23.575	1118.744	878.139
363.781	23.703	1117.888	878.021
364.796	23.704	1117.156	877.370
365.810	23.741	1116.650	877.082
366.825	23.642	1116.247	876.197
367.840	23.699	1115.573	875.871
368.854	23.822	1114.797	875.791
369.869	23.751	1114.566	875.184
370.883	23.775	1113.534	874.411
371.898	23.848	1112.639	873.993
372.913	23.727	1112.504	873.213
373.927	23.726	1111.909	872.665
374.942	23.774	1111.500	872.504
375.956	23.799	1111.307	872.395
376.971	23.852	1110.264	871.757
377.986	23.773	1109.923	871.025
379.000	23.957	1109.081	871.188
380.015	23.843	1109.001	870.494
381.029	23.829	1107.914	869.493
382.044	23.870	1107.671	869.428
383.059	23.876	1107.068	868.908
384.073	23.931	1105.771	868.080
385.088	23.877	1105.101	867.214
386.102	23.974	1104.582	867.204
387.117	23.968	1103.309	866.097
388.132	23.946	1102.538	865.308
389.146	23.927	1101.839	864.591
390.161	24.000	1101.303	864.450
391.175	23.973	1100.641	863.721
392.190	23.923	1100.310	863.143
393.205	23.903	1099.332	862.201
394.219	24.018	1098.904	862.346
395.234	24.031	1097.880	861.529
396.248	23.995	1096.958	860.553
397.263	24.022	1095.796	859.697
398.278	24.048	1095.651	859.635
399.292	24.185	1094.879	859.614
400.307	24.235	1094.173	859.226
401.321	24.103	1094.134	858.479
402.336	24.177	1093.421	858.202
403.350	24.167	1092.093	857.036
404.365	24.182	1091.716	856.737
405.380	24.150	1091.119	856.040
406.394	24.186	1090.089	855.327
407.409	24.285	1089.452	855.227
408.423	24.257	1088.717	854.441
409.438	24.274	1088.252	854.081
410.453	24.293	1087.684	853.648
411.467	24.324	1086.601	852.873
412.482	24.217	1086.364	852.098
413.496	24.139	1085.764	851.183
414.511	24.265	1084.965	851.080
415.526	24.289	1084.327	850.621
416.540	24.431	1083.818	850.822
417.555	24.417	1083.201	850.195
418.569	24.349	1083.300	849.874
419.584	24.377	1082.365	849.198
420.599	24.367	1082.270	849.002
421.613	148.861	1401.733	1798.388
422.628	137.508	1448.258	1798.486
