DTS Sentinel unit serial number:	SN413079Multiplexer serial number:	ORYXHardware model number:	OX4-SRSoftware version number:	ORYX F/W v4.00 Oryx Data Collector v3.7.2.0data status	okinstallation	princeton_trtdifferential loss correction	single-endedforward channel	channel 2reverse channel	N/Adate	2019/09/19time	15:15:35forward acquisition time	60.00reverse acquisition time	0.00gamma	496.2192k internal	0.2320k external	0.2320temperature offset calibration	1.0025default loss term (dB/km)	0.3790temperature slope calibration	1.0000multiplexer offset coefficient	1.0000multiplexer slope coefficient	1.0000fibre end	0.00T internal ref (°C)	33.59T ext. ref 1 (°C)	1.14T ext. ref 2 (°C)	30.44length (m)	temperature (°C)	Stokes	anti-Stokes-747.200	85.392	0.256	0.284
-746.185	-17.255	0.318	0.202
-745.171	-23.037	-0.230	0.140
-744.156	-200.000	-0.050	0.312
-743.142	-77.763	-0.043	-0.015
-742.127	-200.000	-0.015	0.194
-741.112	-16.026	0.095	-0.061
-740.098	86.745	-0.251	0.281
-739.083	-49.533	0.111	-0.053
-738.069	-200.000	-0.047	0.286
-737.054	-109.128	0.042	0.009
-736.039	-59.316	-0.290	-0.126
-735.025	-5.642	0.358	0.248
-734.010	49.546	-0.264	-0.251
-732.996	800.000	-0.070	-0.196
-731.981	122.395	-0.191	-0.242
-730.966	22.552	-0.154	0.127
-729.952	-12.545	0.093	0.062
-728.937	119.023	-0.233	-0.291
-727.923	-61.198	-0.499	-0.212
-726.908	-72.470	-0.119	0.045
-725.894	169.339	0.250	-0.361
-724.879	-200.000	-0.031	-0.361
-723.864	134.646	-0.081	-0.106
-722.850	-112.258	0.126	0.026
-721.835	-200.000	0.028	0.140
-720.821	-52.257	0.259	0.121
-719.806	668.288	-0.091	-0.237
-718.791	50.296	-0.351	-0.335
-717.777	-65.878	-0.145	0.059
-716.762	-125.188	0.093	-0.014
-715.748	-101.521	0.369	-0.091
-714.733	-89.081	0.351	-0.105
-713.718	134.235	0.180	0.235
-712.704	-39.178	-0.182	0.097
-711.689	-3.835	-0.068	0.048
-710.675	-120.209	-0.279	-0.048
-709.660	87.748	0.072	0.081
-708.645	581.811	-0.092	0.228
-707.631	-174.957	0.258	0.007
-706.616	363.583	-0.073	-0.148
-705.602	800.000	0.021	-0.072
-704.587	169.661	0.169	-0.244
-703.572	-141.369	0.237	-0.024
-702.558	784.721	-0.004	0.011
-701.543	-126.225	0.176	0.027
-700.529	585.945	-0.120	0.299
-699.514	192.491	0.144	0.220
-698.499	-52.783	0.211	-0.098
-697.485	511.524	0.080	0.189
-696.470	-6.616	-0.309	0.213
-695.456	457.885	0.130	0.291
-694.441	800.000	-0.039	0.151
-693.426	-48.475	-0.462	0.224
-692.412	-31.302	0.173	0.098
-691.397	134.736	0.017	-0.022
-690.383	-84.990	0.123	0.039
-689.368	-42.156	-0.464	-0.240
-688.354	-156.928	-0.106	-0.007
-687.339	-200.000	0.010	-0.202
-686.324	-2.535	0.085	0.060
-685.310	24.249	0.056	0.047
-684.295	-200.000	-0.043	0.307
-683.281	42.495	-0.133	-0.122
-682.266	-67.864	-0.104	0.041
-681.251	-20.247	-0.240	-0.149
-680.237	228.641	-0.109	0.179
-679.222	-24.105	-0.031	0.019
-678.208	-149.679	-0.348	-0.028
-677.193	-65.136	0.127	0.052
-676.178	-125.516	-0.230	-0.035
-675.164	-200.000	0.013	-0.305
-674.149	-107.799	0.252	0.055
-673.135	150.211	0.069	-0.094
-672.120	-46.629	-0.054	-0.027
-671.105	-44.700	0.116	-0.058
-670.091	468.125	-0.096	0.217
-669.076	212.481	-0.105	0.168
-668.062	-69.441	0.124	0.048
-667.047	-136.422	-0.077	0.009
-666.032	40.920	0.074	-0.067
-665.018	-200.000	0.042	-0.220
-664.003	208.929	-0.224	0.354
-662.989	359.771	-0.129	-0.260
-661.974	-65.367	0.136	0.055
-660.959	-200.000	-0.066	0.311
-659.945	-26.097	-0.122	0.072
-658.930	-32.263	-0.245	0.138
-657.916	392.272	0.103	-0.216
-656.901	326.736	-0.160	-0.309
-655.886	119.416	0.058	0.072
-654.872	63.763	0.190	0.192
-653.857	-48.675	0.081	-0.039
-652.843	-66.512	-0.220	-0.088
-651.828	7.144	0.293	-0.221
-650.814	800.000	0.060	-0.191
-649.799	189.221	-0.201	0.304
-648.784	-85.659	0.099	0.031
-647.770	29.590	0.095	-0.082
-646.755	-200.000	-0.015	-0.224
-645.741	-130.521	-0.247	-0.034
-644.726	625.851	-0.073	0.186
-643.711	800.000	0.054	0.214
-642.697	476.005	-0.063	0.143
-641.682	126.045	-0.154	-0.197
-640.668	-92.373	-0.150	0.043
-639.653	-4.119	-0.203	-0.141
-638.638	432.114	-0.143	0.312
-637.624	142.764	0.165	0.221
-636.609	-200.000	-0.034	-0.299
-635.595	2.939	-0.155	-0.114
-634.580	454.130	0.067	-0.148
-633.565	415.373	-0.113	-0.243
-632.551	-63.290	0.136	0.056
-631.536	459.225	0.106	0.238
-630.522	-51.949	-0.070	-0.033
-629.507	-65.098	-0.223	0.090
-628.492	-200.000	-0.048	0.236
-627.478	-178.386	0.173	-0.004
-626.463	-200.000	-0.028	-0.166
-625.449	66.551	-0.224	-0.229
-624.434	330.455	-0.090	0.174
-623.419	-113.061	0.200	-0.040
-622.405	-200.000	0.054	-0.504
-621.390	441.834	0.105	-0.230
-620.376	235.688	0.056	0.093
-619.361	321.153	-0.139	-0.267
-618.346	-69.872	0.059	0.023
-617.332	164.934	0.164	-0.233
-616.317	-81.787	0.287	-0.094
-615.303	-47.426	0.274	-0.134
-614.288	-46.943	0.115	0.057
-613.273	-200.000	-0.002	0.045
-612.259	-64.509	0.216	0.088
-611.244	179.298	-0.177	0.260
-610.230	383.086	-0.119	0.247
-609.215	-200.000	-0.061	0.315
-608.201	60.001	0.084	-0.084
-607.186	142.002	0.066	-0.088
-606.171	-35.663	-0.097	0.053
-605.157	144.363	0.188	-0.252
-604.142	-200.000	0.048	-0.242
-603.128	-73.281	0.083	0.030
-602.113	-200.000	0.000	-0.157
-601.098	-184.233	0.039	-0.001
-600.084	-87.902	-0.567	0.171
-599.069	-200.000	0.017	-0.125
-598.055	-81.482	-0.123	-0.041
-597.040	-80.604	-0.140	-0.047
-596.025	20.764	-0.266	0.217
-595.011	-80.388	0.019	-0.006
-593.996	-200.000	0.000	-0.148
-592.982	800.000	-0.072	0.233
-591.967	-38.364	-0.141	-0.075
-590.952	-200.000	-0.048	-0.267
-589.938	219.395	0.175	-0.281
-588.923	-40.161	0.273	-0.143
-587.909	9.894	0.116	-0.089
-586.894	-125.615	0.218	0.033
-585.879	603.373	0.018	-0.046
-584.865	-42.987	-0.250	0.128
-583.850	432.692	0.018	0.039
-582.836	-193.035	0.192	0.002
-581.821	-77.189	0.226	0.079
-580.806	-19.384	-0.265	0.165
-579.792	-98.095	-0.275	0.071
-578.777	449.144	-0.071	0.157
-577.763	-0.577	0.263	-0.187
-576.748	-200.000	-0.027	0.181
-575.733	-200.000	-0.047	0.298
-574.719	800.000	0.069	-0.251
-573.704	-68.857	-0.214	-0.083
-572.690	-154.520	-0.297	-0.020
-571.675	800.000	-0.110	0.384
-570.661	-110.748	0.151	0.031
-569.646	12.589	0.146	0.113
-568.631	-70.996	0.269	-0.102
-567.617	94.069	-0.093	-0.106
-566.602	723.507	0.100	0.268
-565.588	800.000	0.030	0.089
-564.573	-122.875	-0.246	-0.040
-563.558	-79.274	0.171	0.058
-562.544	-138.007	-0.342	0.038
-561.529	-100.843	0.368	0.091
-560.515	-85.235	0.149	-0.047
-559.500	-23.150	-0.276	-0.167
-558.485	353.124	0.088	-0.176
-557.471	523.417	0.052	-0.122
-556.456	-200.000	0.000	-0.021
-555.442	60.297	-0.147	-0.146
-554.427	-93.780	-0.217	-0.060
-553.412	-27.887	-0.041	0.024
-552.398	-107.043	-0.200	-0.044
-551.383	-200.000	0.017	-0.145
-550.369	304.293	0.166	-0.308
-549.354	-12.015	-0.244	0.160
-548.339	-134.266	-0.158	-0.019
-547.325	-195.248	0.312	-0.002
-546.310	45.328	-0.159	-0.147
-545.296	50.254	-0.219	-0.207
-544.281	290.370	0.170	-0.311
-543.266	-200.000	-0.019	-0.430
-542.252	-200.000	-0.018	-0.258
-541.237	800.000	0.056	-0.219
-540.223	-101.709	0.161	0.039
-539.208	111.537	-0.112	-0.136
-538.193	-71.595	-0.183	-0.068
-537.179	800.000	0.042	-0.141
-536.164	-200.000	-0.023	-0.129
-535.150	91.762	0.221	0.249
-534.135	-200.000	0.144	0.000
-533.121	-1.827	0.024	0.017
-532.106	-71.706	0.186	0.070
-531.091	66.134	-0.070	0.072
-530.077	-200.000	0.022	0.270
-529.062	531.002	0.039	0.092
-528.048	-107.967	0.220	-0.048
-527.033	-44.445	-0.067	0.034
-526.018	488.102	0.068	-0.156
-525.004	-41.074	-0.092	-0.047
-523.989	27.667	-0.209	-0.176
-522.975	61.671	0.158	0.157
-521.960	261.252	0.093	0.162
-520.945	2.492	0.321	-0.233
-519.931	-112.806	0.039	-0.008
-518.916	-140.902	-0.318	0.033
-517.902	697.659	-0.039	0.102
-516.887	-66.056	-0.131	-0.052
-515.872	-133.527	0.206	0.026
-514.858	-59.478	-0.469	0.202
-513.843	-200.000	0.044	0.377
-512.829	800.000	0.074	0.208
-511.814	470.261	-0.198	0.446
-510.799	-200.000	-0.022	0.164
-509.785	81.080	0.084	0.091
-508.770	-200.000	0.025	-0.122
-507.756	263.400	0.103	-0.179
-506.741	40.858	0.350	-0.316
-505.726	-18.276	-0.294	0.184
-504.712	-200.000	-0.008	-0.050
-503.697	-0.075	-0.079	0.056
-502.683	187.013	-0.040	0.059
-501.668	-200.000	0.012	0.237
-500.653	31.977	-0.032	0.028
-499.639	-200.000	-0.026	-0.117
-498.624	-99.702	-0.132	0.033
-497.610	-138.625	-0.311	0.034
-496.595	-91.922	-0.203	-0.058
-495.581	-200.000	0.011	0.268
-494.566	103.940	-0.140	0.164
-493.551	166.512	0.241	-0.342
-492.537	35.480	0.110	-0.096
-491.522	629.684	-0.145	-0.367
-490.508	-200.000	-0.020	0.226
-489.493	0.138	0.096	0.069
-488.478	-144.862	0.416	-0.038
-487.464	132.030	-0.065	-0.084
-486.449	-111.957	0.161	0.033
-485.435	19.996	0.278	-0.225
-484.420	314.776	-0.091	0.172
-483.405	54.604	-0.274	-0.265
-482.391	-43.723	-0.051	-0.026
-481.376	19.195	-0.207	-0.166
-480.362	370.417	-0.072	0.146
-479.347	-2.936	-0.072	-0.050
-478.332	-42.128	0.062	0.032
-477.318	-92.005	-0.366	0.104
-476.303	368.157	0.141	0.285
-475.289	26.137	-0.165	-0.137
-474.274	-200.000	0.003	-0.123
-473.259	721.783	-0.099	0.263
-472.245	-157.626	0.084	-0.005
-471.230	-25.821	-0.285	-0.168
-470.216	17.696	0.155	-0.124
-469.201	-35.879	0.379	-0.205
-468.186	30.757	-0.218	-0.187
-467.172	-99.676	-0.224	-0.056
-466.157	-91.879	-0.273	-0.078
-465.143	-150.804	-0.255	-0.019
-464.128	800.000	0.072	-0.201
-463.113	251.082	0.069	-0.117
-462.099	220.990	0.164	0.264
-461.084	-33.518	0.113	0.063
-460.070	-200.000	-0.064	-0.300
-459.055	192.542	-0.114	-0.172
-458.040	349.473	0.046	-0.091
-457.026	114.090	0.038	-0.046
-456.011	-89.846	-0.114	0.033
-454.997	26.155	0.110	-0.092
-453.982	-68.246	0.280	0.109
-452.968	299.134	-0.101	0.185
-451.953	-200.000	0.005	0.254
-450.938	657.156	-0.045	-0.115
-449.924	-200.000	0.037	0.242
-448.909	-79.755	0.103	-0.035
-447.895	800.000	0.014	-0.047
-446.880	22.166	0.029	0.024
-445.865	800.000	0.013	-0.040
-444.851	-153.997	-0.230	0.016
-443.836	81.550	-0.069	0.074
-442.822	88.189	0.008	-0.009
-441.807	800.000	0.052	0.211
-440.792	800.000	-0.141	-0.492
-439.778	-200.000	0.021	-0.124
-438.763	-200.000	0.028	-0.167
-437.749	228.862	-0.130	0.211
-436.734	6.357	0.246	0.183
-435.719	-200.000	-0.021	-0.313
-434.705	-30.032	-0.327	-0.186
-433.690	72.851	0.209	0.218
-432.676	-75.594	0.166	-0.059
-431.661	28.903	0.049	0.041
-430.646	-111.427	-0.281	0.057
-429.632	-38.891	-0.141	-0.074
-428.617	-172.635	-0.054	-0.002
-427.603	800.000	0.070	-0.297
-426.588	85.472	0.023	-0.026
-425.573	205.816	0.215	-0.334
-424.559	-109.470	-0.084	0.018
-423.544	-159.709	-0.361	0.020
-422.530	0.644	-0.175	-0.125
-421.515	-62.696	-0.188	-0.078
-420.500	219.050	-0.168	0.268
-419.486	-129.158	0.366	0.051
-418.471	16.482	0.331	0.261
-417.457	-39.293	-0.169	-0.089
-416.442	800.000	-0.075	-0.211
-415.428	68.417	-0.212	-0.216
-414.413	-200.000	0.024	-0.368
-413.398	-78.172	0.191	-0.065
-412.384	-73.251	-0.239	0.087
-411.369	362.005	0.133	-0.266
-410.355	-0.816	0.238	-0.168
-409.340	-64.353	0.116	0.047
-408.325	88.352	-0.094	0.104
-407.311	34.407	-0.165	0.144
-406.296	-127.665	0.302	0.044
-405.282	-52.114	-0.274	-0.127
-404.267	800.000	0.043	-0.163
-403.252	59.740	-0.339	-0.334
-402.238	21.976	0.180	-0.146
-401.223	52.084	0.335	0.318
-400.209	54.059	0.108	0.104
-399.194	-166.700	-0.114	-0.005
-398.179	370.340	0.119	0.241
-397.165	800.000	-0.113	-0.331
-396.150	414.173	0.088	-0.187
-395.136	368.340	0.031	0.063
-394.121	46.540	0.159	-0.147
-393.106	800.000	-0.023	-0.088
-392.092	82.478	-0.148	-0.160
-391.077	-200.000	-0.073	-0.339
-390.063	25.420	-0.131	-0.109
-389.048	-126.332	-0.175	-0.026
-388.033	800.000	-0.004	0.016
-387.019	-19.691	0.142	0.088
-386.004	-93.391	-0.347	-0.096
-384.990	-200.000	-0.008	-0.190
-383.975	-25.060	-0.305	0.180
-382.960	25.929	0.161	-0.134
-381.946	28.595	-0.083	0.070
-380.931	-49.161	-0.181	-0.086
-379.917	-200.000	-0.013	-0.189
-378.902	-130.033	-0.067	0.009
-377.888	-200.000	0.009	-0.072
-376.873	-54.458	-0.159	0.072
-375.858	-157.490	-0.256	-0.015
-374.844	-200.000	0.023	-0.132
-373.829	448.816	0.049	0.107
-372.815	81.427	0.125	-0.135
-371.800	76.467	-0.104	-0.110
-370.785	-200.000	-0.013	-0.138
-369.771	-80.178	0.117	-0.039
-368.756	18.059	0.227	-0.180
-367.742	185.206	0.150	-0.222
-366.727	800.000	-0.037	-0.109
-365.712	442.939	0.093	0.202
-364.698	-149.849	0.430	0.034
-363.683	-200.000	-0.055	0.265
-362.669	153.426	0.010	-0.014
-361.654	146.786	0.133	0.178
-360.639	120.863	0.074	0.091
-359.625	-110.167	-0.217	0.045
-358.610	47.849	-0.342	-0.318
-357.596	-38.432	-0.172	0.090
-356.581	227.448	0.192	0.311
-355.566	-200.000	0.008	0.315
-354.552	-200.000	0.032	0.256
-353.537	512.550	0.084	0.195
-352.523	81.943	-0.189	0.204
-351.508	457.992	0.120	-0.265
-350.493	-21.724	-0.164	0.099
-349.479	280.859	-0.124	0.220
-348.464	80.422	-0.300	-0.322
-347.450	-118.929	0.187	0.033
-346.435	800.000	-0.051	0.168
-345.420	-124.793	0.348	0.054
-344.406	-35.548	-0.102	0.055
-343.391	800.000	0.089	0.334
-342.377	50.557	-0.175	-0.165
-341.362	482.144	0.135	0.305
-340.348	-200.000	-0.006	-0.077
-339.333	-131.265	-0.161	0.021
-338.318	128.283	0.061	0.077
-337.304	215.006	0.183	0.289
-336.289	-117.504	0.275	-0.049
-335.275	-85.055	0.179	-0.056
-334.260	-200.000	-0.000	0.053
-333.245	-140.490	0.200	0.021
-332.231	-157.266	-0.124	0.007
-331.216	-119.606	-0.297	0.051
-330.202	-200.000	0.007	-0.154
-329.187	-72.714	-0.252	0.093
-328.172	-103.625	-0.157	0.037
-327.158	480.074	0.093	0.210
-326.143	4.425	0.247	-0.180
-325.129	768.145	0.098	0.265
-324.114	118.186	-0.131	-0.161
-323.099	-118.535	-0.188	-0.033
-322.085	61.827	-0.154	0.152
-321.070	-200.000	0.047	-0.249
-320.056	-170.581	0.326	-0.011
-319.041	-12.332	0.111	-0.072
-318.026	-1.447	0.221	-0.155
-317.012	-81.984	-0.095	-0.031
-315.997	-200.000	-0.050	-0.492
-314.983	-87.341	-0.148	-0.045
-313.968	-200.000	-0.006	-0.109
-312.953	-124.626	0.034	-0.005
-311.939	740.219	0.088	0.234
-310.924	-161.514	0.233	-0.012
-309.910	90.052	-0.193	0.214
-308.895	-200.000	0.029	-0.137
-307.880	-25.522	-0.035	0.021
-306.866	800.000	0.151	0.480
-305.851	-153.053	-0.358	-0.025
-304.837	164.800	0.010	-0.015
-303.822	800.000	0.042	0.153
-302.807	229.580	0.058	0.095
-301.793	323.778	0.060	0.113
-300.778	43.371	-0.088	0.079
-299.764	-133.763	0.225	0.028
-298.749	-9.792	-0.186	0.123
-297.735	767.121	0.051	-0.138
-296.720	141.759	-0.082	-0.108
-295.705	171.076	0.103	0.147
-294.691	73.016	0.126	0.131
-293.676	-133.342	-0.267	-0.033
-292.662	-200.000	0.053	0.263
-291.647	-200.000	0.063	-0.361
-290.632	800.000	0.118	0.331
-289.618	32.028	-0.223	0.191
-288.603	-200.000	0.000	0.470
-287.589	282.331	0.089	0.158
-286.574	-194.408	0.267	-0.002
-285.559	-45.700	-0.129	0.063
-284.545	104.207	-0.135	0.158
-283.530	147.164	0.097	0.130
-282.516	248.521	0.043	-0.073
-281.501	151.157	-0.162	0.219
-280.486	-106.970	0.288	0.063
-279.472	-174.222	0.510	0.015
-278.457	800.000	0.054	-0.167
-277.443	221.355	-0.043	-0.068
-276.428	-200.000	-0.051	-0.242
-275.413	322.455	-0.069	-0.130
-274.399	541.210	0.031	-0.074
-273.384	355.390	0.250	0.493
-272.370	49.878	0.131	0.123
-271.355	-101.659	-0.262	-0.063
-270.340	-59.561	-0.198	-0.084
-269.326	-78.023	-0.142	-0.049
-268.311	-156.636	0.071	-0.004
-267.297	18.496	-0.250	0.199
-266.282	-126.990	0.157	-0.023
-265.267	72.165	-0.076	-0.079
-264.253	-110.691	-0.262	0.054
-263.238	-65.161	0.130	-0.052
-262.224	800.000	0.081	-0.293
-261.209	-200.000	0.526	0.001
-260.195	207.305	0.121	-0.188
-259.180	-200.000	-0.007	-0.245
-258.165	-200.000	0.004	0.143
-257.151	800.000	-0.063	0.271
-256.136	16.217	0.169	0.133
-255.122	-161.354	0.362	0.019
-254.107	-200.000	0.016	-0.136
-253.092	-200.000	-0.039	-0.209
-252.078	145.276	-0.102	0.136
-251.063	152.332	0.125	-0.169
-250.049	800.000	0.054	0.199
-249.034	-200.000	-0.006	-0.167
-248.019	21.320	-0.067	-0.054
-247.005	800.000	-0.087	0.293
-245.990	-42.535	0.189	-0.096
-244.976	408.287	-0.038	0.079
-243.961	-108.607	0.196	-0.042
-242.946	-69.699	0.260	0.098
-241.932	87.444	0.182	-0.199
-240.917	-97.167	-0.320	0.083
-239.903	-53.138	0.094	-0.043
-238.888	-200.000	0.029	0.224
-237.873	88.760	-0.195	0.215
-236.859	19.839	-0.053	-0.042
-235.844	-39.228	-0.306	0.159
-234.830	35.412	0.092	-0.080
-233.815	-200.000	0.022	-0.174
-232.800	227.575	0.156	-0.252
-231.786	-138.728	-0.321	0.035
-230.771	146.250	-0.117	0.155
-229.757	800.000	-0.024	-0.087
-228.742	-116.370	0.087	-0.016
-227.727	-200.000	0.016	0.125
-226.713	-200.000	-0.027	-0.266
-225.698	-53.419	0.195	-0.089
-224.684	336.140	-0.110	0.212
-223.669	-55.957	0.308	-0.136
-222.655	-31.752	-0.162	-0.090
-221.640	-21.656	0.103	-0.062
-220.625	800.000	0.060	0.205
-219.611	800.000	-0.088	-0.308
-218.596	111.767	-0.089	0.106
-217.582	314.444	-0.078	-0.145
-216.567	31.320	-0.043	-0.036
-215.552	-200.000	-0.044	0.308
-214.538	-33.568	0.166	-0.091
-213.523	-174.249	0.127	0.004
-212.509	-200.000	-0.047	0.212
-211.494	151.772	-0.136	-0.183
-210.479	419.608	0.134	0.284
-209.465	99.830	0.248	-0.285
-208.450	-107.649	-0.306	0.066
-207.436	-61.415	0.030	-0.012
-206.421	-192.397	0.258	0.002
-205.406	-200.000	0.023	-0.131
-204.392	-106.026	0.175	0.039
-203.377	-71.728	-0.465	0.172
-202.363	-98.923	-0.131	0.033
-201.348	-72.128	0.284	0.104
-200.333	111.667	-0.129	0.154
-199.319	150.252	-0.046	-0.061
-198.304	88.003	-0.200	0.219
-197.290	-28.323	0.201	0.115
-196.275	31.345	-0.090	0.076
-195.260	-200.000	0.009	-0.310
-194.246	43.181	-0.058	-0.052
-193.231	42.756	0.173	-0.156
-192.217	283.214	0.073	-0.130
-191.202	-198.369	0.122	0.001
-190.187	-182.589	-0.034	0.001
-189.173	110.239	-0.115	-0.136
-188.158	305.377	0.108	0.199
-187.144	95.861	0.241	0.272
-186.129	484.056	0.102	-0.230
-185.114	279.863	-0.042	0.073
-184.100	27.049	0.203	0.168
-183.085	-200.000	-0.013	0.264
-182.071	102.920	0.019	0.023
-181.056	-86.138	-0.251	0.077
-180.042	-200.000	-0.031	-0.223
-179.027	-200.000	0.001	-0.226
-178.012	-44.659	-0.177	0.088
-176.998	583.536	0.215	0.521
-175.983	-100.995	0.419	0.102
-174.969	800.000	0.017	0.052
-173.954	800.000	0.060	0.182
-172.939	329.235	0.143	-0.271
-171.925	487.945	0.225	0.508
-170.910	154.099	0.100	0.136
-169.896	365.322	0.086	-0.171
-168.881	292.443	-0.219	0.394
-167.866	-96.436	-0.186	-0.048
-166.852	565.917	0.136	0.327
-165.837	-152.465	-0.108	-0.008
-164.823	173.254	0.069	-0.099
-163.808	-200.000	0.014	0.430
-162.793	-200.000	-0.032	0.159
-161.779	-117.270	0.222	0.040
-160.764	-126.067	-0.237	0.035
-159.750	-76.430	0.236	0.082
-158.735	-1.224	0.161	-0.112
-157.720	115.215	0.123	-0.148
-156.706	-200.000	-0.005	0.177
-155.691	28.637	-0.256	-0.215
-154.677	118.575	0.205	-0.250
-153.662	-200.000	-0.040	0.232
-152.647	-167.511	-0.108	0.004
-151.633	285.442	0.027	0.048
-150.618	-200.000	0.019	-0.090
-149.604	318.218	0.063	0.117
-148.589	396.372	0.101	-0.209
-147.574	800.000	-0.095	-0.279
-146.560	797.911	0.040	0.109
-145.545	-102.617	-0.171	-0.040
-144.531	-159.676	0.380	0.021
-143.516	-107.134	0.213	0.046
-142.502	3.934	0.110	-0.079
-141.487	372.198	0.103	-0.208
-140.472	14.629	0.146	-0.113
-139.458	208.229	0.179	0.276
-138.443	-63.342	-0.059	-0.024
-137.429	274.474	-0.182	-0.318
-136.414	-115.515	0.294	0.055
-135.399	124.721	0.130	0.161
-134.385	-112.481	0.088	-0.017
-133.370	92.418	-0.222	0.247
-132.356	-19.277	0.256	-0.157
-131.341	510.498	0.058	0.133
-130.326	-67.840	0.184	-0.071
-129.312	21.350	0.126	0.101
-128.297	-200.000	0.001	0.088
-127.283	157.588	-0.035	-0.048
-126.268	-191.238	0.386	-0.004
-125.253	-200.000	-0.007	-0.085
-124.239	-45.678	-0.186	0.091
-123.224	588.220	0.150	0.364
-122.210	0.026	-0.189	-0.133
-121.195	800.000	0.101	0.319
-120.180	161.072	-0.281	0.388
-119.166	-100.631	-0.182	-0.044
-118.151	800.000	-0.109	-0.353
-117.137	459.571	-0.095	-0.208
-116.122	-200.000	0.055	0.264
-115.107	-200.000	0.054	0.299
-114.093	145.676	0.063	0.084
-113.078	-82.839	0.128	0.041
-112.064	-42.503	-0.090	0.045
-111.049	-200.000	0.000	0.042
-110.034	-36.036	-0.254	0.135
-109.020	239.423	0.154	-0.253
-108.005	-157.330	0.312	-0.019
-106.991	41.131	-0.152	-0.136
-105.976	-45.369	0.379	0.185
-104.962	-34.849	-0.144	-0.078
-103.947	117.751	-0.087	0.106
-102.932	-74.292	-0.274	0.098
-101.918	800.000	-0.060	0.214
-100.903	-200.000	0.049	-0.231
-99.889	-99.537	0.061	0.015
-98.874	480.660	-0.092	0.206
-97.859	-200.000	-0.083	-0.607
-96.845	546.865	0.082	0.193
-95.830	-200.000	-0.015	0.263
-94.816	40.899	0.132	0.118
-93.801	57.329	0.077	0.074
-92.786	-125.234	0.241	0.036
-91.772	-200.000	0.032	0.197
-90.757	11.145	0.071	0.053
-89.743	800.000	0.130	0.371
-88.728	11.789	-0.115	-0.087
-87.713	-71.565	0.031	0.011
-86.699	-200.000	-0.008	0.067
-85.684	156.054	0.157	0.214
-84.670	460.539	0.034	0.074
-83.655	-170.943	-0.149	0.005
-82.640	115.157	0.041	-0.050
-81.626	-200.000	0.021	0.361
-80.611	-200.000	0.035	0.316
-79.597	436.806	-0.148	0.318
-78.582	733.982	0.074	0.194
-77.567	-114.309	-0.144	-0.027
-76.553	-200.000	-0.010	0.063
-75.538	-169.071	0.301	-0.011
-74.524	-122.604	-0.162	0.026
-73.509	268.519	0.088	0.152
-72.494	120.161	-0.098	-0.119
-71.480	65.710	0.127	-0.127
-70.465	-200.000	0.019	0.098
-69.451	-121.617	0.168	0.027
-68.436	489.094	0.146	-0.328
-67.422	-104.167	0.253	0.058
-66.407	-36.485	0.360	-0.191
-65.392	211.171	-0.048	0.074
-64.378	-121.404	0.335	0.055
-63.363	165.676	0.174	-0.242
-62.349	99.837	-0.098	-0.112
-61.334	67.212	-0.608	-0.610
-60.319	146.122	0.379	0.501
-59.305	269.896	-0.448	-0.776
-58.290	79.658	0.753	0.796
-57.276	800.000	0.579	1.904
-56.261	-200.000	96.129	553.149
-55.246	488.355	1437.903	3232.440
-54.232	142.463	2676.154	3497.599
-53.217	103.429	2355.994	2720.628
-52.203	42.768	1960.756	1757.990
-51.188	36.862	1745.218	1518.552
-50.173	34.063	1700.611	1458.258
-49.159	50.838	1747.282	1628.899
-48.144	53.133	1765.181	1663.349
-47.130	36.437	1722.663	1495.396
-46.115	33.635	1707.843	1460.929
-45.100	33.481	1702.374	1455.008
-44.086	33.409	1700.450	1452.759
-43.071	33.484	1697.358	1450.629
-42.057	33.457	1694.882	1448.255
-41.042	33.488	1692.718	1446.578
-40.027	33.497	1690.539	1444.731
-39.013	33.515	1688.721	1443.258
-37.998	33.340	1687.575	1440.889
-36.984	33.519	1685.635	1440.535
-35.969	33.528	1684.488	1439.566
-34.954	33.636	1682.337	1438.486
-33.940	33.610	1680.875	1436.986
-32.925	33.567	1679.095	1435.079
-31.911	33.684	1676.954	1434.078
-30.896	33.597	1675.423	1432.054
-29.881	33.605	1673.669	1430.562
-28.867	33.618	1671.627	1428.858
-27.852	33.652	1669.636	1427.352
-26.838	33.627	1668.697	1426.304
-25.823	33.671	1667.124	1425.233
-24.809	33.695	1665.588	1424.042
-23.794	33.699	1664.572	1423.148
-22.779	33.634	1662.776	1421.070
-21.765	33.554	1661.761	1419.551
-20.750	33.614	1659.390	1417.912
-19.736	33.631	1658.419	1417.159
-18.721	33.623	1656.427	1415.337
-17.706	33.558	1654.944	1413.527
-16.692	33.540	1653.613	1412.207
-15.677	33.581	1652.207	1411.253
-14.663	33.599	1650.900	1410.212
-13.648	33.650	1649.242	1409.119
-12.633	33.608	1647.317	1407.104
-11.619	33.567	1645.974	1405.601
-10.604	33.514	1644.467	1403.865
-9.590	33.604	1643.067	1403.279
-8.575	33.647	1641.596	1402.288
-7.560	33.669	1640.513	1401.469
-6.546	33.740	1639.595	1401.151
-5.531	33.540	1638.853	1398.984
-4.517	33.665	1637.493	1398.693
-3.502	33.571	1636.152	1396.797
-2.487	33.692	1634.535	1396.254
-1.473	33.698	1623.263	1386.612
-0.458	31.391	1604.060	1353.476
0.556	26.488	1603.549	1316.121
1.571	23.131	1624.942	1308.769
2.586	21.742	1636.719	1307.786
3.600	19.214	1583.057	1246.525
4.615	10.953	1468.913	1100.854
5.629	2.886	1400.943	997.576
6.644	1.218	1392.631	980.791
7.659	1.146	1390.677	978.864
8.673	1.126	1390.340	978.409
9.688	1.061	1388.335	976.496
10.702	0.824	1385.140	972.641
11.717	4.145	1390.554	997.763
12.731	11.909	1402.252	1056.320
13.746	16.751	1408.829	1092.483
14.761	17.521	1408.510	1097.106
15.775	16.895	1407.279	1092.020
16.790	15.943	1404.346	1083.525
17.804	15.135	1401.829	1076.296
18.819	14.716	1400.735	1072.668
19.834	14.433	1399.114	1069.519
20.848	14.185	1397.942	1066.937
21.863	13.992	1396.270	1064.332
22.877	13.750	1394.822	1061.583
23.892	13.684	1394.313	1060.682
24.907	13.649	1393.637	1059.845
25.921	13.616	1392.696	1058.828
26.936	13.718	1391.627	1058.570
27.950	13.721	1390.772	1057.850
28.965	13.881	1389.684	1057.943
29.980	13.900	1388.594	1057.144
30.994	13.901	1387.841	1056.484
32.009	13.922	1386.898	1055.807
33.023	13.903	1385.458	1054.494
34.038	13.852	1384.183	1053.109
35.053	13.862	1383.469	1052.536
36.067	13.858	1382.320	1051.540
37.082	13.810	1381.200	1050.293
38.096	13.869	1380.418	1049.978
39.111	13.878	1379.285	1049.079
40.126	13.874	1378.740	1048.547
41.140	13.803	1377.892	1047.362
42.155	13.681	1377.671	1046.333
43.169	13.707	1377.789	1046.492
44.184	13.633	1377.425	1045.658
45.199	13.754	1376.609	1045.708
46.213	13.847	1375.849	1045.622
47.228	13.739	1375.121	1044.298
48.242	13.903	1373.479	1043.989
49.257	13.865	1372.144	1042.646
50.271	13.882	1371.037	1041.820
51.286	13.777	1369.847	1040.165
52.301	13.816	1368.145	1039.022
53.315	13.748	1367.697	1038.163
54.330	13.724	1366.409	1036.942
55.344	13.810	1365.228	1036.496
56.359	13.745	1364.237	1035.245
57.374	13.690	1363.127	1033.968
58.388	13.764	1362.474	1033.842
59.403	13.720	1362.037	1033.145
60.417	13.708	1361.074	1032.249
61.432	13.710	1360.225	1031.524
62.447	13.605	1359.227	1030.023
63.461	13.665	1357.800	1029.225
64.476	13.620	1356.618	1027.956
65.490	13.694	1355.655	1027.595
66.505	13.684	1354.146	1026.297
67.520	13.709	1352.961	1025.466
68.534	13.708	1351.766	1024.464
69.549	13.600	1350.853	1023.015
70.563	13.635	1349.928	1022.441
71.578	13.675	1348.229	1021.306
72.593	13.582	1347.762	1020.293
73.607	13.542	1347.094	1019.451
74.622	13.550	1345.995	1018.579
75.636	13.644	1345.152	1018.426
76.651	13.535	1344.607	1017.253
77.666	13.637	1343.609	1017.034
78.680	13.570	1343.553	1016.491
79.695	13.633	1342.304	1015.842
80.709	13.595	1341.442	1014.871
81.724	13.693	1339.977	1014.267
82.739	13.711	1339.545	1013.963
83.753	13.797	1338.445	1013.565
84.768	13.699	1337.545	1012.199
85.782	13.804	1336.203	1011.734
86.797	13.705	1335.086	1010.192
87.812	13.677	1333.677	1008.868
88.826	13.692	1332.429	1007.923
89.841	13.683	1331.572	1007.134
90.855	13.798	1330.482	1006.918
91.870	13.758	1329.491	1005.836
92.884	13.782	1328.662	1005.264
93.899	13.767	1328.047	1004.617
94.914	13.868	1327.188	1004.492
95.928	13.920	1326.046	1003.851
96.943	13.784	1325.168	1002.281
97.957	13.784	1324.222	1001.474
98.972	13.813	1322.759	1000.453
99.987	13.698	1322.170	999.225
101.001	13.910	1320.927	999.474
102.016	13.825	1320.109	998.260
103.030	13.819	1319.188	997.435
104.045	13.843	1318.488	996.961
105.060	13.868	1316.883	995.811
106.074	13.709	1316.040	994.130
107.089	13.590	1315.163	992.671
108.103	13.708	1313.275	991.859
109.118	13.782	1312.357	991.525
110.133	13.666	1310.775	989.545
111.147	13.747	1309.062	988.651
112.162	13.677	1308.448	987.682
113.176	13.811	1306.984	987.285
114.191	13.734	1306.142	986.106
115.206	13.706	1305.493	985.361
116.220	13.767	1303.498	984.130
117.235	13.715	1303.070	983.412
118.249	13.817	1301.918	983.062
119.264	13.751	1300.812	981.745
120.279	13.700	1299.658	980.486
121.293	13.731	1298.776	979.920
122.308	13.745	1297.615	979.041
123.322	13.755	1296.509	978.173
124.337	13.729	1295.069	976.847
125.352	13.705	1294.193	975.961
126.366	13.723	1292.938	975.038
127.381	13.850	1291.639	974.715
128.395	13.772	1290.685	973.450
129.410	13.736	1290.017	972.650
130.424	13.827	1288.801	972.183
131.439	13.868	1287.837	971.608
132.454	13.901	1286.998	971.083
133.468	13.845	1286.267	970.114
134.483	13.866	1285.485	969.566
135.497	13.878	1284.327	968.675
136.512	13.838	1283.115	967.440
137.527	13.768	1282.213	966.267
138.541	13.899	1280.042	965.307
139.556	13.800	1278.951	963.827
140.570	13.914	1278.057	963.727
141.585	13.903	1276.672	962.531
142.600	13.880	1275.780	961.642
143.614	13.932	1274.827	961.141
144.629	13.931	1273.523	960.066
145.643	13.960	1272.323	959.245
146.658	13.946	1271.160	958.200
147.673	13.926	1269.672	956.878
148.687	13.775	1268.949	955.384
149.702	13.889	1267.567	954.913
150.716	13.841	1265.916	953.305
151.731	13.899	1264.814	952.726
152.746	13.902	1263.944	952.004
153.760	13.884	1262.251	950.540
154.775	13.985	1261.249	950.281
155.789	13.961	1260.247	949.303
156.804	14.002	1258.937	948.468
157.819	14.019	1257.858	947.668
158.833	14.089	1257.092	947.406
159.848	13.984	1256.088	945.967
160.862	14.104	1254.984	945.735
161.877	14.138	1253.785	944.943
162.892	14.056	1252.788	943.643
163.906	13.941	1252.293	942.530
164.921	13.996	1251.541	942.193
165.935	14.080	1250.526	941.825
166.950	14.005	1249.588	940.608
167.964	14.152	1248.784	940.753
168.979	14.053	1248.137	939.620
169.994	14.074	1248.078	939.610
171.008	14.126	1246.689	938.779
172.023	14.189	1245.572	938.207
173.037	14.226	1244.972	937.880
174.052	14.292	1243.856	937.332
175.067	14.229	1242.873	936.149
176.081	14.221	1241.919	935.308
177.096	14.218	1241.063	934.559
178.110	14.148	1240.206	933.441
179.125	14.202	1238.779	932.585
180.140	14.251	1237.414	931.748
181.154	14.257	1236.556	931.053
182.169	14.216	1235.328	929.820
183.183	14.354	1233.963	929.480
184.198	14.216	1233.361	928.174
185.213	14.309	1231.907	927.515
186.227	14.470	1230.131	926.995
187.242	14.286	1229.760	925.607
188.256	14.338	1228.733	925.043
189.271	14.237	1227.719	923.634
190.286	14.322	1226.740	923.289
191.300	14.176	1226.229	922.016
192.315	14.182	1225.481	921.405
193.329	14.293	1224.564	921.247
194.344	14.282	1223.865	920.579
195.359	14.246	1223.387	919.937
196.373	14.332	1222.880	919.950
197.388	14.345	1222.116	919.365
198.402	14.407	1221.646	919.275
199.417	14.487	1220.907	919.078
200.432	14.532	1219.961	918.531
201.446	14.614	1218.946	918.138
202.461	14.578	1217.901	917.072
203.475	14.711	1216.944	917.000
204.490	14.518	1215.918	915.085
205.504	14.516	1215.202	914.455
206.519	14.566	1213.874	913.650
207.534	14.492	1212.509	912.134
208.548	14.458	1211.413	911.047
209.563	14.547	1210.671	910.891
210.577	14.533	1210.000	910.231
211.592	14.684	1208.746	910.028
212.607	14.697	1207.938	909.410
213.621	14.740	1207.213	909.021
214.636	14.678	1206.470	908.042
215.650	14.699	1205.109	907.049
216.665	14.806	1204.214	906.878
217.680	14.682	1203.667	905.716
218.694	14.772	1202.358	905.134
219.709	14.706	1202.040	904.460
220.723	14.818	1200.991	904.198
221.738	14.828	1200.172	903.556
222.753	14.785	1199.615	902.819
223.767	14.888	1198.555	902.501
224.782	14.790	1198.479	901.832
225.796	15.000	1197.454	902.114
226.811	14.933	1196.942	901.287
227.826	14.867	1196.066	900.191
228.840	14.950	1195.437	900.088
229.855	14.947	1194.361	899.184
230.869	14.915	1193.722	898.451
231.884	14.925	1192.809	897.734
232.899	14.981	1191.861	897.245
233.913	14.881	1191.521	896.375
234.928	14.975	1190.435	895.976
235.942	14.907	1189.789	895.050
236.957	14.889	1189.508	894.661
237.972	14.964	1188.246	894.036
238.986	14.856	1187.801	893.044
240.001	14.946	1187.165	892.969
241.015	15.076	1185.657	892.450
242.030	14.970	1185.582	891.749
243.045	14.983	1184.271	890.752
244.059	15.123	1183.203	890.614
245.074	15.081	1182.680	889.916
246.088	15.030	1182.345	889.316
247.103	15.078	1181.629	888.955
248.117	15.076	1180.389	887.934
249.132	15.205	1179.725	888.036
250.147	15.248	1178.931	887.588
251.161	15.236	1178.487	887.112
252.176	15.114	1177.818	885.885
253.190	15.313	1177.079	886.304
254.205	15.359	1176.338	885.909
255.220	15.376	1175.821	885.531
256.234	15.345	1174.956	884.639
257.249	15.467	1173.977	884.466
258.263	15.413	1173.703	883.898
259.278	15.446	1172.834	883.336
260.293	15.412	1172.552	882.867
261.307	15.409	1171.968	882.332
262.322	15.477	1171.106	881.964
263.336	15.415	1170.737	881.284
264.351	15.485	1169.953	880.981
265.366	15.563	1168.957	880.562
266.380	15.399	1168.934	879.607
267.395	15.460	1167.906	879.077
268.409	15.580	1167.057	878.985
269.424	15.588	1166.325	878.397
270.439	15.503	1166.091	877.703
271.453	15.521	1165.338	877.151
272.468	15.579	1164.126	876.463
273.482	15.535	1163.642	875.791
274.497	15.515	1163.034	875.154
275.512	15.590	1162.297	874.914
276.526	15.662	1161.084	874.297
277.541	15.621	1160.506	873.571
278.555	15.701	1159.906	873.457
279.570	15.764	1159.201	873.177
280.585	15.710	1158.070	871.965
281.599	15.750	1157.415	871.606
282.614	15.721	1156.504	870.692
283.628	15.710	1155.071	869.476
284.643	15.699	1154.415	868.852
285.657	15.831	1153.490	868.756
286.672	15.882	1152.432	868.149
287.687	15.692	1151.874	866.671
288.701	15.815	1151.176	866.703
289.716	15.778	1150.383	865.838
290.730	15.840	1149.484	865.402
291.745	15.805	1148.603	864.487
292.760	15.906	1148.025	864.493
293.774	15.907	1147.554	864.065
294.789	15.951	1146.845	863.683
295.803	15.914	1145.871	862.679
296.818	16.012	1145.053	862.491
297.833	15.873	1144.672	861.417
298.847	15.985	1143.899	861.332
299.862	15.998	1143.325	860.887
300.876	15.955	1142.712	860.131
301.891	15.950	1141.654	859.234
302.906	16.113	1140.991	859.490
303.920	16.091	1140.585	858.994
304.935	16.136	1139.881	858.618
305.949	16.239	1138.934	858.355
306.964	16.183	1138.504	857.671
307.979	16.264	1137.217	857.036
308.993	16.131	1136.894	856.043
310.008	16.209	1136.016	855.697
311.022	16.279	1134.972	855.193
312.037	16.095	1134.702	853.980
313.052	16.249	1133.321	853.644
314.066	16.241	1132.621	853.001
315.081	16.307	1131.548	852.451
316.095	16.159	1131.061	851.260
317.110	16.234	1130.585	851.207
318.125	16.179	1129.741	850.216
319.139	16.099	1129.575	849.615
320.154	16.244	1128.057	849.128
321.168	16.239	1127.548	848.642
322.183	16.262	1126.655	848.011
323.197	16.267	1126.349	847.732
324.212	16.323	1125.992	847.667
325.227	16.233	1125.261	846.592
326.241	16.341	1124.431	846.436
327.256	16.312	1123.274	845.346
328.270	16.264	1122.798	844.671
329.285	16.259	1121.742	843.775
330.300	16.340	1120.829	843.419
331.314	16.389	1119.886	842.880
332.329	16.284	1119.264	841.813
333.343	16.374	1118.137	841.338
334.358	16.336	1117.321	840.461
335.373	16.410	1116.595	840.211
336.387	16.473	1115.921	839.940
337.402	16.500	1115.144	839.419
338.416	16.612	1114.289	839.256
339.431	16.580	1113.455	838.392
340.446	16.624	1112.950	838.155
341.460	16.683	1112.096	837.731
342.475	16.608	1111.526	836.858
343.489	16.689	1110.489	836.402
344.504	16.810	1109.209	835.960
345.519	16.778	1108.907	835.503
346.533	16.736	1107.791	834.383
347.548	16.892	1106.888	834.395
348.562	16.760	1106.567	833.429
349.577	16.720	1105.743	832.539
350.592	16.715	1104.763	831.703
351.606	16.754	1104.435	831.571
352.621	16.766	1103.458	830.822
353.635	16.680	1102.874	829.887
354.650	16.701	1102.265	829.458
355.665	16.878	1101.229	829.470
356.679	16.832	1100.794	828.844
357.694	16.819	1100.602	828.566
358.708	16.879	1099.419	827.892
359.723	16.878	1099.036	827.526
360.738	16.848	1098.448	826.863
361.752	16.802	1098.085	826.292
362.767	16.883	1097.226	825.967
363.781	16.870	1096.774	825.491
364.796	16.888	1096.164	825.050
365.810	16.855	1095.293	824.157
366.825	17.032	1094.754	824.539
367.840	17.028	1094.445	824.215
368.854	17.040	1093.604	823.569
369.869	17.105	1092.855	823.246
370.883	17.135	1091.858	822.569
371.898	17.105	1091.371	821.984
372.913	17.176	1090.570	821.652
373.927	17.155	1089.860	820.940
374.942	17.113	1089.447	820.354
375.956	17.170	1089.357	820.486
376.971	17.212	1088.409	819.905
377.986	17.272	1087.664	819.560
379.000	17.226	1087.344	819.024
380.015	17.297	1086.500	818.658
381.029	17.247	1085.872	817.871
382.044	17.334	1085.063	817.609
383.059	17.351	1084.423	817.138
384.073	17.407	1083.757	816.828
385.088	17.373	1082.955	815.990
386.102	17.358	1081.973	815.108
387.117	17.431	1080.756	814.465
388.132	17.339	1079.901	813.310
389.146	17.304	1079.435	812.723
390.161	17.437	1078.647	812.693
391.175	17.385	1078.047	811.920
392.190	17.408	1077.178	811.302
393.205	17.477	1076.238	810.849
394.219	17.407	1075.701	810.042
395.234	17.463	1074.541	809.364
396.248	17.463	1073.693	808.655
397.263	17.479	1072.737	807.935
398.278	17.559	1072.077	807.747
399.292	17.431	1071.851	806.897
400.307	17.422	1070.822	806.009
401.321	17.425	1070.384	805.622
402.336	17.587	1069.324	805.519
403.350	17.581	1068.792	805.020
404.365	17.544	1067.848	804.065
405.380	17.497	1067.461	803.480
406.394	17.572	1066.352	802.925
407.409	17.596	1065.968	802.677
408.423	17.649	1065.088	802.196
409.438	17.773	1064.012	801.898
410.453	17.714	1063.980	801.525
411.467	17.707	1062.991	800.674
412.482	17.787	1062.140	800.339
413.496	17.749	1061.683	799.745
414.511	17.801	1060.966	799.381
415.526	17.885	1060.556	799.390
416.540	17.916	1060.100	799.123
417.555	17.893	1059.472	798.471
418.569	17.866	1058.785	797.756
419.584	18.068	1058.167	798.162
420.599	17.937	1057.973	797.337
421.613	100.834	1318.318	1449.614
422.628	93.058	1356.204	1449.718
