DTS Sentinel unit serial number:	SN413079Multiplexer serial number:	ORYXHardware model number:	OX4-SRSoftware version number:	ORYX F/W v4.00 Oryx Data Collector v3.7.2.0data status	okinstallation	princeton_trtdifferential loss correction	single-endedforward channel	channel 2reverse channel	N/Adate	2019/09/14time	00:51:34forward acquisition time	60.00reverse acquisition time	0.00gamma	496.2192k internal	0.2338k external	0.2338temperature offset calibration	1.0124default loss term (dB/km)	0.3790temperature slope calibration	1.0000multiplexer offset coefficient	1.0000multiplexer slope coefficient	1.0000fibre end	0.00T internal ref (°C)	26.41T ext. ref 1 (°C)	3.18T ext. ref 2 (°C)	21.20length (m)	temperature (°C)	Stokes	anti-Stokes-747.200	14.142	0.166	-0.130
-746.185	-200.000	0.007	-0.246
-745.171	-16.116	0.256	-0.163
-744.156	800.000	-0.082	0.256
-743.142	14.044	0.078	-0.061
-742.127	800.000	0.063	0.180
-741.112	-200.000	-0.037	0.161
-740.098	99.877	0.076	0.088
-739.083	380.061	0.069	0.143
-738.069	194.391	-0.033	0.049
-737.054	-200.000	-0.018	-0.206
-736.039	208.211	0.007	0.010
-735.025	297.480	0.111	0.205
-734.010	800.000	-0.055	-0.238
-732.996	99.912	-0.193	-0.225
-731.981	232.711	-0.021	0.035
-730.966	-20.906	-0.215	-0.132
-729.952	76.812	-0.214	-0.228
-728.937	142.487	0.083	0.110
-727.923	62.186	-0.148	0.148
-726.908	209.345	-0.146	0.229
-725.894	-111.759	-0.193	0.039
-724.879	117.065	-0.304	0.374
-723.864	800.000	0.042	-0.139
-722.850	-108.912	-0.273	-0.058
-721.835	-112.347	0.057	0.012
-720.821	292.490	-0.044	-0.080
-719.806	-93.025	-0.354	0.099
-718.791	318.801	0.056	0.105
-717.777	-200.000	-0.023	-0.164
-716.762	-7.969	0.220	-0.149
-715.748	-110.887	-0.041	-0.008
-714.733	-180.844	-0.473	-0.010
-713.718	-115.998	-0.164	-0.031
-712.704	-39.065	0.096	0.050
-711.689	310.549	-0.130	0.243
-710.675	-159.326	-0.147	-0.008
-709.660	140.476	-0.080	-0.106
-708.645	68.268	-0.120	-0.123
-707.631	-40.130	-0.102	0.053
-706.616	587.014	-0.105	0.258
-705.602	-153.296	-0.342	-0.024
-704.587	96.259	-0.078	0.090
-703.572	-42.033	-0.169	0.087
-702.558	-117.643	0.204	-0.037
-701.543	-36.218	-0.123	0.066
-700.529	15.476	-0.096	-0.076
-699.514	-136.402	-0.245	0.029
-698.499	-137.731	-0.346	0.039
-697.485	116.706	0.041	0.050
-696.470	-129.224	0.079	-0.011
-695.456	-11.210	0.273	-0.180
-694.441	800.000	0.052	-0.178
-693.426	-32.987	-0.244	0.135
-692.412	613.309	-0.127	-0.319
-691.397	-142.564	0.161	-0.016
-690.383	-53.057	-0.112	0.051
-689.368	-132.643	0.181	0.023
-688.354	-137.137	0.030	0.003
-687.339	-134.840	-0.204	0.025
-686.324	-153.557	0.466	0.032
-685.310	-8.494	0.194	0.130
-684.295	-43.677	-0.311	-0.157
-683.281	65.858	-0.190	-0.193
-682.266	105.778	-0.110	-0.130
-681.251	-62.067	-0.121	0.051
-680.237	-119.183	0.170	-0.030
-679.222	267.215	0.147	-0.258
-678.208	240.775	-0.178	0.296
-677.193	-134.714	-0.126	-0.015
-676.178	800.000	0.105	0.362
-675.164	-105.828	-0.221	-0.050
-674.149	-200.000	-0.008	0.045
-673.135	-200.000	0.013	0.116
-672.120	191.983	0.159	0.241
-671.105	43.211	0.162	0.148
-670.091	800.000	-0.091	-0.285
-669.076	-6.612	0.190	-0.130
-668.062	370.139	-0.069	0.139
-667.047	25.636	0.072	0.060
-666.032	-200.000	0.027	-0.187
-665.018	-66.774	-0.139	-0.055
-664.003	-200.000	-0.050	-0.267
-662.989	255.974	-0.177	-0.303
-661.974	175.242	0.023	-0.034
-660.959	800.000	0.012	-0.051
-659.945	-96.554	0.157	0.041
-658.930	-200.000	-0.054	0.247
-657.916	800.000	-0.116	-0.403
-656.901	-18.570	0.118	-0.074
-655.886	100.535	0.215	0.250
-654.872	-200.000	0.058	-0.269
-653.857	118.412	-0.185	0.229
-652.843	529.264	0.028	-0.066
-651.828	-200.000	0.204	0.001
-650.814	50.796	0.019	0.018
-649.799	-65.559	-0.302	-0.121
-648.784	504.255	0.153	0.354
-647.770	449.375	0.062	0.137
-646.755	-105.626	-0.253	0.057
-645.741	195.972	0.065	0.099
-644.726	800.000	-0.079	0.310
-643.711	360.852	-0.102	0.205
-642.697	255.712	-0.035	0.060
-641.682	375.508	-0.088	0.180
-640.668	-106.494	0.097	-0.022
-639.653	-200.000	-0.024	0.212
-638.638	-143.098	-0.053	0.005
-637.624	-46.573	-0.154	0.076
-636.609	98.339	-0.030	-0.035
-635.595	229.259	-0.051	0.084
-634.580	-200.000	0.014	-0.072
-633.565	95.705	-0.348	-0.396
-632.551	40.816	0.125	-0.112
-631.536	165.338	-0.201	-0.284
-630.522	800.000	0.072	-0.210
-629.507	86.998	0.074	0.082
-628.492	102.245	-0.178	0.208
-627.478	-63.606	-0.147	-0.060
-626.463	-200.000	0.032	-0.233
-625.449	-85.307	0.258	0.080
-624.434	-55.356	-0.077	0.035
-623.419	-158.285	0.242	-0.014
-622.405	-200.000	-0.021	0.127
-621.390	-78.140	-0.118	0.041
-620.376	108.637	0.178	-0.213
-619.361	-95.543	0.302	0.081
-618.346	-42.469	-0.240	-0.122
-617.332	643.815	0.076	0.192
-616.317	-200.000	0.014	0.322
-615.303	800.000	-0.048	0.173
-614.288	-200.000	0.027	-0.238
-613.273	-125.881	-0.275	-0.041
-612.259	-62.332	0.333	0.138
-611.244	-141.375	-0.106	0.011
-610.230	-200.000	-0.002	0.279
-609.215	-45.173	0.110	-0.055
-608.201	800.000	0.032	0.099
-607.186	35.729	-0.070	-0.061
-606.171	7.745	0.212	0.158
-605.157	324.894	-0.122	0.233
-604.142	-44.895	-0.052	0.026
-603.128	800.000	-0.061	-0.206
-602.113	-51.933	-0.292	-0.135
-601.098	247.524	0.202	-0.340
-600.084	-63.912	-0.096	0.039
-599.069	744.213	0.065	0.175
-598.055	166.628	-0.073	0.104
-597.040	-35.743	0.132	0.071
-596.025	-13.531	0.172	0.111
-595.011	-200.000	0.000	0.172
-593.996	-31.743	0.127	0.071
-592.982	199.942	-0.175	-0.268
-591.967	529.104	0.071	0.166
-590.952	-200.000	0.005	-0.042
-589.938	176.410	0.060	0.086
-588.923	-200.000	-0.001	-0.171
-587.909	241.963	-0.238	-0.397
-586.894	117.116	-0.237	-0.291
-585.879	795.146	0.071	-0.196
-584.865	-200.000	0.036	-0.231
-583.850	-192.954	0.046	0.000
-582.836	-2.681	-0.163	-0.113
-581.821	-101.812	-0.214	0.052
-580.806	800.000	0.071	0.247
-579.792	-11.589	-0.065	-0.043
-578.777	367.901	-0.056	0.112
-577.763	-164.021	0.586	0.027
-576.748	-79.337	0.140	-0.047
-575.733	159.563	-0.110	-0.152
-574.719	-200.000	-0.026	-0.337
-573.704	13.469	0.212	0.164
-572.690	229.708	-0.150	-0.244
-571.675	368.776	-0.136	-0.274
-570.661	377.681	0.063	-0.129
-569.646	800.000	-0.023	0.064
-568.631	-34.217	0.113	-0.062
-567.617	-11.789	0.038	0.025
-566.602	410.739	0.021	0.045
-565.588	-105.271	-0.121	-0.027
-564.573	163.674	-0.060	-0.083
-563.558	-200.000	0.034	-0.210
-562.544	45.906	0.237	0.218
-561.529	-64.482	-0.371	-0.150
-560.515	-200.000	0.008	-0.196
-559.500	-162.079	0.214	-0.011
-558.485	-38.224	0.228	0.121
-557.471	324.395	0.252	-0.480
-556.456	-46.853	-0.108	-0.053
-555.442	-24.397	0.286	0.170
-554.427	-174.079	-0.251	0.007
-553.412	-61.181	-0.341	0.143
-552.398	-200.000	0.031	-0.317
-551.383	-200.000	-0.009	0.161
-550.369	800.000	0.059	-0.176
-549.354	-19.298	-0.141	0.087
-548.339	119.383	0.097	-0.120
-547.325	-120.198	-0.143	-0.024
-546.310	-130.530	-0.438	-0.059
-545.296	-200.000	0.024	0.209
-544.281	-25.169	0.212	-0.125
-543.266	-76.034	-0.056	0.020
-542.252	-200.000	0.024	-0.154
-541.237	-200.000	-0.014	0.118
-540.223	69.435	-0.059	0.060
-539.208	23.842	-0.113	-0.093
-538.193	59.057	0.229	0.224
-537.179	170.202	-0.220	0.313
-536.164	-168.179	0.032	0.001
-535.150	230.877	0.113	0.184
-534.135	-43.493	-0.423	0.213
-533.121	-68.049	-0.144	-0.056
-532.106	202.025	-0.082	-0.126
-531.091	-76.651	0.063	0.022
-530.077	-184.010	-0.136	0.002
-529.062	238.834	0.286	-0.473
-528.048	-200.000	-0.016	-0.126
-527.033	24.298	0.204	0.168
-526.018	123.777	-0.165	0.206
-525.004	-200.000	-0.024	0.265
-523.989	79.870	0.130	-0.139
-522.975	144.154	0.096	-0.127
-521.960	-200.000	-0.061	0.335
-520.945	48.816	-0.120	-0.112
-519.931	-77.887	0.159	-0.055
-518.916	-4.287	-0.151	-0.104
-517.902	317.978	-0.083	-0.157
-516.887	-200.000	0.032	-0.160
-515.872	201.036	-0.092	-0.140
-514.858	-200.000	0.083	0.371
-513.843	-117.838	0.119	-0.021
-512.829	138.467	-0.261	-0.340
-511.814	800.000	-0.018	-0.059
-510.799	-104.975	-0.091	-0.021
-509.785	-64.982	-0.261	0.105
-508.770	-29.248	-0.180	0.103
-507.756	-200.000	-0.054	-0.317
-506.741	-1.956	-0.060	0.042
-505.726	-200.000	0.025	0.154
-504.712	59.032	-0.178	0.174
-503.697	800.000	-0.136	0.571
-502.683	277.782	-0.161	0.286
-501.668	126.184	0.106	0.133
-500.653	-32.841	-0.182	0.100
-499.639	-92.782	0.208	-0.058
-498.624	26.760	0.077	-0.064
-497.610	-89.957	0.070	-0.020
-496.595	88.240	-0.219	-0.241
-495.581	-200.000	-0.042	-0.243
-494.566	709.146	-0.094	0.246
-493.551	285.289	-0.071	-0.127
-492.537	-17.195	-0.229	-0.144
-491.522	140.044	0.152	0.199
-490.508	122.781	0.060	-0.075
-489.493	-4.006	0.073	0.051
-488.478	322.196	-0.050	-0.095
-487.464	264.512	-0.081	-0.140
-486.449	-200.000	0.010	-0.200
-485.435	573.829	0.139	0.337
-484.420	-156.222	0.275	0.017
-483.405	351.084	-0.094	-0.185
-482.391	-66.790	-0.114	0.045
-481.376	333.644	0.061	0.117
-480.362	-137.318	-0.239	0.027
-479.347	-12.066	-0.131	0.085
-478.332	-200.000	-0.060	0.271
-477.318	-104.753	-0.135	-0.031
-476.303	-200.000	-0.011	0.216
-475.289	-200.000	-0.081	-0.449
-474.274	800.000	0.056	-0.197
-473.259	-200.000	0.176	-0.000
-472.245	-37.849	-0.244	-0.129
-471.230	99.132	0.108	0.124
-470.216	-146.259	-0.372	-0.032
-469.201	319.016	0.048	0.091
-468.186	419.684	0.034	0.073
-467.172	31.776	-0.409	-0.349
-466.157	-68.282	0.172	0.066
-465.143	-150.096	0.302	-0.023
-464.128	173.487	0.171	0.245
-463.113	-200.000	0.001	0.086
-462.099	-200.000	0.001	-0.332
-461.084	-45.058	-0.187	0.092
-460.070	509.620	-0.069	-0.159
-459.055	-34.857	0.060	0.033
-458.040	800.000	-0.026	0.082
-457.026	641.969	-0.073	0.185
-456.011	-96.542	-0.490	-0.128
-454.997	51.644	0.076	0.072
-453.982	545.244	0.187	0.444
-452.968	271.798	-0.011	0.019
-451.953	532.793	0.163	-0.384
-450.938	114.715	-0.157	-0.190
-449.924	-104.012	-0.048	-0.011
-448.909	-26.604	-0.119	0.069
-447.895	-129.672	0.062	-0.008
-446.880	-132.515	0.451	-0.058
-445.865	-95.607	0.130	0.035
-444.851	800.000	-0.117	0.389
-443.836	-200.000	-0.041	-0.297
-442.822	77.648	-0.209	0.221
-441.807	185.685	0.099	0.146
-440.792	-18.107	0.368	0.229
-439.778	-200.000	0.032	-0.158
-438.763	-48.052	-0.146	0.070
-437.749	211.544	-0.103	0.161
-436.734	89.908	0.063	0.070
-435.719	-44.052	-0.176	-0.088
-434.705	37.960	-0.282	-0.248
-433.690	-200.000	-0.007	0.106
-432.676	216.077	-0.204	0.321
-431.661	800.000	0.119	-0.388
-430.646	-137.647	0.152	0.017
-429.632	-87.362	-0.142	0.043
-428.617	296.893	-0.094	0.172
-427.603	-177.761	-0.054	0.001
-426.588	-66.330	-0.214	-0.084
-425.573	-6.835	0.187	0.126
-424.559	300.720	0.107	0.196
-423.544	622.368	0.091	0.227
-422.530	27.824	0.103	0.086
-421.515	-109.364	0.589	0.123
-420.500	-65.081	-0.099	0.040
-419.486	-53.097	-0.108	-0.049
-418.471	-92.005	0.171	-0.048
-417.457	10.355	-0.108	0.082
-416.442	106.757	-0.042	0.049
-415.428	-200.000	0.027	0.132
-414.413	-76.685	-0.062	0.021
-413.398	-61.300	-0.047	-0.020
-412.384	-117.750	-0.052	0.009
-411.369	267.766	0.063	-0.109
-410.355	800.000	0.043	0.178
-409.340	-123.126	0.110	0.017
-408.325	800.000	0.052	-0.209
-407.311	-121.812	-0.222	-0.036
-406.296	-27.472	-0.282	-0.162
-405.282	-16.407	0.023	0.014
-404.267	-97.209	0.283	-0.073
-403.252	-200.000	-0.002	-0.110
-402.238	73.946	0.121	-0.125
-401.223	800.000	-0.067	-0.272
-400.209	321.412	-0.073	0.137
-399.194	800.000	0.043	0.157
-398.179	-28.040	0.191	0.109
-397.165	90.113	0.163	-0.180
-396.150	-200.000	0.028	-0.154
-395.136	800.000	0.063	0.207
-394.121	-200.000	-0.060	-0.345
-393.106	286.369	-0.073	-0.131
-392.092	-200.000	0.017	-0.080
-391.077	174.896	-0.144	-0.206
-390.063	154.101	-0.058	0.078
-389.048	-200.000	-0.017	0.216
-388.033	-200.000	-0.024	0.179
-387.019	-77.478	0.315	-0.108
-386.004	2.700	-0.155	0.111
-384.990	-157.538	-0.142	0.008
-383.975	-126.216	0.267	-0.040
-382.960	-120.509	0.301	0.051
-381.946	-200.000	-0.026	0.204
-380.931	-99.899	0.293	0.072
-379.917	56.197	-0.080	0.077
-378.902	-152.382	-0.136	-0.010
-377.888	-115.790	0.400	-0.074
-376.873	66.281	-0.077	0.077
-375.858	600.773	-0.080	0.198
-374.844	-93.535	0.125	-0.034
-373.829	0.624	0.232	0.164
-372.815	305.009	-0.079	0.145
-371.800	-200.000	0.014	0.205
-370.785	-200.000	0.000	0.178
-369.771	-200.000	-0.018	-0.317
-368.756	530.147	0.094	-0.219
-367.742	81.850	0.034	-0.037
-366.727	73.921	-0.110	0.114
-365.712	190.221	0.095	0.141
-364.698	11.860	-0.101	-0.076
-363.683	521.368	0.062	0.145
-362.669	-200.000	0.020	-0.144
-361.654	205.389	0.078	-0.119
-360.639	9.421	-0.332	0.249
-359.625	163.978	0.126	-0.175
-358.610	-95.455	-0.217	-0.058
-357.596	115.991	0.134	-0.162
-356.581	101.406	-0.288	0.331
-355.566	-33.091	-0.113	0.062
-354.552	467.199	0.055	-0.123
-353.537	-88.996	-0.150	-0.044
-352.523	-4.185	0.367	-0.251
-351.508	734.998	0.045	-0.119
-350.493	-62.062	0.111	0.046
-349.479	51.030	0.142	-0.133
-348.464	-8.439	-0.202	0.134
-347.450	-64.265	0.065	0.026
-346.435	17.279	-0.203	0.159
-345.420	-156.419	-0.198	0.012
-344.406	-150.234	0.197	-0.015
-343.391	-149.864	-0.604	-0.047
-342.377	224.843	-0.084	-0.134
-341.362	-89.045	0.222	0.065
-340.348	88.620	0.167	0.184
-339.333	-200.000	-0.007	0.049
-338.318	800.000	-0.014	-0.051
-337.304	-71.579	-0.282	0.104
-336.289	-58.657	0.143	0.061
-335.275	218.154	-0.126	-0.198
-334.260	-128.275	-0.100	-0.014
-333.245	-200.000	-0.046	-0.227
-332.231	93.501	0.176	-0.197
-331.216	-38.247	0.263	0.138
-330.202	-135.765	-0.019	-0.002
-329.187	-200.000	-0.006	-0.036
-328.172	267.906	-0.091	-0.156
-327.158	-48.462	-0.161	0.077
-326.143	33.916	-0.245	0.211
-325.129	-136.269	0.439	-0.051
-324.114	272.252	-0.112	0.195
-323.099	114.509	-0.201	-0.242
-322.085	23.181	0.177	-0.143
-321.070	232.510	-0.169	-0.273
-320.056	79.039	-0.052	-0.055
-319.041	428.504	0.010	-0.021
-318.026	375.293	-0.109	-0.219
-317.012	-179.822	-0.218	0.005
-315.997	-88.825	0.105	0.031
-314.983	-79.411	0.219	-0.073
-313.968	263.564	0.159	-0.273
-312.953	87.535	0.089	-0.097
-311.939	-200.000	0.015	-0.214
-310.924	99.836	-0.107	0.122
-309.910	128.368	0.117	-0.147
-308.895	-200.000	0.012	-0.122
-307.880	568.113	-0.077	-0.184
-306.866	800.000	0.060	-0.228
-305.851	-144.610	-0.173	-0.016
-304.837	768.832	0.048	0.129
-303.822	800.000	0.057	0.182
-302.807	800.000	-0.130	0.488
-301.793	73.671	0.245	-0.253
-300.778	-200.000	-0.003	0.347
-299.764	589.016	0.106	-0.259
-298.749	-200.000	-0.021	-0.100
-297.735	-200.000	-0.036	0.451
-296.720	-200.000	0.016	0.089
-295.705	562.409	0.030	0.072
-294.691	-54.316	0.270	0.121
-293.676	629.248	0.057	-0.142
-292.662	377.708	-0.186	-0.376
-291.647	-181.630	-0.173	-0.003
-290.632	67.596	-0.106	0.106
-289.618	-123.953	-0.153	-0.024
-288.603	-91.698	-0.069	-0.019
-287.589	-73.969	0.083	0.030
-286.574	-94.596	-0.414	0.111
-285.559	30.898	0.420	0.354
-284.545	-24.889	0.193	0.113
-283.530	800.000	-0.074	0.298
-282.516	-99.883	-0.145	0.036
-281.501	800.000	-0.029	0.109
-280.486	50.898	0.081	0.076
-279.472	-91.045	0.265	-0.075
-278.457	354.202	0.041	0.080
-277.443	-104.464	0.251	-0.057
-276.428	800.000	-0.095	-0.387
-275.413	-200.000	-0.033	0.261
-274.399	22.571	0.100	0.081
-273.384	-99.713	0.090	-0.022
-272.370	2.535	-0.157	0.112
-271.355	132.945	0.073	-0.093
-270.340	-159.094	0.307	0.017
-269.326	180.373	-0.075	0.109
-268.311	-47.712	-0.126	0.060
-267.297	720.161	0.071	0.186
-266.282	-200.000	-0.014	-0.095
-265.267	17.344	0.141	-0.110
-264.253	-92.509	0.492	0.136
-263.238	-122.488	-0.314	-0.050
-262.224	-57.694	-0.150	0.065
-261.209	50.718	-0.154	0.144
-260.195	111.993	0.107	0.127
-259.180	-200.000	0.009	-0.097
-258.165	51.888	-0.110	-0.103
-257.151	39.678	-0.086	-0.076
-256.136	-12.679	0.117	-0.075
-255.122	-153.314	0.102	-0.007
-254.107	-50.336	0.180	-0.084
-253.092	-108.398	0.098	0.021
-252.078	130.999	-0.098	-0.123
-251.063	251.475	0.156	0.262
-250.049	48.937	-0.139	0.128
-249.034	76.666	-0.076	0.079
-248.019	-76.538	-0.254	-0.088
-247.005	-152.497	0.276	-0.019
-245.990	-80.727	-0.222	-0.073
-244.976	-36.210	0.067	-0.036
-243.961	-46.871	0.176	-0.084
-242.946	91.082	-0.160	-0.176
-241.932	18.224	-0.095	0.074
-240.917	104.602	0.379	-0.439
-239.903	-193.490	-0.258	-0.002
-238.888	217.971	0.093	0.146
-237.873	286.311	-0.155	0.276
-236.859	-125.961	-0.215	-0.032
-235.844	-104.074	-0.015	0.003
-234.830	-68.447	-0.431	0.164
-233.815	-200.000	-0.024	0.125
-232.800	534.379	-0.088	-0.206
-231.786	-75.472	-0.301	-0.105
-230.771	215.414	-0.135	-0.211
-229.757	588.120	0.109	-0.263
-228.742	-68.501	-0.244	0.093
-227.727	-200.000	-0.078	-0.443
-226.713	-102.690	0.299	-0.070
-225.698	-200.000	-0.003	0.103
-224.684	800.000	0.145	-0.457
-223.669	-4.483	0.083	-0.056
-222.655	800.000	0.028	0.095
-221.640	58.350	-0.186	0.180
-220.625	783.353	0.056	0.150
-219.611	-66.813	-0.193	-0.075
-218.596	-200.000	0.055	0.241
-217.582	-125.119	0.110	0.017
-216.567	-184.881	-0.045	0.001
-215.552	800.000	0.049	-0.180
-214.538	211.827	-0.163	0.253
-213.523	63.569	0.203	-0.200
-212.509	-72.630	-0.143	-0.052
-211.494	-108.505	0.322	0.068
-210.479	159.716	-0.200	-0.274
-209.465	800.000	0.060	-0.168
-208.450	800.000	0.020	-0.061
-207.436	-13.182	-0.184	-0.117
-206.421	276.432	0.106	0.185
-205.406	194.710	-0.099	0.148
-204.392	705.906	0.011	0.029
-203.377	42.068	0.103	0.092
-202.363	-72.844	-0.288	-0.104
-201.348	-200.000	0.029	0.205
-200.333	-5.545	0.121	0.081
-199.319	-88.132	0.117	-0.035
-198.304	-169.987	0.236	0.008
-197.290	-200.000	-0.092	0.519
-196.275	189.324	0.174	0.256
-195.260	290.246	0.082	0.146
-194.246	800.000	0.013	0.051
-193.231	-71.277	-0.281	-0.104
-192.217	49.706	-0.307	-0.284
-191.202	-200.000	0.060	-0.333
-190.187	-200.000	0.300	-0.000
-189.173	604.997	0.091	-0.222
-188.158	156.848	-0.077	0.105
-187.144	367.316	-0.031	0.061
-186.129	32.308	0.035	-0.030
-185.114	318.960	0.173	-0.322
-184.100	800.000	0.063	0.237
-183.085	59.369	-0.033	0.031
-182.071	-106.664	0.198	0.043
-181.056	-37.205	0.217	0.114
-180.042	69.374	0.183	0.185
-179.027	85.161	0.148	-0.159
-178.012	31.065	0.228	-0.192
-176.998	-140.370	0.221	-0.023
-175.983	369.037	-0.068	-0.134
-174.969	-101.196	0.098	-0.023
-173.954	517.306	-0.125	-0.287
-172.939	-69.641	0.274	-0.103
-171.925	-167.672	0.289	0.011
-170.910	196.212	-0.022	-0.032
-169.896	20.851	-0.156	0.124
-168.881	-11.988	0.248	-0.160
-167.866	-200.000	-0.027	-0.312
-166.852	36.588	0.256	0.221
-165.837	-111.967	-0.299	-0.059
-164.823	3.792	-0.223	0.160
-163.808	-128.337	0.401	-0.056
-162.793	-200.000	-0.043	0.215
-161.779	800.000	-0.038	0.118
-160.764	108.992	0.348	0.408
-159.750	-200.000	-0.017	-0.102
-158.735	218.235	0.066	0.103
-157.720	-71.728	0.191	-0.070
-156.706	-85.301	-0.220	-0.067
-155.691	80.668	0.012	-0.013
-154.677	-29.338	0.314	0.176
-153.662	138.167	-0.073	-0.093
-152.647	-168.888	0.521	0.019
-151.633	-89.804	-0.144	0.041
-150.618	606.430	0.042	-0.102
-149.604	-82.950	-0.075	0.024
-148.589	-71.010	0.139	-0.051
-147.574	-62.330	0.134	-0.055
-146.560	83.825	-0.165	-0.176
-145.545	-137.513	0.538	-0.060
-144.531	-183.518	0.344	0.006
-143.516	-200.000	-0.007	-0.212
-142.502	-69.725	0.159	-0.060
-141.487	-200.000	-0.050	-0.244
-140.472	800.000	-0.055	-0.229
-139.458	-200.000	-0.029	-0.198
-138.443	-200.000	0.011	-0.217
-137.429	-200.000	0.009	0.239
-136.414	30.300	0.150	-0.126
-135.399	204.177	0.138	0.209
-134.385	154.993	0.043	0.057
-133.370	267.232	-0.159	0.273
-132.356	304.641	0.150	-0.272
-131.341	47.359	0.124	-0.113
-130.326	99.346	-0.077	-0.088
-129.312	-55.627	-0.213	0.093
-128.297	-116.739	0.314	0.057
-127.283	-2.531	0.163	0.112
-126.268	-57.035	0.159	-0.069
-125.253	-121.914	-0.256	0.041
-124.239	373.812	-0.094	0.187
-123.224	-200.000	0.010	0.269
-122.210	276.324	0.022	-0.038
-121.195	-14.367	0.274	0.173
-120.180	-101.692	-0.175	-0.042
-119.166	-91.400	0.050	-0.014
-118.151	800.000	0.016	-0.063
-117.137	18.289	-0.290	-0.227
-116.122	159.436	0.095	-0.130
-115.107	70.687	-0.141	0.142
-114.093	-49.975	-0.124	-0.058
-113.078	-71.082	0.194	0.071
-112.064	-36.688	0.375	-0.197
-111.049	321.003	-0.138	-0.256
-110.034	488.610	0.050	0.112
-109.020	339.429	0.018	0.034
-108.005	279.304	-0.107	-0.187
-106.991	446.257	0.087	0.187
-105.976	-104.107	0.084	-0.019
-104.962	800.000	-0.120	0.351
-103.947	-170.292	-0.257	-0.009
-102.932	795.978	0.043	-0.116
-101.918	-200.000	-0.021	0.097
-100.903	99.008	-0.150	0.169
-99.889	-200.000	0.029	0.342
-98.874	239.852	0.272	0.444
-97.859	-200.000	-0.019	0.174
-96.845	137.349	0.173	0.221
-95.830	253.543	0.245	0.409
-94.816	-157.030	-0.356	-0.021
-93.801	800.000	0.079	0.258
-92.786	-26.116	0.296	-0.170
-91.772	-29.489	0.183	0.102
-90.757	-103.571	0.267	0.061
-89.743	0.209	0.173	-0.121
-88.728	-43.794	-0.126	0.062
-87.713	116.655	0.162	-0.195
-86.699	-200.000	0.035	-0.189
-85.684	148.957	-0.290	0.384
-84.670	-68.916	0.102	-0.038
-83.655	-83.906	0.163	0.051
-82.640	-4.856	-0.147	0.099
-81.626	-50.449	0.206	-0.095
-80.611	-106.905	-0.159	0.034
-79.597	164.086	0.149	0.205
-78.582	319.472	0.103	-0.191
-77.567	-95.576	-0.073	-0.019
-76.553	-54.695	-0.357	-0.158
-75.538	113.346	0.080	0.095
-74.524	-200.000	0.053	0.298
-73.509	800.000	-0.028	-0.079
-72.494	-200.000	0.017	-0.284
-71.480	800.000	-0.069	-0.187
-70.465	-148.026	-0.218	-0.018
-69.451	-35.243	0.292	-0.155
-68.436	196.909	0.230	0.343
-67.422	-119.485	-0.272	0.046
-66.407	136.102	0.080	-0.102
-65.392	190.486	-0.072	0.105
-64.378	-88.620	0.325	0.094
-63.363	-200.000	-0.040	0.193
-62.349	-133.818	0.695	0.084
-61.334	90.455	-1.200	-1.312
-60.319	399.963	0.391	0.801
-59.305	432.354	-0.522	-1.106
-58.290	448.852	0.724	1.559
-57.276	230.062	0.892	1.424
-56.261	-200.000	116.057	640.475
-55.246	497.479	1539.425	3459.744
-54.232	174.865	2719.405	3843.863
-53.217	98.258	2292.610	2578.639
-52.203	35.367	1901.669	1628.909
-51.188	29.572	1695.155	1407.933
-50.173	27.120	1654.530	1355.865
-49.159	46.643	1712.441	1552.228
-48.144	45.580	1725.092	1555.562
-47.130	29.001	1682.931	1393.237
-46.115	26.522	1667.881	1362.096
-45.100	26.300	1663.360	1356.682
-44.086	26.312	1660.906	1354.714
-43.071	26.340	1658.325	1352.762
-42.057	26.288	1655.906	1350.351
-41.042	26.260	1653.982	1348.516
-40.027	26.226	1652.166	1346.729
-39.013	26.250	1650.015	1345.105
-37.998	26.197	1648.517	1343.430
-36.984	26.255	1647.290	1342.814
-35.969	26.455	1645.202	1342.539
-34.954	26.386	1644.128	1341.097
-33.940	26.431	1642.298	1339.888
-32.925	26.301	1640.580	1337.466
-31.911	26.412	1639.152	1337.076
-30.896	26.364	1637.177	1335.054
-29.881	26.311	1636.144	1333.765
-28.867	26.405	1634.278	1332.887
-27.852	26.438	1633.035	1332.063
-26.838	26.457	1631.315	1330.744
-25.823	26.468	1629.642	1329.407
-24.809	26.468	1628.841	1328.705
-23.794	26.438	1627.181	1327.078
-22.779	26.471	1625.342	1325.765
-21.765	26.432	1623.715	1324.102
-20.750	26.438	1622.043	1322.729
-19.736	26.458	1620.791	1321.801
-18.721	26.482	1619.717	1321.053
-17.706	26.386	1618.347	1319.179
-16.692	26.436	1616.592	1318.060
-15.677	26.336	1615.424	1316.327
-14.663	26.495	1613.867	1316.162
-13.648	26.382	1612.637	1314.289
-12.633	26.446	1611.049	1313.406
-11.619	26.447	1609.175	1311.832
-10.604	26.481	1607.433	1310.607
-9.590	26.466	1606.268	1309.494
-8.575	26.468	1604.970	1308.399
-7.560	26.533	1603.317	1307.473
-6.546	26.455	1602.738	1306.381
-5.531	26.406	1601.772	1305.186
-4.517	26.462	1600.522	1304.524
-3.502	26.422	1599.791	1303.591
-2.487	26.542	1597.474	1302.509
-1.473	26.310	1585.564	1291.094
-0.458	23.385	1566.705	1255.000
0.556	20.820	1567.788	1224.301
1.571	18.530	1592.167	1226.863
2.586	18.077	1604.611	1233.073
3.600	15.986	1549.494	1176.030
4.615	9.382	1442.510	1051.691
5.629	4.062	1384.174	975.628
6.644	3.224	1376.586	964.938
7.659	3.170	1375.077	963.456
8.673	3.136	1374.710	962.902
9.688	3.200	1372.437	961.628
10.702	3.176	1369.492	959.326
11.717	5.642	1374.161	977.925
12.731	12.881	1387.363	1032.717
13.746	18.977	1397.885	1078.813
14.761	20.330	1399.582	1088.520
15.775	19.770	1396.878	1082.815
16.790	18.678	1394.157	1073.785
17.804	17.939	1391.939	1067.364
18.819	17.595	1390.864	1064.293
19.834	17.455	1389.970	1062.641
20.848	17.332	1388.013	1060.282
21.863	17.078	1386.968	1057.810
22.877	16.999	1386.208	1056.642
23.892	16.901	1385.179	1055.156
24.907	16.916	1384.397	1054.561
25.921	16.937	1383.711	1054.079
26.936	16.967	1382.697	1053.396
27.950	16.935	1381.781	1052.408
28.965	17.172	1380.201	1052.578
29.980	17.163	1379.724	1052.065
30.994	17.259	1378.123	1051.347
32.009	17.216	1377.708	1050.672
33.023	17.357	1376.032	1050.173
34.038	17.234	1374.816	1048.392
35.053	17.119	1373.768	1046.788
36.067	17.093	1372.176	1045.326
37.082	17.079	1371.617	1044.719
38.096	17.223	1370.312	1044.521
39.111	17.195	1370.005	1044.022
40.126	17.085	1368.300	1041.953
41.140	16.922	1367.277	1040.080
42.155	16.776	1367.068	1038.934
43.169	16.699	1366.979	1038.304
44.184	16.766	1366.359	1038.150
45.199	16.786	1365.953	1037.876
46.213	16.890	1365.586	1038.140
47.228	17.117	1364.883	1038.905
48.242	17.157	1363.801	1038.230
49.257	17.086	1361.700	1036.108
50.271	17.048	1360.945	1035.212
51.286	17.004	1359.467	1033.728
52.301	17.055	1358.304	1033.060
53.315	16.822	1357.110	1030.647
54.330	16.809	1355.929	1029.576
55.344	16.757	1354.816	1028.328
56.359	16.838	1353.779	1027.940
57.374	16.775	1352.911	1026.806
58.388	16.754	1351.824	1025.762
59.403	16.722	1351.543	1025.265
60.417	16.740	1350.585	1024.554
61.432	16.673	1349.535	1023.268
62.447	16.606	1348.792	1022.206
63.461	16.574	1347.455	1020.909
64.476	16.510	1346.464	1019.685
65.490	16.459	1345.400	1018.480
66.505	16.565	1343.799	1017.816
67.520	16.598	1342.722	1017.105
68.534	16.630	1341.676	1016.418
69.549	16.643	1340.203	1015.292
70.563	16.534	1339.645	1014.125
71.578	16.482	1338.254	1012.672
72.593	16.345	1337.755	1011.381
73.607	16.397	1336.701	1010.807
74.622	16.472	1335.668	1010.387
75.636	16.519	1335.131	1010.167
76.651	16.356	1334.635	1008.734
77.666	16.444	1333.886	1008.602
78.680	16.485	1333.864	1008.738
79.695	16.652	1332.687	1008.758
80.709	16.672	1332.325	1008.513
81.724	16.778	1331.294	1008.273
82.739	16.862	1330.205	1007.860
83.753	16.971	1329.865	1008.159
84.768	17.084	1328.496	1007.704
85.782	17.197	1327.928	1007.852
86.797	17.118	1326.422	1006.154
87.812	16.996	1325.217	1004.429
88.826	16.998	1324.139	1003.531
89.841	17.042	1322.947	1002.800
90.855	17.228	1321.842	1002.976
91.870	17.115	1321.182	1001.719
92.884	17.117	1320.427	1001.066
93.899	17.148	1319.587	1000.528
94.914	17.285	1318.480	1000.405
95.928	17.314	1317.683	999.883
96.943	17.244	1316.609	998.566
97.957	17.171	1316.025	997.606
98.972	17.136	1314.868	996.437
99.987	17.110	1313.743	995.344
101.001	17.144	1312.957	994.857
102.016	17.022	1312.196	993.478
103.030	17.252	1310.591	993.518
104.045	17.046	1310.478	992.143
105.060	17.069	1308.566	990.745
106.074	16.857	1307.141	988.338
107.089	16.728	1305.258	986.079
108.103	16.675	1304.375	985.014
109.118	16.572	1303.371	983.571
110.133	16.599	1302.107	982.684
111.147	16.700	1300.481	981.961
112.162	16.706	1299.121	980.882
113.176	16.717	1298.280	980.220
114.191	16.895	1297.203	980.353
115.206	16.860	1296.363	979.429
116.220	16.879	1294.622	978.132
117.235	16.734	1294.211	976.899
118.249	16.682	1292.614	975.311
119.264	16.661	1291.929	974.587
120.279	16.613	1290.767	973.345
121.293	16.609	1289.703	972.433
122.308	16.561	1288.325	971.032
123.322	16.595	1286.867	970.045
124.337	16.501	1285.976	968.751
125.352	16.550	1284.857	968.100
126.366	16.456	1284.160	966.950
127.381	16.554	1282.624	966.270
128.395	16.434	1282.175	965.160
129.410	16.548	1281.085	964.905
130.424	16.623	1280.754	964.999
131.439	16.709	1279.674	964.591
132.454	16.666	1279.033	963.777
133.468	16.733	1277.811	963.153
134.483	16.755	1277.253	962.769
135.497	16.731	1276.022	961.623
136.512	16.826	1274.757	961.124
137.527	16.708	1273.594	959.492
138.541	16.863	1272.083	959.146
139.556	16.904	1271.010	958.485
140.570	16.903	1270.222	957.797
141.585	17.007	1269.078	957.437
142.600	17.100	1267.941	957.021
143.614	17.259	1266.803	956.970
144.629	17.113	1266.227	955.629
145.643	17.212	1264.713	954.960
146.658	17.112	1263.348	953.284
147.673	17.031	1262.166	951.852
148.687	16.921	1261.214	950.431
149.702	16.817	1259.846	948.736
150.716	16.731	1258.810	947.390
151.731	16.881	1257.316	947.018
152.746	16.973	1255.653	946.199
153.760	17.051	1254.613	945.766
154.775	17.015	1253.864	944.915
155.789	17.053	1252.974	944.371
156.804	17.076	1251.981	943.669
157.819	17.166	1251.283	943.560
158.833	17.205	1250.235	942.903
159.848	17.278	1249.381	942.577
160.862	17.245	1248.424	941.594
161.877	16.971	1247.417	939.232
162.892	16.999	1245.897	938.159
163.906	16.811	1245.397	936.661
164.921	16.869	1243.973	935.824
165.935	16.898	1243.151	935.285
166.950	17.043	1242.842	935.770
167.964	17.036	1241.618	934.729
168.979	16.959	1241.402	934.057
169.994	16.976	1240.167	933.137
171.008	17.131	1239.505	933.410
172.023	17.194	1238.868	933.192
173.037	17.281	1237.815	932.797
174.052	17.293	1236.922	932.107
175.067	17.078	1235.710	929.934
176.081	16.877	1235.321	928.456
177.096	16.947	1234.068	927.816
178.110	16.988	1232.955	927.121
179.125	17.050	1231.668	926.412
180.140	17.150	1230.697	926.141
181.154	17.210	1229.242	925.296
182.169	17.178	1228.644	924.586
183.183	17.374	1227.241	924.516
184.198	17.405	1225.822	923.533
185.213	17.404	1225.118	922.914
186.227	17.321	1224.085	921.606
187.242	17.543	1222.821	921.773
188.256	17.512	1222.204	921.059
189.271	17.405	1221.655	919.983
190.286	17.322	1219.822	918.074
191.300	17.052	1218.882	915.831
192.315	16.988	1218.392	915.038
193.329	16.970	1217.747	914.374
194.344	17.059	1217.194	914.355
195.359	17.146	1216.739	914.399
196.373	17.258	1215.953	914.335
197.388	17.281	1216.008	914.417
198.402	17.510	1215.590	915.255
199.417	17.653	1214.807	915.352
200.432	17.631	1214.152	914.659
201.446	17.640	1213.164	913.879
202.461	17.747	1212.392	913.794
203.475	17.796	1211.336	913.179
204.490	17.591	1209.888	910.908
205.504	17.499	1208.426	909.234
206.519	17.479	1207.309	908.210
207.534	17.540	1205.981	907.452
208.548	17.543	1204.756	906.470
209.563	17.565	1204.636	906.415
210.577	17.526	1203.810	905.507
211.592	17.580	1202.980	905.090
212.607	17.657	1202.427	905.003
213.621	17.668	1201.415	904.217
214.636	17.654	1200.163	903.123
215.650	17.686	1199.090	902.401
216.665	17.782	1198.463	902.359
217.680	17.844	1197.594	901.955
218.694	17.874	1196.845	901.470
219.709	17.874	1196.136	900.857
220.723	17.810	1195.037	899.612
221.738	17.772	1194.603	899.003
222.753	17.766	1194.042	898.470
223.767	17.760	1193.344	897.834
224.782	18.032	1192.292	898.392
225.796	18.139	1191.623	898.370
226.811	17.903	1191.520	896.974
227.826	17.846	1190.338	895.707
228.840	17.809	1189.537	894.828
229.855	17.795	1189.167	894.401
230.869	17.829	1188.101	893.698
231.884	17.809	1187.303	892.913
232.899	17.676	1186.728	891.704
233.913	17.797	1185.427	891.281
234.928	17.715	1184.670	890.207
235.942	17.640	1184.073	889.284
236.957	17.630	1183.393	888.645
237.972	17.763	1182.335	888.465
238.986	17.692	1181.806	887.620
240.001	17.702	1181.287	887.202
241.015	17.752	1180.177	886.548
242.030	17.817	1179.595	886.370
243.045	17.837	1178.649	885.686
244.059	17.808	1177.867	884.871
245.074	17.857	1177.331	884.641
246.088	17.937	1176.735	884.534
247.103	18.067	1175.977	884.553
248.117	18.200	1174.917	884.367
249.132	18.268	1174.362	884.225
250.147	18.407	1173.967	884.568
251.161	18.504	1173.420	884.577
252.176	18.515	1172.798	884.085
253.190	18.562	1171.964	883.619
254.205	18.592	1171.352	883.233
255.220	18.596	1171.094	882.984
256.234	18.679	1170.029	882.529
257.249	18.631	1169.485	881.793
258.263	18.663	1168.596	881.209
259.278	18.592	1168.320	880.559
260.293	18.622	1167.841	880.274
261.307	18.670	1167.545	880.220
262.322	18.635	1166.391	879.093
263.336	18.733	1165.766	879.047
264.351	18.826	1164.914	878.798
265.366	18.868	1163.887	878.162
266.380	18.838	1163.795	877.862
267.395	18.724	1162.787	876.445
268.409	18.720	1161.706	875.530
269.424	18.554	1161.303	874.304
270.439	18.688	1160.688	874.446
271.453	18.547	1160.209	873.288
272.468	18.440	1159.269	871.960
273.482	18.557	1157.954	871.485
274.497	18.529	1157.835	871.179
275.512	18.526	1157.125	870.550
276.526	18.556	1156.328	870.028
277.541	18.661	1155.189	869.628
278.555	18.515	1155.219	868.830
279.570	18.783	1154.437	869.526
280.585	18.880	1153.253	869.047
281.599	18.904	1152.040	868.174
282.614	18.649	1151.472	866.383
283.628	18.633	1150.553	865.536
284.643	18.661	1149.252	864.621
285.657	18.784	1148.408	864.530
286.672	18.650	1147.893	863.387
287.687	18.727	1146.893	862.946
288.701	18.751	1146.125	862.413
289.716	18.697	1145.107	861.302
290.730	18.860	1144.210	861.370
291.745	18.909	1143.629	861.102
292.760	18.870	1143.266	860.556
293.774	19.041	1142.292	860.600
294.789	18.905	1142.870	860.278
295.803	18.974	1141.468	859.493
296.818	18.886	1140.432	858.197
297.833	18.869	1139.793	857.555
298.847	18.715	1139.241	856.295
299.862	18.870	1138.282	856.274
300.876	18.941	1137.414	855.897
301.891	19.061	1137.166	856.232
302.906	19.186	1136.491	856.269
303.920	19.219	1135.873	855.894
304.935	19.245	1135.355	855.557
305.949	19.329	1134.552	855.288
306.964	19.300	1134.042	854.685
307.979	19.259	1132.650	853.360
308.993	19.237	1131.807	852.539
310.008	19.394	1131.396	852.929
311.022	19.285	1130.740	851.819
312.037	19.233	1129.846	850.818
313.052	19.164	1128.934	849.714
314.066	19.078	1127.926	848.459
315.081	19.038	1126.958	847.454
316.095	18.916	1126.287	846.275
317.110	18.890	1125.404	845.411
318.125	18.963	1124.829	845.260
319.139	18.894	1124.016	844.238
320.154	18.907	1123.702	843.989
321.168	18.946	1122.897	843.500
322.183	19.106	1122.060	843.581
323.197	19.028	1121.643	842.812
324.212	19.118	1120.701	842.470
325.227	19.225	1120.248	842.580
326.241	19.089	1119.718	841.442
327.256	19.062	1118.963	840.668
328.270	19.129	1117.936	840.148
329.285	19.100	1117.096	839.300
330.300	19.095	1116.151	838.492
331.314	19.097	1115.132	837.665
332.329	19.130	1113.818	836.764
333.343	19.151	1113.794	836.770
334.358	19.263	1112.754	836.460
335.373	19.389	1111.609	836.136
336.387	19.309	1111.111	835.302
337.402	19.429	1110.465	835.322
338.416	19.444	1109.665	834.720
339.431	19.579	1108.846	834.683
340.446	19.483	1108.845	834.143
341.460	19.672	1108.112	834.429
342.475	19.706	1107.172	833.813
343.489	19.765	1106.424	833.461
344.504	19.781	1105.346	832.653
345.519	19.824	1104.483	832.136
346.533	19.843	1103.823	831.653
347.548	19.945	1102.968	831.429
348.562	19.958	1101.977	830.669
349.577	19.701	1101.549	829.041
350.592	19.640	1100.684	828.023
351.606	19.569	1099.565	826.767
352.621	19.355	1099.439	825.578
353.635	19.499	1098.482	825.473
354.650	19.477	1097.646	824.666
355.665	19.512	1096.985	824.267
356.679	19.565	1096.399	824.005
357.694	19.510	1096.345	823.628
358.708	19.719	1095.109	823.621
359.723	19.864	1094.260	823.602
360.738	19.786	1093.927	822.909
361.752	19.812	1093.427	822.583
362.767	19.866	1092.375	821.971
363.781	19.785	1092.346	821.493
364.796	19.770	1091.781	820.926
365.810	19.973	1091.471	821.584
366.825	20.091	1090.786	821.554
367.840	20.285	1090.194	821.955
368.854	20.289	1089.547	821.413
369.869	20.193	1089.189	820.617
370.883	20.171	1087.888	819.460
371.898	19.988	1087.248	818.041
372.913	20.139	1086.380	818.027
373.927	20.012	1086.433	817.396
374.942	20.151	1085.898	817.576
375.956	20.251	1084.703	817.075
376.971	20.203	1084.341	816.504
377.986	20.271	1083.814	816.357
379.000	20.284	1083.279	815.940
380.015	20.340	1082.821	815.788
381.029	20.445	1082.342	815.846
382.044	20.277	1081.756	814.545
383.059	20.379	1080.572	814.060
384.073	20.353	1079.863	813.330
385.088	20.350	1079.042	812.625
386.102	20.455	1077.640	811.990
387.117	20.222	1076.963	810.318
388.132	20.140	1075.888	809.056
389.146	20.220	1075.170	808.818
390.161	20.103	1074.549	807.735
391.175	20.196	1073.433	807.255
392.190	20.236	1072.725	806.840
393.205	20.396	1072.443	807.300
394.219	20.353	1071.800	806.545
395.234	20.277	1070.605	805.221
396.248	20.295	1069.572	804.458
397.263	20.176	1068.629	803.126
398.278	20.172	1067.628	802.283
399.292	20.161	1067.298	801.912
400.307	20.054	1066.882	801.037
401.321	20.177	1065.436	800.448
402.336	20.174	1064.411	799.590
403.350	20.068	1064.732	799.271
404.365	20.215	1063.685	799.094
405.380	20.244	1063.042	798.674
406.394	20.353	1062.670	798.824
407.409	20.439	1061.602	798.345
408.423	20.562	1061.135	798.489
409.438	20.547	1060.516	797.884
410.453	20.710	1059.820	798.035
411.467	20.658	1059.088	797.176
412.482	20.753	1058.302	796.951
413.496	20.737	1057.726	796.373
414.511	20.718	1057.544	796.077
415.526	20.866	1057.152	796.391
416.540	20.875	1056.830	796.120
417.555	21.028	1055.819	795.986
418.569	20.783	1055.101	794.256
419.584	20.860	1054.586	794.148
420.599	20.858	1054.316	793.865
421.613	155.661	1405.581	1798.953
422.628	142.865	1456.721	1799.051
