DTS Sentinel unit serial number:	SN413079Multiplexer serial number:	ORYXHardware model number:	OX4-SRSoftware version number:	ORYX F/W v4.00 Oryx Data Collector v3.7.2.0data status	okinstallation	princeton_trtdifferential loss correction	single-endedforward channel	channel 2reverse channel	N/Adate	2019/09/19time	03:59:35forward acquisition time	60.00reverse acquisition time	0.00gamma	496.2192k internal	0.2352k external	0.2352temperature offset calibration	1.0015default loss term (dB/km)	0.3790temperature slope calibration	1.0000multiplexer offset coefficient	1.0000multiplexer slope coefficient	1.0000fibre end	0.00T internal ref (°C)	20.42T ext. ref 1 (°C)	0.64T ext. ref 2 (°C)	14.13length (m)	temperature (°C)	Stokes	anti-Stokes-747.200	76.605	0.051	-0.053
-746.185	-200.000	-0.023	0.237
-745.171	-103.894	-0.259	0.060
-744.156	-154.659	-0.008	-0.001
-743.142	800.000	-0.044	0.128
-742.127	800.000	-0.118	0.330
-741.112	-8.869	-0.068	-0.045
-740.098	-200.000	0.012	0.252
-739.083	-69.545	0.167	0.064
-738.069	269.793	-0.062	-0.109
-737.054	-23.357	0.249	-0.149
-736.039	-9.407	0.308	0.205
-735.025	-130.839	0.184	-0.025
-734.010	31.962	-0.352	-0.302
-732.996	529.840	-0.078	0.183
-731.981	-133.710	0.345	0.043
-730.966	800.000	-0.151	-0.525
-729.952	282.804	0.071	-0.127
-728.937	-200.000	0.043	0.272
-727.923	4.189	-0.186	0.136
-726.908	-200.000	0.038	-0.329
-725.894	-138.726	-0.257	-0.028
-724.879	315.207	-0.182	0.341
-723.864	186.644	0.040	-0.059
-722.850	124.492	0.074	0.092
-721.835	-20.777	-0.291	0.178
-720.821	-37.220	0.192	0.102
-719.806	0.360	0.091	-0.064
-718.791	318.399	-0.207	-0.390
-717.777	-200.000	-0.089	-0.490
-716.762	-43.888	0.058	0.029
-715.748	-28.568	0.122	-0.070
-714.733	-7.572	0.085	-0.057
-713.718	-200.000	-0.051	-0.286
-712.704	-66.319	-0.095	-0.038
-711.689	68.163	0.053	-0.054
-710.675	800.000	-0.073	0.313
-709.660	-180.685	-0.257	0.005
-708.645	33.365	-0.129	-0.112
-707.631	7.951	-0.242	-0.181
-706.616	226.792	0.208	-0.336
-705.602	800.000	-0.059	-0.241
-704.587	-129.881	-0.230	-0.031
-703.572	-200.000	-0.026	-0.118
-702.558	-200.000	0.032	0.193
-701.543	-50.476	0.170	0.080
-700.529	-154.498	0.237	0.016
-699.514	220.088	0.174	-0.277
-698.499	14.495	0.191	-0.149
-697.485	366.236	-0.103	-0.207
-696.470	-110.962	-0.231	0.047
-695.456	-0.985	0.391	0.276
-694.441	33.955	-0.152	-0.132
-693.426	800.000	-0.021	0.061
-692.412	800.000	0.052	-0.199
-691.397	93.369	0.231	0.261
-690.383	800.000	-0.051	-0.148
-689.368	-87.458	0.200	-0.060
-688.354	-43.572	-0.247	-0.124
-687.339	-108.022	0.139	-0.030
-686.324	13.578	-0.205	0.159
-685.310	-200.000	-0.029	-0.355
-684.295	185.738	0.171	0.253
-683.281	-200.000	0.009	-0.061
-682.266	800.000	-0.038	0.147
-681.251	-62.396	0.296	0.122
-680.237	-200.000	-0.008	-0.040
-679.222	-200.000	-0.010	-0.202
-678.208	50.185	0.111	-0.104
-677.193	-200.000	-0.006	0.089
-676.178	-200.000	0.006	-0.035
-675.164	-184.408	0.217	-0.004
-674.149	25.620	0.063	-0.052
-673.135	162.642	-0.290	-0.404
-672.120	17.581	-0.027	0.021
-671.105	-198.320	-0.122	-0.001
-670.091	-50.937	-0.082	0.038
-669.076	-136.746	-0.217	-0.025
-668.062	-94.661	0.304	0.082
-667.047	-43.462	-0.139	-0.070
-666.032	-19.235	0.029	-0.018
-665.018	-103.414	-0.172	-0.040
-664.003	-46.394	0.198	0.097
-662.989	218.633	-0.220	0.349
-661.974	-200.000	-0.004	-0.135
-660.959	1.812	0.217	-0.155
-659.945	5.092	-0.350	0.256
-658.930	475.856	-0.103	0.232
-657.916	302.061	0.077	-0.141
-656.901	34.325	-0.039	-0.034
-655.886	406.289	-0.072	-0.151
-654.872	-200.000	-0.059	-0.328
-653.857	-93.935	0.093	-0.026
-652.843	-10.129	-0.178	0.117
-651.828	203.431	-0.049	-0.076
-650.814	-200.000	-0.056	-0.251
-649.799	570.619	-0.039	0.095
-648.784	-43.543	-0.157	-0.079
-647.770	-200.000	0.013	-0.085
-646.755	69.799	-0.214	0.219
-645.741	-200.000	-0.028	0.231
-644.726	-146.192	0.360	-0.031
-643.711	-132.352	0.031	0.004
-642.697	-200.000	-0.032	-0.240
-641.682	27.255	-0.118	-0.099
-640.668	-176.792	0.087	-0.002
-639.653	-31.324	0.233	-0.130
-638.638	-200.000	-0.091	-0.434
-637.624	573.329	-0.015	-0.036
-636.609	528.997	-0.189	-0.442
-635.595	-141.444	-0.171	0.017
-634.580	93.168	0.203	-0.228
-633.565	38.303	-0.190	-0.168
-632.551	-63.367	0.188	-0.077
-631.536	800.000	0.008	-0.032
-630.522	-116.237	0.278	0.051
-629.507	-110.384	-0.353	-0.073
-628.492	-159.881	-0.211	0.011
-627.478	-91.519	0.244	0.069
-626.463	176.475	-0.081	0.117
-625.449	-115.851	-0.050	0.009
-624.434	387.762	-0.058	0.119
-623.419	119.474	0.155	0.190
-622.405	-75.611	0.273	0.096
-621.390	16.203	-0.117	-0.092
-620.376	-102.934	-0.291	-0.069
-619.361	249.850	0.137	-0.231
-618.346	702.379	0.056	0.146
-617.332	800.000	0.010	-0.035
-616.317	-48.028	0.155	-0.074
-615.303	10.904	0.320	-0.242
-614.288	483.827	0.035	-0.080
-613.273	27.091	-0.118	-0.098
-612.259	-146.744	0.199	-0.017
-611.244	282.803	-0.107	-0.191
-610.230	-44.224	0.216	-0.107
-609.215	-126.936	0.368	-0.054
-608.201	75.137	0.135	0.141
-607.186	202.356	-0.130	0.199
-606.171	-146.342	-0.077	0.007
-605.157	-200.000	0.016	-0.268
-604.142	258.342	-0.139	0.237
-603.128	-67.669	-0.310	0.120
-602.113	-85.856	0.354	0.109
-601.098	27.972	0.203	0.170
-600.084	-200.000	0.032	-0.279
-599.069	-78.080	0.169	-0.058
-598.055	-200.000	0.013	-0.384
-597.040	-200.000	0.037	-0.309
-596.025	800.000	0.066	0.276
-595.011	800.000	-0.076	0.210
-593.996	610.863	-0.133	0.329
-592.982	-200.000	0.021	0.109
-591.967	324.003	0.068	-0.129
-590.952	-70.860	-0.306	0.114
-589.938	-200.000	-0.036	0.166
-588.923	-200.000	0.018	0.285
-587.909	-112.615	-0.207	0.041
-586.894	-200.000	0.006	-0.111
-585.879	-200.000	0.067	-0.332
-584.865	276.357	-0.154	-0.271
-583.850	395.335	0.022	0.045
-582.836	-112.994	0.203	0.040
-581.821	-200.000	0.013	-0.350
-580.806	-200.000	0.017	0.091
-579.792	-43.092	-0.301	-0.151
-578.777	-89.778	0.132	-0.038
-577.763	800.000	-0.070	-0.225
-576.748	-200.000	-0.086	-0.529
-575.733	-45.081	0.188	-0.093
-574.719	800.000	0.038	-0.151
-573.704	43.237	0.159	0.144
-572.690	-66.165	0.235	-0.093
-571.675	-95.700	-0.213	-0.057
-570.661	92.564	0.076	0.084
-569.646	-200.000	0.012	-0.107
-568.631	800.000	0.044	0.137
-567.617	-65.389	-0.246	0.098
-566.602	7.007	-0.087	-0.064
-565.588	-133.674	0.389	0.048
-564.573	79.727	0.185	0.196
-563.558	181.375	-0.159	-0.231
-562.544	77.663	0.100	-0.105
-561.529	134.352	-0.034	0.044
-560.515	-9.886	-0.190	0.125
-559.500	-38.189	-0.203	0.106
-558.485	92.776	-0.071	-0.079
-557.471	313.261	0.116	0.215
-556.456	11.633	0.154	0.117
-555.442	-35.429	0.086	-0.046
-554.427	-57.421	-0.224	0.097
-553.412	-114.388	0.076	0.014
-552.398	-93.570	-0.162	-0.044
-551.383	-1.561	0.125	0.087
-550.369	-176.319	0.091	-0.002
-549.354	42.914	-0.065	0.059
-548.339	-87.515	0.260	-0.078
-547.325	-15.091	-0.078	0.050
-546.310	-77.649	-0.273	-0.093
-545.296	-69.643	0.147	0.056
-544.281	228.166	-0.141	0.227
-543.266	-60.635	-0.424	-0.178
-542.252	244.414	-0.150	-0.249
-541.237	22.534	0.213	0.172
-540.223	-116.286	0.295	-0.054
-539.208	-98.155	-0.098	-0.025
-538.193	-200.000	-0.003	-0.383
-537.179	-164.883	-0.153	-0.007
-536.164	223.373	-0.095	-0.151
-535.150	-60.476	0.146	-0.062
-534.135	-200.000	0.020	-0.091
-533.121	-129.110	0.266	-0.037
-532.106	-200.000	-0.015	0.095
-531.091	-11.949	-0.125	-0.081
-530.077	-91.459	-0.197	0.056
-529.062	105.036	-0.081	-0.095
-528.048	-41.776	-0.321	-0.163
-527.033	800.000	-0.093	0.272
-526.018	800.000	-0.093	0.264
-525.004	-32.073	0.113	-0.062
-523.989	70.271	0.247	-0.252
-522.975	185.217	0.042	0.062
-521.960	800.000	0.082	-0.309
-520.945	-89.000	-0.159	0.047
-519.931	-114.734	-0.435	0.082
-518.916	71.953	-0.232	-0.239
-517.902	-200.000	0.061	-0.330
-516.887	245.589	0.209	-0.347
-515.872	-200.000	0.063	-0.275
-514.858	-28.925	-0.139	-0.079
-513.843	200.161	0.216	-0.328
-512.829	800.000	-0.063	-0.216
-511.814	31.664	0.190	-0.161
-510.799	800.000	-0.134	0.443
-509.785	-184.005	0.117	0.002
-508.770	-157.115	-0.225	0.014
-507.756	-7.044	-0.058	0.039
-506.741	217.192	-0.164	-0.258
-505.726	-200.000	0.004	-0.196
-504.712	23.599	0.370	-0.301
-503.697	226.415	0.105	-0.168
-502.683	-160.638	-0.298	-0.016
-501.668	-99.808	0.170	-0.042
-500.653	-200.000	-0.003	0.070
-499.639	-200.000	-0.045	0.272
-498.624	-14.671	-0.152	-0.097
-497.610	-200.000	0.193	-0.000
-496.595	166.719	0.074	0.104
-495.581	73.027	-0.252	0.260
-494.566	-10.537	0.173	-0.113
-493.551	-200.000	0.032	-0.329
-492.537	492.563	0.109	0.246
-491.522	-200.000	-0.056	-0.289
-490.508	-124.121	-0.278	-0.043
-489.493	-33.301	-0.380	0.208
-488.478	9.385	0.254	-0.190
-487.464	-103.652	-0.421	0.098
-486.449	-188.593	-0.458	-0.006
-485.435	10.509	-0.376	0.283
-484.420	-22.287	0.210	-0.126
-483.405	-200.000	0.050	-0.351
-482.391	-200.000	-0.044	-0.216
-481.376	3.305	0.146	0.105
-480.362	-89.811	0.117	-0.034
-479.347	314.184	-0.073	-0.135
-478.332	79.916	-0.154	0.163
-477.318	-200.000	0.025	-0.262
-476.303	753.539	0.081	0.215
-475.289	-23.691	-0.111	0.066
-474.274	-200.000	-0.018	-0.116
-473.259	-135.382	-0.262	0.031
-472.245	-200.000	-0.032	0.346
-471.230	-56.832	0.241	-0.105
-470.216	-1.100	0.020	0.014
-469.201	137.254	0.169	0.218
-468.186	-200.000	-0.027	-0.199
-467.172	-145.900	-0.135	-0.012
-466.157	239.600	-0.030	0.049
-465.143	330.883	-0.167	0.317
-464.128	8.895	0.201	-0.150
-463.113	-106.240	0.193	-0.043
-462.099	355.073	0.093	0.183
-461.084	19.734	0.053	0.042
-460.070	-200.000	-0.009	-0.251
-459.055	294.765	-0.081	-0.147
-458.040	366.458	0.029	0.057
-457.026	203.507	0.134	0.205
-456.011	232.237	-0.090	0.146
-454.997	-119.631	-0.051	0.009
-453.982	39.572	0.115	-0.102
-452.968	-200.000	-0.025	-0.149
-451.953	297.827	-0.063	0.113
-450.938	383.405	-0.034	0.069
-449.924	-200.000	0.048	0.292
-448.909	-115.318	-0.367	0.068
-447.895	420.749	0.143	0.303
-446.880	234.169	0.015	0.025
-445.865	-39.804	0.123	0.063
-444.851	-200.000	0.028	-0.276
-443.836	185.514	-0.149	0.218
-442.822	-103.734	-0.095	-0.022
-441.807	53.074	-0.171	0.161
-440.792	-170.408	0.327	-0.011
-439.778	175.503	-0.131	-0.187
-438.763	43.760	-0.259	-0.234
-437.749	-91.747	-0.103	-0.029
-436.734	-94.988	0.219	0.058
-435.719	254.792	0.133	-0.225
-434.705	34.589	-0.103	-0.089
-433.690	415.797	-0.094	0.197
-432.676	-128.781	-0.215	0.030
-431.661	-200.000	-0.022	0.101
-430.646	-71.383	-0.211	-0.078
-429.632	312.392	0.248	-0.459
-428.617	-67.819	0.181	-0.070
-427.603	-96.754	-0.060	-0.016
-426.588	-96.540	0.225	0.059
-425.573	-135.084	-0.385	0.046
-424.559	64.512	-0.077	-0.077
-423.544	-153.612	-0.345	-0.023
-422.530	317.044	-0.060	0.112
-421.515	129.224	0.184	-0.232
-420.500	-200.000	0.039	0.170
-419.486	-93.903	0.134	0.036
-418.471	-145.157	-0.216	0.019
-417.457	433.861	-0.038	0.082
-416.442	-200.000	-0.017	0.119
-415.428	294.755	0.012	0.022
-414.413	-86.650	-0.144	0.043
-413.398	205.673	-0.104	0.160
-412.384	546.492	-0.097	-0.229
-411.369	-20.333	0.160	-0.097
-410.355	43.420	-0.124	-0.111
-409.340	116.087	-0.058	0.070
-408.325	-17.838	0.172	-0.106
-407.311	-83.589	0.127	0.040
-406.296	-143.983	0.180	-0.017
-405.282	-200.000	0.074	0.352
-404.267	25.227	0.043	-0.035
-403.252	65.200	-0.116	0.115
-402.238	-200.000	0.026	0.273
-401.223	10.693	0.254	-0.191
-400.209	160.139	-0.259	-0.356
-399.194	241.691	0.150	0.247
-398.179	-200.000	-0.016	0.271
-397.165	175.729	-0.134	-0.191
-396.150	-115.368	-0.230	-0.043
-395.136	290.120	0.050	-0.090
-394.121	782.565	0.013	0.035
-393.106	515.296	0.099	0.228
-392.092	800.000	0.059	-0.223
-391.077	-141.705	-0.372	-0.037
-390.063	-124.566	-0.278	0.042
-389.048	-200.000	-0.002	0.238
-388.033	461.367	-0.127	0.278
-387.019	800.000	0.109	0.435
-386.004	-55.589	-0.182	0.080
-384.990	40.878	-0.256	-0.228
-383.975	-35.928	-0.270	0.144
-382.960	215.098	-0.157	0.245
-381.946	201.660	0.133	-0.202
-380.931	-14.721	0.261	-0.165
-379.917	254.755	0.147	0.247
-378.902	26.238	-0.267	0.219
-377.888	800.000	0.024	-0.089
-376.873	35.336	0.163	-0.140
-375.858	-44.689	-0.032	-0.016
-374.844	-200.000	0.024	0.230
-373.829	106.306	0.133	0.155
-372.815	-200.000	-0.001	0.209
-371.800	124.473	-0.069	0.085
-370.785	-101.248	-0.363	-0.087
-369.771	210.078	-0.160	0.247
-368.756	170.145	-0.134	-0.189
-367.742	-102.950	0.259	-0.060
-366.727	-161.675	-0.033	0.002
-365.712	-103.545	-0.049	-0.011
-364.698	-200.000	-0.007	-0.174
-363.683	-44.555	-0.139	0.068
-362.669	-200.000	-0.002	0.081
-361.654	800.000	-0.029	-0.091
-360.639	535.901	0.136	0.318
-359.625	-200.000	0.018	0.338
-358.610	-200.000	0.023	-0.162
-357.596	-64.770	0.356	0.142
-356.581	-200.000	0.036	-0.201
-355.566	-133.582	-0.205	-0.025
-354.552	2.861	-0.012	0.009
-353.537	800.000	0.139	0.460
-352.523	404.520	0.206	0.426
-351.508	-200.000	-0.021	0.160
-350.493	-12.740	0.078	-0.050
-349.479	-200.000	0.017	-0.076
-348.464	367.535	0.116	0.230
-347.450	-78.156	0.571	-0.193
-346.435	301.934	-0.112	-0.203
-345.420	-40.605	-0.057	-0.029
-344.406	210.662	-0.099	-0.152
-343.391	21.091	-0.039	-0.031
-342.377	-50.193	-0.134	0.062
-341.362	382.299	-0.124	0.250
-340.348	93.080	-0.073	0.081
-339.333	800.000	-0.107	0.321
-338.318	-200.000	-0.001	0.187
-337.304	302.296	0.040	0.072
-336.289	-41.679	0.161	0.081
-335.275	800.000	0.009	0.034
-334.260	-145.752	-0.288	-0.025
-333.245	-185.884	-0.487	-0.007
-332.231	357.525	0.078	0.152
-331.216	800.000	-0.054	-0.155
-330.202	62.301	-0.033	-0.032
-329.187	65.691	0.178	0.177
-328.172	7.759	0.138	-0.101
-327.158	-127.903	0.081	0.011
-326.143	-21.245	0.412	0.247
-325.129	800.000	0.030	0.129
-324.114	800.000	0.067	0.213
-323.099	101.174	0.117	-0.133
-322.085	174.224	0.213	-0.302
-321.070	-138.598	-0.286	-0.031
-320.056	-16.326	-0.107	0.067
-319.041	-117.859	0.380	0.067
-318.026	-70.982	-0.201	-0.074
-317.012	-16.272	0.392	-0.244
-315.997	-93.744	0.172	-0.046
-314.983	-200.000	0.004	0.112
-313.968	-102.478	-0.236	-0.055
-312.953	-130.155	-0.233	0.031
-311.939	-200.000	0.076	-0.000
-310.924	-200.000	-0.022	-0.189
-309.910	123.849	-0.266	-0.328
-308.895	81.633	0.209	-0.222
-307.880	63.524	-0.171	-0.168
-306.866	-200.000	-0.062	0.352
-305.851	-37.636	-0.074	-0.038
-304.837	16.508	0.198	0.154
-303.822	77.310	-0.129	0.135
-302.807	19.256	0.090	-0.071
-301.793	-114.820	-0.142	0.026
-300.778	-168.293	-0.240	0.009
-299.764	4.697	0.179	0.129
-298.749	-200.000	-0.007	-0.316
-297.735	-176.205	0.201	-0.005
-296.720	-200.000	0.011	0.212
-295.705	-200.000	-0.060	0.325
-294.691	78.204	0.044	-0.046
-293.676	79.975	-0.164	0.173
-292.662	-200.000	0.018	0.231
-291.647	-200.000	-0.037	0.236
-290.632	800.000	-0.063	0.215
-289.618	128.859	0.018	0.022
-288.603	-107.739	-0.203	-0.043
-287.589	64.641	0.030	0.029
-286.574	-200.000	0.001	-0.118
-285.559	-99.644	0.112	0.028
-284.545	-20.141	-0.175	-0.106
-283.530	-200.000	-0.040	0.319
-282.516	482.032	0.053	0.117
-281.501	209.859	0.069	0.106
-280.486	215.858	-0.096	-0.149
-279.472	-25.223	0.350	-0.203
-278.457	-105.460	0.281	0.063
-277.443	800.000	0.022	0.061
-276.428	-200.000	0.001	-0.202
-275.413	118.027	0.162	0.196
-274.399	-115.939	0.258	-0.047
-273.384	-180.229	-0.125	0.003
-272.370	-120.738	-0.045	-0.007
-271.355	276.661	0.024	0.042
-270.340	-45.842	0.139	0.067
-269.326	-113.803	0.508	-0.097
-268.311	50.501	-0.145	0.135
-267.297	800.000	-0.055	0.166
-266.282	673.602	-0.065	-0.164
-265.267	-178.245	-0.195	0.004
-264.253	800.000	-0.013	0.042
-263.238	-90.003	0.344	0.098
-262.224	434.064	-0.070	0.149
-261.209	85.954	0.094	0.101
-260.195	-144.731	-0.210	0.019
-259.180	-3.828	-0.309	-0.210
-258.165	-11.684	-0.476	-0.306
-257.151	-200.000	0.016	-0.125
-256.136	25.840	-0.051	0.042
-255.122	800.000	0.042	0.124
-254.107	204.051	-0.053	0.080
-253.092	800.000	-0.093	-0.292
-252.078	-35.284	0.410	0.218
-251.063	800.000	0.155	0.428
-250.049	-82.269	0.308	-0.098
-249.034	-106.192	0.110	-0.024
-248.019	-121.053	-0.187	-0.031
-247.005	11.521	0.284	-0.213
-245.990	-178.792	0.406	-0.009
-244.976	-52.765	-0.324	-0.146
-243.961	-200.000	-0.003	-0.174
-242.946	30.954	-0.047	0.039
-241.932	-10.030	0.475	0.308
-240.917	341.089	-0.015	0.030
-239.903	-200.000	-0.016	-0.132
-238.888	-200.000	0.005	-0.391
-237.873	-200.000	0.015	0.152
-236.859	-13.763	-0.176	-0.111
-235.844	150.003	0.113	0.150
-234.830	358.463	-0.206	-0.403
-233.815	177.440	0.155	-0.221
-232.800	800.000	-0.109	0.296
-231.786	-200.000	-0.037	0.262
-230.771	86.586	-0.067	-0.073
-229.757	-55.373	0.255	-0.112
-228.742	-85.823	0.171	-0.052
-227.727	-19.389	0.128	0.078
-226.713	-98.846	0.259	0.064
-225.698	202.760	-0.185	-0.280
-224.684	101.859	0.201	0.229
-223.669	41.832	-0.091	0.080
-222.655	280.541	0.052	0.090
-221.640	145.967	-0.133	0.174
-220.625	109.950	0.298	-0.350
-219.611	28.093	-0.092	0.076
-218.596	-200.000	-0.039	0.237
-217.582	283.132	0.159	0.279
-216.567	294.716	0.067	0.121
-215.552	-200.000	-0.052	0.334
-214.538	-32.657	0.246	-0.134
-213.523	800.000	0.089	-0.310
-212.509	800.000	-0.105	-0.356
-211.494	-139.634	0.232	-0.024
-210.479	-1.804	-0.273	0.188
-209.465	-96.384	0.144	-0.037
-208.450	-78.529	0.194	-0.065
-207.436	71.764	0.204	0.207
-206.421	127.049	0.103	0.127
-205.406	-141.995	-0.230	0.022
-204.392	-68.215	0.187	-0.071
-203.377	92.809	-0.035	0.039
-202.363	800.000	-0.062	-0.243
-201.348	-111.614	0.229	-0.045
-200.333	-88.724	-0.083	-0.024
-199.319	-200.000	0.007	0.050
-198.304	-157.134	0.186	0.011
-197.290	-25.522	-0.251	-0.145
-196.275	-195.710	0.205	-0.001
-195.260	-54.873	-0.304	-0.134
-194.246	-82.598	0.182	-0.058
-193.231	-79.681	0.201	-0.066
-192.217	79.764	-0.081	-0.085
-191.202	81.444	-0.157	0.166
-190.187	206.639	-0.021	0.031
-189.173	-56.037	0.516	0.224
-188.158	84.248	-0.141	-0.151
-187.144	-200.000	-0.014	-0.075
-186.129	-200.000	0.020	0.169
-185.114	-200.000	0.014	0.084
-184.100	-100.483	-0.158	0.038
-183.085	161.957	-0.092	-0.126
-182.071	-139.338	-0.235	-0.025
-181.056	-25.085	0.416	0.241
-180.042	-200.000	-0.039	-0.273
-179.027	800.000	0.067	0.224
-178.012	-200.000	0.089	0.398
-176.998	329.934	-0.101	-0.189
-175.983	-6.314	-0.168	0.112
-174.969	637.771	-0.074	0.184
-173.954	396.061	0.097	-0.197
-172.939	-71.455	-0.112	0.041
-171.925	800.000	-0.009	-0.038
-170.910	255.851	-0.113	-0.189
-169.896	-200.000	0.023	0.152
-168.881	-200.000	-0.006	0.327
-167.866	800.000	0.083	0.292
-166.852	589.253	-0.096	0.231
-165.837	800.000	0.064	-0.210
-164.823	-82.070	-0.097	0.031
-163.808	-101.893	-0.138	-0.032
-162.793	427.248	0.066	0.138
-161.779	-77.728	-0.032	0.011
-160.764	-200.000	0.026	-0.192
-159.750	-172.643	-0.396	-0.012
-158.735	98.106	0.203	0.228
-157.720	-24.199	-0.317	0.185
-156.706	-200.000	0.008	-0.271
-155.691	-200.000	-0.005	0.060
-154.677	119.226	0.258	0.311
-153.662	-200.000	-0.008	-0.403
-152.647	-200.000	-0.027	-0.288
-151.633	123.918	0.131	-0.161
-150.618	-125.376	-0.022	0.003
-149.604	-96.579	-0.158	-0.041
-148.589	2.851	-0.153	-0.108
-147.574	-127.670	0.162	0.023
-146.560	-5.300	-0.216	-0.145
-145.545	180.751	-0.319	0.456
-144.531	703.105	0.078	0.200
-143.516	-69.702	0.143	-0.053
-142.502	-200.000	0.007	-0.064
-141.487	98.386	0.193	-0.216
-140.472	-25.141	0.017	0.010
-139.458	29.151	0.139	0.115
-138.443	61.921	0.258	0.250
-137.429	614.484	-0.080	-0.196
-136.414	-70.554	0.139	0.051
-135.399	-200.000	-0.052	-0.251
-134.385	-31.018	0.215	-0.118
-133.370	-110.043	-0.279	0.057
-132.356	-79.928	0.196	-0.064
-131.341	229.925	0.086	0.137
-130.326	-2.125	0.121	0.083
-129.312	14.343	-0.148	-0.112
-128.297	-152.279	-0.135	-0.009
-127.283	-0.935	0.301	0.207
-126.268	-73.308	-0.084	0.030
-125.253	390.062	-0.151	0.304
-124.239	-74.039	-0.237	0.084
-123.224	-91.434	0.042	-0.012
-122.210	653.240	0.136	0.339
-121.195	-200.000	0.038	-0.407
-120.180	800.000	-0.063	0.250
-119.166	-200.000	-0.010	-0.091
-118.151	96.697	-0.087	0.097
-117.137	322.298	0.065	-0.121
-116.122	139.585	0.147	0.189
-115.107	-88.855	-0.373	0.108
-114.093	-24.787	0.358	0.207
-113.078	19.355	0.449	0.351
-112.064	383.689	-0.144	0.289
-111.049	-200.000	-0.063	-0.592
-110.034	800.000	0.082	-0.281
-109.020	30.650	-0.178	-0.149
-108.005	390.035	0.075	0.151
-106.991	-1.663	-0.191	-0.131
-105.976	-139.103	0.148	0.016
-104.962	223.216	0.079	0.124
-103.947	38.169	-0.195	0.169
-102.932	-200.000	-0.011	0.087
-101.918	-153.091	0.091	-0.006
-100.903	248.076	-0.113	-0.186
-99.889	-200.000	0.005	0.212
-98.874	123.775	0.021	0.025
-97.859	116.579	-0.254	0.303
-96.845	-111.282	0.338	0.067
-95.830	195.342	-0.203	-0.300
-94.816	-200.000	0.033	-0.284
-93.801	274.814	0.025	0.043
-92.786	155.473	-0.028	-0.038
-91.772	-43.679	-0.044	-0.022
-90.757	672.081	0.031	0.077
-89.743	-57.567	-0.245	0.105
-88.728	-38.398	0.283	0.145
-87.713	-200.000	-0.083	0.000
-86.699	-103.541	0.185	-0.042
-85.684	-200.000	-0.013	0.209
-84.670	-76.704	0.164	0.056
-83.655	193.619	0.220	0.323
-82.640	-87.385	0.088	0.026
-81.626	35.016	-0.470	-0.400
-80.611	-111.756	0.195	0.038
-79.597	54.032	0.138	0.129
-78.582	7.376	0.394	0.286
-77.567	800.000	0.031	0.098
-76.553	575.245	0.120	-0.284
-75.538	-44.541	0.110	0.053
-74.524	-200.000	0.037	-0.346
-73.509	800.000	-0.114	-0.316
-72.494	2.661	-0.053	-0.038
-71.480	190.336	0.298	0.435
-70.465	4.930	0.116	0.083
-69.451	252.660	-0.073	0.121
-68.436	-200.000	-0.003	-0.057
-67.422	-162.167	-0.159	0.008
-66.407	-200.000	0.010	-0.447
-65.392	139.377	0.240	0.307
-64.378	450.843	-0.155	0.333
-63.363	221.369	-0.196	0.305
-62.349	54.015	-0.159	0.148
-61.334	141.776	-1.068	-1.375
-60.319	67.359	0.965	0.956
-59.305	301.676	-0.776	-1.393
-58.290	170.357	0.889	1.236
-57.276	543.755	0.615	1.425
-56.261	-200.000	136.097	658.079
-55.246	337.823	1669.790	3152.732
-54.232	134.504	2809.296	3537.386
-53.217	80.086	2313.402	2414.784
-52.203	28.935	1912.900	1573.971
-51.188	23.317	1706.950	1361.413
-50.173	21.467	1669.850	1317.851
-49.159	43.039	1743.586	1543.542
-48.144	39.933	1752.041	1527.006
-47.130	22.901	1703.252	1355.055
-46.115	20.438	1688.487	1324.505
-45.100	20.408	1682.501	1319.529
-44.086	20.258	1680.361	1316.657
-43.071	20.238	1677.960	1314.574
-42.057	20.259	1675.463	1312.721
-41.042	20.293	1673.528	1311.411
-40.027	20.299	1671.886	1310.118
-39.013	20.365	1669.710	1308.857
-37.998	20.232	1668.373	1306.758
-36.984	20.357	1667.436	1306.913
-35.969	20.423	1665.560	1305.885
-34.954	20.452	1663.741	1304.627
-33.940	20.330	1662.596	1302.758
-32.925	20.348	1660.455	1301.164
-31.911	20.408	1658.773	1300.249
-30.896	20.420	1657.207	1299.054
-29.881	20.401	1656.018	1297.930
-28.867	20.343	1654.480	1296.238
-27.852	20.454	1653.064	1295.906
-26.838	20.434	1651.997	1294.872
-25.823	20.405	1650.167	1293.172
-24.809	20.393	1649.158	1292.238
-23.794	20.362	1648.192	1291.201
-22.779	20.491	1646.423	1290.717
-21.765	20.356	1644.524	1288.182
-20.750	20.349	1643.239	1287.071
-19.736	20.458	1641.619	1286.558
-18.721	20.517	1640.294	1285.901
-17.706	20.448	1639.060	1284.372
-16.692	20.486	1637.115	1283.082
-15.677	20.399	1635.656	1281.244
-14.663	20.511	1634.460	1281.084
-13.648	20.464	1633.191	1279.688
-12.633	20.462	1631.228	1278.089
-11.619	20.518	1629.947	1277.444
-10.604	20.532	1628.332	1276.232
-9.590	20.462	1627.628	1275.116
-8.575	20.470	1625.878	1273.750
-7.560	20.559	1624.630	1273.377
-6.546	20.483	1623.659	1272.005
-5.531	20.478	1622.559	1271.059
-4.517	20.434	1621.596	1269.928
-3.502	20.414	1620.311	1268.728
-2.487	20.589	1617.986	1268.133
-1.473	20.074	1605.918	1254.897
-0.458	17.075	1586.009	1217.807
0.556	12.342	1587.412	1184.862
1.571	10.198	1610.697	1186.430
2.586	9.905	1622.672	1192.979
3.600	9.394	1567.894	1148.957
4.615	5.507	1462.643	1045.796
5.629	1.440	1407.256	979.921
6.644	0.749	1400.914	970.979
7.659	0.650	1399.948	969.588
8.673	0.589	1398.612	968.188
9.688	0.592	1396.232	966.470
10.702	0.451	1393.083	963.305
11.717	2.426	1395.566	977.565
12.731	8.344	1404.009	1021.328
13.746	14.503	1413.503	1067.693
14.761	17.014	1417.042	1086.367
15.775	16.685	1414.587	1082.285
16.790	15.663	1412.326	1073.936
17.804	14.904	1410.400	1067.531
18.819	14.505	1409.010	1063.842
19.834	14.273	1407.923	1061.447
20.848	13.976	1406.869	1058.664
21.863	13.805	1405.082	1056.138
22.877	13.647	1403.378	1053.760
23.892	13.656	1402.441	1053.022
24.907	13.508	1402.001	1051.658
25.921	13.534	1401.063	1051.028
26.936	13.575	1400.358	1050.664
27.950	13.635	1399.167	1050.060
28.965	13.679	1397.920	1049.308
29.980	13.757	1396.861	1048.914
30.994	13.762	1395.863	1048.103
32.009	13.824	1394.842	1047.633
33.023	13.840	1394.118	1047.101
34.038	13.741	1393.119	1045.630
35.053	13.759	1391.766	1044.639
36.067	13.721	1390.585	1043.421
37.082	13.695	1389.650	1042.463
38.096	13.772	1388.909	1042.300
39.111	13.725	1388.558	1041.646
40.126	13.706	1387.478	1040.624
41.140	13.668	1386.296	1039.408
42.155	13.551	1386.388	1038.654
43.169	13.539	1386.380	1038.478
44.184	13.620	1385.439	1038.188
45.199	13.561	1385.266	1037.602
46.213	13.599	1384.486	1037.159
47.228	13.626	1383.629	1036.597
48.242	13.675	1382.467	1035.939
49.257	13.646	1380.430	1034.139
50.271	13.655	1379.654	1033.522
51.286	13.748	1378.059	1032.818
52.301	13.793	1376.476	1031.818
53.315	13.726	1375.651	1030.692
54.330	13.642	1374.712	1029.376
55.344	13.658	1373.425	1028.420
56.359	13.619	1372.355	1027.289
57.374	13.580	1372.056	1026.733
58.388	13.574	1370.981	1025.798
59.403	13.513	1370.665	1025.093
60.417	13.560	1369.491	1024.418
61.432	13.473	1368.851	1023.308
62.447	13.574	1367.812	1023.064
63.461	13.455	1366.452	1021.223
64.476	13.523	1365.505	1020.844
65.490	13.499	1364.359	1019.747
66.505	13.522	1362.483	1018.396
67.520	13.557	1361.479	1017.774
68.534	13.537	1360.347	1016.711
69.549	13.577	1359.285	1016.076
70.563	13.459	1358.285	1014.515
71.578	13.488	1356.897	1013.563
72.593	13.432	1356.215	1012.622
73.607	13.487	1354.961	1011.937
74.622	13.377	1354.702	1010.981
75.636	13.541	1353.476	1010.974
76.651	13.502	1352.641	1010.026
77.666	13.424	1352.317	1009.217
78.680	13.479	1351.878	1009.133
79.695	13.376	1351.215	1007.927
80.709	13.444	1350.506	1007.720
81.724	13.527	1349.366	1007.283
82.739	13.700	1347.756	1007.047
83.753	13.596	1347.077	1005.816
84.768	13.563	1346.112	1004.807
85.782	13.761	1344.523	1004.732
86.797	13.634	1343.775	1003.314
87.812	13.548	1342.255	1001.570
88.826	13.620	1340.967	1000.956
89.841	13.657	1339.965	1000.344
90.855	13.568	1339.099	999.071
91.870	13.689	1338.072	998.944
92.884	13.706	1337.187	998.297
93.899	13.656	1336.373	997.301
94.914	13.861	1335.364	997.692
95.928	13.894	1334.363	997.055
96.943	13.776	1333.460	995.584
97.957	13.756	1332.852	994.925
98.972	13.763	1331.732	994.040
99.987	13.641	1330.788	992.520
101.001	13.749	1329.399	992.039
102.016	13.855	1328.270	991.745
103.030	13.801	1327.302	990.610
104.045	13.723	1326.491	989.453
105.060	13.774	1325.231	988.732
106.074	13.715	1324.082	987.431
107.089	13.608	1322.694	985.675
108.103	13.565	1321.982	984.803
109.118	13.598	1320.388	983.722
110.133	13.542	1319.301	982.493
111.147	13.503	1317.843	981.091
112.162	13.666	1316.054	980.636
113.176	13.619	1315.119	979.572
114.191	13.627	1314.197	978.848
115.206	13.607	1313.238	977.928
116.220	13.734	1311.343	977.178
117.235	13.718	1310.613	976.452
118.249	13.752	1309.484	975.726
119.264	13.736	1308.181	974.573
120.279	13.599	1307.606	973.253
121.293	13.668	1306.559	972.796
122.308	13.704	1305.044	971.791
123.322	13.675	1304.500	971.134
124.337	13.700	1302.832	969.950
125.352	13.618	1302.386	969.055
126.366	13.630	1301.161	968.124
127.381	13.667	1299.389	966.935
128.395	13.625	1298.751	966.136
129.410	13.640	1297.862	965.470
130.424	13.668	1296.982	964.894
131.439	13.646	1296.250	964.139
132.454	13.639	1294.894	963.003
133.468	13.661	1294.121	962.472
134.483	13.745	1292.855	961.934
135.497	13.660	1292.058	960.762
136.512	13.674	1290.570	959.652
137.527	13.605	1289.319	958.236
138.541	13.620	1288.076	957.317
139.556	13.780	1286.612	957.067
140.570	13.709	1285.642	955.849
141.585	13.779	1284.420	955.259
142.600	13.833	1282.726	954.228
143.614	13.882	1282.040	953.911
144.629	13.895	1281.242	953.312
145.643	13.836	1279.845	951.849
146.658	13.786	1278.688	950.617
147.673	13.755	1277.311	949.333
148.687	13.776	1276.139	948.496
149.702	13.734	1274.732	947.129
150.716	13.730	1273.318	945.966
151.731	13.880	1271.959	945.731
152.746	13.808	1271.111	944.606
153.760	13.852	1269.473	943.556
154.775	13.800	1269.028	942.845
155.789	13.782	1267.970	941.873
156.804	13.990	1266.278	941.715
157.819	13.968	1265.337	940.808
158.833	13.922	1264.468	939.815
159.848	13.971	1263.158	939.037
160.862	13.998	1262.417	938.554
161.877	13.990	1261.044	937.408
162.892	13.897	1260.136	936.123
163.906	13.898	1259.030	935.225
164.921	13.949	1258.196	934.812
165.935	14.001	1257.478	934.486
166.950	14.030	1256.082	933.529
167.964	13.955	1255.777	932.798
168.979	14.054	1254.867	932.594
169.994	14.061	1254.270	932.109
171.008	14.118	1253.144	931.506
172.023	14.137	1252.314	930.914
173.037	14.127	1251.850	930.430
174.052	14.170	1250.827	929.828
175.067	14.060	1250.165	928.639
176.081	14.058	1249.318	927.915
177.096	14.025	1247.841	926.556
178.110	14.090	1246.732	926.011
179.125	14.001	1245.708	924.674
180.140	14.114	1244.582	924.383
181.154	14.127	1243.415	923.510
182.169	14.086	1242.222	922.311
183.183	14.085	1241.033	921.343
184.198	14.253	1239.674	921.181
185.213	14.169	1238.631	919.861
186.227	14.235	1237.403	919.235
187.242	14.289	1236.696	918.925
188.256	14.428	1235.155	918.463
189.271	14.211	1234.811	916.928
190.286	14.182	1233.613	915.802
191.300	14.049	1232.726	914.326
192.315	14.165	1232.094	914.419
193.329	14.139	1231.074	913.438
194.344	14.245	1230.309	913.369
195.359	14.144	1230.178	912.637
196.373	14.316	1229.193	912.771
197.388	14.345	1228.840	912.583
198.402	14.394	1228.014	912.161
199.417	14.343	1227.544	911.452
200.432	14.441	1226.395	911.053
201.446	14.530	1225.766	910.990
202.461	14.580	1224.415	910.177
203.475	14.602	1223.577	909.594
204.490	14.558	1222.471	908.454
205.504	14.504	1221.182	907.119
206.519	14.560	1220.002	906.468
207.534	14.419	1219.245	905.061
208.548	14.513	1217.841	904.446
209.563	14.448	1217.271	903.589
210.577	14.541	1216.384	903.357
211.592	14.560	1215.510	902.733
212.607	14.716	1214.231	902.543
213.621	14.573	1213.894	901.441
214.636	14.612	1213.131	901.006
215.650	14.745	1211.548	900.466
216.665	14.720	1210.807	899.703
217.680	14.757	1209.490	898.845
218.694	14.776	1208.750	898.316
219.709	14.678	1207.984	897.142
220.723	14.695	1207.456	896.762
221.738	14.764	1206.841	896.595
222.753	14.779	1205.882	895.881
223.767	14.853	1205.426	895.864
224.782	14.814	1204.819	895.122
225.796	14.808	1204.125	894.498
226.811	14.895	1203.408	894.349
227.826	14.891	1202.368	893.475
228.840	14.830	1201.810	892.656
229.855	14.766	1201.560	892.052
230.869	14.935	1199.965	891.689
231.884	14.836	1199.434	890.687
232.899	14.868	1198.899	890.383
233.913	14.821	1197.940	889.341
234.928	14.741	1197.793	888.726
235.942	14.809	1196.250	887.866
236.957	14.865	1195.518	887.539
237.972	14.856	1195.048	887.064
238.986	14.833	1194.315	886.319
240.001	14.901	1193.334	885.873
241.015	14.874	1192.980	885.391
242.030	14.824	1191.763	884.144
243.045	15.043	1190.910	884.589
244.059	14.955	1190.233	883.545
245.074	15.025	1189.403	883.220
246.088	15.024	1188.491	882.458
247.103	15.078	1187.412	881.862
248.117	15.084	1186.618	881.226
249.132	15.000	1186.286	880.462
250.147	15.031	1186.013	880.342
251.161	15.161	1184.899	880.122
252.176	15.157	1184.351	879.614
253.190	15.313	1183.263	879.551
254.205	15.334	1182.908	879.317
255.220	15.229	1182.697	878.531
256.234	15.391	1181.422	878.355
257.249	15.328	1180.828	877.505
258.263	15.331	1180.446	877.159
259.278	15.311	1179.287	876.116
260.293	15.296	1179.252	875.934
261.307	15.382	1178.605	875.826
262.322	15.505	1177.637	875.673
263.336	15.449	1177.332	875.072
264.351	15.531	1176.305	874.660
265.366	15.489	1175.422	873.710
266.380	15.504	1175.192	873.539
267.395	15.485	1174.349	872.734
268.409	15.455	1173.498	871.868
269.424	15.408	1172.989	871.168
270.439	15.603	1171.974	871.353
271.453	15.572	1171.520	870.778
272.468	15.495	1170.270	869.372
273.482	15.443	1169.663	868.576
274.497	15.626	1168.993	868.946
275.512	15.587	1168.518	868.313
276.526	15.446	1167.798	866.974
277.541	15.553	1166.994	866.853
278.555	15.581	1166.399	866.479
279.570	15.712	1165.322	866.274
280.585	15.654	1164.824	865.529
281.599	15.671	1163.945	864.889
282.614	15.802	1162.601	864.485
283.628	15.788	1161.249	863.335
284.643	15.657	1160.550	862.067
285.657	15.775	1159.645	861.921
286.672	15.787	1158.895	861.348
287.687	15.836	1157.962	860.828
288.701	15.747	1157.366	859.856
289.716	15.842	1156.111	859.331
290.730	15.884	1155.368	858.916
291.745	15.759	1155.062	857.976
292.760	15.878	1154.760	858.282
293.774	15.800	1154.136	857.347
294.789	15.903	1153.187	857.089
295.803	15.884	1152.773	856.608
296.818	15.885	1151.971	855.946
297.833	15.871	1151.057	855.120
298.847	15.991	1150.179	854.997
299.862	15.889	1149.572	853.956
300.876	15.910	1148.888	853.475
301.891	15.938	1148.244	853.067
302.906	15.988	1147.225	852.486
303.920	16.040	1146.720	852.299
304.935	16.122	1145.720	851.893
305.949	16.062	1145.247	851.166
306.964	16.059	1144.616	850.602
307.979	16.067	1144.140	850.214
308.993	16.236	1143.246	850.327
310.008	16.204	1142.005	849.166
311.022	16.112	1141.521	848.268
312.037	16.186	1140.760	848.001
313.052	16.175	1139.606	847.014
314.066	16.146	1138.935	846.293
315.081	16.185	1138.221	845.883
316.095	16.178	1137.196	845.014
317.110	16.167	1136.354	844.258
318.125	16.231	1135.819	844.106
319.139	16.170	1135.070	843.167
320.154	16.128	1134.471	842.440
321.168	16.084	1134.094	841.864
322.183	16.172	1133.349	841.676
323.197	16.315	1132.245	841.497
324.212	16.341	1131.930	841.315
325.227	16.243	1131.412	840.369
326.241	16.279	1130.706	839.950
327.256	16.274	1129.856	839.218
328.270	16.330	1128.751	838.602
329.285	16.301	1128.152	837.937
330.300	16.347	1127.006	837.241
331.314	16.323	1126.309	836.528
332.329	16.380	1124.830	835.639
333.343	16.352	1124.249	834.995
334.358	16.461	1123.476	834.887
335.373	16.358	1122.605	833.655
336.387	16.509	1121.429	833.457
337.402	16.462	1121.005	832.831
338.416	16.513	1120.818	832.871
339.431	16.452	1120.040	831.921
340.446	16.508	1119.104	831.429
341.460	16.618	1118.277	831.282
342.475	16.665	1117.152	830.600
343.489	16.608	1116.585	829.825
344.504	16.624	1115.811	829.254
345.519	16.681	1114.872	828.762
346.533	16.614	1114.204	827.864
347.548	16.777	1113.594	828.135
348.562	16.695	1112.582	826.910
349.577	16.676	1112.090	826.379
350.592	16.626	1111.386	825.536
351.606	16.698	1110.455	825.122
352.621	16.621	1109.471	823.946
353.635	16.603	1109.142	823.540
354.650	16.742	1108.507	823.671
355.665	16.759	1107.775	823.135
356.679	16.726	1107.419	822.639
357.694	16.760	1106.471	822.027
358.708	16.965	1105.007	821.860
359.723	16.858	1104.904	821.195
360.738	16.930	1104.040	820.826
361.752	16.834	1104.027	820.280
362.767	16.767	1103.039	819.149
363.781	16.920	1102.980	819.773
364.796	16.894	1102.039	818.877
365.810	16.969	1101.333	818.641
366.825	16.960	1100.996	818.276
367.840	17.091	1099.934	818.042
368.854	17.038	1099.594	817.465
369.869	17.161	1098.759	817.360
370.883	17.012	1097.901	815.933
371.898	17.129	1097.336	816.006
372.913	17.132	1096.505	815.327
373.927	17.175	1096.035	815.113
374.942	17.147	1095.695	814.657
375.956	17.166	1094.986	814.146
376.971	17.143	1094.696	813.751
377.986	17.134	1093.982	813.105
379.000	17.191	1093.311	812.803
380.015	17.152	1092.759	812.138
381.029	17.222	1091.984	811.822
382.044	17.252	1091.417	811.471
383.059	17.337	1090.818	811.360
384.073	17.381	1089.706	810.670
385.088	17.417	1088.264	809.701
386.102	17.305	1088.102	808.976
387.117	17.266	1087.200	808.048
388.132	17.315	1086.120	807.406
389.146	17.254	1085.639	806.688
390.161	17.326	1084.779	806.318
391.175	17.362	1083.737	805.643
392.190	17.363	1083.167	805.152
393.205	17.433	1082.573	804.968
394.219	17.476	1081.516	804.316
395.234	17.451	1080.612	803.453
396.248	17.462	1079.445	802.568
397.263	17.411	1078.521	801.571
398.278	17.389	1077.966	800.984
399.292	17.400	1077.166	800.371
400.307	17.379	1076.607	799.784
401.321	17.512	1075.967	799.861
402.336	17.446	1075.366	799.036
403.350	17.515	1074.470	798.624
404.365	17.333	1074.208	797.501
405.380	17.570	1072.926	797.592
406.394	17.551	1072.502	797.116
407.409	17.562	1071.724	796.519
408.423	17.632	1070.916	796.176
409.438	17.580	1070.387	795.467
410.453	17.723	1069.312	795.264
411.467	17.723	1068.647	794.704
412.482	17.741	1067.728	794.034
413.496	17.811	1067.291	793.961
414.511	17.783	1066.519	793.189
415.526	17.797	1066.481	793.152
416.540	17.830	1065.913	792.814
417.555	17.802	1065.584	792.370
418.569	17.899	1064.714	792.103
419.584	17.935	1064.160	791.785
420.599	17.807	1064.139	791.110
421.613	109.717	1332.859	1492.069
422.628	101.402	1371.944	1492.130
