DTS Sentinel unit serial number:	SN413079Multiplexer serial number:	ORYXHardware model number:	OX4-SRSoftware version number:	ORYX F/W v4.00 Oryx Data Collector v3.7.2.0data status	okinstallation	princeton_trtdifferential loss correction	single-endedforward channel	channel 2reverse channel	N/Adate	2019/09/18time	05:11:35forward acquisition time	60.00reverse acquisition time	0.00gamma	496.2192k internal	0.2348k external	0.2348temperature offset calibration	0.9986default loss term (dB/km)	0.3790temperature slope calibration	1.0000multiplexer offset coefficient	1.0000multiplexer slope coefficient	1.0000fibre end	0.00T internal ref (°C)	23.50T ext. ref 1 (°C)	0.19T ext. ref 2 (°C)	17.45length (m)	temperature (°C)	Stokes	anti-Stokes-747.200	-118.421	0.016	-0.003
-746.185	-102.509	0.414	0.099
-745.171	800.000	-0.073	0.239
-744.156	-200.000	0.000	0.180
-743.142	-78.039	0.113	-0.039
-742.127	65.235	0.250	0.253
-741.112	800.000	-0.146	0.497
-740.098	-159.925	-0.378	-0.021
-739.083	-120.780	0.068	0.011
-738.069	-123.451	-0.233	-0.037
-737.054	132.954	0.074	-0.095
-736.039	-200.000	-0.007	0.042
-735.025	172.837	0.028	0.041
-734.010	-200.000	-0.039	-0.454
-732.996	31.827	0.181	-0.155
-731.981	-120.638	0.307	-0.052
-730.966	-105.248	-0.098	-0.022
-729.952	-8.944	-0.068	0.045
-728.937	-200.000	-0.021	0.125
-727.923	154.554	-0.151	-0.207
-726.908	-200.000	0.010	0.154
-725.894	-32.897	-0.296	0.164
-724.879	-104.223	-0.161	-0.037
-723.864	286.679	0.057	-0.103
-722.850	-78.953	-0.216	0.073
-721.835	84.593	-0.082	0.089
-720.821	361.318	-0.102	0.204
-719.806	-200.000	0.028	0.327
-718.791	-41.381	-0.559	-0.287
-717.777	-200.000	0.003	-0.328
-716.762	266.850	-0.147	-0.257
-715.748	27.415	0.259	-0.217
-714.733	-7.044	-0.113	-0.076
-713.718	248.626	-0.049	-0.083
-712.704	-63.545	0.590	-0.242
-711.689	43.212	0.145	0.132
-710.675	-145.330	0.101	-0.009
-709.660	-200.000	-0.013	-0.125
-708.645	-185.338	-0.116	-0.002
-707.631	43.097	-0.105	-0.096
-706.616	-200.000	-0.060	0.398
-705.602	740.029	-0.091	0.244
-704.587	62.834	-0.054	0.054
-703.572	-200.000	0.014	0.268
-702.558	79.428	0.160	-0.171
-701.543	-75.918	0.262	0.092
-700.529	-112.345	0.068	0.014
-699.514	108.269	0.101	0.120
-698.499	143.177	0.055	0.073
-697.485	23.529	-0.090	0.074
-696.470	2.447	0.186	-0.134
-695.456	-54.075	-0.257	0.116
-694.441	-200.000	-0.019	0.220
-693.426	-23.503	0.271	0.162
-692.412	-200.000	-0.028	-0.224
-691.397	-200.000	-0.007	-0.279
-690.383	718.358	-0.057	-0.152
-689.368	666.051	-0.044	-0.112
-688.354	111.371	-0.033	0.039
-687.339	-140.740	-0.184	0.019
-686.324	-60.780	-0.310	0.131
-685.310	-200.000	0.001	0.088
-684.295	-102.582	0.231	0.055
-683.281	-145.690	-0.187	-0.017
-682.266	221.148	-0.110	-0.176
-681.251	-200.000	0.015	-0.286
-680.237	-200.000	0.035	0.213
-679.222	552.347	0.075	0.179
-678.208	-141.101	0.093	-0.010
-677.193	-200.000	-0.037	0.181
-676.178	-42.441	-0.093	0.047
-675.164	73.846	-0.184	-0.192
-674.149	-111.660	0.218	-0.044
-673.135	-200.000	0.011	-0.330
-672.120	-21.603	-0.106	0.064
-671.105	-177.769	0.279	-0.007
-670.091	-83.798	-0.093	-0.030
-669.076	800.000	-0.019	0.061
-668.062	800.000	0.091	-0.289
-667.047	800.000	0.022	-0.076
-666.032	18.506	0.154	0.123
-665.018	41.735	-0.198	0.179
-664.003	26.590	0.046	0.038
-662.989	-75.378	-0.259	0.092
-661.974	800.000	-0.047	0.137
-660.959	800.000	-0.094	-0.334
-659.945	122.368	-0.028	0.035
-658.930	415.399	0.031	-0.065
-657.916	-179.974	-0.259	-0.005
-656.901	-32.476	0.315	-0.175
-655.886	35.577	-0.104	0.091
-654.872	800.000	-0.118	-0.375
-653.857	-65.676	-0.233	-0.093
-652.843	-200.000	0.009	0.125
-651.828	-200.000	0.042	-0.219
-650.814	-2.951	-0.312	-0.217
-649.799	-16.578	-0.117	0.074
-648.784	23.962	-0.309	0.254
-647.770	-200.000	-0.029	-0.569
-646.755	-123.875	0.301	-0.047
-645.741	800.000	0.050	0.169
-644.726	-29.792	-0.276	0.157
-643.711	-65.091	-0.228	0.091
-642.697	-200.000	-0.009	-0.058
-641.682	-200.000	0.028	-0.128
-640.668	-83.541	0.165	-0.053
-639.653	449.095	-0.060	0.131
-638.638	-200.000	0.047	-0.328
-637.624	35.094	-0.350	0.305
-636.609	82.130	-0.246	-0.266
-635.595	101.377	-0.174	-0.202
-634.580	96.077	0.070	-0.080
-633.565	283.992	-0.097	0.174
-632.551	800.000	0.040	0.169
-631.536	-23.776	-0.034	-0.020
-630.522	800.000	0.025	-0.091
-629.507	-40.161	0.125	0.065
-628.492	-73.865	0.333	0.120
-627.478	-110.372	-0.327	0.068
-626.463	-125.640	-0.289	-0.044
-625.449	800.000	0.142	-0.393
-624.434	-54.764	-0.136	0.061
-623.419	222.545	0.172	-0.275
-622.405	-200.000	0.024	-0.130
-621.390	800.000	0.049	0.150
-620.376	14.671	0.127	-0.098
-619.361	-131.648	0.068	-0.009
-618.346	-142.823	0.063	0.006
-617.332	-47.863	-0.331	-0.159
-616.317	-50.138	-0.102	-0.048
-615.303	100.653	-0.088	-0.101
-614.288	145.694	0.298	-0.397
-613.273	-200.000	0.005	-0.127
-612.259	-99.856	0.249	0.062
-611.244	-119.747	-0.188	-0.032
-610.230	-14.839	-0.228	-0.145
-609.215	93.735	-0.120	0.136
-608.201	800.000	-0.028	-0.092
-607.186	231.565	0.008	-0.013
-606.171	-81.420	0.290	0.095
-605.157	738.319	-0.082	-0.219
-604.142	-28.978	0.166	-0.095
-603.128	-18.665	-0.338	0.209
-602.113	139.755	-0.256	0.335
-601.098	490.170	0.070	-0.160
-600.084	800.000	-0.103	-0.289
-599.069	-111.172	0.085	-0.017
-598.055	-99.466	-0.263	0.066
-597.040	104.141	0.122	-0.143
-596.025	-153.321	0.326	-0.023
-595.011	-16.662	-0.084	0.053
-593.996	156.917	0.039	-0.053
-592.982	-54.252	-0.471	-0.213
-591.967	350.877	0.043	0.085
-590.952	-86.405	-0.080	-0.024
-589.938	-64.512	0.174	-0.070
-588.923	-200.000	0.020	0.124
-587.909	-6.939	0.078	-0.053
-586.894	800.000	-0.013	-0.037
-585.879	162.835	0.255	-0.355
-584.865	800.000	-0.041	-0.167
-583.850	654.072	-0.074	-0.188
-582.836	120.354	0.141	-0.174
-581.821	141.930	0.117	-0.154
-580.806	-122.724	-0.298	-0.048
-579.792	-96.980	0.083	0.021
-578.777	-11.160	0.015	-0.010
-577.763	800.000	-0.072	0.221
-576.748	-4.091	-0.317	-0.218
-575.733	800.000	0.036	-0.118
-574.719	-66.323	-0.216	-0.085
-573.704	116.990	-0.196	0.239
-572.690	40.268	0.146	-0.130
-571.675	150.944	-0.051	0.069
-570.661	-3.943	0.264	-0.182
-569.646	800.000	-0.057	-0.242
-568.631	98.171	-0.332	-0.379
-567.617	658.015	-0.048	0.123
-566.602	34.196	0.189	0.163
-565.588	-49.710	-0.264	0.124
-564.573	755.211	0.093	-0.248
-563.558	-72.917	-0.148	-0.054
-562.544	-200.000	-0.006	0.103
-561.529	-26.472	-0.251	0.146
-560.515	-200.000	-0.022	-0.103
-559.500	-200.000	-0.039	-0.226
-558.485	251.876	0.072	-0.122
-557.471	-110.416	0.058	-0.012
-556.456	-3.385	0.122	-0.084
-555.442	-200.000	-0.016	-0.153
-554.427	-52.171	0.341	-0.157
-553.412	-117.290	-0.327	-0.059
-552.398	-200.000	0.013	0.247
-551.383	-43.154	0.337	-0.170
-550.369	-6.669	0.155	-0.105
-549.354	-59.617	0.072	-0.030
-548.339	48.572	-0.098	0.091
-547.325	-200.000	-0.059	-0.365
-546.310	-200.000	-0.069	0.321
-545.296	-100.117	-0.459	0.113
-544.281	279.903	0.056	0.099
-543.266	-87.336	0.326	0.098
-542.252	277.715	0.155	0.274
-541.237	-26.578	-0.151	-0.088
-540.223	134.970	0.208	0.268
-539.208	-14.884	-0.344	-0.219
-538.193	-20.757	0.259	-0.158
-537.179	35.791	-0.310	0.271
-536.164	-69.506	0.089	-0.034
-535.150	200.497	0.118	0.180
-534.135	-142.065	-0.104	0.010
-533.121	800.000	0.086	-0.340
-532.106	239.837	0.068	0.113
-531.091	93.779	0.258	-0.290
-530.077	-122.511	0.196	-0.032
-529.062	242.809	-0.183	-0.304
-528.048	299.642	-0.142	0.258
-527.033	-155.783	0.254	-0.016
-526.018	-200.000	0.029	-0.172
-525.004	-39.315	-0.182	0.095
-523.989	236.932	0.047	0.077
-522.975	-200.000	-0.029	-0.127
-521.960	280.887	-0.091	-0.161
-520.945	800.000	0.043	0.148
-519.931	-170.013	-0.117	0.004
-518.916	-200.000	0.052	-0.298
-517.902	-136.983	-0.358	0.041
-516.887	16.573	-0.165	0.129
-515.872	800.000	0.112	-0.363
-514.858	-89.262	0.305	0.089
-513.843	-27.263	-0.247	-0.142
-512.829	-182.006	-0.105	-0.002
-511.814	173.533	0.103	0.148
-510.799	-200.000	-0.012	0.184
-509.785	-132.162	-0.315	0.041
-508.770	128.370	-0.246	-0.311
-507.756	800.000	-0.033	-0.108
-506.741	-47.561	0.178	-0.086
-505.726	-200.000	-0.080	-0.385
-504.712	-200.000	0.025	-0.163
-503.697	-41.150	0.066	-0.034
-502.683	-130.567	0.320	-0.043
-501.668	-95.040	0.161	-0.043
-500.653	-107.892	0.065	0.014
-499.639	66.844	0.126	0.127
-498.624	-174.422	0.140	0.004
-497.610	41.452	0.086	0.077
-496.595	84.519	-0.033	0.035
-495.581	-123.802	-0.296	-0.046
-494.566	139.318	-0.084	0.109
-493.551	156.771	0.090	0.122
-492.537	800.000	0.110	-0.349
-491.522	800.000	-0.044	0.156
-490.508	-200.000	-0.032	-0.154
-489.493	-80.736	-0.096	0.032
-488.478	800.000	0.083	0.323
-487.464	551.485	0.107	-0.255
-486.449	-53.938	-0.071	-0.032
-485.435	-200.000	0.031	-0.251
-484.420	-108.143	0.103	0.022
-483.405	270.138	-0.126	0.220
-482.391	-200.000	-0.044	0.282
-481.376	800.000	0.093	0.294
-480.362	-200.000	0.026	-0.123
-479.347	-109.222	-0.250	0.053
-478.332	-140.653	-0.177	-0.018
-477.318	215.513	-0.130	-0.205
-476.303	-172.650	0.140	-0.004
-475.289	-200.000	0.070	-0.316
-474.274	-82.791	-0.181	0.058
-473.259	-125.280	0.178	0.027
-472.245	25.130	0.174	0.143
-471.230	330.853	0.125	-0.238
-470.216	-106.422	0.181	0.040
-469.201	-58.693	-0.216	-0.092
-468.186	-123.486	0.100	0.016
-467.172	-200.000	-0.002	-0.039
-466.157	33.346	-0.202	-0.173
-465.143	-200.000	-0.028	0.495
-464.128	-41.864	0.066	-0.033
-463.113	25.018	0.247	0.202
-462.099	-128.429	-0.165	-0.023
-461.084	-184.648	0.382	0.006
-460.070	-135.820	-0.080	-0.009
-459.055	-81.500	-0.064	0.021
-458.040	687.502	-0.039	-0.101
-457.026	47.126	-0.047	0.043
-456.011	168.572	0.188	-0.265
-454.997	-156.708	0.262	0.016
-453.982	15.994	-0.242	-0.189
-452.968	-64.600	0.130	0.052
-451.953	800.000	-0.016	0.059
-450.938	468.169	-0.116	0.258
-449.924	-32.308	-0.146	0.080
-448.909	165.347	-0.198	0.277
-447.895	-54.483	-0.239	-0.107
-446.880	-129.687	-0.106	-0.014
-445.865	800.000	-0.062	0.200
-444.851	800.000	-0.059	0.210
-443.836	800.000	0.065	0.219
-442.822	20.324	-0.263	0.210
-441.807	-200.000	0.018	0.251
-440.792	74.564	-0.187	0.194
-439.778	70.161	0.237	0.242
-438.763	-200.000	0.050	0.270
-437.749	77.084	0.113	0.118
-436.734	268.017	0.073	-0.127
-435.719	161.837	0.168	-0.232
-434.705	-79.694	-0.206	-0.068
-433.690	-73.276	0.209	0.075
-432.676	-64.424	-0.257	-0.103
-431.661	-37.376	0.232	-0.122
-430.646	-200.000	0.036	-0.373
-429.632	135.866	-0.126	0.162
-428.617	131.403	0.147	-0.186
-427.603	11.812	-0.333	-0.252
-426.588	800.000	0.042	0.117
-425.573	337.011	-0.051	0.098
-424.559	800.000	-0.020	0.076
-423.544	-43.496	0.215	0.107
-422.530	-104.534	-0.165	-0.038
-421.515	-195.491	0.086	-0.001
-420.500	5.858	-0.101	0.074
-419.486	-41.844	-0.273	0.138
-418.471	-200.000	0.011	0.108
-417.457	-200.000	-0.092	0.426
-416.442	-40.311	-0.177	0.091
-415.428	56.149	0.177	-0.170
-414.413	-70.492	0.190	-0.071
-413.398	51.310	-0.218	-0.204
-412.384	-72.882	-0.150	0.054
-411.369	163.097	-0.140	0.194
-410.355	-200.000	-0.064	-0.418
-409.340	-200.000	-0.050	0.289
-408.325	103.797	-0.140	-0.162
-407.311	-99.047	-0.324	-0.081
-406.296	800.000	-0.009	-0.037
-405.282	-82.674	-0.147	-0.047
-404.267	525.388	-0.118	0.273
-403.252	220.499	-0.140	-0.221
-402.238	-119.239	-0.189	0.033
-401.223	800.000	0.164	-0.562
-400.209	99.584	0.085	-0.097
-399.194	-88.811	0.190	0.056
-398.179	515.044	0.051	-0.118
-397.165	-121.256	-0.215	-0.035
-396.150	-8.913	0.263	0.174
-395.136	-47.786	0.173	0.082
-394.121	733.409	-0.138	0.364
-393.106	-106.162	0.279	0.062
-392.092	-200.000	-0.027	-0.267
-391.077	238.130	0.203	0.332
-390.063	148.618	-0.097	0.129
-389.048	-179.264	0.049	-0.001
-388.033	-48.079	-0.045	-0.022
-387.019	-117.212	0.186	-0.033
-386.004	-50.931	-0.085	0.039
-384.990	194.542	-0.016	-0.024
-383.975	-47.267	0.486	0.233
-382.960	-47.409	0.046	0.022
-381.946	3.090	-0.108	0.077
-380.931	44.924	0.198	-0.180
-379.917	452.226	0.013	-0.028
-378.902	800.000	0.056	0.182
-377.888	-78.963	0.071	-0.024
-376.873	-200.000	0.020	-0.150
-375.858	-75.341	0.355	-0.125
-374.844	26.686	-0.139	0.114
-373.829	-200.000	0.119	0.000
-372.815	-34.137	-0.124	0.067
-371.800	7.568	-0.111	-0.082
-370.785	-177.326	0.151	0.004
-369.771	-37.396	0.050	0.026
-368.756	-41.382	0.156	-0.079
-367.742	-117.334	-0.212	0.038
-366.727	800.000	-0.071	-0.228
-365.712	121.624	-0.207	-0.254
-364.698	-109.465	-0.211	-0.044
-363.683	-42.338	-0.126	0.063
-362.669	-67.068	-0.173	0.067
-361.654	-200.000	0.077	-0.473
-360.639	-65.555	-0.178	0.070
-359.625	-200.000	-0.007	0.315
-358.610	30.869	0.158	-0.133
-357.596	211.629	0.115	0.178
-356.581	-200.000	0.015	-0.269
-355.566	231.029	-0.140	-0.226
-354.552	-19.650	0.154	0.094
-353.537	78.586	-0.155	-0.164
-352.523	444.661	-0.111	-0.241
-351.508	-127.318	0.317	-0.045
-350.493	217.332	0.140	0.220
-349.479	800.000	0.072	-0.242
-348.464	426.761	0.056	-0.120
-347.450	-121.504	0.184	0.030
-346.435	-126.043	0.254	0.038
-345.420	-106.797	0.332	-0.072
-344.406	-56.698	-0.200	0.087
-343.391	12.731	0.089	0.068
-342.377	51.363	-0.259	0.242
-341.362	720.180	0.072	0.188
-340.348	71.122	-0.039	0.040
-339.333	-36.229	-0.129	0.068
-338.318	83.958	0.255	-0.273
-337.304	-87.393	-0.329	-0.098
-336.289	-94.733	-0.119	-0.032
-335.275	-129.608	0.171	0.023
-334.260	-101.562	-0.161	-0.038
-333.245	800.000	-0.060	0.245
-332.231	66.829	-0.169	0.170
-331.216	-70.137	0.137	-0.051
-330.202	-86.163	-0.124	0.038
-329.187	114.118	0.215	-0.257
-328.172	-151.133	0.122	0.009
-327.158	-85.798	0.150	-0.046
-326.143	340.194	0.172	0.331
-325.129	60.697	0.263	0.256
-324.114	513.522	0.128	0.294
-323.099	-150.512	-0.258	0.019
-322.085	341.639	0.148	0.284
-321.070	126.462	0.088	-0.109
-320.056	-200.000	-0.076	-0.342
-319.041	359.999	0.089	0.174
-318.026	6.327	-0.279	0.204
-317.012	200.007	0.083	-0.126
-315.997	97.889	-0.195	0.220
-314.983	90.919	-0.304	0.335
-313.968	-159.377	-0.192	-0.011
-312.953	338.029	-0.108	0.206
-311.939	98.945	-0.161	-0.182
-310.924	112.459	0.141	-0.168
-309.910	27.040	0.108	0.089
-308.895	210.393	0.041	-0.064
-307.880	800.000	0.065	0.191
-306.866	-102.339	-0.161	-0.038
-305.851	-107.706	-0.174	-0.037
-304.837	-200.000	-0.008	0.155
-303.822	274.652	-0.017	0.030
-302.807	-71.788	-0.553	-0.203
-301.793	-110.035	-0.100	0.021
-300.778	27.381	0.180	-0.148
-299.764	-46.912	0.367	0.176
-298.749	-95.931	-0.250	-0.065
-297.735	-53.739	0.340	0.152
-296.720	-200.000	-0.046	-0.265
-295.705	-127.822	0.239	0.034
-294.691	-72.130	0.162	-0.059
-293.676	336.415	-0.015	0.028
-292.662	-103.699	0.278	-0.064
-291.647	-82.331	-0.104	0.033
-290.632	-74.904	-0.202	0.071
-289.618	50.501	-0.009	-0.008
-288.603	-200.000	0.018	0.089
-287.589	-136.421	-0.264	-0.030
-286.574	-31.338	0.118	-0.065
-285.559	-63.890	-0.314	-0.126
-284.545	-51.175	-0.210	0.097
-283.530	800.000	0.048	0.151
-282.516	32.807	0.188	-0.159
-281.501	-200.000	0.009	-0.262
-280.486	310.577	0.078	-0.142
-279.472	800.000	0.043	0.125
-278.457	-200.000	0.015	0.100
-277.443	225.188	-0.107	0.169
-276.428	64.838	0.084	0.083
-275.413	-123.386	0.647	0.101
-274.399	-75.778	-0.296	0.103
-273.384	50.448	0.162	-0.151
-272.370	23.367	0.124	-0.100
-271.355	-200.000	-0.014	-0.153
-270.340	747.101	0.007	0.019
-269.326	-200.000	0.023	0.241
-268.311	-78.677	0.338	-0.113
-267.297	-141.696	0.281	0.028
-266.282	517.842	-0.029	0.066
-265.267	209.370	0.087	-0.134
-264.253	-44.505	0.316	-0.155
-263.238	309.103	0.220	-0.404
-262.224	266.891	0.120	-0.206
-261.209	278.907	0.234	0.409
-260.195	117.924	-0.065	0.078
-259.180	46.530	0.162	0.148
-258.165	-47.557	-0.152	0.072
-257.151	800.000	-0.046	-0.135
-256.136	800.000	-0.093	-0.294
-255.122	-200.000	0.000	0.134
-254.107	-200.000	-0.027	-0.201
-253.092	49.289	-0.132	-0.121
-252.078	620.975	-0.043	-0.106
-251.063	-87.087	-0.269	0.080
-250.049	-157.656	0.145	-0.008
-249.034	125.901	-0.169	0.210
-248.019	305.366	-0.165	-0.301
-247.005	-20.363	-0.137	0.082
-245.990	-200.000	0.032	0.174
-244.976	17.099	0.078	0.061
-243.961	81.042	-0.099	-0.105
-242.946	647.767	0.048	-0.121
-241.932	548.668	0.162	0.381
-240.917	800.000	-0.123	0.447
-239.903	-75.130	0.596	-0.209
-238.888	-79.989	-0.301	-0.099
-237.873	-200.000	0.020	0.201
-236.859	-200.000	0.040	0.444
-235.844	301.822	0.140	-0.254
-234.830	-90.715	-0.399	0.113
-233.815	61.822	0.253	0.247
-232.800	161.887	0.129	0.178
-231.786	43.551	-0.137	-0.123
-230.771	-32.739	0.179	-0.098
-229.757	409.784	0.062	0.128
-228.742	-137.513	-0.176	-0.019
-227.727	49.647	0.120	0.110
-226.713	470.158	-0.149	-0.329
-225.698	73.908	0.234	-0.240
-224.684	197.475	0.185	-0.277
-223.669	269.107	-0.167	0.287
-222.655	-113.682	-0.163	-0.031
-221.640	717.902	0.051	0.133
-220.625	-147.988	0.177	-0.014
-219.611	-124.281	-0.122	-0.019
-218.596	-200.000	-0.029	-0.235
-217.582	285.878	0.126	0.222
-216.567	96.094	-0.154	0.172
-215.552	800.000	0.076	-0.218
-214.538	-3.513	-0.078	-0.053
-213.523	-81.524	-0.114	-0.037
-212.509	-50.920	0.122	0.056
-211.494	-158.689	0.259	-0.015
-210.479	-200.000	0.012	0.347
-209.465	-36.177	-0.082	0.043
-208.450	-93.813	-0.151	0.041
-207.436	77.341	-0.085	0.089
-206.421	-92.062	-0.182	0.050
-205.406	-18.814	0.173	0.106
-204.392	-34.066	-0.074	-0.040
-203.377	-60.346	-0.365	-0.152
-202.363	219.427	-0.072	-0.113
-201.348	-155.997	-0.235	-0.015
-200.333	327.745	-0.149	0.279
-199.319	5.187	0.386	0.278
-198.304	685.886	-0.081	-0.207
-197.290	-26.734	-0.135	0.077
-196.275	-20.128	0.215	0.130
-195.260	-200.000	0.074	-0.391
-194.246	-132.230	0.250	0.032
-193.231	-200.000	0.003	0.095
-192.217	-107.059	0.129	-0.028
-191.202	185.685	-0.025	-0.036
-190.187	81.497	0.024	0.025
-189.173	186.611	-0.147	0.213
-188.158	-142.527	0.329	0.032
-187.144	23.295	0.160	0.129
-186.129	800.000	0.053	0.168
-185.114	29.687	-0.238	0.198
-184.100	-200.000	-0.093	0.425
-183.085	-200.000	-0.031	-0.285
-182.071	376.968	0.161	-0.322
-181.056	27.178	-0.118	0.097
-180.042	800.000	0.096	-0.395
-179.027	-94.601	-0.185	0.049
-178.012	-61.225	-0.207	-0.085
-176.998	0.646	0.301	0.211
-175.983	-112.056	0.216	0.042
-174.969	-200.000	-0.027	0.375
-173.954	-53.685	0.070	0.031
-172.939	86.213	0.273	-0.294
-171.925	-200.000	0.034	0.311
-170.910	-137.082	0.229	0.026
-169.896	79.846	0.102	0.108
-168.881	-77.059	-0.247	-0.084
-167.866	-200.000	0.011	-0.174
-166.852	800.000	-0.044	0.121
-165.837	667.125	-0.096	0.242
-164.823	-200.000	0.040	0.262
-163.808	-120.295	0.215	0.036
-162.793	-200.000	-0.002	0.078
-161.779	800.000	0.025	0.103
-160.764	82.537	0.249	0.264
-159.750	-109.885	-0.144	-0.030
-158.735	338.486	0.192	0.366
-157.720	-155.739	-0.357	-0.022
-156.706	-200.000	0.032	0.171
-155.691	-200.000	0.031	-0.302
-154.677	64.260	0.435	0.428
-153.662	-200.000	-0.004	0.138
-152.647	-200.000	-0.019	0.120
-151.633	-119.223	-0.114	-0.019
-150.618	395.167	-0.147	0.300
-149.604	-200.000	-0.031	-0.135
-148.589	-26.649	-0.173	-0.099
-147.574	800.000	0.110	-0.299
-146.560	89.251	-0.045	-0.049
-145.545	-125.829	0.307	0.045
-144.531	27.469	0.119	-0.098
-143.516	-200.000	0.002	0.091
-142.502	333.507	0.055	-0.104
-141.487	-101.738	-0.128	0.030
-140.472	800.000	-0.087	0.275
-139.458	695.990	-0.019	0.048
-138.443	132.262	0.234	0.295
-137.429	-200.000	-0.078	0.000
-136.414	54.724	0.183	0.172
-135.399	800.000	-0.038	-0.139
-134.385	-24.062	0.033	0.019
-133.370	-200.000	0.012	0.282
-132.356	161.352	0.104	0.141
-131.341	-138.411	-0.292	0.031
-130.326	138.815	-0.019	0.024
-129.312	-157.137	-0.147	0.009
-128.297	-200.000	-0.006	0.155
-127.283	-70.064	-0.383	-0.142
-126.268	-200.000	-0.040	0.207
-125.253	715.110	-0.052	-0.134
-124.239	-5.835	-0.271	-0.181
-123.224	330.648	0.092	0.173
-122.210	42.474	0.102	-0.090
-121.195	800.000	0.125	0.349
-120.180	-82.458	-0.174	0.055
-119.166	-200.000	0.066	-0.381
-118.151	-142.854	-0.222	-0.021
-117.137	41.089	-0.132	0.116
-116.122	-3.236	0.116	-0.079
-115.107	114.258	-0.316	0.375
-114.093	59.526	-0.152	0.146
-113.078	-52.901	-0.395	-0.177
-112.064	-77.059	0.232	-0.079
-111.049	54.788	-0.101	-0.095
-110.034	-84.595	-0.262	0.081
-109.020	68.676	-0.149	0.149
-108.005	-148.797	0.034	-0.003
-106.991	-40.888	0.401	-0.202
-105.976	-197.145	-0.570	0.004
-104.962	641.154	0.023	0.057
-103.947	155.182	-0.234	-0.313
-102.932	800.000	-0.146	-0.417
-101.918	800.000	0.013	-0.046
-100.903	18.248	0.191	0.148
-99.889	65.237	0.125	0.123
-98.874	-59.926	0.277	-0.115
-97.859	-0.924	-0.180	-0.124
-96.845	-200.000	-0.015	-0.126
-95.830	800.000	0.042	-0.113
-94.816	-66.056	-0.325	-0.126
-93.801	194.384	0.029	-0.043
-92.786	111.572	0.216	0.254
-91.772	-153.686	0.186	0.012
-90.757	97.817	-0.079	-0.088
-89.743	-200.000	-0.006	0.082
-88.728	342.968	-0.161	0.306
-87.713	-8.057	-0.206	0.135
-86.699	-47.512	0.114	-0.054
-85.684	-200.000	0.033	0.174
-84.670	-200.000	0.015	-0.271
-83.655	443.964	-0.055	0.118
-82.640	-85.589	0.067	0.020
-81.626	-40.144	-0.312	0.158
-80.611	361.453	0.104	-0.203
-79.597	-104.449	-0.223	0.050
-78.582	56.989	-0.212	0.201
-77.567	-39.344	-0.098	0.050
-76.553	-31.316	0.111	0.061
-75.538	-200.000	-0.048	0.229
-74.524	-106.548	0.141	-0.031
-73.509	-128.200	0.260	0.036
-72.494	-158.847	0.178	0.010
-71.480	-200.000	-0.034	0.228
-70.465	76.440	0.356	0.367
-69.451	800.000	-0.184	0.558
-68.436	-107.529	0.263	0.056
-67.422	176.317	-0.280	0.396
-66.407	171.218	0.102	0.143
-65.392	800.000	0.050	0.156
-64.378	-200.000	-0.020	0.306
-63.363	-174.733	-0.216	-0.006
-62.349	-74.496	0.231	0.081
-61.334	93.453	-1.118	-1.231
-60.319	24.079	0.735	0.590
-59.305	800.000	-0.439	-1.511
-58.290	190.669	0.703	1.028
-57.276	800.000	0.387	1.544
-56.261	-200.000	123.835	640.768
-55.246	417.677	1560.943	3243.876
-54.232	143.146	2731.668	3534.820
-53.217	90.389	2306.916	2510.895
-52.203	32.726	1915.640	1611.914
-51.188	26.540	1711.150	1392.376
-50.173	24.435	1671.799	1344.459
-49.159	44.953	1740.869	1558.913
-48.144	43.264	1752.280	1556.060
-47.130	26.146	1703.612	1382.998
-46.115	23.572	1688.692	1351.262
-45.100	23.436	1683.291	1345.852
-44.086	23.389	1681.449	1343.967
-43.071	23.332	1679.000	1341.526
-42.057	23.320	1677.174	1339.925
-41.042	23.376	1674.327	1338.016
-40.027	23.412	1672.458	1336.741
-39.013	23.464	1670.283	1335.340
-37.998	23.362	1669.302	1333.737
-36.984	23.400	1668.261	1333.143
-35.969	23.528	1666.012	1332.251
-34.954	23.534	1664.604	1331.119
-33.940	23.485	1662.855	1329.298
-32.925	23.471	1661.639	1328.169
-31.911	23.562	1659.160	1326.812
-30.896	23.484	1658.080	1325.319
-29.881	23.443	1656.734	1323.877
-28.867	23.484	1654.749	1322.546
-27.852	23.471	1653.881	1321.702
-26.838	23.494	1651.912	1320.247
-25.823	23.549	1650.573	1319.535
-24.809	23.465	1649.868	1318.297
-23.794	23.480	1648.200	1317.023
-22.779	23.470	1646.324	1315.398
-21.765	23.573	1644.950	1315.012
-20.750	23.441	1643.243	1312.619
-19.736	23.476	1641.882	1311.733
-18.721	23.542	1640.530	1311.090
-17.706	23.549	1639.057	1309.918
-16.692	23.542	1637.369	1308.462
-15.677	23.533	1636.262	1307.458
-14.663	23.554	1634.411	1306.079
-13.648	23.547	1633.414	1305.182
-12.633	23.575	1631.962	1304.179
-11.619	23.520	1630.018	1302.166
-10.604	23.480	1628.938	1300.962
-9.590	23.551	1627.266	1300.090
-8.575	23.590	1625.854	1299.197
-7.560	23.449	1625.430	1297.778
-6.546	23.646	1623.669	1297.761
-5.531	23.526	1623.140	1296.407
-4.517	23.528	1621.637	1295.169
-3.502	23.500	1620.831	1294.272
-2.487	23.558	1618.624	1292.880
-1.473	23.143	1607.155	1280.662
-0.458	20.267	1587.339	1244.231
0.556	15.330	1589.102	1213.560
1.571	13.125	1613.926	1216.189
2.586	12.882	1626.324	1223.620
3.600	11.944	1571.907	1175.843
4.615	6.590	1463.963	1059.118
5.629	1.226	1405.032	981.756
6.644	0.303	1397.896	970.736
7.659	0.210	1396.937	969.383
8.673	0.114	1396.412	968.316
9.688	0.134	1393.806	966.557
10.702	0.142	1390.181	964.007
11.717	2.675	1393.593	982.537
12.731	9.572	1403.931	1034.138
13.746	15.072	1413.091	1076.246
14.761	16.734	1414.608	1087.991
15.775	16.204	1412.635	1082.973
16.790	15.300	1410.228	1075.238
17.804	14.530	1407.762	1068.334
18.819	14.199	1406.436	1065.117
19.834	13.969	1404.961	1062.434
20.848	13.672	1403.749	1059.523
21.863	13.403	1402.241	1056.577
22.877	13.234	1401.450	1054.808
23.892	13.242	1400.299	1053.902
24.907	13.199	1399.365	1052.830
25.921	13.306	1398.464	1052.743
26.936	13.316	1397.507	1051.988
27.950	13.322	1397.219	1051.717
28.965	13.412	1395.712	1051.060
29.980	13.409	1394.719	1050.203
30.994	13.505	1393.717	1049.966
32.009	13.408	1393.223	1048.886
33.023	13.490	1391.456	1047.979
34.038	13.446	1389.767	1046.335
35.053	13.341	1389.264	1045.200
36.067	13.379	1388.534	1044.802
37.082	13.278	1387.681	1043.431
38.096	13.412	1386.487	1043.285
39.111	13.415	1385.596	1042.537
40.126	13.409	1384.262	1041.406
41.140	13.227	1383.757	1039.790
42.155	13.195	1383.650	1039.412
43.169	13.136	1383.109	1038.544
44.184	13.174	1383.022	1038.627
45.199	13.236	1382.230	1038.329
46.213	13.295	1381.711	1038.221
47.228	13.416	1380.965	1038.326
48.242	13.347	1379.763	1036.897
49.257	13.303	1378.151	1035.316
50.271	13.344	1376.397	1034.164
51.286	13.314	1375.333	1033.084
52.301	13.332	1373.913	1032.040
53.315	13.377	1372.702	1031.321
54.330	13.299	1371.856	1030.110
55.344	13.386	1370.447	1029.503
56.359	13.223	1370.053	1028.098
57.374	13.314	1368.526	1027.427
58.388	13.278	1367.275	1026.177
59.403	13.197	1367.304	1025.602
60.417	13.149	1366.533	1024.633
61.432	13.172	1365.996	1024.286
62.447	13.138	1364.682	1023.001
63.461	13.169	1363.183	1021.977
64.476	13.089	1361.996	1020.504
65.490	13.181	1360.877	1020.140
66.505	13.178	1359.568	1019.054
67.520	13.181	1358.136	1017.904
68.534	13.267	1356.927	1017.442
69.549	13.207	1356.159	1016.403
70.563	13.101	1354.936	1014.749
71.578	13.185	1353.622	1014.187
72.593	13.131	1352.846	1013.186
73.607	13.039	1351.782	1011.733
74.622	13.105	1350.893	1011.385
75.636	12.972	1350.564	1010.234
76.651	13.094	1349.646	1010.207
77.666	13.147	1348.490	1009.574
78.680	13.070	1348.450	1008.987
79.695	13.131	1347.770	1008.757
80.709	13.080	1346.731	1007.583
81.724	13.234	1345.457	1007.480
82.739	13.205	1344.581	1006.555
83.753	13.280	1343.618	1006.202
84.768	13.226	1342.688	1005.087
85.782	13.380	1340.836	1004.549
86.797	13.389	1340.107	1003.970
87.812	13.250	1338.985	1002.193
88.826	13.165	1338.048	1000.892
89.841	13.230	1336.873	1000.313
90.855	13.190	1335.813	999.191
91.870	13.334	1334.304	998.845
92.884	13.307	1333.924	998.310
93.899	13.283	1333.242	997.569
94.914	13.398	1332.762	997.810
95.928	13.403	1331.045	996.468
96.943	13.411	1330.389	995.941
97.957	13.388	1329.262	994.867
98.972	13.341	1328.104	993.631
99.987	13.292	1327.127	992.517
101.001	13.418	1326.535	992.742
102.016	13.359	1325.498	991.525
103.030	13.511	1324.269	991.431
104.045	13.458	1323.391	990.369
105.060	13.300	1322.462	988.639
106.074	13.286	1321.120	987.461
107.089	13.177	1320.083	985.948
108.103	13.180	1318.295	984.545
109.118	13.181	1316.932	983.447
110.133	13.165	1316.060	982.614
111.147	13.251	1314.333	981.750
112.162	13.230	1312.977	980.523
113.176	13.265	1312.183	980.053
114.191	13.308	1311.310	979.570
115.206	13.349	1309.893	978.665
116.220	13.207	1308.683	976.833
117.235	13.254	1307.214	975.930
118.249	13.236	1306.680	975.337
119.264	13.236	1305.299	974.221
120.279	13.209	1304.172	973.137
121.293	13.211	1302.995	972.185
122.308	13.237	1302.750	972.070
123.322	13.155	1301.894	970.861
124.337	13.151	1300.478	969.694
125.352	13.241	1299.216	969.198
126.366	13.258	1298.076	968.359
127.381	13.318	1296.379	967.359
128.395	13.204	1295.867	966.227
129.410	13.342	1294.418	965.867
130.424	13.205	1294.373	964.945
131.439	13.261	1293.326	964.409
132.454	13.182	1292.354	963.133
133.468	13.276	1291.001	962.588
134.483	13.320	1290.234	962.189
135.497	13.195	1289.689	960.968
136.512	13.180	1288.036	959.568
137.527	13.283	1286.740	959.114
138.541	13.282	1284.819	957.590
139.556	13.356	1283.436	956.906
140.570	13.327	1283.012	956.333
141.585	13.374	1281.871	955.671
142.600	13.260	1280.485	953.897
143.614	13.357	1279.853	953.898
144.629	13.334	1278.814	952.908
145.643	13.434	1277.437	952.372
146.658	13.388	1276.467	951.302
147.673	13.354	1274.532	949.581
148.687	13.443	1273.446	949.199
149.702	13.361	1272.287	947.780
150.716	13.461	1270.677	947.072
151.731	13.337	1269.757	945.590
152.746	13.376	1268.651	944.907
153.760	13.534	1267.062	944.542
154.775	13.471	1266.486	943.670
155.789	13.476	1264.959	942.476
156.804	13.408	1264.370	941.565
157.819	13.555	1263.191	941.440
158.833	13.497	1262.456	940.481
159.848	13.619	1261.497	940.376
160.862	13.589	1260.225	939.171
161.877	13.549	1258.686	937.716
162.892	13.503	1258.001	936.864
163.906	13.501	1257.017	936.036
164.921	13.680	1255.779	936.043
165.935	13.581	1255.343	935.073
166.950	13.536	1254.979	934.466
167.964	13.722	1253.838	934.586
168.979	13.766	1252.920	934.065
169.994	13.641	1252.198	932.743
171.008	13.627	1251.619	932.151
172.023	13.638	1250.883	931.581
173.037	13.808	1250.085	931.858
174.052	13.714	1248.890	930.357
175.067	13.700	1247.818	929.398
176.081	13.599	1246.878	928.049
177.096	13.610	1246.123	927.466
178.110	13.686	1245.032	926.999
179.125	13.667	1243.592	925.739
180.140	13.774	1242.341	925.323
181.154	13.733	1240.962	923.982
182.169	13.790	1239.655	923.247
183.183	13.790	1238.858	922.572
184.198	13.783	1238.135	921.913
185.213	13.820	1236.090	920.515
186.227	13.777	1235.715	919.914
187.242	13.946	1234.473	919.843
188.256	13.926	1233.529	918.947
189.271	13.881	1232.320	917.719
190.286	13.829	1231.448	916.701
191.300	13.763	1230.754	915.740
192.315	13.720	1229.912	914.793
193.329	13.804	1229.202	914.647
194.344	13.937	1228.208	914.561
195.359	13.854	1228.196	914.009
196.373	13.907	1227.363	913.604
197.388	13.798	1227.365	912.924
198.402	14.063	1226.394	913.579
199.417	14.108	1225.680	913.212
200.432	14.133	1224.492	912.382
201.446	14.082	1223.835	911.534
202.461	14.064	1223.313	910.967
203.475	14.302	1221.974	911.190
204.490	14.107	1220.685	909.084
205.504	14.089	1219.764	908.220
206.519	14.113	1218.336	907.202
207.534	14.116	1217.074	906.201
208.548	14.096	1216.158	905.333
209.563	14.196	1214.722	904.727
210.577	14.169	1214.261	904.153
211.592	14.180	1213.288	903.412
212.607	14.231	1212.419	902.960
213.621	14.216	1211.586	902.177
214.636	14.215	1210.758	901.478
215.650	14.252	1209.879	900.941
216.665	14.285	1209.147	900.496
217.680	14.279	1208.190	899.674
218.694	14.291	1207.451	899.107
219.709	14.259	1207.221	898.683
220.723	14.326	1205.802	897.910
221.738	14.391	1204.824	897.452
222.753	14.346	1204.063	896.564
223.767	14.386	1203.475	896.261
224.782	14.498	1202.375	895.963
225.796	14.364	1202.272	895.085
226.811	14.414	1201.273	894.532
227.826	14.325	1201.267	893.973
228.840	14.463	1199.920	893.631
229.855	14.504	1199.099	893.157
230.869	14.534	1198.026	892.438
231.884	14.476	1197.614	891.743
232.899	14.407	1197.026	890.859
233.913	14.437	1196.229	890.349
234.928	14.466	1195.321	889.745
235.942	14.526	1194.275	889.209
236.957	14.367	1193.991	888.072
237.972	14.502	1192.587	887.669
238.986	14.424	1192.207	886.893
240.001	14.503	1191.383	886.623
241.015	14.467	1190.769	885.894
242.030	14.598	1189.576	885.625
243.045	14.526	1188.692	884.503
244.059	14.578	1187.894	884.107
245.074	14.674	1187.017	883.888
246.088	14.623	1186.301	883.006
247.103	14.626	1185.550	882.383
248.117	14.849	1184.146	882.436
249.132	14.741	1184.252	881.870
250.147	14.773	1183.745	881.585
251.161	14.932	1182.385	881.328
252.176	14.893	1181.886	880.672
253.190	14.877	1181.188	879.990
254.205	14.954	1180.792	880.024
255.220	14.971	1180.365	879.719
256.234	14.877	1179.821	878.739
257.249	14.913	1178.925	878.186
258.263	14.866	1178.480	877.528
259.278	15.002	1177.490	877.425
260.293	15.008	1176.474	876.624
261.307	14.969	1176.269	876.185
262.322	15.139	1175.403	876.355
263.336	15.118	1174.615	875.580
264.351	15.100	1174.073	875.007
265.366	15.082	1173.227	874.204
266.380	15.134	1172.769	874.056
267.395	15.063	1172.096	873.105
268.409	15.061	1171.005	872.206
269.424	15.197	1170.349	872.350
270.439	15.132	1169.998	871.669
271.453	15.132	1169.096	870.921
272.468	15.004	1168.535	869.759
273.482	15.057	1167.884	869.476
274.497	15.107	1167.195	869.143
275.512	15.130	1166.690	868.813
276.526	15.204	1165.248	868.045
277.541	15.265	1164.194	867.497
278.555	15.182	1163.923	866.789
279.570	15.204	1163.381	866.425
280.585	15.205	1162.373	865.600
281.599	15.391	1161.148	865.570
282.614	15.379	1159.734	864.377
283.628	15.349	1159.049	863.637
284.643	15.371	1158.322	863.134
285.657	15.303	1157.517	862.105
286.672	15.438	1156.318	861.830
287.687	15.356	1155.624	860.818
288.701	15.374	1154.886	860.284
289.716	15.350	1154.063	859.471
290.730	15.352	1153.502	858.990
291.745	15.436	1152.585	858.658
292.760	15.409	1151.958	857.975
293.774	15.565	1151.232	858.156
294.789	15.473	1151.201	857.587
295.803	15.555	1150.368	857.311
296.818	15.552	1149.710	856.730
297.833	15.486	1148.935	855.738
298.847	15.488	1147.552	854.646
299.862	15.496	1147.353	854.463
300.876	15.579	1146.228	853.971
301.891	15.646	1145.655	853.809
302.906	15.659	1145.391	853.599
303.920	15.634	1144.669	852.858
304.935	15.676	1143.436	852.079
305.949	15.761	1143.004	852.111
306.964	15.768	1142.427	851.640
307.979	15.809	1141.436	851.037
308.993	15.774	1140.853	850.349
310.008	15.764	1140.279	849.793
311.022	15.899	1138.988	849.440
312.037	15.838	1138.195	848.465
313.052	15.831	1137.294	847.682
314.066	15.687	1136.918	846.604
315.081	15.670	1135.952	845.721
316.095	15.804	1135.199	845.760
317.110	15.710	1134.313	844.553
318.125	15.754	1133.538	844.125
319.139	15.721	1132.998	843.482
320.154	15.688	1132.316	842.731
321.168	15.838	1131.545	842.837
322.183	15.865	1130.848	842.379
323.197	15.853	1130.281	841.818
324.212	15.869	1129.651	841.358
325.227	15.830	1129.425	840.919
326.241	15.889	1128.601	840.523
327.256	15.814	1127.749	839.443
328.270	15.932	1126.783	839.236
329.285	15.849	1125.948	838.130
330.300	15.910	1124.742	837.459
331.314	15.938	1123.790	836.813
332.329	16.035	1122.623	836.352
333.343	15.930	1121.982	835.281
334.358	16.009	1120.991	834.859
335.373	16.063	1120.189	834.458
336.387	16.025	1119.377	833.591
337.402	16.035	1118.780	833.124
338.416	16.023	1118.220	832.570
339.431	16.126	1117.729	832.640
340.446	16.096	1116.988	831.866
341.460	16.179	1116.293	831.684
342.475	16.234	1115.597	831.364
343.489	16.185	1114.438	830.187
344.504	16.344	1113.374	830.103
345.519	16.287	1112.685	829.236
346.533	16.271	1111.732	828.371
347.548	16.330	1111.082	828.106
348.562	16.300	1110.302	827.303
349.577	16.352	1109.781	827.093
350.592	16.156	1109.053	825.521
351.606	16.154	1108.311	824.885
352.621	16.260	1107.566	824.777
353.635	16.292	1106.751	824.255
354.650	16.295	1105.967	823.608
355.665	16.287	1105.247	822.964
356.679	16.259	1104.519	822.211
357.694	16.300	1104.153	822.065
358.708	16.428	1103.374	822.037
359.723	16.392	1103.108	821.587
360.738	16.352	1102.297	820.720
361.752	16.474	1101.226	820.439
362.767	16.537	1100.525	820.149
363.781	16.443	1100.755	819.793
364.796	16.516	1099.643	819.245
365.810	16.500	1099.162	818.740
366.825	16.483	1098.587	818.153
367.840	16.657	1098.220	818.650
368.854	16.534	1097.823	817.689
369.869	16.570	1096.784	817.019
370.883	16.684	1095.710	816.693
371.898	16.566	1095.137	815.628
372.913	16.595	1094.607	815.301
373.927	16.626	1094.000	814.924
374.942	16.775	1093.374	815.102
375.956	16.815	1092.556	814.613
376.971	16.742	1092.194	813.918
377.986	16.882	1091.516	814.016
379.000	16.773	1091.133	813.132
380.015	16.961	1090.495	813.490
381.029	16.884	1089.364	812.205
382.044	16.897	1088.718	811.714
383.059	16.881	1088.523	811.419
384.073	16.866	1087.420	810.452
385.088	16.999	1086.656	810.446
386.102	16.942	1085.572	809.294
387.117	16.873	1084.708	808.252
388.132	16.798	1084.018	807.305
389.146	16.864	1083.063	806.840
390.161	16.884	1082.269	806.269
391.175	16.944	1081.171	805.666
392.190	16.934	1080.812	805.282
393.205	17.006	1079.805	804.802
394.219	16.962	1079.329	804.168
395.234	17.031	1078.717	803.967
396.248	17.092	1076.996	802.901
397.263	17.102	1076.164	802.255
398.278	16.972	1075.628	801.172
399.292	16.944	1075.031	800.526
400.307	16.970	1074.325	800.050
401.321	17.055	1073.660	799.887
402.336	17.117	1072.877	799.524
403.350	17.003	1072.505	798.640
404.365	16.980	1071.468	797.687
405.380	17.023	1070.646	797.205
406.394	17.075	1070.108	796.979
407.409	17.257	1069.407	797.241
408.423	17.231	1068.579	796.433
409.438	17.261	1067.585	795.762
410.453	17.204	1067.654	795.475
411.467	17.273	1066.817	795.101
412.482	17.314	1065.816	794.478
413.496	17.430	1064.833	794.218
414.511	17.343	1064.586	793.557
415.526	17.398	1064.470	793.657
416.540	17.359	1063.964	793.025
417.555	17.525	1063.009	793.019
418.569	17.333	1062.827	791.920
419.584	17.492	1062.243	792.153
420.599	17.407	1061.669	791.261
421.613	107.746	1331.256	1487.527
422.628	99.476	1370.502	1487.605
