DTS Sentinel unit serial number:	SN413079Multiplexer serial number:	ORYXHardware model number:	OX4-SRSoftware version number:	ORYX F/W v4.00 Oryx Data Collector v3.7.2.0data status	okinstallation	princeton_trtdifferential loss correction	single-endedforward channel	channel 2reverse channel	N/Adate	2019/09/19time	01:23:35forward acquisition time	60.00reverse acquisition time	0.00gamma	496.2192k internal	0.2353k external	0.2353temperature offset calibration	1.0019default loss term (dB/km)	0.3790temperature slope calibration	1.0000multiplexer offset coefficient	1.0000multiplexer slope coefficient	1.0000fibre end	0.00T internal ref (°C)	21.64T ext. ref 1 (°C)	0.70T ext. ref 2 (°C)	15.04length (m)	temperature (°C)	Stokes	anti-Stokes-747.200	-64.853	0.397	-0.160
-746.185	-80.518	-0.294	-0.098
-745.171	3.039	-0.082	-0.060
-744.156	-33.468	0.186	0.102
-743.142	44.917	0.210	-0.193
-742.127	-19.596	-0.188	0.116
-741.112	-8.529	0.342	0.229
-740.098	-200.000	0.019	0.093
-739.083	256.229	0.207	-0.355
-738.069	52.384	0.119	0.113
-737.054	37.757	-0.135	0.119
-736.039	-33.750	-0.249	-0.137
-735.025	15.944	-0.073	0.057
-734.010	-92.624	0.195	-0.054
-732.996	531.313	-0.163	0.385
-731.981	566.996	0.135	-0.326
-730.966	375.358	-0.196	-0.398
-729.952	50.441	-0.266	-0.250
-728.937	-31.617	-0.086	0.048
-727.923	335.352	-0.099	0.191
-726.908	52.249	-0.156	-0.148
-725.894	-200.000	0.010	0.093
-724.879	-115.495	-0.071	0.013
-723.864	49.565	0.196	0.184
-722.850	-61.746	0.192	-0.080
-721.835	224.540	0.039	0.063
-720.821	135.131	0.164	-0.212
-719.806	-200.000	-0.297	-0.000
-718.791	112.839	-0.229	-0.277
-717.777	-64.794	0.208	0.084
-716.762	-200.000	0.057	-0.283
-715.748	-177.880	-0.124	-0.003
-714.733	-129.749	-0.449	-0.062
-713.718	100.561	-0.039	0.045
-712.704	-29.296	-0.300	-0.171
-711.689	-150.790	0.163	-0.012
-710.675	-200.000	-0.051	-0.242
-709.660	730.010	-0.126	-0.336
-708.645	78.851	-0.185	-0.197
-707.631	175.708	-0.074	-0.106
-706.616	-151.813	-0.032	0.002
-705.602	-50.768	0.113	-0.053
-704.587	-56.138	-0.291	0.129
-703.572	-84.361	-0.104	0.033
-702.558	-105.948	-0.240	-0.054
-701.543	800.000	0.093	-0.283
-700.529	96.470	-0.123	0.141
-699.514	543.338	-0.068	-0.162
-698.499	-200.000	-0.019	-0.112
-697.485	-139.637	-0.081	0.009
-696.470	531.907	0.158	-0.371
-695.456	29.788	0.037	0.031
-694.441	-172.119	0.419	0.013
-693.426	-140.872	-0.093	0.009
-692.412	411.874	-0.079	-0.168
-691.397	214.903	-0.273	-0.430
-690.383	78.036	0.040	0.043
-689.368	-52.789	0.324	0.149
-688.354	201.195	-0.099	-0.152
-687.339	-99.649	-0.179	0.045
-686.324	-187.246	-0.194	0.003
-685.310	438.188	-0.166	0.359
-684.295	36.474	-0.197	-0.173
-683.281	-200.000	0.004	-0.141
-682.266	77.587	0.034	-0.036
-681.251	13.470	0.204	0.157
-680.237	-177.937	0.102	-0.002
-679.222	24.709	-0.134	-0.111
-678.208	800.000	0.101	0.317
-677.193	0.447	-0.258	0.183
-676.178	800.000	-0.091	0.364
-675.164	-14.191	-0.173	-0.111
-674.149	617.157	-0.039	0.098
-673.135	105.661	0.174	0.204
-672.120	-102.207	-0.096	0.023
-671.105	-124.681	0.237	0.036
-670.091	32.304	0.327	-0.280
-669.076	-2.744	-0.211	0.146
-668.062	800.000	0.057	-0.171
-667.047	-57.564	0.134	0.059
-666.032	-107.958	-0.143	0.031
-665.018	-41.563	0.371	-0.189
-664.003	-29.240	-0.275	0.157
-662.989	-200.000	-0.035	-0.349
-661.974	-112.909	-0.165	0.033
-660.959	800.000	0.065	0.217
-659.945	-71.230	0.080	0.030
-658.930	-4.333	0.019	-0.013
-657.916	-136.660	-0.305	-0.035
-656.901	136.227	-0.182	0.235
-655.886	52.864	0.197	0.188
-654.872	-52.624	-0.248	-0.114
-653.857	-200.000	0.027	0.175
-652.843	611.901	-0.059	0.148
-651.828	-74.959	-0.228	-0.081
-650.814	-200.000	0.005	0.053
-649.799	-43.395	0.282	-0.142
-648.784	458.159	-0.202	-0.446
-647.770	200.963	0.098	0.150
-646.755	-14.354	-0.281	-0.180
-645.741	97.896	0.180	-0.206
-644.726	531.043	0.020	0.048
-643.711	-126.870	-0.173	0.025
-642.697	563.981	0.110	-0.265
-641.682	438.613	0.057	-0.124
-640.668	64.259	0.069	0.069
-639.653	-14.402	-0.169	0.108
-638.638	800.000	-0.020	-0.082
-637.624	800.000	-0.062	0.205
-636.609	262.640	-0.181	0.311
-635.595	-200.000	-0.066	0.341
-634.580	800.000	0.121	0.401
-633.565	-67.255	-0.126	0.049
-632.551	-138.754	-0.112	-0.012
-631.536	-95.383	-0.072	-0.019
-630.522	-75.325	-0.536	-0.190
-629.507	-124.425	0.315	0.049
-628.492	800.000	0.051	0.170
-627.478	26.128	-0.116	0.096
-626.463	27.859	-0.337	0.282
-625.449	800.000	0.039	0.119
-624.434	-200.000	-0.047	-0.218
-623.419	489.774	-0.185	0.420
-622.405	14.309	-0.109	0.084
-621.390	-200.000	0.038	0.323
-620.376	347.068	-0.050	0.097
-619.361	-13.362	0.350	-0.225
-618.346	-110.304	0.184	-0.038
-617.332	-35.060	-0.469	-0.253
-616.317	114.994	-0.063	-0.076
-615.303	1.137	-0.228	0.162
-614.288	24.350	0.259	0.213
-613.273	131.920	0.034	-0.043
-612.259	214.806	-0.068	0.108
-611.244	800.000	0.033	0.125
-610.230	-45.774	0.523	-0.256
-609.215	-2.601	0.134	0.093
-608.201	-9.230	-0.349	-0.231
-607.186	158.519	0.090	-0.123
-606.171	-91.113	-0.116	-0.033
-605.157	275.359	-0.103	-0.181
-604.142	-118.394	-0.216	0.038
-603.128	282.398	-0.119	-0.211
-602.113	116.174	-0.076	-0.093
-601.098	204.509	0.112	0.173
-600.084	800.000	-0.101	-0.336
-599.069	45.256	0.082	-0.075
-598.055	-90.273	0.109	-0.031
-597.040	-200.000	0.022	-0.201
-596.025	-38.859	0.049	0.026
-595.011	12.125	0.203	-0.155
-593.996	453.115	-0.061	0.134
-592.982	-200.000	-0.027	-0.121
-591.967	-105.984	-0.348	0.078
-590.952	51.714	-0.151	0.142
-589.938	46.945	0.342	0.315
-588.923	159.315	0.138	0.190
-587.909	-183.040	-0.076	-0.001
-586.894	-200.000	0.072	-0.331
-585.879	-9.045	-0.208	-0.138
-584.865	-200.000	-0.091	-0.400
-583.850	216.653	-0.079	-0.125
-582.836	-63.292	0.360	0.147
-581.821	54.199	-0.209	-0.199
-580.806	173.593	-0.069	0.099
-579.792	800.000	-0.160	0.544
-578.777	-200.000	-0.012	-0.124
-577.763	800.000	0.069	0.217
-576.748	15.093	-0.205	0.159
-575.733	-200.000	0.012	-0.197
-574.719	-200.000	-0.040	0.518
-573.704	-26.041	-0.049	0.028
-572.690	-14.269	0.118	-0.075
-571.675	800.000	0.116	0.421
-570.661	85.787	-0.037	-0.041
-569.646	17.330	0.241	-0.190
-568.631	-200.000	0.029	-0.146
-567.617	-54.798	0.175	-0.078
-566.602	127.509	-0.126	-0.158
-565.588	-200.000	0.004	0.208
-564.573	12.524	0.028	0.022
-563.558	-83.788	-0.226	0.071
-562.544	-196.399	-0.124	0.001
-561.529	-31.151	0.204	0.114
-560.515	29.854	-0.158	-0.133
-559.500	73.153	-0.265	-0.274
-558.485	26.240	-0.073	-0.061
-557.471	-4.831	0.062	0.042
-556.456	-200.000	-0.087	0.389
-555.442	-47.952	0.231	-0.111
-554.427	237.893	0.061	0.100
-553.412	-76.748	0.350	0.121
-552.398	-200.000	-0.035	0.000
-551.383	-200.000	-0.035	-0.190
-550.369	-92.443	0.243	0.068
-549.354	114.873	0.079	0.096
-548.339	46.624	0.044	0.041
-547.325	62.203	0.334	0.330
-546.310	67.817	-0.139	0.141
-545.296	-200.000	0.010	0.294
-544.281	373.398	-0.121	0.243
-543.266	76.912	0.088	0.093
-542.252	248.306	-0.205	0.343
-541.237	-19.447	0.322	-0.198
-540.223	160.999	-0.057	-0.079
-539.208	-200.000	-0.029	0.157
-538.193	140.264	-0.174	-0.228
-537.179	-91.615	-0.050	-0.014
-536.164	226.458	0.080	0.129
-535.150	-68.594	0.147	-0.056
-534.135	72.630	0.111	0.114
-533.121	-54.133	-0.238	0.107
-532.106	-110.386	-0.170	0.035
-531.091	-200.000	-0.031	-0.164
-530.077	-150.679	0.203	-0.015
-529.062	-118.904	0.020	0.004
-528.048	-140.243	-0.452	0.047
-527.033	-115.469	0.223	-0.042
-526.018	-111.336	0.053	0.011
-525.004	-200.000	-0.045	0.511
-523.989	320.210	0.182	0.341
-522.975	84.816	-0.330	-0.357
-521.960	-68.105	0.264	0.102
-520.945	-100.107	-0.179	-0.044
-519.931	-110.051	0.318	0.066
-518.916	359.735	0.104	0.206
-517.902	714.674	0.075	0.198
-516.887	-200.000	0.026	0.247
-515.872	-106.505	-0.294	0.065
-514.858	33.747	0.114	-0.098
-513.843	121.050	-0.111	-0.136
-512.829	-43.975	-0.217	0.108
-511.814	595.375	0.053	-0.129
-510.799	604.899	0.077	-0.189
-509.785	419.448	-0.123	0.260
-508.770	382.221	0.137	0.278
-507.756	-66.071	-0.272	-0.107
-506.741	-82.984	0.090	-0.029
-505.726	-200.000	0.005	-0.171
-504.712	26.005	0.312	-0.257
-503.697	-0.534	0.181	0.127
-502.683	300.792	0.057	-0.104
-501.668	487.622	-0.171	-0.386
-500.653	166.623	-0.183	-0.256
-499.639	22.669	0.108	-0.087
-498.624	304.523	-0.127	0.233
-497.610	45.576	0.135	0.123
-496.595	38.144	-0.067	-0.059
-495.581	-99.440	-0.117	0.029
-494.566	-22.385	-0.141	0.084
-493.551	-34.978	0.297	0.160
-492.537	-200.000	-0.045	-0.257
-491.522	800.000	0.098	-0.288
-490.508	119.746	-0.143	0.175
-489.493	-3.286	0.246	0.169
-488.478	33.143	0.127	0.108
-487.464	800.000	0.054	-0.177
-486.449	-104.752	-0.173	0.039
-485.435	-200.000	-0.027	-0.254
-484.420	-158.634	0.214	-0.012
-483.405	-61.708	0.201	-0.083
-482.391	-200.000	-0.021	-0.136
-481.376	-175.794	0.064	-0.002
-480.362	-200.000	-0.034	0.163
-479.347	-41.440	0.167	-0.085
-478.332	-200.000	-0.012	0.058
-477.318	28.430	0.059	0.049
-476.303	-36.857	-0.460	0.244
-475.289	19.314	-0.142	-0.113
-474.274	62.556	-0.123	-0.122
-473.259	800.000	0.017	-0.069
-472.245	17.013	0.225	-0.176
-471.230	-200.000	0.025	-0.156
-470.216	-33.018	0.121	-0.066
-469.201	-58.982	0.128	0.055
-468.186	166.655	-0.110	0.154
-467.172	-103.640	0.035	-0.008
-466.157	102.252	0.095	-0.110
-465.143	-200.000	-0.059	-0.294
-464.128	51.487	-0.087	0.081
-463.113	65.277	0.548	-0.547
-462.099	46.311	-0.138	-0.126
-461.084	129.320	0.092	0.116
-460.070	61.846	-0.331	-0.325
-459.055	-200.000	0.010	0.169
-458.040	34.680	0.283	-0.244
-457.026	734.284	-0.107	-0.282
-456.011	-32.879	-0.190	0.104
-454.997	-112.043	-0.056	0.011
-453.982	40.778	-0.152	0.135
-452.968	-34.655	0.041	-0.022
-451.953	223.729	0.056	0.089
-450.938	153.644	0.088	-0.119
-449.924	-200.000	0.025	-0.281
-448.909	96.318	0.200	0.225
-447.895	22.262	-0.244	-0.196
-446.880	-200.000	0.022	0.210
-445.865	-200.000	-0.040	-0.286
-444.851	113.228	-0.187	0.223
-443.836	-76.756	-0.241	0.083
-442.822	-54.020	0.120	-0.054
-441.807	320.568	0.027	-0.050
-440.792	46.982	0.194	-0.178
-439.778	-200.000	-0.018	-0.157
-438.763	271.963	-0.052	0.090
-437.749	-29.450	0.148	-0.084
-436.734	143.635	0.125	0.164
-435.719	4.354	-0.072	-0.052
-434.705	415.351	-0.041	0.087
-433.690	800.000	0.007	-0.023
-432.676	41.430	0.344	0.306
-431.661	-200.000	0.012	0.195
-430.646	-126.065	-0.325	-0.048
-429.632	800.000	-0.056	0.203
-428.617	-148.954	0.143	-0.011
-427.603	-200.000	0.047	-0.238
-426.588	800.000	0.053	-0.195
-425.573	-68.356	-0.204	0.078
-424.559	53.315	0.288	-0.272
-423.544	800.000	-0.031	-0.118
-422.530	-105.374	-0.174	-0.039
-421.515	-29.233	-0.320	0.180
-420.500	155.748	0.140	0.189
-419.486	-82.413	-0.274	0.088
-418.471	800.000	-0.094	-0.272
-417.457	551.260	-0.070	0.165
-416.442	-200.000	-0.020	0.366
-415.428	-200.000	-0.019	-0.176
-414.413	87.706	0.098	0.107
-413.398	-102.818	-0.082	0.019
-412.384	-85.817	-0.227	0.069
-411.369	44.642	0.090	-0.082
-410.355	47.219	-0.404	-0.370
-409.340	276.153	-0.050	0.088
-408.325	237.241	-0.151	0.246
-407.311	-20.429	0.176	0.107
-406.296	-90.333	0.120	0.034
-405.282	-99.648	-0.127	-0.031
-404.267	-61.666	-0.262	0.108
-403.252	-177.959	-0.158	-0.004
-402.238	-146.080	-0.019	-0.002
-401.223	-121.849	-0.067	0.011
-400.209	-200.000	-0.013	-0.055
-399.194	127.443	0.080	-0.100
-398.179	800.000	-0.079	-0.296
-397.165	-81.942	-0.219	-0.070
-396.150	107.034	0.032	-0.037
-395.136	-153.025	-0.068	0.005
-394.121	200.477	0.126	0.190
-393.106	-170.071	-0.293	-0.010
-392.092	-59.787	-0.130	-0.055
-391.077	-200.000	-0.049	0.224
-390.063	102.593	0.223	-0.256
-389.048	800.000	0.050	-0.207
-388.033	645.109	0.171	-0.429
-387.019	-75.965	0.160	0.056
-386.004	-37.567	-0.265	0.139
-384.990	800.000	-0.078	-0.245
-383.975	-23.169	-0.190	-0.112
-382.960	-49.006	0.289	0.136
-381.946	800.000	-0.034	-0.130
-380.931	778.166	-0.023	0.062
-379.917	800.000	-0.089	0.242
-378.902	-160.927	0.206	-0.011
-377.888	159.885	-0.127	0.174
-376.873	-170.284	0.056	0.002
-375.858	36.587	-0.181	0.157
-374.844	206.726	-0.083	-0.127
-373.829	-200.000	0.041	0.187
-372.815	-146.371	0.181	-0.016
-371.800	-68.662	-0.211	-0.080
-370.785	-44.796	0.329	0.161
-369.771	478.119	-0.053	0.117
-368.756	-200.000	0.005	-0.066
-367.742	82.251	-0.126	0.134
-366.727	-200.000	-0.001	0.102
-365.712	64.262	-0.210	-0.207
-364.698	-48.222	0.029	-0.014
-363.683	-77.971	-0.233	0.079
-362.669	222.317	0.153	-0.242
-361.654	-200.000	0.039	0.282
-360.639	-6.109	0.264	0.177
-359.625	800.000	0.098	0.337
-358.610	219.691	-0.206	-0.324
-357.596	-88.959	-0.157	0.046
-356.581	-2.631	0.124	0.085
-355.566	455.617	-0.067	0.147
-354.552	155.468	-0.090	-0.122
-353.537	-200.000	-0.045	0.262
-352.523	-34.158	0.133	-0.072
-351.508	41.208	0.208	0.185
-350.493	-76.894	0.025	-0.008
-349.479	-23.629	-0.118	0.069
-348.464	-170.958	0.213	0.007
-347.450	117.166	-0.167	0.202
-346.435	234.611	0.164	0.266
-345.420	368.790	0.017	-0.033
-344.406	186.643	-0.028	-0.041
-343.391	-200.000	0.028	-0.393
-342.377	800.000	0.065	-0.234
-341.362	-89.677	-0.094	-0.027
-340.348	-61.675	0.298	0.122
-339.333	-68.364	0.229	0.087
-338.318	-200.000	0.000	-0.009
-337.304	-84.874	0.190	-0.059
-336.289	800.000	0.105	0.328
-335.275	102.159	-0.191	0.219
-334.260	-72.791	0.159	0.058
-333.245	139.389	0.160	0.207
-332.231	419.663	-0.085	0.178
-331.216	-12.512	0.066	0.042
-330.202	576.178	-0.075	0.179
-329.187	-51.811	0.258	0.118
-328.172	-200.000	0.045	0.218
-327.158	-59.626	-0.101	0.042
-326.143	-166.832	-0.257	0.010
-325.129	800.000	-0.068	0.199
-324.114	173.127	-0.137	0.193
-323.099	185.934	0.212	-0.309
-322.085	64.508	-0.265	-0.262
-321.070	-200.000	0.002	0.261
-320.056	109.820	0.197	0.232
-319.041	-200.000	-0.024	-0.197
-318.026	-149.570	0.165	-0.013
-317.012	127.805	0.141	-0.175
-315.997	-144.079	-0.106	0.010
-314.983	800.000	0.172	-0.504
-313.968	800.000	0.073	0.271
-312.953	-200.000	-0.039	-0.269
-311.939	800.000	0.030	0.095
-310.924	-200.000	0.052	0.391
-309.910	-200.000	-0.005	-0.080
-308.895	-200.000	-0.012	0.101
-307.880	800.000	-0.040	0.121
-306.866	-200.000	-0.021	-0.132
-305.851	7.075	-0.119	-0.087
-304.837	-95.771	0.162	0.043
-303.822	-200.000	-0.030	-0.180
-302.807	117.459	-0.192	0.231
-301.793	-200.000	-0.005	-0.072
-300.778	510.412	0.100	0.228
-299.764	371.219	0.075	0.149
-298.749	99.776	0.286	0.324
-297.735	-83.416	-0.166	0.052
-296.720	455.949	-0.120	-0.261
-295.705	-200.000	-0.007	-0.093
-294.691	-0.527	-0.043	0.030
-293.676	221.319	0.125	0.196
-292.662	-8.345	-0.159	0.105
-291.647	-28.181	-0.200	-0.113
-290.632	-100.349	-0.327	-0.080
-289.618	289.330	-0.074	0.131
-288.603	-200.000	-0.024	-0.168
-287.589	0.368	0.230	0.161
-286.574	373.326	0.046	-0.092
-285.559	-156.304	0.200	-0.012
-284.545	139.543	0.243	-0.313
-283.530	67.163	0.260	-0.259
-282.516	-85.345	-0.101	0.031
-281.501	-113.625	-0.276	-0.053
-280.486	-65.254	-0.186	0.073
-279.472	-115.043	-0.321	0.060
-278.457	-118.569	0.153	0.026
-277.443	-200.000	0.006	-0.048
-276.428	-159.056	-0.552	-0.031
-275.413	-195.564	0.518	-0.004
-274.399	-44.617	0.056	-0.027
-273.384	-99.453	-0.297	0.073
-272.370	-194.776	0.207	0.002
-271.355	61.911	-0.149	0.145
-270.340	-47.191	0.070	0.033
-269.326	-65.208	-0.097	-0.038
-268.311	-29.910	0.200	0.112
-267.297	-142.628	0.088	0.008
-266.282	-6.040	0.149	0.100
-265.267	77.214	-0.015	0.016
-264.253	-45.348	0.370	0.180
-263.238	163.711	-0.071	0.098
-262.224	-200.000	-0.030	-0.145
-261.209	-200.000	0.009	0.098
-260.195	-200.000	-0.050	0.431
-259.180	19.706	0.011	-0.008
-258.165	-200.000	-0.060	-0.425
-257.151	-46.996	-0.063	0.030
-256.136	30.344	0.186	-0.156
-255.122	27.127	-0.089	0.073
-254.107	-200.000	-0.071	-0.419
-253.092	-76.562	0.108	0.037
-252.078	46.809	-0.345	-0.314
-251.063	7.716	0.215	-0.158
-250.049	19.001	-0.129	0.101
-249.034	800.000	-0.078	0.255
-248.019	121.406	0.194	0.236
-247.005	91.519	0.171	-0.188
-245.990	67.555	0.249	-0.249
-244.976	102.339	-0.301	-0.344
-243.961	-23.392	0.246	-0.144
-242.946	-200.000	-0.030	0.249
-241.932	358.342	0.128	0.250
-240.917	-94.360	-0.145	-0.039
-239.903	-32.527	0.122	0.066
-238.888	21.875	-0.295	0.235
-237.873	-93.422	0.272	-0.074
-236.859	-200.000	0.025	-0.407
-235.844	102.897	-0.196	0.224
-234.830	1.452	0.285	0.200
-233.815	800.000	-0.056	-0.176
-232.800	-55.224	0.250	0.110
-231.786	-29.856	-0.162	0.090
-230.771	800.000	-0.018	0.049
-229.757	-67.064	0.156	0.060
-228.742	176.833	0.169	-0.240
-227.727	-200.000	-0.055	0.356
-226.713	440.189	0.104	0.222
-225.698	-55.670	0.073	-0.032
-224.684	53.529	0.144	-0.135
-223.669	-200.000	-0.046	-0.390
-222.655	645.402	0.101	-0.252
-221.640	215.246	-0.150	-0.232
-220.625	-31.212	-0.252	-0.139
-219.611	-114.396	0.255	-0.048
-218.596	486.929	0.058	-0.130
-217.582	97.813	-0.245	-0.275
-216.567	134.162	-0.115	-0.145
-215.552	699.887	-0.014	0.037
-214.538	236.145	0.049	-0.080
-213.523	186.811	0.078	0.114
-212.509	-50.699	-0.103	0.047
-211.494	-52.169	-0.075	0.034
-210.479	-30.277	0.095	0.053
-209.465	-200.000	-0.016	-0.153
-208.450	-57.521	0.485	0.208
-207.436	144.396	0.111	0.144
-206.421	-70.941	-0.134	-0.049
-205.406	-39.245	0.280	-0.143
-204.392	90.039	0.132	-0.144
-203.377	127.666	-0.121	-0.150
-202.363	-89.150	0.104	-0.030
-201.348	11.933	-0.136	-0.102
-200.333	82.135	0.102	-0.108
-199.319	233.214	-0.198	-0.318
-198.304	135.386	0.167	-0.212
-197.290	100.444	-0.024	-0.027
-196.275	-134.782	-0.141	0.017
-195.260	-200.000	0.057	0.306
-194.246	-67.967	0.028	-0.011
-193.231	-200.000	-0.036	-0.310
-192.217	800.000	-0.017	0.074
-191.202	50.881	-0.270	-0.249
-190.187	171.752	0.123	-0.173
-189.173	-16.303	-0.243	0.150
-188.158	-47.918	0.362	-0.171
-187.144	229.961	-0.109	-0.174
-186.129	27.471	0.219	-0.179
-185.114	-108.073	0.230	0.049
-184.100	800.000	-0.028	-0.105
-183.085	-200.000	0.024	0.301
-182.071	-200.000	0.009	-0.232
-181.056	508.683	0.099	0.224
-180.042	88.174	0.175	-0.189
-179.027	800.000	-0.050	-0.206
-178.012	548.030	-0.132	0.307
-176.998	-125.379	-0.212	0.032
-175.983	-89.322	0.145	-0.042
-174.969	-200.000	0.026	-0.134
-173.954	409.069	0.034	0.070
-172.939	-54.179	0.043	-0.019
-171.925	-32.587	0.198	0.108
-170.910	229.392	-0.115	-0.183
-169.896	-106.536	-0.267	-0.058
-168.881	-22.179	0.090	-0.053
-167.866	800.000	0.050	0.150
-166.852	178.916	-0.163	-0.232
-165.837	-118.843	-0.128	-0.022
-164.823	-200.000	-0.199	-0.000
-163.808	77.111	0.166	0.172
-162.793	800.000	0.022	-0.092
-161.779	-21.346	0.140	-0.083
-160.764	-200.000	0.030	-0.276
-159.750	482.244	-0.111	0.245
-158.735	-140.434	0.042	0.004
-157.720	-200.000	0.030	-0.227
-156.706	-152.019	-0.150	0.011
-155.691	245.802	0.020	-0.033
-154.677	800.000	-0.074	0.274
-153.662	-200.000	-0.037	-0.353
-152.647	-103.874	-0.047	-0.011
-151.633	-200.000	0.044	0.273
-150.618	-32.392	-0.163	0.088
-149.604	46.617	-0.133	-0.120
-148.589	800.000	0.154	-0.581
-147.574	-22.216	0.074	-0.044
-146.560	-49.261	-0.212	0.099
-145.545	449.061	0.079	0.169
-144.531	244.445	-0.230	0.376
-143.516	-79.223	0.305	-0.101
-142.502	594.251	0.117	0.281
-141.487	800.000	0.031	0.088
-140.472	-200.000	0.047	-0.334
-139.458	280.763	0.303	-0.528
-138.443	88.143	-0.283	-0.306
-137.429	-181.462	0.265	-0.005
-136.414	543.616	0.110	-0.255
-135.399	169.008	-0.207	-0.288
-134.385	800.000	-0.041	-0.138
-133.370	-200.000	0.038	-0.197
-132.356	-200.000	0.053	0.388
-131.341	-110.605	-0.132	-0.027
-130.326	-84.805	-0.166	-0.051
-129.312	-109.682	0.241	0.049
-128.297	731.661	-0.076	-0.198
-127.283	115.644	-0.024	0.029
-126.268	-68.605	0.126	-0.048
-125.253	615.780	-0.052	-0.127
-124.239	204.582	0.196	-0.296
-123.224	160.692	-0.177	0.240
-122.210	17.698	-0.327	-0.253
-121.195	-200.000	0.020	-0.311
-120.180	-122.333	-0.044	0.007
-119.166	-9.231	0.291	0.189
-118.151	-200.000	-0.017	-0.228
-117.137	124.521	-0.108	-0.132
-116.122	56.285	0.117	0.111
-115.107	-200.000	-0.029	0.237
-114.093	658.630	0.109	0.272
-113.078	-200.000	-0.034	0.273
-112.064	511.107	-0.090	-0.203
-111.049	273.127	-0.048	0.082
-110.034	-200.000	0.018	0.337
-109.020	-200.000	0.023	0.118
-108.005	311.665	-0.020	-0.036
-106.991	-200.000	0.015	0.063
-105.976	-69.866	-0.211	0.078
-104.962	800.000	0.110	0.380
-103.947	-48.347	0.058	0.027
-102.932	-110.744	0.304	0.061
-101.918	-44.664	-0.017	-0.008
-100.903	285.521	0.047	-0.083
-99.889	124.635	0.173	-0.211
-98.874	126.844	-0.185	0.228
-97.859	-200.000	0.038	0.310
-96.845	-22.202	0.084	-0.049
-95.830	71.129	-0.070	0.071
-94.816	-120.995	0.284	-0.046
-93.801	161.074	0.112	-0.151
-92.786	75.004	0.167	0.171
-91.772	-168.923	-0.193	-0.007
-90.757	-79.083	-0.451	0.149
-89.743	2.162	-0.065	0.046
-88.728	109.881	-0.228	0.265
-87.713	65.715	-0.168	-0.165
-86.699	-93.918	-0.456	0.122
-85.684	296.591	0.217	0.387
-84.670	-200.000	0.023	-0.201
-83.655	-200.000	-0.034	-0.181
-82.640	680.921	0.120	0.304
-81.626	-123.575	-0.105	-0.016
-80.611	-128.409	-0.212	-0.029
-79.597	-107.294	0.176	-0.038
-78.582	-199.372	-0.523	-0.003
-77.567	-44.116	0.285	0.139
-76.553	-23.932	0.339	-0.197
-75.538	723.491	-0.094	0.242
-74.524	-129.666	-0.309	-0.041
-73.509	-106.366	-0.351	-0.076
-72.494	800.000	0.031	0.108
-71.480	63.193	0.030	0.029
-70.465	-200.000	0.072	-0.378
-69.451	-125.557	-0.121	0.018
-68.436	73.013	-0.246	0.250
-67.422	-157.471	0.075	0.004
-66.407	-170.887	-0.277	-0.009
-65.392	-7.473	0.283	-0.186
-64.378	192.060	-0.145	-0.212
-63.363	62.771	-0.186	0.180
-62.349	-157.119	0.258	0.015
-61.334	59.830	-1.200	-1.150
-60.319	76.091	0.732	0.752
-59.305	-200.000	-0.285	-1.215
-58.290	138.873	1.013	1.292
-57.276	355.945	0.743	1.436
-56.261	-200.000	135.818	692.589
-55.246	351.017	1672.380	3211.195
-54.232	134.264	2812.928	3538.205
-53.217	85.129	2306.594	2454.905
-52.203	30.578	1903.139	1579.372
-51.188	24.581	1698.745	1364.061
-50.173	22.572	1661.227	1318.865
-49.159	45.201	1734.340	1551.273
-48.144	42.031	1743.713	1535.337
-47.130	24.191	1694.278	1357.287
-46.115	21.773	1678.593	1326.399
-45.100	21.563	1673.554	1320.778
-44.086	21.477	1671.295	1318.292
-43.071	21.511	1668.403	1316.214
-42.057	21.470	1666.527	1314.376
-41.042	21.438	1664.911	1312.807
-40.027	21.542	1662.360	1311.528
-39.013	21.504	1660.551	1309.759
-37.998	21.465	1659.020	1308.213
-36.984	21.544	1657.963	1307.917
-35.969	21.652	1656.744	1307.711
-34.954	21.642	1654.868	1306.100
-33.940	21.659	1652.847	1304.582
-32.925	21.490	1651.787	1302.437
-31.911	21.567	1649.601	1301.229
-30.896	21.608	1647.955	1300.188
-29.881	21.627	1646.252	1298.934
-28.867	21.670	1644.579	1297.876
-27.852	21.530	1643.930	1296.278
-26.838	21.631	1642.085	1295.521
-25.823	21.628	1641.171	1294.722
-24.809	21.647	1640.083	1293.957
-23.794	21.704	1638.213	1292.846
-22.779	21.688	1636.819	1291.578
-21.765	21.567	1635.601	1289.673
-20.750	21.697	1633.306	1288.773
-19.736	21.655	1632.771	1287.988
-18.721	21.689	1631.112	1286.876
-17.706	21.737	1629.341	1285.783
-16.692	21.695	1627.948	1284.326
-15.677	21.627	1626.991	1283.019
-14.663	21.660	1625.708	1282.199
-13.648	21.733	1624.015	1281.346
-12.633	21.786	1622.138	1280.206
-11.619	21.629	1620.963	1278.082
-10.604	21.739	1619.564	1277.727
-9.590	21.789	1617.787	1276.636
-8.575	21.680	1616.610	1274.868
-7.560	21.661	1615.790	1274.032
-6.546	21.721	1614.438	1273.351
-5.531	21.697	1613.410	1272.311
-4.517	21.668	1612.134	1271.046
-3.502	21.704	1611.044	1270.397
-2.487	21.726	1609.653	1269.413
-1.473	21.159	1597.167	1255.436
-0.458	18.121	1577.577	1218.370
0.556	13.571	1579.352	1186.722
1.571	11.302	1603.133	1187.971
2.586	11.192	1614.917	1195.796
3.600	10.316	1560.487	1149.170
4.615	6.024	1455.040	1042.973
5.629	1.531	1399.058	974.020
6.644	0.761	1392.652	964.568
7.659	0.749	1391.473	963.588
8.673	0.670	1390.864	962.577
9.688	0.610	1388.356	960.375
10.702	0.627	1384.291	957.589
11.717	2.713	1387.221	972.772
12.731	8.874	1396.707	1018.582
13.746	14.914	1405.663	1063.548
14.761	17.157	1408.696	1080.026
15.775	16.665	1407.288	1075.728
16.790	15.692	1404.645	1067.438
17.804	14.889	1402.139	1060.349
18.819	14.602	1400.652	1057.309
19.834	14.412	1399.122	1054.857
20.848	14.095	1398.662	1052.413
21.863	13.892	1396.533	1049.435
22.877	13.641	1395.331	1046.855
23.892	13.605	1394.532	1045.934
24.907	13.731	1393.623	1045.954
25.921	13.628	1393.147	1044.855
26.936	13.735	1391.830	1044.452
27.950	13.875	1390.462	1044.208
28.965	13.699	1390.141	1042.769
29.980	13.821	1388.822	1042.458
30.994	13.871	1388.078	1042.120
32.009	13.998	1386.728	1041.812
33.023	13.874	1385.802	1040.244
34.038	13.842	1384.657	1039.095
35.053	13.791	1383.849	1038.075
36.067	13.738	1382.422	1036.583
37.082	13.824	1381.723	1036.505
38.096	13.815	1380.659	1035.557
39.111	13.755	1380.183	1034.732
40.126	13.743	1379.096	1033.751
41.140	13.664	1378.880	1033.007
42.155	13.596	1378.056	1031.874
43.169	13.719	1377.501	1032.134
44.184	13.679	1377.566	1031.840
45.199	13.664	1377.010	1031.239
46.213	13.729	1375.933	1030.745
47.228	13.733	1375.230	1030.152
48.242	13.843	1373.540	1029.481
49.257	13.722	1372.740	1028.038
50.271	13.767	1370.821	1026.789
51.286	13.771	1369.701	1025.884
52.301	13.791	1368.030	1024.668
53.315	13.765	1366.969	1023.619
54.330	13.654	1366.385	1022.405
55.344	13.753	1364.867	1021.792
56.359	13.602	1364.531	1020.520
57.374	13.704	1363.085	1019.973
58.388	13.648	1362.175	1018.858
59.403	13.570	1362.535	1018.560
60.417	13.763	1361.171	1018.633
61.432	13.646	1360.496	1017.320
62.447	13.551	1359.833	1016.150
63.461	13.587	1357.660	1014.656
64.476	13.532	1356.814	1013.601
65.490	13.622	1355.484	1013.064
66.505	13.584	1353.932	1011.588
67.520	13.546	1352.607	1010.277
68.534	13.701	1351.713	1010.463
69.549	13.628	1350.595	1009.089
70.563	13.571	1349.884	1008.125
71.578	13.586	1348.476	1007.076
72.593	13.631	1347.623	1006.626
73.607	13.623	1346.717	1005.807
74.622	13.490	1345.795	1004.223
75.636	13.510	1345.178	1003.795
76.651	13.504	1344.039	1002.819
77.666	13.527	1344.018	1002.854
78.680	13.566	1343.442	1002.575
79.695	13.606	1342.238	1001.829
80.709	13.556	1341.563	1000.934
81.724	13.570	1341.137	1000.614
82.739	13.736	1339.581	1000.361
83.753	13.652	1339.256	999.528
84.768	13.765	1338.059	999.222
85.782	13.782	1336.499	998.072
86.797	13.754	1335.175	996.830
87.812	13.774	1334.037	996.013
88.826	13.731	1332.838	994.766
89.841	13.793	1331.248	993.868
90.855	13.744	1330.925	993.245
91.870	13.718	1329.963	992.283
92.884	13.712	1329.523	991.832
93.899	13.780	1328.275	991.217
94.914	13.884	1327.073	990.853
95.928	13.927	1326.374	990.502
96.943	13.838	1325.731	989.403
97.957	13.790	1324.384	988.022
98.972	13.804	1323.539	987.389
99.987	13.924	1322.572	987.292
101.001	13.867	1321.418	986.004
102.016	13.880	1320.437	985.263
103.030	13.793	1319.292	983.809
104.045	13.900	1318.610	983.848
105.060	13.790	1317.516	982.291
106.074	13.738	1316.417	981.079
107.089	13.693	1315.001	979.670
108.103	13.765	1313.976	979.241
109.118	13.746	1312.293	977.793
110.133	13.634	1311.220	976.243
111.147	13.610	1309.596	974.807
112.162	13.695	1308.461	974.377
113.176	13.774	1307.280	973.875
114.191	13.813	1306.169	973.187
115.206	13.836	1305.060	972.413
116.220	13.770	1303.814	971.012
117.235	13.778	1302.310	969.854
118.249	13.737	1302.092	969.364
119.264	13.768	1300.657	968.390
120.279	13.775	1299.658	967.602
121.293	13.731	1298.392	966.318
122.308	13.726	1297.696	965.686
123.322	13.643	1296.782	964.435
124.337	13.618	1295.753	963.441
125.352	13.780	1294.066	963.045
126.366	13.729	1293.088	961.935
127.381	13.740	1291.597	960.804
128.395	13.697	1290.897	959.949
129.410	13.742	1289.740	959.265
130.424	13.832	1288.634	958.877
131.439	13.651	1288.137	957.373
132.454	13.834	1286.620	957.218
133.468	13.758	1286.370	956.510
134.483	13.782	1285.445	955.875
135.497	13.699	1284.535	954.639
136.512	13.700	1283.162	953.538
137.527	13.726	1281.844	952.625
138.541	13.805	1280.175	951.754
139.556	13.817	1278.637	950.592
140.570	13.858	1277.503	949.902
141.585	13.864	1276.446	949.064
142.600	13.843	1275.103	947.862
143.614	13.971	1274.381	947.973
144.629	13.911	1273.650	947.004
145.643	13.973	1272.249	946.228
146.658	13.987	1270.825	945.166
147.673	13.856	1269.778	943.562
148.687	13.900	1268.846	943.031
149.702	13.925	1267.613	942.178
150.716	13.718	1266.602	940.167
151.731	13.856	1265.421	939.991
152.746	13.965	1263.480	939.080
153.760	13.896	1262.760	938.070
154.775	13.984	1261.454	937.516
155.789	14.032	1260.148	936.732
156.804	13.968	1259.259	935.628
157.819	14.196	1257.639	935.624
158.833	14.095	1256.747	934.311
159.848	14.140	1256.315	934.163
160.862	13.993	1255.099	932.351
161.877	14.014	1253.974	931.546
162.892	14.067	1252.767	930.868
163.906	14.076	1252.137	930.366
164.921	14.052	1251.255	929.496
165.935	14.009	1250.451	928.576
166.950	14.002	1250.044	928.150
167.964	14.065	1248.817	927.507
168.979	14.095	1248.305	927.215
169.994	14.169	1247.255	926.762
171.008	14.154	1246.412	925.974
172.023	14.191	1245.827	925.661
173.037	14.171	1244.743	924.663
174.052	14.300	1243.609	924.454
175.067	14.204	1242.581	923.075
176.081	14.115	1241.633	921.799
177.096	14.158	1241.036	921.514
178.110	14.217	1239.419	920.553
179.125	14.077	1238.743	919.195
180.140	14.163	1237.412	918.603
181.154	14.217	1235.784	917.610
182.169	14.237	1234.912	916.990
183.183	14.349	1233.687	916.621
184.198	14.387	1232.456	915.831
185.213	14.261	1231.631	914.446
186.227	14.416	1230.303	914.230
187.242	14.444	1229.271	913.535
188.256	14.488	1228.578	913.180
189.271	14.355	1227.237	911.374
190.286	14.368	1226.211	910.603
191.300	14.276	1225.482	909.478
192.315	14.309	1224.886	909.136
193.329	14.315	1223.898	908.356
194.344	14.290	1223.296	907.691
195.359	14.352	1222.649	907.468
196.373	14.383	1222.541	907.476
197.388	14.463	1221.568	907.109
198.402	14.392	1221.566	906.643
199.417	14.554	1220.391	906.569
200.432	14.517	1219.820	905.865
201.446	14.484	1219.053	905.035
202.461	14.573	1217.926	904.602
203.475	14.603	1216.963	903.967
204.490	14.683	1215.272	903.063
205.504	14.535	1214.248	901.427
206.519	14.625	1213.023	900.922
207.534	14.736	1211.998	900.682
208.548	14.641	1211.133	899.443
209.563	14.630	1210.098	898.540
210.577	14.576	1209.676	897.854
211.592	14.727	1208.560	897.759
212.607	14.691	1207.840	896.950
213.621	14.745	1206.867	896.439
214.636	14.737	1205.877	895.579
215.650	14.713	1205.152	894.835
216.665	14.710	1204.418	894.194
217.680	14.800	1203.296	893.765
218.694	14.863	1202.182	893.195
219.709	14.870	1201.759	892.837
220.723	14.822	1200.821	891.804
221.738	14.881	1199.871	891.336
222.753	14.870	1199.198	890.698
223.767	14.945	1198.436	890.451
224.782	14.987	1197.864	890.174
225.796	14.989	1197.273	889.667
226.811	15.003	1196.312	888.946
227.826	14.911	1196.035	888.174
228.840	14.943	1195.322	887.736
229.855	14.879	1193.988	886.327
230.869	14.899	1193.803	886.216
231.884	14.997	1192.538	885.720
232.899	15.017	1191.721	885.139
233.913	14.997	1190.880	884.328
234.928	14.943	1190.368	883.589
235.942	14.942	1190.303	883.453
236.957	15.006	1188.797	882.599
237.972	15.023	1187.840	881.897
238.986	15.057	1187.209	881.531
240.001	15.009	1186.796	880.895
241.015	15.101	1185.647	880.447
242.030	15.031	1185.411	879.824
243.045	15.059	1184.684	879.357
244.059	15.042	1183.900	878.604
245.074	15.132	1182.511	877.968
246.088	15.148	1182.002	877.598
247.103	15.094	1181.172	876.621
248.117	15.211	1180.610	876.736
249.132	15.196	1179.259	875.579
250.147	15.277	1178.748	875.544
251.161	15.326	1178.103	875.245
252.176	15.336	1177.484	874.760
253.190	15.379	1176.945	874.503
254.205	15.460	1175.945	874.109
255.220	15.384	1176.070	873.729
256.234	15.446	1175.262	873.369
257.249	15.430	1174.240	872.449
258.263	15.357	1174.066	871.863
259.278	15.413	1173.119	871.378
260.293	15.470	1172.721	871.301
261.307	15.472	1171.937	870.649
262.322	15.442	1171.630	870.192
263.336	15.634	1170.037	869.923
264.351	15.640	1169.983	869.835
265.366	15.601	1169.187	868.966
266.380	15.650	1168.187	868.401
267.395	15.654	1167.634	867.934
268.409	15.626	1167.017	867.255
269.424	15.650	1166.089	866.612
270.439	15.670	1165.916	866.507
271.453	15.686	1165.282	866.040
272.468	15.627	1164.370	864.986
273.482	15.597	1163.426	864.055
274.497	15.665	1162.672	863.766
275.512	15.561	1162.575	863.082
276.526	15.647	1161.479	862.634
277.541	15.660	1160.339	861.778
278.555	15.770	1159.879	861.921
279.570	15.820	1158.731	861.250
280.585	15.832	1158.148	860.802
281.599	15.804	1157.057	859.769
282.614	15.812	1156.090	859.019
283.628	15.913	1154.916	858.583
284.643	15.900	1154.163	857.883
285.657	15.832	1153.327	856.839
286.672	15.877	1152.599	856.453
287.687	15.817	1151.397	855.175
288.701	15.920	1150.681	855.092
289.716	15.895	1150.077	854.443
290.730	15.807	1149.592	853.560
291.745	15.921	1148.754	853.440
292.760	15.893	1147.974	852.643
293.774	16.017	1147.429	852.790
294.789	16.023	1146.812	852.285
295.803	16.049	1146.252	851.927
296.818	15.995	1145.651	851.129
297.833	16.010	1144.865	850.547
298.847	16.026	1143.687	849.679
299.862	16.044	1142.488	848.803
300.876	16.014	1142.607	848.666
301.891	16.222	1141.436	848.763
302.906	16.096	1140.975	847.716
303.920	16.146	1140.303	847.392
304.935	16.196	1139.611	847.053
305.949	16.272	1139.259	847.101
306.964	16.309	1138.017	846.285
307.979	16.253	1137.244	845.353
308.993	16.198	1136.933	844.774
310.008	16.307	1136.139	844.657
311.022	16.331	1135.118	843.942
312.037	16.375	1133.850	843.142
313.052	16.150	1133.592	841.755
314.066	16.188	1132.710	841.212
315.081	16.187	1132.328	840.852
316.095	16.252	1131.134	840.212
317.110	16.385	1130.381	840.243
318.125	16.422	1129.519	839.712
319.139	16.287	1128.989	838.572
320.154	16.223	1128.463	837.788
321.168	16.226	1127.924	837.327
322.183	16.309	1127.418	837.289
323.197	16.431	1126.574	837.195
324.212	16.332	1125.577	835.890
325.227	16.336	1125.200	835.555
326.241	16.281	1124.539	834.716
327.256	16.448	1123.525	834.716
328.270	16.377	1122.493	833.525
329.285	16.456	1121.802	833.327
330.300	16.532	1120.558	832.703
331.314	16.478	1120.098	832.024
332.329	16.346	1119.440	830.812
333.343	16.481	1117.983	830.320
334.358	16.558	1117.058	829.938
335.373	16.541	1116.380	829.277
336.387	16.572	1116.030	829.096
337.402	16.583	1115.319	828.546
338.416	16.629	1114.616	828.176
339.431	16.639	1113.876	827.603
340.446	16.779	1112.851	827.454
341.460	16.687	1112.588	826.733
342.475	16.672	1111.544	825.810
343.489	16.744	1110.605	825.392
344.504	16.676	1109.855	824.433
345.519	16.673	1109.615	824.164
346.533	16.805	1108.351	823.796
347.548	16.949	1107.553	823.827
348.562	16.884	1106.699	822.804
349.577	16.798	1106.367	822.068
350.592	16.893	1105.313	821.672
351.606	16.747	1104.725	820.456
352.621	16.684	1103.985	819.528
353.635	16.863	1103.193	819.735
354.650	16.768	1102.527	818.706
355.665	16.854	1102.074	818.712
356.679	16.922	1101.102	818.249
357.694	16.857	1100.706	817.568
358.708	16.951	1099.639	817.153
359.723	16.911	1099.293	816.635
360.738	16.961	1098.667	816.339
361.752	16.930	1097.932	815.571
362.767	16.939	1097.420	815.159
363.781	17.020	1096.757	814.985
364.796	17.021	1096.167	814.476
365.810	16.958	1095.803	813.832
366.825	17.102	1094.842	813.736
367.840	17.073	1094.792	813.490
368.854	17.114	1093.977	813.010
369.869	17.126	1093.123	812.358
370.883	17.197	1092.153	811.907
371.898	17.227	1091.684	811.628
372.913	17.147	1090.929	810.616
373.927	17.227	1090.569	810.658
374.942	17.197	1089.585	809.708
375.956	17.275	1089.671	810.072
376.971	17.267	1088.795	809.315
377.986	17.199	1088.237	808.502
379.000	17.444	1087.293	808.896
380.015	17.344	1086.918	808.068
381.029	17.349	1086.331	807.587
382.044	17.487	1085.523	807.567
383.059	17.417	1084.724	806.569
384.073	17.377	1084.088	805.838
385.088	17.423	1083.228	805.342
386.102	17.310	1082.572	804.249
387.117	17.358	1081.552	803.647
388.132	17.434	1080.083	802.845
389.146	17.471	1079.489	802.507
390.161	17.441	1078.957	801.899
391.175	17.495	1078.157	801.488
392.190	17.433	1077.569	800.685
393.205	17.554	1076.526	800.408
394.219	17.618	1075.981	800.233
395.234	17.502	1075.031	798.912
396.248	17.593	1074.054	798.540
397.263	17.622	1073.069	797.875
398.278	17.568	1072.539	797.156
399.292	17.590	1071.642	796.523
400.307	17.544	1071.426	796.079
401.321	17.592	1070.483	795.530
402.336	17.632	1070.009	795.295
403.350	17.500	1069.479	794.214
404.365	17.545	1068.609	793.710
405.380	17.629	1067.680	793.339
406.394	17.599	1067.262	792.819
407.409	17.762	1066.046	792.601
408.423	17.857	1065.276	792.400
409.438	17.837	1064.519	791.675
410.453	17.725	1064.405	790.999
411.467	17.941	1063.374	791.168
412.482	17.981	1062.802	790.854
413.496	17.865	1061.982	789.637
414.511	17.924	1061.597	789.556
415.526	17.957	1061.037	789.221
416.540	17.921	1060.585	788.648
417.555	17.985	1060.010	788.446
418.569	17.971	1059.400	787.857
419.584	17.973	1058.991	787.494
420.599	18.010	1058.487	787.218
421.613	110.090	1331.656	1491.424
422.628	101.618	1371.404	1491.503
