DTS Sentinel unit serial number:	SN413079Multiplexer serial number:	ORYXHardware model number:	OX4-SRSoftware version number:	ORYX F/W v4.00 Oryx Data Collector v3.7.2.0data status	okinstallation	princeton_trtdifferential loss correction	single-endedforward channel	channel 2reverse channel	N/Adate	2019/09/11time	00:01:10forward acquisition time	60.00reverse acquisition time	0.00gamma	496.2192k internal	0.2331k external	0.2331temperature offset calibration	0.9941default loss term (dB/km)	0.3790temperature slope calibration	1.0000multiplexer offset coefficient	1.0000multiplexer slope coefficient	1.0000fibre end	0.00T internal ref (°C)	29.44T ext. ref 1 (°C)	-0.30T ext. ref 2 (°C)	22.98length (m)	temperature (°C)	Stokes	anti-Stokes-747.200	78.082	-0.235	-0.252
-746.185	-1.046	-0.188	0.134
-745.171	365.670	0.127	-0.257
-744.156	413.264	0.076	0.162
-743.142	133.425	-0.091	0.118
-742.127	-200.000	-0.005	-0.048
-741.112	800.000	-0.070	-0.224
-740.098	1.665	-0.304	0.220
-739.083	-89.552	-0.118	0.035
-738.069	-200.000	-0.003	0.062
-737.054	453.168	-0.090	0.200
-736.039	-67.456	-0.340	-0.134
-735.025	800.000	-0.090	0.280
-734.010	-200.000	-0.023	-0.320
-732.996	-76.056	-0.307	0.109
-731.981	-79.191	0.248	-0.085
-730.966	197.112	0.035	0.054
-729.952	-43.045	-0.183	-0.094
-728.937	24.459	0.182	0.152
-727.923	102.042	-0.215	0.252
-726.908	78.430	-0.258	-0.278
-725.894	129.532	0.114	0.147
-724.879	29.391	0.174	-0.149
-723.864	66.632	-0.185	0.189
-722.850	16.732	-0.128	-0.102
-721.835	-98.684	-0.231	-0.059
-720.821	593.170	-0.141	-0.349
-719.806	800.000	-0.093	0.268
-718.791	-127.770	-0.295	0.043
-717.777	34.294	0.372	0.326
-716.762	800.000	-0.023	0.091
-715.748	-152.917	-0.151	0.011
-714.733	73.117	-0.103	0.109
-713.718	-129.628	-0.453	0.063
-712.704	-200.000	0.075	0.374
-711.689	184.614	0.111	0.166
-710.675	-36.934	-0.091	-0.049
-709.660	47.879	0.079	-0.074
-708.645	-199.976	0.121	-0.001
-707.631	-12.151	-0.227	0.149
-706.616	-200.000	-0.013	0.346
-705.602	620.234	0.089	0.224
-704.587	14.222	0.126	0.098
-703.572	-200.000	-0.032	0.289
-702.558	742.038	0.079	-0.213
-701.543	-88.880	0.383	-0.114
-700.529	-121.477	0.322	-0.054
-699.514	-121.240	-0.222	-0.037
-698.499	-14.983	-0.294	-0.189
-697.485	-123.783	-0.142	0.023
-696.470	-89.219	-0.041	-0.012
-695.456	-81.968	0.070	-0.023
-694.441	-9.433	-0.141	0.095
-693.426	-186.943	-0.173	0.002
-692.412	61.649	0.204	-0.204
-691.397	328.823	-0.045	0.086
-690.383	800.000	-0.041	-0.129
-689.368	345.858	-0.131	0.260
-688.354	125.731	-0.066	0.084
-687.339	-76.819	-0.203	0.071
-686.324	132.801	-0.163	-0.211
-685.310	123.610	-0.283	-0.357
-684.295	-25.107	0.072	0.043
-683.281	-200.000	-0.003	-0.158
-682.266	157.266	-0.210	0.292
-681.251	129.102	-0.169	0.216
-680.237	390.401	-0.103	0.214
-679.222	-95.111	-0.072	-0.019
-678.208	-111.175	0.074	-0.015
-677.193	800.000	-0.114	-0.368
-676.178	-23.829	-0.038	0.023
-675.164	800.000	-0.052	0.214
-674.149	86.839	-0.193	0.214
-673.135	-200.000	0.010	-0.178
-672.120	-132.755	-0.225	0.029
-671.105	-30.645	0.184	-0.105
-670.091	35.560	-0.279	0.246
-669.076	-63.969	-0.040	-0.016
-668.062	-171.306	0.343	0.012
-667.047	-137.233	-0.445	0.051
-666.032	133.421	-0.089	-0.115
-665.018	258.334	-0.028	-0.049
-664.003	-83.224	-0.398	-0.128
-662.989	-200.000	-0.006	0.078
-661.974	-200.000	-0.009	0.100
-660.959	-26.756	-0.319	0.187
-659.945	256.631	0.101	-0.174
-658.930	-4.563	0.142	0.098
-657.916	196.348	-0.034	0.052
-656.901	331.520	0.088	-0.170
-655.886	-193.297	0.252	0.002
-654.872	-140.574	-0.189	-0.020
-653.857	-29.751	0.105	0.060
-652.843	334.915	0.105	0.204
-651.828	800.000	-0.019	0.063
-650.814	325.428	-0.150	0.287
-649.799	61.148	0.197	0.196
-648.784	287.978	-0.099	0.180
-647.770	402.465	-0.125	0.264
-646.755	-200.000	0.016	0.118
-645.741	-65.046	-0.086	0.035
-644.726	616.073	0.131	0.329
-643.711	-6.991	0.142	0.097
-642.697	-200.000	-0.079	-0.458
-641.682	-200.000	-0.014	-0.269
-640.668	-11.706	-0.284	0.187
-639.653	-123.156	0.267	0.043
-638.638	-200.000	0.077	-0.371
-637.624	54.133	-0.312	0.301
-636.609	-23.193	-0.169	-0.102
-635.595	-24.885	0.142	0.085
-634.580	232.746	0.052	-0.086
-633.565	-88.426	-0.065	-0.020
-632.551	800.000	0.034	0.145
-631.536	-200.000	-0.077	-0.366
-630.522	26.834	-0.174	-0.146
-629.507	-200.000	0.073	0.368
-628.492	-96.996	-0.129	-0.034
-627.478	-180.686	-0.123	-0.003
-626.463	-145.376	-0.349	-0.032
-625.449	-31.338	-0.267	0.151
-624.434	360.474	0.145	0.290
-623.419	-172.832	-0.323	0.010
-622.405	-200.000	0.028	0.260
-621.390	-19.634	0.308	-0.191
-620.376	-67.845	-0.083	0.033
-619.361	-12.835	-0.167	-0.109
-618.346	62.025	0.147	-0.146
-617.332	800.000	-0.053	-0.171
-616.317	-47.022	0.179	-0.087
-615.303	-200.000	0.045	-0.297
-614.288	-94.487	-0.041	-0.011
-613.273	70.029	-0.141	-0.145
-612.259	-200.000	-0.083	-0.371
-611.244	65.004	-0.191	0.193
-610.230	-29.686	0.071	-0.040
-609.215	-149.127	-0.102	0.008
-608.201	-82.402	0.078	0.025
-607.186	-130.882	-0.313	-0.042
-606.171	51.849	-0.119	-0.113
-605.157	-72.643	0.259	-0.096
-604.142	-147.987	0.336	-0.028
-603.128	-124.400	-0.276	0.043
-602.113	287.363	0.080	0.144
-601.098	-97.205	0.348	0.091
-600.084	-87.462	-0.474	-0.144
-599.069	5.382	0.229	-0.169
-598.055	-200.000	-0.005	-0.092
-597.040	-54.455	-0.246	-0.111
-596.025	0.429	0.247	-0.177
-595.011	-175.004	-0.350	0.010
-593.996	66.670	0.078	-0.080
-592.982	-38.683	0.065	-0.034
-591.967	337.360	0.099	-0.192
-590.952	-58.789	-0.154	0.067
-589.938	145.924	-0.195	-0.261
-588.923	-52.509	0.126	0.058
-587.909	226.942	-0.080	-0.131
-586.894	214.744	0.197	0.313
-585.879	-56.386	0.245	-0.109
-584.865	2.017	-0.108	0.078
-583.850	88.128	0.238	0.264
-582.836	-200.000	0.027	-0.411
-581.821	7.186	-0.191	0.143
-580.806	611.545	-0.103	-0.257
-579.792	187.686	0.077	0.115
-578.777	800.000	0.020	-0.078
-577.763	508.848	0.078	0.181
-576.748	-6.018	-0.058	0.040
-575.733	-200.000	0.029	0.227
-574.719	-200.000	-0.028	0.123
-573.704	216.827	-0.160	0.255
-572.690	-157.977	0.207	-0.012
-571.675	77.027	-0.052	0.055
-570.661	-42.171	-0.078	-0.040
-569.646	-92.276	0.328	-0.093
-568.631	-176.360	-0.182	0.005
-567.617	-200.000	-0.015	-0.109
-566.602	289.013	0.102	-0.184
-565.588	-26.067	0.113	0.067
-564.573	142.167	-0.203	0.269
-563.558	711.860	0.112	-0.297
-562.544	-100.011	0.237	0.059
-561.529	394.994	0.101	0.210
-560.515	-23.186	0.087	0.052
-559.500	140.403	-0.147	-0.194
-558.485	193.653	-0.066	-0.099
-557.471	34.248	0.149	0.130
-556.456	-26.751	0.367	0.215
-555.442	800.000	0.038	0.156
-554.427	-200.000	-0.005	-0.165
-553.412	-59.830	-0.443	-0.189
-552.398	-6.880	0.306	0.208
-551.383	-200.000	-0.248	-0.000
-550.369	-65.465	0.197	0.079
-549.354	800.000	-0.146	-0.449
-548.339	797.421	-0.099	0.273
-547.325	75.009	-0.242	-0.255
-546.310	-200.000	-0.004	0.343
-545.296	-22.338	-0.393	0.238
-544.281	-112.275	-0.192	0.038
-543.266	-200.000	0.002	0.524
-542.252	-112.830	-0.194	0.038
-541.237	657.958	0.042	-0.107
-540.223	25.676	0.075	0.063
-539.208	3.740	-0.210	0.153
-538.193	496.148	0.121	-0.277
-537.179	259.050	-0.092	-0.159
-536.164	-59.528	0.436	-0.187
-535.150	-200.000	-0.016	0.289
-534.135	-147.229	0.213	0.018
-533.121	422.770	0.088	-0.188
-532.106	69.065	0.267	-0.274
-531.091	287.429	-0.091	-0.165
-530.077	-9.522	-0.061	0.040
-529.062	233.668	-0.123	-0.203
-528.048	-140.602	-0.073	-0.008
-527.033	-39.724	0.283	0.148
-526.018	-200.000	0.021	-0.122
-525.004	78.895	0.048	0.051
-523.989	132.326	-0.059	-0.076
-522.975	-200.000	-0.027	-0.382
-521.960	-200.000	-0.012	0.072
-520.945	427.069	0.047	0.102
-519.931	-200.000	-0.010	0.282
-518.916	547.212	-0.130	-0.310
-517.902	81.219	-0.064	-0.069
-516.887	148.122	-0.109	-0.147
-515.872	-145.987	-0.341	-0.030
-514.858	-173.510	0.236	-0.007
-513.843	257.299	0.186	0.319
-512.829	-61.040	0.116	-0.049
-511.814	782.436	-0.044	-0.121
-510.799	-88.400	0.290	-0.086
-509.785	787.624	0.038	0.103
-508.770	201.514	0.050	0.077
-507.756	175.497	-0.108	-0.156
-506.741	-107.269	0.231	0.051
-505.726	-70.508	0.217	-0.082
-504.712	-200.000	-0.006	0.232
-503.697	-20.881	0.011	0.007
-502.683	610.053	0.104	-0.258
-501.668	-51.612	-0.256	0.119
-500.653	-97.636	0.292	-0.075
-499.639	359.577	-0.020	-0.040
-498.624	-177.422	-0.071	-0.002
-497.610	-200.000	-0.005	0.068
-496.595	112.584	0.230	0.277
-495.581	-37.558	-0.363	-0.193
-494.566	-40.687	0.041	0.021
-493.551	800.000	0.042	-0.131
-492.537	100.095	0.077	0.089
-491.522	217.206	0.165	-0.261
-490.508	-134.684	-0.079	0.010
-489.493	800.000	-0.023	-0.065
-488.478	-72.534	-0.037	-0.013
-487.464	11.394	-0.110	0.084
-486.449	448.360	0.058	0.126
-485.435	-129.809	0.273	-0.037
-484.420	16.212	0.118	0.093
-483.405	105.578	-0.153	-0.181
-482.391	358.233	-0.069	0.137
-481.376	37.223	-0.110	0.097
-480.362	689.053	-0.043	0.112
-479.347	384.824	-0.042	0.086
-478.332	256.862	0.084	0.144
-477.318	157.168	0.278	0.382
-476.303	33.264	-0.194	-0.168
-475.289	-101.936	0.070	0.017
-474.274	-200.000	0.022	0.175
-473.259	13.470	-0.276	-0.213
-472.245	-200.000	-0.001	0.203
-471.230	165.823	0.029	-0.041
-470.216	-109.416	0.082	-0.017
-469.201	69.695	-0.089	-0.091
-468.186	-132.038	-0.179	0.023
-467.172	-200.000	-0.032	0.264
-466.157	-200.000	-0.645	-0.002
-465.143	-200.000	-0.002	0.294
-464.128	-43.296	0.291	0.147
-463.113	-200.000	0.002	0.053
-462.099	709.870	-0.068	0.178
-461.084	158.638	0.272	-0.376
-460.070	-11.520	-0.221	0.145
-459.055	192.095	-0.060	-0.090
-458.040	-40.977	0.288	0.148
-457.026	106.756	0.185	-0.218
-456.011	160.056	-0.040	-0.056
-454.997	-44.967	-0.286	-0.142
-453.982	-200.000	-0.105	-0.625
-452.968	-46.285	-0.320	-0.156
-451.953	274.153	-0.043	-0.076
-450.938	-116.004	0.156	0.029
-449.924	187.906	0.050	0.075
-448.909	-6.195	0.055	-0.037
-447.895	-14.958	0.258	-0.164
-446.880	800.000	0.050	-0.212
-445.865	423.652	-0.094	0.202
-444.851	-139.465	-0.082	0.009
-443.836	222.184	-0.125	0.200
-442.822	-200.000	-0.014	-0.163
-441.807	-25.836	-0.158	0.093
-440.792	425.831	0.049	0.104
-439.778	-159.089	0.282	-0.016
-438.763	92.846	0.204	-0.229
-437.749	251.879	-0.195	-0.330
-436.734	-200.000	0.011	-0.169
-435.719	-200.000	0.041	0.250
-434.705	-151.768	-0.036	0.003
-433.690	604.012	0.113	-0.279
-432.676	-200.000	0.000	-0.278
-431.661	-57.819	0.426	-0.185
-430.646	-106.242	-0.132	-0.030
-429.632	641.157	0.094	-0.238
-428.617	399.502	-0.064	0.134
-427.603	800.000	-0.044	-0.121
-426.588	442.005	-0.198	-0.431
-425.573	447.404	0.025	-0.056
-424.559	-100.482	0.288	-0.071
-423.544	-52.485	-0.156	0.072
-422.530	-200.000	-0.007	0.086
-421.515	-94.642	-0.114	0.031
-420.500	-153.598	-0.428	0.029
-419.486	248.466	-0.130	0.218
-418.471	-190.693	0.069	0.001
-417.457	-95.106	0.156	-0.042
-416.442	636.597	0.065	-0.164
-415.428	-113.370	-0.294	0.057
-414.413	-112.829	0.291	0.057
-413.398	-200.000	-0.002	0.223
-412.384	-200.000	-0.005	0.230
-411.369	-128.532	0.236	-0.033
-410.355	396.326	0.040	-0.083
-409.340	282.969	-0.116	0.207
-408.325	-149.661	0.224	-0.018
-407.311	-139.077	-0.375	-0.040
-406.296	-191.314	-0.219	0.002
-405.282	800.000	-0.038	-0.135
-404.267	-75.802	-0.159	0.056
-403.252	-29.343	-0.209	-0.119
-402.238	9.757	0.241	0.182
-401.223	-200.000	-0.017	-0.146
-400.209	268.366	-0.091	-0.158
-399.194	-34.957	0.158	-0.086
-398.179	800.000	0.036	0.144
-397.165	-200.000	0.022	-0.278
-396.150	16.323	0.439	-0.344
-395.136	19.208	0.200	-0.159
-394.121	-96.532	0.053	0.014
-393.106	133.990	-0.201	0.259
-392.092	-13.899	-0.115	-0.074
-391.077	-182.714	-0.265	0.005
-390.063	161.960	0.284	0.395
-389.048	-117.975	-0.058	0.010
-388.033	-129.712	0.136	-0.019
-387.019	-49.124	0.198	-0.094
-386.004	-11.116	-0.116	-0.076
-384.990	-200.000	-0.022	0.178
-383.975	-200.000	-0.032	-0.174
-382.960	345.195	0.075	-0.146
-381.946	153.155	-0.097	-0.132
-380.931	-200.000	0.030	-0.179
-379.917	-95.722	-0.362	-0.096
-378.902	342.765	0.101	0.197
-377.888	-59.399	-0.242	-0.103
-376.873	-200.000	-0.047	-0.213
-375.858	-30.457	0.152	-0.086
-374.844	-122.052	-0.327	-0.053
-373.829	-27.040	-0.290	0.168
-372.815	-35.387	-0.040	-0.021
-371.800	-153.905	0.272	-0.018
-370.785	445.599	-0.034	0.074
-369.771	-111.888	-0.381	-0.076
-368.756	-25.529	-0.173	0.101
-367.742	-74.392	0.285	-0.102
-366.727	318.762	0.074	0.139
-365.712	-15.189	0.057	-0.036
-364.698	-134.221	-0.382	-0.047
-363.683	-200.000	-0.004	-0.171
-362.669	699.835	-0.096	0.251
-361.654	800.000	0.042	0.152
-360.639	39.135	0.129	-0.114
-359.625	588.971	0.048	0.117
-358.610	-200.000	0.039	0.277
-357.596	-200.000	-0.005	0.260
-356.581	98.014	-0.173	-0.197
-355.566	400.234	0.157	-0.325
-354.552	202.898	-0.226	-0.345
-353.537	390.426	-0.061	0.125
-352.523	-200.000	-0.028	-0.162
-351.508	335.102	0.205	-0.395
-350.493	3.859	-0.186	0.134
-349.479	-200.000	-0.061	0.441
-348.464	800.000	0.050	-0.172
-347.450	50.521	0.188	0.176
-346.435	-127.833	-0.323	-0.046
-345.420	-97.293	0.119	-0.031
-344.406	-146.933	0.302	0.026
-343.391	-12.510	-0.233	-0.151
-342.377	800.000	-0.048	-0.136
-341.362	-59.295	-0.157	0.067
-340.348	24.593	0.012	0.010
-339.333	160.963	0.153	0.212
-338.318	4.831	0.239	0.174
-337.304	-139.457	-0.218	-0.023
-336.289	-35.881	0.210	0.113
-335.275	-65.823	0.086	-0.034
-334.260	-27.099	0.226	0.130
-333.245	27.846	-0.083	-0.069
-332.231	-200.000	-0.002	0.042
-331.216	-200.000	0.002	-0.261
-330.202	11.351	0.199	-0.151
-329.187	-200.000	-0.017	-0.095
-328.172	-52.581	-0.039	0.018
-327.158	302.454	0.085	-0.155
-326.143	-99.823	0.235	0.058
-325.129	199.455	-0.096	0.146
-324.114	-102.815	-0.356	-0.084
-323.099	78.286	0.168	-0.178
-322.085	2.530	0.217	-0.155
-321.070	-158.200	0.141	-0.008
-320.056	155.531	-0.151	-0.206
-319.041	-200.000	-0.007	-0.299
-318.026	-40.960	0.254	0.130
-317.012	17.191	-0.245	-0.192
-315.997	-200.000	-0.018	0.105
-314.983	-127.091	0.321	-0.047
-313.968	-59.191	0.294	0.125
-312.953	800.000	-0.037	0.142
-311.939	449.916	0.045	-0.098
-310.924	200.101	0.193	-0.293
-309.910	-200.000	0.024	0.113
-308.895	800.000	-0.119	0.454
-307.880	194.937	-0.020	0.030
-306.866	32.030	-0.252	-0.215
-305.851	5.516	0.192	-0.140
-304.837	148.059	-0.128	0.171
-303.822	-131.009	-0.209	-0.028
-302.807	-7.934	-0.212	0.142
-301.793	-200.000	-0.053	0.291
-300.778	325.466	0.081	0.153
-299.764	-200.000	-0.029	0.200
-298.749	800.000	-0.106	0.321
-297.735	-200.000	0.233	0.000
-296.720	800.000	0.117	-0.337
-295.705	-200.000	0.019	0.165
-294.691	-200.000	0.030	-0.183
-293.676	-19.546	-0.072	-0.044
-292.662	-134.276	0.240	0.029
-291.647	654.437	-0.054	0.136
-290.632	-59.910	-0.371	-0.157
-289.618	50.053	0.183	-0.171
-288.603	47.696	-0.167	-0.154
-287.589	-187.158	-0.151	-0.002
-286.574	-200.000	0.042	0.187
-285.559	383.403	-0.158	-0.322
-284.545	128.711	-0.150	-0.189
-283.530	9.247	-0.095	0.071
-282.516	-200.000	0.025	-0.108
-281.501	256.674	-0.058	0.099
-280.486	-82.092	0.139	-0.045
-279.472	15.449	-0.169	-0.131
-278.457	-200.000	0.011	-0.213
-277.443	2.223	-0.250	0.179
-276.428	46.777	0.090	-0.082
-275.413	-152.788	-0.201	0.014
-274.399	-75.415	-0.203	-0.071
-273.384	40.254	-0.166	-0.148
-272.370	-109.748	0.149	-0.031
-271.355	465.840	0.084	0.185
-270.340	-156.939	0.321	-0.019
-269.326	182.540	0.082	0.119
-268.311	-200.000	0.015	0.426
-267.297	-168.780	0.282	-0.010
-266.282	-200.000	-0.026	-0.412
-265.267	-143.892	-0.390	-0.036
-264.253	-183.812	-0.168	0.003
-263.238	-77.963	0.268	-0.091
-262.224	459.747	-0.104	0.228
-261.209	47.186	0.254	0.233
-260.195	42.189	-0.209	0.188
-259.180	-200.000	-0.003	0.088
-258.165	-99.448	-0.216	-0.054
-257.151	19.857	-0.203	-0.161
-256.136	20.484	-0.045	-0.036
-255.122	800.000	0.074	0.297
-254.107	11.522	-0.088	0.066
-253.092	398.072	-0.123	-0.255
-252.078	-200.000	0.013	-0.092
-251.063	-87.994	-0.174	-0.052
-250.049	-150.390	0.090	-0.007
-249.034	30.392	0.341	-0.288
-248.019	-200.000	-0.005	0.086
-247.005	800.000	-0.032	0.112
-245.990	-200.000	-0.004	0.166
-244.976	-138.986	-0.158	-0.017
-243.961	534.360	0.035	0.082
-242.946	49.894	0.336	0.313
-241.932	62.940	-0.199	-0.197
-240.917	-137.627	0.255	0.028
-239.903	-200.000	-0.019	0.121
-238.888	422.955	0.064	0.136
-237.873	-60.766	0.176	-0.073
-236.859	-101.791	-0.272	-0.065
-235.844	-0.265	0.161	0.113
-234.830	-56.818	0.086	-0.037
-233.815	-40.291	-0.166	0.085
-232.800	800.000	0.070	-0.284
-231.786	193.979	0.146	0.219
-230.771	3.297	0.420	0.301
-229.757	-115.625	-0.198	0.037
-228.742	-85.774	0.121	-0.037
-227.727	-72.526	0.225	0.082
-226.713	-87.786	0.309	0.092
-225.698	800.000	0.055	0.152
-224.684	-57.644	-0.124	0.053
-223.669	-66.606	-0.268	0.105
-222.655	-200.000	-0.026	-0.344
-221.640	83.682	0.166	0.178
-220.625	800.000	0.063	0.245
-219.611	-86.489	0.132	0.040
-218.596	-62.095	0.269	0.111
-217.582	116.695	-0.075	-0.091
-216.567	164.792	0.128	-0.179
-215.552	-148.577	-0.249	0.020
-214.538	-142.331	0.102	-0.010
-213.523	800.000	-0.037	0.137
-212.509	800.000	0.113	-0.344
-211.494	-148.805	-0.048	-0.004
-210.479	-38.341	-0.207	-0.108
-209.465	-2.446	0.430	-0.297
-208.450	800.000	-0.083	-0.275
-207.436	-27.918	0.238	-0.136
-206.421	-72.166	0.281	0.103
-205.406	39.323	-0.339	0.299
-204.392	800.000	-0.066	-0.256
-203.377	71.800	0.081	0.083
-202.363	-200.000	-0.082	0.356
-201.348	-200.000	-0.039	0.243
-200.333	-200.000	0.010	0.182
-199.319	107.521	0.246	0.288
-198.304	-200.000	0.049	0.230
-197.290	-200.000	0.013	0.114
-196.275	-81.507	-0.117	0.038
-195.260	15.427	-0.331	0.256
-194.246	800.000	-0.106	0.380
-193.231	122.206	-0.242	0.298
-192.217	-200.000	0.040	0.293
-191.202	143.699	0.144	0.189
-190.187	17.095	0.321	-0.251
-189.173	-200.000	0.036	0.208
-188.158	12.525	0.162	0.123
-187.144	-42.163	0.135	0.068
-186.129	-29.833	0.359	-0.202
-185.114	84.323	0.293	0.316
-184.100	-159.655	0.048	-0.003
-183.085	96.925	0.080	-0.090
-182.071	-16.683	-0.199	-0.124
-181.056	-107.113	-0.223	0.048
-180.042	72.841	0.217	0.223
-179.027	82.554	-0.059	-0.063
-178.012	-109.833	-0.194	0.040
-176.998	-33.995	0.033	-0.018
-175.983	740.693	0.093	-0.246
-174.969	7.202	-0.276	0.203
-173.954	109.800	-0.163	0.193
-172.939	77.409	-0.163	-0.170
-171.925	800.000	0.080	0.320
-170.910	70.854	-0.050	0.051
-169.896	800.000	0.051	-0.187
-168.881	87.052	0.235	0.256
-167.866	12.766	0.014	0.011
-166.852	23.313	0.137	-0.110
-165.837	-73.869	-0.020	-0.007
-164.823	-200.000	0.005	-0.058
-163.808	383.850	0.079	0.160
-162.793	-67.394	0.172	0.067
-161.779	-200.000	0.007	0.221
-160.764	800.000	0.021	-0.074
-159.750	-73.682	-0.311	0.111
-158.735	-108.962	0.488	0.102
-157.720	800.000	0.053	-0.193
-156.706	607.148	-0.092	-0.227
-155.691	-77.794	-0.370	-0.126
-154.677	-71.674	0.096	-0.035
-153.662	72.184	-0.124	-0.127
-152.647	14.622	0.018	-0.014
-151.633	-66.919	-0.152	0.059
-150.618	6.754	0.142	0.104
-149.604	-200.000	0.031	-0.206
-148.589	413.738	0.090	0.188
-147.574	68.526	0.143	0.144
-146.560	8.530	-0.120	0.089
-145.545	-200.000	0.007	-0.295
-144.531	66.791	0.094	0.094
-143.516	-93.521	-0.146	0.040
-142.502	159.297	-0.078	-0.106
-141.487	-200.000	0.004	-0.154
-140.472	171.900	-0.051	-0.072
-139.458	46.442	0.139	-0.126
-138.443	-29.572	0.094	-0.053
-137.429	-147.837	0.222	-0.018
-136.414	51.187	0.109	0.102
-135.399	-159.140	0.089	0.005
-134.385	800.000	0.013	-0.041
-133.370	-19.626	0.220	0.133
-132.356	800.000	0.053	0.195
-131.341	158.270	0.350	0.477
-130.326	-114.655	0.290	0.055
-129.312	-101.449	-0.092	-0.022
-128.297	-37.896	-0.085	-0.045
-127.283	135.906	-0.135	-0.172
-126.268	-29.689	-0.186	-0.105
-125.253	334.589	-0.099	0.188
-124.239	-109.555	0.390	-0.081
-123.224	-24.230	-0.110	0.064
-122.210	32.803	0.200	0.170
-121.195	-31.606	0.278	0.153
-120.180	-73.844	-0.344	-0.123
-119.166	-200.000	-0.044	-0.190
-118.151	800.000	-0.032	0.096
-117.137	-200.000	0.061	-0.326
-116.122	571.545	0.103	0.247
-115.107	14.329	0.282	0.216
-114.093	81.452	-0.134	0.142
-113.078	-92.860	-0.314	0.086
-112.064	-138.516	0.496	-0.054
-111.049	400.958	-0.100	0.207
-110.034	-200.000	0.023	0.132
-109.020	81.973	-0.132	0.140
-108.005	123.105	-0.163	-0.201
-106.991	-126.947	-0.260	0.038
-105.976	-57.064	0.322	-0.140
-104.962	-200.000	0.010	0.079
-103.947	228.079	0.089	-0.142
-102.932	-95.735	-0.203	0.053
-101.918	296.296	-0.111	0.199
-100.903	-54.540	0.283	-0.126
-99.889	97.713	0.109	0.123
-98.874	-22.919	0.295	0.174
-97.859	663.795	0.077	0.196
-96.845	-76.569	-0.087	-0.030
-95.830	0.982	0.089	-0.062
-94.816	-200.000	-0.005	0.123
-93.801	18.948	-0.095	0.075
-92.786	-36.795	-0.119	0.063
-91.772	-39.886	0.148	0.076
-90.757	-61.046	-0.082	-0.034
-89.743	800.000	-0.011	0.039
-88.728	-99.277	0.114	-0.028
-87.713	345.774	-0.127	0.245
-86.699	-0.246	0.046	-0.032
-85.684	-161.502	-0.412	-0.021
-84.670	-112.676	-0.227	0.044
-83.655	18.168	-0.205	-0.160
-82.640	800.000	0.029	-0.087
-81.626	-117.676	0.149	-0.026
-80.611	19.919	0.050	0.039
-79.597	800.000	-0.066	-0.211
-78.582	-129.191	0.045	-0.006
-77.567	44.112	-0.042	-0.038
-76.553	200.230	0.069	-0.103
-75.538	59.617	0.308	0.298
-74.524	-108.278	0.165	0.035
-73.509	4.610	-0.165	-0.119
-72.494	-106.956	-0.197	-0.043
-71.480	-57.404	0.060	-0.026
-70.465	-117.051	0.198	-0.035
-69.451	128.482	-0.228	0.285
-68.436	-39.204	0.170	-0.087
-67.422	24.174	0.023	-0.019
-66.407	800.000	-0.062	-0.233
-65.392	-106.810	-0.245	-0.053
-64.378	800.000	-0.060	-0.229
-63.363	204.139	0.221	0.336
-62.349	-66.174	0.229	0.090
-61.334	-16.798	-1.194	-0.740
-60.319	-62.299	0.790	0.322
-59.305	800.000	-0.352	-1.044
-58.290	329.519	0.580	1.094
-57.276	384.815	0.713	1.440
-56.261	-200.000	106.245	622.646
-55.246	526.207	1504.002	3470.185
-54.232	176.162	2703.664	3845.951
-53.217	105.275	2292.029	2650.990
-52.203	38.734	1898.594	1659.982
-51.188	32.698	1685.634	1428.174
-50.173	30.046	1641.984	1371.535
-49.159	49.021	1695.796	1559.753
-48.144	49.114	1711.402	1574.747
-47.130	32.164	1668.864	1409.734
-46.115	29.448	1654.683	1377.461
-45.100	29.421	1649.283	1372.710
-44.086	29.379	1646.570	1370.083
-43.071	29.263	1644.338	1367.308
-42.057	29.283	1641.524	1365.066
-41.042	29.323	1639.515	1363.636
-40.027	29.334	1637.734	1362.181
-39.013	29.239	1635.893	1359.897
-37.998	29.254	1634.770	1359.017
-36.984	29.290	1633.282	1357.994
-35.969	29.489	1631.632	1358.029
-34.954	29.451	1629.882	1356.246
-33.940	29.416	1627.781	1354.186
-32.925	29.440	1626.475	1353.219
-31.911	29.473	1624.280	1351.582
-30.896	29.342	1623.156	1349.630
-29.881	29.350	1621.468	1348.234
-28.867	29.416	1620.209	1347.614
-27.852	29.445	1618.107	1346.028
-26.838	29.469	1616.340	1344.675
-25.823	29.471	1615.505	1343.942
-24.809	29.458	1614.307	1342.803
-23.794	29.458	1612.904	1341.577
-22.779	29.470	1611.238	1340.231
-21.765	29.448	1609.744	1338.772
-20.750	29.394	1608.235	1337.076
-19.736	29.401	1606.885	1335.950
-18.721	29.507	1604.909	1335.020
-17.706	29.521	1603.602	1333.979
-16.692	29.402	1602.213	1331.912
-15.677	29.496	1600.558	1331.160
-14.663	29.401	1599.734	1329.742
-13.648	29.550	1597.837	1329.181
-12.633	29.600	1596.090	1328.038
-11.619	29.519	1595.173	1326.639
-10.604	29.498	1593.257	1324.844
-9.590	29.455	1592.677	1323.998
-8.575	29.480	1591.469	1323.122
-7.560	29.505	1589.721	1321.792
-6.546	29.523	1588.799	1321.106
-5.531	29.479	1587.799	1319.903
-4.517	29.474	1586.907	1319.075
-3.502	29.504	1585.147	1317.774
-2.487	29.541	1583.628	1316.725
-1.473	29.261	1572.128	1305.128
-0.458	26.275	1552.501	1267.866
0.556	20.418	1553.837	1236.818
1.571	18.136	1578.482	1239.792
2.586	17.938	1591.274	1248.286
3.600	16.264	1539.059	1195.373
4.615	8.552	1429.851	1059.535
5.629	1.225	1366.222	965.781
6.644	-0.218	1358.296	950.953
7.659	-0.226	1356.743	949.733
8.673	-0.344	1356.387	948.654
9.688	-0.422	1354.578	946.813
10.702	-0.594	1350.850	943.041
11.717	2.361	1357.403	966.214
12.731	11.475	1374.767	1036.579
13.746	19.011	1386.620	1093.506
14.761	20.794	1389.256	1106.834
15.775	21.103	1388.954	1108.458
16.790	21.214	1388.636	1108.814
17.804	21.159	1388.552	1108.297
18.819	21.379	1388.229	1109.336
19.834	21.524	1387.168	1109.310
20.848	21.407	1386.868	1108.230
21.863	21.521	1385.732	1107.951
22.877	21.657	1384.527	1107.749
23.892	21.493	1383.950	1106.151
24.907	21.469	1383.062	1105.190
25.921	21.498	1382.395	1104.740
26.936	21.530	1381.715	1104.304
27.950	21.485	1380.222	1102.729
28.965	21.546	1378.887	1101.951
29.980	21.559	1377.332	1100.693
30.994	21.581	1376.233	1099.852
32.009	21.575	1375.259	1098.942
33.023	21.573	1374.065	1097.875
34.038	21.585	1373.051	1097.046
35.053	21.516	1372.349	1095.954
36.067	21.543	1370.998	1094.948
37.082	21.655	1369.611	1094.440
38.096	21.520	1369.158	1093.141
39.111	21.571	1368.394	1092.751
40.126	21.558	1367.693	1092.011
41.140	21.504	1367.462	1091.396
42.155	21.485	1367.121	1090.911
43.169	21.642	1367.168	1091.826
44.184	21.525	1366.817	1090.721
45.199	21.570	1365.927	1090.196
46.213	21.536	1365.714	1089.716
47.228	21.579	1364.549	1088.961
48.242	21.570	1363.516	1087.980
49.257	21.591	1361.622	1086.509
50.271	21.583	1360.699	1085.620
51.286	21.531	1359.228	1084.031
52.301	21.649	1357.756	1083.490
53.315	21.646	1356.769	1082.592
54.330	21.604	1356.337	1081.890
55.344	21.534	1355.367	1080.586
56.359	21.486	1354.342	1079.381
57.374	21.568	1353.020	1078.734
58.388	21.525	1352.997	1078.358
59.403	21.606	1351.995	1077.962
60.417	21.515	1351.867	1077.200
61.432	21.567	1350.984	1076.725
62.447	21.532	1349.959	1075.595
63.461	21.552	1348.800	1074.701
64.476	21.583	1347.813	1074.007
65.490	21.533	1346.475	1072.540
66.505	21.524	1344.955	1071.181
67.520	21.726	1343.137	1070.875
68.534	21.599	1343.140	1070.004
69.549	21.611	1342.164	1069.209
70.563	21.642	1340.983	1068.359
71.578	21.684	1339.777	1067.560
72.593	21.635	1339.019	1066.562
73.607	21.658	1338.591	1066.267
74.622	21.596	1337.590	1064.998
75.636	21.667	1336.703	1064.632
76.651	21.619	1336.002	1063.687
77.666	21.638	1335.391	1063.220
78.680	21.653	1335.188	1063.058
79.695	21.653	1334.489	1062.406
80.709	21.581	1333.729	1061.269
81.724	21.698	1332.491	1060.897
82.739	21.594	1332.089	1059.857
83.753	21.579	1330.869	1058.704
84.768	21.571	1329.691	1057.622
85.782	21.670	1328.101	1056.862
86.797	21.621	1327.359	1055.882
87.812	21.622	1325.756	1054.519
88.826	21.651	1325.046	1054.036
89.841	21.670	1324.268	1053.437
90.855	21.646	1322.629	1051.895
91.870	21.618	1322.191	1051.286
92.884	21.679	1321.471	1050.991
93.899	21.684	1320.530	1050.179
94.914	21.609	1320.082	1049.276
95.928	21.695	1319.034	1048.865
96.943	21.704	1318.182	1048.150
97.957	21.621	1317.798	1047.258
98.972	21.724	1316.413	1046.681
99.987	21.691	1315.424	1045.604
101.001	21.564	1315.115	1044.506
102.016	21.658	1313.876	1043.991
103.030	21.705	1312.929	1043.425
104.045	21.582	1312.520	1042.278
105.060	21.726	1310.904	1041.757
106.074	21.646	1310.105	1040.556
107.089	21.712	1309.291	1040.204
108.103	21.751	1307.743	1039.117
109.118	21.703	1307.276	1038.369
110.133	21.722	1305.831	1037.242
111.147	21.679	1305.132	1036.342
112.162	21.661	1303.675	1034.983
113.176	21.722	1302.577	1034.385
114.191	21.705	1301.810	1033.584
115.206	21.696	1300.815	1032.646
116.220	21.865	1299.428	1032.451
117.235	21.706	1298.538	1030.718
118.249	21.680	1297.622	1029.743
119.264	21.576	1297.609	1029.029
120.279	21.659	1296.364	1028.438
121.293	21.848	1294.943	1028.330
122.308	21.770	1294.441	1027.382
123.322	21.730	1293.610	1026.398
124.337	21.761	1292.629	1025.714
125.352	21.834	1291.433	1025.097
126.366	21.861	1290.622	1024.521
127.381	21.732	1289.625	1022.884
128.395	21.744	1288.744	1022.170
129.410	21.656	1288.032	1021.001
130.424	21.748	1287.500	1021.023
131.439	21.849	1285.923	1020.268
132.454	21.823	1285.082	1019.360
133.468	21.732	1284.646	1018.394
134.483	21.724	1284.442	1018.097
135.497	21.701	1283.796	1017.363
136.512	21.661	1282.375	1015.915
137.527	21.760	1281.062	1015.358
138.541	21.728	1279.882	1014.150
139.556	21.745	1278.416	1012.994
140.570	21.699	1277.775	1012.133
141.585	21.790	1276.224	1011.339
142.600	21.792	1274.818	1010.144
143.614	21.783	1274.186	1009.501
144.629	21.636	1273.353	1007.911
145.643	21.614	1272.224	1006.802
146.658	21.592	1271.497	1006.006
147.673	21.665	1270.084	1005.217
148.687	21.718	1269.011	1004.587
149.702	21.728	1268.017	1003.770
150.716	21.611	1267.345	1002.474
151.731	21.739	1265.739	1001.850
152.746	21.755	1264.803	1001.112
153.760	21.768	1263.875	1000.361
154.775	21.795	1262.633	999.443
155.789	21.828	1261.729	998.829
156.804	21.863	1260.616	998.057
157.819	21.728	1259.954	996.678
158.833	21.862	1259.102	996.678
159.848	21.813	1258.491	995.826
160.862	21.767	1257.659	994.818
161.877	21.769	1257.184	994.369
162.892	21.861	1255.952	993.826
163.906	21.931	1255.246	993.579
164.921	21.876	1254.246	992.386
165.935	21.899	1253.771	992.051
166.950	21.945	1252.829	991.480
167.964	21.837	1252.575	990.581
168.979	21.853	1252.012	990.136
169.994	21.959	1251.077	989.910
171.008	21.842	1250.836	988.971
172.023	21.913	1249.860	988.510
173.037	21.926	1248.670	987.554
174.052	21.986	1248.014	987.287
175.067	21.870	1247.608	986.226
176.081	21.900	1246.804	985.671
177.096	21.902	1245.574	984.626
178.110	21.931	1244.896	984.162
179.125	22.002	1243.529	983.395
180.140	21.979	1242.749	982.561
181.154	22.020	1241.869	982.011
182.169	21.845	1241.016	980.269
183.183	21.950	1239.720	979.742
184.198	22.003	1238.628	979.089
185.213	21.961	1237.830	978.136
186.227	21.969	1236.518	977.058
187.242	22.001	1236.071	976.800
188.256	22.016	1235.039	975.982
189.271	22.040	1234.350	975.482
190.286	21.982	1233.404	974.325
191.300	22.090	1232.907	974.445
192.315	21.908	1232.658	973.152
193.329	21.991	1232.252	973.210
194.344	22.087	1231.297	972.898
195.359	21.983	1231.309	972.249
196.373	21.916	1231.084	971.611
197.388	21.935	1230.414	971.103
198.402	21.845	1230.086	970.261
199.417	21.967	1229.688	970.535
200.432	21.956	1228.545	969.488
201.446	21.999	1227.985	969.196
202.461	22.019	1227.429	968.780
203.475	21.953	1226.730	967.777
204.490	21.971	1225.424	966.760
205.504	22.045	1224.415	966.286
206.519	21.983	1224.093	965.610
207.534	22.061	1222.747	964.887
208.548	22.077	1221.618	964.003
209.563	22.036	1220.895	963.118
210.577	22.048	1219.694	962.153
211.592	22.139	1219.130	962.123
212.607	22.075	1218.475	961.169
213.621	22.162	1217.744	960.982
214.636	22.072	1216.886	959.728
215.650	22.142	1215.893	959.245
216.665	22.023	1215.240	957.996
217.680	22.101	1214.072	957.416
218.694	22.185	1213.385	957.244
219.709	22.157	1212.863	956.597
220.723	22.201	1212.160	956.196
221.738	21.977	1211.325	954.234
222.753	22.114	1210.712	954.411
223.767	22.126	1210.296	954.062
224.782	22.062	1209.881	953.307
225.796	22.264	1208.779	953.450
226.811	22.182	1208.586	952.767
227.826	22.278	1208.111	952.830
228.840	22.315	1206.984	952.058
229.855	22.188	1206.502	950.904
230.869	22.187	1206.132	950.521
231.884	22.262	1205.170	950.088
232.899	22.199	1204.641	949.247
233.913	22.121	1204.000	948.235
234.928	22.280	1203.453	948.578
235.942	22.306	1202.764	948.092
236.957	22.222	1202.004	946.957
237.972	22.219	1201.312	946.309
238.986	22.257	1200.572	945.847
240.001	22.294	1199.941	945.466
241.015	22.345	1199.204	945.075
242.030	22.363	1198.567	944.585
243.045	22.417	1197.882	944.251
244.059	22.368	1196.964	943.182
245.074	22.380	1196.091	942.476
246.088	22.440	1195.039	941.884
247.103	22.410	1194.397	941.138
248.117	22.451	1193.626	940.661
249.132	22.329	1192.944	939.391
250.147	22.338	1192.803	939.245
251.161	22.368	1191.344	938.170
252.176	22.407	1191.149	938.144
253.190	22.436	1190.328	937.568
254.205	22.491	1190.166	937.650
255.220	22.375	1189.522	936.444
256.234	22.412	1188.909	936.077
257.249	22.564	1188.116	936.173
258.263	22.406	1187.768	934.978
259.278	22.360	1187.287	934.276
260.293	22.544	1186.472	934.523
261.307	22.605	1185.979	934.376
262.322	22.540	1185.469	933.552
263.336	22.570	1184.586	932.929
264.351	22.492	1184.094	932.046
265.366	22.452	1183.962	931.649
266.380	22.486	1183.012	930.997
267.395	22.432	1182.255	930.036
268.409	22.417	1181.609	929.363
269.424	22.484	1181.150	929.274
270.439	22.493	1180.829	928.986
271.453	22.524	1180.351	928.692
272.468	22.485	1178.740	927.136
273.482	22.566	1178.548	927.332
274.497	22.427	1178.439	926.431
275.512	22.541	1177.463	926.182
276.526	22.669	1176.302	925.859
277.541	22.655	1175.596	925.150
278.555	22.725	1174.940	924.917
279.570	22.689	1174.525	924.320
280.585	22.648	1173.897	923.530
281.599	22.684	1172.533	922.563
282.614	22.585	1171.947	921.504
283.628	22.662	1171.121	921.173
284.643	22.621	1170.286	920.219
285.657	22.638	1169.683	919.753
286.672	22.700	1168.451	919.027
287.687	22.702	1167.876	918.506
288.701	22.817	1166.743	918.131
289.716	22.924	1166.011	918.028
290.730	22.739	1165.807	916.827
291.745	22.673	1165.503	916.162
292.760	22.832	1164.433	916.065
293.774	22.939	1163.691	915.958
294.789	22.771	1163.760	915.058
295.803	22.848	1162.912	914.711
296.818	22.794	1162.341	913.897
297.833	22.789	1161.513	913.139
298.847	22.845	1160.762	912.761
299.862	22.810	1160.313	912.148
300.876	22.841	1159.305	911.435
301.891	22.803	1159.133	911.018
302.906	22.808	1158.630	910.572
303.920	22.929	1157.385	910.137
304.935	22.934	1157.061	909.825
305.949	22.894	1156.471	909.074
306.964	22.977	1155.695	908.812
307.979	22.905	1155.063	907.865
308.993	23.151	1154.007	908.218
310.008	22.972	1153.482	906.805
311.022	22.957	1152.841	906.144
312.037	23.075	1152.050	906.045
313.052	22.990	1151.320	904.959
314.066	22.971	1150.306	903.981
315.081	22.953	1149.788	903.405
316.095	22.988	1148.929	902.828
317.110	23.017	1148.590	902.629
318.125	22.976	1148.000	901.875
319.139	22.910	1147.873	901.361
320.154	23.016	1146.850	901.016
321.168	23.045	1146.105	900.502
322.183	23.009	1145.499	899.762
323.197	22.974	1144.937	899.063
324.212	22.995	1144.639	898.856
325.227	23.024	1143.932	898.368
326.241	23.068	1143.264	897.989
327.256	23.104	1142.537	897.518
328.270	23.056	1141.800	896.616
329.285	23.120	1140.795	896.075
330.300	23.106	1140.094	895.373
331.314	23.162	1139.079	894.779
332.329	23.187	1138.210	894.143
333.343	23.179	1137.722	893.638
334.358	23.143	1137.295	893.043
335.373	23.177	1136.416	892.448
336.387	23.272	1135.710	892.291
337.402	23.216	1135.197	891.528
338.416	23.345	1134.214	891.328
339.431	23.281	1133.803	890.601
340.446	23.217	1133.399	889.886
341.460	23.335	1132.566	889.743
342.475	23.199	1131.751	888.343
343.489	23.273	1130.761	887.858
344.504	23.301	1129.930	887.268
345.519	23.384	1129.029	886.898
346.533	23.469	1128.028	886.455
347.548	23.486	1127.395	885.967
348.562	23.396	1126.734	884.920
349.577	23.257	1126.440	883.913
350.592	23.295	1125.653	883.408
351.606	23.276	1124.829	882.591
352.621	23.413	1124.228	882.725
353.635	23.326	1123.825	881.898
354.650	23.368	1123.122	881.474
355.665	23.447	1122.253	881.108
356.679	23.396	1121.680	880.326
357.694	23.450	1121.073	880.041
358.708	23.442	1120.454	879.438
359.723	23.409	1120.249	879.032
360.738	23.371	1119.272	877.998
361.752	23.340	1118.925	877.499
362.767	23.423	1118.788	877.723
363.781	23.485	1117.677	877.082
364.796	23.584	1116.944	876.918
365.810	23.508	1115.991	875.718
366.825	23.549	1115.720	875.629
367.840	23.590	1115.389	875.496
368.854	23.577	1114.770	874.865
369.869	23.527	1113.715	873.715
370.883	23.598	1113.087	873.495
371.898	23.611	1112.300	872.861
372.913	23.611	1111.661	872.282
373.927	23.527	1111.559	871.715
374.942	23.725	1110.897	872.093
375.956	23.683	1110.617	871.587
376.971	23.793	1109.655	871.294
377.986	23.752	1109.309	870.744
379.000	23.658	1108.926	869.905
380.015	23.727	1108.466	869.806
381.029	23.813	1107.499	869.394
382.044	23.695	1107.120	868.438
383.059	23.699	1106.408	867.822
384.073	23.819	1105.139	867.337
385.088	23.838	1104.588	866.923
386.102	23.799	1103.744	865.991
387.117	23.871	1102.832	865.551
388.132	23.770	1102.236	864.516
389.146	23.725	1101.552	863.681
390.161	23.832	1100.887	863.606
391.175	23.775	1100.238	862.743
392.190	23.796	1099.365	862.083
393.205	23.857	1098.672	861.759
394.219	23.828	1098.087	861.084
395.234	24.007	1096.878	860.927
396.248	23.903	1096.198	859.815
397.263	23.890	1095.319	858.986
398.278	23.926	1095.287	859.056
399.292	23.970	1094.205	858.345
400.307	24.053	1093.671	858.249
401.321	23.966	1093.152	857.350
402.336	23.917	1092.570	856.580
403.350	24.030	1091.707	856.374
404.365	24.006	1090.985	855.613
405.380	24.011	1090.352	855.064
406.394	23.979	1089.809	854.409
407.409	24.018	1088.949	853.848
408.423	24.076	1088.352	853.582
409.438	24.032	1087.760	852.830
410.453	24.120	1086.877	852.486
411.467	24.072	1086.219	851.664
412.482	24.164	1085.269	851.282
413.496	24.054	1085.132	850.578
414.511	24.242	1084.101	850.587
415.526	24.153	1083.973	849.988
416.540	24.015	1083.844	849.155
417.555	24.120	1082.918	848.855
418.569	24.191	1082.143	848.511
419.584	24.192	1082.089	848.396
420.599	24.254	1081.506	848.158
421.613	149.127	1401.047	1799.462
422.628	137.754	1447.561	1799.548
