DTS Sentinel unit serial number:	SN413079Multiplexer serial number:	ORYXHardware model number:	OX4-SRSoftware version number:	ORYX F/W v4.00 Oryx Data Collector v3.7.2.0data status	okinstallation	princeton_trtdifferential loss correction	single-endedforward channel	channel 2reverse channel	N/Adate	2019/09/10time	23:49:11forward acquisition time	60.00reverse acquisition time	0.00gamma	496.2192k internal	0.2331k external	0.2331temperature offset calibration	0.9947default loss term (dB/km)	0.3790temperature slope calibration	1.0000multiplexer offset coefficient	1.0000multiplexer slope coefficient	1.0000fibre end	0.00T internal ref (°C)	29.52T ext. ref 1 (°C)	-0.30T ext. ref 2 (°C)	22.99length (m)	temperature (°C)	Stokes	anti-Stokes-747.200	-200.000	-0.006	0.124
-746.185	-54.121	-0.178	-0.081
-745.171	130.759	0.065	-0.085
-744.156	-71.428	-0.042	-0.016
-743.142	-151.168	0.196	0.015
-742.127	29.711	0.087	-0.075
-741.112	-63.505	0.257	-0.106
-740.098	-200.000	-0.007	0.131
-739.083	-166.718	-0.127	0.005
-738.069	273.727	0.057	0.101
-737.054	646.391	0.019	0.049
-736.039	715.167	0.084	-0.224
-735.025	527.636	-0.087	-0.207
-734.010	-49.538	-0.216	-0.104
-732.996	-39.982	0.283	-0.148
-731.981	-200.000	-0.021	-0.133
-730.966	-137.867	-0.271	0.031
-729.952	-95.680	-0.273	-0.074
-728.937	292.465	-0.075	0.137
-727.923	49.788	-0.150	-0.143
-726.908	-40.486	0.029	-0.015
-725.894	-6.356	0.096	-0.066
-724.879	-200.000	-0.027	-0.345
-723.864	-200.000	-0.011	-0.216
-722.850	-105.966	-0.368	0.083
-721.835	-200.000	-0.010	-0.174
-720.821	-118.882	0.076	0.013
-719.806	-144.169	-0.399	0.037
-718.791	-137.681	-0.267	0.030
-717.777	-46.321	-0.313	0.154
-716.762	-200.000	-0.016	-0.254
-715.748	-41.191	-0.252	-0.131
-714.733	-157.221	-0.363	-0.022
-713.718	114.303	0.271	-0.332
-712.704	800.000	0.042	-0.124
-711.689	0.220	0.121	0.087
-710.675	237.438	-0.155	-0.259
-709.660	-137.615	-0.296	0.033
-708.645	65.133	-0.135	0.137
-707.631	121.281	0.118	-0.147
-706.616	-95.506	0.239	-0.064
-705.602	800.000	0.123	-0.344
-704.587	800.000	-0.094	0.325
-703.572	87.517	-0.252	0.280
-702.558	-200.000	-0.069	-0.340
-701.543	30.520	0.049	-0.042
-700.529	-200.000	-0.013	-0.444
-699.514	147.665	0.147	0.199
-698.499	197.103	0.033	0.050
-697.485	115.724	-0.040	0.049
-696.470	464.430	-0.095	-0.214
-695.456	-145.736	0.218	0.020
-694.441	163.383	-0.096	0.136
-693.426	-111.930	-0.067	-0.014
-692.412	-49.339	0.224	0.107
-691.397	800.000	-0.045	-0.167
-690.383	231.612	0.118	-0.195
-689.368	331.002	0.234	-0.453
-688.354	800.000	-0.054	0.238
-687.339	327.406	0.071	-0.137
-686.324	-12.998	-0.035	0.023
-685.310	-44.717	-0.264	-0.132
-684.295	-165.468	-0.254	-0.011
-683.281	-31.860	0.092	-0.052
-682.266	233.949	-0.038	-0.063
-681.251	-13.452	-0.186	-0.121
-680.237	-76.546	0.209	0.074
-679.222	153.825	0.093	0.128
-678.208	2.144	-0.343	0.249
-677.193	-200.000	0.012	-0.089
-676.178	-60.938	-0.320	-0.136
-675.164	-13.300	0.108	-0.070
-674.149	103.575	-0.160	-0.188
-673.135	342.354	-0.127	0.249
-672.120	-42.499	0.191	-0.097
-671.105	195.599	-0.058	-0.088
-670.091	-131.454	-0.093	0.012
-669.076	42.346	-0.243	-0.222
-668.062	18.428	-0.299	-0.240
-667.047	800.000	-0.004	-0.013
-666.032	109.394	-0.130	0.156
-665.018	602.536	-0.191	0.477
-664.003	127.786	-0.157	0.200
-662.989	-194.052	0.194	0.002
-661.974	-27.096	-0.396	0.231
-660.959	-91.544	-0.016	0.005
-659.945	-200.000	-0.033	0.221
-658.930	-140.092	-0.173	0.018
-657.916	-146.412	0.197	-0.017
-656.901	-200.000	-0.030	-0.256
-655.886	16.766	0.092	-0.073
-654.872	-73.681	0.185	0.067
-653.857	25.055	-0.369	-0.307
-652.843	-142.299	-0.113	-0.011
-651.828	-200.000	-0.012	0.110
-650.814	252.997	-0.058	0.100
-649.799	800.000	-0.050	0.171
-648.784	800.000	0.044	-0.125
-647.770	-200.000	-0.018	0.116
-646.755	37.734	-0.156	0.139
-645.741	333.475	-0.074	-0.143
-644.726	-11.144	-0.027	-0.018
-643.711	800.000	-0.026	0.114
-642.697	51.853	-0.162	0.155
-641.682	141.679	0.090	0.120
-640.668	-200.000	-0.109	0.000
-639.653	-141.093	0.076	-0.008
-638.638	800.000	-0.036	0.135
-637.624	-119.503	-0.205	0.036
-636.609	-25.189	-0.339	0.202
-635.595	3.402	-0.412	-0.301
-634.580	-87.315	0.278	0.085
-633.565	209.227	-0.039	-0.061
-632.551	-200.000	0.004	0.134
-631.536	-44.690	0.167	-0.083
-630.522	9.802	0.245	0.186
-629.507	583.692	-0.076	-0.186
-628.492	-200.000	-0.057	-0.291
-627.478	173.855	-0.385	-0.557
-626.463	231.210	0.183	0.301
-625.449	-89.499	0.074	-0.022
-624.434	-121.833	0.093	-0.015
-623.419	447.587	-0.093	0.204
-622.405	-41.645	-0.018	-0.009
-621.390	-200.000	0.036	0.199
-620.376	-109.461	-0.175	0.037
-619.361	-143.167	-0.256	0.025
-618.346	298.532	0.248	-0.457
-617.332	-200.000	-0.003	0.061
-616.317	-85.911	0.254	-0.079
-615.303	114.064	0.085	-0.103
-614.288	-177.821	0.069	-0.002
-613.273	381.041	-0.174	-0.357
-612.259	800.000	0.078	0.261
-611.244	-141.498	-0.400	0.040
-610.230	-62.898	0.164	0.068
-609.215	800.000	-0.025	-0.094
-608.201	727.593	0.125	-0.333
-607.186	-200.000	0.070	-0.383
-606.171	-200.000	0.011	-0.148
-605.157	144.957	0.119	-0.159
-604.142	800.000	-0.143	-0.567
-603.128	357.128	-0.073	0.145
-602.113	-86.913	-0.063	0.019
-601.098	-200.000	-0.049	-0.279
-600.084	-200.000	-0.002	0.207
-599.069	-200.000	-0.025	-0.151
-598.055	220.751	-0.169	-0.271
-597.040	-133.214	-0.249	-0.031
-596.025	124.992	0.127	-0.160
-595.011	77.724	0.170	-0.181
-593.996	-24.566	-0.132	0.078
-592.982	-6.639	0.211	-0.144
-591.967	433.078	-0.103	-0.225
-590.952	143.955	0.060	-0.080
-589.938	-141.054	0.149	-0.015
-588.923	-200.000	0.008	0.049
-587.909	203.666	0.160	-0.248
-586.894	-2.330	0.327	0.229
-585.879	-200.000	0.017	0.423
-584.865	-19.082	0.231	-0.144
-583.850	74.319	-0.336	-0.353
-582.836	-76.200	-0.323	-0.114
-581.821	800.000	0.043	-0.137
-580.806	184.516	0.043	-0.064
-579.792	-9.914	-0.291	-0.194
-578.777	36.274	0.024	0.021
-577.763	78.788	-0.121	0.130
-576.748	724.611	-0.090	0.240
-575.733	69.394	-0.031	0.032
-574.719	90.447	-0.167	-0.186
-573.704	-118.868	-0.219	0.039
-572.690	300.961	0.067	0.124
-571.675	-91.741	-0.310	-0.088
-570.661	368.495	0.127	0.256
-569.646	800.000	0.051	0.185
-568.631	80.257	0.121	-0.130
-567.617	-200.000	0.042	-0.226
-566.602	-119.972	-0.210	-0.036
-565.588	34.514	0.075	0.066
-564.573	-46.359	0.035	0.017
-563.558	-158.982	-0.162	0.009
-562.544	-200.000	0.022	0.125
-561.529	58.086	-0.134	0.131
-560.515	-200.000	-0.002	0.082
-559.500	-0.263	0.127	-0.090
-558.485	-200.000	0.000	-0.458
-557.471	-47.981	-0.272	0.131
-556.456	44.973	-0.152	0.140
-555.442	-161.731	0.356	-0.018
-554.427	-72.223	0.269	0.099
-553.412	-200.000	0.002	0.062
-552.398	-126.199	-0.111	0.017
-551.383	380.798	-0.026	-0.053
-550.369	-97.210	0.238	-0.062
-549.354	16.304	-0.197	-0.155
-548.339	-161.377	0.087	-0.004
-547.325	-200.000	0.075	-0.333
-546.310	-200.000	0.006	-0.185
-545.296	-200.000	0.022	-0.160
-544.281	-200.000	-0.027	0.168
-543.266	61.703	-0.102	0.101
-542.252	250.065	-0.117	-0.198
-541.237	-200.000	-0.022	-0.405
-540.223	-105.429	0.090	0.020
-539.208	167.901	-0.030	0.043
-538.193	206.133	0.154	0.239
-537.179	800.000	-0.056	0.241
-536.164	148.889	-0.157	0.212
-535.150	-11.781	0.057	0.037
-534.135	117.009	0.102	-0.125
-533.121	-105.083	-0.410	-0.094
-532.106	-35.770	-0.393	-0.212
-531.091	-200.000	0.038	0.402
-530.077	72.676	0.072	0.075
-529.062	2.655	-0.298	-0.216
-528.048	255.812	0.195	-0.334
-527.033	-200.000	0.049	0.301
-526.018	-200.000	-0.043	0.403
-525.004	538.465	-0.112	0.266
-523.989	465.169	0.087	0.194
-522.975	-150.841	0.106	-0.008
-521.960	-120.542	0.141	0.024
-520.945	-27.444	-0.245	-0.142
-519.931	800.000	-0.037	-0.157
-518.916	184.470	-0.129	-0.191
-517.902	-200.000	-0.002	-0.036
-516.887	-200.000	-0.012	0.160
-515.872	-144.417	-0.092	-0.008
-514.858	-167.232	0.234	0.009
-513.843	146.094	-0.149	0.199
-512.829	-142.333	0.128	-0.013
-511.814	52.930	0.142	0.136
-510.799	-146.021	-0.255	0.023
-509.785	52.998	0.115	-0.110
-508.770	-12.090	0.321	-0.210
-507.756	-138.549	0.317	0.035
-506.741	800.000	0.122	-0.463
-505.726	-81.868	-0.094	0.031
-504.712	-163.285	0.324	-0.015
-503.697	800.000	-0.103	0.410
-502.683	-97.582	-0.084	-0.022
-501.668	-23.862	-0.131	-0.078
-500.653	-65.856	-0.158	0.063
-499.639	-21.656	0.263	-0.160
-498.624	-107.043	0.253	0.056
-497.610	-126.449	-0.289	0.043
-496.595	-111.813	-0.349	-0.070
-495.581	-200.000	0.061	-0.521
-494.566	50.052	-0.290	0.273
-493.551	-200.000	0.026	-0.345
-492.537	800.000	-0.068	-0.212
-491.522	-200.000	0.006	0.055
-490.508	-200.000	0.008	0.194
-489.493	26.749	-0.286	-0.238
-488.478	28.428	-0.090	-0.076
-487.464	-12.940	0.314	0.204
-486.449	800.000	-0.025	-0.079
-485.435	800.000	0.045	-0.169
-484.420	-200.000	-0.010	0.108
-483.405	-200.000	0.010	0.079
-482.391	26.441	-0.088	-0.074
-481.376	605.656	-0.021	0.053
-480.362	-100.948	-0.232	0.057
-479.347	-38.647	0.179	0.094
-478.332	-200.000	0.016	-0.116
-477.318	770.813	0.125	0.340
-476.303	358.158	-0.062	0.123
-475.289	80.387	0.276	-0.296
-474.274	106.213	-0.299	-0.353
-473.259	-95.852	-0.304	-0.081
-472.245	321.376	-0.194	-0.367
-471.230	-45.705	-0.302	-0.149
-470.216	-142.219	-0.155	0.015
-469.201	-200.000	-0.015	0.179
-468.186	35.050	-0.152	0.132
-467.172	19.697	-0.228	0.183
-466.157	435.268	0.183	0.396
-465.143	-200.000	-0.037	0.298
-464.128	-200.000	-0.014	-0.243
-463.113	290.574	0.106	-0.193
-462.099	-101.783	-0.133	-0.032
-461.084	156.932	0.031	-0.043
-460.070	-200.000	-0.014	-0.088
-459.055	257.342	0.155	-0.266
-458.040	-200.000	-0.029	0.134
-457.026	800.000	0.062	0.196
-456.011	-119.065	-0.267	0.047
-454.997	-200.000	0.009	-0.138
-453.982	-33.643	0.243	-0.133
-452.968	114.223	0.076	0.092
-451.953	-200.000	-0.006	-0.085
-450.938	-178.986	-0.441	0.010
-449.924	-144.119	-0.251	0.023
-448.909	26.465	0.313	-0.261
-447.895	175.682	-0.079	-0.115
-446.880	800.000	0.106	-0.296
-445.865	106.629	-0.250	-0.296
-444.851	-200.000	0.012	0.215
-443.836	800.000	-0.108	-0.385
-442.822	155.186	-0.016	-0.022
-441.807	-135.513	-0.228	-0.027
-440.792	369.831	0.132	-0.265
-439.778	48.499	-0.183	0.170
-438.763	94.362	0.153	0.173
-437.749	513.505	-0.024	-0.055
-436.734	-200.000	-0.003	-0.336
-435.719	-109.014	0.244	-0.052
-434.705	-65.650	0.244	0.097
-433.690	-97.970	0.175	-0.045
-432.676	-200.000	0.054	-0.251
-431.661	0.269	0.097	0.069
-430.646	-93.836	0.157	-0.043
-429.632	-130.525	0.187	0.025
-428.617	-92.556	-0.162	0.045
-427.603	180.568	-0.054	0.079
-426.588	-140.618	-0.239	-0.025
-425.573	-126.219	-0.526	-0.078
-424.559	10.449	0.166	-0.126
-423.544	-158.093	0.317	0.019
-422.530	633.405	-0.076	-0.190
-421.515	-25.468	-0.160	0.094
-420.500	57.851	-0.084	0.082
-419.486	-200.000	-0.016	0.077
-418.471	-111.486	0.230	-0.047
-417.457	8.616	0.191	0.143
-416.442	800.000	0.050	0.139
-415.428	-138.724	-0.157	-0.017
-414.413	-66.038	0.255	-0.101
-413.398	-85.423	0.267	-0.083
-412.384	800.000	-0.020	0.055
-411.369	52.524	-0.100	-0.095
-410.355	-64.211	0.041	-0.017
-409.340	161.172	-0.196	-0.272
-408.325	75.283	-0.181	0.190
-407.311	512.431	0.147	0.341
-406.296	-99.908	-0.110	0.027
-405.282	-200.000	0.043	-0.404
-404.267	800.000	-0.086	-0.236
-403.252	4.139	0.135	-0.098
-402.238	-200.000	-0.044	-0.210
-401.223	-91.507	0.226	0.064
-400.209	306.036	-0.128	-0.236
-399.194	-200.000	0.026	0.129
-398.179	-162.053	-0.131	-0.007
-397.165	92.028	-0.206	0.230
-396.150	-200.000	0.034	0.282
-395.136	74.580	0.240	0.250
-394.121	324.096	-0.078	0.148
-393.106	800.000	-0.065	-0.211
-392.092	-131.969	0.193	0.025
-391.077	800.000	0.063	0.225
-390.063	205.358	0.047	-0.072
-389.048	164.105	0.187	0.261
-388.033	35.881	-0.053	0.047
-387.019	260.583	-0.086	-0.148
-386.004	-200.000	-0.069	-0.323
-384.990	-184.959	0.292	0.005
-383.975	-103.584	-0.069	0.016
-382.960	-200.000	0.003	0.296
-381.946	-41.901	-0.250	-0.127
-380.931	421.583	0.051	0.109
-379.917	-117.436	-0.109	-0.020
-378.902	800.000	0.028	0.080
-377.888	133.516	0.132	0.169
-376.873	436.993	-0.142	-0.307
-375.858	22.165	-0.213	-0.173
-374.844	-45.986	0.260	0.127
-373.829	-200.000	0.041	-0.222
-372.815	203.544	0.150	-0.230
-371.800	800.000	-0.101	-0.382
-370.785	50.004	0.163	0.153
-369.771	333.359	-0.025	0.048
-368.756	240.898	-0.127	-0.211
-367.742	800.000	0.036	0.113
-366.727	-23.826	0.253	-0.150
-365.712	209.598	0.112	0.174
-364.698	-200.000	-0.018	-0.181
-363.683	371.599	0.034	-0.068
-362.669	800.000	0.118	-0.498
-361.654	102.390	0.043	-0.050
-360.639	-125.050	0.009	-0.001
-359.625	-200.000	0.015	-0.162
-358.610	-52.561	-0.170	0.078
-357.596	-57.379	0.207	0.090
-356.581	297.148	0.025	0.046
-355.566	273.689	-0.032	0.057
-354.552	433.626	-0.040	0.086
-353.537	-99.712	-0.180	0.045
-352.523	-187.564	0.212	0.003
-351.508	123.272	0.107	0.132
-350.493	-136.282	-0.175	0.020
-349.479	-200.000	0.028	0.263
-348.464	-200.000	-0.025	0.181
-347.450	514.708	-0.133	0.308
-346.435	51.656	0.119	-0.112
-345.420	-200.000	0.002	-0.107
-344.406	-135.046	0.070	-0.008
-343.391	-134.713	-0.158	-0.019
-342.377	-18.583	0.244	0.151
-341.362	-200.000	0.006	0.086
-340.348	11.435	-0.114	-0.087
-339.333	353.496	-0.137	0.270
-338.318	-200.000	-0.020	0.169
-337.304	800.000	-0.059	-0.254
-336.289	186.881	0.146	0.215
-335.275	85.369	0.098	-0.106
-334.260	800.000	0.088	-0.341
-333.245	16.289	0.066	0.051
-332.231	-93.656	-0.107	-0.029
-331.216	419.987	0.069	0.146
-330.202	-95.134	-0.184	0.049
-329.187	69.387	-0.188	0.191
-328.172	-200.000	-0.046	-0.242
-327.158	349.613	-0.114	0.223
-326.143	-200.000	-0.043	0.251
-325.129	-67.235	0.289	0.113
-324.114	-145.384	0.304	0.027
-323.099	800.000	-0.122	-0.366
-322.085	-122.885	-0.109	0.017
-321.070	800.000	-0.033	-0.092
-320.056	110.443	-0.071	0.085
-319.041	-47.969	-0.179	0.086
-318.026	-142.995	-0.409	-0.039
-317.012	-105.615	0.384	0.086
-315.997	6.268	0.032	0.024
-314.983	386.557	0.060	-0.123
-313.968	-176.777	-0.278	-0.007
-312.953	-200.000	0.001	-0.398
-311.939	-123.985	-0.101	-0.016
-310.924	-104.696	-0.100	-0.023
-309.910	216.983	-0.147	0.231
-308.895	-155.287	-0.336	0.022
-307.880	-16.394	-0.157	0.099
-306.866	800.000	0.033	0.117
-305.851	117.719	0.034	0.041
-304.837	-12.942	-0.076	-0.049
-303.822	800.000	0.043	0.159
-302.807	31.616	-0.086	-0.073
-301.793	-144.445	-0.021	0.002
-300.778	-200.000	0.033	0.293
-299.764	123.259	-0.014	-0.018
-298.749	20.010	0.177	0.141
-297.735	-200.000	-0.008	0.200
-296.720	381.241	-0.022	-0.046
-295.705	76.434	-0.176	0.184
-294.691	-159.835	-0.039	-0.002
-293.676	-79.166	0.049	-0.016
-292.662	-98.786	-0.299	-0.075
-291.647	800.000	-0.074	0.239
-290.632	725.065	0.119	-0.314
-289.618	-55.515	-0.044	-0.019
-288.603	49.299	-0.166	0.154
-287.589	69.933	-0.100	-0.102
-286.574	-200.000	0.043	0.231
-285.559	-82.166	0.057	-0.018
-284.545	78.974	0.196	0.207
-283.530	800.000	0.120	0.404
-282.516	-200.000	-0.155	0.786
-281.501	-200.000	0.033	0.308
-280.486	-200.000	0.013	0.196
-279.472	40.821	0.196	0.175
-278.457	65.503	0.168	-0.168
-277.443	-200.000	0.027	-0.190
-276.428	-13.230	0.047	-0.030
-275.413	-30.205	-0.296	0.166
-274.399	50.633	-0.436	0.408
-273.384	19.923	0.227	-0.181
-272.370	-200.000	-0.081	-0.418
-271.355	53.205	0.172	-0.163
-270.340	-31.342	0.076	-0.042
-269.326	-45.837	-0.222	0.108
-268.311	5.537	-0.272	-0.198
-267.297	-120.488	0.303	0.051
-266.282	-114.196	0.201	-0.038
-265.267	270.735	0.125	0.217
-264.253	583.289	0.028	-0.067
-263.238	-200.000	0.014	0.110
-262.224	-174.269	0.035	0.001
-261.209	-172.170	0.428	0.014
-260.195	145.414	-0.202	0.267
-259.180	-52.069	0.150	-0.069
-258.165	800.000	0.078	0.246
-257.151	-200.000	0.033	0.246
-256.136	-22.881	-0.186	0.111
-255.122	-200.000	0.041	-0.368
-254.107	212.385	-0.086	0.134
-253.092	-102.839	0.136	-0.032
-252.078	38.693	-0.113	0.100
-251.063	293.052	-0.104	0.187
-250.049	-48.123	0.087	-0.042
-249.034	-200.000	0.017	-0.478
-248.019	800.000	0.010	0.031
-247.005	434.947	0.121	0.259
-245.990	-89.501	-0.208	-0.060
-244.976	800.000	0.069	-0.191
-243.961	800.000	0.049	0.144
-242.946	268.798	-0.118	0.204
-241.932	94.802	-0.179	-0.201
-240.917	800.000	-0.088	0.313
-239.903	-113.444	0.474	0.092
-238.888	-119.194	0.300	0.052
-237.873	-82.542	0.289	0.092
-236.859	-200.000	0.032	0.258
-235.844	-200.000	-0.010	0.182
-234.830	-81.154	-0.407	-0.133
-233.815	800.000	0.158	-0.472
-232.800	48.452	0.122	0.113
-231.786	4.138	0.082	-0.060
-230.771	277.009	0.063	-0.110
-229.757	-131.931	0.393	-0.051
-228.742	800.000	0.026	-0.078
-227.727	-17.400	0.080	0.050
-226.713	-117.591	-0.191	0.034
-225.698	209.889	-0.130	0.201
-224.684	62.340	-0.083	-0.082
-223.669	-91.844	0.135	0.038
-222.655	-3.238	0.141	0.097
-221.640	-159.736	0.163	0.009
-220.625	-200.000	0.023	0.134
-219.611	-135.416	0.178	-0.021
-218.596	-115.098	-0.413	0.077
-217.582	800.000	0.043	-0.155
-216.567	-15.872	-0.222	0.139
-215.552	-36.799	0.328	-0.174
-214.538	800.000	-0.016	-0.052
-213.523	32.428	-0.246	-0.209
-212.509	38.553	-0.227	-0.199
-211.494	-66.172	0.323	0.127
-210.479	53.406	0.238	-0.225
-209.465	-149.464	0.188	-0.015
-208.450	192.826	-0.013	-0.019
-207.436	-50.538	-0.054	0.025
-206.421	-55.263	0.312	0.138
-205.406	311.172	0.192	0.354
-204.392	61.728	0.209	0.205
-203.377	-63.437	-0.427	0.173
-202.363	-66.676	0.299	0.117
-201.348	-200.000	0.031	0.321
-200.333	-200.000	0.073	-0.448
-199.319	-200.000	-0.037	-0.175
-198.304	-46.685	-0.335	-0.162
-197.290	-109.457	-0.298	0.062
-196.275	-90.224	-0.063	0.018
-195.260	-177.080	0.311	0.008
-194.246	800.000	-0.044	0.176
-193.231	-116.285	-0.184	0.034
-192.217	-174.920	0.123	0.003
-191.202	-93.671	0.353	-0.096
-190.187	-200.000	0.068	0.313
-189.173	-63.148	-0.134	-0.055
-188.158	-200.000	0.007	0.186
-187.144	-130.287	0.236	0.032
-186.129	143.701	0.180	0.236
-185.114	14.598	0.046	0.036
-184.100	255.481	0.076	-0.128
-183.085	-47.895	-0.200	0.095
-182.071	-48.105	-0.119	0.057
-181.056	-162.575	-0.303	-0.015
-180.042	95.896	0.282	0.317
-179.027	87.696	-0.054	-0.059
-178.012	-150.073	0.237	-0.018
-176.998	-200.000	-0.056	0.362
-175.983	-187.627	0.582	-0.008
-174.969	-9.035	0.168	0.111
-173.954	-131.531	0.341	-0.044
-172.939	800.000	-0.062	0.237
-171.925	-70.393	0.062	0.023
-170.910	22.541	-0.118	-0.095
-169.896	102.754	-0.125	0.144
-168.881	280.178	0.035	-0.061
-167.866	88.170	0.090	-0.098
-166.852	-200.000	0.016	0.192
-165.837	162.995	0.227	-0.314
-164.823	-81.296	0.241	0.078
-163.808	34.080	-0.178	0.152
-162.793	-115.696	0.236	-0.043
-161.779	57.787	-0.141	-0.135
-160.764	249.168	0.174	0.290
-159.750	-136.411	0.245	-0.028
-158.735	60.217	-0.074	0.072
-157.720	-81.260	-0.093	0.030
-156.706	29.424	0.090	0.075
-155.691	-39.102	-0.081	0.042
-154.677	420.178	-0.140	0.295
-153.662	9.344	0.261	-0.194
-152.647	187.205	-0.088	-0.129
-151.633	39.880	0.119	-0.105
-150.618	43.277	0.189	0.170
-149.604	-200.000	-0.030	-0.193
-148.589	52.394	0.050	0.047
-147.574	18.717	0.224	0.176
-146.560	-200.000	0.000	0.188
-145.545	-30.485	-0.107	0.060
-144.531	560.644	0.042	0.101
-143.516	49.768	0.187	0.173
-142.502	-200.000	0.006	0.171
-141.487	340.490	-0.184	-0.352
-140.472	-200.000	-0.042	0.210
-139.458	-200.000	0.009	-0.287
-138.443	-200.000	-0.008	0.199
-137.429	800.000	0.031	0.108
-136.414	177.824	0.113	0.161
-135.399	-200.000	0.038	-0.190
-134.385	-200.000	0.037	0.214
-133.370	-200.000	0.006	0.168
-132.356	96.815	-0.146	-0.164
-131.341	-99.814	0.436	0.107
-130.326	292.532	0.027	0.049
-129.312	-63.389	-0.157	0.064
-128.297	-31.102	-0.104	-0.058
-127.283	-35.746	-0.221	-0.118
-126.268	-74.768	0.178	0.063
-125.253	20.328	-0.155	0.123
-124.239	346.797	-0.105	0.202
-123.224	-142.523	0.112	0.011
-122.210	-81.828	0.194	0.062
-121.195	-32.067	-0.044	-0.024
-120.180	-132.554	-0.178	0.023
-119.166	-79.648	0.279	-0.092
-118.151	56.344	-0.136	0.130
-117.137	-200.000	0.006	0.216
-116.122	405.938	0.171	0.354
-115.107	61.402	-0.094	0.092
-114.093	-117.193	-0.122	-0.022
-113.078	93.918	0.168	0.187
-112.064	-146.871	-0.148	-0.012
-111.049	93.093	-0.188	-0.209
-110.034	-200.000	0.011	0.252
-109.020	-200.000	0.026	0.176
-108.005	-166.443	0.394	-0.016
-106.991	-76.138	-0.402	-0.139
-105.976	374.402	0.107	0.213
-104.962	426.307	-0.094	-0.199
-103.947	131.896	-0.133	0.168
-102.932	215.317	-0.173	0.270
-101.918	-70.113	-0.208	0.078
-100.903	-55.120	0.034	0.015
-99.889	517.859	0.036	0.082
-98.874	208.370	0.071	0.108
-97.859	111.168	0.058	0.068
-96.845	614.182	0.026	-0.065
-95.830	43.647	0.206	0.185
-94.816	62.829	-0.114	0.112
-93.801	189.846	-0.253	0.372
-92.786	373.235	-0.107	-0.213
-91.772	-200.000	-0.035	0.507
-90.757	800.000	0.068	-0.209
-89.743	6.242	-0.132	0.096
-88.728	195.257	-0.227	0.338
-87.713	73.728	-0.192	0.197
-86.699	-200.000	0.010	0.138
-85.684	51.141	-0.085	0.079
-84.670	109.278	0.127	0.149
-83.655	800.000	0.068	-0.233
-82.640	-57.266	0.122	0.053
-81.626	417.682	0.144	0.301
-80.611	131.676	0.137	-0.173
-79.597	0.228	0.237	-0.166
-78.582	-107.199	0.195	0.042
-77.567	800.000	-0.055	0.155
-76.553	199.809	0.131	-0.198
-75.538	81.324	0.169	0.179
-74.524	-76.936	-0.244	0.083
-73.509	100.862	-0.036	-0.041
-72.494	66.217	0.114	0.114
-71.480	-53.354	0.274	-0.123
-70.465	800.000	-0.041	0.133
-69.451	-200.000	0.010	-0.225
-68.436	77.598	0.188	0.197
-67.422	-200.000	0.031	-0.158
-66.407	397.467	0.104	-0.213
-65.392	528.877	0.119	-0.276
-64.378	-55.241	0.200	0.088
-63.363	800.000	0.092	0.262
-62.349	502.793	0.162	0.367
-61.334	88.593	-0.835	-0.910
-60.319	-52.408	0.714	0.324
-59.305	800.000	-0.365	-1.035
-58.290	228.717	0.761	1.215
-57.276	-200.000	0.220	1.672
-56.261	-200.000	105.804	621.343
-55.246	523.274	1501.526	3457.244
-54.232	176.330	2701.265	3844.884
-53.217	105.588	2291.121	2653.345
-52.203	38.774	1898.041	1660.170
-51.188	32.683	1685.447	1428.189
-50.173	30.062	1642.019	1371.952
-49.159	49.336	1695.877	1562.488
-48.144	49.312	1711.038	1576.216
-47.130	32.276	1668.371	1410.437
-46.115	29.559	1654.192	1378.152
-45.100	29.415	1649.142	1372.816
-44.086	29.387	1646.445	1370.312
-43.071	29.445	1643.319	1368.082
-42.057	29.393	1641.119	1365.811
-41.042	29.291	1639.720	1363.837
-40.027	29.512	1637.144	1363.275
-39.013	29.266	1635.744	1360.242
-37.998	29.333	1633.911	1359.153
-36.984	29.391	1632.618	1358.454
-35.969	29.524	1631.035	1358.061
-34.954	29.574	1628.968	1356.650
-33.940	29.539	1627.654	1355.247
-32.925	29.487	1626.275	1353.662
-31.911	29.560	1624.043	1352.292
-30.896	29.569	1622.128	1350.704
-29.881	29.488	1620.845	1348.994
-28.867	29.527	1619.253	1347.896
-27.852	29.500	1618.159	1346.739
-26.838	29.499	1616.410	1345.219
-25.823	29.511	1615.275	1344.309
-24.809	29.544	1613.986	1343.421
-23.794	29.459	1612.905	1341.857
-22.779	29.618	1610.848	1341.242
-21.765	29.495	1609.256	1338.974
-20.750	29.467	1607.933	1337.618
-19.736	29.514	1606.534	1336.740
-18.721	29.596	1604.719	1335.771
-17.706	29.579	1603.158	1334.296
-16.692	29.537	1601.780	1332.789
-15.677	29.617	1599.915	1331.759
-14.663	29.556	1599.132	1330.615
-13.648	29.573	1597.788	1329.567
-12.633	29.550	1595.764	1327.664
-11.619	29.564	1594.821	1326.934
-10.604	29.488	1593.630	1325.342
-9.590	29.559	1591.667	1324.165
-8.575	29.590	1590.895	1323.690
-7.560	29.531	1589.553	1322.098
-6.546	29.610	1588.573	1321.797
-5.531	29.567	1587.677	1320.691
-4.517	29.559	1586.181	1319.338
-3.502	29.574	1585.156	1318.541
-2.487	29.641	1583.467	1317.561
-1.473	29.256	1571.563	1304.881
-0.458	26.366	1552.397	1268.665
0.556	20.590	1553.247	1237.089
1.571	18.413	1577.462	1240.518
2.586	18.060	1590.791	1248.311
3.600	16.375	1539.326	1195.901
4.615	8.795	1429.765	1060.669
5.629	1.189	1366.545	965.401
6.644	-0.290	1358.630	950.361
7.659	-0.285	1357.311	949.389
8.673	-0.348	1356.259	948.171
9.688	-0.287	1354.279	947.087
10.702	-0.637	1351.454	942.824
11.717	2.621	1357.130	967.287
12.731	11.621	1374.180	1036.659
13.746	19.074	1387.123	1093.877
14.761	20.898	1389.133	1106.968
15.775	21.133	1388.889	1108.167
16.790	21.173	1388.762	1108.221
17.804	21.173	1387.999	1107.514
18.819	21.524	1387.524	1109.264
19.834	21.580	1387.494	1109.498
20.848	21.526	1386.677	1108.401
21.863	21.583	1385.738	1107.915
22.877	21.541	1385.259	1107.168
23.892	21.639	1384.031	1106.710
24.907	21.536	1383.380	1105.439
25.921	21.474	1382.231	1104.032
26.936	21.465	1381.781	1103.520
27.950	21.500	1380.378	1102.517
28.965	21.615	1378.826	1101.905
29.980	21.593	1377.581	1100.673
30.994	21.626	1376.271	1099.738
32.009	21.496	1375.120	1097.908
33.023	21.544	1373.897	1097.132
34.038	21.498	1372.863	1095.924
35.053	21.486	1371.958	1095.027
36.067	21.579	1370.790	1094.582
37.082	21.603	1369.607	1093.688
38.096	21.492	1369.367	1092.706
39.111	21.488	1368.521	1091.912
40.126	21.592	1367.825	1091.907
41.140	21.531	1367.561	1091.221
42.155	21.455	1367.479	1090.583
43.169	21.555	1366.766	1090.541
44.184	21.557	1366.678	1090.389
45.199	21.544	1366.309	1089.917
46.213	21.589	1365.759	1089.662
47.228	21.623	1364.258	1088.578
48.242	21.610	1363.219	1087.571
49.257	21.543	1362.101	1086.168
50.271	21.581	1360.639	1085.139
51.286	21.509	1359.530	1083.715
52.301	21.448	1357.936	1081.973
53.315	21.637	1356.708	1082.062
54.330	21.523	1356.317	1080.952
55.344	21.528	1354.925	1079.777
56.359	21.519	1354.161	1079.021
57.374	21.521	1353.553	1078.453
58.388	21.504	1352.723	1077.591
59.403	21.655	1352.126	1077.945
60.417	21.548	1351.693	1076.851
61.432	21.569	1350.889	1076.240
62.447	21.620	1349.942	1075.705
63.461	21.503	1349.084	1074.209
64.476	21.709	1347.470	1074.089
65.490	21.585	1346.482	1072.452
66.505	21.595	1345.233	1071.419
67.520	21.605	1344.226	1070.587
68.534	21.578	1343.145	1069.466
69.549	21.555	1342.021	1068.336
70.563	21.635	1340.979	1067.898
71.578	21.673	1339.510	1066.869
72.593	21.601	1338.697	1065.683
73.607	21.612	1338.311	1065.354
74.622	21.707	1337.289	1065.019
75.636	21.638	1336.622	1063.973
76.651	21.584	1336.254	1063.263
77.666	21.582	1335.977	1062.933
78.680	21.638	1335.480	1062.786
79.695	21.575	1334.550	1061.570
80.709	21.555	1333.330	1060.385
81.724	21.661	1332.680	1060.417
82.739	21.612	1331.712	1059.252
83.753	21.636	1330.588	1058.412
84.768	21.625	1329.613	1057.475
85.782	21.686	1328.462	1056.835
86.797	21.638	1327.241	1055.482
87.812	21.632	1325.970	1054.343
88.826	21.649	1325.071	1053.636
89.841	21.689	1323.868	1052.827
90.855	21.607	1323.496	1051.946
91.870	21.695	1322.310	1051.435
92.884	21.722	1321.630	1050.965
93.899	21.571	1321.247	1049.660
94.914	21.737	1320.085	1049.637
95.928	21.635	1319.081	1048.138
96.943	21.658	1318.330	1047.587
97.957	21.682	1317.554	1047.023
98.972	21.705	1317.055	1046.667
99.987	21.746	1315.594	1045.662
101.001	21.645	1314.464	1044.069
102.016	21.594	1314.061	1043.351
103.030	21.631	1313.267	1042.846
104.045	21.730	1311.902	1042.261
105.060	21.712	1311.397	1041.663
106.074	21.654	1310.475	1040.489
107.089	21.749	1309.076	1039.853
108.103	21.651	1308.137	1038.433
109.118	21.740	1307.004	1037.969
110.133	21.696	1305.777	1036.645
111.147	21.715	1304.626	1035.751
112.162	21.776	1303.067	1034.783
113.176	21.688	1302.666	1033.850
114.191	21.685	1301.662	1032.944
115.206	21.749	1300.608	1032.393
116.220	21.737	1299.529	1031.374
117.235	21.717	1298.519	1030.365
118.249	21.676	1297.387	1029.137
119.264	21.658	1296.740	1028.425
120.279	21.757	1295.963	1028.300
121.293	21.779	1295.129	1027.673
122.308	21.811	1294.128	1026.976
123.322	21.797	1293.260	1026.118
124.337	21.941	1292.131	1025.973
125.352	21.892	1291.532	1025.116
126.366	21.895	1290.286	1024.057
127.381	21.853	1289.398	1023.017
128.395	21.741	1288.779	1021.781
129.410	21.780	1287.909	1021.230
130.424	21.710	1287.256	1020.211
131.439	21.851	1286.118	1020.040
132.454	21.722	1285.338	1018.584
133.468	21.731	1284.719	1018.051
134.483	21.701	1284.347	1017.494
135.497	21.870	1282.621	1017.018
136.512	21.761	1281.928	1015.747
137.527	21.823	1280.686	1015.033
138.541	21.797	1279.627	1013.953
139.556	21.709	1278.675	1012.600
140.570	21.801	1277.394	1012.024
141.585	21.806	1276.012	1010.869
142.600	21.836	1274.664	1009.884
143.614	21.832	1273.967	1009.220
144.629	21.754	1273.290	1008.148
145.643	21.725	1271.978	1006.854
146.658	21.603	1271.316	1005.537
147.673	21.762	1269.727	1005.102
148.687	21.728	1269.201	1004.404
149.702	21.702	1267.770	1003.031
150.716	21.681	1266.685	1001.966
151.731	21.854	1265.630	1002.030
152.746	21.838	1264.773	1001.173
153.760	21.775	1263.807	999.961
154.775	21.886	1262.369	999.364
155.789	21.861	1262.194	999.000
156.804	21.760	1261.034	997.416
157.819	21.751	1259.985	996.447
158.833	21.831	1259.111	996.121
159.848	21.861	1258.471	995.699
160.862	21.927	1257.081	994.884
161.877	21.961	1256.649	994.649
162.892	21.856	1255.494	993.052
163.906	21.881	1255.112	992.804
164.921	21.881	1254.285	992.062
165.935	21.925	1253.502	991.601
166.950	21.860	1253.345	991.022
167.964	21.835	1252.430	990.070
168.979	21.858	1251.982	989.757
169.994	21.955	1251.366	989.730
171.008	21.963	1249.957	988.576
172.023	21.861	1249.803	987.787
173.037	21.893	1249.062	987.295
174.052	21.947	1248.001	986.676
175.067	21.915	1247.305	985.858
176.081	21.958	1246.571	985.430
177.096	21.946	1245.483	984.414
178.110	21.920	1244.994	983.799
179.125	21.911	1243.845	982.754
180.140	22.053	1242.525	982.414
181.154	21.930	1241.948	981.187
182.169	21.854	1240.720	979.701
183.183	22.041	1239.601	979.776
184.198	22.027	1238.214	978.514
185.213	22.095	1237.613	978.331
186.227	22.089	1236.438	977.282
187.242	22.009	1235.644	976.127
188.256	21.900	1235.218	975.097
189.271	22.059	1234.222	975.107
190.286	22.054	1233.526	974.443
191.300	22.054	1233.064	973.991
192.315	21.979	1233.125	973.536
193.329	21.942	1232.370	972.649
194.344	21.921	1232.150	972.277
195.359	22.035	1231.344	972.181
196.373	21.833	1230.810	970.561
197.388	21.884	1230.339	970.382
198.402	21.912	1229.918	970.122
199.417	22.036	1229.250	970.193
200.432	22.033	1228.802	969.735
201.446	21.941	1228.486	968.895
202.461	21.910	1227.550	967.897
203.475	22.049	1226.667	967.882
204.490	21.990	1225.675	966.689
205.504	22.026	1224.205	965.644
206.519	22.037	1223.306	964.908
207.534	22.098	1222.130	964.229
208.548	22.048	1222.027	963.792
209.563	21.960	1221.327	962.669
210.577	22.011	1220.241	962.010
211.592	22.150	1219.173	961.840
212.607	22.208	1218.363	961.434
213.621	22.092	1218.090	960.502
214.636	22.125	1216.871	959.635
215.650	22.039	1216.118	958.484
216.665	22.172	1215.381	958.547
217.680	22.225	1214.343	957.932
218.694	22.184	1213.691	957.109
219.709	22.177	1213.113	956.531
220.723	22.199	1212.457	956.047
221.738	22.126	1211.420	954.748
222.753	22.044	1211.149	954.007
223.767	22.174	1210.086	953.789
224.782	22.214	1209.665	953.589
225.796	22.144	1209.280	952.823
226.811	22.229	1208.876	952.883
227.826	22.221	1208.019	952.078
228.840	22.127	1207.428	951.020
229.855	22.285	1206.659	951.180
230.869	22.250	1205.840	950.263
231.884	22.243	1205.464	949.843
232.899	22.044	1204.860	948.214
233.913	22.139	1204.150	948.080
234.928	22.270	1203.754	948.392
235.942	22.354	1202.633	947.878
236.957	22.358	1201.695	947.077
237.972	22.357	1200.985	946.429
238.986	22.262	1200.457	945.418
240.001	22.288	1200.173	945.246
241.015	22.356	1199.173	944.742
242.030	22.409	1198.360	944.301
243.045	22.465	1197.663	943.971
244.059	22.393	1196.947	942.939
245.074	22.456	1196.188	942.592
246.088	22.507	1195.294	942.077
247.103	22.460	1194.515	941.129
248.117	22.394	1194.057	940.330
249.132	22.381	1193.408	939.667
250.147	22.327	1193.410	939.299
251.161	22.458	1192.196	938.961
252.176	22.430	1191.312	938.031
253.190	22.456	1190.668	937.576
254.205	22.453	1190.008	936.958
255.220	22.417	1189.563	936.336
256.234	22.423	1189.003	935.846
257.249	22.392	1188.741	935.391
258.263	22.532	1187.594	935.146
259.278	22.492	1186.993	934.379
260.293	22.512	1186.306	933.863
261.307	22.548	1186.220	933.904
262.322	22.533	1185.558	933.221
263.336	22.570	1184.726	932.676
264.351	22.572	1183.857	931.919
265.366	22.440	1183.260	930.673
266.380	22.570	1182.919	931.006
267.395	22.430	1182.301	929.701
268.409	22.396	1181.570	928.861
269.424	22.496	1181.157	928.982
270.439	22.561	1180.883	929.031
271.453	22.627	1179.825	928.462
272.468	22.498	1179.069	927.108
273.482	22.539	1178.136	926.508
274.497	22.685	1177.392	926.607
275.512	22.700	1177.349	926.568
276.526	22.517	1176.813	925.104
277.541	22.727	1175.746	925.285
278.555	22.680	1175.309	924.615
279.570	22.673	1174.491	923.852
280.585	22.654	1173.726	923.065
281.599	22.661	1172.948	922.409
282.614	22.708	1171.903	921.755
283.628	22.647	1171.189	920.793
284.643	22.636	1170.323	919.970
285.657	22.654	1169.379	919.241
286.672	22.661	1168.797	918.741
287.687	22.724	1167.905	918.287
288.701	22.803	1167.120	917.997
289.716	22.722	1166.558	917.053
290.730	22.823	1165.486	916.656
291.745	22.690	1165.471	915.868
292.760	22.757	1164.499	915.372
293.774	22.794	1164.016	915.104
294.789	22.882	1163.593	915.146
295.803	22.764	1162.784	913.818
296.818	22.892	1162.065	913.835
297.833	22.696	1161.658	912.419
298.847	22.864	1160.928	912.635
299.862	22.902	1159.807	911.870
300.876	22.805	1159.675	911.184
301.891	22.919	1158.971	911.138
302.906	22.879	1158.784	910.704
303.920	22.834	1157.957	909.739
304.935	22.924	1157.019	909.385
305.949	22.953	1156.401	908.969
306.964	22.959	1156.045	908.638
307.979	23.012	1155.095	908.086
308.993	23.056	1154.271	907.583
310.008	22.904	1153.833	906.381
311.022	22.973	1153.045	906.032
312.037	23.013	1152.288	905.563
313.052	23.040	1150.978	904.594
314.066	22.822	1150.852	903.298
315.081	22.928	1149.801	902.934
316.095	23.041	1149.243	902.995
317.110	23.013	1148.574	902.245
318.125	23.105	1147.761	901.997
319.139	23.128	1146.834	901.302
320.154	22.976	1147.067	900.635
321.168	22.902	1146.475	899.711
322.183	23.046	1145.699	899.758
323.197	23.095	1144.937	899.329
324.212	23.008	1144.525	898.482
325.227	23.109	1143.990	898.494
326.241	23.166	1143.471	898.296
327.256	23.026	1143.078	897.201
328.270	23.128	1141.754	896.599
329.285	23.060	1141.216	895.751
330.300	23.158	1140.130	895.316
331.314	23.193	1138.930	894.473
332.329	23.162	1138.372	893.797
333.343	23.238	1137.754	893.616
334.358	23.247	1137.002	892.990
335.373	23.313	1136.030	892.482
336.387	23.264	1135.566	891.794
337.402	23.310	1135.185	891.647
338.416	23.323	1134.391	891.009
339.431	23.261	1133.462	889.887
340.446	23.306	1133.053	889.716
341.460	23.380	1132.283	889.404
342.475	23.354	1131.775	888.794
343.489	23.298	1130.812	887.677
344.504	23.292	1129.826	886.798
345.519	23.216	1129.490	886.072
346.533	23.378	1128.598	886.104
347.548	23.411	1127.687	885.477
348.562	23.385	1127.173	884.863
349.577	23.355	1126.443	884.066
350.592	23.446	1125.130	883.407
351.606	23.334	1124.887	882.581
352.621	23.414	1124.587	882.666
353.635	23.314	1124.057	881.675
354.650	23.469	1122.934	881.484
355.665	23.296	1122.581	880.273
356.679	23.497	1121.899	880.659
357.694	23.410	1121.402	879.757
358.708	23.384	1120.724	879.018
359.723	23.457	1119.906	878.661
360.738	23.529	1119.118	878.319
361.752	23.540	1118.852	878.092
362.767	23.590	1118.087	877.661
363.781	23.614	1117.841	877.508
364.796	23.488	1117.401	876.461
365.810	23.511	1116.586	875.858
366.825	23.712	1115.546	875.955
367.840	23.773	1115.245	875.942
368.854	23.649	1114.835	874.933
369.869	23.556	1114.435	874.084
370.883	23.615	1113.611	873.650
371.898	23.792	1112.490	873.564
372.913	23.633	1111.913	872.252
373.927	23.735	1111.506	872.357
374.942	23.703	1111.240	871.913
375.956	23.723	1110.648	871.469
376.971	23.679	1109.970	870.646
377.986	23.682	1109.353	870.098
379.000	23.749	1108.605	869.764
380.015	23.646	1108.607	869.182
381.029	23.654	1107.558	868.325
382.044	23.719	1106.925	868.065
383.059	23.754	1106.279	867.654
384.073	23.783	1105.754	867.308
385.088	23.801	1104.948	866.687
386.102	23.742	1104.124	865.676
387.117	23.677	1103.235	864.587
388.132	23.873	1102.303	864.734
389.146	23.882	1101.531	864.092
390.161	23.899	1100.563	863.339
391.175	23.947	1099.901	862.978
392.190	23.902	1099.423	862.309
393.205	23.970	1099.073	862.285
394.219	23.956	1097.855	861.187
395.234	23.808	1097.705	860.278
396.248	23.848	1096.747	859.646
397.263	23.968	1095.710	859.334
398.278	23.948	1095.378	858.902
399.292	24.004	1094.639	858.514
400.307	23.912	1094.194	857.648
401.321	23.999	1093.254	857.252
402.336	24.013	1092.696	856.808
403.350	23.956	1092.183	856.058
404.365	23.936	1091.613	855.437
405.380	24.096	1090.564	855.309
406.394	24.091	1089.757	854.575
407.409	24.039	1089.190	853.806
408.423	24.106	1088.526	853.531
409.438	24.189	1087.581	853.112
410.453	24.105	1087.243	852.368
411.467	24.223	1086.068	851.938
412.482	24.153	1085.761	851.285
413.496	24.084	1085.007	850.292
414.511	24.033	1084.665	849.701
415.526	24.192	1083.960	849.834
416.540	24.208	1083.202	849.240
417.555	24.158	1082.737	848.563
418.569	24.199	1082.509	848.506
419.584	24.220	1082.194	848.280
420.599	24.154	1082.252	847.937
421.613	149.050	1401.022	1798.346
422.628	137.708	1447.416	1798.423
