DTS Sentinel unit serial number:	SN413079Multiplexer serial number:	ORYXHardware model number:	OX4-SRSoftware version number:	ORYX F/W v4.00 Oryx Data Collector v3.7.2.0data status	okinstallation	princeton_trtdifferential loss correction	single-endedforward channel	channel 2reverse channel	N/Adate	2019/09/11time	18:33:11forward acquisition time	60.00reverse acquisition time	0.00gamma	496.2192k internal	0.2287k external	0.2287temperature offset calibration	1.0027default loss term (dB/km)	0.3790temperature slope calibration	1.0000multiplexer offset coefficient	1.0000multiplexer slope coefficient	1.0000fibre end	0.00T internal ref (°C)	43.77T ext. ref 1 (°C)	1.18T ext. ref 2 (°C)	37.04length (m)	temperature (°C)	Stokes	anti-Stokes-747.200	506.597	0.106	0.253
-746.185	24.242	-0.295	0.250
-745.171	-28.471	0.112	-0.066
-744.156	-120.889	0.192	-0.033
-743.142	-132.472	-0.208	0.028
-742.127	67.291	-0.065	-0.068
-741.112	-14.567	0.275	0.182
-740.098	13.947	0.268	0.214
-739.083	-122.149	0.251	0.042
-738.069	800.000	0.082	0.234
-737.054	548.697	0.078	-0.191
-736.039	-79.653	0.401	-0.139
-735.025	-85.566	0.124	0.040
-734.010	-127.371	-0.604	0.090
-732.996	-145.426	-0.408	-0.038
-731.981	-98.925	-0.285	-0.074
-730.966	-42.972	0.028	0.014
-729.952	279.303	0.114	0.208
-728.937	26.933	-0.136	-0.117
-727.923	-157.372	0.353	-0.022
-726.908	8.861	-0.275	-0.213
-725.894	-139.341	-0.340	-0.037
-724.879	-200.000	0.006	-0.195
-723.864	239.501	-0.100	0.170
-722.850	-55.997	-0.253	-0.116
-721.835	-48.601	0.254	-0.125
-720.821	-106.880	-0.166	0.038
-719.806	-165.912	-0.149	-0.007
-718.791	-200.000	-0.031	-0.255
-717.777	188.874	0.012	0.018
-716.762	-10.366	-0.114	0.078
-715.748	64.538	-0.152	0.157
-714.733	157.140	-0.186	-0.263
-713.718	71.603	-0.078	0.083
-712.704	-200.000	0.004	0.354
-711.689	-8.629	0.234	-0.161
-710.675	81.671	-0.282	-0.313
-709.660	135.655	-0.159	-0.212
-708.645	-200.000	-0.008	-0.110
-707.631	409.762	-0.126	-0.272
-706.616	-155.258	-0.125	0.008
-705.602	-51.039	-0.137	-0.066
-704.587	800.000	0.009	0.026
-703.572	-200.000	0.012	-0.098
-702.558	800.000	0.067	0.247
-701.543	207.042	0.059	0.094
-700.529	-121.188	0.234	0.040
-699.514	-200.000	-0.021	-0.151
-698.499	800.000	-0.031	-0.131
-697.485	-200.000	-0.003	-0.100
-696.470	-153.333	0.482	-0.034
-695.456	-7.544	-0.108	-0.075
-694.441	99.178	0.173	-0.205
-693.426	63.071	0.175	-0.180
-692.412	-42.514	0.312	0.163
-691.397	190.432	0.087	0.133
-690.383	396.982	0.084	0.180
-689.368	-44.703	0.292	0.149
-688.354	-200.000	0.017	-0.386
-687.339	-200.000	0.107	-0.560
-686.324	242.675	-0.088	0.151
-685.310	-110.383	-0.407	-0.087
-684.295	-7.154	0.252	0.175
-683.281	-100.491	0.236	-0.060
-682.266	-183.953	0.288	0.005
-681.251	-3.390	-0.099	0.070
-680.237	-37.916	0.061	-0.033
-679.222	114.038	-0.329	-0.410
-678.208	-200.000	-0.034	-0.315
-677.193	-200.000	-0.011	-0.134
-676.178	116.132	-0.149	0.187
-675.164	-95.888	-0.047	-0.013
-674.149	783.662	-0.037	-0.103
-673.135	9.543	-0.195	0.151
-672.120	146.251	-0.225	0.309
-671.105	-200.000	0.022	0.325
-670.091	191.602	-0.121	-0.186
-669.076	-130.669	0.273	0.038
-668.062	168.828	-0.161	-0.235
-667.047	-200.000	0.050	-0.467
-666.032	-200.000	-0.002	-0.066
-665.018	371.935	-0.130	-0.271
-664.003	58.780	0.101	-0.101
-662.989	217.666	0.146	0.238
-661.974	84.308	0.189	-0.211
-660.959	-38.987	-0.226	0.122
-659.945	151.928	-0.111	0.155
-658.930	-71.883	0.223	0.085
-657.916	-200.000	0.033	-0.251
-656.901	26.001	0.207	0.177
-655.886	-200.000	-0.006	-0.270
-654.872	-124.323	-0.250	-0.040
-653.857	-65.009	0.049	-0.020
-652.843	8.741	0.207	-0.159
-651.828	60.888	-0.208	0.211
-650.814	35.179	0.055	-0.050
-649.799	138.546	0.098	-0.132
-648.784	359.747	-0.180	-0.368
-647.770	379.603	0.063	-0.133
-646.755	-200.000	0.036	0.205
-645.741	107.070	0.076	-0.093
-644.726	586.477	-0.100	0.250
-643.711	-79.307	-0.148	0.051
-642.697	114.473	0.144	-0.179
-641.682	-106.613	0.353	-0.080
-640.668	800.000	-0.018	0.057
-639.653	-22.612	0.221	-0.137
-638.638	59.631	-0.054	0.055
-637.624	172.465	0.108	-0.158
-636.609	262.879	-0.211	-0.374
-635.595	-106.160	-0.278	0.064
-634.580	-56.816	-0.158	0.071
-633.565	-80.970	-0.381	0.129
-632.551	-25.443	0.481	0.290
-631.536	-200.000	0.025	0.126
-630.522	577.353	-0.160	0.399
-629.507	-53.592	-0.094	0.044
-628.492	-96.060	0.151	-0.041
-627.478	-25.077	0.330	0.200
-626.463	-138.088	-0.253	0.029
-625.449	-151.652	-0.190	0.014
-624.434	800.000	0.062	0.175
-623.419	-39.539	0.069	0.037
-622.405	-170.555	-0.342	0.012
-621.390	-66.623	-0.065	0.026
-620.376	52.799	-0.234	-0.229
-619.361	52.880	0.125	0.122
-618.346	2.928	0.109	-0.081
-617.332	329.094	0.197	0.386
-616.317	263.851	-0.174	0.308
-615.303	-109.889	-0.129	0.028
-614.288	46.745	0.226	-0.214
-613.273	800.000	-0.043	0.187
-612.259	122.088	0.037	0.047
-611.244	-103.906	0.069	-0.017
-610.230	-200.000	-0.054	-0.278
-609.215	140.373	0.263	-0.354
-608.201	227.507	0.201	-0.333
-607.186	-73.605	-0.227	-0.084
-606.171	-200.000	-0.035	0.190
-605.157	-200.000	-0.034	0.189
-604.142	186.853	0.063	-0.096
-603.128	265.654	-0.130	-0.232
-602.113	-200.000	0.036	0.287
-601.098	147.298	0.194	-0.267
-600.084	168.714	-0.101	0.146
-599.069	174.959	-0.192	0.283
-598.055	739.257	-0.054	-0.148
-597.040	-77.902	0.102	-0.036
-596.025	800.000	0.053	0.176
-595.011	-45.449	-0.085	-0.043
-593.996	-2.171	0.201	0.144
-592.982	-22.664	-0.186	0.115
-591.967	61.256	0.087	0.088
-590.952	203.571	0.051	-0.080
-589.938	544.894	0.046	-0.113
-588.923	555.397	0.081	0.199
-587.909	-129.197	-0.161	-0.023
-586.894	800.000	0.029	0.127
-585.879	-37.970	0.122	-0.066
-584.865	-147.519	0.342	-0.029
-583.850	-6.994	-0.161	-0.111
-582.836	204.327	-0.212	-0.335
-581.821	-44.873	0.021	-0.011
-580.806	-120.046	0.090	-0.016
-579.792	238.984	-0.113	0.191
-578.777	-128.403	0.090	0.013
-577.763	-94.109	-0.129	0.036
-576.748	176.810	0.112	-0.166
-575.733	-38.384	-0.186	0.100
-574.719	53.283	-0.185	-0.181
-573.704	62.806	-0.055	-0.056
-572.690	66.987	0.161	-0.167
-571.675	-152.071	0.341	-0.025
-570.661	-200.000	-0.005	-0.293
-569.646	-56.650	-0.174	0.078
-568.631	-200.000	-0.032	-0.330
-567.617	41.919	-0.133	-0.123
-566.602	377.719	0.030	0.063
-565.588	-5.648	-0.202	-0.141
-564.573	-8.682	0.385	-0.263
-563.558	-17.029	-0.141	-0.091
-562.544	655.057	-0.015	0.040
-561.529	800.000	0.058	0.255
-560.515	210.457	0.064	-0.102
-559.500	-24.366	0.138	-0.084
-558.485	-155.811	-0.195	0.013
-557.471	19.716	-0.220	0.180
-556.456	-62.159	-0.580	0.246
-555.442	-104.370	-0.336	0.079
-554.427	754.241	0.070	0.192
-553.412	-100.881	-0.305	-0.076
-552.398	-51.878	-0.639	0.303
-551.383	701.513	0.043	0.117
-550.369	9.541	-0.332	0.256
-549.354	71.511	-0.075	0.079
-548.339	-21.011	-0.125	-0.078
-547.325	11.977	-0.109	0.086
-546.310	-200.000	-0.049	-0.340
-545.296	89.940	0.074	0.085
-544.281	-151.735	-0.092	0.007
-543.266	104.442	-0.126	0.150
-542.252	-148.240	-0.224	-0.019
-541.237	86.761	-0.164	-0.184
-540.223	-200.000	-0.015	0.253
-539.208	-19.549	-0.272	0.171
-538.193	-156.954	-0.370	-0.023
-537.179	-62.042	0.218	0.093
-536.164	125.997	-0.345	-0.443
-535.150	230.559	0.130	0.217
-534.135	-134.072	0.259	0.033
-533.121	-155.223	-0.172	0.011
-532.106	235.867	-0.076	0.128
-531.091	52.878	-0.142	-0.138
-530.077	-6.442	-0.181	0.126
-529.062	-200.000	0.027	0.130
-528.048	2.100	-0.101	0.075
-527.033	-38.071	0.266	-0.144
-526.018	-48.501	-0.099	0.048
-525.004	-115.875	0.294	0.056
-523.989	-34.231	-0.052	-0.029
-522.975	-200.000	-0.001	-0.016
-521.960	-200.000	0.046	0.406
-520.945	115.931	-0.035	-0.044
-519.931	142.622	0.171	-0.232
-518.916	800.000	0.064	0.186
-517.902	243.338	-0.177	0.302
-516.887	341.700	-0.087	0.173
-515.872	290.511	-0.120	0.221
-514.858	-40.980	0.161	0.085
-513.843	-115.688	-0.272	0.052
-512.829	115.272	0.294	0.365
-511.814	102.187	0.136	0.162
-510.799	-55.068	0.227	0.104
-509.785	800.000	0.079	0.253
-508.770	800.000	0.023	-0.075
-507.756	-4.277	-0.045	-0.031
-506.741	571.957	-0.169	0.419
-505.726	428.072	-0.133	-0.293
-504.712	20.106	0.121	0.100
-503.697	-94.351	-0.140	0.039
-502.683	142.955	0.086	0.116
-501.668	277.747	-0.046	0.083
-500.653	800.000	-0.031	0.091
-499.639	-12.529	-0.247	-0.164
-498.624	205.408	-0.103	-0.163
-497.610	15.680	0.119	0.095
-496.595	-200.000	-0.005	0.147
-495.581	-67.836	-0.159	0.063
-494.566	800.000	0.032	-0.139
-493.551	-163.444	-0.177	-0.009
-492.537	368.076	-0.170	0.350
-491.522	143.032	0.094	0.126
-490.508	244.709	-0.202	0.345
-489.493	34.702	0.236	0.209
-488.478	147.576	-0.125	0.171
-487.464	-124.698	-0.357	0.056
-486.449	-200.000	-0.023	0.130
-485.435	-19.787	-0.225	0.141
-484.420	-89.060	-0.121	0.036
-483.405	-200.000	0.008	0.131
-482.391	800.000	0.012	-0.043
-481.376	37.107	0.222	-0.200
-480.362	-200.000	-0.034	0.246
-479.347	27.326	-0.089	-0.076
-478.332	800.000	0.152	-0.427
-477.318	179.740	0.084	-0.125
-476.303	351.874	0.171	0.345
-475.289	13.666	-0.298	0.235
-474.274	-200.000	0.028	-0.309
-473.259	-200.000	-0.024	0.269
-472.245	120.585	-0.133	0.168
-471.230	491.488	-0.007	0.016
-470.216	-90.036	-0.138	0.041
-469.201	-200.000	0.000	-0.100
-468.186	457.259	0.079	-0.179
-467.172	-87.299	0.032	-0.010
-466.157	447.509	-0.135	-0.301
-465.143	-33.962	-0.236	-0.132
-464.128	96.955	-0.199	-0.232
-463.113	-200.000	-0.005	-0.098
-462.099	-3.920	-0.047	0.033
-461.084	337.680	-0.045	0.089
-460.070	-21.995	-0.187	0.115
-459.055	-200.000	0.002	0.017
-458.040	156.361	-0.113	-0.158
-457.026	-45.584	0.133	-0.067
-456.011	21.924	0.079	-0.065
-454.997	-200.000	-0.001	-0.004
-453.982	37.102	0.086	0.077
-452.968	-200.000	-0.010	-0.201
-451.953	105.789	0.153	-0.184
-450.938	-189.438	0.170	-0.002
-449.924	-1.332	-0.068	-0.049
-448.909	-133.751	0.230	-0.029
-447.895	-33.875	0.072	0.040
-446.880	-104.443	0.471	0.110
-445.865	800.000	-0.047	0.161
-444.851	-200.000	0.019	-0.325
-443.836	-12.587	-0.218	0.144
-442.822	705.141	-0.032	-0.085
-441.807	-21.201	-0.151	0.094
-440.792	-116.837	-0.178	0.033
-439.778	386.286	0.187	-0.391
-438.763	-93.041	0.201	-0.057
-437.749	135.691	0.050	0.065
-436.734	-81.066	0.190	0.064
-435.719	800.000	0.043	-0.125
-434.705	-28.810	0.148	-0.086
-433.690	-75.658	-0.357	0.129
-432.676	388.921	-0.124	0.261
-431.661	30.875	-0.193	-0.168
-430.646	-170.199	0.350	-0.013
-429.632	-106.899	-0.366	-0.082
-428.617	800.000	0.035	-0.100
-427.603	-175.697	0.227	0.006
-426.588	-159.475	0.144	-0.008
-425.573	-53.587	0.167	-0.077
-424.559	-86.345	-0.340	-0.106
-423.544	540.486	0.111	0.269
-422.530	215.692	0.150	0.241
-421.515	-186.118	0.282	-0.004
-420.500	81.854	-0.133	-0.146
-419.486	-200.000	-0.013	-0.210
-418.471	-119.970	-0.350	-0.061
-417.457	-80.479	-0.181	0.061
-416.442	-200.000	-0.043	-0.254
-415.428	170.312	0.146	0.212
-414.413	662.700	0.060	0.158
-413.398	-141.481	0.159	0.016
-412.384	-34.238	-0.153	-0.085
-411.369	-48.912	0.434	-0.210
-410.355	-200.000	0.007	0.074
-409.340	-115.024	0.305	-0.059
-408.325	-95.418	-0.121	0.033
-407.311	-67.638	0.071	0.028
-406.296	-88.906	0.437	0.131
-405.282	96.348	0.103	0.119
-404.267	800.000	0.117	-0.435
-403.252	-108.540	0.104	0.023
-402.238	-140.684	-0.098	0.010
-401.223	-128.864	0.317	-0.045
-400.209	-104.285	-0.345	-0.081
-399.194	277.907	0.176	-0.318
-398.179	-200.000	0.023	0.125
-397.165	800.000	0.050	0.196
-396.150	366.835	0.173	-0.352
-395.136	347.097	-0.021	0.043
-394.121	-135.863	0.357	-0.043
-393.106	464.064	0.243	0.549
-392.092	-166.120	-0.302	0.013
-391.077	70.614	-0.256	0.268
-390.063	469.499	0.014	-0.031
-389.048	-152.158	-0.156	-0.011
-388.033	385.158	0.183	-0.381
-387.019	800.000	-0.077	-0.221
-386.004	-200.000	-0.057	0.307
-384.990	-111.536	0.303	0.062
-383.975	-92.030	0.355	0.102
-382.960	133.196	0.135	0.176
-381.946	-4.648	0.061	0.042
-380.931	773.245	-0.037	-0.103
-379.917	-134.483	-0.268	0.033
-378.902	-156.224	-0.219	0.014
-377.888	-200.000	0.017	0.143
-376.873	-175.470	0.496	-0.014
-375.858	48.654	-0.198	0.188
-374.844	-76.246	0.243	-0.087
-373.829	346.353	-0.148	0.295
-372.815	-32.404	-0.204	-0.115
-371.800	-200.000	0.056	-0.374
-370.785	11.105	0.304	0.235
-369.771	140.751	-0.165	0.221
-368.756	-200.000	0.003	0.067
-367.742	42.963	0.176	-0.162
-366.727	142.979	0.175	-0.235
-365.712	347.415	0.033	0.066
-364.698	-200.000	0.007	-0.101
-363.683	-118.263	0.514	0.093
-362.669	247.613	0.172	-0.294
-361.654	-200.000	-0.019	-0.199
-360.639	-200.000	-0.000	-0.056
-359.625	487.103	-0.097	-0.224
-358.610	800.000	0.011	-0.046
-357.596	800.000	-0.050	0.212
-356.581	-200.000	0.002	-0.019
-355.566	214.410	0.102	0.163
-354.552	513.435	0.081	0.191
-353.537	-200.000	0.010	0.085
-352.523	-200.000	0.007	-0.303
-351.508	-109.872	-0.247	0.052
-350.493	800.000	-0.037	0.145
-349.479	-17.787	-0.199	0.126
-348.464	275.784	-0.093	-0.166
-347.450	584.223	-0.113	-0.282
-346.435	-165.117	0.165	0.007
-345.420	-86.345	-0.214	-0.067
-344.406	800.000	0.010	-0.034
-343.391	-54.501	-0.320	-0.146
-342.377	207.584	-0.077	-0.122
-341.362	197.368	-0.131	-0.201
-340.348	-183.107	0.198	0.004
-339.333	-79.619	-0.256	-0.087
-338.318	16.650	-0.052	0.041
-337.304	800.000	0.019	0.066
-336.289	262.779	0.197	-0.345
-335.275	-200.000	-0.014	0.239
-334.260	273.942	-0.105	-0.188
-333.245	-160.082	0.325	0.018
-332.231	360.913	0.269	0.544
-331.216	239.959	0.231	0.389
-330.202	-142.636	0.179	-0.018
-329.187	-200.000	0.004	0.183
-328.172	-200.000	0.015	-0.111
-327.158	-200.000	0.031	0.299
-326.143	199.908	-0.083	0.128
-325.129	87.416	0.213	0.237
-324.114	800.000	0.053	-0.184
-323.099	123.093	-0.138	0.174
-322.085	753.239	0.072	0.196
-321.070	159.392	0.080	0.113
-320.056	-54.482	-0.312	0.143
-319.041	-9.436	-0.327	-0.220
-318.026	-155.237	-0.180	0.012
-317.012	79.963	-0.201	0.218
-315.997	800.000	-0.070	-0.226
-314.983	-10.512	-0.354	-0.237
-313.968	-18.723	-0.362	-0.228
-312.953	139.322	-0.060	-0.080
-311.939	-129.779	0.382	-0.053
-310.924	111.940	0.218	-0.265
-309.910	31.101	0.041	0.035
-308.895	-73.923	0.342	0.125
-307.880	800.000	0.014	0.058
-306.866	-200.000	-0.004	0.063
-305.851	776.160	-0.042	-0.116
-304.837	-26.223	-0.159	0.094
-303.822	-149.815	-0.152	-0.012
-302.807	-200.000	0.004	0.189
-301.793	-11.671	0.210	-0.139
-300.778	-5.598	0.240	-0.166
-299.764	-200.000	-0.011	-0.201
-298.749	800.000	-0.073	0.315
-297.735	-88.140	0.271	-0.082
-296.720	-71.012	-0.077	0.029
-295.705	-200.000	-0.019	-0.108
-294.691	-34.625	0.154	-0.085
-293.676	-89.498	-0.225	0.067
-292.662	353.146	0.014	0.027
-291.647	262.658	0.188	-0.329
-290.632	-200.000	0.068	-0.313
-289.618	800.000	0.114	-0.322
-288.603	-50.723	0.322	-0.153
-287.589	-179.399	0.195	-0.004
-286.574	-45.802	0.308	-0.153
-285.559	-135.157	-0.299	-0.036
-284.545	653.000	0.087	0.226
-283.530	-121.568	0.224	0.038
-282.516	36.883	0.072	-0.064
-281.501	-76.266	-0.338	-0.120
-280.486	-179.492	0.258	0.006
-279.472	-200.000	-0.053	-0.236
-278.457	112.252	-0.175	0.213
-277.443	-177.770	-0.215	-0.005
-276.428	-112.452	-0.266	0.054
-275.413	47.025	0.045	0.042
-274.399	-16.659	-0.138	-0.088
-273.384	-126.481	-0.130	-0.019
-272.370	-200.000	0.015	0.111
-271.355	305.214	0.030	0.057
-270.340	800.000	-0.043	-0.148
-269.326	-168.231	0.260	-0.010
-268.311	-102.636	-0.105	-0.025
-267.297	81.216	0.176	0.191
-266.282	-101.917	0.258	-0.063
-265.267	454.755	-0.127	-0.282
-264.253	-200.000	-0.042	0.205
-263.238	553.690	0.022	0.054
-262.224	-104.858	-0.077	0.018
-261.209	-200.000	-0.014	-0.348
-260.195	-153.307	-0.314	-0.022
-259.180	-168.325	0.158	-0.006
-258.165	161.962	0.290	-0.408
-257.151	24.169	0.068	-0.056
-256.136	-155.091	0.233	-0.015
-255.122	11.960	-0.148	0.114
-254.107	251.883	0.128	0.220
-253.092	-31.358	-0.260	-0.147
-252.078	398.843	0.112	-0.237
-251.063	68.877	-0.196	-0.203
-250.049	-200.000	0.016	0.216
-249.034	309.986	-0.157	0.296
-248.019	-156.934	0.394	-0.024
-247.005	-152.007	0.206	0.015
-245.990	70.436	0.142	-0.148
-244.976	-90.250	-0.147	-0.043
-243.961	-142.525	0.480	0.047
-242.946	800.000	-0.074	0.228
-241.932	431.643	0.035	-0.076
-240.917	417.210	0.035	-0.076
-239.903	-200.000	-0.054	-0.245
-238.888	-200.000	0.025	-0.141
-237.873	-30.745	-0.255	-0.145
-236.859	-200.000	0.035	-0.171
-235.844	-107.104	-0.139	-0.031
-234.830	290.911	-0.104	-0.191
-233.815	-145.822	0.210	-0.019
-232.800	14.751	-0.219	0.172
-231.786	605.532	-0.089	0.224
-230.771	62.062	0.008	-0.008
-229.757	-112.768	0.386	-0.077
-228.742	800.000	0.030	-0.090
-227.727	148.527	0.142	-0.193
-226.713	-53.381	-0.105	-0.048
-225.698	-104.100	-0.368	0.086
-224.684	800.000	0.054	-0.151
-223.669	-60.510	0.105	0.045
-222.655	-200.000	0.019	0.202
-221.640	-7.654	0.216	0.147
-220.625	180.311	0.065	0.096
-219.611	145.752	0.225	0.302
-218.596	122.272	0.077	-0.097
-217.582	532.148	-0.049	-0.117
-216.567	42.640	0.150	0.138
-215.552	-18.361	-0.101	0.064
-214.538	135.757	0.045	-0.059
-213.523	55.011	-0.405	-0.393
-212.509	800.000	0.134	-0.399
-211.494	800.000	-0.123	-0.344
-210.479	66.165	0.247	-0.252
-209.465	119.753	0.078	0.097
-208.450	-116.222	-0.320	0.060
-207.436	10.751	0.175	0.134
-206.421	-119.160	0.135	-0.024
-205.406	-48.632	0.312	0.151
-204.392	391.809	-0.023	-0.047
-203.377	-200.000	0.023	-0.133
-202.363	-159.301	0.069	-0.004
-201.348	199.457	-0.035	-0.054
-200.333	288.220	-0.034	0.061
-199.319	800.000	0.105	-0.316
-198.304	-58.035	-0.272	-0.119
-197.290	-83.486	0.190	-0.061
-196.275	86.677	0.165	0.182
-195.260	-90.963	-0.246	-0.071
-194.246	179.208	-0.139	0.204
-193.231	-70.354	0.222	0.084
-192.217	240.857	0.189	-0.317
-191.202	83.958	0.020	0.022
-190.187	16.537	-0.144	0.115
-189.173	-200.000	0.005	-0.060
-188.158	800.000	-0.064	0.215
-187.144	800.000	0.057	0.245
-186.129	500.157	-0.077	0.179
-185.114	208.450	-0.054	0.084
-184.100	-200.000	-0.020	0.214
-183.085	800.000	-0.071	0.250
-182.071	102.637	-0.152	0.179
-181.056	652.316	-0.023	-0.059
-180.042	27.151	-0.240	-0.202
-179.027	-200.000	0.007	-0.068
-178.012	-200.000	-0.045	-0.384
-176.998	39.637	0.189	0.170
-175.983	-89.259	0.285	-0.084
-174.969	-200.000	-0.000	-0.066
-173.954	-133.479	-0.050	0.006
-172.939	800.000	0.073	-0.281
-171.925	9.612	0.103	0.078
-170.910	-36.366	0.314	-0.170
-169.896	-99.972	-0.128	0.032
-168.881	-200.000	-0.102	-0.450
-167.866	-200.000	0.005	0.221
-166.852	-73.416	-0.128	0.047
-165.837	-7.089	0.160	0.109
-164.823	173.497	0.131	0.189
-163.808	-45.808	-0.054	0.027
-162.793	-66.418	0.047	0.019
-161.779	-91.369	0.211	-0.061
-160.764	470.069	-0.098	0.221
-159.750	121.179	-0.130	-0.162
-158.735	800.000	0.036	0.130
-157.720	-126.369	-0.129	-0.019
-156.706	-200.000	-0.017	-0.078
-155.691	4.417	-0.076	0.056
-154.677	-78.046	-0.215	-0.074
-153.662	-105.196	0.143	-0.033
-152.647	-100.736	0.183	0.045
-151.633	-111.798	-0.139	0.028
-150.618	-138.009	-0.314	0.035
-149.604	-141.754	-0.054	0.005
-148.589	132.902	-0.013	-0.017
-147.574	-131.439	0.214	-0.028
-146.560	800.000	0.047	0.133
-145.545	800.000	0.057	0.228
-144.531	-200.000	-0.016	-0.101
-143.516	284.584	-0.100	-0.181
-142.502	-50.241	0.192	0.091
-141.487	-155.017	0.289	-0.019
-140.472	800.000	0.058	-0.241
-139.458	63.445	-0.082	0.083
-138.443	800.000	0.182	-0.652
-137.429	520.235	-0.055	-0.128
-136.414	-10.503	-0.062	-0.041
-135.399	-27.813	0.226	0.131
-134.385	-65.859	0.159	-0.064
-133.370	-200.000	-0.022	-0.133
-132.356	-2.493	-0.181	-0.127
-131.341	-52.924	-0.131	-0.060
-130.326	-109.345	-0.088	0.019
-129.312	800.000	-0.070	0.266
-128.297	-200.000	-0.006	0.230
-127.283	-200.000	-0.024	0.245
-126.268	800.000	0.121	0.372
-125.253	591.747	0.055	0.136
-124.239	35.749	0.137	-0.121
-123.224	-43.459	0.068	-0.035
-122.210	141.933	0.064	0.084
-121.195	725.933	-0.045	0.121
-120.180	309.992	-0.054	-0.101
-119.166	70.939	0.223	0.231
-118.151	53.741	0.364	0.349
-117.137	193.093	-0.059	-0.090
-116.122	-110.531	0.547	0.113
-115.107	-87.535	-0.290	-0.088
-114.093	-158.237	0.318	0.019
-113.078	800.000	-0.005	0.023
-112.064	617.735	-0.082	0.206
-111.049	247.666	0.095	-0.161
-110.034	-13.874	0.218	0.141
-109.020	201.828	-0.165	-0.254
-108.005	172.251	-0.155	-0.223
-106.991	-196.916	0.291	0.002
-105.976	-127.768	0.366	0.053
-104.962	-18.221	0.219	-0.137
-103.947	-57.814	0.151	-0.066
-102.932	636.116	0.041	-0.104
-101.918	98.246	-0.079	0.092
-100.903	77.460	0.176	0.188
-99.889	28.713	-0.010	0.009
-98.874	-128.860	0.306	0.043
-97.859	-200.000	-0.053	0.332
-96.845	-200.000	-0.002	-0.210
-95.830	148.899	-0.092	-0.125
-94.816	-1.887	-0.026	-0.019
-93.801	-167.996	0.366	0.014
-92.786	46.496	0.126	0.117
-91.772	800.000	0.103	0.305
-90.757	-200.000	0.016	0.134
-89.743	97.521	-0.089	-0.102
-88.728	709.394	-0.108	0.286
-87.713	65.632	0.131	0.132
-86.699	10.342	0.128	0.097
-85.684	87.082	0.119	-0.132
-84.670	78.868	0.092	-0.098
-83.655	-200.000	0.035	-0.178
-82.640	-103.042	-0.066	-0.016
-81.626	-87.692	0.292	-0.088
-80.611	281.883	0.227	0.407
-79.597	-200.000	-0.021	0.129
-78.582	92.878	-0.168	-0.190
-77.567	15.935	0.487	0.383
-76.553	-200.000	-0.019	0.202
-75.538	93.516	0.115	0.130
-74.524	800.000	-0.081	0.244
-73.509	-69.225	0.183	-0.070
-72.494	144.369	-0.050	-0.067
-71.480	31.899	-0.186	-0.160
-70.465	-56.137	0.276	-0.123
-69.451	77.535	0.052	0.055
-68.436	-200.000	-0.008	0.194
-67.422	612.508	-0.113	0.283
-66.407	-124.444	-0.185	-0.029
-65.392	138.598	0.171	0.224
-64.378	-148.965	-0.295	0.024
-63.363	115.214	0.122	-0.149
-62.349	-142.520	-0.181	0.018
-61.334	518.603	-0.411	-0.962
-60.319	-9.308	0.260	-0.174
-59.305	800.000	-0.208	-0.751
-58.290	176.675	0.401	0.582
-57.276	289.040	0.706	1.277
-56.261	-200.000	73.295	542.580
-55.246	600.722	1280.823	3176.359
-54.232	145.988	2506.764	3357.245
-53.217	114.728	2341.160	2850.011
-52.203	53.567	1959.113	1876.934
-51.188	47.355	1747.689	1625.742
-50.173	44.285	1700.819	1558.568
-49.159	58.015	1732.348	1693.683
-48.144	64.610	1751.046	1762.723
-47.130	47.129	1715.596	1593.896
-46.115	43.776	1702.430	1555.885
-45.100	43.611	1697.435	1549.996
-44.086	43.647	1694.844	1547.844
-43.071	43.626	1691.845	1544.882
-42.057	43.572	1689.896	1542.629
-41.042	43.518	1688.170	1540.583
-40.027	43.718	1685.819	1539.896
-39.013	43.621	1683.908	1537.352
-37.998	43.587	1682.335	1535.597
-36.984	43.623	1680.674	1534.296
-35.969	43.705	1679.266	1533.569
-34.954	43.827	1677.248	1532.591
-33.940	43.856	1675.296	1530.960
-32.925	43.773	1674.032	1529.120
-31.911	43.755	1671.767	1526.855
-30.896	43.815	1669.831	1525.477
-29.881	43.809	1668.334	1524.005
-28.867	43.758	1666.830	1522.187
-27.852	43.812	1665.043	1520.899
-26.838	43.732	1664.041	1519.327
-25.823	43.876	1662.003	1518.482
-24.809	43.748	1661.096	1516.635
-23.794	43.766	1659.822	1515.546
-22.779	43.772	1658.500	1514.328
-21.765	43.838	1656.253	1512.707
-20.750	43.752	1655.087	1510.941
-19.736	43.865	1653.371	1510.154
-18.721	43.752	1652.116	1508.109
-17.706	43.823	1650.250	1506.875
-16.692	43.749	1648.454	1504.620
-15.677	43.704	1647.853	1503.676
-14.663	43.765	1646.103	1502.474
-13.648	43.766	1644.883	1501.313
-12.633	43.837	1643.118	1500.169
-11.619	43.770	1641.303	1497.953
-10.604	43.791	1639.873	1496.742
-9.590	43.762	1638.666	1495.367
-8.575	43.882	1636.938	1494.621
-7.560	43.788	1636.089	1493.092
-6.546	43.798	1635.014	1492.122
-5.531	43.823	1633.301	1490.687
-4.517	43.777	1632.164	1489.250
-3.502	43.886	1630.833	1488.775
-2.487	43.875	1629.336	1487.273
-1.473	43.493	1617.792	1473.889
-0.458	40.355	1596.710	1431.984
0.556	35.002	1593.051	1388.349
1.571	31.793	1616.168	1384.708
2.586	30.794	1630.638	1389.531
3.600	26.896	1577.958	1316.303
4.615	14.852	1458.590	1135.325
5.629	3.546	1382.005	1002.494
6.644	1.303	1371.839	980.552
7.659	1.217	1370.442	978.915
8.673	1.192	1368.922	977.579
9.688	0.999	1367.974	975.574
10.702	0.833	1365.079	972.355
11.717	4.727	1372.534	1002.709
12.731	15.613	1393.834	1089.086
13.746	23.777	1407.163	1152.589
14.761	24.909	1408.604	1161.017
15.775	25.175	1407.940	1162.092
16.790	25.173	1407.310	1161.455
17.804	25.124	1406.718	1160.546
18.819	25.434	1406.585	1162.340
19.834	25.502	1405.935	1162.140
20.848	25.444	1405.236	1161.084
21.863	25.448	1404.195	1160.146
22.877	25.353	1403.466	1158.826
23.892	25.490	1402.494	1158.806
24.907	25.471	1401.536	1157.788
25.921	25.365	1400.911	1156.488
26.936	25.505	1399.767	1156.345
27.950	25.425	1398.400	1154.596
28.965	25.447	1397.247	1153.687
29.980	25.490	1395.818	1152.679
30.994	25.487	1394.680	1151.620
32.009	25.454	1393.765	1150.545
33.023	25.441	1392.405	1149.242
34.038	25.460	1391.387	1148.418
35.053	25.421	1390.351	1147.217
36.067	25.425	1389.039	1146.057
37.082	25.439	1388.289	1145.424
38.096	25.479	1387.268	1144.738
39.111	25.341	1386.840	1143.404
40.126	25.461	1386.020	1143.390
41.140	25.421	1385.449	1142.563
42.155	25.452	1385.162	1142.423
43.169	25.457	1385.219	1142.398
44.184	25.451	1385.092	1142.158
45.199	25.487	1383.986	1141.372
46.213	25.404	1383.757	1140.552
47.228	25.367	1382.769	1139.404
48.242	25.468	1381.470	1138.872
49.257	25.427	1380.041	1137.333
50.271	25.364	1378.431	1135.512
51.286	25.433	1377.549	1135.118
52.301	25.380	1375.912	1133.331
53.315	25.438	1375.074	1132.912
54.330	25.421	1374.375	1132.125
55.344	25.417	1372.955	1130.829
56.359	25.327	1372.188	1129.531
57.374	25.393	1371.379	1129.186
58.388	25.404	1370.841	1128.711
59.403	25.355	1370.882	1128.333
60.417	25.412	1369.809	1127.711
61.432	25.394	1369.440	1127.193
62.447	25.410	1368.054	1126.051
63.461	25.477	1367.014	1125.518
64.476	25.436	1366.040	1124.360
65.490	25.454	1364.887	1123.421
66.505	25.488	1363.097	1122.059
67.520	25.404	1362.174	1120.679
68.534	25.421	1361.311	1119.973
69.549	25.428	1360.398	1119.171
70.563	25.419	1359.634	1118.383
71.578	25.512	1358.362	1117.820
72.593	25.410	1357.805	1116.626
73.607	25.394	1357.052	1115.809
74.622	25.527	1355.674	1115.403
75.636	25.515	1355.033	1114.702
76.651	25.491	1354.508	1114.025
77.666	25.428	1354.203	1113.281
78.680	25.494	1353.362	1112.905
79.695	25.442	1352.911	1112.114
80.709	25.412	1351.902	1110.998
81.724	25.487	1350.729	1110.397
82.739	25.485	1350.075	1109.749
83.753	25.426	1349.409	1108.744
84.768	25.394	1348.180	1107.434
85.782	25.497	1347.004	1107.005
86.797	25.490	1345.443	1105.583
87.812	25.400	1345.071	1104.623
88.826	25.419	1343.728	1103.543
89.841	25.490	1342.540	1102.905
90.855	25.525	1341.470	1102.141
91.870	25.504	1340.954	1101.493
92.884	25.410	1340.090	1100.109
93.899	25.458	1339.529	1099.845
94.914	25.436	1338.635	1098.878
95.928	25.487	1337.575	1098.223
96.943	25.445	1337.242	1097.595
97.957	25.390	1336.547	1096.595
98.972	25.576	1335.083	1096.428
99.987	25.551	1334.124	1095.390
101.001	25.521	1333.378	1094.500
102.016	25.524	1332.210	1093.462
103.030	25.410	1331.744	1092.292
104.045	25.365	1331.161	1091.442
105.060	25.476	1329.706	1090.825
106.074	25.538	1328.443	1090.072
107.089	25.555	1327.224	1089.078
108.103	25.489	1326.908	1088.320
109.118	25.584	1325.068	1087.289
110.133	25.556	1324.228	1086.338
111.147	25.491	1322.956	1084.803
112.162	25.498	1322.171	1084.103
113.176	25.625	1321.176	1083.959
114.191	25.623	1319.908	1082.811
115.206	25.586	1319.059	1081.796
116.220	25.520	1317.913	1080.365
117.235	25.526	1317.117	1079.653
118.249	25.587	1315.985	1078.992
119.264	25.421	1315.224	1077.279
120.279	25.570	1314.626	1077.589
121.293	25.468	1313.954	1076.328
122.308	25.567	1313.395	1076.369
123.322	25.628	1311.794	1075.324
124.337	25.651	1311.457	1075.091
125.352	25.606	1310.598	1074.027
126.366	25.635	1309.531	1073.228
127.381	25.661	1308.703	1072.611
128.395	25.675	1307.508	1071.621
129.410	25.677	1306.938	1071.069
130.424	25.746	1306.159	1070.744
131.439	25.620	1305.621	1069.462
132.454	25.580	1304.960	1068.589
133.468	25.573	1304.212	1067.838
134.483	25.732	1303.473	1068.084
135.497	25.627	1302.927	1066.920
136.512	25.690	1301.651	1066.154
137.527	25.683	1300.444	1065.026
138.541	25.545	1299.254	1063.143
139.556	25.562	1298.048	1062.162
140.570	25.668	1297.082	1061.906
141.585	25.621	1295.845	1060.521
142.600	25.673	1294.567	1059.688
143.614	25.586	1294.227	1058.803
144.629	25.656	1292.797	1057.948
145.643	25.677	1291.831	1057.188
146.658	25.582	1290.985	1055.844
147.673	25.551	1290.176	1054.909
148.687	25.513	1289.156	1053.760
149.702	25.563	1287.959	1052.983
150.716	25.601	1286.406	1051.839
151.731	25.534	1285.909	1050.951
152.746	25.680	1284.496	1050.552
153.760	25.631	1283.529	1049.382
154.775	25.573	1282.684	1048.264
155.789	25.545	1281.734	1047.228
156.804	25.618	1280.679	1046.699
157.819	25.568	1279.947	1045.716
158.833	25.598	1279.101	1045.108
159.848	25.576	1278.658	1044.525
160.862	25.634	1278.240	1044.426
161.877	25.717	1276.709	1043.565
162.892	25.667	1275.946	1042.559
163.906	25.840	1275.226	1042.880
164.921	25.737	1274.838	1041.877
165.935	25.549	1273.869	1039.905
166.950	25.698	1273.131	1040.070
167.964	25.687	1272.470	1039.379
168.979	25.735	1271.950	1039.136
169.994	25.705	1271.403	1038.426
171.008	25.716	1270.557	1037.708
172.023	25.749	1269.835	1037.212
173.037	25.781	1268.551	1036.257
174.052	25.843	1268.505	1036.488
175.067	25.603	1268.010	1034.608
176.081	25.752	1266.753	1034.348
177.096	25.697	1266.407	1033.656
178.110	25.781	1265.071	1032.958
179.125	25.663	1264.494	1031.718
180.140	25.628	1263.383	1030.522
181.154	25.626	1261.961	1029.256
182.169	25.694	1260.805	1028.615
183.183	25.653	1260.044	1027.669
184.198	25.799	1258.745	1027.350
185.213	25.761	1258.028	1026.459
186.227	25.830	1257.059	1025.969
187.242	25.791	1256.280	1025.018
188.256	25.841	1255.219	1024.346
189.271	25.864	1254.370	1023.693
190.286	25.812	1253.635	1022.706
191.300	25.767	1253.335	1022.116
192.315	25.801	1252.675	1021.681
193.329	25.719	1252.868	1021.286
194.344	25.800	1251.876	1020.847
195.359	25.925	1251.443	1021.111
196.373	25.702	1251.218	1019.571
197.388	25.708	1250.808	1019.179
198.402	25.740	1250.494	1019.019
199.417	25.747	1249.924	1018.502
200.432	25.773	1249.187	1017.957
201.446	25.749	1248.716	1017.350
202.461	25.788	1247.656	1016.614
203.475	25.821	1246.752	1015.975
204.490	25.852	1245.963	1015.419
205.504	25.831	1245.025	1014.446
206.519	25.783	1243.999	1013.250
207.534	25.907	1242.743	1012.831
208.548	25.805	1242.217	1011.741
209.563	25.826	1241.170	1010.917
210.577	25.876	1240.530	1010.587
211.592	25.882	1239.814	1009.946
212.607	25.873	1238.952	1009.107
213.621	25.938	1238.288	1008.839
214.636	25.929	1237.068	1007.708
215.650	25.916	1236.491	1007.075
216.665	25.823	1235.644	1005.775
217.680	25.833	1235.025	1005.240
218.694	25.951	1233.990	1004.967
219.709	25.917	1233.002	1003.884
220.723	25.857	1232.944	1003.414
221.738	25.893	1232.072	1002.816
222.753	25.959	1231.300	1002.464
223.767	25.882	1230.746	1001.495
224.782	25.940	1230.376	1001.430
225.796	25.953	1229.816	1000.956
226.811	26.088	1228.820	1000.807
227.826	25.963	1228.560	999.814
228.840	25.985	1227.920	999.322
229.855	26.059	1226.940	998.847
230.869	26.069	1226.125	998.149
231.884	26.104	1225.301	997.586
232.899	25.997	1224.681	996.402
233.913	26.102	1224.300	996.586
234.928	26.059	1224.081	996.081
235.942	26.154	1223.285	995.869
236.957	26.112	1222.509	994.914
237.972	26.099	1221.757	994.145
238.986	26.010	1221.631	993.466
240.001	26.079	1221.026	993.265
241.015	26.218	1219.917	993.040
242.030	26.200	1219.112	992.195
243.045	26.159	1218.068	991.034
244.059	26.217	1217.358	990.686
245.074	26.210	1217.020	990.285
246.088	26.201	1216.200	989.479
247.103	26.091	1215.660	988.350
248.117	26.159	1214.291	987.522
249.132	26.190	1213.710	987.135
250.147	26.311	1212.754	986.928
251.161	26.227	1212.345	986.051
252.176	26.324	1211.588	985.879
253.190	26.241	1210.930	984.799
254.205	26.306	1209.927	984.252
255.220	26.229	1209.379	983.301
256.234	26.243	1209.274	983.204
257.249	26.331	1208.432	982.914
258.263	26.368	1207.493	982.260
259.278	26.263	1207.443	981.565
260.293	26.348	1206.741	981.370
261.307	26.362	1205.954	980.718
262.322	26.373	1205.408	980.246
263.336	26.373	1204.993	979.819
264.351	26.405	1204.156	979.227
265.366	26.384	1203.915	978.830
266.380	26.328	1203.113	977.791
267.395	26.316	1201.923	976.671
268.409	26.324	1201.933	976.633
269.424	26.289	1201.232	975.792
270.439	26.376	1200.640	975.695
271.453	26.396	1199.710	974.958
272.468	26.329	1198.737	973.719
273.482	26.308	1198.466	973.300
274.497	26.323	1197.821	972.775
275.512	26.412	1197.188	972.653
276.526	26.446	1196.871	972.489
277.541	26.386	1196.286	971.608
278.555	26.484	1195.491	971.399
279.570	26.496	1194.733	970.763
280.585	26.480	1193.975	969.975
281.599	26.418	1193.153	968.891
282.614	26.556	1191.930	968.550
283.628	26.444	1191.355	967.397
284.643	26.429	1190.350	966.414
285.657	26.402	1189.782	965.724
286.672	26.510	1188.545	965.210
287.687	26.574	1187.863	964.911
288.701	26.489	1187.597	964.158
289.716	26.580	1186.542	963.701
290.730	26.555	1185.782	962.865
291.745	26.557	1185.492	962.557
292.760	26.597	1184.762	962.090
293.774	26.618	1184.459	961.869
294.789	26.568	1183.682	960.889
295.803	26.620	1183.105	960.610
296.818	26.522	1182.760	959.729
297.833	26.543	1181.849	959.017
298.847	26.732	1180.772	959.055
299.862	26.764	1180.255	958.718
300.876	26.644	1179.241	957.177
301.891	26.754	1178.882	957.384
302.906	26.713	1178.719	956.949
303.920	26.735	1178.059	956.444
304.935	26.657	1177.433	955.440
305.949	26.702	1176.225	954.611
306.964	26.719	1176.259	954.648
307.979	26.658	1175.631	953.728
308.993	26.749	1174.471	953.185
310.008	26.845	1173.742	953.009
311.022	26.836	1172.974	952.259
312.037	26.809	1172.191	951.396
313.052	26.731	1171.589	950.413
314.066	26.856	1170.491	950.093
315.081	26.906	1169.771	949.684
316.095	26.795	1169.302	948.641
317.110	26.807	1168.911	948.301
318.125	26.883	1168.031	947.905
319.139	26.768	1167.200	946.544
320.154	26.852	1166.699	946.493
321.168	26.785	1166.494	945.893
322.183	26.828	1165.695	945.386
323.197	26.828	1164.917	944.672
324.212	26.861	1164.571	944.475
325.227	26.971	1163.964	944.475
326.241	26.957	1163.423	943.878
327.256	26.982	1162.373	943.074
328.270	26.855	1162.114	942.120
329.285	26.989	1161.007	941.832
330.300	26.984	1160.266	941.124
331.314	26.941	1159.585	940.267
332.329	26.971	1158.686	939.607
333.343	27.006	1157.683	938.891
334.358	27.006	1156.707	938.017
335.373	27.039	1156.307	937.780
336.387	27.111	1155.980	937.805
337.402	27.148	1155.031	937.144
338.416	27.153	1154.111	936.342
339.431	27.035	1154.143	935.674
340.446	27.160	1153.184	935.460
341.460	27.101	1152.731	934.701
342.475	27.024	1151.927	933.575
343.489	27.089	1151.018	933.088
344.504	27.111	1149.961	932.260
345.519	27.152	1149.188	931.760
346.533	27.202	1148.765	931.595
347.548	27.122	1147.968	930.453
348.562	27.115	1147.389	929.868
349.577	27.121	1146.731	929.281
350.592	27.093	1145.719	928.235
351.606	27.116	1144.750	927.489
352.621	27.268	1144.147	927.694
353.635	27.234	1143.582	926.980
354.650	27.212	1143.332	926.580
355.665	27.314	1142.554	926.387
356.679	27.234	1142.233	925.641
357.694	27.168	1141.568	924.684
358.708	27.174	1140.715	923.939
359.723	27.293	1139.981	923.870
360.738	27.280	1139.312	923.180
361.752	27.295	1138.449	922.471
362.767	27.281	1138.383	922.270
363.781	27.316	1137.622	921.747
364.796	27.428	1137.064	921.779
365.810	27.237	1136.852	920.557
366.825	27.355	1135.802	920.227
367.840	27.421	1135.286	920.060
368.854	27.398	1134.808	919.477
369.869	27.481	1134.189	919.312
370.883	27.441	1133.267	918.279
371.898	27.394	1132.635	917.452
372.913	27.538	1131.847	917.454
373.927	27.488	1131.326	916.698
374.942	27.479	1131.152	916.430
375.956	27.509	1130.166	915.702
376.971	27.530	1129.574	915.250
377.986	27.581	1129.290	915.191
379.000	27.523	1129.393	914.904
380.015	27.581	1128.328	914.251
381.029	27.546	1127.549	913.366
382.044	27.526	1127.004	912.740
383.059	27.530	1126.416	912.205
384.073	27.623	1125.627	911.952
385.088	27.662	1124.933	911.504
386.102	27.578	1123.976	910.229
387.117	27.597	1123.049	909.492
388.132	27.567	1122.345	908.690
389.146	27.646	1121.679	908.464
390.161	27.702	1120.955	908.075
391.175	27.756	1120.153	907.612
392.190	27.609	1119.649	906.394
393.205	27.599	1119.187	905.891
394.219	27.716	1118.139	905.545
395.234	27.717	1117.479	904.932
396.248	27.716	1116.654	904.183
397.263	27.773	1115.675	903.588
398.278	27.854	1115.156	903.489
399.292	27.894	1114.434	903.021
400.307	27.752	1114.273	902.111
401.321	27.747	1113.781	901.610
402.336	27.772	1112.577	900.679
403.350	27.870	1111.911	900.544
404.365	27.854	1111.617	900.146
405.380	27.910	1110.342	899.307
406.394	27.883	1109.944	898.776
407.409	27.935	1109.359	898.474
408.423	27.859	1108.484	897.314
409.438	27.975	1107.777	897.232
410.453	27.926	1107.556	896.735
411.467	28.022	1106.316	896.122
412.482	27.970	1105.733	895.314
413.496	27.837	1105.377	894.298
414.511	28.001	1104.564	894.361
415.526	27.975	1104.060	893.747
416.540	27.985	1103.324	893.122
417.555	27.949	1103.029	892.629
418.569	27.974	1102.770	892.463
419.584	27.997	1102.077	891.932
420.599	28.019	1101.662	891.624
421.613	77.693	1281.056	1309.113
422.628	72.800	1307.203	1309.259
