DTS Sentinel unit serial number:	SN413079Multiplexer serial number:	ORYXHardware model number:	OX4-SRSoftware version number:	ORYX F/W v4.00 Oryx Data Collector v3.7.2.0data status	okinstallation	princeton_trtdifferential loss correction	single-endedforward channel	channel 2reverse channel	N/Adate	2019/09/17time	08:07:35forward acquisition time	60.00reverse acquisition time	0.00gamma	496.2192k internal	0.2334k external	0.2334temperature offset calibration	0.9973default loss term (dB/km)	0.3790temperature slope calibration	1.0000multiplexer offset coefficient	1.0000multiplexer slope coefficient	1.0000fibre end	0.00T internal ref (°C)	27.31T ext. ref 1 (°C)	0.12T ext. ref 2 (°C)	22.51length (m)	temperature (°C)	Stokes	anti-Stokes-747.200	10.584	0.304	0.233
-746.185	311.243	-0.189	0.355
-745.171	-143.549	0.230	0.022
-744.156	800.000	0.088	0.342
-743.142	-61.430	-0.136	0.058
-742.127	13.689	-0.230	-0.179
-741.112	24.245	-0.073	0.061
-740.098	-32.492	0.021	0.012
-739.083	478.685	0.148	0.338
-738.069	447.037	-0.107	0.236
-737.054	542.463	0.028	0.066
-736.039	-200.000	0.036	-0.263
-735.025	-200.000	-0.033	0.337
-734.010	-60.050	0.150	-0.064
-732.996	280.086	0.100	0.179
-731.981	-58.026	0.361	0.158
-730.966	-200.000	0.005	-0.068
-729.952	80.491	-0.081	0.088
-728.937	-75.687	0.175	-0.062
-727.923	267.756	-0.034	0.060
-726.908	-200.000	-0.009	-0.073
-725.894	-14.350	0.308	-0.199
-724.879	-200.000	-0.058	-0.294
-723.864	234.716	-0.022	-0.037
-722.850	54.487	0.122	-0.118
-721.835	259.194	0.092	0.160
-720.821	2.332	-0.155	-0.113
-719.806	-83.449	0.195	0.063
-718.791	-200.000	0.030	-0.161
-717.777	473.355	-0.108	0.245
-716.762	-200.000	0.000	-0.128
-715.748	800.000	0.107	-0.370
-714.733	-200.000	0.009	-0.216
-713.718	103.007	0.093	-0.110
-712.704	-200.000	-0.054	-0.247
-711.689	124.949	-0.182	0.230
-710.675	-200.000	0.000	0.064
-709.660	-200.000	0.024	0.154
-708.645	-3.884	-0.172	-0.120
-707.631	-152.923	0.432	0.031
-706.616	49.841	-0.208	-0.197
-705.602	-200.000	-0.008	-0.211
-704.587	60.290	-0.133	-0.133
-703.572	-200.000	0.034	-0.212
-702.558	-89.477	-0.291	-0.086
-701.543	13.224	-0.047	0.036
-700.529	800.000	-0.055	0.238
-699.514	-200.000	-0.029	0.417
-698.499	800.000	-0.049	-0.153
-697.485	-200.000	0.039	-0.208
-696.470	276.364	0.139	0.248
-695.456	-200.000	0.020	0.333
-694.441	1.169	0.325	-0.234
-693.426	-200.000	-0.036	0.338
-692.412	552.498	-0.113	0.272
-691.397	224.306	0.110	0.179
-690.383	-176.388	-0.305	-0.008
-689.368	-200.000	0.012	0.109
-688.354	151.070	0.076	0.103
-687.339	19.696	0.093	0.075
-686.324	17.161	-0.181	-0.144
-685.310	480.836	0.108	-0.245
-684.295	378.819	0.138	0.283
-683.281	100.309	-0.202	0.235
-682.266	10.589	-0.240	-0.184
-681.251	-7.401	-0.223	-0.151
-680.237	-32.730	0.296	0.165
-679.222	-110.550	0.112	-0.023
-678.208	-83.099	0.165	-0.053
-677.193	-90.516	-0.254	0.074
-676.178	800.000	0.047	-0.189
-675.164	-55.573	0.336	-0.151
-674.149	27.640	0.129	0.109
-673.135	9.448	-0.078	0.059
-672.120	-200.000	0.020	0.241
-671.105	-200.000	-0.006	-0.148
-670.091	-81.078	0.127	-0.042
-669.076	45.972	0.348	-0.323
-668.062	164.111	-0.207	-0.293
-667.047	407.179	0.068	-0.144
-666.032	-109.909	-0.124	0.026
-665.018	322.023	0.028	0.054
-664.003	-113.024	0.226	0.045
-662.989	-132.772	-0.171	-0.022
-661.974	129.250	-0.043	-0.055
-660.959	57.896	-0.235	-0.230
-659.945	89.575	-0.164	0.184
-658.930	-79.261	0.405	-0.138
-657.916	315.983	-0.055	0.104
-656.901	-107.803	-0.240	0.052
-655.886	-200.000	0.003	0.059
-654.872	143.406	0.136	-0.181
-653.857	573.124	-0.039	0.096
-652.843	-120.998	-0.074	0.012
-651.828	-200.000	-0.037	-0.193
-650.814	-30.792	0.196	0.111
-649.799	-175.710	0.196	-0.005
-648.784	88.982	-0.185	0.206
-647.770	-63.132	0.280	0.116
-646.755	729.076	-0.069	-0.186
-645.741	249.094	0.218	0.371
-644.726	-124.247	-0.107	0.017
-643.711	-149.932	-0.173	0.014
-642.697	278.120	0.055	0.098
-641.682	-200.000	0.032	-0.167
-640.668	-74.996	-0.299	-0.107
-639.653	800.000	-0.069	-0.266
-638.638	140.710	0.151	-0.200
-637.624	244.302	0.077	0.129
-636.609	-200.000	-0.008	0.168
-635.595	263.433	-0.063	0.109
-634.580	-18.415	-0.251	-0.157
-633.565	-89.046	0.361	0.107
-632.551	-62.506	-0.154	0.064
-631.536	-72.287	-0.217	0.080
-630.522	49.082	-0.228	0.215
-629.507	108.795	0.147	0.176
-628.492	139.708	0.057	0.075
-627.478	-200.000	0.044	0.241
-626.463	800.000	0.040	-0.167
-625.449	-188.108	-0.157	-0.002
-624.434	64.406	0.104	0.105
-623.419	443.495	-0.162	-0.356
-622.405	-57.991	0.132	-0.058
-621.390	-69.058	-0.333	-0.128
-620.376	160.049	-0.175	-0.244
-619.361	196.104	-0.182	0.277
-618.346	1.036	-0.260	0.187
-617.332	50.562	-0.225	-0.213
-616.317	3.227	0.136	-0.099
-615.303	613.222	-0.033	-0.083
-614.288	-200.000	-0.028	-0.202
-613.273	-66.562	-0.172	0.068
-612.259	-95.133	-0.163	-0.044
-611.244	-96.357	0.224	0.059
-610.230	560.340	-0.062	-0.149
-609.215	532.195	-0.157	-0.373
-608.201	70.318	-0.265	-0.274
-607.186	502.061	0.072	-0.166
-606.171	-11.735	-0.111	-0.073
-605.157	648.944	-0.116	0.297
-604.142	319.930	0.041	-0.077
-603.128	62.381	-0.213	0.212
-602.113	800.000	-0.068	0.257
-601.098	800.000	0.032	-0.095
-600.084	73.093	0.175	-0.183
-599.069	216.849	-0.193	0.308
-598.055	83.829	-0.237	0.258
-597.040	81.164	0.226	0.244
-596.025	-7.210	-0.311	0.211
-595.011	-155.198	0.363	-0.024
-593.996	0.778	0.124	0.089
-592.982	-130.126	-0.276	0.038
-591.967	800.000	0.112	-0.417
-590.952	-200.000	-0.011	-0.100
-589.938	-97.126	-0.241	-0.063
-588.923	-32.243	-0.319	-0.178
-587.909	-19.021	0.222	-0.138
-586.894	-200.000	-0.031	0.299
-585.879	800.000	0.031	-0.117
-584.865	642.325	0.059	-0.151
-583.850	800.000	0.038	-0.148
-582.836	-168.297	-0.144	0.006
-581.821	-106.845	-0.127	0.028
-580.806	34.058	0.021	0.019
-579.792	490.846	0.079	0.181
-578.777	36.168	-0.161	0.142
-577.763	-78.107	0.139	0.048
-576.748	-157.514	-0.325	0.019
-575.733	-32.450	-0.264	0.147
-574.719	149.531	-0.118	-0.160
-573.704	-179.506	0.117	-0.003
-572.690	-82.567	0.224	-0.073
-571.675	179.933	0.043	-0.062
-570.661	106.225	0.013	-0.016
-569.646	-37.675	-0.172	-0.091
-568.631	800.000	0.014	-0.058
-567.617	-137.856	-0.063	-0.007
-566.602	-27.533	0.294	0.171
-565.588	626.719	-0.175	-0.441
-564.573	-28.640	-0.167	0.096
-563.558	-23.158	-0.347	-0.209
-562.544	-14.900	0.065	-0.041
-561.529	59.616	0.257	-0.253
-560.515	305.579	-0.018	-0.033
-559.500	-166.659	-0.515	0.021
-558.485	7.560	-0.226	0.168
-557.471	18.543	0.223	0.178
-556.456	-84.637	-0.329	0.103
-555.442	-200.000	-0.025	-0.238
-554.427	800.000	-0.064	-0.250
-553.412	-200.000	0.030	-0.245
-552.398	800.000	0.115	0.417
-551.383	-93.997	-0.203	-0.055
-550.369	13.668	0.110	0.086
-549.354	-200.000	0.000	0.065
-548.339	-18.060	0.112	-0.070
-547.325	199.594	0.059	0.091
-546.310	-17.715	0.155	-0.097
-545.296	24.896	-0.138	0.114
-544.281	130.779	-0.091	0.116
-543.266	41.207	-0.208	0.187
-542.252	-200.000	-0.021	0.107
-541.237	-74.207	-0.149	-0.054
-540.223	216.750	-0.089	0.141
-539.208	-154.346	-0.215	-0.014
-538.193	144.480	-0.040	0.053
-537.179	685.328	-0.141	0.368
-536.164	800.000	0.050	-0.168
-535.150	300.441	0.035	-0.065
-534.135	-200.000	-0.001	0.011
-533.121	-173.373	0.244	0.007
-532.106	-10.990	0.285	-0.188
-531.091	-200.000	-0.031	0.156
-530.077	-200.000	0.033	0.228
-529.062	-119.264	-0.167	-0.029
-528.048	-140.015	0.105	0.011
-527.033	-200.000	0.026	-0.119
-526.018	-107.661	-0.190	-0.041
-525.004	-181.300	0.243	-0.005
-523.989	-200.000	0.057	0.323
-522.975	800.000	0.004	-0.018
-521.960	103.452	-0.069	0.080
-520.945	336.070	-0.084	-0.162
-519.931	209.487	-0.187	-0.292
-518.916	-125.490	-0.259	-0.039
-517.902	7.862	-0.196	0.146
-516.887	118.785	0.137	0.169
-515.872	94.536	-0.098	0.111
-514.858	800.000	-0.077	-0.213
-513.843	-114.692	0.192	-0.037
-512.829	30.394	-0.156	0.132
-511.814	800.000	0.077	0.254
-510.799	-1.317	-0.097	0.068
-509.785	3.780	-0.351	-0.255
-508.770	-40.908	0.255	-0.131
-507.756	800.000	0.090	0.330
-506.741	800.000	-0.090	0.278
-505.726	-19.182	0.157	0.097
-504.712	800.000	-0.016	0.063
-503.697	-102.080	0.120	0.029
-502.683	-24.519	-0.181	0.107
-501.668	-200.000	-0.008	-0.212
-500.653	243.867	0.178	0.298
-499.639	135.545	-0.173	0.225
-498.624	-62.590	-0.369	-0.152
-497.610	104.950	-0.134	-0.158
-496.595	-139.642	-0.381	-0.040
-495.581	476.819	0.071	0.160
-494.566	-76.145	-0.078	0.027
-493.551	-118.586	0.510	-0.090
-492.537	-150.629	-0.363	0.028
-491.522	127.797	-0.037	0.047
-490.508	-78.337	-0.142	0.048
-489.493	-82.362	-0.100	0.032
-488.478	36.477	-0.165	-0.145
-487.464	218.151	0.025	0.039
-486.449	-14.416	-0.288	0.184
-485.435	7.195	0.120	0.089
-484.420	-31.470	0.137	0.077
-483.405	2.269	-0.091	0.066
-482.391	-140.738	0.056	0.006
-481.376	-70.090	0.273	0.103
-480.362	32.422	0.091	-0.078
-479.347	146.691	0.119	0.160
-478.332	-200.000	0.054	-0.317
-477.318	-116.603	-0.313	-0.057
-476.303	-200.000	0.012	-0.241
-475.289	-84.475	0.474	0.149
-474.274	145.436	0.124	0.165
-473.259	-24.085	-0.342	-0.203
-472.245	800.000	0.017	0.072
-471.230	-200.000	-0.031	-0.345
-470.216	-90.006	0.553	0.161
-469.201	-20.430	-0.161	-0.098
-468.186	579.082	0.069	0.168
-467.172	-36.681	0.330	-0.176
-466.157	-122.957	0.250	0.040
-465.143	-34.807	-0.134	-0.073
-464.128	-112.460	-0.130	0.026
-463.113	47.278	0.182	0.168
-462.099	44.342	0.160	0.146
-461.084	-6.959	-0.219	0.148
-460.070	-101.556	-0.275	-0.066
-459.055	800.000	0.092	-0.265
-458.040	-130.145	-0.316	-0.043
-457.026	800.000	-0.101	0.408
-456.011	-47.632	0.108	0.052
-454.997	800.000	0.006	0.025
-453.982	40.839	-0.188	0.169
-452.968	-87.077	-0.229	0.069
-451.953	-67.738	0.235	-0.092
-450.938	171.126	0.157	-0.223
-449.924	129.722	-0.208	-0.265
-448.909	-181.712	0.220	0.004
-447.895	-144.663	0.239	0.022
-446.880	41.809	0.056	0.051
-445.865	-200.000	0.050	-0.283
-444.851	-123.477	-0.285	-0.045
-443.836	375.724	0.093	0.188
-442.822	-154.069	-0.197	-0.013
-441.807	111.179	0.190	-0.227
-440.792	-41.189	-0.201	0.103
-439.778	-44.287	0.301	0.150
-438.763	59.343	0.204	-0.200
-437.749	800.000	0.046	-0.143
-436.734	-47.929	-0.257	0.124
-435.719	-8.424	-0.092	-0.062
-434.705	-111.134	0.570	-0.116
-433.690	-63.494	-0.090	-0.037
-432.676	247.421	-0.079	-0.133
-431.661	-91.981	0.340	-0.096
-430.646	71.451	0.319	-0.329
-429.632	-81.524	0.150	-0.049
-428.617	83.009	0.067	-0.073
-427.603	-57.066	0.265	0.116
-426.588	-37.796	0.146	0.077
-425.573	-40.064	-0.091	-0.047
-424.559	262.371	0.118	-0.203
-423.544	655.288	-0.101	0.256
-422.530	-200.000	0.007	0.409
-421.515	-200.000	0.022	-0.100
-420.500	18.573	0.188	-0.149
-419.486	-189.653	-0.127	0.001
-418.471	75.158	-0.181	0.189
-417.457	197.304	-0.244	0.370
-416.442	703.635	-0.021	0.054
-415.428	-200.000	0.024	-0.149
-414.413	-41.911	-0.155	0.079
-413.398	384.139	-0.176	0.361
-412.384	-179.753	0.073	-0.002
-411.369	340.098	-0.094	0.183
-410.355	99.197	-0.010	0.011
-409.340	-59.428	-0.072	0.031
-408.325	800.000	0.014	0.051
-407.311	204.942	-0.185	-0.284
-406.296	-50.448	0.381	-0.178
-405.282	19.532	0.085	-0.068
-404.267	-200.000	0.020	-0.273
-403.252	39.123	0.109	-0.097
-402.238	50.470	0.171	0.161
-401.223	-153.422	-0.350	0.024
-400.209	-58.644	-0.160	-0.069
-399.194	121.815	-0.168	-0.208
-398.179	-200.000	0.014	-0.135
-397.165	-105.289	-0.139	0.031
-396.150	-170.752	0.249	0.009
-395.136	-32.632	0.254	-0.140
-394.121	-59.647	0.153	-0.065
-393.106	-200.000	0.004	0.075
-392.092	-200.000	-0.054	-0.266
-391.077	-163.683	0.337	-0.016
-390.063	-110.514	-0.345	-0.071
-389.048	105.249	-0.153	0.179
-388.033	201.725	0.202	-0.309
-387.019	-85.099	0.254	0.079
-386.004	380.236	-0.085	0.173
-384.990	800.000	0.059	0.204
-383.975	-78.104	-0.101	-0.034
-382.960	30.705	0.229	0.194
-381.946	19.948	-0.265	-0.212
-380.931	-200.000	-0.027	-0.160
-379.917	-33.481	-0.174	0.095
-378.902	-27.403	-0.147	0.085
-377.888	19.367	-0.203	-0.162
-376.873	-114.676	0.276	-0.052
-375.858	633.417	-0.060	0.150
-374.844	-101.807	0.099	0.024
-373.829	800.000	0.059	0.206
-372.815	800.000	-0.084	0.267
-371.800	-96.477	0.045	-0.012
-370.785	470.703	-0.057	0.128
-369.771	214.596	0.258	-0.406
-368.756	-96.560	-0.181	0.047
-367.742	-200.000	0.025	-0.138
-366.727	-116.911	0.308	0.056
-365.712	346.202	0.218	0.425
-364.698	21.671	0.181	-0.146
-363.683	800.000	-0.110	-0.338
-362.669	439.989	-0.130	0.282
-361.654	25.345	0.114	-0.094
-360.639	-171.679	0.344	0.011
-359.625	-200.000	0.001	0.199
-358.610	357.950	0.105	0.207
-357.596	-111.597	-0.543	-0.109
-356.581	-200.000	0.008	-0.184
-355.566	-29.802	0.103	-0.058
-354.552	-200.000	0.033	-0.291
-353.537	800.000	-0.136	0.410
-352.523	-138.471	-0.143	0.016
-351.508	100.582	0.159	0.182
-350.493	800.000	0.112	0.367
-349.479	490.528	0.039	0.089
-348.464	-28.345	0.276	0.158
-347.450	38.253	-0.080	-0.071
-346.435	132.581	0.170	-0.216
-345.420	182.577	0.148	0.216
-344.406	800.000	0.221	0.630
-343.391	-10.411	0.139	0.091
-342.377	800.000	0.124	-0.353
-341.362	-106.516	0.064	-0.014
-340.348	-35.866	-0.199	-0.107
-339.333	94.179	-0.079	0.089
-338.318	636.733	-0.048	-0.120
-337.304	98.664	0.179	0.204
-336.289	460.491	-0.071	-0.156
-335.275	-104.024	-0.104	-0.024
-334.260	13.079	0.365	0.280
-333.245	-200.000	0.040	0.188
-332.231	-200.000	0.051	0.450
-331.216	-200.000	-0.003	-0.226
-330.202	-200.000	0.008	0.268
-329.187	-200.000	0.213	0.000
-328.172	238.209	0.126	0.207
-327.158	800.000	0.093	0.322
-326.143	288.106	-0.046	-0.081
-325.129	127.972	-0.225	0.283
-324.114	52.760	0.157	-0.148
-323.099	800.000	-0.018	-0.076
-322.085	126.041	-0.107	0.133
-321.070	-84.344	0.137	0.043
-320.056	261.361	0.092	-0.158
-319.041	112.721	0.063	-0.076
-318.026	-86.536	0.220	-0.067
-317.012	-200.000	0.007	0.248
-315.997	70.544	-0.185	0.189
-314.983	248.384	0.137	0.229
-313.968	470.093	-0.097	0.216
-312.953	292.669	-0.141	-0.254
-311.939	59.289	-0.210	-0.205
-310.924	800.000	0.113	-0.360
-309.910	781.491	0.077	0.208
-308.895	301.634	0.120	0.220
-307.880	715.619	-0.138	-0.362
-306.866	-69.251	0.312	0.118
-305.851	-161.558	0.356	0.018
-304.837	1.163	-0.275	-0.195
-303.822	26.175	-0.025	0.021
-302.807	-200.000	0.004	0.205
-301.793	-29.342	0.181	-0.103
-300.778	-38.802	-0.100	-0.052
-299.764	111.544	0.128	-0.153
-298.749	-88.712	-0.072	0.021
-297.735	399.823	0.253	0.523
-296.720	-200.000	0.060	-0.375
-295.705	182.140	0.146	0.213
-294.691	-91.804	-0.246	-0.069
-293.676	525.098	0.140	-0.325
-292.662	335.752	0.123	-0.235
-291.647	24.874	0.315	-0.258
-290.632	255.192	-0.097	-0.165
-289.618	-44.073	0.197	-0.097
-288.603	101.111	-0.203	-0.233
-287.589	-200.000	0.025	-0.306
-286.574	-78.667	0.243	-0.082
-285.559	-103.356	0.123	0.029
-284.545	-45.191	-0.045	-0.022
-283.530	800.000	-0.038	0.160
-282.516	-28.389	-0.256	-0.146
-281.501	-14.048	0.302	-0.193
-280.486	670.888	0.012	0.031
-279.472	-65.013	0.079	0.031
-278.457	-32.983	-0.243	-0.133
-277.443	79.727	-0.209	-0.221
-276.428	-75.999	-0.124	0.043
-275.413	121.904	-0.141	0.173
-274.399	-200.000	0.007	-0.431
-273.384	292.713	-0.126	-0.226
-272.370	72.654	0.096	0.099
-271.355	297.269	-0.211	0.382
-270.340	63.017	0.169	-0.167
-269.326	-78.067	-0.314	-0.107
-268.311	-162.102	-0.300	0.015
-267.297	552.514	-0.032	-0.076
-266.282	-200.000	-0.079	-0.429
-265.267	396.097	0.025	-0.051
-264.253	-200.000	-0.008	0.062
-263.238	-118.685	0.129	0.023
-262.224	171.681	0.207	-0.293
-261.209	578.061	0.032	0.077
-260.195	-156.916	-0.200	-0.012
-259.180	32.207	-0.140	0.119
-258.165	734.104	-0.059	0.155
-257.151	-49.214	0.351	-0.165
-256.136	-200.000	-0.035	0.339
-255.122	-49.061	0.092	-0.043
-254.107	163.964	-0.196	-0.272
-253.092	167.499	-0.095	0.133
-252.078	626.036	0.061	0.153
-251.063	211.561	-0.145	0.225
-250.049	428.982	0.102	0.217
-249.034	-66.606	-0.052	0.020
-248.019	-21.634	0.482	-0.289
-247.005	-200.000	0.004	0.035
-245.990	-40.408	-0.084	0.043
-244.976	800.000	0.065	-0.190
-243.961	800.000	-0.125	0.487
-242.946	-188.753	0.230	0.003
-241.932	-200.000	0.020	-0.107
-240.917	18.269	-0.208	0.164
-239.903	-200.000	0.010	-0.227
-238.888	125.710	-0.167	-0.208
-237.873	-1.728	0.203	0.141
-236.859	-200.000	0.009	-0.427
-235.844	24.107	-0.253	-0.206
-234.830	800.000	0.098	-0.300
-233.815	-42.951	-0.161	-0.081
-232.800	48.750	0.176	-0.163
-231.786	222.008	0.016	-0.025
-230.771	-93.611	0.102	0.028
-229.757	337.561	0.147	-0.282
-228.742	-200.000	-0.002	-0.081
-227.727	128.067	-0.277	-0.347
-226.713	52.970	0.232	-0.219
-225.698	99.482	0.153	0.175
-224.684	495.712	0.040	0.090
-223.669	155.252	0.157	0.213
-222.655	11.281	0.096	-0.072
-221.640	-106.231	0.017	0.004
-220.625	595.722	-0.125	-0.304
-219.611	-137.645	0.193	0.021
-218.596	-166.722	-0.277	-0.011
-217.582	-81.012	0.252	0.082
-216.567	800.000	0.036	0.100
-215.552	-200.000	-0.054	0.243
-214.538	9.608	-0.230	0.171
-213.523	-46.319	0.292	-0.141
-212.509	-86.813	-0.229	0.069
-211.494	-200.000	-0.002	-0.359
-210.479	52.857	0.297	0.280
-209.465	800.000	0.081	0.311
-208.450	-42.115	0.194	-0.098
-207.436	187.547	0.092	0.135
-206.421	-180.024	0.335	-0.007
-205.406	91.988	-0.318	-0.352
-204.392	-173.404	0.121	-0.004
-203.377	143.890	-0.009	-0.012
-202.363	16.590	0.115	-0.089
-201.348	17.607	-0.066	-0.051
-200.333	32.700	-0.066	-0.057
-199.319	-108.530	-0.161	-0.034
-198.304	72.394	-0.031	-0.032
-197.290	231.119	-0.071	0.115
-196.275	62.176	0.156	0.154
-195.260	686.849	-0.065	0.167
-194.246	-76.654	0.434	-0.150
-193.231	258.613	-0.136	-0.231
-192.217	-200.000	0.018	-0.083
-191.202	44.517	-0.069	0.062
-190.187	-200.000	-0.065	-0.349
-189.173	56.359	0.400	-0.382
-188.158	23.853	0.175	-0.142
-187.144	-57.273	0.455	0.197
-186.129	-57.588	-0.262	0.113
-185.114	148.223	0.084	0.112
-184.100	-200.000	0.264	-0.001
-183.085	-24.847	0.053	0.031
-182.071	754.699	0.049	-0.130
-181.056	-148.065	-0.250	-0.020
-180.042	-200.000	0.010	0.092
-179.027	-154.258	0.173	0.011
-178.012	-16.078	-0.217	0.136
-176.998	-197.514	0.063	-0.000
-175.983	-165.722	-0.126	-0.005
-174.969	-82.071	0.338	0.109
-173.954	800.000	0.120	0.390
-172.939	444.973	-0.125	0.270
-171.925	106.208	0.252	0.294
-170.910	-200.000	0.001	0.089
-169.896	51.197	-0.172	0.160
-168.881	144.418	-0.203	0.267
-167.866	-200.000	0.041	-0.185
-166.852	71.654	-0.228	0.232
-165.837	777.574	-0.035	-0.093
-164.823	310.415	-0.078	0.144
-163.808	-79.689	-0.354	-0.117
-162.793	-200.000	0.039	-0.341
-161.779	681.739	-0.097	0.249
-160.764	-39.515	0.216	-0.111
-159.750	647.439	-0.022	-0.054
-158.735	-85.994	-0.072	-0.022
-157.720	-113.826	0.198	0.038
-156.706	106.214	-0.186	-0.217
-155.691	179.997	-0.117	0.169
-154.677	-166.284	-0.180	0.007
-153.662	267.316	0.033	-0.057
-152.647	-200.000	0.082	-0.384
-151.633	0.432	-0.228	0.160
-150.618	-80.866	0.125	0.041
-149.604	-37.032	-0.149	-0.078
-148.589	-200.000	0.017	0.149
-147.574	-112.307	-0.110	0.022
-146.560	65.441	0.279	0.277
-145.545	-8.227	-0.089	-0.059
-144.531	606.759	-0.026	-0.064
-143.516	219.205	0.219	0.344
-142.502	-119.575	0.226	-0.038
-141.487	-27.813	0.041	0.023
-140.472	42.219	-0.235	-0.210
-139.458	-82.549	0.204	-0.065
-138.443	-38.770	-0.308	0.159
-137.429	15.172	0.135	0.104
-136.414	-55.712	-0.167	0.073
-135.399	220.526	-0.087	0.137
-134.385	-124.916	0.234	0.035
-133.370	215.721	0.130	-0.203
-132.356	129.061	-0.030	-0.037
-131.341	732.053	-0.136	0.356
-130.326	18.059	-0.064	-0.050
-129.312	-200.000	0.018	0.125
-128.297	-200.000	0.012	0.305
-127.283	-200.000	0.080	-0.389
-126.268	117.834	0.162	0.196
-125.253	800.000	-0.076	0.322
-124.239	-200.000	0.027	0.237
-123.224	-133.561	0.211	0.026
-122.210	-200.000	0.031	-0.219
-121.195	-131.827	-0.171	-0.022
-120.180	107.762	0.071	0.083
-119.166	800.000	0.029	0.084
-118.151	30.633	0.184	0.155
-117.137	52.272	0.097	0.091
-116.122	-50.708	0.175	0.081
-115.107	-129.682	-0.408	0.055
-114.093	-11.174	0.123	0.079
-113.078	800.000	-0.087	-0.243
-112.064	800.000	0.034	0.130
-111.049	-8.675	0.195	-0.128
-110.034	-79.932	0.304	0.100
-109.020	800.000	0.049	0.200
-108.005	114.069	-0.146	-0.174
-106.991	-200.000	-0.027	0.129
-105.976	-200.000	0.017	0.139
-104.962	344.645	-0.154	0.297
-103.947	-10.151	0.112	-0.073
-102.932	800.000	0.050	0.186
-101.918	-200.000	0.015	0.141
-100.903	11.859	0.196	-0.147
-99.889	-115.139	-0.322	0.060
-98.874	560.130	-0.095	-0.224
-97.859	-140.296	-0.253	-0.026
-96.845	-47.348	0.073	0.035
-95.830	119.317	0.144	-0.174
-94.816	-8.812	-0.088	-0.058
-93.801	127.334	-0.119	0.148
-92.786	-200.000	0.004	0.286
-91.772	-19.806	-0.176	-0.106
-90.757	-102.973	0.062	-0.014
-89.743	-191.068	-0.023	-0.000
-88.728	-94.087	-0.117	0.032
-87.713	221.825	0.075	-0.118
-86.699	800.000	-0.024	-0.075
-85.684	-200.000	-0.057	0.429
-84.670	319.143	0.097	-0.180
-83.655	-95.280	-0.078	0.021
-82.640	800.000	0.039	-0.119
-81.626	-71.962	0.135	-0.049
-80.611	10.551	-0.154	-0.115
-79.597	800.000	-0.041	-0.167
-78.582	291.038	-0.172	0.306
-77.567	-54.112	0.129	0.058
-76.553	442.855	-0.035	0.074
-75.538	212.983	0.199	-0.307
-74.524	-6.529	0.307	-0.205
-73.509	86.361	0.167	0.181
-72.494	-200.000	0.032	-0.286
-71.480	-200.000	-0.017	-0.210
-70.465	85.240	0.191	0.205
-69.451	-46.111	0.163	-0.078
-68.436	-200.000	-0.048	-0.236
-67.422	175.272	0.180	0.255
-66.407	-200.000	0.030	0.513
-65.392	800.000	-0.084	0.282
-64.378	-64.125	0.303	0.121
-63.363	767.011	0.087	0.232
-62.349	-200.000	-0.014	-0.090
-61.334	49.137	-1.061	-0.975
-60.319	-67.639	0.570	0.218
-59.305	678.757	-0.459	-1.167
-58.290	318.405	0.574	1.064
-57.276	686.568	0.702	1.796
-56.261	-200.000	113.405	641.815
-55.246	468.961	1506.877	3310.551
-54.232	146.871	2680.095	3525.882
-53.217	96.801	2289.822	2567.205
-52.203	36.300	1899.395	1638.198
-51.188	30.509	1689.060	1412.855
-50.173	27.955	1647.561	1359.118
-49.159	49.810	1702.652	1570.215
-48.144	48.478	1716.683	1573.051
-47.130	30.086	1675.113	1397.778
-46.115	27.351	1660.984	1365.449
-45.100	27.228	1656.064	1360.429
-44.086	27.184	1653.313	1357.783
-43.071	27.195	1650.678	1355.649
-42.057	27.161	1648.560	1353.600
-41.042	27.241	1646.287	1352.275
-40.027	27.158	1644.778	1350.366
-39.013	27.287	1642.201	1349.155
-37.998	27.139	1640.895	1346.933
-36.984	27.188	1639.563	1346.144
-35.969	27.218	1638.378	1345.341
-34.954	27.337	1636.180	1344.362
-33.940	27.315	1634.830	1343.037
-32.925	27.267	1633.395	1341.450
-31.911	27.284	1631.317	1339.820
-30.896	27.285	1629.231	1338.061
-29.881	27.320	1627.194	1336.592
-28.867	27.263	1626.175	1335.282
-27.852	27.382	1624.259	1334.530
-26.838	27.283	1622.798	1332.551
-25.823	27.362	1621.554	1332.055
-24.809	27.438	1620.400	1331.608
-23.794	27.319	1619.152	1329.663
-22.779	27.273	1617.595	1327.994
-21.765	27.319	1616.214	1327.145
-20.750	27.257	1614.080	1324.885
-19.736	27.320	1613.475	1324.797
-18.721	27.328	1612.145	1323.711
-17.706	27.363	1610.286	1322.385
-16.692	27.300	1609.205	1320.987
-15.677	27.254	1607.795	1319.445
-14.663	27.405	1605.892	1318.925
-13.648	27.418	1604.506	1317.827
-12.633	27.447	1603.215	1316.925
-11.619	27.368	1601.542	1314.928
-10.604	27.375	1600.298	1313.905
-9.590	27.313	1599.107	1312.426
-8.575	27.419	1597.280	1311.638
-7.560	27.314	1596.528	1310.214
-6.546	27.344	1595.420	1309.464
-5.531	27.349	1594.875	1309.007
-4.517	27.285	1593.339	1307.232
-3.502	27.404	1591.710	1306.697
-2.487	27.478	1590.231	1305.963
-1.473	27.189	1578.431	1294.163
-0.458	24.417	1559.605	1259.149
0.556	19.236	1560.538	1228.408
1.571	16.837	1584.420	1229.709
2.586	16.428	1597.241	1236.558
3.600	15.104	1543.702	1185.636
4.615	8.396	1436.000	1058.502
5.629	1.564	1373.434	968.882
6.644	0.280	1365.309	954.929
7.659	0.077	1365.229	953.500
8.673	0.115	1363.671	952.570
9.688	0.018	1361.818	950.579
10.702	-0.194	1358.741	947.011
11.717	3.231	1363.218	971.689
12.731	11.112	1375.445	1030.350
13.746	16.391	1382.948	1069.382
14.761	17.007	1383.109	1073.310
15.775	16.123	1380.392	1065.521
16.790	15.112	1377.853	1057.087
17.804	14.431	1375.356	1050.786
18.819	14.024	1374.414	1047.410
19.834	13.799	1372.910	1044.755
20.848	13.541	1371.719	1042.132
21.863	13.345	1370.264	1039.705
22.877	13.171	1369.034	1037.587
23.892	13.017	1368.097	1035.816
24.907	13.009	1367.837	1035.478
25.921	13.148	1366.494	1035.238
26.936	13.126	1365.669	1034.387
27.950	13.210	1364.534	1033.959
28.965	13.257	1363.551	1033.419
29.980	13.279	1362.811	1032.902
30.994	13.347	1362.093	1032.692
32.009	13.441	1360.999	1032.360
33.023	13.331	1360.224	1030.992
34.038	13.361	1358.573	1029.835
35.053	13.285	1357.759	1028.655
36.067	13.266	1356.242	1027.300
37.082	13.369	1354.912	1026.837
38.096	13.317	1354.524	1026.129
39.111	13.283	1353.814	1025.292
40.126	13.158	1353.261	1024.005
41.140	13.133	1352.217	1022.974
42.155	13.171	1351.696	1022.721
43.169	13.095	1351.575	1022.070
44.184	13.170	1350.803	1021.860
45.199	13.194	1350.102	1021.385
46.213	13.202	1349.898	1021.195
47.228	13.301	1348.966	1021.008
48.242	13.244	1347.802	1019.684
49.257	13.227	1346.581	1018.564
50.271	13.252	1345.186	1017.573
51.286	13.166	1344.057	1016.102
52.301	13.220	1342.922	1015.487
53.315	13.154	1341.516	1013.930
54.330	13.109	1340.999	1013.172
55.344	13.130	1339.349	1011.964
56.359	13.150	1338.560	1011.402
57.374	13.124	1337.483	1010.336
58.388	13.051	1337.020	1009.453
59.403	13.031	1336.208	1008.625
60.417	13.033	1335.921	1008.333
61.432	12.942	1334.927	1006.941
62.447	12.978	1333.622	1006.088
63.461	12.998	1332.350	1005.156
64.476	12.932	1331.518	1004.039
65.490	12.929	1330.613	1003.249
66.505	13.029	1328.712	1002.339
67.520	13.109	1327.330	1001.693
68.534	13.140	1326.221	1000.951
69.549	13.110	1325.233	999.939
70.563	13.032	1323.994	998.440
71.578	13.089	1322.733	997.744
72.593	12.943	1322.031	996.248
73.607	12.954	1321.575	995.881
74.622	12.946	1320.654	995.049
75.636	12.962	1319.670	994.317
76.651	12.925	1318.879	993.414
77.666	12.988	1318.579	993.480
78.680	12.965	1318.346	993.075
79.695	12.941	1317.235	992.008
80.709	12.972	1316.481	991.539
81.724	13.128	1314.897	991.194
82.739	13.123	1314.302	990.628
83.753	13.103	1313.701	989.964
84.768	13.222	1312.501	989.689
85.782	13.398	1310.629	989.238
86.797	13.217	1310.108	987.679
87.812	13.207	1308.884	986.605
88.826	13.152	1307.398	985.075
89.841	13.282	1306.799	985.308
90.855	13.222	1305.671	984.015
91.870	13.251	1304.847	983.477
92.884	13.177	1304.369	982.588
93.899	13.361	1303.176	982.696
94.914	13.303	1302.650	981.870
95.928	13.421	1301.751	981.805
96.943	13.411	1300.327	980.586
97.957	13.324	1299.558	979.402
98.972	13.255	1299.109	978.570
99.987	13.188	1298.207	977.407
101.001	13.283	1296.936	976.927
102.016	13.318	1295.522	975.983
103.030	13.286	1294.537	974.963
104.045	13.289	1293.828	974.364
105.060	13.267	1292.281	972.980
106.074	13.201	1291.038	971.573
107.089	13.052	1290.273	970.033
108.103	13.138	1288.604	969.198
109.118	13.131	1287.539	968.272
110.133	13.114	1286.255	967.121
111.147	13.061	1285.004	965.784
112.162	13.056	1283.797	964.760
113.176	13.222	1282.636	964.773
114.191	13.099	1282.261	963.684
115.206	13.210	1280.642	963.034
116.220	13.185	1279.182	961.704
117.235	13.196	1278.541	961.199
118.249	13.242	1277.306	960.452
119.264	13.167	1276.182	959.090
120.279	13.034	1275.800	957.944
121.293	13.188	1274.315	957.635
122.308	12.993	1274.195	956.330
123.322	13.164	1272.627	956.062
124.337	13.071	1271.849	954.851
125.352	13.144	1270.174	953.931
126.366	13.160	1268.909	952.989
127.381	13.009	1268.649	951.843
128.395	13.165	1267.246	951.602
129.410	13.101	1266.542	950.619
130.424	13.154	1265.667	950.188
131.439	13.165	1264.673	949.420
132.454	13.127	1263.569	948.289
133.468	13.211	1263.235	948.432
134.483	13.174	1262.490	947.577
135.497	13.162	1261.002	946.312
136.512	13.128	1259.701	945.058
137.527	13.162	1258.544	944.298
138.541	13.145	1257.123	943.054
139.556	13.256	1255.494	942.380
140.570	13.231	1254.747	941.592
141.585	13.158	1253.495	940.155
142.600	13.355	1252.076	940.124
143.614	13.302	1251.213	939.097
144.629	13.497	1249.960	939.178
145.643	13.397	1249.337	938.056
146.658	13.369	1247.838	936.692
147.673	13.299	1246.461	935.181
148.687	13.283	1245.450	934.249
149.702	13.440	1243.638	933.693
150.716	13.304	1242.652	932.101
151.731	13.294	1241.372	931.003
152.746	13.228	1240.354	929.786
153.760	13.290	1239.164	929.162
154.775	13.467	1237.908	929.129
155.789	13.458	1236.897	928.236
156.804	13.506	1235.524	927.392
157.819	13.468	1234.852	926.598
158.833	13.505	1233.923	926.023
159.848	13.558	1232.357	925.063
160.862	13.454	1231.757	923.952
161.877	13.476	1230.880	923.334
162.892	13.336	1229.672	921.562
163.906	13.394	1229.067	921.352
164.921	13.498	1227.612	920.757
165.935	13.534	1226.982	920.405
166.950	13.582	1226.162	919.976
167.964	13.488	1225.734	919.048
168.979	13.443	1225.009	918.175
169.994	13.574	1223.961	918.032
171.008	13.558	1223.072	917.201
172.023	13.618	1222.627	917.118
173.037	13.640	1221.888	916.600
174.052	13.556	1220.770	915.219
175.067	13.586	1219.828	914.597
176.081	13.536	1219.073	913.676
177.096	13.442	1218.504	912.651
178.110	13.507	1216.805	911.653
179.125	13.471	1216.084	910.834
180.140	13.556	1214.688	910.176
181.154	13.646	1213.590	909.763
182.169	13.681	1212.082	908.746
183.183	13.701	1211.241	908.146
184.198	13.708	1210.081	907.234
185.213	13.825	1208.478	906.591
186.227	13.687	1207.787	905.239
187.242	13.809	1206.705	905.012
188.256	13.870	1205.316	904.221
189.271	13.851	1204.653	903.541
190.286	13.790	1203.365	902.167
191.300	13.612	1202.989	900.834
192.315	13.628	1202.336	900.354
193.329	13.479	1202.274	899.417
194.344	13.723	1200.917	899.647
195.359	13.826	1200.118	899.527
196.373	13.768	1199.898	898.970
197.388	13.851	1199.437	898.992
198.402	13.928	1198.942	898.959
199.417	13.934	1198.586	898.644
200.432	14.032	1196.910	897.839
201.446	14.047	1196.509	897.538
202.461	14.080	1195.435	896.830
203.475	14.078	1194.461	896.014
204.490	13.970	1193.313	894.490
205.504	14.032	1191.835	893.635
206.519	14.003	1190.757	892.592
207.534	14.012	1189.750	891.807
208.548	13.888	1189.042	890.533
209.563	14.063	1187.834	890.485
210.577	14.061	1186.746	889.580
211.592	14.200	1186.052	889.724
212.607	14.143	1185.530	888.949
213.621	14.135	1184.555	888.100
214.636	14.134	1183.363	887.122
215.650	14.171	1182.857	886.861
216.665	14.152	1182.049	886.074
217.680	14.180	1180.775	885.189
218.694	14.210	1180.012	884.701
219.709	14.362	1179.137	884.774
220.723	14.254	1178.597	883.714
221.738	14.266	1177.663	883.003
222.753	14.244	1177.184	882.447
223.767	14.276	1176.671	882.154
224.782	14.302	1175.964	881.683
225.796	14.316	1175.061	881.006
226.811	14.311	1174.556	880.522
227.826	14.269	1173.939	879.757
228.840	14.321	1172.996	879.247
229.855	14.198	1172.259	877.966
230.869	14.417	1170.743	877.909
231.884	14.413	1170.382	877.539
232.899	14.320	1169.818	876.549
233.913	14.252	1169.394	875.799
234.928	14.313	1168.363	875.265
235.942	14.321	1167.126	874.307
236.957	14.335	1166.840	874.086
237.972	14.242	1166.257	873.087
238.986	14.234	1165.433	872.350
240.001	14.307	1164.414	871.891
241.015	14.456	1163.493	871.903
242.030	14.387	1163.036	871.123
243.045	14.539	1162.084	871.128
244.059	14.339	1161.847	869.826
245.074	14.538	1160.919	870.096
246.088	14.512	1160.037	869.219
247.103	14.573	1158.921	868.628
248.117	14.575	1158.492	868.236
249.132	14.689	1157.578	868.067
250.147	14.749	1156.629	867.594
251.161	14.765	1156.025	867.146
252.176	14.761	1155.522	866.668
253.190	14.601	1155.400	865.673
254.205	14.770	1154.786	866.010
255.220	14.794	1153.573	865.149
256.234	14.800	1153.057	864.716
257.249	14.952	1152.117	864.722
258.263	14.873	1151.369	863.675
259.278	14.890	1151.023	863.428
260.293	14.869	1150.955	863.190
261.307	14.899	1150.333	862.803
262.322	14.954	1149.050	862.048
263.336	14.986	1148.786	861.939
264.351	14.975	1148.082	861.278
265.366	14.969	1147.517	860.744
266.380	15.011	1146.659	860.245
267.395	15.004	1145.717	859.422
268.409	14.974	1144.774	858.488
269.424	14.954	1144.357	857.996
270.439	15.007	1143.623	857.641
271.453	14.973	1143.340	857.181
272.468	14.947	1142.316	856.204
273.482	14.957	1141.459	855.535
274.497	15.013	1141.160	855.523
275.512	15.091	1140.000	854.974
276.526	15.178	1139.007	854.598
277.541	15.018	1138.611	853.410
278.555	15.113	1138.071	853.411
279.570	15.192	1137.228	853.107
280.585	15.193	1136.373	852.394
281.599	15.264	1135.343	851.911
282.614	15.213	1134.528	850.964
283.628	15.132	1133.545	849.738
284.643	15.211	1132.506	849.286
285.657	15.198	1131.940	848.723
286.672	15.145	1130.936	847.626
287.687	15.291	1130.034	847.612
288.701	15.247	1129.043	846.571
289.716	15.213	1128.523	845.932
290.730	15.327	1127.634	845.766
291.745	15.320	1127.119	845.271
292.760	15.389	1126.464	845.054
293.774	15.341	1125.960	844.360
294.789	15.377	1125.468	844.096
295.803	15.346	1124.696	843.287
296.818	15.399	1123.757	842.773
297.833	15.334	1123.426	842.126
298.847	15.333	1122.652	841.466
299.862	15.350	1121.457	840.582
300.876	15.365	1121.116	840.327
301.891	15.575	1119.948	840.428
302.906	15.508	1119.370	839.582
303.920	15.490	1118.974	839.121
304.935	15.534	1118.356	838.807
305.949	15.583	1117.647	838.441
306.964	15.677	1116.853	838.239
307.979	15.657	1116.182	837.563
308.993	15.526	1115.350	836.216
310.008	15.597	1114.616	835.945
311.022	15.741	1113.895	836.042
312.037	15.569	1113.271	834.646
313.052	15.632	1111.758	833.751
314.066	15.618	1111.011	833.050
315.081	15.687	1109.905	832.489
316.095	15.495	1110.024	831.550
317.110	15.461	1109.224	830.708
318.125	15.710	1107.911	830.882
319.139	15.638	1107.344	830.028
320.154	15.559	1106.979	829.294
321.168	15.585	1106.413	828.922
322.183	15.627	1105.942	828.706
323.197	15.752	1104.385	828.082
324.212	15.666	1104.417	827.606
325.227	15.884	1103.610	828.004
326.241	15.717	1103.187	826.792
327.256	15.809	1102.030	826.303
328.270	15.905	1101.119	826.018
329.285	15.757	1100.279	824.586
330.300	15.688	1099.293	823.437
331.314	15.749	1098.722	823.235
332.329	15.746	1097.696	822.378
333.343	15.857	1096.789	822.171
334.358	15.834	1096.072	821.448
335.373	15.906	1095.450	821.258
336.387	15.949	1094.579	820.742
337.402	15.863	1094.186	819.956
338.416	15.764	1093.179	818.646
339.431	15.998	1092.312	819.062
340.446	16.018	1092.089	818.920
341.460	16.004	1091.540	818.368
342.475	15.979	1090.438	817.348
343.489	16.107	1089.535	817.220
344.504	16.253	1088.652	817.192
345.519	16.165	1087.953	816.169
346.533	16.161	1087.350	815.628
347.548	16.301	1086.233	815.391
348.562	16.308	1085.139	814.531
349.577	16.126	1084.991	813.474
350.592	16.127	1084.330	812.907
351.606	16.088	1083.527	812.048
352.621	16.223	1082.849	812.119
353.635	16.173	1082.167	811.291
354.650	16.146	1081.391	810.509
355.665	16.121	1080.621	809.743
356.679	16.220	1080.104	809.755
357.694	16.124	1079.718	808.936
358.708	16.156	1078.994	808.474
359.723	16.323	1078.219	808.623
360.738	16.249	1077.416	807.595
361.752	16.264	1077.014	807.293
362.767	16.386	1076.339	807.298
363.781	16.389	1076.003	806.991
364.796	16.383	1075.208	806.294
365.810	16.425	1074.772	806.094
366.825	16.516	1073.968	805.856
367.840	16.458	1073.803	805.384
368.854	16.425	1073.260	804.750
369.869	16.513	1072.182	804.289
370.883	16.520	1071.017	803.374
371.898	16.515	1070.780	803.102
372.913	16.531	1070.347	802.784
373.927	16.592	1069.572	802.419
374.942	16.452	1069.477	801.615
375.956	16.549	1068.180	801.031
376.971	16.645	1067.905	801.209
377.986	16.548	1067.107	800.078
379.000	16.741	1066.433	800.413
380.015	16.739	1065.926	799.955
381.029	16.724	1065.624	799.588
382.044	16.762	1064.943	799.183
383.059	16.808	1063.990	798.616
384.073	16.831	1063.370	798.186
385.088	16.778	1062.431	797.160
386.102	16.649	1061.772	795.988
387.117	16.680	1060.627	795.206
388.132	16.674	1059.653	794.377
389.146	16.643	1058.788	793.515
390.161	16.737	1058.443	793.627
391.175	16.736	1057.498	792.840
392.190	16.850	1056.729	792.731
393.205	16.870	1055.878	792.116
394.219	16.891	1054.996	791.479
395.234	16.817	1054.296	790.540
396.248	16.889	1053.084	789.897
397.263	16.863	1052.386	789.183
398.278	16.881	1051.800	788.758
399.292	16.816	1050.942	787.741
400.307	16.736	1050.738	787.149
401.321	16.771	1050.072	786.743
402.336	16.799	1049.388	786.286
403.350	16.775	1048.430	785.391
404.365	16.864	1047.488	785.027
405.380	16.893	1047.044	784.760
406.394	17.043	1045.861	784.496
407.409	16.885	1045.757	783.619
408.423	17.017	1044.978	783.575
409.438	17.024	1044.226	782.975
410.453	17.145	1043.393	782.838
411.467	17.198	1042.646	782.454
412.482	17.136	1042.478	781.971
413.496	17.211	1041.403	781.442
414.511	17.201	1040.791	780.866
415.526	17.173	1040.750	780.636
416.540	17.318	1040.141	780.779
417.555	17.311	1039.431	780.142
418.569	17.292	1039.046	779.701
419.584	17.320	1038.496	779.346
420.599	17.249	1037.779	778.412
421.613	105.210	1324.744	1478.165
422.628	96.503	1366.508	1478.251
