DTS Sentinel unit serial number:	SN413079Multiplexer serial number:	ORYXHardware model number:	OX4-SRSoftware version number:	ORYX F/W v4.00 Oryx Data Collector v3.7.2.0data status	okinstallation	princeton_trtdifferential loss correction	single-endedforward channel	channel 2reverse channel	N/Adate	2019/09/16time	20:11:35forward acquisition time	60.00reverse acquisition time	0.00gamma	496.2192k internal	0.2327k external	0.2327temperature offset calibration	0.9966default loss term (dB/km)	0.3790temperature slope calibration	1.0000multiplexer offset coefficient	1.0000multiplexer slope coefficient	1.0000fibre end	0.00T internal ref (°C)	33.06T ext. ref 1 (°C)	0.07T ext. ref 2 (°C)	26.65length (m)	temperature (°C)	Stokes	anti-Stokes-747.200	-120.853	-0.235	0.040
-746.185	93.897	-0.055	0.063
-745.171	-115.276	-0.096	0.018
-744.156	-200.000	-0.037	0.213
-743.142	-52.615	0.189	-0.088
-742.127	800.000	-0.047	0.140
-741.112	800.000	-0.122	0.399
-740.098	-200.000	0.042	0.195
-739.083	461.486	0.012	0.027
-738.069	-152.151	-0.267	0.020
-737.054	-200.000	0.027	0.257
-736.039	24.108	-0.089	0.074
-735.025	-98.952	0.311	0.080
-734.010	175.591	0.101	0.147
-732.996	-200.000	-0.028	-0.247
-731.981	72.676	-0.087	-0.092
-730.966	-200.000	-0.036	-0.240
-729.952	-129.225	-0.167	0.024
-728.937	-21.249	-0.248	-0.153
-727.923	72.693	-0.142	0.150
-726.908	155.432	-0.318	0.441
-725.894	-2.852	-0.121	-0.085
-724.879	318.200	-0.083	-0.159
-723.864	212.764	0.039	-0.063
-722.850	-113.529	0.449	-0.088
-721.835	122.201	0.129	0.163
-720.821	294.843	0.126	-0.233
-719.806	9.153	0.134	0.102
-718.791	-99.809	-0.205	-0.052
-717.777	-175.620	-0.286	0.008
-716.762	224.452	0.197	-0.322
-715.748	-103.556	0.218	0.052
-714.733	150.822	-0.102	-0.139
-713.718	-76.734	0.134	-0.047
-712.704	800.000	-0.033	-0.114
-711.689	-1.307	-0.160	0.113
-710.675	-200.000	-0.000	-0.061
-709.660	-132.643	0.257	-0.033
-708.645	-200.000	0.018	-0.159
-707.631	-40.853	-0.102	0.053
-706.616	-200.000	-0.056	-0.341
-705.602	392.841	-0.133	-0.279
-704.587	-200.000	-0.003	-0.202
-703.572	-130.019	-0.097	-0.013
-702.558	116.751	-0.189	0.233
-701.543	263.779	0.285	0.498
-700.529	-200.000	0.061	0.406
-699.514	-200.000	0.002	0.182
-698.499	-58.119	-0.153	-0.067
-697.485	66.689	-0.101	0.104
-696.470	-86.016	0.385	-0.120
-695.456	159.552	-0.149	0.209
-694.441	-170.297	0.230	-0.008
-693.426	226.530	-0.182	-0.298
-692.412	-200.000	-0.030	-0.394
-691.397	-105.926	-0.254	0.058
-690.383	800.000	-0.041	0.171
-689.368	-200.000	-0.031	-0.220
-688.354	-107.796	0.357	-0.078
-687.339	-63.443	-0.258	0.107
-686.324	-200.000	-0.024	-0.237
-685.310	800.000	0.057	-0.237
-684.295	-124.375	0.144	-0.023
-683.281	-200.000	-0.027	0.289
-682.266	-104.914	0.044	-0.010
-681.251	-6.269	0.247	0.170
-680.237	-106.318	-0.279	0.063
-679.222	-26.620	-0.166	-0.098
-678.208	101.607	0.203	0.238
-677.193	-107.218	-0.259	0.057
-676.178	-65.359	0.045	-0.018
-675.164	80.356	-0.249	0.270
-674.149	176.083	-0.083	0.122
-673.135	345.458	0.078	0.154
-672.120	299.043	-0.108	-0.200
-671.105	-27.043	-0.355	0.208
-670.091	5.891	-0.271	0.201
-669.076	15.044	-0.183	-0.144
-668.062	-117.368	0.084	0.015
-667.047	68.344	-0.111	-0.114
-666.032	38.186	-0.196	0.176
-665.018	132.501	0.157	0.203
-664.003	-94.855	-0.071	0.019
-662.989	475.453	-0.088	0.199
-661.974	-23.094	-0.087	-0.053
-660.959	716.662	-0.087	-0.231
-659.945	8.301	0.274	-0.207
-658.930	800.000	0.049	-0.158
-657.916	40.796	-0.069	0.062
-656.901	-47.594	0.236	-0.115
-655.886	578.237	0.065	0.159
-654.872	719.247	-0.100	0.268
-653.857	-129.729	-0.249	-0.034
-652.843	183.715	-0.216	-0.320
-651.828	171.211	0.337	0.486
-650.814	-200.000	-0.009	-0.292
-649.799	-110.778	0.142	-0.029
-648.784	157.300	0.057	0.080
-647.770	36.291	-0.093	-0.082
-646.755	-37.962	-0.437	0.233
-645.741	116.462	-0.025	-0.030
-644.726	-121.477	0.176	0.029
-643.711	651.242	0.023	-0.059
-642.697	-99.990	-0.513	0.128
-641.682	762.226	-0.047	0.127
-640.668	-86.801	-0.044	-0.014
-639.653	12.546	-0.091	-0.071
-638.638	54.221	0.375	0.363
-637.624	-83.762	-0.107	0.034
-636.609	800.000	-0.072	0.256
-635.595	-200.000	0.011	0.191
-634.580	268.038	0.127	0.223
-633.565	278.662	-0.047	-0.083
-632.551	-200.000	-0.011	0.236
-631.536	-64.461	0.195	0.079
-630.522	415.263	-0.092	0.197
-629.507	-200.000	-0.047	0.235
-628.492	-200.000	0.008	0.070
-627.478	-200.000	0.010	0.187
-626.463	-110.231	0.302	-0.063
-625.449	-33.834	0.174	-0.096
-624.434	-28.216	-0.087	0.051
-623.419	800.000	-0.014	-0.046
-622.405	118.608	0.116	0.144
-621.390	419.038	0.043	-0.093
-620.376	-154.592	0.176	-0.012
-619.361	269.082	0.115	0.203
-618.346	800.000	0.022	0.066
-617.332	-200.000	0.036	-0.303
-616.317	800.000	0.067	0.232
-615.303	84.687	0.120	-0.132
-614.288	30.669	-0.091	0.078
-613.273	-39.605	-0.233	0.122
-612.259	191.625	-0.110	0.166
-611.244	330.186	0.062	0.120
-610.230	-115.871	-0.406	0.076
-609.215	-82.026	0.341	-0.112
-608.201	-7.939	-0.507	-0.343
-607.186	26.948	-0.272	0.229
-606.171	758.815	-0.050	0.137
-605.157	34.592	-0.184	-0.161
-604.142	-200.000	-0.038	-0.318
-603.128	-136.803	-0.511	0.059
-602.113	-200.000	-0.003	-0.170
-601.098	174.634	0.165	0.240
-600.084	319.780	0.068	-0.130
-599.069	52.494	0.130	-0.124
-598.055	-200.000	0.036	0.000
-597.040	-101.102	-0.121	-0.030
-596.025	-200.000	-0.033	0.349
-595.011	-121.196	-0.109	-0.018
-593.996	-200.000	-0.023	-0.116
-592.982	-42.695	0.086	0.044
-591.967	-1.334	-0.027	-0.019
-590.952	-150.388	-0.131	-0.010
-589.938	-144.619	0.181	0.017
-588.923	800.000	0.038	0.106
-587.909	800.000	0.094	-0.346
-586.894	-83.767	-0.332	0.106
-585.879	-167.769	-0.047	-0.002
-584.865	-46.197	-0.133	0.065
-583.850	129.448	-0.184	0.235
-582.836	-8.831	0.171	0.115
-581.821	-75.772	-0.337	-0.120
-580.806	42.624	-0.277	-0.253
-579.792	224.877	-0.059	0.095
-578.777	65.918	-0.062	0.063
-577.763	-2.458	0.235	-0.165
-576.748	-200.000	-0.061	-0.273
-575.733	303.527	0.117	-0.216
-574.719	317.032	-0.066	0.126
-573.704	-156.226	-0.265	0.017
-572.690	21.730	0.292	0.239
-571.675	-79.121	0.410	-0.139
-570.661	-94.583	0.374	0.102
-569.646	-145.487	-0.100	0.009
-568.631	19.215	-0.137	-0.110
-567.617	223.187	0.059	-0.095
-566.602	-3.497	-0.017	0.012
-565.588	28.718	-0.396	-0.336
-564.573	-106.262	-0.291	0.065
-563.558	-84.307	0.410	-0.130
-562.544	188.883	0.078	0.117
-561.529	-200.000	-0.034	0.202
-560.515	800.000	0.049	-0.146
-559.500	-200.000	-0.002	0.401
-558.485	68.019	0.046	0.047
-557.471	-200.000	0.019	-0.306
-556.456	692.004	0.119	-0.312
-555.442	-200.000	-0.038	0.229
-554.427	-8.507	0.171	-0.115
-553.412	-200.000	-0.010	0.067
-552.398	34.473	0.058	-0.051
-551.383	138.108	-0.107	-0.140
-550.369	-200.000	-0.016	0.459
-549.354	-38.227	-0.391	-0.208
-548.339	-53.422	-0.272	0.125
-547.325	-150.585	0.269	0.021
-546.310	-47.394	0.203	0.099
-545.296	-72.442	0.284	-0.105
-544.281	-200.000	-0.018	0.108
-543.266	130.243	0.203	0.260
-542.252	800.000	-0.042	-0.154
-541.237	41.937	-0.123	0.112
-540.223	800.000	0.048	-0.179
-539.208	272.986	0.092	0.162
-538.193	-35.286	-0.173	0.094
-537.179	-200.000	0.055	-0.341
-536.164	800.000	-0.047	0.148
-535.150	365.756	0.136	0.274
-534.135	-200.000	-0.002	0.190
-533.121	-23.070	0.128	0.077
-532.106	46.015	-0.063	-0.058
-531.091	-200.000	0.050	0.420
-530.077	-36.315	0.427	0.230
-529.062	-200.000	0.048	-0.293
-528.048	-200.000	0.003	-0.215
-527.033	-76.329	-0.348	0.122
-526.018	-68.238	0.205	0.080
-525.004	57.049	0.112	0.110
-523.989	-44.913	0.244	-0.121
-522.975	17.564	-0.226	0.180
-521.960	-29.765	-0.217	0.124
-520.945	-59.277	-0.111	-0.048
-519.931	131.611	0.162	0.208
-518.916	-200.000	0.020	0.155
-517.902	800.000	0.096	0.345
-516.887	800.000	-0.128	0.361
-515.872	-18.051	-0.174	-0.109
-514.858	-73.436	-0.259	-0.094
-513.843	-147.699	0.027	-0.002
-512.829	-200.000	0.034	-0.167
-511.814	-101.847	-0.185	-0.045
-510.799	319.812	0.095	-0.181
-509.785	-200.000	-0.040	0.334
-508.770	179.254	-0.015	0.022
-507.756	-200.000	0.006	-0.087
-506.741	-28.191	0.309	0.179
-505.726	-13.293	0.256	0.166
-504.712	-200.000	-0.017	-0.157
-503.697	328.471	0.058	0.111
-502.683	122.261	-0.197	-0.246
-501.668	-50.100	-0.136	0.064
-500.653	498.405	0.019	0.044
-499.639	431.394	-0.036	0.079
-498.624	-200.000	-0.031	0.167
-497.610	800.000	0.041	-0.128
-496.595	-79.101	0.176	0.060
-495.581	645.461	0.087	0.222
-494.566	800.000	-0.027	0.098
-493.551	95.569	0.225	0.256
-492.537	268.422	-0.072	-0.127
-491.522	17.558	-0.110	-0.088
-490.508	-200.000	0.016	0.193
-489.493	119.256	-0.030	0.037
-488.478	80.120	0.052	0.056
-487.464	-200.000	-0.043	-0.259
-486.449	75.046	-0.248	-0.261
-485.435	421.172	0.017	-0.036
-484.420	-200.000	-0.001	-0.011
-483.405	51.041	0.104	0.098
-482.391	-150.341	0.032	-0.002
-481.376	-141.428	0.208	-0.021
-480.362	660.743	-0.054	0.139
-479.347	52.510	0.152	-0.145
-478.332	331.794	0.030	0.057
-477.318	336.431	-0.139	0.268
-476.303	147.658	-0.097	0.131
-475.289	567.639	-0.011	-0.026
-474.274	-125.179	0.210	-0.032
-473.259	3.178	-0.080	-0.058
-472.245	-200.000	0.036	-0.270
-471.230	-127.972	-0.229	-0.033
-470.216	21.982	0.151	-0.123
-469.201	-124.958	0.337	-0.052
-468.186	-72.771	0.121	-0.044
-467.172	-113.225	0.236	0.046
-466.157	36.136	0.375	-0.329
-465.143	-32.966	-0.109	0.060
-464.128	800.000	-0.061	0.245
-463.113	-27.691	0.157	-0.091
-462.099	147.832	0.011	-0.015
-461.084	11.900	-0.174	0.133
-460.070	-200.000	0.019	-0.225
-459.055	648.263	0.069	-0.177
-458.040	455.333	0.286	-0.633
-457.026	-31.598	-0.200	0.112
-456.011	377.030	0.065	-0.133
-454.997	-127.147	0.166	-0.024
-453.982	-35.558	0.082	-0.044
-452.968	-32.166	0.101	0.056
-451.953	70.782	0.092	-0.095
-450.938	-58.115	0.222	-0.096
-449.924	-20.703	0.138	0.084
-448.909	-108.160	0.050	-0.011
-447.895	-200.000	-0.006	-0.040
-446.880	-69.963	-0.232	-0.088
-445.865	-200.000	-0.013	0.216
-444.851	-200.000	-0.011	-0.197
-443.836	-200.000	-0.058	-0.271
-442.822	800.000	-0.016	-0.066
-441.807	-68.057	-0.164	0.064
-440.792	251.936	0.129	0.219
-439.778	6.200	-0.082	0.061
-438.763	-161.070	-0.174	0.009
-437.749	-55.727	0.186	0.083
-436.734	-200.000	-0.004	0.135
-435.719	4.677	-0.197	0.144
-434.705	-10.930	-0.093	0.061
-433.690	-79.886	-0.373	0.125
-432.676	-62.324	-0.086	0.035
-431.661	-149.431	0.206	0.016
-430.646	315.734	0.112	0.210
-429.632	449.971	0.076	-0.167
-428.617	800.000	0.015	0.052
-427.603	12.843	-0.201	-0.155
-426.588	-200.000	-0.013	0.265
-425.573	18.081	-0.129	0.103
-424.559	81.777	0.073	-0.079
-423.544	396.831	0.132	-0.274
-422.530	143.735	-0.208	-0.276
-421.515	68.430	-0.118	-0.121
-420.500	-200.000	-0.059	0.379
-419.486	38.484	0.017	-0.016
-418.471	-77.482	-0.269	-0.093
-417.457	-37.677	-0.253	0.134
-416.442	48.983	0.088	-0.082
-415.428	800.000	-0.032	0.102
-414.413	153.494	0.154	0.210
-413.398	-200.000	0.036	0.200
-412.384	-200.000	0.009	0.160
-411.369	28.553	0.233	0.196
-410.355	328.922	-0.140	0.268
-409.340	60.273	0.050	-0.049
-408.325	-35.020	0.367	-0.199
-407.311	800.000	-0.055	0.161
-406.296	45.353	0.084	-0.077
-405.282	-159.447	0.349	-0.019
-404.267	-66.860	0.532	0.209
-403.252	725.767	0.065	-0.172
-402.238	800.000	-0.061	0.188
-401.223	131.395	0.207	-0.265
-400.209	-139.284	-0.229	-0.024
-399.194	3.374	-0.085	-0.062
-398.179	312.253	-0.228	-0.425
-397.165	-200.000	0.038	0.326
-396.150	-0.318	-0.075	0.053
-395.136	143.709	0.282	-0.374
-394.121	147.575	-0.049	0.065
-393.106	15.264	0.258	-0.202
-392.092	-57.274	0.035	0.015
-391.077	45.438	0.197	-0.181
-390.063	-200.000	0.041	-0.417
-389.048	376.447	0.050	-0.102
-388.033	118.036	-0.080	-0.098
-387.019	10.079	-0.198	0.150
-386.004	239.870	-0.116	-0.192
-384.990	-200.000	-0.001	-0.304
-383.975	9.670	0.206	-0.155
-382.960	-65.205	-0.258	0.103
-381.946	-200.000	0.001	-0.234
-380.931	-0.830	-0.178	0.126
-379.917	-163.124	0.223	-0.011
-378.902	-200.000	-0.066	0.341
-377.888	357.798	-0.124	-0.246
-376.873	-128.312	0.274	0.039
-375.858	109.873	-0.062	0.073
-374.844	-75.275	0.297	-0.105
-373.829	-43.931	-0.098	0.049
-372.815	-8.712	-0.179	0.119
-371.800	48.892	0.248	0.231
-370.785	135.168	-0.160	0.206
-369.771	177.047	0.168	0.243
-368.756	-110.028	-0.138	-0.029
-367.742	-200.000	-0.003	0.146
-366.727	10.974	-0.108	-0.082
-365.712	-131.991	-0.524	-0.068
-364.698	-200.000	0.030	0.292
-363.683	-83.812	0.149	0.047
-362.669	-200.000	0.001	0.161
-361.654	800.000	0.045	0.159
-360.639	285.845	0.193	0.346
-359.625	119.606	-0.064	-0.079
-358.610	100.209	-0.145	-0.167
-357.596	77.350	0.088	-0.093
-356.581	31.528	-0.300	-0.256
-355.566	-105.330	-0.131	0.030
-354.552	800.000	-0.017	0.048
-353.537	2.112	0.125	-0.090
-352.523	800.000	-0.027	0.079
-351.508	149.014	0.134	-0.180
-350.493	-139.849	0.327	-0.034
-349.479	-137.165	-0.275	-0.031
-348.464	-167.726	-0.387	-0.015
-347.450	-200.000	-0.011	-0.096
-346.435	-200.000	0.040	-0.342
-345.420	-75.531	-0.217	0.077
-344.406	-4.153	-0.034	-0.023
-343.391	-106.888	-0.307	0.068
-342.377	-61.371	-0.095	-0.040
-341.362	-158.908	0.355	0.020
-340.348	6.731	-0.047	-0.035
-339.333	19.147	-0.086	-0.068
-338.318	-148.731	-0.036	-0.003
-337.304	-200.000	0.058	-0.383
-336.289	-116.987	0.483	-0.088
-335.275	-200.000	-0.035	-0.156
-334.260	52.155	0.260	0.246
-333.245	-39.257	-0.215	0.112
-332.231	-51.061	-0.166	0.077
-331.216	-5.492	0.168	-0.114
-330.202	105.805	0.265	0.311
-329.187	-101.553	-0.245	-0.059
-328.172	800.000	-0.055	-0.164
-327.158	-124.524	0.451	0.070
-326.143	800.000	-0.070	-0.235
-325.129	144.674	0.286	0.378
-324.114	208.139	0.092	-0.143
-323.099	-200.000	-0.042	-0.511
-322.085	41.502	-0.208	0.187
-321.070	34.571	-0.139	-0.121
-320.056	-200.000	-0.033	-0.155
-319.041	800.000	-0.081	0.285
-318.026	-200.000	0.030	-0.225
-317.012	-200.000	-0.012	0.362
-315.997	129.051	-0.029	0.037
-314.983	5.867	0.213	-0.156
-313.968	-83.005	-0.364	0.116
-312.953	438.303	0.170	-0.367
-311.939	-123.108	0.405	0.064
-310.924	-200.000	-0.003	-0.051
-309.910	-23.567	-0.317	-0.189
-308.895	313.803	0.147	-0.274
-307.880	-99.293	0.039	0.010
-306.866	-2.603	0.221	0.153
-305.851	-173.005	-0.056	0.002
-304.837	-120.840	0.113	0.019
-303.822	800.000	0.069	0.238
-302.807	-200.000	0.020	0.170
-301.793	19.523	-0.195	-0.155
-300.778	-79.816	-0.354	-0.118
-299.764	800.000	0.107	-0.405
-298.749	659.272	-0.124	0.315
-297.735	-58.580	0.218	-0.094
-296.720	800.000	0.078	-0.247
-295.705	800.000	-0.041	0.119
-294.691	338.006	0.128	0.248
-293.676	800.000	0.003	0.011
-292.662	-114.190	-0.228	-0.044
-291.647	-134.210	-0.207	0.025
-290.632	-36.758	-0.125	0.066
-289.618	-200.000	0.068	-0.523
-288.603	-36.354	0.236	0.126
-287.589	-96.674	0.246	-0.064
-286.574	-43.243	-0.209	-0.105
-285.559	-45.267	-0.145	-0.071
-284.545	220.738	0.113	0.179
-283.530	109.517	0.068	0.080
-282.516	279.903	0.094	0.166
-281.501	-32.037	-0.144	-0.080
-280.486	-200.000	-0.009	-0.103
-279.472	-145.518	0.355	0.032
-278.457	-200.000	0.049	0.227
-277.443	34.699	0.103	-0.089
-276.428	-54.032	-0.164	0.074
-275.413	-200.000	0.013	-0.400
-274.399	90.580	-0.082	0.090
-273.384	-27.141	-0.105	0.060
-272.370	519.242	0.082	-0.191
-271.355	95.036	-0.023	-0.025
-270.340	-87.117	-0.312	0.094
-269.326	-200.000	0.012	0.142
-268.311	701.922	0.071	-0.186
-267.297	110.081	-0.119	0.141
-266.282	-40.364	-0.199	-0.102
-265.267	-96.243	-0.312	0.082
-264.253	182.447	-0.085	0.124
-263.238	-30.205	0.112	-0.063
-262.224	-36.258	0.127	-0.068
-261.209	15.453	0.365	0.284
-260.195	536.801	-0.081	-0.191
-259.180	106.658	-0.180	-0.211
-258.165	21.422	0.201	0.162
-257.151	800.000	-0.092	-0.280
-256.136	-157.445	-0.282	0.017
-255.122	-200.000	0.084	0.389
-254.107	104.118	0.125	-0.145
-253.092	-83.171	-0.171	0.054
-252.078	69.499	0.231	0.235
-251.063	333.350	0.086	0.165
-250.049	-59.119	0.362	-0.154
-249.034	330.525	0.051	-0.098
-248.019	12.066	0.184	0.140
-247.005	110.410	0.229	0.272
-245.990	-15.079	-0.058	0.037
-244.976	-200.000	-0.048	-0.241
-243.961	-200.000	0.022	-0.203
-242.946	276.426	-0.132	0.232
-241.932	-200.000	-0.058	0.344
-240.917	800.000	0.067	0.238
-239.903	-182.568	0.173	0.003
-238.888	-200.000	-0.034	-0.214
-237.873	115.114	-0.139	0.168
-236.859	-8.522	0.168	-0.112
-235.844	-200.000	-0.059	0.286
-234.830	-18.374	0.144	0.089
-233.815	-200.000	0.057	-0.277
-232.800	496.592	-0.069	-0.157
-231.786	-4.619	0.165	-0.112
-230.771	800.000	-0.011	0.047
-229.757	61.548	-0.082	0.081
-228.742	-87.460	0.280	0.084
-227.727	-35.220	0.203	-0.109
-226.713	-51.997	-0.158	-0.073
-225.698	-45.121	-0.385	-0.189
-224.684	-69.784	0.104	-0.039
-223.669	10.859	0.124	-0.093
-222.655	-200.000	-0.004	0.064
-221.640	-200.000	0.013	-0.418
-220.625	265.330	-0.059	-0.102
-219.611	254.255	-0.107	-0.181
-218.596	-200.000	-0.015	0.349
-217.582	26.739	0.104	-0.086
-216.567	-200.000	-0.029	-0.246
-215.552	217.601	-0.052	-0.081
-214.538	169.211	0.106	-0.149
-213.523	-130.208	0.103	-0.014
-212.509	-170.237	-0.211	-0.007
-211.494	744.688	0.037	0.098
-210.479	-200.000	-0.049	-0.236
-209.465	181.362	-0.132	-0.191
-208.450	-115.337	0.138	-0.026
-207.436	309.931	-0.006	0.011
-206.421	-142.439	0.271	-0.026
-205.406	-125.376	-0.243	-0.037
-204.392	-4.945	0.063	-0.043
-203.377	30.676	-0.300	-0.254
-202.363	-200.000	0.001	0.014
-201.348	-200.000	0.020	0.124
-200.333	-92.093	-0.060	-0.017
-199.319	-150.438	-0.627	0.048
-198.304	-56.224	-0.352	0.154
-197.290	223.985	-0.316	-0.503
-196.275	-200.000	0.045	-0.265
-195.260	-200.000	-0.004	0.259
-194.246	12.185	-0.110	-0.084
-193.231	445.978	-0.070	-0.151
-192.217	148.485	-0.144	-0.192
-191.202	-39.308	-0.181	0.094
-190.187	-143.415	0.057	0.005
-189.173	-200.000	0.015	-0.398
-188.158	24.671	-0.072	-0.059
-187.144	175.158	-0.143	-0.205
-186.129	-32.100	0.170	-0.094
-185.114	115.897	-0.048	0.058
-184.100	-6.203	0.331	0.223
-183.085	-143.043	-0.192	0.018
-182.071	25.382	-0.134	-0.110
-181.056	116.467	0.109	-0.132
-180.042	0.358	-0.112	0.079
-179.027	-200.000	-0.033	0.186
-178.012	273.132	0.184	0.321
-176.998	800.000	-0.047	-0.167
-175.983	747.974	0.084	-0.224
-174.969	408.349	-0.133	0.278
-173.954	-162.264	-0.294	0.014
-172.939	-200.000	0.021	-0.279
-171.925	-74.978	-0.148	0.052
-170.910	-81.396	0.212	-0.069
-169.896	-200.000	-0.080	-0.422
-168.881	309.903	0.191	-0.351
-167.866	800.000	-0.079	0.242
-166.852	388.721	0.164	0.335
-165.837	-2.292	-0.112	-0.078
-164.823	7.082	0.126	-0.092
-163.808	-97.740	-0.107	0.027
-162.793	770.490	0.092	-0.248
-161.779	-80.841	0.232	0.076
-160.764	-38.569	-0.042	0.022
-159.750	291.620	-0.096	0.173
-158.735	-84.271	0.243	0.076
-157.720	246.059	-0.072	-0.120
-156.706	800.000	-0.039	-0.143
-155.691	-80.084	0.086	-0.028
-154.677	56.474	0.041	-0.039
-153.662	369.601	0.112	0.223
-152.647	-200.000	0.017	0.190
-151.633	323.259	-0.261	0.490
-150.618	-200.000	-0.027	-0.170
-149.604	-2.209	0.203	0.140
-148.589	800.000	-0.025	0.094
-147.574	-45.908	-0.267	-0.130
-146.560	471.095	-0.133	0.295
-145.545	154.196	-0.193	0.261
-144.531	-200.000	0.023	-0.292
-143.516	142.056	-0.196	0.256
-142.502	-94.382	-0.368	-0.099
-141.487	671.428	0.093	-0.236
-140.472	-75.253	0.230	0.081
-139.458	800.000	-0.012	-0.039
-138.443	-50.414	-0.071	0.033
-137.429	800.000	-0.094	-0.277
-136.414	36.606	0.232	0.202
-135.399	-76.491	-0.382	-0.132
-134.385	-74.130	-0.147	0.052
-133.370	187.524	-0.131	0.192
-132.356	-52.991	-0.090	-0.041
-131.341	-42.975	-0.035	0.017
-130.326	800.000	0.042	0.182
-129.312	279.108	-0.053	-0.094
-128.297	-154.875	-0.098	-0.006
-127.283	-200.000	0.050	0.432
-126.268	403.631	0.114	0.237
-125.253	-24.180	0.315	0.185
-124.239	-94.018	-0.144	-0.039
-123.224	-168.991	0.208	0.008
-122.210	-200.000	0.012	0.196
-121.195	-121.963	-0.222	-0.036
-120.180	-84.871	-0.249	0.077
-119.166	126.236	-0.134	0.166
-118.151	606.738	-0.133	0.327
-117.137	300.582	0.139	-0.252
-116.122	64.025	-0.300	-0.296
-115.107	-37.431	0.323	0.170
-114.093	-200.000	-0.021	0.116
-113.078	-66.306	-0.134	0.052
-112.064	54.542	-0.152	0.144
-111.049	-95.500	-0.112	-0.030
-110.034	1.934	0.214	-0.152
-109.020	203.914	0.249	-0.380
-108.005	800.000	0.070	-0.269
-106.991	89.377	0.248	-0.272
-105.976	-199.234	0.283	-0.001
-104.962	-200.000	0.059	-0.446
-103.947	316.219	-0.138	0.257
-102.932	-53.077	0.140	0.063
-101.918	-167.017	0.240	0.010
-100.903	328.403	-0.044	0.082
-99.889	4.509	-0.253	0.183
-98.874	800.000	-0.044	0.148
-97.859	-48.803	0.404	0.191
-96.845	-4.310	-0.372	0.253
-95.830	-56.121	-0.290	0.127
-94.816	-200.000	0.119	0.000
-93.801	66.517	0.109	-0.109
-92.786	800.000	-0.133	0.433
-91.772	776.789	-0.099	0.267
-90.757	-72.470	-0.110	-0.040
-89.743	534.618	-0.094	-0.219
-88.728	133.070	-0.276	0.351
-87.713	-97.746	-0.246	0.062
-86.699	250.399	0.112	0.186
-85.684	-200.000	-0.044	0.354
-84.670	-168.792	-0.170	-0.006
-83.655	-16.748	0.170	-0.106
-82.640	1.505	0.168	-0.119
-81.626	-101.439	-0.037	-0.009
-80.611	-39.304	-0.446	-0.230
-79.597	29.715	-0.127	0.106
-78.582	-148.950	0.160	-0.013
-77.567	-62.432	0.271	0.111
-76.553	108.975	-0.127	0.149
-75.538	-200.000	-0.041	0.456
-74.524	372.033	0.027	0.055
-73.509	102.166	-0.006	-0.006
-72.494	6.291	-0.052	0.038
-71.480	-200.000	-0.016	0.172
-70.465	-36.932	-0.198	0.104
-69.451	-200.000	0.029	-0.460
-68.436	-200.000	0.002	-0.410
-67.422	309.068	0.087	0.160
-66.407	554.906	0.076	-0.180
-65.392	218.392	-0.107	0.168
-64.378	130.991	-0.096	-0.121
-63.363	800.000	0.119	-0.393
-62.349	334.238	-0.076	0.144
-61.334	88.237	-0.971	-1.058
-60.319	81.746	0.741	0.787
-59.305	124.871	-0.531	-0.657
-58.290	800.000	0.378	1.208
-57.276	800.000	0.525	1.695
-56.261	-200.000	92.783	564.393
-55.246	572.471	1357.821	3246.833
-54.232	164.390	2532.632	3503.344
-53.217	107.663	2265.741	2646.873
-52.203	42.364	1895.520	1690.881
-51.188	36.294	1685.676	1457.952
-50.173	33.582	1641.192	1399.441
-49.159	51.342	1686.537	1571.181
-48.144	52.930	1703.193	1598.496
-47.130	36.007	1664.733	1437.468
-46.115	33.183	1650.553	1404.237
-45.100	32.937	1645.624	1398.162
-44.086	33.005	1642.652	1396.090
-43.071	32.979	1639.816	1393.429
-42.057	32.991	1637.714	1391.680
-41.042	32.929	1636.320	1389.981
-40.027	32.998	1633.820	1388.310
-39.013	32.922	1632.006	1386.157
-37.998	32.873	1630.922	1384.820
-36.984	33.008	1628.973	1384.102
-35.969	33.078	1627.709	1383.485
-34.954	33.080	1626.130	1382.097
-33.940	33.035	1624.203	1380.081
-32.925	33.035	1622.743	1378.784
-31.911	33.054	1620.875	1377.283
-30.896	33.020	1619.385	1375.709
-29.881	33.041	1617.614	1374.308
-28.867	33.063	1615.658	1372.751
-27.852	32.988	1614.817	1371.438
-26.838	33.059	1612.450	1369.883
-25.823	33.050	1611.672	1369.105
-24.809	33.094	1609.978	1367.929
-23.794	33.065	1609.030	1366.861
-22.779	33.108	1607.223	1365.582
-21.765	33.077	1605.518	1363.859
-20.750	33.160	1603.487	1362.675
-19.736	33.000	1602.794	1360.878
-18.721	33.095	1600.939	1359.932
-17.706	33.129	1599.329	1358.756
-16.692	33.027	1598.457	1357.228
-15.677	33.067	1596.739	1356.002
-14.663	33.166	1595.413	1355.534
-13.648	33.105	1594.114	1353.942
-12.633	33.169	1592.513	1352.985
-11.619	33.137	1590.993	1351.411
-10.604	33.153	1589.056	1349.825
-9.590	33.057	1588.435	1348.558
-8.575	33.142	1586.705	1347.639
-7.560	33.110	1585.961	1346.731
-6.546	33.167	1584.347	1345.712
-5.531	33.028	1583.681	1344.104
-4.517	33.015	1582.338	1342.814
-3.502	33.035	1581.389	1342.097
-2.487	33.063	1579.843	1340.934
-1.473	32.820	1566.627	1327.951
-0.458	29.551	1547.458	1288.881
0.556	23.800	1546.966	1254.338
1.571	21.387	1569.843	1255.469
2.586	20.754	1582.853	1261.177
3.600	18.844	1531.769	1206.960
4.615	10.552	1421.638	1065.807
5.629	2.003	1354.403	961.605
6.644	0.269	1345.722	944.497
7.659	0.067	1344.366	942.198
8.673	-0.035	1343.937	941.173
9.688	-0.021	1341.316	939.341
10.702	-0.111	1338.869	936.985
11.717	3.692	1345.200	965.126
12.731	12.666	1359.320	1031.625
13.746	17.813	1365.819	1068.796
14.761	17.363	1363.307	1063.917
15.775	16.245	1360.334	1054.520
16.790	15.175	1358.313	1046.186
17.804	14.488	1355.516	1039.658
18.819	14.115	1354.301	1036.309
19.834	13.790	1352.830	1033.064
20.848	13.515	1351.947	1030.589
21.863	13.320	1350.372	1028.084
22.877	13.008	1349.678	1025.531
23.892	13.166	1348.323	1025.390
24.907	13.013	1348.204	1024.255
25.921	13.039	1347.090	1023.480
26.936	13.122	1346.068	1023.128
27.950	13.171	1344.971	1022.509
28.965	13.205	1344.416	1022.209
29.980	13.276	1343.342	1021.740
30.994	13.439	1341.719	1021.417
32.009	13.319	1341.286	1020.258
33.023	13.310	1340.325	1019.385
34.038	13.335	1338.941	1018.394
35.053	13.223	1338.088	1016.966
36.067	13.323	1336.441	1016.237
37.082	13.258	1335.633	1015.132
38.096	13.277	1335.102	1014.758
39.111	13.266	1334.056	1013.807
40.126	13.228	1333.196	1012.829
41.140	13.150	1332.353	1011.625
42.155	13.072	1332.186	1010.925
43.169	13.070	1332.289	1010.907
44.184	13.024	1332.095	1010.388
45.199	12.983	1331.531	1009.618
46.213	13.139	1330.402	1009.625
47.228	13.127	1329.836	1009.031
48.242	13.153	1328.679	1008.223
49.257	13.216	1326.749	1007.055
50.271	13.169	1325.470	1005.709
51.286	13.310	1324.411	1005.672
52.301	13.238	1323.397	1004.380
53.315	13.117	1322.345	1002.758
54.330	13.123	1320.974	1001.666
55.344	13.091	1320.091	1000.714
56.359	13.179	1318.648	1000.060
57.374	13.182	1317.849	999.385
58.388	13.050	1316.797	997.704
59.403	13.003	1316.827	997.351
60.417	12.986	1315.930	996.482
61.432	12.998	1315.351	996.028
62.447	12.964	1314.138	994.818
63.461	12.878	1313.305	993.577
64.476	13.003	1311.528	992.901
65.490	13.080	1310.573	992.553
66.505	12.956	1308.808	990.382
67.520	12.956	1307.774	989.510
68.534	12.967	1306.953	988.867
69.549	13.044	1305.911	988.457
70.563	13.002	1304.515	987.057
71.578	13.051	1303.102	986.199
72.593	12.987	1302.213	985.054
73.607	12.904	1301.894	984.231
74.622	12.916	1300.979	983.523
75.636	12.888	1300.348	982.793
76.651	12.829	1299.826	981.959
77.666	12.818	1299.224	981.353
78.680	13.017	1298.450	981.862
79.695	12.874	1297.625	980.303
80.709	12.886	1297.049	979.852
81.724	12.972	1295.916	979.422
82.739	13.091	1294.960	979.319
83.753	13.045	1294.330	978.482
84.768	13.204	1293.154	978.447
85.782	13.242	1292.328	977.962
86.797	13.096	1291.198	976.154
87.812	13.118	1289.582	974.975
88.826	13.225	1288.469	974.681
89.841	13.187	1287.627	973.733
90.855	13.153	1286.640	972.704
91.870	13.187	1285.851	972.217
92.884	13.188	1285.044	971.531
93.899	13.288	1284.086	971.304
94.914	13.346	1283.131	970.837
95.928	13.374	1282.552	970.479
96.943	13.272	1281.693	969.143
97.957	13.187	1280.826	967.905
98.972	13.221	1279.654	967.134
99.987	13.171	1278.753	966.076
101.001	13.250	1277.788	965.721
102.016	13.130	1276.939	964.294
103.030	13.212	1276.014	963.986
104.045	13.321	1274.908	963.705
105.060	13.317	1273.337	962.407
106.074	13.261	1272.221	961.151
107.089	13.081	1270.814	958.956
108.103	13.030	1270.164	958.089
109.118	13.030	1268.966	957.099
110.133	13.053	1267.663	956.167
111.147	13.100	1265.676	954.851
112.162	13.089	1265.060	954.242
113.176	13.095	1263.893	953.311
114.191	13.145	1263.093	952.913
115.206	13.164	1261.816	951.971
116.220	13.091	1260.510	950.481
117.235	13.145	1259.410	949.880
118.249	13.066	1258.365	948.556
119.264	13.044	1257.462	947.662
120.279	13.141	1256.409	947.343
121.293	13.081	1255.728	946.400
122.308	13.106	1254.007	945.164
123.322	13.028	1253.470	944.229
124.337	13.125	1252.468	943.948
125.352	12.961	1251.700	942.346
126.366	13.112	1250.195	941.991
127.381	13.121	1249.242	941.243
128.395	13.029	1248.468	940.051
129.410	13.094	1247.644	939.715
130.424	13.092	1246.568	938.813
131.439	13.066	1245.541	937.806
132.454	13.180	1244.643	937.695
133.468	13.126	1244.039	936.853
134.483	13.176	1243.346	936.532
135.497	13.261	1242.248	936.103
136.512	13.243	1240.441	934.554
137.527	13.245	1239.447	933.734
138.541	13.138	1238.607	932.416
139.556	13.200	1237.056	931.512
140.570	13.242	1236.312	931.109
141.585	13.236	1234.886	929.916
142.600	13.329	1233.793	929.535
143.614	13.337	1232.663	928.649
144.629	13.492	1231.289	928.397
145.643	13.310	1230.423	926.643
146.658	13.241	1229.084	925.168
147.673	13.219	1227.661	923.890
148.687	13.165	1227.129	923.107
149.702	13.216	1225.366	921.986
150.716	13.106	1224.085	920.325
151.731	13.218	1222.746	919.864
152.746	13.289	1221.852	919.501
153.760	13.271	1220.497	918.301
154.775	13.267	1219.666	917.571
155.789	13.347	1218.527	917.079
156.804	13.302	1217.712	916.132
157.819	13.453	1216.484	915.965
158.833	13.378	1215.868	915.003
159.848	13.440	1214.920	914.553
160.862	13.458	1213.977	913.864
161.877	13.355	1213.038	912.509
162.892	13.391	1211.652	911.583
163.906	13.296	1210.917	910.423
164.921	13.330	1209.812	909.701
165.935	13.382	1209.079	909.353
166.950	13.463	1208.355	909.177
167.964	13.385	1207.689	908.163
168.979	13.416	1207.061	907.785
169.994	13.461	1206.202	907.302
171.008	13.378	1205.208	906.020
172.023	13.488	1204.487	906.002
173.037	13.585	1203.772	905.910
174.052	13.613	1202.884	905.314
175.067	13.439	1201.804	903.473
176.081	13.427	1200.827	902.595
177.096	13.493	1200.301	902.480
178.110	13.455	1198.889	901.132
179.125	13.598	1197.743	900.970
180.140	13.442	1196.372	899.009
181.154	13.641	1195.230	899.149
182.169	13.553	1194.113	897.753
183.183	13.675	1192.840	897.378
184.198	13.676	1191.871	896.574
185.213	13.649	1191.417	896.007
186.227	13.654	1190.035	894.918
187.242	13.737	1188.928	894.452
188.256	13.729	1187.994	893.626
189.271	13.795	1186.963	893.129
190.286	13.603	1186.257	891.485
191.300	13.511	1185.237	890.145
192.315	13.475	1184.595	889.389
193.329	13.465	1184.132	888.911
194.344	13.608	1182.980	888.734
195.359	13.629	1182.582	888.468
196.373	13.678	1182.165	888.342
197.388	13.665	1181.887	887.983
198.402	13.882	1180.906	888.325
199.417	13.895	1180.178	887.769
200.432	13.996	1179.615	887.810
201.446	14.012	1178.873	887.255
202.461	14.018	1177.815	886.416
203.475	14.021	1177.021	885.753
204.490	13.872	1175.799	883.961
205.504	13.943	1174.327	883.155
206.519	13.944	1173.070	882.137
207.534	13.955	1172.107	881.395
208.548	13.941	1171.229	880.582
209.563	14.030	1170.155	880.168
210.577	14.006	1169.273	879.297
211.592	14.051	1168.985	879.241
212.607	14.107	1167.827	878.591
213.621	14.041	1167.407	877.846
214.636	14.062	1166.021	876.841
215.650	14.005	1165.404	876.000
216.665	14.034	1164.565	875.440
217.680	14.143	1163.450	875.101
218.694	14.044	1162.917	874.101
219.709	14.145	1161.685	873.628
220.723	14.085	1161.353	872.985
221.738	14.202	1160.169	872.631
222.753	14.202	1159.452	872.018
223.767	14.120	1159.255	871.358
224.782	14.187	1158.580	871.126
225.796	14.323	1157.929	871.270
226.811	14.354	1157.234	870.836
227.826	14.246	1156.420	869.582
228.840	14.245	1155.496	868.803
229.855	14.193	1154.772	867.908
230.869	14.324	1153.802	867.788
231.884	14.203	1153.484	866.842
232.899	14.238	1152.731	866.383
233.913	14.173	1152.114	865.503
234.928	14.136	1151.235	864.571
235.942	14.254	1150.440	864.510
236.957	14.353	1149.353	864.134
237.972	14.263	1148.646	863.059
238.986	14.294	1148.634	863.133
240.001	14.204	1147.604	861.816
241.015	14.234	1146.861	861.336
242.030	14.305	1145.755	860.799
243.045	14.344	1145.030	860.380
244.059	14.466	1144.283	860.370
245.074	14.460	1143.661	859.796
246.088	14.432	1143.332	859.328
247.103	14.374	1142.504	858.331
248.117	14.440	1141.215	857.626
249.132	14.528	1140.849	857.729
250.147	14.577	1140.414	857.579
251.161	14.736	1139.152	857.370
252.176	14.736	1138.541	856.835
253.190	14.698	1138.026	856.176
254.205	14.687	1137.304	855.501
255.220	14.770	1136.657	855.360
256.234	14.863	1136.388	855.560
257.249	14.820	1135.614	854.681
258.263	14.752	1135.188	853.938
259.278	14.830	1134.277	853.576
260.293	14.782	1133.852	852.933
261.307	14.777	1133.375	852.477
262.322	14.881	1132.511	852.282
263.336	14.925	1131.764	851.868
264.351	14.882	1131.286	851.212
265.366	14.887	1130.619	850.662
266.380	15.013	1129.345	850.267
267.395	14.889	1128.938	849.254
268.409	14.905	1128.200	848.706
269.424	14.980	1127.619	848.577
270.439	14.915	1127.112	847.790
271.453	14.963	1126.326	847.368
272.468	14.955	1124.842	846.132
273.482	14.944	1124.452	845.711
274.497	14.868	1124.627	845.381
275.512	14.897	1123.881	844.893
276.526	14.915	1122.621	843.964
277.541	14.980	1122.061	843.792
278.555	14.920	1121.246	842.805
279.570	14.948	1120.888	842.602
280.585	15.109	1119.853	842.557
281.599	15.129	1118.969	841.922
282.614	15.099	1117.708	840.748
283.628	15.054	1116.654	839.651
284.643	15.110	1115.639	839.099
285.657	15.141	1114.832	838.570
286.672	15.134	1114.081	837.897
287.687	15.174	1113.070	837.261
288.701	15.247	1112.468	837.101
289.716	15.074	1112.138	835.914
290.730	15.291	1110.925	836.012
291.745	15.292	1109.926	835.188
292.760	15.246	1109.591	834.632
293.774	15.297	1109.351	834.632
294.789	15.300	1109.114	834.393
295.803	15.426	1108.124	834.205
296.818	15.192	1107.598	832.574
297.833	15.306	1106.455	832.206
298.847	15.340	1105.641	831.687
299.862	15.473	1104.827	831.658
300.876	15.388	1104.690	831.061
301.891	15.474	1103.575	830.575
302.906	15.393	1102.859	829.565
303.920	15.517	1102.178	829.589
304.935	15.538	1101.364	829.009
305.949	15.597	1100.766	828.774
306.964	15.540	1100.577	828.276
307.979	15.555	1099.735	827.643
308.993	15.605	1098.759	827.084
310.008	15.535	1097.880	826.002
311.022	15.640	1097.744	826.348
312.037	15.695	1096.427	825.552
313.052	15.515	1095.966	824.248
314.066	15.564	1094.906	823.617
315.081	15.446	1094.034	822.313
316.095	15.531	1093.394	822.171
317.110	15.619	1092.368	821.758
318.125	15.496	1091.764	820.633
319.139	15.555	1090.995	820.267
320.154	15.640	1090.539	820.268
321.168	15.499	1089.866	819.001
322.183	15.649	1088.956	818.978
323.197	15.585	1088.675	818.379
324.212	15.492	1088.344	817.608
325.227	15.506	1087.773	817.171
326.241	15.599	1086.829	816.842
327.256	15.622	1085.809	816.116
328.270	15.624	1085.034	815.473
329.285	15.642	1084.344	814.969
330.300	15.665	1083.213	814.157
331.314	15.647	1082.186	813.225
332.329	15.696	1081.643	812.986
333.343	15.750	1081.083	812.753
334.358	15.788	1079.970	812.028
335.373	15.758	1079.353	811.344
336.387	15.914	1078.210	811.165
337.402	15.804	1078.017	810.418
338.416	15.882	1077.050	809.996
339.431	15.890	1076.705	809.701
340.446	15.875	1076.073	809.084
341.460	15.962	1075.423	808.940
342.475	15.888	1074.927	808.143
343.489	16.063	1073.645	807.945
344.504	16.054	1072.616	807.055
345.519	16.050	1072.182	806.640
346.533	15.984	1071.391	805.656
347.548	16.197	1070.240	805.739
348.562	16.243	1069.451	805.290
349.577	16.155	1069.013	804.473
350.592	16.008	1068.118	803.027
351.606	16.093	1067.208	802.675
352.621	16.059	1066.494	801.907
353.635	16.123	1065.600	801.467
354.650	16.198	1065.209	801.460
355.665	16.153	1064.630	800.738
356.679	16.138	1064.032	800.149
357.694	16.222	1063.622	800.163
358.708	16.162	1062.773	799.171
359.723	16.197	1062.394	798.984
360.738	16.232	1061.586	798.467
361.752	16.228	1061.028	797.961
362.767	16.323	1060.523	797.960
363.781	16.367	1059.696	797.474
364.796	16.295	1059.203	796.692
365.810	16.358	1058.959	796.733
366.825	16.354	1058.193	796.069
367.840	16.371	1057.785	795.772
368.854	16.598	1056.948	796.140
369.869	16.456	1056.565	795.115
370.883	16.442	1055.593	794.247
371.898	16.455	1054.701	793.563
372.913	16.445	1054.081	792.983
373.927	16.519	1053.792	793.040
374.942	16.432	1053.193	792.113
375.956	16.550	1052.856	792.343
376.971	16.437	1052.359	791.366
377.986	16.470	1051.892	791.102
379.000	16.606	1051.029	791.019
380.015	16.641	1050.546	790.747
381.029	16.691	1049.705	790.278
382.044	16.616	1049.305	789.559
383.059	16.734	1048.447	789.394
384.073	16.660	1047.830	788.513
385.088	16.722	1046.916	788.042
386.102	16.790	1045.763	787.423
387.117	16.701	1044.752	786.178
388.132	16.618	1044.126	785.253
389.146	16.670	1043.263	784.774
390.161	16.540	1043.207	784.062
391.175	16.701	1042.072	783.886
392.190	16.636	1041.380	782.993
393.205	16.857	1040.444	783.240
394.219	16.696	1039.766	781.919
395.234	16.780	1038.852	781.550
396.248	16.819	1037.713	780.805
397.263	16.859	1036.929	780.328
398.278	16.707	1036.161	778.980
399.292	16.700	1035.663	778.506
400.307	16.630	1034.940	777.575
401.321	16.827	1034.236	777.880
402.336	16.829	1033.466	777.241
403.350	16.716	1033.174	776.433
404.365	16.839	1032.341	776.304
405.380	16.816	1031.739	775.677
406.394	16.934	1030.850	775.477
407.409	16.829	1030.421	774.609
408.423	16.911	1029.472	774.201
409.438	17.069	1028.591	774.190
410.453	16.998	1028.144	773.462
411.467	17.105	1027.254	773.212
412.482	17.140	1026.870	773.011
413.496	17.157	1026.161	772.489
414.511	17.047	1025.931	771.748
415.526	17.216	1025.123	771.837
416.540	17.225	1024.644	771.452
417.555	17.211	1024.025	770.851
418.569	17.232	1023.855	770.750
419.584	17.248	1023.073	770.166
420.599	17.136	1022.948	769.498
421.613	101.521	1316.605	1455.375
422.628	92.736	1359.353	1455.469
