DTS Sentinel unit serial number:	SN413079Multiplexer serial number:	ORYXHardware model number:	OX4-SRSoftware version number:	ORYX F/W v4.00 Oryx Data Collector v3.7.2.0data status	okinstallation	princeton_trtdifferential loss correction	single-endedforward channel	channel 2reverse channel	N/Adate	2019/09/10time	19:33:11forward acquisition time	60.00reverse acquisition time	0.00gamma	496.2192k internal	0.2326k external	0.2326temperature offset calibration	0.9940default loss term (dB/km)	0.3790temperature slope calibration	1.0000multiplexer offset coefficient	1.0000multiplexer slope coefficient	1.0000fibre end	0.00T internal ref (°C)	33.39T ext. ref 1 (°C)	-0.38T ext. ref 2 (°C)	26.02length (m)	temperature (°C)	Stokes	anti-Stokes-747.200	-124.712	0.123	0.019
-746.185	692.003	-0.253	0.670
-745.171	430.863	0.125	0.274
-744.156	-200.000	0.129	0.000
-743.142	-80.314	-0.262	0.088
-742.127	190.263	0.168	-0.255
-741.112	-200.000	-0.018	-0.108
-740.098	-30.291	-0.273	0.157
-739.083	297.835	-0.119	-0.220
-738.069	-89.659	-0.313	0.092
-737.054	800.000	-0.021	0.089
-736.039	-118.426	-0.416	0.074
-735.025	-102.137	0.249	0.060
-734.010	31.956	-0.059	0.052
-732.996	-41.461	0.237	-0.123
-731.981	-200.000	-0.316	0.001
-730.966	-111.135	-0.257	-0.053
-729.952	155.076	-0.187	0.260
-728.937	-5.596	0.193	-0.133
-727.923	111.658	0.150	-0.182
-726.908	125.297	0.060	0.077
-725.894	496.676	0.113	-0.262
-724.879	8.174	-0.107	-0.081
-723.864	84.255	-0.214	0.235
-722.850	-64.245	0.439	-0.180
-721.835	-200.000	0.012	-0.288
-720.821	438.087	-0.149	-0.328
-719.806	800.000	-0.086	-0.271
-718.791	-70.285	-0.182	-0.070
-717.777	11.573	-0.067	-0.052
-716.762	-200.000	-0.028	0.172
-715.748	132.312	0.057	-0.074
-714.733	-200.000	0.002	0.159
-713.718	-143.115	0.242	-0.023
-712.704	-200.000	0.008	-0.087
-711.689	46.141	-0.061	-0.057
-710.675	306.605	-0.087	0.163
-709.660	800.000	0.058	-0.166
-708.645	10.812	-0.178	-0.137
-707.631	789.339	0.038	0.105
-706.616	-69.663	-0.175	0.067
-705.602	-80.857	-0.209	0.070
-704.587	-107.781	-0.058	0.013
-703.572	-200.000	0.012	-0.088
-702.558	-31.418	-0.055	-0.031
-701.543	800.000	0.077	-0.239
-700.529	-200.000	0.006	-0.044
-699.514	-200.000	-0.017	-0.254
-698.499	113.343	-0.169	-0.207
-697.485	-158.570	-0.241	-0.014
-696.470	355.012	0.123	0.246
-695.456	144.651	0.166	0.223
-694.441	-9.893	-0.159	0.106
-693.426	523.883	-0.128	-0.303
-692.412	690.085	0.008	-0.020
-691.397	800.000	0.142	-0.471
-690.383	270.397	-0.085	-0.150
-689.368	-91.590	-0.186	0.053
-688.354	800.000	0.153	-0.486
-687.339	56.053	-0.158	-0.154
-686.324	-121.596	-0.130	-0.022
-685.310	57.547	0.252	0.248
-684.295	202.840	0.060	0.094
-683.281	469.331	0.160	-0.361
-682.266	-65.882	-0.107	-0.043
-681.251	-200.000	0.080	0.447
-680.237	-136.728	-0.200	-0.023
-679.222	800.000	0.074	-0.224
-678.208	-114.727	0.164	0.032
-677.193	-57.784	-0.173	-0.076
-676.178	-200.000	-0.012	-0.210
-675.164	-200.000	-0.039	-0.182
-674.149	202.358	0.049	0.076
-673.135	-52.268	0.111	0.052
-672.120	231.319	0.084	0.139
-671.105	-68.022	-0.047	0.018
-670.091	-200.000	0.004	-0.144
-669.076	-33.908	-0.287	0.159
-668.062	97.454	-0.218	-0.252
-667.047	597.721	0.063	-0.158
-666.032	288.121	-0.173	-0.315
-665.018	800.000	-0.084	-0.263
-664.003	172.304	-0.053	0.077
-662.989	-70.906	-0.168	-0.064
-661.974	-200.000	-0.016	-0.143
-660.959	44.303	0.145	0.133
-659.945	-200.000	0.031	0.164
-658.930	49.665	0.088	-0.083
-657.916	-200.000	0.022	-0.153
-656.901	235.995	0.076	-0.126
-655.886	75.571	-0.201	-0.214
-654.872	325.715	0.109	-0.209
-653.857	-6.219	-0.136	0.093
-652.843	-200.000	-0.008	-0.455
-651.828	-24.401	-0.271	-0.162
-650.814	135.026	0.209	-0.273
-649.799	-147.652	-0.501	0.042
-648.784	623.317	-0.032	0.081
-647.770	-78.573	0.128	-0.044
-646.755	-74.305	-0.219	0.080
-645.741	-174.838	-0.327	0.009
-644.726	-69.429	-0.239	0.092
-643.711	-48.720	-0.153	0.074
-642.697	-19.078	0.344	0.215
-641.682	-200.000	-0.079	0.430
-640.668	94.789	-0.190	0.217
-639.653	-200.000	0.000	-0.198
-638.638	-200.000	-0.011	-0.115
-637.624	-169.586	-0.132	-0.005
-636.609	-52.866	0.133	-0.062
-635.595	-200.000	-0.069	-0.401
-634.580	-200.000	-0.016	-0.171
-633.565	-84.277	0.130	-0.041
-632.551	-99.841	-0.257	0.065
-631.536	-143.078	-0.464	0.045
-630.522	-190.918	-0.259	-0.003
-629.507	-200.000	-0.004	-0.099
-628.492	-68.108	0.386	-0.151
-627.478	-200.000	0.030	-0.171
-626.463	18.619	0.417	-0.335
-625.449	-18.085	-0.073	0.046
-624.434	-200.000	-0.027	0.133
-623.419	134.544	0.055	-0.072
-622.405	-29.546	-0.285	-0.164
-621.390	800.000	0.099	0.276
-620.376	13.020	0.194	-0.150
-619.361	125.377	0.247	-0.313
-618.346	-200.000	-0.059	-0.354
-617.332	403.569	-0.061	0.128
-616.317	-90.657	-0.256	0.074
-615.303	182.505	0.098	0.145
-614.288	250.078	0.090	-0.154
-613.273	46.004	-0.218	-0.202
-612.259	712.251	-0.095	-0.252
-611.244	37.816	-0.125	0.112
-610.230	-107.924	-0.036	0.008
-609.215	-166.016	-0.244	-0.010
-608.201	-73.194	0.315	0.116
-607.186	-94.933	0.244	0.066
-606.171	-200.000	-0.002	-0.080
-605.157	419.564	0.143	0.306
-604.142	-75.126	-0.245	0.088
-603.128	-200.000	-0.018	0.259
-602.113	800.000	-0.059	0.199
-601.098	251.733	-0.201	0.344
-600.084	-143.843	0.388	0.037
-599.069	-116.637	-0.546	-0.101
-598.055	-37.079	-0.225	-0.121
-597.040	-66.665	-0.300	-0.119
-596.025	-109.255	0.364	-0.077
-595.011	632.924	0.070	0.178
-593.996	114.924	0.098	-0.120
-592.982	80.145	0.277	-0.299
-591.967	374.134	0.165	-0.337
-590.952	800.000	-0.062	0.188
-589.938	-68.788	-0.237	-0.092
-588.923	742.989	-0.014	-0.038
-587.909	800.000	-0.038	0.124
-586.894	-37.023	0.058	0.031
-585.879	-94.978	-0.152	-0.041
-584.865	800.000	0.072	-0.215
-583.850	-200.000	0.014	0.232
-582.836	94.419	-0.046	-0.053
-581.821	78.860	-0.215	-0.231
-580.806	-85.294	-0.159	-0.050
-579.792	-200.000	-0.026	0.169
-578.777	266.662	-0.194	0.339
-577.763	18.297	-0.242	0.194
-576.748	77.152	0.116	-0.123
-575.733	101.385	-0.174	-0.203
-574.719	-200.000	0.024	-0.135
-573.704	-200.000	0.011	-0.368
-572.690	-109.562	0.083	-0.018
-571.675	-116.467	0.220	0.041
-570.661	612.970	0.070	-0.174
-569.646	-200.000	0.032	0.221
-568.631	-200.000	-0.035	-0.235
-567.617	-113.505	0.167	-0.033
-566.602	407.837	0.064	0.135
-565.588	800.000	0.072	-0.235
-564.573	73.868	-0.030	0.032
-563.558	-200.000	-0.005	0.336
-562.544	-102.411	0.291	0.070
-561.529	800.000	0.039	-0.168
-560.515	-103.506	0.267	-0.063
-559.500	800.000	-0.021	-0.086
-558.485	-9.453	-0.480	0.321
-557.471	120.460	-0.030	-0.037
-556.456	97.046	-0.134	-0.154
-555.442	289.592	0.235	0.427
-554.427	205.766	-0.057	-0.089
-553.412	-200.000	0.003	-0.032
-552.398	-200.000	-0.008	-0.138
-551.383	-155.881	-0.236	0.015
-550.369	-200.000	-0.039	-0.252
-549.354	-17.373	0.094	-0.060
-548.339	401.249	-0.053	-0.111
-547.325	287.043	0.215	-0.389
-546.310	-200.000	0.005	-0.044
-545.296	-200.000	0.029	0.306
-544.281	-138.698	-0.100	-0.011
-543.266	114.067	0.237	-0.289
-542.252	-114.890	-0.352	0.067
-541.237	322.891	-0.055	0.106
-540.223	-35.045	-0.275	0.150
-539.208	-113.071	0.106	0.021
-538.193	-35.731	0.062	-0.034
-537.179	-200.000	-0.047	-0.215
-536.164	172.993	-0.079	-0.114
-535.150	122.431	-0.163	0.204
-534.135	-200.000	0.003	-0.063
-533.121	-76.062	-0.246	-0.087
-532.106	24.117	-0.177	-0.146
-531.091	180.206	0.086	0.126
-530.077	339.999	-0.154	0.301
-529.062	155.732	0.096	0.132
-528.048	9.174	-0.163	0.123
-527.033	-157.960	-0.265	0.016
-526.018	800.000	-0.011	0.043
-525.004	-7.207	-0.176	-0.120
-523.989	800.000	0.035	0.114
-522.975	140.192	-0.053	-0.070
-521.960	-79.664	0.024	-0.008
-520.945	185.584	-0.043	-0.065
-519.931	-200.000	0.017	0.157
-518.916	800.000	0.026	0.111
-517.902	-43.391	-0.107	0.054
-516.887	167.336	0.048	0.068
-515.872	-86.465	-0.178	0.055
-514.858	-39.010	0.186	0.098
-513.843	-132.678	-0.363	0.046
-512.829	59.367	-0.034	0.034
-511.814	-122.880	0.124	-0.020
-510.799	-116.824	0.136	-0.025
-509.785	-100.764	-0.029	-0.007
-508.770	-200.000	-0.010	-0.216
-507.756	-18.781	0.169	-0.105
-506.741	4.134	0.088	0.064
-505.726	407.128	-0.197	0.417
-504.712	79.580	-0.083	0.089
-503.697	206.712	-0.068	-0.105
-502.683	35.066	-0.156	-0.137
-501.668	-108.200	-0.120	-0.026
-500.653	-70.460	-0.131	0.050
-499.639	5.625	-0.153	0.113
-498.624	-163.485	0.193	0.009
-497.610	-200.000	-0.022	0.319
-496.595	-19.320	-0.284	0.176
-495.581	-94.354	0.075	0.020
-494.566	800.000	0.020	-0.063
-493.551	26.018	-0.064	0.053
-492.537	-84.872	-0.008	0.003
-491.522	-6.417	-0.167	-0.114
-490.508	-200.000	-0.032	-0.251
-489.493	-102.748	-0.485	0.115
-488.478	-97.227	-0.193	-0.050
-487.464	462.224	0.064	0.143
-486.449	15.282	-0.260	-0.203
-485.435	-39.062	-0.082	-0.043
-484.420	-200.000	0.019	0.166
-483.405	-58.301	0.332	-0.144
-482.391	-149.595	0.240	-0.019
-481.376	-200.000	-0.042	-0.210
-480.362	-174.770	-0.056	0.002
-479.347	-171.132	-0.442	-0.015
-478.332	-53.458	-0.121	0.055
-477.318	-200.000	0.042	0.310
-476.303	-200.000	0.013	0.141
-475.289	800.000	0.054	0.175
-474.274	1.308	-0.210	-0.150
-473.259	43.305	0.091	0.083
-472.245	-24.749	0.081	0.048
-471.230	-200.000	0.014	0.226
-470.216	421.765	0.159	-0.339
-469.201	-200.000	0.060	0.287
-468.186	800.000	0.055	0.174
-467.172	10.950	0.203	0.155
-466.157	-68.885	0.141	0.054
-465.143	-2.075	-0.123	0.086
-464.128	-92.078	0.275	0.078
-463.113	800.000	0.020	-0.068
-462.099	120.920	0.137	0.170
-461.084	-117.951	0.156	0.028
-460.070	-200.000	0.005	-0.130
-459.055	-65.231	0.083	-0.033
-458.040	41.515	0.108	-0.097
-457.026	-120.646	-0.167	0.028
-456.011	187.322	0.098	0.145
-454.997	779.332	-0.012	-0.034
-453.982	178.345	-0.139	-0.202
-452.968	-108.621	0.147	-0.032
-451.953	800.000	0.071	0.241
-450.938	195.763	0.062	-0.094
-449.924	51.204	0.136	0.128
-448.909	800.000	0.068	0.204
-447.895	-200.000	0.003	0.166
-446.880	283.344	0.072	0.130
-445.865	-200.000	-0.014	-0.202
-444.851	162.328	0.131	-0.183
-443.836	-104.524	-0.154	0.035
-442.822	124.051	0.116	-0.145
-441.807	800.000	-0.072	0.254
-440.792	-48.578	-0.118	-0.057
-439.778	275.240	0.176	-0.311
-438.763	-83.925	0.071	-0.022
-437.749	44.218	-0.157	-0.144
-436.734	79.452	0.159	-0.169
-435.719	-26.069	-0.067	-0.039
-434.705	-13.951	0.108	0.070
-433.690	-39.512	0.178	-0.093
-432.676	-104.484	-0.198	-0.046
-431.661	-117.217	-0.253	0.046
-430.646	-155.621	0.393	-0.025
-429.632	-153.701	0.177	0.012
-428.617	-50.349	-0.074	0.035
-427.603	-120.472	-0.034	0.006
-426.588	22.456	-0.278	-0.227
-425.573	800.000	-0.031	0.092
-424.559	800.000	-0.080	0.266
-423.544	545.725	-0.039	-0.092
-422.530	-1.408	0.165	-0.116
-421.515	-66.491	0.089	0.035
-420.500	-19.556	0.196	-0.121
-419.486	96.928	-0.211	0.241
-418.471	-169.948	-0.031	-0.001
-417.457	347.541	-0.034	0.066
-416.442	-15.846	-0.021	0.014
-415.428	800.000	0.048	-0.167
-414.413	-200.000	-0.028	0.264
-413.398	203.069	0.085	0.131
-412.384	-200.000	-0.001	0.045
-411.369	329.750	-0.082	0.157
-410.355	169.335	-0.100	0.143
-409.340	73.842	0.063	0.066
-408.325	-200.000	0.006	0.207
-407.311	800.000	0.080	0.298
-406.296	98.543	-0.116	0.133
-405.282	-139.984	-0.189	0.020
-404.267	269.844	0.087	0.153
-403.252	-104.834	-0.325	0.074
-402.238	-57.004	0.078	-0.034
-401.223	-83.116	0.173	-0.055
-400.209	-200.000	-0.032	-0.274
-399.194	40.342	-0.080	0.072
-398.179	-74.549	-0.216	-0.077
-397.165	-98.651	0.183	-0.046
-396.150	-91.788	0.238	-0.067
-395.136	-69.935	-0.306	-0.116
-394.121	800.000	0.027	0.116
-393.106	800.000	-0.043	-0.136
-392.092	-200.000	0.018	-0.431
-391.077	-25.224	0.267	0.157
-390.063	-18.563	0.020	0.012
-389.048	-200.000	-0.024	-0.121
-388.033	-200.000	-0.020	-0.089
-387.019	56.202	0.190	-0.183
-386.004	187.396	-0.167	0.248
-384.990	-16.969	0.104	0.065
-383.975	229.256	0.103	-0.168
-382.960	-51.205	0.211	-0.098
-381.946	266.911	0.120	0.208
-380.931	152.333	-0.035	0.048
-379.917	-42.110	0.377	0.192
-378.902	-200.000	0.026	-0.134
-377.888	40.639	-0.131	0.117
-376.873	1.336	-0.274	-0.196
-375.858	-30.783	-0.155	-0.087
-374.844	800.000	-0.042	0.167
-373.829	800.000	-0.069	0.279
-372.815	61.279	0.076	0.075
-371.800	54.426	0.144	-0.138
-370.785	800.000	-0.060	0.166
-369.771	79.324	0.124	-0.132
-368.756	79.858	0.165	-0.176
-367.742	-200.000	-0.041	0.236
-366.727	-81.707	0.149	0.049
-365.712	-30.612	-0.113	0.064
-364.698	-200.000	-0.009	-0.051
-363.683	437.276	-0.176	-0.381
-362.669	154.585	0.090	0.123
-361.654	-69.422	-0.251	-0.096
-360.639	699.687	-0.046	0.121
-359.625	52.293	0.171	0.162
-358.610	96.424	-0.053	0.060
-357.596	556.303	0.136	0.325
-356.581	15.811	-0.049	-0.039
-355.566	391.946	-0.136	0.282
-354.552	-107.613	-0.177	0.038
-353.537	308.065	0.105	-0.195
-352.523	800.000	0.054	0.168
-351.508	-200.000	0.006	0.119
-350.493	-35.752	0.230	0.124
-349.479	81.754	-0.297	-0.319
-348.464	-200.000	-0.021	0.131
-347.450	-117.341	0.474	-0.085
-346.435	353.070	-0.117	0.231
-345.420	-78.998	-0.080	0.027
-344.406	74.621	0.152	0.159
-343.391	77.885	0.223	-0.236
-342.377	-163.455	-0.202	-0.010
-341.362	-87.602	-0.056	0.017
-340.348	-94.563	0.208	0.056
-339.333	183.780	0.107	0.157
-338.318	531.688	0.096	0.226
-337.304	-116.387	0.074	-0.014
-336.289	7.645	-0.348	0.258
-335.275	84.920	0.151	0.165
-334.260	30.408	0.172	0.146
-333.245	800.000	0.094	-0.260
-332.231	-56.436	-0.189	-0.083
-331.216	-117.908	0.360	0.064
-330.202	-123.724	0.307	0.048
-329.187	-55.517	0.208	-0.092
-328.172	110.440	0.194	-0.231
-327.158	207.056	-0.032	0.050
-326.143	80.707	-0.144	0.154
-325.129	143.696	-0.046	0.060
-324.114	800.000	0.118	-0.372
-323.099	-106.960	0.120	-0.026
-322.085	-42.395	0.215	-0.109
-321.070	112.519	-0.082	-0.099
-320.056	800.000	-0.025	0.090
-319.041	-200.000	-0.001	0.056
-318.026	44.947	0.204	0.186
-317.012	-112.721	0.090	0.018
-315.997	44.043	0.128	-0.117
-314.983	-200.000	0.024	-0.187
-313.968	-200.000	-0.032	0.157
-312.953	67.341	0.159	-0.161
-311.939	-12.425	-0.230	0.149
-310.924	43.424	0.263	0.239
-309.910	-5.177	-0.186	-0.127
-308.895	-104.480	0.118	0.027
-307.880	132.234	-0.093	0.118
-306.866	-53.221	-0.086	-0.039
-305.851	312.683	-0.147	0.274
-304.837	-200.000	-0.026	0.212
-303.822	53.431	0.134	-0.127
-302.807	108.964	-0.043	0.050
-301.793	-168.917	-0.129	-0.005
-300.778	30.084	-0.193	-0.163
-299.764	401.188	0.181	-0.376
-298.749	60.410	0.120	-0.118
-297.735	615.603	0.084	0.209
-296.720	-183.613	-0.257	0.004
-295.705	-18.029	0.233	-0.145
-294.691	45.389	-0.189	0.173
-293.676	248.233	-0.139	-0.233
-292.662	-80.114	0.267	0.089
-291.647	-198.039	0.161	-0.001
-290.632	-200.000	-0.024	0.136
-289.618	-120.874	0.054	-0.009
-288.603	-166.823	-0.296	-0.012
-287.589	665.254	0.056	0.143
-286.574	-134.471	-0.151	-0.018
-285.559	91.664	-0.170	0.189
-284.545	82.503	0.060	-0.065
-283.530	72.023	0.142	-0.146
-282.516	-151.183	-0.155	0.011
-281.501	-118.060	-0.070	-0.012
-280.486	-200.000	-0.034	0.364
-279.472	-75.647	0.177	-0.062
-278.457	105.043	-0.086	0.100
-277.443	264.739	-0.175	0.301
-276.428	-43.498	0.306	-0.153
-275.413	113.553	0.078	0.094
-274.399	58.093	-0.073	0.071
-273.384	70.179	-0.238	-0.244
-272.370	75.957	-0.124	-0.129
-271.355	322.887	0.028	-0.053
-270.340	7.311	0.256	0.190
-269.326	-115.768	0.038	0.007
-268.311	800.000	-0.039	0.159
-267.297	-200.000	-0.037	-0.312
-266.282	-200.000	0.010	0.189
-265.267	-71.260	-0.237	0.088
-264.253	261.614	0.071	-0.122
-263.238	15.190	-0.127	0.099
-262.224	112.599	-0.095	0.114
-261.209	488.920	-0.020	-0.046
-260.195	-12.585	0.230	-0.148
-259.180	-146.788	0.331	0.028
-258.165	192.197	0.201	-0.299
-257.151	-200.000	0.046	-0.292
-256.136	3.171	-0.144	-0.103
-255.122	137.425	0.023	-0.030
-254.107	200.967	0.181	-0.276
-253.092	-200.000	0.010	0.151
-252.078	-200.000	-0.025	0.216
-251.063	177.979	-0.114	-0.165
-250.049	-200.000	0.067	-0.301
-249.034	51.241	0.178	-0.167
-248.019	-200.000	0.002	-0.163
-247.005	234.324	-0.206	0.337
-245.990	22.487	-0.136	0.110
-244.976	-67.954	-0.113	-0.044
-243.961	800.000	0.130	-0.380
-242.946	-84.210	-0.238	0.075
-241.932	-200.000	-0.029	-0.204
-240.917	-200.000	-0.032	0.181
-239.903	-12.991	0.157	-0.101
-238.888	-45.567	0.262	0.128
-237.873	-58.843	0.189	0.081
-236.859	800.000	-0.012	-0.046
-235.844	35.140	0.289	-0.250
-234.830	-88.483	-0.188	0.056
-233.815	-2.301	0.311	0.216
-232.800	147.458	0.173	0.231
-231.786	81.598	0.106	0.113
-230.771	399.561	-0.170	-0.352
-229.757	-200.000	0.007	0.054
-228.742	-200.000	0.005	-0.038
-227.727	347.590	-0.095	0.186
-226.713	31.832	-0.198	0.168
-225.698	800.000	-0.048	0.162
-224.684	251.919	-0.248	-0.417
-223.669	-40.495	-0.321	-0.165
-222.655	-74.751	-0.280	-0.099
-221.640	-200.000	-0.027	-0.299
-220.625	339.122	0.143	0.276
-219.611	-100.958	0.161	0.039
-218.596	-200.000	0.012	0.127
-217.582	622.101	-0.058	0.144
-216.567	233.232	-0.251	0.408
-215.552	800.000	0.074	0.206
-214.538	15.099	-0.190	0.147
-213.523	6.956	0.288	-0.212
-212.509	735.616	-0.045	-0.118
-211.494	-171.721	0.148	0.005
-210.479	-128.402	0.194	-0.027
-209.465	-200.000	-0.019	-0.143
-208.450	-109.132	0.083	0.017
-207.436	-122.301	-0.160	-0.026
-206.421	-200.000	0.016	-0.369
-205.406	-200.000	0.057	-0.254
-204.392	306.736	-0.061	-0.112
-203.377	71.110	0.129	-0.133
-202.363	178.276	-0.126	-0.182
-201.348	-200.000	0.053	0.237
-200.333	6.953	0.251	0.185
-199.319	-61.222	-0.287	-0.120
-198.304	-29.184	-0.047	0.027
-197.290	-44.374	0.262	-0.129
-196.275	-200.000	-0.008	-0.121
-195.260	-47.456	0.239	-0.115
-194.246	-111.707	0.089	0.018
-193.231	-133.028	-0.016	-0.002
-192.217	-103.610	-0.094	0.022
-191.202	15.722	-0.218	0.170
-190.187	-86.110	-0.136	-0.041
-189.173	13.969	-0.061	-0.047
-188.158	83.990	0.251	0.271
-187.144	69.096	0.264	-0.268
-186.129	237.246	-0.087	-0.142
-185.114	-200.000	0.025	0.134
-184.100	-13.784	0.060	-0.038
-183.085	-200.000	-0.008	-0.287
-182.071	493.678	-0.162	-0.367
-181.056	40.826	0.102	-0.090
-180.042	436.019	-0.111	-0.238
-179.027	-59.057	0.147	0.062
-178.012	-104.949	0.317	-0.072
-176.998	-29.712	0.271	0.153
-175.983	-200.000	0.003	0.143
-174.969	-82.225	0.231	-0.074
-173.954	67.484	-0.158	0.159
-172.939	195.120	-0.055	0.083
-171.925	-141.310	0.381	0.038
-170.910	-125.220	0.346	0.052
-169.896	480.185	0.132	-0.294
-168.881	287.341	0.205	-0.365
-167.866	-158.663	-0.164	0.009
-166.852	-20.105	0.046	-0.028
-165.837	800.000	0.051	0.213
-164.823	-200.000	0.005	0.060
-163.808	800.000	0.049	0.136
-162.793	68.180	0.089	-0.090
-161.779	-200.000	-0.019	-0.231
-160.764	537.907	0.061	-0.144
-159.750	287.687	-0.050	-0.089
-158.735	-97.792	-0.318	0.081
-157.720	-191.101	-0.078	-0.001
-156.706	172.159	-0.077	-0.108
-155.691	87.167	0.170	-0.185
-154.677	62.065	-0.178	-0.175
-153.662	553.941	0.126	0.298
-152.647	-200.000	-0.019	-0.102
-151.633	637.606	0.067	0.169
-150.618	47.206	-0.152	-0.139
-149.604	-2.948	0.248	0.171
-148.589	800.000	0.028	0.090
-147.574	800.000	-0.094	-0.262
-146.560	-181.987	-0.155	-0.003
-145.545	27.283	-0.115	0.095
-144.531	-3.583	0.168	0.115
-143.516	-23.491	-0.107	-0.063
-142.502	-61.227	0.233	0.097
-141.487	-175.268	0.177	-0.005
-140.472	-69.965	-0.044	-0.017
-139.458	-47.158	-0.256	0.123
-138.443	151.535	0.113	0.152
-137.429	-64.861	-0.184	-0.073
-136.414	-175.166	0.427	-0.012
-135.399	-160.148	0.140	0.008
-134.385	800.000	0.077	0.311
-133.370	61.728	0.192	0.189
-132.356	-129.145	-0.333	-0.046
-131.341	800.000	0.136	-0.377
-130.326	123.623	0.115	0.142
-129.312	77.209	-0.097	0.101
-128.297	-84.744	-0.117	-0.036
-127.283	-152.180	0.188	0.013
-126.268	-54.051	0.235	-0.105
-125.253	-6.429	-0.107	-0.072
-124.239	800.000	0.050	0.148
-123.224	21.685	0.130	-0.104
-122.210	-93.804	0.217	0.059
-121.195	-62.592	0.018	0.008
-120.180	-200.000	-0.023	0.183
-119.166	-92.874	-0.088	-0.024
-118.151	-148.502	0.250	-0.020
-117.137	-106.258	-0.104	-0.023
-116.122	-79.220	0.056	0.019
-115.107	-190.185	0.278	-0.003
-114.093	-10.563	0.090	0.058
-113.078	-70.181	-0.142	0.053
-112.064	204.612	0.126	0.193
-111.049	-200.000	0.013	-0.201
-110.034	-41.865	0.067	0.034
-109.020	-200.000	-0.019	0.116
-108.005	-106.478	-0.214	0.047
-106.991	-106.644	0.185	-0.041
-105.976	-85.595	-0.111	0.034
-104.962	-16.578	0.071	-0.044
-103.947	-200.000	0.091	-0.464
-102.932	-200.000	-0.023	-0.155
-101.918	-163.187	0.469	0.022
-100.903	-34.505	-0.178	0.096
-99.889	-153.476	-0.088	0.006
-98.874	645.447	0.082	0.205
-97.859	159.703	0.097	0.133
-96.845	5.050	0.124	0.090
-95.830	-56.537	-0.155	-0.068
-94.816	-66.882	-0.241	-0.094
-93.801	-83.326	-0.227	0.072
-92.786	145.762	-0.071	-0.094
-91.772	388.719	-0.151	-0.307
-90.757	243.496	-0.096	0.158
-89.743	-46.536	-0.197	-0.095
-88.728	-79.236	-0.113	-0.038
-87.713	-44.945	-0.066	0.033
-86.699	-200.000	-0.039	-0.194
-85.684	-200.000	0.026	0.455
-84.670	800.000	-0.018	-0.076
-83.655	58.275	0.319	-0.308
-82.640	-200.000	0.003	0.109
-81.626	-140.704	-0.249	0.025
-80.611	-98.972	0.141	0.035
-79.597	7.026	0.174	-0.127
-78.582	38.442	0.171	-0.150
-77.567	-67.789	0.325	0.125
-76.553	-191.221	0.020	-0.000
-75.538	85.073	0.189	-0.204
-74.524	258.235	0.088	0.149
-73.509	800.000	-0.041	0.135
-72.494	-159.247	0.509	0.028
-71.480	84.031	0.172	-0.185
-70.465	188.306	-0.140	0.206
-69.451	-200.000	0.005	0.404
-68.436	29.104	-0.101	-0.084
-67.422	617.845	0.066	0.163
-66.407	39.320	-0.046	0.041
-65.392	800.000	-0.105	-0.360
-64.378	30.715	0.227	-0.190
-63.363	-158.116	0.195	-0.011
-62.349	98.275	-0.025	0.029
-61.334	85.433	-1.143	-1.233
-60.319	-14.106	0.637	0.404
-59.305	-200.000	-0.099	-0.898
-58.290	800.000	0.393	1.108
-57.276	412.880	0.742	1.550
-56.261	-200.000	102.059	620.745
-55.246	602.722	1440.933	3517.781
-54.232	182.396	2653.630	3840.826
-53.217	111.592	2301.062	2725.436
-52.203	42.710	1913.776	1710.917
-51.188	36.648	1703.623	1476.880
-50.173	33.981	1659.364	1418.583
-49.159	51.091	1710.200	1592.099
-48.144	52.995	1726.836	1621.947
-47.130	36.166	1683.004	1455.132
-46.115	33.522	1667.682	1422.022
-45.100	33.349	1663.556	1417.159
-44.086	33.261	1660.609	1413.933
-43.071	33.221	1657.967	1411.330
-42.057	33.182	1655.629	1408.993
-41.042	33.316	1653.309	1407.957
-40.027	33.190	1651.619	1405.529
-39.013	33.250	1649.080	1403.753
-37.998	33.246	1648.075	1402.813
-36.984	33.256	1646.943	1401.869
-35.969	33.348	1645.223	1401.033
-34.954	33.414	1643.134	1399.685
-33.940	33.385	1641.463	1397.992
-32.925	33.461	1639.376	1396.719
-31.911	33.410	1637.588	1394.761
-30.896	33.455	1635.946	1393.643
-29.881	33.404	1634.752	1392.196
-28.867	33.346	1632.681	1389.947
-27.852	33.375	1631.407	1389.020
-26.838	33.363	1629.637	1387.368
-25.823	33.351	1628.587	1386.335
-24.809	33.398	1626.903	1385.186
-23.794	33.387	1625.577	1383.922
-22.779	33.455	1623.389	1382.505
-21.765	33.364	1622.489	1381.017
-20.750	33.471	1620.282	1379.868
-19.736	33.413	1618.926	1378.236
-18.721	33.379	1617.409	1376.642
-17.706	33.433	1616.120	1375.880
-16.692	33.299	1614.548	1373.515
-15.677	33.411	1613.276	1373.187
-14.663	33.451	1611.656	1372.049
-13.648	33.480	1610.467	1371.189
-12.633	33.457	1609.091	1369.794
-11.619	33.466	1606.858	1367.907
-10.604	33.456	1605.831	1366.903
-9.590	33.428	1604.848	1365.816
-8.575	33.421	1603.722	1364.754
-7.560	33.454	1602.247	1363.681
-6.546	33.495	1600.887	1362.765
-5.531	33.351	1600.104	1361.009
-4.517	33.399	1598.621	1360.033
-3.502	33.381	1597.918	1359.253
-2.487	33.452	1595.997	1358.073
-1.473	33.079	1583.303	1344.567
-0.458	29.868	1563.919	1305.447
0.556	23.385	1562.953	1268.309
1.571	20.963	1586.249	1269.487
2.586	20.552	1599.987	1277.345
3.600	18.716	1548.148	1222.792
4.615	10.200	1437.087	1078.430
5.629	1.454	1370.081	972.285
6.644	-0.242	1361.101	955.043
7.659	-0.419	1359.966	953.035
8.673	-0.410	1358.531	952.003
9.688	-0.459	1357.065	950.577
10.702	-0.713	1354.248	946.914
11.717	2.729	1360.701	973.208
12.731	11.973	1378.386	1044.965
13.746	18.394	1388.879	1093.965
14.761	19.069	1388.729	1098.060
15.775	19.135	1388.259	1098.012
16.790	19.076	1387.644	1097.053
17.804	19.077	1387.377	1096.751
18.819	19.333	1387.334	1098.250
19.834	19.382	1386.443	1097.760
20.848	19.443	1385.311	1097.150
21.863	19.439	1384.411	1096.315
22.877	19.547	1383.021	1095.807
23.892	19.292	1383.048	1094.113
24.907	19.391	1382.062	1093.860
25.921	19.421	1381.003	1093.116
26.936	19.572	1379.418	1092.723
27.950	19.454	1378.737	1091.340
28.965	19.479	1377.583	1090.487
29.980	19.435	1376.464	1089.228
30.994	19.563	1375.082	1088.843
32.009	19.507	1373.916	1087.470
33.023	19.453	1372.262	1085.730
34.038	19.473	1371.612	1085.242
35.053	19.567	1370.518	1084.874
36.067	19.488	1369.808	1083.716
37.082	19.471	1368.618	1082.571
38.096	19.437	1367.905	1081.702
39.111	19.356	1367.167	1080.513
40.126	19.415	1366.281	1080.089
41.140	19.385	1365.931	1079.526
42.155	19.370	1365.354	1078.883
43.169	19.508	1364.996	1079.363
44.184	19.407	1365.239	1078.833
45.199	19.453	1364.398	1078.355
46.213	19.527	1363.876	1078.315
47.228	19.451	1362.991	1077.043
48.242	19.497	1361.237	1075.852
49.257	19.582	1359.495	1074.905
50.271	19.406	1359.031	1073.351
51.286	19.458	1357.022	1071.988
52.301	19.399	1355.803	1070.564
53.315	19.486	1354.965	1070.351
54.330	19.511	1354.044	1069.685
55.344	19.439	1353.451	1068.675
56.359	19.478	1352.226	1067.855
57.374	19.528	1351.159	1067.227
58.388	19.395	1350.977	1066.162
59.403	19.489	1350.388	1066.186
60.417	19.518	1349.377	1065.471
61.432	19.483	1348.773	1064.687
62.447	19.457	1347.886	1063.733
63.461	19.417	1346.999	1062.688
64.476	19.498	1345.586	1061.982
65.490	19.485	1344.754	1061.151
66.505	19.464	1342.748	1059.341
67.520	19.576	1341.896	1059.265
68.534	19.556	1340.548	1057.986
69.549	19.469	1339.652	1056.650
70.563	19.453	1338.694	1055.705
71.578	19.543	1337.557	1055.263
72.593	19.461	1336.935	1054.177
73.607	19.522	1335.780	1053.546
74.622	19.475	1335.292	1052.783
75.636	19.419	1334.525	1051.740
76.651	19.450	1334.003	1051.429
77.666	19.434	1333.198	1050.600
78.680	19.417	1332.495	1049.853
79.695	19.523	1331.461	1049.592
80.709	19.451	1330.437	1048.250
81.724	19.429	1330.293	1047.910
82.739	19.464	1329.194	1047.166
83.753	19.555	1328.175	1046.823
84.768	19.467	1326.786	1045.102
85.782	19.568	1325.778	1044.827
86.797	19.522	1324.359	1043.335
87.812	19.575	1323.314	1042.740
88.826	19.585	1322.057	1041.720
89.841	19.527	1321.073	1040.505
90.855	19.443	1320.495	1039.452
91.870	19.502	1319.418	1038.862
92.884	19.475	1318.674	1038.026
93.899	19.538	1317.914	1037.715
94.914	19.541	1316.981	1036.905
95.928	19.671	1315.656	1036.547
96.943	19.513	1315.048	1035.032
97.957	19.588	1314.542	1034.993
98.972	19.651	1313.127	1034.164
99.987	19.449	1312.264	1032.185
101.001	19.526	1311.675	1032.088
102.016	19.550	1309.640	1030.538
103.030	19.498	1309.856	1030.309
104.045	19.606	1308.650	1029.912
105.060	19.568	1307.430	1028.633
106.074	19.411	1306.679	1027.019
107.089	19.521	1305.550	1026.695
108.103	19.621	1304.451	1026.334
109.118	19.676	1303.110	1025.516
110.133	19.623	1301.750	1024.037
111.147	19.653	1300.530	1023.163
112.162	19.587	1299.189	1021.629
113.176	19.558	1298.292	1020.663
114.191	19.647	1297.555	1020.516
115.206	19.658	1295.868	1019.166
116.220	19.642	1295.426	1018.634
117.235	19.556	1294.064	1016.968
118.249	19.635	1293.459	1016.867
119.264	19.648	1292.195	1015.858
120.279	19.641	1291.136	1014.898
121.293	19.644	1290.119	1014.023
122.308	19.743	1288.975	1013.618
123.322	19.607	1288.388	1012.266
124.337	19.727	1287.105	1011.871
125.352	19.787	1285.783	1011.093
126.366	19.675	1285.336	1009.999
127.381	19.712	1284.278	1009.295
128.395	19.729	1283.225	1008.476
129.410	19.798	1282.096	1007.905
130.424	19.575	1281.971	1006.415
131.439	19.716	1280.500	1005.990
132.454	19.570	1279.952	1004.620
133.468	19.671	1279.280	1004.593
134.483	19.586	1278.840	1003.663
135.497	19.688	1277.695	1003.271
136.512	19.634	1276.471	1001.910
137.527	19.522	1275.548	1000.445
138.541	19.547	1273.744	999.087
139.556	19.557	1272.591	998.153
140.570	19.686	1271.080	997.623
141.585	19.626	1270.015	996.354
142.600	19.581	1269.044	995.244
143.614	19.677	1268.125	994.987
144.629	19.605	1266.881	993.511
145.643	19.629	1265.430	992.420
146.658	19.511	1264.719	991.099
147.673	19.607	1263.752	990.805
148.687	19.677	1262.800	990.368
149.702	19.627	1261.516	988.992
150.716	19.653	1260.638	988.365
151.731	19.607	1259.378	987.023
152.746	19.689	1258.331	986.586
153.760	19.769	1257.318	986.161
154.775	19.675	1256.557	984.940
155.789	19.675	1255.320	983.883
156.804	19.657	1254.251	982.858
157.819	19.605	1253.852	982.159
158.833	19.681	1252.674	981.584
159.848	19.660	1252.194	981.002
160.862	19.727	1250.875	980.262
161.877	19.663	1250.458	979.484
162.892	19.670	1249.717	978.854
163.906	19.824	1248.445	978.647
164.921	19.857	1247.441	977.958
165.935	19.724	1247.374	977.068
166.950	19.784	1246.424	976.578
167.964	19.790	1246.007	976.197
168.979	19.695	1245.233	974.965
169.994	19.724	1244.443	974.425
171.008	19.801	1243.778	974.251
172.023	19.755	1243.263	973.507
173.037	19.807	1242.061	972.769
174.052	19.868	1241.534	972.613
175.067	19.882	1240.506	971.798
176.081	19.752	1239.811	970.442
177.096	19.762	1239.071	969.833
178.110	19.776	1238.327	969.244
179.125	19.753	1237.380	968.285
180.140	19.907	1235.907	967.908
181.154	19.762	1235.115	966.394
182.169	19.780	1234.110	965.620
183.183	19.789	1232.940	964.672
184.198	19.963	1231.743	964.621
185.213	19.894	1230.651	963.295
186.227	19.928	1230.565	963.332
187.242	19.830	1229.386	961.775
188.256	19.872	1228.260	961.047
189.271	19.890	1227.504	960.470
190.286	19.962	1226.166	959.733
191.300	19.778	1226.105	958.585
192.315	19.820	1225.536	958.286
193.329	19.821	1225.348	958.060
194.344	19.842	1224.654	957.546
195.359	19.863	1224.329	957.327
196.373	19.748	1223.823	956.209
197.388	19.763	1223.586	956.023
198.402	19.714	1222.863	955.103
199.417	19.780	1222.602	955.181
200.432	19.756	1221.991	954.483
201.446	19.840	1221.160	954.215
202.461	19.794	1220.382	953.268
203.475	19.876	1219.401	952.870
204.490	19.871	1218.216	951.832
205.504	19.832	1217.268	950.793
206.519	19.910	1216.579	950.601
207.534	19.918	1215.505	949.718
208.548	19.883	1214.527	948.679
209.563	19.948	1213.617	948.240
210.577	19.917	1212.665	947.244
211.592	19.790	1212.268	946.151
212.607	20.108	1211.124	946.916
213.621	19.954	1210.726	945.677
214.636	20.050	1209.661	945.286
215.650	20.056	1208.780	944.550
216.665	19.999	1207.997	943.544
217.680	19.968	1207.025	942.529
218.694	20.008	1206.421	942.191
219.709	20.024	1205.924	941.807
220.723	20.094	1204.820	941.246
221.738	19.987	1204.125	940.036
222.753	20.001	1203.422	939.480
223.767	20.008	1202.689	938.862
224.782	20.009	1202.233	938.427
225.796	20.108	1201.230	938.098
226.811	20.149	1201.143	938.170
227.826	20.022	1200.952	937.249
228.840	20.115	1199.944	936.884
229.855	20.066	1199.231	935.982
230.869	20.057	1198.673	935.411
231.884	20.081	1197.833	934.803
232.899	20.011	1197.083	933.756
233.913	20.086	1196.643	933.735
234.928	20.013	1196.166	932.888
235.942	20.222	1195.309	933.261
236.957	20.171	1194.419	932.211
237.972	20.073	1193.732	931.067
238.986	20.032	1193.222	930.363
240.001	20.114	1192.488	930.150
241.015	20.206	1191.547	929.825
242.030	20.238	1190.933	929.435
243.045	20.237	1190.237	928.806
244.059	20.208	1189.236	927.785
245.074	20.169	1188.891	927.228
246.088	20.310	1187.974	927.185
247.103	20.190	1187.113	925.792
248.117	20.299	1186.407	925.742
249.132	20.231	1185.999	924.975
250.147	20.210	1185.074	924.060
251.161	20.230	1184.624	923.735
252.176	20.238	1183.698	922.974
253.190	20.221	1182.774	922.083
254.205	20.263	1182.520	922.024
255.220	20.234	1181.839	921.257
256.234	20.293	1180.948	920.797
257.249	20.384	1180.595	920.919
258.263	20.350	1179.792	920.033
259.278	20.302	1179.745	919.660
260.293	20.367	1178.822	919.201
261.307	20.412	1178.024	918.739
262.322	20.347	1177.651	918.021
263.336	20.389	1177.011	917.664
264.351	20.406	1176.327	917.138
265.366	20.203	1176.388	916.031
266.380	20.340	1175.164	915.722
267.395	20.304	1174.508	914.939
268.409	20.323	1173.877	914.466
269.424	20.363	1173.514	914.316
270.439	20.415	1172.779	913.933
271.453	20.476	1171.967	913.542
272.468	20.444	1171.364	912.821
273.482	20.420	1170.550	911.984
274.497	20.474	1169.821	911.617
275.512	20.580	1169.143	911.563
276.526	20.464	1168.378	910.279
277.541	20.529	1167.998	910.244
278.555	20.521	1167.308	909.579
279.570	20.460	1166.567	908.606
280.585	20.498	1166.059	908.328
281.599	20.398	1165.555	907.334
282.614	20.424	1164.135	906.281
283.628	20.476	1163.443	905.936
284.643	20.629	1162.062	905.575
285.657	20.500	1161.667	904.515
286.672	20.514	1160.841	903.865
287.687	20.480	1160.126	903.051
288.701	20.533	1159.552	902.799
289.716	20.673	1158.437	902.580
290.730	20.607	1157.955	901.784
291.745	20.612	1157.063	901.032
292.760	20.571	1156.861	900.586
293.774	20.586	1156.588	900.368
294.789	20.590	1155.644	899.577
295.803	20.618	1155.175	899.278
296.818	20.646	1154.537	898.843
297.833	20.553	1153.945	897.821
298.847	20.635	1153.301	897.668
299.862	20.666	1152.259	896.938
300.876	20.815	1151.188	896.790
301.891	20.690	1150.955	895.884
302.906	20.642	1150.600	895.281
303.920	20.771	1149.707	895.171
304.935	20.768	1149.185	894.672
305.949	20.775	1148.285	893.925
306.964	20.880	1147.814	894.021
307.979	20.699	1147.331	892.637
308.993	20.746	1146.652	892.272
310.008	20.812	1145.871	891.924
311.022	20.843	1144.625	891.033
312.037	20.803	1144.166	890.393
313.052	20.884	1143.227	889.995
314.066	20.733	1142.537	888.608
315.081	20.743	1142.209	888.327
316.095	20.706	1141.496	887.503
317.110	20.792	1140.608	887.170
318.125	20.748	1140.142	886.507
319.139	20.835	1139.306	886.223
320.154	21.020	1138.289	886.292
321.168	20.859	1137.903	885.094
322.183	20.914	1137.407	884.912
323.197	20.846	1136.947	884.132
324.212	20.906	1135.885	883.528
325.227	20.946	1135.485	883.346
326.241	20.914	1135.383	883.026
327.256	20.839	1135.094	882.341
328.270	20.880	1133.880	881.524
329.285	20.891	1132.847	880.702
330.300	20.997	1131.907	880.429
331.314	20.895	1131.206	879.290
332.329	20.963	1130.316	878.863
333.343	21.003	1129.517	878.364
334.358	21.053	1128.906	878.066
335.373	21.109	1127.739	877.360
336.387	21.076	1127.124	876.639
337.402	21.085	1126.517	876.135
338.416	21.001	1126.116	875.323
339.431	21.098	1125.325	875.117
340.446	20.993	1125.123	874.358
341.460	21.105	1124.126	874.067
342.475	21.044	1123.749	873.388
343.489	21.024	1122.692	872.391
344.504	21.056	1121.226	871.334
345.519	21.086	1120.604	870.921
346.533	21.103	1120.181	870.602
347.548	21.106	1119.107	869.705
348.562	21.231	1118.426	869.720
349.577	21.068	1118.346	868.771
350.592	21.204	1117.108	868.409
351.606	21.222	1116.475	867.928
352.621	21.203	1115.921	867.328
353.635	21.144	1115.592	866.703
354.650	21.089	1114.736	865.688
355.665	21.248	1113.878	865.731
356.679	21.160	1113.627	865.026
357.694	21.314	1112.983	865.208
358.708	21.300	1112.074	864.358
359.723	21.208	1111.565	863.434
360.738	21.242	1110.507	862.703
361.752	21.299	1110.364	862.794
362.767	21.244	1110.364	862.448
363.781	21.275	1109.597	861.927
364.796	21.373	1109.056	861.917
365.810	21.291	1108.618	861.095
366.825	21.409	1107.823	860.983
367.840	21.422	1106.929	860.272
368.854	21.323	1106.771	859.587
369.869	21.484	1105.759	859.518
370.883	21.365	1105.328	858.520
371.898	21.408	1104.061	857.672
372.913	21.524	1103.447	857.687
373.927	21.456	1103.356	857.208
374.942	21.472	1103.079	856.998
375.956	21.442	1102.291	856.163
376.971	21.453	1101.500	855.524
377.986	21.527	1100.827	855.288
379.000	21.557	1100.593	855.175
380.015	21.606	1099.957	854.848
381.029	21.488	1099.394	853.757
382.044	21.494	1098.814	853.262
383.059	21.539	1098.013	852.784
384.073	21.483	1097.570	852.088
385.088	21.581	1096.383	851.570
386.102	21.541	1095.338	850.487
387.117	21.623	1094.416	850.094
388.132	21.551	1093.891	849.262
389.146	21.655	1093.360	849.278
390.161	21.580	1092.628	848.272
391.175	21.657	1091.911	848.014
392.190	21.530	1091.635	847.108
393.205	21.531	1090.354	846.048
394.219	21.675	1089.603	846.085
395.234	21.715	1089.109	845.820
396.248	21.688	1087.910	844.684
397.263	21.721	1087.251	844.254
398.278	21.678	1086.947	843.738
399.292	21.787	1085.748	843.257
400.307	21.775	1085.159	842.667
401.321	21.727	1084.667	841.978
402.336	21.600	1083.944	840.735
403.350	21.722	1083.511	840.910
404.365	21.803	1082.771	840.647
405.380	21.765	1081.910	839.725
406.394	21.787	1081.521	839.454
407.409	21.924	1080.702	839.400
408.423	21.886	1079.794	838.436
409.438	21.923	1079.315	838.169
410.453	21.803	1078.462	836.860
411.467	21.866	1077.551	836.376
412.482	21.898	1076.956	835.994
413.496	21.845	1076.169	835.057
414.511	21.913	1075.370	834.687
415.526	21.933	1075.030	834.446
416.540	21.877	1074.647	833.809
417.555	21.980	1074.187	833.863
418.569	21.980	1073.674	833.391
419.584	21.996	1073.326	833.125
420.599	22.043	1072.767	832.839
421.613	148.109	1397.372	1793.925
422.628	136.586	1444.647	1794.025
