DTS Sentinel unit serial number:	SN413079Multiplexer serial number:	ORYXHardware model number:	OX4-SRSoftware version number:	ORYX F/W v4.00 Oryx Data Collector v3.7.2.0data status	okinstallation	princeton_trtdifferential loss correction	single-endedforward channel	channel 2reverse channel	N/Adate	2019/09/10time	18:21:11forward acquisition time	60.00reverse acquisition time	0.00gamma	496.2192k internal	0.2318k external	0.2318temperature offset calibration	0.9941default loss term (dB/km)	0.3790temperature slope calibration	1.0000multiplexer offset coefficient	1.0000multiplexer slope coefficient	1.0000fibre end	0.00T internal ref (°C)	36.27T ext. ref 1 (°C)	-0.32T ext. ref 2 (°C)	28.33length (m)	temperature (°C)	Stokes	anti-Stokes-747.200	-42.439	-0.238	-0.123
-746.185	-200.000	-0.027	0.436
-745.171	-53.226	-0.189	0.088
-744.156	-200.000	0.050	0.338
-743.142	-50.939	-0.221	0.105
-742.127	29.094	-0.138	0.118
-741.112	126.982	0.068	-0.087
-740.098	-200.000	-0.032	0.323
-739.083	27.091	0.050	0.043
-738.069	-15.413	0.117	0.075
-737.054	-200.000	-0.009	-0.211
-736.039	-171.979	-0.137	0.004
-735.025	166.684	0.320	0.459
-734.010	-73.270	0.071	0.026
-732.996	800.000	-0.104	-0.430
-731.981	-25.788	-0.134	-0.080
-730.966	238.755	0.037	0.063
-729.952	-200.000	-0.003	-0.147
-728.937	-139.099	0.323	0.035
-727.923	800.000	-0.123	-0.348
-726.908	-19.452	0.184	-0.115
-725.894	256.832	-0.135	-0.234
-724.879	-50.462	-0.432	0.206
-723.864	-111.673	0.206	-0.042
-722.850	-200.000	-0.003	0.155
-721.835	-200.000	-0.032	0.292
-720.821	3.828	-0.287	0.212
-719.806	62.222	-0.182	-0.183
-718.791	-16.230	0.025	-0.016
-717.777	800.000	-0.063	0.210
-716.762	-78.725	-0.081	-0.028
-715.748	86.629	-0.140	0.156
-714.733	-74.195	-0.111	0.041
-713.718	245.396	0.129	0.220
-712.704	439.946	0.118	0.261
-711.689	47.893	0.131	-0.124
-710.675	-67.847	-0.283	-0.112
-709.660	209.444	0.138	-0.218
-708.645	-153.798	-0.284	0.020
-707.631	324.891	0.086	-0.166
-706.616	676.270	-0.075	0.197
-705.602	-200.000	0.014	0.309
-704.587	-146.377	-0.152	0.013
-703.572	85.385	0.088	0.098
-702.558	-74.830	0.246	0.089
-701.543	699.012	0.088	0.235
-700.529	362.969	-0.080	0.162
-699.514	-130.134	0.111	-0.015
-698.499	79.332	-0.188	0.203
-697.485	124.098	-0.111	-0.141
-696.470	-200.000	0.024	-0.251
-695.456	800.000	-0.052	-0.163
-694.441	-21.143	-0.155	0.096
-693.426	90.781	-0.068	0.077
-692.412	-141.482	0.374	-0.038
-691.397	113.399	0.017	-0.021
-690.383	800.000	-0.017	-0.051
-689.368	-92.563	-0.333	-0.094
-688.354	4.812	0.187	-0.138
-687.339	-145.754	0.174	-0.016
-686.324	-200.000	-0.061	0.312
-685.310	443.851	0.143	-0.317
-684.295	800.000	-0.073	-0.299
-683.281	567.741	0.055	0.134
-682.266	-85.860	0.238	0.075
-681.251	800.000	0.115	-0.375
-680.237	-120.867	0.094	0.016
-679.222	492.745	0.101	0.234
-678.208	-200.000	0.038	-0.384
-677.193	-43.713	-0.042	0.021
-676.178	-200.000	-0.024	-0.153
-675.164	260.248	-0.088	0.153
-674.149	12.788	-0.184	0.143
-673.135	-200.000	-0.022	0.151
-672.120	140.761	0.075	-0.100
-671.105	-51.546	0.012	0.006
-670.091	-26.512	0.180	0.107
-669.076	118.339	-0.207	-0.258
-668.062	570.441	-0.111	0.272
-667.047	-102.092	0.229	0.056
-666.032	69.229	0.220	-0.228
-665.018	-153.622	-0.186	0.013
-664.003	-97.303	-0.281	0.074
-662.989	800.000	0.033	-0.101
-661.974	66.754	-0.213	-0.218
-660.959	81.168	-0.055	-0.059
-659.945	800.000	-0.049	0.210
-658.930	-200.000	0.014	0.175
-657.916	530.203	0.048	0.115
-656.901	156.481	-0.128	0.178
-655.886	111.797	-0.167	-0.203
-654.872	-53.692	0.125	0.058
-653.857	192.955	-0.248	0.378
-652.843	446.193	-0.018	0.039
-651.828	313.568	-0.050	-0.095
-650.814	-200.000	-0.029	0.306
-649.799	-200.000	-0.025	0.229
-648.784	176.766	0.216	-0.317
-647.770	-29.518	-0.159	0.092
-646.755	533.436	-0.044	-0.105
-645.741	176.668	-0.174	0.255
-644.726	-94.621	-0.456	0.125
-643.711	-24.115	0.158	-0.095
-642.697	-92.237	-0.156	-0.044
-641.682	-200.000	-0.032	0.244
-640.668	-124.328	-0.402	-0.063
-639.653	-92.438	0.221	-0.063
-638.638	617.815	0.063	0.158
-637.624	800.000	-0.077	-0.307
-636.609	-20.209	-0.404	0.251
-635.595	-200.000	-0.006	-0.146
-634.580	219.792	-0.118	0.191
-633.565	-200.000	-0.014	0.182
-632.551	800.000	0.058	0.177
-631.536	800.000	-0.048	-0.170
-630.522	218.313	-0.025	0.041
-629.507	-145.032	0.411	0.038
-628.492	-23.263	-0.085	0.052
-627.478	-84.350	-0.080	-0.025
-626.463	-200.000	0.020	-0.107
-625.449	10.919	0.140	0.108
-624.434	770.352	-0.050	-0.137
-623.419	171.934	0.150	0.217
-622.405	-51.967	-0.094	-0.044
-621.390	-200.000	0.003	-0.036
-620.376	-126.511	0.260	-0.039
-619.361	19.516	-0.202	-0.163
-618.346	71.589	-0.122	-0.128
-617.332	-170.955	-0.239	0.008
-616.317	203.561	-0.110	-0.171
-615.303	-105.618	0.099	-0.023
-614.288	13.846	-0.189	0.148
-613.273	44.210	0.160	-0.148
-612.259	160.194	0.198	0.278
-611.244	800.000	-0.096	-0.381
-610.230	19.724	0.237	-0.192
-609.215	98.963	-0.071	-0.083
-608.201	22.821	-0.161	0.133
-607.186	-61.156	-0.169	-0.072
-606.171	9.337	0.149	0.113
-605.157	61.262	-0.102	0.102
-604.142	9.048	0.017	0.013
-603.128	203.242	0.134	0.209
-602.113	44.201	-0.125	0.115
-601.098	-113.682	0.112	-0.022
-600.084	461.239	-0.066	-0.148
-599.069	-200.000	0.008	-0.065
-598.055	166.597	-0.318	-0.454
-597.040	800.000	0.033	-0.133
-596.025	59.923	-0.203	0.202
-595.011	800.000	-0.064	0.209
-593.996	172.536	-0.084	-0.122
-592.982	-117.339	-0.418	-0.076
-591.967	113.860	0.103	0.125
-590.952	-49.053	0.408	0.196
-589.938	-152.459	-0.319	0.023
-588.923	-200.000	0.025	0.212
-587.909	-200.000	0.028	0.246
-586.894	800.000	0.043	0.180
-585.879	29.295	-0.093	0.080
-584.865	-39.243	-0.217	0.115
-583.850	30.701	-0.053	-0.046
-582.836	95.589	0.099	0.114
-581.821	-37.166	0.075	0.040
-580.806	-200.000	0.008	-0.088
-579.792	-157.851	-0.185	0.011
-578.777	-71.049	0.247	0.093
-577.763	-87.457	0.118	-0.036
-576.748	-200.000	0.182	-0.001
-575.733	555.579	0.014	0.035
-574.719	-200.000	0.005	-0.165
-573.704	-75.197	0.166	-0.060
-572.690	68.310	0.098	0.101
-571.675	-200.000	-0.013	0.154
-570.661	-24.695	0.395	-0.236
-569.646	651.607	0.038	-0.097
-568.631	-106.177	0.182	0.041
-567.617	800.000	0.139	-0.413
-566.602	-200.000	-0.053	-0.308
-565.588	-200.000	-0.077	0.388
-564.573	92.553	-0.201	0.228
-563.558	-63.944	-0.104	0.043
-562.544	14.636	0.103	-0.081
-561.529	-200.000	-0.050	-0.294
-560.515	459.115	-0.121	0.270
-559.500	-128.180	-0.085	-0.012
-558.485	-200.000	0.009	0.275
-557.471	-143.728	-0.227	0.022
-556.456	800.000	-0.040	-0.113
-555.442	575.799	0.041	-0.101
-554.427	21.903	-0.221	0.181
-553.412	-200.000	0.002	-0.030
-552.398	30.986	-0.094	-0.081
-551.383	292.603	0.093	0.170
-550.369	53.198	-0.120	-0.116
-549.354	1.306	0.261	-0.189
-548.339	-200.000	-0.013	-0.191
-547.325	800.000	-0.080	0.295
-546.310	192.238	0.153	0.231
-545.296	-28.632	0.194	0.112
-544.281	59.362	0.170	0.168
-543.266	123.123	-0.030	0.038
-542.252	-33.964	-0.299	-0.165
-541.237	-49.563	0.213	-0.102
-540.223	-200.000	0.030	0.150
-539.208	19.964	-0.297	0.240
-538.193	-200.000	0.019	-0.150
-537.179	-200.000	0.010	-0.078
-536.164	13.298	0.013	0.010
-535.150	112.141	-0.051	-0.062
-534.135	-77.440	0.138	-0.048
-533.121	-200.000	-0.020	-0.089
-532.106	-200.000	-0.026	0.228
-531.091	161.826	-0.150	-0.210
-530.077	172.342	0.129	-0.186
-529.062	249.661	-0.288	-0.490
-528.048	-82.724	0.214	0.069
-527.033	-13.588	0.265	0.172
-526.018	-42.800	-0.140	-0.071
-525.004	-104.976	0.197	-0.045
-523.989	-88.612	0.237	-0.071
-522.975	81.332	-0.118	-0.128
-521.960	454.020	-0.061	-0.137
-520.945	238.698	0.070	0.116
-519.931	-151.733	-0.154	0.011
-518.916	-200.000	0.000	0.042
-517.902	-29.212	0.461	-0.265
-516.887	-200.000	-0.001	0.160
-515.872	800.000	-0.050	-0.219
-514.858	169.730	-0.263	-0.376
-513.843	76.054	0.276	-0.293
-512.829	-85.060	0.179	0.056
-511.814	-200.000	-0.189	-0.000
-510.799	126.093	0.097	-0.122
-509.785	-149.610	-0.099	-0.008
-508.770	800.000	-0.031	-0.102
-507.756	-200.000	0.004	-0.093
-506.741	251.473	0.124	0.211
-505.726	3.166	0.140	0.102
-504.712	-200.000	0.028	-0.396
-503.697	-138.092	0.123	-0.014
-502.683	-200.000	0.039	-0.328
-501.668	57.417	-0.176	0.173
-500.653	113.655	0.278	-0.338
-499.639	-83.830	0.133	0.042
-498.624	-6.101	-0.128	-0.088
-497.610	800.000	0.045	0.152
-496.595	296.549	0.156	-0.287
-495.581	52.638	-0.136	0.130
-494.566	-75.519	0.312	0.111
-493.551	-88.217	-0.416	-0.125
-492.537	-122.751	-0.236	0.038
-491.522	80.184	0.241	0.260
-490.508	-29.212	-0.110	-0.063
-489.493	-38.692	-0.176	0.093
-488.478	630.071	-0.105	0.265
-487.464	-13.512	-0.259	-0.168
-486.449	98.168	-0.128	-0.148
-485.435	800.000	0.027	0.118
-484.420	295.250	0.108	-0.199
-483.405	-17.829	-0.197	-0.124
-482.391	-62.426	-0.175	0.073
-481.376	210.501	-0.212	0.334
-480.362	26.062	0.147	0.123
-479.347	-11.839	-0.155	-0.102
-478.332	69.313	-0.379	-0.391
-477.318	-145.984	0.138	-0.012
-476.303	-200.000	-0.001	-0.126
-475.289	-80.237	0.242	0.081
-474.274	800.000	-0.048	0.159
-473.259	73.050	-0.170	-0.178
-472.245	18.810	0.138	-0.111
-471.230	800.000	-0.072	0.286
-470.216	72.112	0.337	0.351
-469.201	35.981	0.355	-0.312
-468.186	-106.686	-0.066	-0.015
-467.172	-200.000	0.008	0.102
-466.157	125.853	-0.074	0.093
-465.143	-44.142	-0.148	-0.074
-464.128	-200.000	-0.026	0.187
-463.113	-123.797	0.140	-0.022
-462.099	-1.967	0.177	0.125
-461.084	301.609	-0.097	-0.179
-460.070	71.854	0.056	-0.059
-459.055	-200.000	0.022	-0.120
-458.040	-12.817	-0.327	0.213
-457.026	-173.069	0.233	0.007
-456.011	352.857	0.075	-0.149
-454.997	-200.000	-0.028	0.161
-453.982	800.000	-0.085	-0.360
-452.968	800.000	0.022	-0.097
-451.953	170.867	-0.039	-0.056
-450.938	124.211	-0.180	-0.227
-449.924	-124.234	0.191	-0.030
-448.909	-55.823	-0.302	-0.135
-447.895	58.692	-0.158	0.155
-446.880	-89.438	-0.194	-0.057
-445.865	-6.439	-0.150	-0.102
-444.851	484.389	0.156	-0.354
-443.836	-28.797	0.263	0.151
-442.822	-20.745	-0.211	0.130
-441.807	25.955	0.135	-0.113
-440.792	800.000	-0.092	-0.275
-439.778	201.375	0.050	-0.076
-438.763	224.870	-0.082	-0.133
-437.749	560.670	-0.119	0.288
-436.734	305.281	0.233	-0.432
-435.719	-200.000	-0.023	-0.203
-434.705	-200.000	-0.014	-0.176
-433.690	128.247	-0.043	0.055
-432.676	800.000	-0.022	-0.075
-431.661	-1.847	-0.077	0.054
-430.646	-100.366	-0.152	0.038
-429.632	119.627	-0.029	-0.036
-428.617	150.875	0.031	-0.042
-427.603	-200.000	-0.059	0.300
-426.588	800.000	0.033	0.103
-425.573	-25.128	0.192	0.114
-424.559	800.000	0.038	-0.165
-423.544	-86.805	0.502	0.153
-422.530	33.253	0.182	0.158
-421.515	-200.000	-0.043	-0.201
-420.500	323.079	0.057	-0.109
-419.486	55.518	-0.092	-0.089
-418.471	-126.416	0.396	0.059
-417.457	-72.259	0.115	-0.043
-416.442	93.988	-0.233	0.264
-415.428	-34.253	0.214	-0.118
-414.413	397.856	-0.119	0.248
-413.398	-128.139	0.200	-0.029
-412.384	-111.245	0.395	0.081
-411.369	-200.000	0.004	0.304
-410.355	-63.838	-0.085	0.035
-409.340	-97.120	0.078	-0.020
-408.325	-200.000	-0.004	0.114
-407.311	80.652	-0.226	0.243
-406.296	120.513	-0.068	0.084
-405.282	-109.008	-0.250	0.053
-404.267	-23.085	-0.174	0.105
-403.252	220.147	-0.149	-0.238
-402.238	480.725	0.109	-0.246
-401.223	87.822	0.159	0.176
-400.209	800.000	-0.048	0.171
-399.194	305.203	-0.229	-0.425
-398.179	-121.309	-0.316	-0.053
-397.165	800.000	-0.088	-0.355
-396.150	-69.246	-0.235	-0.090
-395.136	69.009	-0.045	-0.047
-394.121	792.567	-0.031	-0.084
-393.106	479.778	0.098	-0.221
-392.092	69.845	-0.315	-0.324
-391.077	-31.179	-0.228	0.129
-390.063	-127.889	-0.102	-0.015
-389.048	-101.830	0.174	0.042
-388.033	-142.385	-0.094	-0.009
-387.019	92.890	-0.078	0.087
-386.004	251.815	0.062	-0.105
-384.990	166.410	-0.059	0.084
-383.975	-80.453	0.361	-0.120
-382.960	-65.556	0.121	-0.048
-381.946	294.699	-0.194	-0.354
-380.931	134.469	-0.081	0.105
-379.917	-111.178	0.191	-0.039
-378.902	25.042	0.144	0.119
-377.888	1.357	-0.187	-0.134
-376.873	-110.281	-0.061	0.013
-375.858	211.372	-0.117	0.184
-374.844	179.371	0.093	-0.136
-373.829	-79.663	-0.048	0.016
-372.815	142.414	0.124	0.164
-371.800	252.423	-0.212	0.361
-370.785	-200.000	0.038	-0.301
-369.771	136.634	0.072	-0.094
-368.756	-17.857	0.072	-0.045
-367.742	-119.032	-0.199	0.035
-366.727	-125.329	-0.446	0.068
-365.712	493.143	0.062	0.141
-364.698	414.088	-0.034	0.071
-363.683	-40.914	0.336	0.173
-362.669	-44.277	-0.364	0.182
-361.654	121.513	0.062	0.077
-360.639	-154.490	0.253	-0.017
-359.625	-200.000	0.004	0.021
-358.610	-69.858	-0.073	-0.028
-357.596	-16.595	-0.145	0.091
-356.581	-54.530	0.065	-0.029
-355.566	-100.593	-0.262	0.065
-354.552	763.707	0.062	-0.167
-353.537	-200.000	-0.030	0.367
-352.523	-200.000	0.060	0.319
-351.508	-200.000	0.000	-0.064
-350.493	-200.000	-0.004	0.087
-349.479	74.377	-0.215	-0.225
-348.464	-85.763	-0.130	-0.040
-347.450	-5.395	-0.270	-0.184
-346.435	-64.904	-0.201	-0.081
-345.420	111.649	-0.255	-0.306
-344.406	-78.552	0.294	-0.100
-343.391	-200.000	0.026	0.258
-342.377	800.000	-0.036	0.151
-341.362	38.836	0.101	-0.090
-340.348	-168.205	0.224	0.009
-339.333	400.731	0.045	-0.094
-338.318	38.635	0.222	0.198
-337.304	-53.156	-0.163	0.075
-336.289	193.898	-0.244	0.367
-335.275	371.509	-0.027	-0.055
-334.260	-200.000	0.050	-0.219
-333.245	178.550	-0.118	-0.171
-332.231	-104.583	0.201	-0.046
-331.216	10.366	0.316	0.240
-330.202	-114.074	0.216	0.042
-329.187	166.289	0.153	-0.216
-328.172	800.000	0.132	-0.372
-327.158	155.100	-0.025	0.034
-326.143	800.000	0.043	0.160
-325.129	-50.659	0.355	0.167
-324.114	36.569	0.097	-0.086
-323.099	-156.918	0.218	-0.013
-322.085	39.128	0.163	-0.145
-321.070	102.588	-0.151	0.176
-320.056	614.954	-0.098	0.244
-319.041	-200.000	-0.023	0.133
-318.026	-200.000	-0.048	0.231
-317.012	-66.279	-0.536	-0.212
-315.997	-92.489	0.185	-0.052
-314.983	-94.343	0.066	0.018
-313.968	789.045	-0.129	-0.352
-312.953	-97.433	0.577	0.149
-311.939	-130.886	-0.337	0.045
-310.924	800.000	0.084	0.321
-309.910	-26.230	0.200	-0.117
-308.895	773.758	-0.023	-0.063
-307.880	398.616	0.122	0.254
-306.866	-200.000	0.022	0.136
-305.851	-85.851	-0.141	0.044
-304.837	12.545	-0.167	0.128
-303.822	168.508	-0.116	0.165
-302.807	122.928	0.121	0.150
-301.793	-174.778	0.303	0.009
-300.778	134.712	0.124	0.160
-299.764	414.411	-0.045	0.095
-298.749	-11.090	-0.176	-0.116
-297.735	-34.827	-0.239	-0.130
-296.720	116.501	0.217	0.264
-295.705	-92.932	0.337	0.094
-294.691	189.967	0.085	-0.127
-293.676	-53.184	-0.154	0.070
-292.662	-109.826	-0.260	0.054
-291.647	-6.552	-0.187	0.127
-290.632	-200.000	-0.002	-0.302
-289.618	420.322	0.064	-0.137
-288.603	-40.560	-0.223	-0.115
-287.589	-48.029	-0.276	0.133
-286.574	800.000	-0.061	0.172
-285.559	2.694	0.104	-0.075
-284.545	120.290	-0.189	0.233
-283.530	-112.999	-0.190	-0.037
-282.516	172.368	-0.112	0.160
-281.501	-149.437	-0.285	-0.023
-280.486	-31.029	0.114	-0.064
-279.472	-162.147	-0.108	0.005
-278.457	800.000	-0.056	0.164
-277.443	-85.261	-0.243	-0.075
-276.428	-156.906	0.128	-0.008
-275.413	-200.000	-0.020	-0.129
-274.399	800.000	-0.085	-0.267
-273.384	5.524	0.367	0.269
-272.370	564.070	-0.156	0.375
-271.355	-138.833	0.401	-0.043
-270.340	70.075	-0.141	-0.145
-269.326	-91.023	-0.360	-0.103
-268.311	201.947	-0.099	-0.151
-267.297	67.490	-0.048	0.048
-266.282	16.075	0.089	-0.070
-265.267	477.273	0.034	-0.077
-264.253	-127.787	0.176	-0.025
-263.238	429.338	0.051	-0.109
-262.224	93.272	-0.140	-0.157
-261.209	329.453	0.069	-0.131
-260.195	111.713	-0.102	0.123
-259.180	71.105	0.172	0.177
-258.165	800.000	-0.103	0.430
-257.151	-163.220	0.021	-0.001
-256.136	-7.117	0.217	0.146
-255.122	-200.000	0.003	0.019
-254.107	45.718	0.189	-0.174
-253.092	-53.199	0.199	-0.091
-252.078	-200.000	-0.020	0.121
-251.063	-122.372	-0.319	0.052
-250.049	-54.286	0.270	-0.121
-249.034	800.000	0.063	-0.241
-248.019	-111.108	0.268	-0.055
-247.005	-115.571	-0.353	0.066
-245.990	176.518	0.122	-0.176
-244.976	68.776	-0.312	0.318
-243.961	-200.000	0.015	-0.216
-242.946	-21.289	-0.435	-0.264
-241.932	-44.903	0.221	-0.109
-240.917	800.000	0.075	0.234
-239.903	155.615	0.079	-0.108
-238.888	800.000	0.023	-0.092
-237.873	-171.446	0.056	0.002
-236.859	98.211	-0.143	-0.164
-235.844	-88.289	0.137	0.041
-234.830	-43.584	-0.219	-0.110
-233.815	-23.917	-0.283	0.168
-232.800	-1.203	-0.174	-0.122
-231.786	369.600	0.250	0.501
-230.771	189.699	-0.257	0.383
-229.757	-200.000	-0.040	-0.181
-228.742	424.529	0.091	0.193
-227.727	-200.000	0.006	-0.039
-226.713	-145.873	0.175	-0.015
-225.698	-155.919	0.211	-0.013
-224.684	-200.000	-0.007	0.111
-223.669	590.011	0.035	-0.087
-222.655	226.264	0.202	0.325
-221.640	-200.000	-0.021	0.233
-220.625	540.620	0.124	0.292
-219.611	117.713	0.081	-0.098
-218.596	239.235	-0.085	-0.141
-217.582	800.000	0.027	0.116
-216.567	-171.194	0.265	-0.009
-215.552	19.704	0.240	0.191
-214.538	-110.306	-0.476	0.098
-213.523	21.990	0.142	-0.115
-212.509	185.256	0.163	-0.240
-211.494	88.004	-0.220	-0.242
-210.479	284.125	0.050	-0.090
-209.465	150.913	-0.027	0.037
-208.450	-119.431	0.318	-0.055
-207.436	-200.000	0.028	-0.180
-206.421	800.000	0.070	-0.229
-205.406	29.940	-0.017	0.014
-204.392	145.899	0.114	0.151
-203.377	135.085	0.164	0.212
-202.363	-132.478	0.060	-0.008
-201.348	-200.000	-0.011	-0.480
-200.333	-13.310	0.377	0.243
-199.319	-200.000	-0.024	0.175
-198.304	-61.556	-0.329	0.137
-197.290	94.620	-0.057	0.064
-196.275	201.581	0.232	-0.355
-195.260	426.055	0.200	-0.427
-194.246	283.834	-0.053	0.094
-193.231	800.000	0.043	0.156
-192.217	4.380	0.336	0.244
-191.202	800.000	-0.082	-0.238
-190.187	-27.360	-0.293	0.169
-189.173	-115.921	-0.098	0.018
-188.158	-15.070	0.301	0.191
-187.144	606.390	0.082	-0.201
-186.129	800.000	0.007	-0.026
-185.114	-21.782	-0.091	-0.055
-184.100	-0.921	0.275	0.193
-183.085	-200.000	0.039	-0.283
-182.071	89.223	-0.012	0.014
-181.056	473.489	-0.043	0.097
-180.042	484.596	-0.055	0.125
-179.027	-78.559	-0.050	-0.017
-178.012	68.813	-0.172	-0.175
-176.998	-148.257	0.197	-0.016
-175.983	11.439	-0.081	-0.061
-174.969	216.367	0.118	0.185
-173.954	-200.000	0.022	-0.252
-172.939	340.460	0.097	0.188
-171.925	800.000	0.087	0.280
-170.910	600.649	0.062	0.152
-169.896	-80.445	0.287	0.095
-168.881	-200.000	-0.025	-0.144
-167.866	-200.000	0.075	-0.411
-166.852	69.088	-0.279	0.284
-165.837	-200.000	-0.022	0.103
-164.823	-101.269	0.175	-0.042
-163.808	219.277	0.176	0.279
-162.793	-169.411	-0.199	-0.007
-161.779	-200.000	-0.006	0.094
-160.764	-200.000	0.010	-0.049
-159.750	47.761	0.309	-0.285
-158.735	140.814	-0.211	0.276
-157.720	-137.578	0.379	-0.042
-156.706	-200.000	-0.005	0.253
-155.691	13.168	0.222	-0.170
-154.677	-81.003	-0.039	-0.013
-153.662	72.283	0.108	0.112
-152.647	-67.005	-0.219	-0.086
-151.633	29.023	0.157	0.132
-150.618	154.298	-0.138	0.187
-149.604	-104.882	-0.454	0.103
-148.589	-94.958	-0.159	-0.043
-147.574	137.377	0.106	-0.138
-146.560	-132.877	-0.155	-0.020
-145.545	47.422	-0.219	-0.202
-144.531	-200.000	-0.016	-0.117
-143.516	-136.183	-0.177	0.021
-142.502	250.862	0.064	-0.107
-141.487	-45.170	0.285	0.140
-140.472	170.053	0.058	0.082
-139.458	-21.568	0.212	0.128
-138.443	39.420	0.119	-0.105
-137.429	-55.792	0.226	-0.100
-136.414	229.587	-0.140	-0.226
-135.399	233.604	0.090	0.146
-134.385	453.361	-0.084	-0.184
-133.370	-95.045	0.207	-0.055
-132.356	170.386	-0.198	0.280
-131.341	90.696	-0.090	-0.100
-130.326	-200.000	-0.006	-0.313
-129.312	-200.000	0.000	-0.076
-128.297	288.240	-0.153	-0.274
-127.283	573.853	-0.038	0.091
-126.268	800.000	-0.025	0.081
-125.253	-178.535	-0.381	-0.009
-124.239	12.934	0.117	0.089
-123.224	-200.000	-0.043	-0.275
-122.210	800.000	-0.008	0.029
-121.195	39.946	-0.399	0.354
-120.180	-6.927	-0.125	-0.084
-119.166	-40.654	0.100	-0.051
-118.151	287.041	0.154	0.275
-117.137	393.823	0.071	0.146
-116.122	70.919	-0.027	-0.028
-115.107	-125.567	0.118	-0.018
-114.093	-75.353	-0.305	-0.107
-113.078	45.760	0.086	-0.078
-112.064	369.728	-0.056	0.112
-111.049	-132.893	0.104	0.013
-110.034	-21.155	0.070	-0.043
-109.020	800.000	0.067	0.209
-108.005	-200.000	0.078	0.368
-106.991	-82.028	-0.339	0.109
-105.976	-200.000	0.041	-0.220
-104.962	800.000	-0.066	0.245
-103.947	100.478	-0.077	-0.089
-102.932	101.114	0.047	0.054
-101.918	194.715	0.004	0.006
-100.903	800.000	-0.057	-0.221
-99.889	-3.613	-0.172	0.118
-98.874	-122.741	0.197	-0.031
-97.859	8.278	0.190	-0.141
-96.845	39.397	-0.061	-0.054
-95.830	-138.257	-0.148	-0.016
-94.816	-18.729	0.158	0.097
-93.801	109.295	0.215	-0.254
-92.786	301.339	0.007	-0.013
-91.772	-96.556	-0.007	-0.002
-90.757	339.716	-0.260	0.501
-89.743	659.169	0.123	-0.313
-88.728	-200.000	-0.030	-0.204
-87.713	25.939	-0.092	0.076
-86.699	43.325	0.187	0.169
-85.684	-45.519	-0.256	0.125
-84.670	101.287	0.071	0.082
-83.655	178.645	0.118	0.170
-82.640	-121.259	0.129	-0.021
-81.626	-39.795	-0.067	-0.035
-80.611	368.098	0.057	-0.114
-79.597	-200.000	0.030	0.299
-78.582	-200.000	0.004	-0.227
-77.567	-117.238	-0.087	0.016
-76.553	30.656	-0.267	0.225
-75.538	52.440	0.169	-0.159
-74.524	-200.000	0.093	-0.422
-73.509	-104.191	-0.285	0.065
-72.494	800.000	-0.076	-0.258
-71.480	-200.000	0.020	-0.121
-70.465	233.446	0.208	0.338
-69.451	-200.000	-0.001	-0.088
-68.436	-44.419	-0.408	-0.201
-67.422	-139.032	0.173	-0.018
-66.407	-107.597	-0.249	-0.054
-65.392	800.000	0.059	-0.211
-64.378	302.576	-0.074	0.135
-63.363	79.651	0.236	-0.249
-62.349	79.434	0.065	0.069
-61.334	23.210	-1.007	-0.815
-60.319	147.270	0.306	0.406
-59.305	-200.000	-0.083	-0.873
-58.290	35.890	0.729	0.631
-57.276	266.979	0.900	1.551
-56.261	-200.000	93.706	524.284
-55.246	574.359	1378.432	3313.109
-54.232	183.644	2633.299	3835.623
-53.217	113.155	2337.114	2791.984
-52.203	45.621	1949.088	1773.616
-51.188	39.561	1734.899	1531.741
-50.173	36.802	1689.975	1471.089
-49.159	52.118	1737.155	1630.494
-48.144	55.704	1755.126	1674.931
-47.130	39.135	1711.543	1507.615
-46.115	36.240	1696.516	1472.264
-45.100	36.123	1691.947	1467.348
-44.086	36.122	1688.904	1464.640
-43.071	36.053	1686.527	1462.002
-42.057	36.093	1683.584	1459.693
-41.042	36.201	1681.461	1458.611
-40.027	36.102	1680.200	1456.714
-39.013	36.141	1677.928	1454.982
-37.998	36.121	1676.113	1453.198
-36.984	36.137	1674.495	1451.854
-35.969	36.264	1673.596	1451.972
-34.954	36.230	1671.897	1450.188
-33.940	36.247	1670.490	1449.040
-32.925	36.183	1668.571	1446.837
-31.911	36.261	1666.851	1445.874
-30.896	36.252	1664.964	1444.112
-29.881	36.255	1662.978	1442.351
-28.867	36.240	1661.737	1441.108
-27.852	36.218	1660.428	1439.749
-26.838	36.240	1658.495	1438.180
-25.823	36.348	1656.842	1437.493
-24.809	36.351	1655.415	1436.218
-23.794	36.333	1654.384	1435.133
-22.779	36.384	1652.824	1434.104
-21.765	36.321	1650.981	1431.981
-20.750	36.372	1649.108	1430.676
-19.736	36.294	1647.838	1428.944
-18.721	36.347	1646.263	1427.915
-17.706	36.349	1644.669	1426.485
-16.692	36.210	1642.914	1423.883
-15.677	36.316	1642.256	1424.038
-14.663	36.369	1639.939	1422.363
-13.648	36.318	1639.417	1421.481
-12.633	36.345	1637.625	1420.068
-11.619	36.260	1636.166	1418.119
-10.604	36.254	1634.591	1416.656
-9.590	36.222	1633.126	1415.092
-8.575	36.365	1631.307	1414.508
-7.560	36.240	1630.500	1412.841
-6.546	36.263	1629.436	1412.026
-5.531	36.237	1628.805	1411.234
-4.517	36.295	1626.829	1409.893
-3.502	36.196	1626.623	1408.931
-2.487	36.368	1624.362	1408.173
-1.473	35.888	1611.703	1393.669
-0.458	32.421	1590.204	1350.197
0.556	25.585	1588.334	1309.102
1.571	22.796	1613.014	1308.675
2.586	22.169	1626.975	1315.198
3.600	20.029	1574.499	1257.154
4.615	10.967	1460.449	1104.712
5.629	1.660	1390.468	991.282
6.644	-0.099	1380.327	972.581
7.659	-0.395	1379.521	970.015
8.673	-0.366	1377.645	968.794
9.688	-0.409	1376.010	967.283
10.702	-0.580	1373.192	964.116
11.717	2.703	1380.253	990.211
12.731	11.897	1397.873	1062.667
13.746	17.902	1407.469	1108.987
14.761	18.049	1406.682	1109.226
15.775	17.982	1405.965	1108.128
16.790	18.107	1405.161	1108.208
17.804	18.111	1405.019	1108.025
18.819	18.371	1404.286	1109.033
19.834	18.395	1403.524	1108.486
20.848	18.271	1403.055	1107.214
21.863	18.407	1401.802	1107.009
22.877	18.353	1401.133	1106.030
23.892	18.378	1400.179	1105.340
24.907	18.407	1399.231	1104.681
25.921	18.361	1398.716	1103.879
26.936	18.326	1397.329	1102.464
27.950	18.356	1396.228	1101.692
28.965	18.416	1395.025	1101.031
29.980	18.406	1393.689	1099.812
30.994	18.346	1392.251	1098.199
32.009	18.345	1391.055	1097.150
33.023	18.280	1389.783	1095.635
34.038	18.316	1388.855	1095.037
35.053	18.381	1387.615	1094.379
36.067	18.364	1386.801	1093.528
37.082	18.336	1385.493	1092.224
38.096	18.366	1384.685	1091.677
39.111	18.372	1384.005	1091.089
40.126	18.378	1383.397	1090.547
41.140	18.318	1382.889	1089.669
42.155	18.389	1382.473	1089.695
43.169	18.367	1382.476	1089.464
44.184	18.300	1382.175	1088.699
45.199	18.325	1381.138	1087.951
46.213	18.401	1380.561	1087.882
47.228	18.432	1379.374	1087.046
48.242	18.321	1378.591	1085.630
49.257	18.396	1376.715	1084.531
50.271	18.399	1375.151	1083.222
51.286	18.365	1374.209	1082.168
52.301	18.384	1372.880	1081.149
53.315	18.253	1372.637	1080.034
54.330	18.317	1371.362	1079.335
55.344	18.401	1369.930	1078.647
56.359	18.306	1369.126	1077.318
57.374	18.332	1368.163	1076.630
58.388	18.342	1367.441	1076.025
59.403	18.392	1366.844	1075.773
60.417	18.257	1366.468	1074.537
61.432	18.373	1365.049	1074.052
62.447	18.391	1363.852	1073.130
63.461	18.332	1363.220	1072.169
64.476	18.428	1361.755	1071.521
65.490	18.355	1360.792	1070.215
66.505	18.422	1358.891	1069.041
67.520	18.311	1357.605	1067.243
68.534	18.378	1356.755	1066.896
69.549	18.398	1355.543	1065.974
70.563	18.299	1355.173	1064.976
71.578	18.373	1353.783	1064.244
72.593	18.416	1352.448	1063.372
73.607	18.379	1351.987	1062.682
74.622	18.383	1351.366	1062.127
75.636	18.297	1350.937	1061.160
76.651	18.345	1349.777	1060.451
77.666	18.365	1349.237	1060.057
78.680	18.263	1349.364	1059.433
79.695	18.381	1347.929	1058.945
80.709	18.371	1347.049	1058.094
81.724	18.403	1345.852	1057.263
82.739	18.450	1344.560	1056.439
83.753	18.280	1343.974	1054.839
84.768	18.416	1342.815	1054.676
85.782	18.371	1341.476	1053.254
86.797	18.429	1340.267	1052.566
87.812	18.450	1338.962	1051.576
88.826	18.437	1337.964	1050.621
89.841	18.328	1337.166	1049.233
90.855	18.386	1336.006	1048.583
91.870	18.375	1334.938	1047.587
92.884	18.403	1333.862	1046.823
93.899	18.419	1333.490	1046.537
94.914	18.357	1332.389	1045.201
95.928	18.357	1331.555	1044.452
96.943	18.464	1330.922	1044.516
97.957	18.404	1329.949	1043.295
98.972	18.350	1329.208	1042.293
99.987	18.424	1327.450	1041.270
101.001	18.386	1326.711	1040.371
102.016	18.360	1325.638	1039.279
103.030	18.404	1324.826	1038.816
104.045	18.492	1323.423	1038.157
105.060	18.477	1322.148	1036.973
106.074	18.505	1321.023	1036.172
107.089	18.470	1320.385	1035.368
108.103	18.434	1319.098	1034.047
109.118	18.441	1318.261	1033.345
110.133	18.614	1316.558	1032.956
111.147	18.553	1314.934	1031.227
112.162	18.563	1314.088	1030.532
113.176	18.597	1312.893	1029.709
114.191	18.542	1311.859	1028.473
115.206	18.457	1311.215	1027.369
116.220	18.512	1309.959	1026.626
117.235	18.540	1308.675	1025.694
118.249	18.365	1307.713	1023.804
119.264	18.466	1306.618	1023.460
120.279	18.473	1305.774	1022.748
121.293	18.579	1304.346	1022.172
122.308	18.596	1303.268	1021.338
123.322	18.554	1302.260	1020.208
124.337	18.560	1301.363	1019.452
125.352	18.581	1300.236	1018.601
126.366	18.631	1298.861	1017.730
127.381	18.555	1298.125	1016.615
128.395	18.577	1297.378	1016.072
129.410	18.520	1296.579	1015.015
130.424	18.458	1295.908	1014.036
131.439	18.577	1294.953	1013.899
132.454	18.496	1293.717	1012.366
133.468	18.615	1292.944	1012.370
134.483	18.562	1292.153	1011.352
135.497	18.557	1291.171	1010.464
136.512	18.503	1290.044	1009.174
137.527	18.522	1288.544	1008.021
138.541	18.444	1287.170	1006.402
139.556	18.545	1285.631	1005.703
140.570	18.532	1284.138	1004.371
141.585	18.488	1283.405	1003.447
142.600	18.467	1281.933	1002.085
143.614	18.579	1281.019	1001.935
144.629	18.495	1280.039	1000.595
145.643	18.426	1279.091	999.358
146.658	18.382	1277.738	997.957
147.673	18.532	1276.477	997.758
148.687	18.465	1275.719	996.687
149.702	18.358	1274.676	995.162
150.716	18.427	1273.524	994.578
151.731	18.452	1272.386	993.743
152.746	18.588	1270.666	993.099
153.760	18.466	1270.035	991.815
154.775	18.465	1269.297	991.145
155.789	18.566	1267.532	990.260
156.804	18.577	1266.461	989.402
157.819	18.536	1265.371	988.224
158.833	18.525	1264.807	987.635
159.848	18.525	1264.145	987.027
160.862	18.473	1263.588	986.207
161.877	18.608	1262.519	986.061
162.892	18.579	1261.112	984.707
163.906	18.595	1260.417	984.172
164.921	18.631	1259.932	983.913
165.935	18.655	1258.952	983.195
166.950	18.623	1258.491	982.564
167.964	18.647	1257.614	981.936
168.979	18.648	1257.035	981.401
169.994	18.649	1256.755	981.102
171.008	18.682	1255.737	980.405
172.023	18.552	1255.130	979.106
173.037	18.613	1254.283	978.702
174.052	18.754	1253.024	978.437
175.067	18.635	1252.274	977.089
176.081	18.696	1251.595	976.819
177.096	18.623	1250.366	975.362
178.110	18.668	1249.586	974.921
179.125	18.681	1248.594	974.135
180.140	18.690	1247.787	973.471
181.154	18.663	1246.632	972.328
182.169	18.628	1245.430	971.105
183.183	18.635	1244.397	970.253
184.198	18.681	1242.966	969.313
185.213	18.604	1242.279	968.256
186.227	18.709	1241.348	968.038
187.242	18.710	1240.335	967.170
188.256	18.754	1239.714	966.844
189.271	18.685	1238.878	965.719
190.286	18.633	1238.208	964.817
191.300	18.662	1237.397	964.265
192.315	18.693	1236.618	963.751
193.329	18.693	1236.649	963.684
194.344	18.753	1236.085	963.500
195.359	18.671	1235.576	962.556
196.373	18.595	1234.934	961.548
197.388	18.700	1234.432	961.655
198.402	18.656	1233.878	960.893
199.417	18.619	1233.528	960.332
200.432	18.751	1232.385	960.092
201.446	18.798	1231.820	959.833
202.461	18.678	1231.300	958.672
203.475	18.608	1230.305	957.422
204.490	18.723	1229.056	957.007
205.504	18.697	1228.009	955.960
206.519	18.747	1227.118	955.459
207.534	18.711	1226.251	954.500
208.548	18.726	1225.038	953.554
209.563	18.784	1224.167	953.117
210.577	18.750	1223.732	952.502
211.592	18.669	1223.147	951.516
212.607	18.762	1221.919	950.990
213.621	18.722	1221.375	950.262
214.636	18.763	1220.467	949.695
215.650	18.785	1219.393	948.897
216.665	18.881	1218.146	948.374
217.680	18.864	1217.611	947.780
218.694	18.734	1217.071	946.557
219.709	18.754	1216.091	945.824
220.723	18.707	1215.828	945.277
221.738	18.848	1214.980	945.309
222.753	18.722	1214.094	943.843
223.767	18.756	1213.547	943.519
224.782	18.956	1212.591	943.790
225.796	18.902	1212.323	943.202
226.811	18.901	1211.599	942.552
227.826	18.954	1210.785	942.127
228.840	18.841	1210.662	941.329
229.855	18.832	1209.587	940.359
230.869	18.897	1208.988	940.163
231.884	18.880	1208.398	939.528
232.899	18.828	1207.512	938.474
233.913	18.920	1206.933	938.446
234.928	19.034	1206.201	938.413
235.942	18.886	1205.713	937.143
236.957	18.937	1204.754	936.595
237.972	18.904	1204.009	935.754
238.986	18.958	1203.351	935.452
240.001	19.021	1202.735	935.232
241.015	19.067	1201.913	934.761
242.030	19.051	1201.498	934.270
243.045	18.995	1200.560	933.154
244.059	19.075	1199.820	932.927
245.074	19.091	1198.547	931.939
246.088	19.036	1198.366	931.422
247.103	19.054	1197.615	930.855
248.117	19.112	1196.489	930.210
249.132	18.941	1196.365	929.105
250.147	19.055	1195.775	929.184
251.161	19.172	1194.228	928.530
252.176	19.154	1193.507	927.786
253.190	19.180	1192.892	927.369
254.205	19.170	1192.305	926.773
255.220	19.113	1191.742	925.951
256.234	19.100	1191.229	925.396
257.249	19.092	1190.708	924.869
258.263	19.157	1190.073	924.641
259.278	19.163	1189.006	923.765
260.293	19.106	1189.020	923.389
261.307	18.988	1188.840	922.535
262.322	19.150	1187.708	922.441
263.336	19.202	1186.941	922.042
264.351	19.176	1186.398	921.402
265.366	19.205	1185.805	921.013
266.380	19.127	1185.243	920.079
267.395	19.044	1184.445	918.932
268.409	19.059	1183.977	918.570
269.424	19.236	1183.205	918.833
270.439	19.247	1182.752	918.456
271.453	19.232	1181.914	917.648
272.468	19.239	1180.945	916.849
273.482	19.175	1180.477	916.065
274.497	19.227	1179.914	915.827
275.512	19.253	1179.464	915.531
276.526	19.285	1178.334	914.743
277.541	19.218	1178.117	914.137
278.555	19.254	1177.246	913.575
279.570	19.418	1175.833	913.262
280.585	19.398	1175.406	912.748
281.599	19.468	1174.196	912.097
282.614	19.257	1174.081	910.809
283.628	19.379	1172.822	910.398
284.643	19.396	1171.785	909.601
285.657	19.319	1171.055	908.547
286.672	19.487	1169.943	908.487
287.687	19.417	1169.386	907.608
288.701	19.429	1168.787	907.125
289.716	19.507	1168.086	906.912
290.730	19.355	1167.401	905.504
291.745	19.430	1167.049	905.541
292.760	19.384	1166.363	904.688
293.774	19.468	1165.539	904.412
294.789	19.437	1165.060	903.794
295.803	19.413	1164.372	903.055
296.818	19.404	1163.912	902.574
297.833	19.441	1163.362	902.260
298.847	19.574	1162.257	902.016
299.862	19.447	1161.740	900.872
300.876	19.629	1160.559	900.826
301.891	19.559	1160.311	900.187
302.906	19.465	1159.170	898.736
303.920	19.688	1158.683	899.441
304.935	19.554	1158.075	898.188
305.949	19.606	1157.374	897.837
306.964	19.535	1157.308	897.338
307.979	19.490	1156.579	896.459
308.993	19.509	1155.613	895.729
310.008	19.518	1154.877	895.127
311.022	19.624	1154.064	894.968
312.037	19.572	1153.401	894.105
313.052	19.560	1152.461	893.235
314.066	19.552	1151.440	892.324
315.081	19.605	1150.646	891.904
316.095	19.672	1150.079	891.728
317.110	19.618	1149.424	890.865
318.125	19.516	1148.587	889.610
319.139	19.647	1147.943	889.707
320.154	19.569	1147.939	889.226
321.168	19.627	1146.806	888.567
322.183	19.624	1146.142	887.959
323.197	19.771	1145.392	888.054
324.212	19.712	1144.967	887.341
325.227	19.728	1144.559	887.029
326.241	19.751	1144.250	886.830
327.256	19.631	1143.406	885.485
328.270	19.753	1142.523	885.347
329.285	19.635	1141.561	883.917
330.300	19.740	1140.411	883.485
331.314	19.742	1139.760	882.914
332.329	19.780	1138.895	882.361
333.343	19.735	1138.249	881.549
334.358	19.778	1137.328	880.976
335.373	19.797	1136.881	880.649
336.387	19.823	1135.922	879.965
337.402	19.877	1135.122	879.537
338.416	19.806	1135.015	879.018
339.431	19.769	1134.373	878.252
340.446	19.825	1133.566	877.839
341.460	19.812	1133.252	877.450
342.475	19.931	1132.065	877.058
343.489	20.003	1130.958	876.486
344.504	19.944	1130.324	875.616
345.519	19.867	1129.689	874.659
346.533	19.888	1128.530	873.791
347.548	19.962	1127.924	873.618
348.562	19.882	1127.190	872.569
349.577	20.090	1126.189	872.765
350.592	20.050	1125.455	871.919
351.606	19.872	1125.024	870.611
352.621	19.870	1124.472	870.095
353.635	20.045	1123.604	870.226
354.650	20.032	1122.817	869.476
355.665	20.104	1122.176	869.265
356.679	20.028	1121.884	868.577
357.694	19.895	1121.610	867.621
358.708	20.046	1120.507	867.448
359.723	20.000	1119.758	866.564
360.738	20.035	1119.048	866.109
361.752	20.058	1119.072	866.167
362.767	19.974	1118.343	865.105
363.781	20.081	1117.556	864.955
364.796	20.228	1116.697	864.945
365.810	20.020	1116.455	863.646
366.825	20.141	1115.930	863.765
367.840	20.188	1114.909	863.135
368.854	20.165	1114.623	862.723
369.869	20.093	1113.793	861.645
370.883	20.089	1113.692	861.470
371.898	20.262	1112.642	861.440
372.913	20.276	1111.650	860.668
373.927	20.199	1111.266	859.913
374.942	20.235	1110.740	859.608
375.956	20.237	1110.366	859.251
376.971	20.282	1109.615	858.817
377.986	20.176	1109.135	857.844
379.000	20.315	1108.360	857.857
380.015	20.225	1108.288	857.280
381.029	20.318	1107.430	856.999
382.044	20.230	1106.536	855.797
383.059	20.350	1105.876	855.803
384.073	20.298	1105.210	854.957
385.088	20.416	1104.112	854.613
386.102	20.414	1103.357	853.939
387.117	20.402	1101.976	852.737
388.132	20.316	1101.171	851.617
389.146	20.379	1100.701	851.488
390.161	20.416	1100.491	851.431
391.175	20.419	1099.637	850.710
392.190	20.427	1098.922	850.123
393.205	20.447	1098.128	849.532
394.219	20.408	1097.308	848.630
395.234	20.412	1096.704	848.108
396.248	20.554	1095.486	847.783
397.263	20.540	1094.772	847.089
398.278	20.557	1094.499	846.882
399.292	20.562	1093.869	846.347
400.307	20.622	1092.737	845.687
401.321	20.581	1092.544	845.260
402.336	20.519	1091.727	844.256
403.350	20.573	1090.574	843.548
404.365	20.490	1090.126	842.729
405.380	20.562	1089.541	842.548
406.394	20.612	1088.539	841.940
407.409	20.684	1087.714	841.578
408.423	20.625	1087.022	840.680
409.438	20.674	1086.465	840.413
410.453	20.635	1085.806	839.640
411.467	20.702	1084.693	839.031
412.482	20.615	1084.153	838.119
413.496	20.603	1083.374	837.384
414.511	20.632	1083.284	837.381
415.526	20.712	1082.591	837.154
416.540	20.648	1082.215	836.481
417.555	20.636	1081.630	835.901
418.569	20.674	1081.213	835.686
419.584	20.727	1080.671	835.446
420.599	20.860	1079.883	835.400
421.613	146.419	1395.170	1788.374
422.628	135.279	1441.115	1788.470
