DTS Sentinel unit serial number:	SN413079Multiplexer serial number:	ORYXHardware model number:	OX4-SRSoftware version number:	ORYX F/W v4.00 Oryx Data Collector v3.7.2.0data status	okinstallation	princeton_trtdifferential loss correction	single-endedforward channel	channel 2reverse channel	N/Adate	2019/09/11time	01:05:11forward acquisition time	60.00reverse acquisition time	0.00gamma	496.2192k internal	0.2332k external	0.2332temperature offset calibration	0.9943default loss term (dB/km)	0.3790temperature slope calibration	1.0000multiplexer offset coefficient	1.0000multiplexer slope coefficient	1.0000fibre end	0.00T internal ref (°C)	29.12T ext. ref 1 (°C)	-0.31T ext. ref 2 (°C)	23.02length (m)	temperature (°C)	Stokes	anti-Stokes-747.200	80.072	0.201	0.217
-746.185	800.000	-0.067	0.212
-745.171	250.704	-0.151	-0.258
-744.156	169.043	-0.015	-0.021
-743.142	800.000	0.034	0.113
-742.127	31.778	0.256	0.221
-741.112	-200.000	-0.009	0.233
-740.098	158.992	-0.161	0.225
-739.083	-2.124	-0.236	-0.167
-738.069	212.215	-0.101	0.160
-737.054	-200.000	0.013	-0.096
-736.039	103.692	0.256	0.303
-735.025	-76.231	-0.212	-0.075
-734.010	5.689	-0.329	-0.245
-732.996	174.994	0.119	-0.174
-731.981	-131.030	-0.144	-0.019
-730.966	33.464	-0.121	0.106
-729.952	68.801	0.092	0.094
-728.937	-2.242	0.170	-0.120
-727.923	57.222	-0.178	0.175
-726.908	-200.000	-0.045	0.345
-725.894	341.129	-0.185	-0.363
-724.879	-200.000	-0.023	0.115
-723.864	-25.472	-0.451	0.268
-722.850	178.159	-0.168	-0.246
-721.835	22.963	0.079	-0.065
-720.821	-199.621	-0.336	-0.002
-719.806	-151.913	0.146	0.011
-718.791	-23.910	-0.291	0.175
-717.777	800.000	0.108	-0.395
-716.762	-52.738	-0.176	-0.081
-715.748	181.881	0.082	0.121
-714.733	-120.799	-0.113	0.019
-713.718	800.000	0.098	-0.283
-712.704	213.516	-0.102	-0.162
-711.689	-35.028	-0.372	0.204
-710.675	-144.378	0.291	0.027
-709.660	209.517	0.115	0.181
-708.645	192.666	-0.156	-0.237
-707.631	-125.351	-0.092	-0.014
-706.616	392.557	0.080	-0.167
-705.602	96.108	0.083	-0.095
-704.587	-61.094	0.258	0.109
-703.572	715.128	-0.174	-0.464
-702.558	-98.029	-0.148	-0.038
-701.543	91.727	-0.149	-0.168
-700.529	-107.553	-0.456	-0.100
-699.514	-16.080	-0.137	-0.088
-698.499	-32.932	-0.114	-0.064
-697.485	-68.769	0.060	0.023
-696.470	-105.808	-0.150	-0.034
-695.456	-200.000	0.011	0.235
-694.441	-84.558	-0.149	0.047
-693.426	439.904	-0.072	-0.158
-692.412	-120.766	-0.175	0.030
-691.397	-99.665	0.204	0.051
-690.383	-59.996	-0.330	0.141
-689.368	113.091	-0.177	-0.215
-688.354	-101.444	0.125	-0.031
-687.339	115.669	0.190	0.233
-686.324	-150.496	-0.334	0.026
-685.310	-146.877	0.038	-0.003
-684.295	318.579	0.165	-0.314
-683.281	-200.000	-0.002	0.012
-682.266	-42.289	-0.424	0.217
-681.251	71.716	-0.187	0.195
-680.237	92.349	-0.129	0.146
-679.222	57.870	-0.064	0.063
-678.208	-70.334	0.333	-0.127
-677.193	800.000	0.034	0.118
-676.178	-200.000	0.048	-0.218
-675.164	441.157	0.054	-0.120
-674.149	-200.000	0.041	0.278
-673.135	800.000	0.087	-0.244
-672.120	-109.520	-0.185	-0.039
-671.105	-200.000	-0.005	0.025
-670.091	800.000	0.065	0.250
-669.076	-97.863	0.139	-0.036
-668.062	-62.768	0.116	-0.048
-667.047	54.586	-0.099	-0.095
-666.032	78.377	0.167	-0.179
-665.018	-132.992	-0.311	-0.040
-664.003	-200.000	-0.009	0.220
-662.989	-200.000	-0.040	-0.262
-661.974	-200.000	-0.042	-0.391
-660.959	-51.410	0.522	-0.245
-659.945	-31.214	0.098	-0.055
-658.930	772.637	-0.080	-0.219
-657.916	41.911	0.221	0.201
-656.901	55.761	0.158	0.154
-655.886	-98.010	-0.177	-0.046
-654.872	109.428	-0.082	-0.098
-653.857	-200.000	0.047	-0.245
-652.843	-200.000	-0.001	0.433
-651.828	123.257	0.057	0.072
-650.814	-64.696	0.117	-0.048
-649.799	-90.699	0.133	-0.039
-648.784	-141.612	-0.103	-0.010
-647.770	-53.472	0.235	0.108
-646.755	-89.027	0.060	-0.018
-645.741	-200.000	-0.046	-0.279
-644.726	247.016	0.166	-0.281
-643.711	77.388	-0.047	-0.050
-642.697	88.628	0.048	-0.053
-641.682	-108.732	-0.258	0.055
-640.668	-35.056	-0.256	-0.140
-639.653	-200.000	0.029	0.280
-638.638	-166.079	-0.115	0.005
-637.624	-56.189	0.356	0.159
-636.609	800.000	0.093	0.287
-635.595	-2.260	-0.310	-0.218
-634.580	800.000	-0.079	-0.319
-633.565	132.221	-0.103	-0.132
-632.551	247.376	-0.194	-0.329
-631.536	-21.166	0.143	-0.088
-630.522	-200.000	-0.076	-0.349
-629.507	800.000	-0.049	-0.160
-628.492	-51.974	-0.143	0.067
-627.478	-135.333	0.319	-0.038
-626.463	-37.789	-0.344	-0.184
-625.449	800.000	-0.013	0.056
-624.434	-111.804	-0.202	-0.041
-623.419	-15.066	-0.257	0.165
-622.405	-131.432	-0.244	-0.032
-621.390	-92.495	0.331	-0.093
-620.376	800.000	-0.070	-0.232
-619.361	-19.686	-0.246	0.152
-618.346	58.612	0.029	-0.028
-617.332	348.354	-0.176	-0.348
-616.317	206.777	0.077	0.119
-615.303	-200.000	0.037	-0.200
-614.288	57.516	0.272	-0.266
-613.273	734.639	-0.130	-0.348
-612.259	80.323	0.153	-0.165
-611.244	-122.145	-0.042	-0.007
-610.230	-200.000	0.023	-0.446
-609.215	192.822	0.259	-0.391
-608.201	44.288	0.277	0.254
-607.186	82.609	-0.112	0.122
-606.171	-8.181	0.170	0.115
-605.157	630.353	0.122	0.308
-604.142	-25.185	-0.170	0.101
-603.128	-198.284	0.043	-0.000
-602.113	-200.000	-0.002	-0.281
-601.098	-138.150	-0.265	0.029
-600.084	-194.314	-0.240	0.002
-599.069	800.000	-0.066	0.227
-598.055	447.532	-0.102	0.224
-597.040	707.753	-0.225	0.594
-596.025	9.285	0.087	-0.066
-595.011	-181.322	0.389	-0.008
-593.996	31.710	0.089	0.077
-592.982	-79.953	0.224	-0.075
-591.967	-29.322	0.099	-0.056
-590.952	-70.591	-0.139	0.053
-589.938	139.176	0.190	0.249
-588.923	38.958	0.163	0.146
-587.909	800.000	-0.016	-0.055
-586.894	124.406	0.293	-0.369
-585.879	352.248	0.034	0.067
-584.865	71.784	0.110	-0.115
-583.850	800.000	0.056	-0.210
-582.836	502.985	0.114	0.263
-581.821	41.275	0.047	-0.042
-580.806	-71.203	-0.399	-0.150
-579.792	800.000	0.046	0.145
-578.777	-56.459	0.253	0.112
-577.763	371.784	0.126	0.256
-576.748	41.858	0.239	-0.216
-575.733	800.000	-0.050	0.140
-574.719	634.522	-0.127	0.322
-573.704	440.303	-0.175	0.382
-572.690	-47.383	0.230	0.112
-571.675	-187.796	0.387	0.005
-570.661	145.145	0.051	-0.068
-569.646	-137.546	0.179	-0.020
-568.631	-157.905	0.104	0.006
-567.617	-95.796	-0.185	0.049
-566.602	-58.120	-0.236	0.103
-565.588	-104.200	0.103	0.024
-564.573	114.480	-0.166	0.203
-563.558	-200.000	0.014	-0.065
-562.544	-200.000	-0.034	-0.184
-561.529	435.879	-0.077	0.168
-560.515	-199.111	-0.229	0.001
-559.500	-200.000	-0.026	-0.237
-558.485	-93.623	-0.301	-0.083
-557.471	174.113	0.134	-0.193
-556.456	235.934	0.011	-0.018
-555.442	32.286	-0.104	-0.090
-554.427	-112.818	0.362	0.072
-553.412	26.341	0.107	-0.089
-552.398	-200.000	0.038	-0.276
-551.383	-94.242	-0.228	0.062
-550.369	-72.988	0.057	0.021
-549.354	65.290	-0.258	-0.261
-548.339	-200.000	0.045	0.200
-547.325	138.274	0.065	0.085
-546.310	225.993	-0.120	-0.194
-545.296	77.311	0.086	0.092
-544.281	97.283	-0.242	-0.277
-543.266	16.060	-0.201	-0.158
-542.252	-78.596	-0.224	0.076
-541.237	-45.384	-0.197	-0.098
-540.223	-119.713	-0.079	0.014
-539.208	53.556	-0.238	-0.228
-538.193	225.758	-0.127	0.206
-537.179	-90.072	0.106	0.031
-536.164	-116.697	-0.316	-0.058
-535.150	-87.866	0.157	0.047
-534.135	218.063	0.023	-0.036
-533.121	58.523	0.139	-0.136
-532.106	202.535	-0.149	0.230
-531.091	31.600	-0.093	-0.080
-530.077	159.122	-0.130	-0.180
-529.062	-200.000	-0.034	-0.193
-528.048	-100.430	-0.269	-0.067
-527.033	800.000	-0.107	0.351
-526.018	40.571	0.204	0.183
-525.004	-87.235	-0.300	-0.091
-523.989	-65.526	0.176	0.070
-522.975	-66.573	-0.466	-0.184
-521.960	-52.876	0.284	0.131
-520.945	194.917	-0.137	0.208
-519.931	29.006	0.290	0.246
-518.916	156.125	0.177	0.243
-517.902	0.250	0.065	0.046
-516.887	-200.000	-0.036	-0.270
-515.872	67.005	-0.177	-0.180
-514.858	-200.000	0.053	0.321
-513.843	59.956	-0.132	0.130
-512.829	-200.000	0.016	0.094
-511.814	-58.589	0.114	-0.049
-510.799	-161.138	-0.180	0.009
-509.785	-177.639	0.255	-0.006
-508.770	-200.000	0.055	0.256
-507.756	800.000	-0.063	-0.259
-506.741	-200.000	-0.015	-0.112
-505.726	-165.784	0.263	0.011
-504.712	800.000	-0.157	0.499
-503.697	15.167	0.182	0.142
-502.683	-100.917	-0.350	-0.086
-501.668	624.020	0.069	-0.173
-500.653	-84.832	0.443	-0.139
-499.639	194.328	-0.135	-0.204
-498.624	365.723	-0.171	0.343
-497.610	-15.494	-0.212	-0.135
-496.595	800.000	0.010	0.041
-495.581	-152.695	-0.099	0.007
-494.566	-132.945	-0.212	0.027
-493.551	148.147	0.210	0.282
-492.537	-200.000	0.040	-0.355
-491.522	-128.825	0.258	0.036
-490.508	-165.311	-0.116	0.005
-489.493	9.980	-0.300	-0.227
-488.478	38.895	0.049	0.043
-487.464	106.608	0.221	-0.261
-486.449	-85.072	0.300	0.094
-485.435	256.426	0.305	-0.522
-484.420	264.094	-0.167	-0.289
-483.405	-156.906	-0.378	-0.023
-482.391	269.586	-0.156	0.272
-481.376	479.180	-0.036	0.081
-480.362	0.808	0.295	0.210
-479.347	-200.000	-0.055	-0.802
-478.332	-161.650	0.201	0.010
-477.318	-200.000	-0.003	0.253
-476.303	536.786	0.109	-0.257
-475.289	-93.695	-0.341	-0.094
-474.274	-128.827	0.126	0.018
-473.259	158.483	-0.127	0.175
-472.245	-95.024	-0.180	0.049
-471.230	-88.919	-0.264	-0.078
-470.216	-42.832	-0.294	-0.149
-469.201	-51.731	0.268	-0.124
-468.186	170.482	-0.106	0.151
-467.172	-55.524	0.213	-0.095
-466.157	43.421	-0.206	0.187
-465.143	-22.301	-0.228	0.137
-464.128	194.463	-0.180	0.271
-463.113	-56.024	-0.463	0.205
-462.099	-23.730	0.161	-0.096
-461.084	-119.202	0.165	0.029
-460.070	-143.311	0.303	-0.029
-459.055	117.810	-0.253	-0.310
-458.040	79.481	-0.143	-0.153
-457.026	-200.000	0.008	-0.087
-456.011	-89.336	0.192	-0.056
-454.997	-81.291	-0.161	0.053
-453.982	552.962	-0.166	-0.396
-452.968	-200.000	-0.006	0.045
-451.953	-200.000	0.017	-0.089
-450.938	-200.000	0.029	-0.281
-449.924	-200.000	0.030	-0.286
-448.909	73.741	-0.098	-0.102
-447.895	271.053	0.103	-0.180
-446.880	800.000	0.034	0.115
-445.865	800.000	0.023	0.081
-444.851	158.819	-0.182	0.252
-443.836	90.727	-0.058	0.064
-442.822	728.966	-0.107	-0.284
-441.807	-100.417	-0.226	-0.056
-440.792	-200.000	0.032	0.175
-439.778	79.522	-0.174	0.186
-438.763	25.965	-0.084	-0.070
-437.749	178.653	0.043	-0.063
-436.734	-200.000	-0.008	-0.200
-435.719	-96.329	0.198	-0.052
-434.705	21.033	-0.335	0.270
-433.690	-200.000	0.019	0.296
-432.676	-111.716	0.089	0.018
-431.661	-82.467	-0.049	0.016
-430.646	-163.152	0.131	0.006
-429.632	-200.000	0.042	-0.231
-428.617	-200.000	0.055	0.244
-427.603	-200.000	-0.023	0.135
-426.588	800.000	-0.059	0.187
-425.573	-67.561	0.348	0.136
-424.559	-116.093	-0.213	-0.039
-423.544	731.066	-0.197	-0.524
-422.530	71.804	-0.274	-0.283
-421.515	-77.338	0.223	0.077
-420.500	115.809	-0.041	0.050
-419.486	-200.000	-0.031	0.190
-418.471	98.951	-0.072	-0.082
-417.457	31.231	0.167	0.142
-416.442	-98.262	0.208	0.053
-415.428	-200.000	-0.025	0.113
-414.413	296.780	0.130	-0.237
-413.398	-12.596	-0.201	-0.130
-412.384	-5.348	0.059	-0.040
-411.369	-10.607	-0.310	0.204
-410.355	14.992	0.120	-0.093
-409.340	644.832	0.079	0.200
-408.325	-135.354	-0.306	0.036
-407.311	-28.389	-0.162	0.093
-406.296	-148.914	0.147	-0.012
-405.282	-200.000	-0.019	0.285
-404.267	-31.622	0.018	0.010
-403.252	-96.186	0.431	0.113
-402.238	-31.822	-0.132	-0.074
-401.223	-126.822	-0.335	0.049
-400.209	43.420	-0.196	0.177
-399.194	17.255	0.393	-0.309
-398.179	-154.093	-0.054	-0.004
-397.165	800.000	-0.009	0.031
-396.150	51.575	0.099	-0.093
-395.136	800.000	0.090	0.283
-394.121	800.000	0.017	0.069
-393.106	-74.347	-0.262	-0.094
-392.092	108.678	0.064	-0.076
-391.077	404.984	0.048	0.101
-390.063	-32.645	0.071	0.039
-389.048	30.956	-0.062	-0.053
-388.033	-200.000	-0.025	0.178
-387.019	-47.183	-0.311	0.150
-386.004	780.021	0.127	0.345
-384.990	-76.850	-0.212	-0.074
-383.975	145.477	0.022	-0.030
-382.960	800.000	-0.063	0.175
-381.946	132.692	0.184	0.235
-380.931	-172.125	-0.046	-0.001
-379.917	-200.000	0.070	-0.426
-378.902	287.232	-0.180	0.323
-377.888	800.000	0.045	0.135
-376.873	800.000	-0.064	-0.260
-375.858	-174.964	-0.087	0.002
-374.844	-22.090	-0.171	-0.103
-373.829	800.000	-0.062	-0.178
-372.815	-60.224	0.283	0.120
-371.800	-54.219	0.059	0.027
-370.785	800.000	0.030	-0.104
-369.771	-144.914	0.158	0.014
-368.756	-200.000	0.019	0.318
-367.742	222.505	0.127	-0.203
-366.727	800.000	-0.032	0.103
-365.712	-80.592	-0.151	0.050
-364.698	-10.385	0.125	0.082
-363.683	-171.020	0.377	-0.013
-362.669	-86.696	-0.480	0.145
-361.654	191.997	-0.060	0.089
-360.639	-170.218	0.318	0.011
-359.625	-170.838	0.089	0.003
-358.610	800.000	0.060	-0.222
-357.596	587.618	-0.028	-0.069
-356.581	800.000	0.050	-0.182
-355.566	-200.000	-0.047	-0.211
-354.552	209.082	0.142	0.220
-353.537	411.375	-0.098	0.206
-352.523	800.000	0.083	-0.307
-351.508	339.582	0.076	-0.146
-350.493	800.000	0.068	-0.267
-349.479	-200.000	0.028	-0.169
-348.464	-135.890	-0.471	0.055
-347.450	77.422	-0.216	0.228
-346.435	4.749	0.161	0.117
-345.420	-159.838	0.149	-0.008
-344.406	800.000	-0.085	0.234
-343.391	661.340	0.070	0.179
-342.377	-133.962	-0.141	-0.017
-341.362	-200.000	0.039	-0.301
-340.348	651.862	-0.059	0.149
-339.333	156.448	0.148	-0.202
-338.318	143.178	-0.063	0.083
-337.304	-63.374	-0.092	0.038
-336.289	536.326	-0.075	-0.175
-335.275	800.000	-0.078	-0.323
-334.260	111.284	-0.335	-0.400
-333.245	-59.429	0.050	-0.021
-332.231	-60.061	0.219	0.093
-331.216	-200.000	-0.006	0.402
-330.202	-153.027	0.232	-0.016
-329.187	89.792	-0.229	0.253
-328.172	-49.176	0.080	0.038
-327.158	-109.065	0.232	0.049
-326.143	-200.000	-0.047	-0.292
-325.129	216.168	0.150	0.236
-324.114	656.514	-0.034	-0.086
-323.099	-41.699	0.021	0.011
-322.085	-51.182	-0.113	-0.052
-321.070	429.803	0.163	0.349
-320.056	27.072	0.112	-0.093
-319.041	79.466	0.073	-0.078
-318.026	458.790	0.110	-0.241
-317.012	-173.694	0.089	-0.003
-315.997	800.000	-0.095	-0.270
-314.983	60.770	0.241	0.236
-313.968	-200.000	-0.044	0.516
-312.953	800.000	-0.052	0.213
-311.939	42.404	0.169	-0.152
-310.924	257.338	-0.223	0.379
-309.910	198.531	-0.284	-0.429
-308.895	418.737	-0.038	-0.080
-307.880	35.939	0.149	-0.130
-306.866	-37.906	-0.117	-0.062
-305.851	203.362	-0.108	-0.165
-304.837	800.000	0.019	-0.074
-303.822	251.511	0.061	-0.102
-302.807	365.512	0.083	0.166
-301.793	-69.690	0.100	0.038
-300.778	-93.255	-0.127	0.035
-299.764	-66.834	0.058	0.023
-298.749	-141.774	0.521	-0.052
-297.735	662.002	0.179	-0.457
-296.720	-77.402	0.166	0.057
-295.705	-86.592	-0.149	0.045
-294.691	-147.898	-0.073	-0.006
-293.676	-37.441	0.260	0.137
-292.662	68.728	0.225	0.228
-291.647	800.000	0.091	0.318
-290.632	-68.910	-0.128	0.049
-289.618	-200.000	-0.001	-0.185
-288.603	138.588	-0.056	-0.073
-287.589	18.897	0.087	0.069
-286.574	104.791	0.130	-0.151
-285.559	-88.745	-0.176	0.052
-284.545	-112.049	-0.179	-0.036
-283.530	12.623	0.108	0.082
-282.516	-8.269	0.083	0.055
-281.501	265.521	0.062	-0.107
-280.486	-136.500	0.123	0.014
-279.472	-63.588	0.360	0.146
-278.457	276.166	-0.152	-0.266
-277.443	0.104	0.338	-0.238
-276.428	3.640	0.150	-0.108
-275.413	-89.105	-0.076	-0.022
-274.399	-200.000	-0.007	0.049
-273.384	122.996	0.093	-0.115
-272.370	17.330	0.164	-0.129
-271.355	76.894	0.262	0.275
-270.340	492.272	-0.057	0.129
-269.326	162.642	-0.198	-0.274
-268.311	-200.000	-0.045	0.249
-267.297	-149.298	-0.219	0.017
-266.282	776.297	-0.060	-0.163
-265.267	-200.000	-0.026	-0.251
-264.253	800.000	0.062	-0.178
-263.238	-200.000	0.016	0.194
-262.224	-84.698	-0.131	-0.041
-261.209	171.934	-0.253	0.359
-260.195	47.205	0.128	0.118
-259.180	200.701	0.129	-0.196
-258.165	-111.715	0.164	-0.033
-257.151	-200.000	0.027	0.204
-256.136	-42.993	0.288	-0.144
-255.122	-200.000	-0.046	-0.240
-254.107	-155.637	0.163	-0.010
-253.092	800.000	0.115	-0.417
-252.078	-143.317	0.156	0.015
-251.063	178.008	-0.293	0.421
-250.049	-50.368	0.118	-0.055
-249.034	-99.418	0.326	0.081
-248.019	-24.987	0.253	0.148
-247.005	-200.000	-0.022	-0.202
-245.990	241.905	-0.168	-0.276
-244.976	481.245	0.137	0.306
-243.961	-200.000	0.087	0.397
-242.946	545.036	-0.161	0.379
-241.932	-102.770	0.284	-0.067
-240.917	-57.804	-0.189	0.082
-239.903	800.000	-0.082	-0.225
-238.888	-200.000	-0.011	-0.102
-237.873	-200.000	-0.046	0.277
-236.859	-141.567	-0.110	0.011
-235.844	800.000	-0.032	-0.133
-234.830	206.619	-0.083	0.128
-233.815	800.000	0.025	-0.084
-232.800	800.000	-0.048	0.173
-231.786	-57.031	-0.169	-0.074
-230.771	-26.216	0.218	0.126
-229.757	154.062	0.144	0.195
-228.742	18.017	0.304	-0.239
-227.727	-200.000	0.007	-0.286
-226.713	80.000	0.166	0.176
-225.698	97.066	-0.268	-0.303
-224.684	-53.487	-0.193	-0.087
-223.669	-200.000	0.021	0.106
-222.655	-53.371	-0.162	0.073
-221.640	49.780	0.044	0.041
-220.625	244.923	-0.152	-0.252
-219.611	-11.145	-0.335	0.218
-218.596	7.833	0.055	0.041
-217.582	24.681	0.023	0.018
-216.567	-200.000	-0.007	0.117
-215.552	64.858	0.046	-0.046
-214.538	204.584	0.143	-0.218
-213.523	-200.000	0.054	0.233
-212.509	800.000	0.100	0.318
-211.494	-200.000	0.025	0.293
-210.479	-101.505	0.287	0.069
-209.465	21.102	0.166	-0.133
-208.450	-200.000	-0.084	0.394
-207.436	-21.718	-0.130	0.078
-206.421	296.643	0.090	-0.163
-205.406	-80.081	-0.223	-0.074
-204.392	148.420	0.301	-0.401
-203.377	-200.000	-0.093	-0.469
-202.363	-200.000	-0.046	-0.324
-201.348	-200.000	-0.054	0.295
-200.333	282.264	-0.084	-0.148
-199.319	-200.000	-0.017	-0.340
-198.304	-200.000	-0.085	0.462
-197.290	-91.270	0.215	0.061
-196.275	-89.211	-0.272	-0.079
-195.260	-115.848	-0.218	-0.040
-194.246	800.000	0.108	0.295
-193.231	237.300	0.171	0.279
-192.217	219.111	0.102	-0.160
-191.202	-17.855	-0.028	-0.017
-190.187	800.000	-0.109	-0.363
-189.173	800.000	0.071	0.208
-188.158	324.298	-0.171	0.322
-187.144	157.286	0.098	0.133
-186.129	-74.528	0.483	-0.171
-185.114	-8.955	-0.178	0.117
-184.100	-12.444	-0.194	0.125
-183.085	-12.296	-0.022	-0.014
-182.071	-200.000	-0.011	0.222
-181.056	6.607	-0.220	0.161
-180.042	-200.000	0.048	-0.238
-179.027	-161.780	0.343	-0.017
-178.012	-146.307	0.296	-0.025
-176.998	573.163	-0.048	0.116
-175.983	-8.918	0.066	0.044
-174.969	376.022	-0.137	0.276
-173.954	341.022	0.148	0.285
-172.939	129.507	-0.160	0.201
-171.925	90.784	0.204	0.225
-170.910	75.275	-0.126	-0.131
-169.896	-97.294	0.305	0.078
-168.881	-200.000	0.036	-0.236
-167.866	-138.288	-0.175	0.019
-166.852	303.310	-0.124	0.225
-165.837	112.179	0.074	0.088
-164.823	300.175	-0.063	-0.115
-163.808	138.079	0.188	0.242
-162.793	-94.035	-0.427	0.115
-161.779	126.487	-0.232	0.289
-160.764	-200.000	0.013	0.078
-159.750	-4.099	-0.224	0.153
-158.735	9.488	0.187	0.139
-157.720	-141.675	0.431	0.043
-156.706	-184.974	-0.332	-0.005
-155.691	176.340	0.165	-0.236
-154.677	-200.000	-0.021	-0.273
-153.662	-45.630	0.134	-0.065
-152.647	-122.269	0.161	-0.026
-151.633	199.963	-0.046	0.070
-150.618	205.244	0.085	-0.130
-149.604	13.881	-0.048	-0.037
-148.589	-87.522	-0.227	-0.068
-147.574	-29.808	-0.486	0.272
-146.560	-152.701	0.347	-0.024
-145.545	-200.000	-0.013	0.261
-144.531	316.511	0.049	-0.092
-143.516	-84.127	0.281	0.088
-142.502	-200.000	0.025	-0.156
-141.487	-22.109	0.212	-0.126
-140.472	-200.000	0.018	-0.079
-139.458	-120.151	0.170	0.028
-138.443	-65.992	-0.299	-0.117
-137.429	800.000	-0.037	-0.127
-136.414	800.000	0.055	-0.187
-135.399	-47.133	0.156	0.075
-134.385	-200.000	-0.002	0.338
-133.370	-45.712	-0.351	0.170
-132.356	81.470	-0.179	-0.190
-131.341	-103.596	-0.285	-0.066
-130.326	-60.123	0.217	0.091
-129.312	-32.232	0.424	-0.233
-128.297	-103.573	-0.356	0.082
-127.283	-200.000	-0.009	0.482
-126.268	45.980	-0.078	-0.071
-125.253	38.286	-0.086	-0.075
-124.239	-124.656	0.181	0.027
-123.224	471.220	0.097	0.214
-122.210	188.684	-0.059	0.087
-121.195	333.945	-0.122	0.232
-120.180	71.351	0.207	-0.211
-119.166	-10.554	-0.030	-0.020
-118.151	-133.627	0.031	-0.004
-117.137	-52.126	-0.263	0.120
-116.122	-200.000	-0.018	-0.151
-115.107	-45.436	-0.176	0.085
-114.093	-200.000	0.025	-0.210
-113.078	223.070	-0.052	-0.083
-112.064	89.323	0.139	0.152
-111.049	-113.410	-0.136	-0.026
-110.034	-44.023	0.226	-0.111
-109.020	604.104	0.105	0.257
-108.005	-64.445	-0.495	0.198
-106.991	-98.388	0.440	0.110
-105.976	24.184	-0.016	-0.013
-104.962	96.454	-0.160	0.179
-103.947	-200.000	-0.007	0.056
-102.932	94.018	-0.307	-0.342
-101.918	27.296	0.076	0.063
-100.903	-33.430	-0.070	-0.038
-99.889	-89.621	-0.290	0.083
-98.874	119.570	0.136	0.165
-97.859	-200.000	0.048	0.227
-96.845	416.234	0.158	0.331
-95.830	800.000	0.034	0.105
-94.816	182.181	-0.185	-0.268
-93.801	-16.893	-0.179	-0.111
-92.786	63.356	0.090	0.089
-91.772	584.282	-0.056	-0.134
-90.757	-105.128	-0.408	0.092
-89.743	122.263	-0.114	-0.140
-88.728	-40.952	-0.183	0.093
-87.713	516.041	-0.045	-0.104
-86.699	-200.000	-0.007	-0.129
-85.684	38.697	0.078	0.069
-84.670	-200.000	0.010	0.254
-83.655	-200.000	0.054	-0.239
-82.640	-200.000	0.034	0.187
-81.626	-200.000	0.098	0.617
-80.611	-13.541	0.077	0.049
-79.597	278.498	-0.133	-0.232
-78.582	800.000	-0.119	-0.403
-77.567	-200.000	0.011	0.048
-76.553	-74.510	-0.155	0.055
-75.538	-200.000	-0.001	-0.326
-74.524	18.209	0.206	-0.161
-73.509	-200.000	0.002	-0.038
-72.494	-200.000	-0.026	-0.271
-71.480	-167.650	0.157	0.006
-70.465	-200.000	-0.024	0.179
-69.451	800.000	0.064	0.272
-68.436	49.209	-0.127	0.117
-67.422	-57.077	0.247	0.107
-66.407	-196.601	0.161	0.001
-65.392	-127.347	0.056	0.008
-64.378	406.733	-0.041	-0.085
-63.363	-135.088	0.298	-0.035
-62.349	-200.000	0.023	-0.128
-61.334	98.946	-0.932	-1.054
-60.319	171.729	0.425	0.597
-59.305	-200.000	-0.224	-1.114
-58.290	405.408	0.603	1.246
-57.276	742.419	0.513	1.351
-56.261	-200.000	107.678	627.966
-55.246	524.623	1515.245	3490.874
-54.232	174.848	2712.411	3844.876
-53.217	105.182	2294.987	2652.844
-52.203	38.481	1899.411	1658.104
-51.188	32.432	1686.219	1426.271
-50.173	29.839	1642.752	1370.274
-49.159	48.571	1697.806	1557.825
-48.144	48.878	1712.390	1573.454
-47.130	31.891	1670.076	1408.324
-46.115	29.231	1655.426	1376.085
-45.100	29.009	1650.523	1370.299
-44.086	28.995	1647.865	1367.934
-43.071	29.056	1645.032	1365.983
-42.057	29.029	1642.262	1363.429
-41.042	28.990	1640.673	1361.763
-40.027	28.930	1639.134	1359.989
-39.013	29.010	1636.697	1358.506
-37.998	28.999	1635.172	1357.105
-36.984	28.971	1633.959	1355.838
-35.969	29.153	1632.457	1355.881
-34.954	29.227	1630.743	1354.942
-33.940	29.122	1628.726	1352.440
-32.925	29.115	1627.203	1351.077
-31.911	29.140	1625.921	1350.140
-30.896	29.115	1624.023	1348.325
-29.881	29.058	1622.055	1346.224
-28.867	29.130	1620.132	1345.102
-27.852	29.107	1619.588	1344.428
-26.838	29.118	1617.237	1342.503
-25.823	29.053	1616.434	1341.305
-24.809	29.198	1614.838	1340.986
-23.794	29.170	1613.245	1339.403
-22.779	29.147	1611.919	1338.088
-21.765	29.141	1610.103	1336.478
-20.750	29.115	1608.736	1335.107
-19.736	29.191	1607.513	1334.584
-18.721	29.194	1606.172	1333.442
-17.706	29.128	1604.450	1331.484
-16.692	29.084	1603.269	1330.133
-15.677	29.148	1601.478	1329.057
-14.663	29.235	1600.492	1328.815
-13.648	29.264	1598.714	1327.494
-12.633	29.213	1597.080	1325.715
-11.619	29.147	1595.779	1324.107
-10.604	29.093	1594.754	1322.817
-9.590	29.152	1593.397	1322.061
-8.575	29.190	1592.136	1321.236
-7.560	29.161	1590.684	1319.771
-6.546	29.159	1589.985	1319.124
-5.531	29.050	1589.504	1317.896
-4.517	29.176	1587.256	1316.880
-3.502	29.119	1586.505	1315.797
-2.487	29.270	1584.174	1314.886
-1.473	28.902	1572.705	1302.710
-0.458	26.123	1553.016	1266.874
0.556	20.474	1554.404	1237.072
1.571	18.204	1580.248	1241.078
2.586	18.072	1593.154	1250.142
3.600	16.384	1540.891	1197.073
4.615	8.712	1432.060	1061.725
5.629	1.164	1368.417	966.478
6.644	-0.249	1360.135	951.590
7.659	-0.343	1359.313	950.337
8.673	-0.250	1357.922	949.865
9.688	-0.398	1356.210	947.648
10.702	-0.537	1353.096	944.516
11.717	2.631	1358.862	968.491
12.731	11.560	1376.622	1038.017
13.746	19.153	1389.654	1096.279
14.761	21.032	1392.263	1110.216
15.775	21.497	1391.215	1112.238
16.790	21.518	1391.274	1112.317
17.804	21.549	1390.852	1112.078
18.819	21.694	1390.532	1112.648
19.834	21.859	1389.881	1113.076
20.848	21.821	1389.461	1112.396
21.863	21.889	1387.928	1111.503
22.877	21.929	1387.607	1111.401
23.892	21.894	1386.564	1110.248
24.907	21.870	1386.009	1109.549
25.921	21.841	1385.243	1108.655
26.936	21.858	1383.682	1107.418
27.950	21.808	1383.246	1106.657
28.965	21.898	1381.645	1105.843
29.980	21.926	1380.183	1104.750
30.994	21.896	1379.056	1103.561
32.009	21.914	1377.992	1102.728
33.023	21.878	1377.017	1101.624
34.038	21.782	1376.177	1100.253
35.053	21.876	1374.716	1099.572
36.067	21.971	1373.508	1099.109
37.082	21.949	1372.556	1098.109
38.096	21.858	1371.940	1096.949
39.111	22.008	1370.671	1096.775
40.126	21.846	1370.946	1095.886
41.140	21.899	1369.760	1095.172
42.155	21.839	1369.800	1094.735
43.169	21.904	1369.784	1095.030
44.184	21.904	1369.359	1094.595
45.199	21.752	1369.340	1093.532
46.213	21.965	1368.203	1093.852
47.228	21.878	1367.094	1092.330
48.242	21.956	1365.675	1091.582
49.257	21.920	1364.652	1090.444
50.271	21.905	1363.027	1088.961
51.286	21.839	1361.853	1087.515
52.301	21.949	1360.195	1086.773
53.315	21.896	1359.960	1086.162
54.330	21.888	1359.000	1085.249
55.344	21.934	1357.477	1084.226
56.359	21.894	1356.838	1083.368
57.374	21.819	1356.124	1082.239
58.388	21.942	1355.488	1082.398
59.403	21.849	1354.977	1081.319
60.417	21.926	1354.363	1081.207
61.432	21.912	1353.452	1080.300
62.447	21.888	1352.758	1079.504
63.461	21.896	1351.688	1078.599
64.476	21.888	1350.528	1077.531
65.490	21.959	1349.240	1076.844
66.505	21.883	1347.640	1075.008
67.520	21.976	1346.395	1074.489
68.534	21.887	1345.443	1073.086
69.549	22.020	1344.104	1072.736
70.563	21.952	1343.275	1071.568
71.578	21.962	1342.247	1070.714
72.593	21.992	1341.609	1070.293
73.607	21.874	1341.036	1069.023
74.622	21.901	1340.100	1068.346
75.636	21.964	1339.799	1068.390
76.651	22.040	1338.407	1067.652
77.666	21.892	1338.147	1066.452
78.680	21.966	1337.720	1066.466
79.695	21.854	1336.853	1065.001
80.709	21.944	1336.086	1064.838
81.724	21.996	1334.929	1064.137
82.739	21.860	1334.161	1062.607
83.753	21.963	1333.084	1062.278
84.768	21.841	1332.123	1060.681
85.782	21.944	1330.902	1060.237
86.797	22.001	1329.476	1059.350
87.812	21.983	1328.562	1058.422
88.826	21.990	1327.145	1057.241
89.841	21.907	1326.678	1056.278
90.855	21.946	1325.663	1055.607
91.870	21.985	1324.973	1055.199
92.884	21.972	1324.040	1054.284
93.899	21.981	1323.220	1053.596
94.914	21.971	1322.508	1052.876
95.928	21.982	1321.849	1052.323
96.943	22.019	1321.044	1051.813
97.957	21.991	1320.367	1051.012
98.972	21.981	1319.008	1049.778
99.987	21.936	1318.347	1048.886
101.001	22.052	1317.096	1048.492
102.016	21.992	1316.676	1047.709
103.030	22.014	1315.604	1046.895
104.045	22.001	1314.726	1046.027
105.060	22.018	1313.428	1044.997
106.074	21.979	1312.880	1044.238
107.089	22.064	1311.595	1043.629
108.103	21.981	1310.406	1042.101
109.118	22.053	1309.283	1041.542
110.133	22.009	1308.459	1040.532
111.147	21.946	1307.337	1039.177
112.162	21.966	1306.124	1038.239
113.176	22.037	1304.605	1037.357
114.191	22.084	1303.817	1036.915
115.206	22.130	1302.747	1036.247
116.220	21.996	1301.866	1034.664
117.235	22.066	1300.823	1034.153
118.249	22.084	1299.995	1033.512
119.264	21.956	1299.151	1031.994
120.279	22.111	1297.949	1031.858
121.293	22.019	1297.752	1031.074
122.308	22.047	1296.524	1030.172
123.322	22.108	1295.611	1029.712
124.337	22.128	1294.695	1029.005
125.352	22.128	1293.271	1027.785
126.366	22.119	1292.761	1027.238
127.381	22.085	1291.648	1026.062
128.395	22.157	1290.881	1025.783
129.410	22.083	1289.912	1024.489
130.424	22.168	1288.946	1024.126
131.439	22.081	1288.666	1023.310
132.454	22.104	1287.321	1022.286
133.468	22.131	1286.560	1021.745
134.483	22.002	1286.318	1020.716
135.497	22.084	1285.709	1020.615
136.512	22.027	1284.344	1019.111
137.527	22.075	1283.450	1018.591
138.541	22.045	1281.768	1016.990
139.556	22.224	1279.899	1016.456
140.570	22.055	1279.272	1014.888
141.585	22.064	1278.167	1013.972
142.600	22.026	1276.832	1012.607
143.614	22.046	1276.342	1012.242
144.629	21.974	1275.411	1010.999
145.643	22.034	1273.958	1010.102
146.658	21.999	1273.374	1009.350
147.673	22.055	1272.101	1008.577
148.687	21.997	1271.096	1007.358
149.702	22.036	1269.940	1006.573
150.716	22.112	1269.031	1006.199
151.731	22.020	1268.035	1004.793
152.746	22.129	1266.789	1004.340
153.760	22.138	1266.033	1003.708
154.775	22.150	1265.011	1002.875
155.789	22.105	1264.165	1001.860
156.804	22.177	1263.180	1001.398
157.819	22.124	1261.889	999.988
158.833	22.205	1261.198	999.809
159.848	22.184	1260.741	999.241
160.862	22.261	1260.116	999.096
161.877	22.274	1259.211	998.363
162.892	22.193	1258.644	997.361
163.906	22.106	1257.640	995.985
164.921	22.091	1256.880	995.210
165.935	22.162	1255.969	994.804
166.950	22.253	1255.152	994.582
167.964	22.259	1254.264	993.824
168.979	22.323	1253.960	993.859
169.994	22.142	1253.990	992.774
171.008	22.207	1252.840	992.140
172.023	22.192	1252.417	991.636
173.037	22.270	1251.007	990.867
174.052	22.155	1250.598	989.807
175.067	22.202	1249.783	989.342
176.081	22.237	1248.857	988.718
177.096	22.257	1247.781	987.892
178.110	22.175	1247.369	987.017
179.125	22.244	1246.335	986.500
180.140	22.219	1245.300	985.451
181.154	22.230	1243.947	984.354
182.169	22.265	1242.921	983.654
183.183	22.227	1242.222	982.799
184.198	22.161	1241.179	981.517
185.213	22.214	1240.007	980.798
186.227	22.322	1239.536	980.941
187.242	22.355	1238.136	979.931
188.256	22.326	1237.299	979.022
189.271	22.259	1236.319	977.790
190.286	22.321	1235.708	977.564
191.300	22.312	1235.164	976.994
192.315	22.282	1235.152	976.734
193.329	22.263	1234.560	976.075
194.344	22.356	1233.478	975.648
195.359	22.363	1233.387	975.526
196.373	22.297	1232.662	974.503
197.388	22.296	1232.298	974.125
198.402	22.238	1232.057	973.526
199.417	22.300	1231.536	973.367
200.432	22.357	1230.649	972.896
201.446	22.227	1230.602	972.055
202.461	22.271	1229.470	971.317
203.475	22.335	1228.874	971.112
204.490	22.323	1227.302	969.723
205.504	22.239	1227.001	968.932
206.519	22.351	1225.826	968.537
207.534	22.330	1224.995	967.679
208.548	22.393	1223.881	967.058
209.563	22.322	1223.273	966.105
210.577	22.360	1222.052	965.263
211.592	22.367	1221.919	965.112
212.607	22.386	1221.044	964.439
213.621	22.485	1219.886	963.981
214.636	22.402	1219.358	963.021
215.650	22.313	1218.712	961.938
216.665	22.417	1217.250	961.270
217.680	22.468	1216.201	960.638
218.694	22.476	1215.701	960.199
219.709	22.444	1215.201	959.546
220.723	22.414	1214.796	958.976
221.738	22.367	1213.863	957.898
222.753	22.406	1212.821	957.206
223.767	22.487	1212.437	957.254
224.782	22.551	1211.734	956.965
225.796	22.632	1211.380	957.040
226.811	22.571	1210.856	956.213
227.826	22.455	1210.505	955.222
228.840	22.583	1209.368	954.932
229.855	22.467	1208.778	953.751
230.869	22.523	1208.113	953.445
231.884	22.462	1207.334	952.416
232.899	22.531	1206.617	952.139
233.913	22.557	1205.980	951.694
234.928	22.609	1205.585	951.579
235.942	22.512	1205.178	950.648
236.957	22.577	1204.166	950.117
237.972	22.516	1203.486	949.169
238.986	22.606	1203.006	949.192
240.001	22.557	1202.441	948.395
241.015	22.668	1201.499	948.169
242.030	22.606	1200.688	947.111
243.045	22.606	1199.647	946.208
244.059	22.694	1199.376	946.381
245.074	22.749	1198.235	945.690
246.088	22.793	1197.692	945.414
247.103	22.733	1196.819	944.319
248.117	22.670	1196.236	943.440
249.132	22.822	1195.154	943.315
250.147	22.814	1194.626	942.771
251.161	22.709	1193.515	941.249
252.176	22.645	1193.626	940.912
253.190	22.852	1192.643	941.161
254.205	22.710	1192.505	940.213
255.220	22.741	1191.621	939.596
256.234	22.910	1190.813	939.774
257.249	22.760	1190.847	938.921
258.263	22.736	1189.598	937.727
259.278	22.842	1189.068	937.790
260.293	22.782	1188.749	937.135
261.307	22.852	1188.087	936.900
262.322	22.801	1187.395	936.003
263.336	22.777	1186.704	935.247
264.351	22.880	1186.110	935.240
265.366	22.763	1185.717	934.229
266.380	22.826	1185.070	933.972
267.395	22.814	1184.328	933.238
268.409	22.816	1183.566	932.566
269.424	22.694	1183.197	931.547
270.439	22.838	1182.398	931.595
271.453	22.771	1182.133	930.952
272.468	22.834	1181.065	930.362
273.482	22.875	1180.412	929.981
274.497	22.924	1179.762	929.643
275.512	22.945	1179.430	929.412
276.526	23.009	1178.195	928.690
277.541	22.906	1177.842	927.788
278.555	22.919	1177.325	927.371
279.570	22.861	1176.817	926.583
280.585	22.914	1176.015	926.145
281.599	22.899	1175.387	925.494
282.614	22.912	1174.197	924.540
283.628	23.074	1172.940	924.317
284.643	23.013	1172.482	923.554
285.657	22.957	1171.720	922.581
286.672	22.952	1170.898	921.823
287.687	23.101	1169.665	921.550
288.701	23.082	1169.414	921.173
289.716	23.140	1168.379	920.579
290.730	23.012	1167.840	919.404
291.745	23.172	1167.010	919.504
292.760	23.094	1167.197	919.164
293.774	23.119	1166.252	918.468
294.789	23.074	1165.952	917.916
295.803	23.133	1164.969	917.367
296.818	23.118	1164.074	916.505
297.833	23.146	1163.581	916.176
298.847	23.213	1163.032	916.011
299.862	23.111	1162.167	914.722
300.876	23.192	1160.946	914.100
301.891	23.299	1160.752	914.417
302.906	23.200	1160.546	913.664
303.920	23.164	1160.017	912.977
304.935	23.291	1159.012	912.762
305.949	23.233	1158.688	912.129
306.964	23.255	1157.350	911.106
307.979	23.249	1156.996	910.719
308.993	23.345	1156.397	910.657
310.008	23.275	1155.890	909.820
311.022	23.286	1154.970	909.072
312.037	23.351	1154.016	908.574
313.052	23.262	1153.334	907.500
314.066	23.171	1152.744	906.488
315.081	23.276	1151.940	906.311
316.095	23.318	1150.999	905.709
317.110	23.365	1150.371	905.373
318.125	23.458	1149.367	904.978
319.139	23.392	1149.032	904.297
320.154	23.372	1148.632	903.803
321.168	23.365	1148.160	903.313
322.183	23.304	1147.592	902.476
323.197	23.385	1146.912	902.275
324.212	23.329	1146.486	901.572
325.227	23.420	1146.191	901.725
326.241	23.449	1145.333	901.118
327.256	23.440	1144.517	900.349
328.270	23.469	1143.572	899.675
329.285	23.339	1143.286	898.709
330.300	23.462	1142.125	898.342
331.314	23.488	1141.283	897.730
332.329	23.437	1140.460	896.748
333.343	23.494	1140.177	896.732
334.358	23.469	1139.025	895.622
335.373	23.559	1138.455	895.550
336.387	23.591	1137.459	894.848
337.402	23.527	1137.261	894.290
338.416	23.608	1136.219	893.796
339.431	23.509	1135.863	892.942
340.446	23.645	1135.045	892.904
341.460	23.600	1134.514	892.179
342.475	23.633	1133.782	891.693
343.489	23.658	1132.860	891.013
344.504	23.635	1131.949	890.103
345.519	23.561	1131.152	889.027
346.533	23.691	1129.992	888.687
347.548	23.648	1129.531	888.030
348.562	23.624	1129.383	887.714
349.577	23.618	1128.548	886.949
350.592	23.549	1127.474	885.682
351.606	23.486	1127.064	884.967
352.621	23.733	1126.068	885.339
353.635	23.679	1125.845	884.815
354.650	23.686	1125.030	884.133
355.665	23.761	1124.676	884.150
356.679	23.657	1124.088	883.089
357.694	23.683	1123.576	882.739
358.708	23.768	1122.948	882.589
359.723	23.703	1122.098	881.524
360.738	23.669	1121.333	880.676
361.752	23.706	1121.326	880.777
362.767	23.796	1120.070	880.154
363.781	23.833	1119.574	879.870
364.796	23.812	1119.305	879.476
365.810	23.770	1118.680	878.702
366.825	23.907	1117.832	878.634
367.840	23.864	1117.717	878.252
368.854	24.016	1117.018	878.378
369.869	23.995	1115.455	876.970
370.883	23.855	1115.216	876.014
371.898	23.969	1114.571	875.987
372.913	23.874	1114.214	875.166
373.927	23.898	1113.569	874.697
374.942	24.063	1113.081	875.046
375.956	24.059	1112.662	874.621
376.971	23.969	1112.296	873.814
377.986	23.897	1111.662	872.886
379.000	24.076	1111.033	873.191
380.015	24.040	1110.367	872.416
381.029	24.043	1109.855	871.951
382.044	24.084	1109.178	871.544
383.059	24.076	1108.480	870.877
384.073	24.069	1107.903	870.311
385.088	24.054	1106.797	869.292
386.102	24.002	1106.104	868.419
387.117	24.055	1105.232	867.913
388.132	24.094	1104.411	867.385
389.146	23.996	1103.732	866.297
390.161	24.040	1103.394	866.169
391.175	24.143	1102.503	865.892
392.190	24.200	1101.630	865.408
393.205	24.184	1100.813	864.614
394.219	24.124	1100.420	863.935
395.234	24.154	1099.737	863.470
396.248	24.136	1098.347	862.214
397.263	24.057	1098.021	861.499
398.278	24.199	1097.507	861.709
399.292	24.201	1096.649	860.967
400.307	24.233	1096.481	860.913
401.321	24.222	1095.351	859.897
402.336	24.246	1094.888	859.574
403.350	24.400	1094.007	859.547
404.365	24.263	1093.374	858.315
405.380	24.357	1092.697	858.157
406.394	24.409	1092.086	857.855
407.409	24.380	1091.025	856.806
408.423	24.482	1090.909	857.130
409.438	24.481	1089.800	856.175
410.453	24.497	1089.194	855.702
411.467	24.410	1088.513	854.674
412.482	24.404	1087.573	853.831
413.496	24.491	1086.881	853.625
414.511	24.429	1086.302	852.800
415.526	24.432	1086.120	852.598
416.540	24.403	1085.907	852.217
417.555	24.422	1085.403	851.837
418.569	24.396	1084.687	851.073
419.584	24.511	1084.084	851.075
420.599	24.535	1083.830	850.916
421.613	148.886	1401.687	1798.214
422.628	137.584	1447.971	1798.297
