DTS Sentinel unit serial number:	SN413079Multiplexer serial number:	ORYXHardware model number:	OX4-SRSoftware version number:	ORYX F/W v4.00 Oryx Data Collector v3.7.2.0data status	okinstallation	princeton_trtdifferential loss correction	single-endedforward channel	channel 2reverse channel	N/Adate	2019/09/11time	05:49:11forward acquisition time	60.00reverse acquisition time	0.00gamma	496.2192k internal	0.2329k external	0.2329temperature offset calibration	0.9940default loss term (dB/km)	0.3790temperature slope calibration	1.0000multiplexer offset coefficient	1.0000multiplexer slope coefficient	1.0000fibre end	0.00T internal ref (°C)	29.41T ext. ref 1 (°C)	-0.22T ext. ref 2 (°C)	23.46length (m)	temperature (°C)	Stokes	anti-Stokes-747.200	-200.000	-0.009	-0.217
-746.185	95.741	0.163	0.187
-745.171	-164.818	0.080	0.004
-744.156	-102.487	0.076	-0.018
-743.142	-200.000	-0.049	0.233
-742.127	169.992	-0.129	0.186
-741.112	106.566	-0.205	0.245
-740.098	53.081	0.077	-0.074
-739.083	-24.813	0.334	0.200
-738.069	-200.000	0.012	0.418
-737.054	65.799	-0.158	-0.161
-736.039	-138.775	-0.204	-0.022
-735.025	-200.000	-0.029	0.151
-734.010	63.928	-0.080	-0.081
-732.996	800.000	0.025	-0.087
-731.981	106.092	-0.103	-0.123
-730.966	120.779	0.034	0.043
-729.952	-105.843	-0.238	-0.054
-728.937	-109.383	0.082	0.018
-727.923	10.973	-0.122	0.094
-726.908	43.831	-0.119	0.109
-725.894	-200.000	0.045	-0.227
-724.879	-200.000	-0.011	-0.067
-723.864	371.948	-0.168	-0.344
-722.850	-161.859	-0.214	-0.011
-721.835	89.305	0.253	-0.284
-720.821	800.000	-0.027	-0.078
-719.806	-200.000	-0.006	0.242
-718.791	800.000	-0.049	-0.168
-717.777	-8.366	-0.242	-0.164
-716.762	-200.000	0.024	-0.188
-715.748	6.483	-0.093	0.070
-714.733	27.963	-0.116	-0.098
-713.718	-64.552	0.274	-0.112
-712.704	-60.203	0.322	0.138
-711.689	-199.446	0.170	-0.001
-710.675	-56.019	-0.231	0.103
-709.660	-200.000	0.015	-0.248
-708.645	135.813	0.085	0.112
-707.631	-200.000	0.027	0.205
-706.616	-6.232	-0.221	0.152
-705.602	523.420	-0.059	0.139
-704.587	130.110	-0.182	-0.234
-703.572	-8.036	0.461	0.313
-702.558	-85.663	0.154	0.048
-701.543	-113.831	-0.172	0.034
-700.529	174.611	-0.214	-0.311
-699.514	64.022	0.364	-0.368
-698.499	-153.471	0.242	-0.017
-697.485	142.088	-0.143	-0.190
-696.470	76.143	-0.208	-0.222
-695.456	-200.000	0.027	0.164
-694.441	800.000	-0.093	-0.325
-693.426	800.000	0.045	-0.195
-692.412	152.466	-0.190	0.261
-691.397	48.865	0.082	0.078
-690.383	-164.504	-0.372	-0.017
-689.368	-145.643	0.126	0.011
-688.354	100.136	0.035	-0.041
-687.339	800.000	0.079	0.235
-686.324	71.060	0.126	0.131
-685.310	-94.372	-0.229	-0.063
-684.295	-7.900	-0.036	-0.025
-683.281	-117.707	0.224	0.041
-682.266	-120.366	0.382	-0.065
-681.251	800.000	0.060	-0.230
-680.237	161.131	-0.067	0.095
-679.222	-200.000	0.051	0.364
-678.208	75.482	-0.167	-0.177
-677.193	-200.000	-0.279	0.000
-676.178	-200.000	-0.055	-0.415
-675.164	-200.000	0.065	-0.410
-674.149	-39.678	-0.037	-0.019
-673.135	-200.000	-0.001	0.024
-672.120	81.648	0.152	-0.165
-671.105	516.643	0.032	0.074
-670.091	-200.000	0.036	0.205
-669.076	-200.000	0.015	-0.068
-668.062	-170.902	0.383	-0.013
-667.047	126.181	0.237	0.301
-666.032	7.861	0.313	-0.235
-665.018	151.962	0.160	-0.219
-664.003	-200.000	-0.010	0.198
-662.989	-23.502	-0.224	-0.135
-661.974	-200.000	0.030	0.138
-660.959	-50.327	-0.115	-0.054
-659.945	453.376	0.142	0.315
-658.930	-200.000	-0.004	-0.043
-657.916	-200.000	-0.047	-0.283
-656.901	74.351	-0.159	-0.168
-655.886	89.986	-0.148	-0.166
-654.872	7.979	0.179	0.135
-653.857	-200.000	0.003	-0.027
-652.843	-166.084	0.087	-0.004
-651.828	-110.180	-0.362	0.076
-650.814	-153.123	0.405	0.029
-649.799	-112.938	-0.587	0.117
-648.784	-88.664	0.107	-0.032
-647.770	99.495	-0.111	-0.128
-646.755	-76.324	-0.073	0.026
-645.741	134.816	0.151	0.197
-644.726	122.792	0.105	-0.132
-643.711	-16.117	0.084	0.054
-642.697	23.752	0.127	-0.105
-641.682	-73.174	0.367	-0.135
-640.668	-200.000	-0.023	-0.261
-639.653	777.460	0.074	-0.203
-638.638	-130.161	-0.129	-0.018
-637.624	79.938	-0.070	-0.076
-636.609	-89.580	-0.022	0.007
-635.595	252.467	0.067	-0.115
-634.580	-128.820	0.183	-0.026
-633.565	800.000	0.035	0.128
-632.551	800.000	0.030	-0.124
-631.536	800.000	0.080	-0.312
-630.522	606.537	0.215	-0.537
-629.507	5.243	-0.090	0.066
-628.492	800.000	0.045	-0.185
-627.478	180.899	0.182	0.268
-626.463	-200.000	-0.013	0.074
-625.449	-200.000	0.008	0.046
-624.434	203.792	0.215	0.334
-623.419	-99.506	0.116	-0.029
-622.405	800.000	0.038	-0.162
-621.390	-15.564	0.228	-0.146
-620.376	71.956	-0.203	-0.212
-619.361	360.680	-0.113	0.227
-618.346	235.414	0.176	-0.292
-617.332	-16.222	0.061	-0.039
-616.317	-113.271	0.199	0.039
-615.303	800.000	0.097	-0.349
-614.288	-200.000	-0.020	-0.210
-613.273	284.890	-0.153	0.276
-612.259	212.976	0.147	-0.233
-611.244	-46.347	0.095	-0.047
-610.230	-88.483	-0.227	0.068
-609.215	-86.600	0.026	-0.008
-608.201	-112.743	-0.200	-0.040
-607.186	44.060	-0.065	0.059
-606.171	800.000	0.031	-0.114
-605.157	-85.423	0.103	-0.032
-604.142	-104.579	-0.046	0.011
-603.128	-31.135	-0.286	-0.161
-602.113	-123.552	-0.521	-0.083
-601.098	-39.205	-0.010	-0.005
-600.084	178.683	-0.157	-0.229
-599.069	68.321	-0.259	0.266
-598.055	-200.000	0.015	0.126
-597.040	269.822	-0.160	0.281
-596.025	89.425	-0.072	-0.080
-595.011	140.981	0.034	-0.045
-593.996	-191.630	-0.208	-0.002
-592.982	-17.672	-0.081	-0.051
-591.967	76.318	-0.144	-0.152
-590.952	11.609	-0.230	-0.176
-589.938	-200.000	0.038	0.369
-588.923	-47.854	-0.089	0.043
-587.909	-124.973	-0.160	0.025
-586.894	668.991	-0.068	-0.177
-585.879	-200.000	-0.009	-0.266
-584.865	-137.086	0.402	0.046
-583.850	-117.088	0.236	-0.043
-582.836	69.569	0.304	0.313
-581.821	-64.096	0.154	-0.063
-580.806	258.420	0.080	-0.139
-579.792	-115.781	0.029	-0.005
-578.777	-200.000	0.009	0.076
-577.763	198.705	-0.111	-0.170
-576.748	212.824	0.188	0.298
-575.733	25.701	-0.069	0.057
-574.719	72.266	-0.126	-0.131
-573.704	258.024	0.046	-0.078
-572.690	-88.748	0.112	0.033
-571.675	-142.368	-0.113	0.011
-570.661	201.533	0.177	-0.273
-569.646	-97.270	-0.237	0.062
-568.631	-126.309	-0.151	0.023
-567.617	103.971	-0.057	0.067
-566.602	162.869	-0.141	-0.197
-565.588	-35.404	0.382	-0.208
-564.573	541.196	-0.088	-0.211
-563.558	150.654	0.170	-0.231
-562.544	-91.693	0.139	0.040
-561.529	-154.644	-0.203	0.014
-560.515	-200.000	0.017	-0.587
-559.500	447.135	0.023	-0.050
-558.485	200.015	-0.072	0.110
-557.471	-60.138	0.526	-0.224
-556.456	-47.622	0.376	0.182
-555.442	120.860	0.188	0.233
-554.427	-200.000	0.019	0.309
-553.412	39.159	-0.176	-0.157
-552.398	800.000	0.054	0.151
-551.383	65.356	-0.140	0.141
-550.369	-200.000	-0.047	0.306
-549.354	-200.000	-0.004	-0.069
-548.339	-200.000	0.038	0.258
-547.325	205.827	0.086	-0.133
-546.310	146.146	-0.043	-0.058
-545.296	-200.000	-0.001	0.048
-544.281	-200.000	-0.079	-0.364
-543.266	276.735	-0.170	-0.302
-542.252	-95.941	-0.208	-0.055
-541.237	-158.505	-0.134	-0.008
-540.223	-37.974	-0.192	0.102
-539.208	189.014	-0.026	0.039
-538.193	800.000	0.022	0.079
-537.179	749.227	-0.130	0.350
-536.164	556.593	-0.085	-0.205
-535.150	-105.793	-0.120	0.027
-534.135	589.914	0.129	-0.319
-533.121	-57.430	-0.163	-0.071
-532.106	-200.000	-0.031	0.157
-531.091	685.222	-0.170	0.443
-530.077	-200.000	-0.012	0.098
-529.062	-11.037	-0.226	0.149
-528.048	-146.268	-0.423	-0.037
-527.033	393.546	0.086	0.180
-526.018	-169.424	0.472	0.017
-525.004	-171.587	0.270	-0.009
-523.989	102.363	0.068	-0.079
-522.975	30.070	0.129	0.110
-521.960	-200.000	0.027	0.119
-520.945	-200.000	0.026	-0.165
-519.931	224.525	-0.124	-0.201
-518.916	-86.148	0.163	0.050
-517.902	-200.000	-0.029	-0.133
-516.887	-120.225	0.211	0.036
-515.872	-99.009	0.257	-0.065
-514.858	-14.779	0.232	0.149
-513.843	-200.000	0.017	-0.103
-512.829	-41.252	-0.190	0.098
-511.814	-128.472	0.196	0.028
-510.799	200.353	-0.130	0.200
-509.785	-6.206	-0.311	0.212
-508.770	-37.990	0.176	-0.094
-507.756	-101.298	0.072	-0.017
-506.741	-13.440	-0.224	-0.145
-505.726	-58.785	0.431	-0.186
-504.712	-154.604	-0.196	-0.013
-503.697	-151.809	0.124	0.009
-502.683	-18.281	0.142	-0.089
-501.668	99.824	-0.077	0.089
-500.653	2.613	0.164	0.119
-499.639	800.000	0.046	-0.173
-498.624	-129.906	-0.086	-0.012
-497.610	4.279	0.012	0.009
-496.595	235.019	0.031	-0.050
-495.581	50.905	-0.177	0.168
-494.566	-78.281	-0.068	0.023
-493.551	-200.000	-0.036	0.243
-492.537	28.508	0.208	-0.176
-491.522	58.653	0.359	0.352
-490.508	-200.000	0.051	-0.241
-489.493	-52.257	0.089	0.041
-488.478	800.000	0.047	0.141
-487.464	185.758	-0.135	-0.200
-486.449	93.941	0.116	-0.132
-485.435	-4.736	-0.195	0.134
-484.420	800.000	-0.025	-0.070
-483.405	632.627	0.158	0.399
-482.391	315.555	0.118	-0.222
-481.376	-64.972	-0.083	0.033
-480.362	113.632	-0.165	-0.200
-479.347	-10.537	-0.278	0.184
-478.332	-70.493	0.087	-0.033
-477.318	586.061	-0.082	0.200
-476.303	-155.807	-0.210	0.013
-475.289	800.000	0.036	-0.138
-474.274	-1.980	-0.380	-0.266
-473.259	219.562	-0.038	0.060
-472.245	-200.000	-0.044	0.227
-471.230	-171.446	-0.142	-0.005
-470.216	241.231	-0.076	0.127
-469.201	-200.000	-0.040	-0.291
-468.186	557.029	-0.097	0.232
-467.172	205.673	0.059	-0.092
-466.157	-85.754	0.074	0.023
-465.143	-28.192	-0.252	-0.145
-464.128	287.847	0.064	0.115
-463.113	-64.778	0.177	-0.071
-462.099	-63.234	-0.266	0.109
-461.084	171.603	0.060	-0.085
-460.070	-200.000	-0.029	-0.148
-459.055	-200.000	-0.057	0.270
-458.040	-5.993	-0.343	0.234
-457.026	185.308	-0.148	0.219
-456.011	-200.000	-0.028	-0.134
-454.997	-113.161	-0.265	0.052
-453.982	73.172	-0.074	-0.077
-452.968	-113.389	-0.169	-0.033
-451.953	-147.343	0.262	0.022
-450.938	-49.568	-0.035	0.017
-449.924	-82.812	0.165	-0.053
-448.909	413.263	0.132	0.279
-447.895	-200.000	0.001	0.070
-446.880	58.215	-0.242	0.236
-445.865	-200.000	0.035	0.281
-444.851	-81.469	0.494	-0.162
-443.836	-36.318	-0.058	-0.031
-442.822	633.297	-0.027	0.068
-441.807	-78.696	-0.253	-0.086
-440.792	800.000	-0.043	-0.186
-439.778	-28.750	0.150	-0.086
-438.763	-133.741	0.172	-0.021
-437.749	153.296	0.212	0.288
-436.734	-200.000	0.048	-0.341
-435.719	-160.158	0.223	0.012
-434.705	-39.495	0.140	-0.073
-433.690	-200.000	-0.026	-0.135
-432.676	-145.658	-0.385	-0.034
-431.661	-76.174	0.278	-0.098
-430.646	800.000	-0.038	0.111
-429.632	-200.000	-0.007	-0.064
-428.617	-167.137	-0.365	0.015
-427.603	-106.886	0.082	0.018
-426.588	-50.621	0.393	-0.184
-425.573	93.887	-0.027	-0.031
-424.559	292.983	0.125	-0.227
-423.544	-51.979	-0.156	-0.072
-422.530	34.875	0.220	-0.192
-421.515	-200.000	0.010	-0.127
-420.500	33.326	0.188	-0.162
-419.486	256.887	-0.147	0.251
-418.471	272.478	-0.200	0.351
-417.457	712.990	-0.103	-0.272
-416.442	-62.916	-0.153	-0.063
-415.428	-82.461	-0.413	0.133
-414.413	39.301	-0.064	-0.057
-413.398	138.728	0.189	0.247
-412.384	3.678	-0.219	-0.159
-411.369	121.720	-0.088	0.109
-410.355	-200.000	-0.020	-0.131
-409.340	-200.000	-0.057	0.372
-408.325	-200.000	-0.040	-0.274
-407.311	283.873	-0.062	-0.111
-406.296	-163.780	0.205	0.010
-405.282	-200.000	0.277	-0.000
-404.267	-51.112	-0.038	0.018
-403.252	-50.519	0.175	0.082
-402.238	-82.054	-0.140	0.045
-401.223	-200.000	-0.015	-0.158
-400.209	132.241	-0.116	-0.148
-399.194	-143.363	-0.329	-0.031
-398.179	28.981	0.062	0.052
-397.165	168.914	-0.154	0.218
-396.150	233.969	0.147	0.240
-395.136	165.386	0.059	0.083
-394.121	-58.049	-0.320	-0.139
-393.106	-142.402	-0.093	0.009
-392.092	9.643	0.206	0.155
-391.077	-38.544	0.568	0.298
-390.063	-200.000	0.033	0.363
-389.048	-200.000	-0.026	-0.314
-388.033	800.000	-0.070	0.283
-387.019	-113.926	0.056	-0.011
-386.004	-122.624	-0.091	-0.015
-384.990	-77.395	-0.156	-0.054
-383.975	41.301	-0.050	0.045
-382.960	30.654	-0.195	0.166
-381.946	-108.359	-0.102	-0.022
-380.931	-48.808	-0.231	0.110
-379.917	-103.792	-0.180	0.042
-378.902	259.049	-0.049	-0.085
-377.888	341.143	-0.044	-0.086
-376.873	95.432	0.142	-0.161
-375.858	-200.000	-0.033	-0.585
-374.844	-90.915	0.104	0.030
-373.829	-200.000	-0.015	0.090
-372.815	-129.072	0.281	0.039
-371.800	431.919	0.036	-0.077
-370.785	81.728	-0.155	-0.166
-369.771	141.757	-0.306	-0.402
-368.756	-160.446	-0.059	0.003
-367.742	-43.539	0.274	0.138
-366.727	32.492	-0.132	-0.113
-365.712	634.947	0.045	-0.113
-364.698	-119.160	-0.371	-0.064
-363.683	-11.321	0.031	-0.020
-362.669	63.093	-0.400	-0.398
-361.654	0.740	0.204	-0.145
-360.639	-145.569	-0.310	-0.028
-359.625	-139.919	-0.083	0.009
-358.610	-200.000	-0.060	0.312
-357.596	-98.445	-0.152	-0.039
-356.581	-85.927	0.303	-0.093
-355.566	-200.000	0.002	0.079
-354.552	48.130	0.216	-0.201
-353.537	-105.754	0.060	0.014
-352.523	-163.822	-0.195	0.009
-351.508	-200.000	-0.014	-0.199
-350.493	800.000	0.016	0.044
-349.479	-134.653	-0.301	0.036
-348.464	130.852	-0.239	0.304
-347.450	-182.746	0.308	0.006
-346.435	74.403	0.340	0.354
-345.420	-39.965	-0.392	-0.203
-344.406	-200.000	0.030	0.207
-343.391	-48.933	0.112	0.053
-342.377	-200.000	-0.016	-0.506
-341.362	-23.600	-0.147	0.087
-340.348	800.000	-0.023	0.096
-339.333	186.109	-0.134	-0.197
-338.318	-200.000	-0.030	0.167
-337.304	800.000	-0.071	0.218
-336.289	152.853	0.125	0.170
-335.275	800.000	-0.088	-0.277
-334.260	800.000	-0.020	0.078
-333.245	-34.207	-0.135	-0.073
-332.231	204.646	-0.101	0.156
-331.216	-121.685	-0.212	-0.035
-330.202	-107.716	-0.072	-0.016
-329.187	191.524	-0.140	-0.209
-328.172	-200.000	0.074	0.455
-327.158	-200.000	0.080	0.393
-326.143	-18.167	-0.141	0.088
-325.129	-56.533	0.355	0.156
-324.114	800.000	-0.073	0.263
-323.099	800.000	0.051	-0.142
-322.085	800.000	-0.047	-0.154
-321.070	119.794	-0.101	-0.124
-320.056	-200.000	0.142	-0.001
-319.041	126.036	-0.078	-0.098
-318.026	-109.290	0.249	-0.052
-317.012	-123.316	0.372	0.059
-315.997	-112.604	-0.148	0.029
-314.983	-59.397	0.354	-0.151
-313.968	587.003	-0.079	0.194
-312.953	26.204	0.063	0.052
-311.939	-170.751	0.144	0.005
-310.924	-13.899	0.117	-0.075
-309.910	-6.827	-0.136	0.092
-308.895	35.161	0.035	0.030
-307.880	-64.429	-0.396	0.160
-306.866	-116.199	-0.140	-0.026
-305.851	23.048	0.204	-0.166
-304.837	231.759	-0.122	0.198
-303.822	-36.001	-0.381	-0.204
-302.807	4.033	-0.115	0.083
-301.793	-110.198	0.452	-0.093
-300.778	-150.626	-0.436	-0.033
-299.764	800.000	0.037	0.144
-298.749	-138.392	-0.302	0.033
-297.735	63.002	0.256	0.253
-296.720	2.955	0.207	0.149
-295.705	45.379	-0.114	0.104
-294.691	135.424	0.094	-0.121
-293.676	360.135	-0.167	-0.331
-292.662	124.360	-0.040	0.049
-291.647	-200.000	-0.019	0.108
-290.632	-29.423	-0.362	0.205
-289.618	-150.347	0.290	-0.022
-288.603	-60.727	-0.211	0.088
-287.589	-45.885	0.074	-0.036
-286.574	111.919	0.095	0.113
-285.559	800.000	-0.041	-0.132
-284.545	317.162	-0.042	-0.079
-283.530	-122.952	0.082	-0.013
-282.516	-19.102	0.061	-0.038
-281.501	157.136	0.169	-0.231
-280.486	381.218	-0.064	-0.130
-279.472	800.000	-0.019	0.061
-278.457	800.000	0.036	0.108
-277.443	-85.922	-0.220	-0.067
-276.428	229.558	-0.038	0.061
-275.413	800.000	0.073	-0.283
-274.399	800.000	0.044	-0.137
-273.384	-59.572	-0.207	-0.088
-272.370	800.000	-0.071	0.209
-271.355	298.443	0.142	-0.259
-270.340	-99.872	0.306	-0.076
-269.326	-148.746	0.422	-0.034
-268.311	-12.287	-0.249	-0.161
-267.297	84.842	0.101	0.109
-266.282	-164.717	-0.212	-0.009
-265.267	800.000	0.052	0.146
-264.253	48.953	0.193	-0.179
-263.238	-87.433	0.219	0.066
-262.224	-4.893	0.235	0.160
-261.209	588.001	0.064	0.155
-260.195	-152.195	0.047	-0.003
-259.180	-101.842	0.273	-0.065
-258.165	800.000	0.049	0.179
-257.151	-56.329	-0.064	-0.028
-256.136	-33.949	-0.228	-0.124
-255.122	714.490	-0.043	-0.112
-254.107	-143.995	0.156	-0.015
-253.092	-175.762	0.028	-0.001
-252.078	317.448	0.090	-0.168
-251.063	558.696	0.051	0.122
-250.049	-36.349	0.186	-0.099
-249.034	-33.987	-0.105	-0.057
-248.019	95.899	0.118	0.133
-247.005	431.598	0.081	0.174
-245.990	219.652	0.149	-0.236
-244.976	-128.268	0.326	-0.046
-243.961	800.000	-0.102	0.373
-242.946	-200.000	0.034	-0.349
-241.932	100.116	0.081	-0.093
-240.917	-120.237	0.313	-0.053
-239.903	-200.000	0.001	-0.118
-238.888	50.124	-0.209	0.195
-237.873	-135.951	-0.304	0.035
-236.859	-200.000	0.020	-0.206
-235.844	-121.478	-0.262	-0.043
-234.830	-200.000	0.027	0.261
-233.815	12.688	-0.117	0.089
-232.800	-200.000	-0.013	0.096
-231.786	-85.976	0.253	0.077
-230.771	47.232	0.091	0.084
-229.757	-200.000	0.032	-0.230
-228.742	-140.291	0.234	-0.024
-227.727	-135.225	0.030	0.004
-226.713	800.000	-0.086	0.289
-225.698	-200.000	0.027	0.134
-224.684	-71.664	-0.190	-0.070
-223.669	-200.000	0.027	0.347
-222.655	-200.000	-0.018	-0.225
-221.640	-200.000	-0.001	-0.110
-220.625	-31.508	-0.094	-0.052
-219.611	411.694	-0.078	0.163
-218.596	269.545	0.119	0.207
-217.582	-200.000	0.020	-0.086
-216.567	448.054	0.160	0.348
-215.552	734.739	-0.098	0.260
-214.538	800.000	-0.061	0.219
-213.523	-142.376	0.328	-0.032
-212.509	220.426	0.171	-0.271
-211.494	-200.000	0.000	0.218
-210.479	-78.888	-0.309	-0.104
-209.465	24.474	0.096	0.078
-208.450	-105.337	-0.214	-0.048
-207.436	-117.265	0.544	-0.097
-206.421	182.328	0.043	0.062
-205.406	-200.000	-0.000	-0.032
-204.392	-63.362	-0.563	0.228
-203.377	-193.309	-0.132	-0.001
-202.363	800.000	-0.035	0.146
-201.348	-122.331	0.103	-0.017
-200.333	-64.210	0.221	0.089
-199.319	-26.060	0.384	0.223
-198.304	202.789	0.134	0.204
-197.290	38.835	0.060	-0.053
-196.275	314.908	0.078	-0.145
-195.260	-107.916	-0.154	-0.033
-194.246	30.118	-0.057	0.048
-193.231	6.915	0.254	0.187
-192.217	-67.196	0.506	0.196
-191.202	26.945	-0.241	-0.199
-190.187	40.128	0.269	0.238
-189.173	97.995	-0.335	0.380
-188.158	-58.172	0.167	-0.072
-187.144	-26.923	0.231	0.133
-186.129	-135.954	-0.319	0.037
-185.114	-14.301	-0.048	-0.030
-184.100	-120.060	-0.311	-0.053
-183.085	-176.396	-0.379	0.010
-182.071	-137.195	0.230	0.026
-181.056	-173.390	0.247	-0.007
-180.042	76.982	-0.124	0.129
-179.027	-83.710	-0.026	0.008
-178.012	110.306	-0.230	-0.272
-176.998	-116.211	0.168	0.031
-175.983	-11.039	0.039	0.025
-174.969	274.853	-0.016	-0.028
-173.954	52.820	0.142	-0.133
-172.939	-27.588	0.221	0.126
-171.925	315.053	-0.141	0.262
-170.910	391.892	0.008	-0.016
-169.896	417.355	0.057	0.121
-168.881	-40.245	0.193	0.099
-167.866	800.000	-0.102	-0.409
-166.852	800.000	-0.076	0.255
-165.837	-97.319	0.143	0.037
-164.823	316.027	-0.053	0.098
-163.808	800.000	-0.032	0.124
-162.793	-9.661	-0.046	0.030
-161.779	-200.000	0.413	0.000
-160.764	10.319	0.102	0.076
-159.750	77.143	-0.159	0.167
-158.735	-16.397	0.361	-0.225
-157.720	718.550	-0.038	0.099
-156.706	800.000	0.050	-0.166
-155.691	-200.000	-0.003	-0.206
-154.677	536.150	-0.082	-0.192
-153.662	-187.248	-0.344	-0.005
-152.647	143.342	-0.219	-0.287
-151.633	-154.487	0.165	0.011
-150.618	-82.953	-0.183	0.058
-149.604	-200.000	-0.039	0.270
-148.589	-200.000	-0.017	-0.077
-147.574	-200.000	0.007	0.334
-146.560	-200.000	-0.027	0.120
-145.545	-166.552	-0.373	-0.015
-144.531	189.835	0.099	-0.146
-143.516	-46.590	0.237	-0.114
-142.502	-76.169	0.219	-0.076
-141.487	27.105	0.210	-0.173
-140.472	14.902	-0.169	0.130
-139.458	800.000	-0.043	-0.127
-138.443	-200.000	0.088	0.442
-137.429	800.000	0.086	0.291
-136.414	-52.009	0.072	-0.033
-135.399	-91.824	-0.185	0.052
-134.385	-79.932	-0.248	-0.082
-133.370	82.439	-0.125	0.133
-132.356	-70.178	0.328	-0.123
-131.341	25.298	0.259	0.212
-130.326	670.750	-0.087	-0.223
-129.312	800.000	-0.066	0.216
-128.297	-200.000	-0.031	-0.297
-127.283	640.420	-0.022	0.056
-126.268	487.365	0.105	0.235
-125.253	-200.000	0.024	0.222
-124.239	-53.919	0.062	0.028
-123.224	447.882	0.114	-0.246
-122.210	-50.689	0.141	-0.065
-121.195	-82.964	0.195	0.062
-120.180	104.874	-0.212	0.245
-119.166	379.377	-0.047	-0.094
-118.151	78.699	0.181	0.190
-117.137	-86.689	0.543	-0.163
-116.122	555.315	0.081	-0.192
-115.107	-200.000	-0.026	-0.320
-114.093	6.934	0.220	-0.161
-113.078	-200.000	-0.045	-0.239
-112.064	-86.141	0.274	-0.083
-111.049	-198.776	-0.136	0.001
-110.034	-109.945	-0.074	0.015
-109.020	800.000	0.013	0.049
-108.005	213.864	0.105	0.163
-106.991	-29.627	0.161	-0.090
-105.976	62.879	0.147	0.145
-104.962	-126.782	0.043	-0.006
-103.947	24.546	0.263	0.214
-102.932	20.815	-0.240	-0.191
-101.918	141.362	-0.020	-0.026
-100.903	88.184	0.131	0.143
-99.889	-31.303	0.150	-0.083
-98.874	-200.000	0.016	0.111
-97.859	105.064	0.224	0.259
-96.845	-53.087	0.318	0.143
-95.830	-152.066	-0.395	0.028
-94.816	800.000	-0.103	0.368
-93.801	-153.517	0.306	0.021
-92.786	-200.000	0.056	-0.257
-91.772	164.238	-0.133	-0.184
-90.757	416.761	0.183	0.384
-89.743	28.073	0.137	0.114
-88.728	-129.579	0.088	-0.012
-87.713	-40.964	0.161	-0.082
-86.699	-200.000	0.043	-0.387
-85.684	-46.742	-0.165	-0.080
-84.670	-35.195	0.079	0.042
-83.655	-117.859	-0.084	0.015
-82.640	-200.000	-0.001	0.078
-81.626	-162.600	-0.176	0.009
-80.611	64.017	-0.176	-0.174
-79.597	-200.000	0.033	-0.327
-78.582	-200.000	0.024	-0.246
-77.567	530.421	-0.060	-0.139
-76.553	-200.000	0.032	-0.398
-75.538	-133.208	0.255	0.032
-74.524	60.308	0.180	-0.175
-73.509	-17.518	-0.331	0.204
-72.494	-200.000	0.028	0.237
-71.480	-1.391	-0.128	0.088
-70.465	-122.210	0.111	0.018
-69.451	39.420	0.078	0.069
-68.436	176.946	-0.007	-0.011
-67.422	-106.581	0.158	0.034
-66.407	-200.000	0.048	0.220
-65.392	305.161	0.033	0.059
-64.378	-28.733	0.217	0.122
-63.363	-83.217	-0.233	-0.074
-62.349	-200.000	-0.001	0.067
-61.334	101.000	-1.151	-1.313
-60.319	151.725	0.482	0.644
-59.305	368.151	-0.400	-0.792
-58.290	193.958	0.904	1.342
-57.276	633.183	0.675	1.677
-56.261	-200.000	106.378	615.042
-55.246	504.038	1510.835	3427.393
-54.232	174.497	2711.952	3844.875
-53.217	104.105	2301.524	2653.201
-52.203	38.487	1905.566	1665.255
-51.188	32.495	1691.977	1433.101
-50.173	29.896	1648.219	1376.682
-49.159	49.224	1701.521	1567.739
-48.144	49.312	1717.492	1583.061
-47.130	32.195	1674.380	1415.712
-46.115	29.542	1659.942	1383.598
-45.100	29.305	1654.785	1377.480
-44.086	29.354	1651.833	1375.331
-43.071	29.239	1649.917	1372.823
-42.057	29.205	1647.398	1370.417
-41.042	29.368	1644.686	1369.323
-40.027	29.268	1643.401	1367.454
-39.013	29.326	1641.116	1365.927
-37.998	29.241	1639.705	1364.072
-36.984	29.309	1638.527	1363.540
-35.969	29.427	1636.710	1362.846
-34.954	29.450	1635.043	1361.569
-33.940	29.374	1633.948	1360.048
-32.925	29.468	1631.432	1358.593
-31.911	29.363	1630.245	1356.778
-30.896	29.385	1628.252	1355.223
-29.881	29.353	1626.695	1353.639
-28.867	29.445	1624.938	1352.796
-27.852	29.339	1623.906	1351.112
-26.838	29.382	1621.877	1349.683
-25.823	29.375	1621.271	1349.072
-24.809	29.520	1619.414	1348.533
-23.794	29.435	1617.964	1346.655
-22.779	29.442	1616.873	1345.743
-21.765	29.381	1615.381	1344.005
-20.750	29.410	1613.450	1342.556
-19.736	29.357	1612.349	1341.197
-18.721	29.522	1610.567	1340.860
-17.706	29.478	1608.943	1339.138
-16.692	29.325	1608.383	1337.509
-15.677	29.404	1606.246	1336.251
-14.663	29.510	1604.984	1335.915
-13.648	29.474	1603.631	1334.474
-12.633	29.513	1601.958	1333.310
-11.619	29.322	1601.083	1331.152
-10.604	29.421	1599.254	1330.293
-9.590	29.470	1597.857	1329.431
-8.575	29.501	1596.374	1328.367
-7.560	29.455	1595.508	1327.260
-6.546	29.489	1594.901	1326.947
-5.531	29.386	1593.780	1325.223
-4.517	29.407	1592.699	1324.422
-3.502	29.424	1591.107	1323.167
-2.487	29.606	1589.370	1322.972
-1.473	29.166	1578.141	1310.447
-0.458	26.332	1559.172	1274.692
0.556	20.762	1560.319	1245.466
1.571	18.675	1584.291	1249.316
2.586	18.403	1597.913	1257.948
3.600	16.640	1546.047	1204.474
4.615	8.854	1436.223	1067.152
5.629	1.288	1372.270	971.263
6.644	-0.061	1364.100	956.809
7.659	-0.286	1363.556	954.908
8.673	-0.234	1361.786	953.920
9.688	-0.289	1359.879	952.150
10.702	-0.397	1356.777	949.209
11.717	3.166	1364.025	976.843
12.731	12.474	1381.877	1049.184
13.746	19.817	1394.105	1105.476
14.761	21.925	1396.602	1120.836
15.775	22.283	1396.478	1122.926
16.790	22.145	1396.743	1122.157
17.804	22.395	1395.246	1122.446
18.819	22.580	1395.412	1123.666
19.834	22.577	1395.077	1123.276
20.848	22.660	1394.003	1122.838
21.863	22.630	1393.191	1121.897
22.877	22.595	1392.386	1120.925
23.892	22.625	1391.747	1120.503
24.907	22.691	1390.616	1119.913
25.921	22.578	1390.449	1118.959
26.936	22.619	1388.542	1117.588
27.950	22.733	1387.384	1117.278
28.965	22.771	1386.158	1116.433
29.980	22.772	1384.965	1115.376
30.994	22.711	1384.298	1114.361
32.009	22.743	1382.958	1113.385
33.023	22.626	1381.960	1111.744
34.038	22.717	1380.869	1111.342
35.053	22.736	1380.070	1110.716
36.067	22.763	1378.505	1109.531
37.082	22.651	1378.274	1108.544
38.096	22.601	1377.583	1107.572
39.111	22.631	1376.566	1106.846
40.126	22.615	1376.014	1106.205
41.140	22.712	1374.725	1105.679
42.155	22.588	1375.123	1105.121
43.169	22.645	1374.943	1105.237
44.184	22.662	1374.312	1104.740
45.199	22.639	1374.459	1104.614
46.213	22.644	1373.418	1103.714
47.228	22.658	1372.842	1103.239
48.242	22.700	1371.183	1102.073
49.257	22.631	1370.195	1100.750
50.271	22.681	1368.831	1099.866
51.286	22.692	1367.132	1098.477
52.301	22.746	1365.968	1097.778
53.315	22.688	1364.969	1096.518
54.330	22.788	1364.111	1096.351
55.344	22.761	1363.036	1095.222
56.359	22.670	1362.096	1093.806
57.374	22.680	1361.034	1092.920
58.388	22.679	1360.532	1092.410
59.403	22.664	1360.445	1092.151
60.417	22.681	1359.724	1091.581
61.432	22.676	1358.900	1090.795
62.447	22.686	1358.230	1090.223
63.461	22.736	1356.490	1089.035
64.476	22.779	1356.005	1088.818
65.490	22.629	1354.921	1086.922
66.505	22.628	1353.354	1085.567
67.520	22.751	1351.918	1085.074
68.534	22.773	1350.880	1084.283
69.549	22.703	1350.275	1083.272
70.563	22.708	1349.501	1082.584
71.578	22.721	1348.273	1081.580
72.593	22.683	1347.860	1080.920
73.607	22.665	1347.064	1080.076
74.622	22.766	1346.089	1079.821
75.636	22.720	1345.400	1078.887
76.651	22.730	1344.757	1078.336
77.666	22.768	1343.797	1077.705
78.680	22.770	1343.409	1077.310
79.695	22.683	1342.854	1076.238
80.709	22.628	1342.296	1075.364
81.724	22.631	1341.369	1074.544
82.739	22.761	1339.964	1074.114
83.753	22.748	1339.014	1073.180
84.768	22.675	1337.835	1071.693
85.782	22.802	1336.415	1071.236
86.797	22.765	1335.457	1070.146
87.812	22.695	1334.680	1069.004
88.826	22.765	1333.647	1068.509
89.841	22.753	1332.659	1067.545
90.855	22.778	1331.468	1066.648
91.870	22.764	1330.744	1065.894
92.884	22.815	1329.652	1065.233
93.899	22.721	1329.239	1064.240
94.914	22.815	1328.471	1064.096
95.928	22.745	1328.396	1063.519
96.943	22.825	1326.860	1062.674
97.957	22.797	1326.439	1062.075
98.972	22.748	1325.667	1061.070
99.987	22.741	1324.325	1059.863
101.001	22.713	1323.654	1059.061
102.016	22.800	1322.703	1058.729
103.030	22.786	1321.437	1057.541
104.045	22.836	1320.753	1057.195
105.060	22.823	1319.983	1056.407
106.074	22.830	1318.878	1055.470
107.089	22.876	1317.264	1054.363
108.103	22.752	1316.818	1053.170
109.118	22.849	1315.562	1052.654
110.133	22.948	1314.402	1052.219
111.147	22.917	1312.933	1050.766
112.162	22.880	1312.210	1049.877
113.176	22.821	1311.275	1048.686
114.191	22.787	1310.607	1047.853
115.206	22.880	1309.257	1047.237
116.220	22.929	1308.254	1046.633
117.235	22.864	1307.653	1045.673
118.249	22.837	1306.552	1044.542
119.264	22.824	1305.679	1043.671
120.279	22.846	1304.987	1043.158
121.293	22.932	1303.842	1042.656
122.308	22.924	1303.248	1042.042
123.322	22.834	1302.350	1040.700
124.337	22.865	1301.500	1040.115
125.352	23.055	1299.996	1039.937
126.366	22.825	1299.626	1038.198
127.381	22.960	1299.006	1038.404
128.395	22.867	1297.968	1036.935
129.410	22.975	1296.805	1036.550
130.424	23.044	1295.884	1036.124
131.439	22.892	1295.004	1034.437
132.454	22.831	1294.729	1033.770
133.468	22.910	1293.796	1033.397
134.483	22.776	1293.851	1032.567
135.497	22.882	1292.139	1031.726
136.512	22.954	1291.418	1031.480
137.527	22.980	1290.109	1030.496
138.541	22.902	1288.787	1028.891
139.556	22.894	1287.826	1027.988
140.570	22.894	1286.728	1027.022
141.585	22.838	1285.615	1025.715
142.600	22.813	1284.524	1024.609
143.614	22.824	1283.769	1023.980
144.629	22.827	1282.681	1023.040
145.643	22.855	1281.319	1022.025
146.658	22.814	1280.559	1021.093
147.673	22.766	1279.682	1020.027
148.687	22.768	1278.986	1019.390
149.702	22.800	1277.840	1018.571
150.716	22.790	1276.907	1017.681
151.731	22.846	1275.390	1016.706
152.746	22.857	1274.456	1015.932
153.760	22.828	1273.422	1014.852
154.775	22.816	1272.380	1013.863
155.789	22.884	1271.347	1013.342
156.804	22.886	1270.428	1012.532
157.819	22.869	1269.890	1011.913
158.833	23.008	1268.630	1011.616
159.848	22.948	1268.280	1010.901
160.862	22.904	1267.533	1009.969
161.877	22.966	1266.767	1009.623
162.892	22.988	1265.579	1008.708
163.906	22.952	1264.895	1007.868
164.921	23.068	1263.984	1007.718
165.935	22.985	1263.882	1007.076
166.950	23.017	1262.893	1006.381
167.964	23.036	1262.431	1006.027
168.979	23.020	1262.256	1005.713
169.994	23.116	1260.927	1005.109
171.008	23.141	1260.404	1004.742
172.023	23.078	1259.572	1003.637
173.037	23.030	1259.397	1003.135
174.052	23.064	1258.071	1002.182
175.067	23.039	1257.391	1001.410
176.081	23.069	1256.871	1001.077
177.096	23.044	1256.196	1000.309
178.110	23.024	1254.856	999.042
179.125	23.071	1253.949	998.498
180.140	23.105	1253.131	997.949
181.154	23.070	1251.354	996.248
182.169	23.047	1250.773	995.568
183.183	23.062	1249.794	994.783
184.198	23.101	1248.486	993.875
185.213	23.062	1248.097	993.258
186.227	23.152	1246.901	992.722
187.242	23.008	1246.723	991.685
188.256	23.147	1245.087	991.076
189.271	23.207	1244.507	990.863
190.286	23.088	1243.918	989.639
191.300	23.066	1243.340	988.970
192.315	23.026	1243.014	988.398
193.329	23.088	1242.341	988.119
194.344	23.204	1241.616	988.103
195.359	23.124	1241.494	987.474
196.373	23.193	1241.044	987.415
197.388	23.060	1240.579	986.216
198.402	23.053	1239.922	985.568
199.417	23.008	1239.958	985.257
200.432	23.140	1238.768	984.962
201.446	23.191	1238.080	984.606
202.461	23.043	1237.693	983.392
203.475	23.199	1236.756	983.426
204.490	23.141	1235.382	981.923
205.504	23.087	1234.855	981.120
206.519	23.232	1233.997	981.152
207.534	23.227	1232.660	979.979
208.548	23.179	1231.810	978.947
209.563	23.170	1230.835	978.036
210.577	23.157	1230.327	977.477
211.592	23.176	1229.088	976.507
212.607	23.293	1228.774	976.821
213.621	23.288	1227.843	975.964
214.636	23.282	1227.181	975.320
215.650	23.215	1226.597	974.403
216.665	23.241	1225.664	973.715
217.680	23.193	1224.797	972.676
218.694	23.204	1224.024	972.039
219.709	23.278	1223.488	971.929
220.723	23.177	1222.891	970.820
221.738	23.227	1221.538	969.928
222.753	23.234	1221.089	969.528
223.767	23.282	1220.560	969.283
224.782	23.367	1219.938	969.172
225.796	23.335	1219.443	968.518
226.811	23.294	1218.806	967.699
227.826	23.223	1218.403	966.904
228.840	23.288	1217.586	966.525
229.855	23.256	1217.198	965.959
230.869	23.368	1216.239	965.723
231.884	23.310	1215.598	964.811
232.899	23.389	1214.484	964.275
233.913	23.348	1214.084	963.649
234.928	23.518	1213.565	964.073
235.942	23.384	1213.063	962.861
236.957	23.458	1212.145	962.452
237.972	23.369	1211.379	961.273
238.986	23.441	1210.875	961.180
240.001	23.268	1210.963	960.224
241.015	23.508	1209.364	960.172
242.030	23.506	1208.889	959.700
243.045	23.565	1207.809	959.074
244.059	23.560	1207.125	958.422
245.074	23.575	1206.569	957.976
246.088	23.602	1205.624	957.284
247.103	23.588	1205.014	956.641
248.117	23.547	1204.183	955.675
249.132	23.528	1203.620	955.045
250.147	23.560	1202.527	954.264
251.161	23.646	1201.727	954.007
252.176	23.649	1201.022	953.377
253.190	23.545	1200.613	952.412
254.205	23.663	1200.015	952.487
255.220	23.621	1199.438	951.717
256.234	23.707	1198.892	951.661
257.249	23.672	1197.935	950.628
258.263	23.681	1197.598	950.326
259.278	23.560	1197.272	949.339
260.293	23.628	1197.102	949.481
261.307	23.675	1195.936	948.721
262.322	23.561	1195.556	947.729
263.336	23.629	1195.209	947.732
264.351	23.584	1194.314	946.699
265.366	23.586	1193.878	946.280
266.380	23.616	1193.173	945.800
267.395	23.764	1191.282	945.005
268.409	23.640	1191.428	944.375
269.424	23.555	1191.455	943.861
270.439	23.746	1190.675	944.174
271.453	23.734	1189.930	943.437
272.468	23.682	1189.101	942.418
273.482	23.701	1188.219	941.739
274.497	23.812	1187.358	941.562
275.512	23.740	1187.474	941.187
276.526	23.768	1186.298	940.319
277.541	23.839	1185.655	940.103
278.555	23.804	1185.274	939.533
279.570	23.776	1184.684	938.833
280.585	23.813	1183.582	938.072
281.599	23.835	1182.750	937.448
282.614	23.711	1182.020	936.133
283.628	23.785	1181.028	935.655
284.643	23.857	1180.385	935.441
285.657	23.830	1178.879	934.024
286.672	23.774	1178.637	933.454
287.687	23.811	1177.967	933.035
288.701	23.860	1177.419	932.773
289.716	23.852	1176.421	931.860
290.730	23.929	1175.805	931.694
291.745	23.773	1175.726	930.731
292.760	23.705	1175.127	929.819
293.774	23.762	1174.393	929.455
294.789	23.931	1173.893	929.861
295.803	23.860	1173.180	928.842
296.818	23.971	1172.207	928.570
297.833	24.040	1171.739	928.475
298.847	24.022	1171.040	927.744
299.862	24.117	1169.833	927.201
300.876	24.043	1169.579	926.532
301.891	24.051	1169.083	926.102
302.906	23.920	1168.456	924.842
303.920	24.103	1167.618	925.046
304.935	24.004	1167.039	923.993
305.949	23.942	1166.717	923.334
306.964	23.980	1165.741	922.677
307.979	24.054	1164.650	922.112
308.993	24.226	1164.101	922.488
310.008	23.965	1163.809	920.823
311.022	24.094	1163.066	920.823
312.037	24.171	1162.117	920.385
313.052	24.170	1160.955	919.380
314.066	24.086	1160.327	918.369
315.081	24.078	1159.914	917.917
316.095	24.120	1159.121	917.424
317.110	24.183	1158.584	917.242
318.125	24.197	1158.002	916.773
319.139	24.152	1157.515	916.077
320.154	24.091	1156.929	915.220
321.168	24.229	1156.125	915.211
322.183	24.194	1155.552	914.498
323.197	24.119	1155.095	913.670
324.212	24.266	1154.514	913.883
325.227	24.232	1154.246	913.411
326.241	24.270	1153.550	912.974
327.256	24.137	1152.582	911.448
328.270	24.226	1151.821	911.221
329.285	24.264	1151.032	910.710
330.300	24.230	1150.343	909.914
331.314	24.346	1149.202	909.518
332.329	24.390	1148.315	908.964
333.343	24.362	1147.859	908.379
334.358	24.306	1146.896	907.250
335.373	24.274	1146.357	906.583
336.387	24.318	1145.954	906.408
337.402	24.309	1145.105	905.609
338.416	24.295	1144.345	904.857
339.431	24.394	1144.023	905.022
340.446	24.353	1143.567	904.375
341.460	24.398	1142.563	903.729
342.475	24.500	1141.590	903.396
343.489	24.505	1140.620	902.574
344.504	24.454	1139.298	901.191
345.519	24.493	1138.762	900.885
346.533	24.433	1138.244	900.092
347.548	24.383	1137.789	899.399
348.562	24.508	1136.872	899.226
349.577	24.544	1136.414	898.966
350.592	24.354	1135.423	897.146
351.606	24.416	1134.585	896.714
352.621	24.465	1134.051	896.459
353.635	24.415	1133.801	895.929
354.650	24.601	1132.920	896.091
355.665	24.589	1132.171	895.357
356.679	24.604	1131.556	894.865
357.694	24.485	1131.509	894.154
358.708	24.583	1130.318	893.622
359.723	24.592	1129.883	893.246
360.738	24.579	1129.000	892.404
361.752	24.585	1128.594	892.036
362.767	24.555	1128.236	891.525
363.781	24.589	1127.723	891.210
364.796	24.753	1126.859	891.265
365.810	24.605	1126.688	890.310
366.825	24.697	1125.840	890.023
367.840	24.797	1125.302	890.015
368.854	24.800	1124.517	889.330
369.869	24.686	1124.114	888.368
370.883	24.832	1123.006	888.139
371.898	24.854	1122.236	887.556
372.913	24.735	1121.764	886.516
373.927	24.739	1121.661	886.377
374.942	24.740	1120.890	885.692
375.956	24.775	1120.505	885.485
376.971	24.824	1119.639	884.965
377.986	24.919	1119.033	884.875
379.000	24.948	1118.650	884.639
380.015	24.720	1118.252	883.121
381.029	24.962	1117.580	883.704
382.044	24.933	1116.671	882.763
383.059	24.807	1116.198	881.692
384.073	24.935	1115.176	881.436
385.088	25.088	1114.270	881.396
386.102	24.833	1113.792	879.688
387.117	24.894	1113.107	879.367
388.132	24.911	1111.823	878.358
389.146	24.903	1111.370	877.883
390.161	25.028	1110.652	877.849
391.175	24.895	1110.433	876.947
392.190	24.945	1109.739	876.569
393.205	25.019	1108.622	875.968
394.219	25.034	1107.915	875.406
395.234	25.045	1107.182	874.802
396.248	25.031	1106.073	873.780
397.263	24.936	1105.649	872.905
398.278	25.090	1105.196	873.222
399.292	25.155	1104.269	872.729
400.307	25.047	1103.925	871.852
401.321	25.157	1103.006	871.587
402.336	25.063	1102.581	870.715
403.350	25.060	1101.705	869.931
404.365	25.066	1101.453	869.688
405.380	25.202	1100.570	869.569
406.394	25.231	1099.680	868.930
407.409	25.199	1099.011	868.169
408.423	25.289	1098.316	867.983
409.438	25.316	1097.571	867.445
410.453	25.417	1096.735	867.197
411.467	25.190	1096.344	865.713
412.482	25.237	1095.693	865.352
413.496	25.331	1094.625	864.884
414.511	25.252	1094.214	864.101
415.526	25.259	1094.361	864.174
416.540	25.209	1093.755	863.381
417.555	25.221	1093.088	862.835
418.569	25.287	1092.682	862.753
419.584	25.460	1091.954	862.935
420.599	25.381	1091.829	862.380
421.613	147.635	1404.985	1798.506
422.628	136.581	1450.593	1798.582
