DTS Sentinel unit serial number:	SN413079Multiplexer serial number:	ORYXHardware model number:	OX4-SRSoftware version number:	ORYX F/W v4.00 Oryx Data Collector v3.7.2.0data status	okinstallation	princeton_trtdifferential loss correction	single-endedforward channel	channel 2reverse channel	N/Adate	2019/09/12time	09:13:11forward acquisition time	60.00reverse acquisition time	0.00gamma	496.2192k internal	0.2316k external	0.2316temperature offset calibration	1.0062default loss term (dB/km)	0.3790temperature slope calibration	1.0000multiplexer offset coefficient	1.0000multiplexer slope coefficient	1.0000fibre end	0.00T internal ref (°C)	34.72T ext. ref 1 (°C)	1.80T ext. ref 2 (°C)	33.09length (m)	temperature (°C)	Stokes	anti-Stokes-747.200	-200.000	-0.065	0.378
-746.185	800.000	-0.027	0.087
-745.171	-184.788	-0.106	0.002
-744.156	800.000	-0.094	0.285
-743.142	-96.799	-0.135	0.036
-742.127	-6.114	-0.057	0.039
-741.112	-164.859	-0.158	-0.007
-740.098	202.596	0.085	0.133
-739.083	55.446	-0.116	0.114
-738.069	43.432	0.296	0.274
-737.054	194.258	0.022	0.033
-736.039	-76.367	-0.128	-0.045
-735.025	-158.474	0.394	-0.023
-734.010	196.450	-0.153	-0.235
-732.996	196.037	-0.182	-0.280
-731.981	-7.566	0.388	0.266
-730.966	149.994	-0.003	-0.004
-729.952	-59.089	-0.256	0.112
-728.937	300.510	-0.163	-0.305
-727.923	-75.334	-0.255	-0.092
-726.908	-170.860	-0.524	0.018
-725.894	63.025	0.051	-0.051
-724.879	59.717	0.182	0.182
-723.864	-200.000	-0.035	-0.198
-722.850	52.204	-0.201	0.194
-721.835	-54.296	-0.119	0.055
-720.821	377.244	0.117	-0.243
-719.806	-200.000	-0.003	0.036
-718.791	-112.716	-0.270	0.054
-717.777	623.054	0.033	-0.084
-716.762	20.103	-0.177	-0.144
-715.748	-48.672	-0.117	-0.057
-714.733	1.802	0.147	-0.107
-713.718	-5.278	-0.215	-0.149
-712.704	-200.000	0.010	-0.181
-711.689	-200.000	-0.006	0.106
-710.675	-140.208	-0.342	0.036
-709.660	-135.100	0.295	0.036
-708.645	-28.766	-0.280	0.163
-707.631	-177.379	0.122	-0.003
-706.616	-133.254	-0.186	-0.024
-705.602	777.452	0.099	0.274
-704.587	-168.974	-0.092	-0.003
-703.572	-30.647	-0.132	-0.075
-702.558	-8.048	-0.228	0.156
-701.543	9.623	-0.127	-0.098
-700.529	-136.048	-0.122	-0.014
-699.514	-80.573	0.322	-0.108
-698.499	800.000	-0.086	0.378
-697.485	-75.741	-0.202	-0.072
-696.470	-38.744	-0.355	-0.190
-695.456	800.000	-0.117	-0.458
-694.441	-1.822	-0.049	-0.035
-693.426	79.359	-0.117	0.127
-692.412	800.000	0.062	-0.234
-691.397	124.145	0.130	0.166
-690.383	-87.239	-0.125	-0.038
-689.368	-8.179	0.241	0.164
-688.354	-29.807	-0.053	-0.031
-687.339	-46.739	-0.200	-0.099
-686.324	800.000	-0.048	0.178
-685.310	800.000	0.019	0.066
-684.295	-124.120	-0.232	-0.037
-683.281	800.000	-0.052	0.190
-682.266	-200.000	0.005	-0.049
-681.251	800.000	0.058	0.213
-680.237	-41.211	0.284	0.148
-679.222	-105.303	0.185	-0.043
-678.208	-200.000	-0.030	-0.236
-677.193	-70.200	0.070	-0.027
-676.178	-19.721	0.146	0.091
-675.164	364.170	-0.178	0.361
-674.149	-110.669	-0.150	0.031
-673.135	114.363	-0.025	0.031
-672.120	-200.000	-0.018	-0.271
-671.105	-126.971	0.196	0.029
-670.091	800.000	-0.020	0.087
-669.076	-107.714	-0.383	-0.084
-668.062	-59.580	-0.077	0.033
-667.047	206.047	-0.135	-0.213
-666.032	-136.836	0.146	0.017
-665.018	526.447	-0.089	-0.212
-664.003	698.258	0.084	0.223
-662.989	-200.000	-0.003	0.156
-661.974	103.334	0.119	-0.141
-660.959	71.062	0.213	-0.223
-659.945	-124.013	-0.182	0.029
-658.930	-28.954	-0.134	0.078
-657.916	389.138	-0.085	0.179
-656.901	-200.000	-0.005	0.232
-655.886	106.250	-0.107	0.128
-654.872	-38.091	-0.489	-0.262
-653.857	118.035	-0.037	-0.047
-652.843	-200.000	0.045	0.000
-651.828	800.000	0.055	-0.205
-650.814	124.821	0.119	0.151
-649.799	800.000	0.053	-0.154
-648.784	0.503	-0.150	-0.108
-647.770	16.291	0.113	-0.090
-646.755	-135.315	0.293	0.035
-645.741	113.865	0.324	-0.397
-644.726	-200.000	0.044	-0.522
-643.711	-59.937	0.113	-0.049
-642.697	-185.603	-0.151	-0.002
-641.682	-16.433	0.284	-0.182
-640.668	-200.000	0.016	-0.095
-639.653	-200.000	0.027	-0.174
-638.638	-128.464	-0.365	0.052
-637.624	800.000	-0.007	0.029
-636.609	-200.000	0.010	0.048
-635.595	743.623	-0.014	0.039
-634.580	-84.473	0.272	-0.087
-633.565	327.587	0.160	-0.310
-632.551	800.000	-0.025	0.076
-631.536	-78.835	0.112	0.038
-630.522	-5.656	-0.233	0.161
-629.507	-200.000	0.001	-0.011
-628.492	-75.497	0.197	-0.071
-627.478	-99.073	0.301	-0.077
-626.463	-200.000	-0.080	-0.362
-625.449	-3.604	-0.089	-0.062
-624.434	127.831	0.036	0.046
-623.419	295.683	0.103	-0.190
-622.405	800.000	-0.078	0.236
-621.390	-59.182	0.336	-0.146
-620.376	-30.511	-0.426	0.243
-619.361	-200.000	-0.009	0.172
-618.346	-170.434	0.095	-0.003
-617.332	-71.447	-0.180	-0.068
-616.317	0.108	-0.205	-0.147
-615.303	-62.891	-0.253	-0.105
-614.288	150.564	0.092	-0.125
-613.273	-189.889	0.202	-0.002
-612.259	-109.788	0.251	0.053
-611.244	21.541	0.231	-0.189
-610.230	229.760	-0.038	-0.063
-609.215	434.552	-0.222	-0.487
-608.201	-6.398	0.282	0.194
-607.186	-49.422	-0.509	-0.244
-606.171	66.174	-0.166	-0.170
-605.157	77.763	-0.076	0.081
-604.142	-44.906	0.236	-0.118
-603.128	-56.602	-0.276	0.123
-602.113	421.569	0.159	0.344
-601.098	800.000	-0.055	-0.158
-600.084	174.579	0.087	-0.127
-599.069	608.037	-0.090	0.227
-598.055	-200.000	0.000	0.227
-597.040	-115.940	-0.300	-0.056
-596.025	-200.000	-0.070	-0.362
-595.011	-50.248	0.113	-0.054
-593.996	-200.000	-0.032	-0.270
-592.982	-200.000	-0.037	-0.242
-591.967	234.816	-0.096	-0.160
-590.952	800.000	0.054	-0.207
-589.938	266.073	0.163	-0.287
-588.923	800.000	-0.152	-0.434
-587.909	-90.268	-0.226	0.066
-586.894	-200.000	-0.021	-0.115
-585.879	800.000	0.093	-0.347
-584.865	-159.904	0.303	0.017
-583.850	-103.381	-0.055	-0.013
-582.836	800.000	0.065	-0.237
-581.821	73.062	0.087	0.092
-580.806	-200.000	-0.047	-0.250
-579.792	-48.877	-0.238	-0.115
-578.777	800.000	-0.052	0.156
-577.763	220.478	-0.118	0.190
-576.748	800.000	-0.056	0.189
-575.733	15.638	0.234	-0.185
-574.719	-71.079	-0.457	-0.173
-573.704	-154.614	-0.154	0.010
-572.690	467.815	-0.088	-0.198
-571.675	-32.136	0.080	0.045
-570.661	-85.826	-0.166	0.052
-569.646	127.143	0.188	-0.240
-568.631	-22.423	0.141	0.086
-567.617	-75.776	-0.320	-0.114
-566.602	-200.000	0.025	-0.332
-565.588	0.415	-0.107	-0.077
-564.573	-34.526	0.036	0.020
-563.558	-42.622	-0.209	-0.107
-562.544	-195.330	-0.149	0.001
-561.529	-155.089	-0.105	0.007
-560.515	247.963	-0.122	-0.208
-559.500	-31.757	-0.197	0.111
-558.485	-200.000	-0.055	0.284
-557.471	-123.459	-0.114	0.018
-556.456	-18.938	0.064	-0.040
-555.442	800.000	0.041	-0.140
-554.427	709.099	-0.045	0.121
-553.412	-149.614	-0.104	-0.008
-552.398	-20.364	0.146	0.090
-551.383	43.411	-0.195	0.179
-550.369	-132.072	-0.139	-0.018
-549.354	-35.914	0.064	0.035
-548.339	-200.000	-0.007	-0.167
-547.325	-5.712	-0.258	0.178
-546.310	-200.000	-0.033	0.191
-545.296	800.000	0.050	-0.193
-544.281	188.658	-0.078	0.117
-543.266	800.000	0.108	0.352
-542.252	-26.158	0.219	-0.129
-541.237	-200.000	-0.049	0.240
-540.223	-17.232	0.047	0.030
-539.208	800.000	0.011	0.041
-538.193	-62.235	0.083	-0.035
-537.179	-200.000	0.026	0.199
-536.164	28.072	0.354	0.300
-535.150	-100.129	0.100	-0.025
-534.135	19.336	-0.176	-0.142
-533.121	37.858	-0.035	0.032
-532.106	68.998	-0.034	-0.036
-531.091	227.622	0.117	0.191
-530.077	-31.926	-0.326	0.183
-529.062	-200.000	-0.080	0.406
-528.048	-79.026	-0.154	0.053
-527.033	32.647	-0.119	-0.103
-526.018	298.099	-0.177	0.327
-525.004	382.419	-0.100	-0.206
-523.989	-123.868	0.433	-0.069
-522.975	-6.735	-0.290	0.198
-521.960	-43.068	-0.529	-0.269
-520.945	-200.000	-0.014	-0.070
-519.931	76.147	-0.048	-0.051
-518.916	178.210	0.102	-0.149
-517.902	-119.755	-0.274	0.047
-516.887	-158.442	-0.177	0.010
-515.872	17.306	0.156	0.124
-514.858	-200.000	0.031	0.231
-513.843	-200.000	0.079	0.503
-512.829	29.168	0.175	0.149
-511.814	443.933	-0.147	-0.325
-510.799	52.620	0.135	-0.129
-509.785	409.415	0.154	-0.327
-508.770	-200.000	0.064	0.373
-507.756	-105.708	0.264	0.060
-506.741	-22.822	-0.288	0.175
-505.726	-137.422	-0.215	0.024
-504.712	-151.481	-0.023	-0.002
-503.697	-161.096	0.027	-0.001
-502.683	8.133	-0.286	0.215
-501.668	-200.000	-0.008	0.157
-500.653	102.939	-0.211	0.248
-499.639	14.002	-0.231	-0.180
-498.624	-12.605	0.229	-0.150
-497.610	374.179	0.058	-0.118
-496.595	-40.078	-0.304	0.159
-495.581	-200.000	-0.041	-0.392
-494.566	-10.664	0.207	0.137
-493.551	31.131	-0.047	0.041
-492.537	43.555	0.200	0.183
-491.522	-167.878	0.566	-0.022
-490.508	275.872	-0.113	0.201
-489.493	-125.098	0.095	0.015
-488.478	-200.000	0.033	-0.270
-487.464	445.454	-0.088	0.194
-486.449	-200.000	0.007	-0.285
-485.435	-88.830	-0.236	-0.070
-484.420	767.355	0.063	-0.171
-483.405	12.221	-0.227	0.176
-482.391	800.000	-0.069	-0.235
-481.376	-52.256	-0.168	-0.078
-480.362	-85.056	-0.281	-0.088
-479.347	-200.000	-0.038	0.487
-478.332	-200.000	-0.036	0.314
-477.318	-200.000	-0.020	-0.386
-476.303	176.293	0.148	-0.215
-475.289	-200.000	0.000	0.069
-474.274	-20.456	0.154	0.095
-473.259	54.835	-0.188	0.182
-472.245	-113.815	-0.219	0.043
-471.230	114.410	0.144	0.176
-470.216	382.249	-0.135	0.279
-469.201	-184.035	-0.270	0.005
-468.186	253.541	0.097	-0.167
-467.172	-119.365	0.391	0.068
-466.157	-200.000	0.021	-0.252
-465.143	752.238	-0.086	0.233
-464.128	-117.232	0.206	-0.037
-463.113	-26.568	0.104	-0.061
-462.099	-83.942	-0.121	0.039
-461.084	-88.222	0.355	0.106
-460.070	132.103	0.102	0.132
-459.055	756.650	-0.056	-0.152
-458.040	109.972	0.311	0.373
-457.026	800.000	0.093	-0.300
-456.011	13.228	-0.069	-0.053
-454.997	-200.000	0.326	0.000
-453.982	-28.791	0.097	0.056
-452.968	-69.989	0.097	0.037
-451.953	-200.000	-0.015	0.236
-450.938	35.414	-0.085	0.075
-449.924	-74.613	-0.122	-0.044
-448.909	197.956	-0.103	0.157
-447.895	63.680	0.123	0.123
-446.880	-176.420	-0.329	-0.009
-445.865	51.074	0.166	0.157
-444.851	3.454	-0.273	-0.199
-443.836	269.060	0.037	0.065
-442.822	-200.000	0.035	-0.178
-441.807	-200.000	-0.039	-0.264
-440.792	-141.475	0.342	-0.035
-439.778	-200.000	0.008	-0.140
-438.763	-200.000	-0.014	0.241
-437.749	31.667	-0.210	0.181
-436.734	-37.753	0.283	-0.151
-435.719	800.000	-0.048	0.159
-434.705	-200.000	-0.013	0.078
-433.690	-116.365	0.161	0.030
-432.676	57.524	0.210	0.205
-431.661	-146.582	0.190	0.017
-430.646	57.556	-0.144	0.141
-429.632	53.948	0.199	-0.191
-428.617	800.000	0.012	0.045
-427.603	-43.006	-0.128	-0.065
-426.588	-6.781	-0.030	0.021
-425.573	-200.000	0.014	0.136
-424.559	-51.597	-0.134	-0.063
-423.544	-67.957	-0.083	0.033
-422.530	-200.000	0.028	-0.234
-421.515	-200.000	0.014	-0.104
-420.500	800.000	-0.042	0.145
-419.486	-4.420	0.365	-0.252
-418.471	-53.576	-0.118	-0.054
-417.457	47.832	0.097	0.091
-416.442	-200.000	0.014	0.077
-415.428	-100.226	0.298	-0.074
-414.413	130.275	0.228	0.291
-413.398	292.909	0.169	-0.308
-412.384	-18.065	0.371	0.233
-411.369	-78.900	-0.258	-0.088
-410.355	-79.040	0.238	0.081
-409.340	-127.325	0.058	-0.008
-408.325	116.368	-0.075	0.092
-407.311	308.757	-0.208	-0.389
-406.296	317.936	-0.017	0.033
-405.282	64.768	0.096	0.097
-404.267	106.634	0.047	-0.055
-403.252	177.571	0.103	-0.150
-402.238	-148.038	-0.071	-0.006
-401.223	800.000	0.027	-0.096
-400.209	142.847	0.306	0.407
-399.194	352.984	0.179	-0.354
-398.179	-125.093	0.186	-0.029
-397.165	199.673	0.027	0.042
-396.150	739.987	0.136	0.366
-395.136	42.820	0.190	0.173
-394.121	57.748	-0.375	0.367
-393.106	521.226	-0.027	-0.064
-392.092	-134.719	0.216	-0.026
-391.077	-200.000	-0.029	0.137
-390.063	144.380	-0.050	-0.066
-389.048	800.000	-0.030	0.126
-388.033	178.109	-0.246	-0.359
-387.019	179.764	0.199	-0.292
-386.004	-85.385	-0.098	0.031
-384.990	477.178	0.011	0.025
-383.975	47.730	-0.152	0.142
-382.960	618.220	-0.061	-0.154
-381.946	-19.353	0.154	0.095
-380.931	130.482	-0.072	-0.092
-379.917	-5.946	0.038	0.026
-378.902	-200.000	0.005	-0.091
-377.888	-90.840	0.081	-0.023
-376.873	-131.140	-0.238	-0.032
-375.858	800.000	-0.193	-0.568
-374.844	243.640	0.122	0.204
-373.829	41.559	0.117	0.105
-372.815	-37.445	-0.117	-0.063
-371.800	36.503	-0.128	0.113
-370.785	-93.490	-0.192	-0.053
-369.771	67.948	0.088	0.090
-368.756	267.249	-0.146	-0.255
-367.742	136.544	-0.276	-0.360
-366.727	66.991	-0.144	0.147
-365.712	-200.000	-0.030	-0.139
-364.698	134.657	0.379	0.491
-363.683	243.407	-0.213	0.356
-362.669	54.397	-0.037	-0.035
-361.654	-200.000	-0.037	0.506
-360.639	800.000	-0.126	0.388
-359.625	10.858	0.097	-0.074
-358.610	347.269	-0.201	-0.395
-357.596	452.493	0.074	-0.163
-356.581	577.731	-0.134	0.327
-355.566	-200.000	-0.038	0.200
-354.552	256.529	-0.070	-0.119
-353.537	148.232	0.268	0.361
-352.523	-6.706	-0.147	0.100
-351.508	82.402	0.103	-0.112
-350.493	-135.793	0.048	-0.006
-349.479	-200.000	0.001	0.124
-348.464	487.208	-0.095	-0.216
-347.450	-200.000	-0.002	-0.013
-346.435	800.000	0.070	-0.202
-345.420	800.000	0.070	0.263
-344.406	-83.418	-0.246	-0.079
-343.391	219.293	-0.041	0.065
-342.377	-0.463	0.136	-0.096
-341.362	98.932	0.145	0.167
-340.348	87.153	-0.044	0.049
-339.333	103.684	-0.120	0.141
-338.318	129.334	0.218	0.278
-337.304	800.000	-0.162	-0.446
-336.289	126.067	0.096	-0.121
-335.275	-91.499	0.246	0.070
-334.260	636.565	-0.079	0.199
-333.245	379.258	-0.088	-0.179
-332.231	-200.000	0.063	0.332
-331.216	299.401	-0.089	-0.163
-330.202	-200.000	-0.025	-0.339
-329.187	-47.390	0.445	0.216
-328.172	-200.000	0.073	0.340
-327.158	800.000	-0.142	-0.492
-326.143	-200.000	-0.034	0.340
-325.129	-91.990	-0.393	-0.111
-324.114	-93.789	-0.186	-0.051
-323.099	272.490	-0.119	0.209
-322.085	-55.630	-0.179	0.080
-321.070	-200.000	-0.014	-0.144
-320.056	780.245	-0.074	-0.201
-319.041	-200.000	0.426	0.000
-318.026	40.313	-0.300	-0.269
-317.012	-137.020	-0.254	0.029
-315.997	640.819	-0.083	0.211
-314.983	220.501	-0.105	0.168
-313.968	-200.000	-0.056	0.266
-312.953	141.425	0.101	-0.134
-311.939	-77.559	-0.277	-0.096
-310.924	-60.999	0.211	-0.089
-309.910	-74.139	-0.133	0.048
-308.895	-82.331	-0.103	-0.033
-307.880	-200.000	-0.088	-0.510
-306.866	666.657	-0.126	-0.325
-305.851	-156.443	0.187	0.012
-304.837	-97.786	-0.182	0.047
-303.822	39.705	0.202	-0.180
-302.807	284.619	-0.074	-0.132
-301.793	275.432	-0.237	0.419
-300.778	103.689	0.394	0.460
-299.764	77.205	-0.044	0.047
-298.749	138.954	0.319	-0.418
-297.735	-200.000	0.005	0.152
-296.720	80.758	-0.222	0.238
-295.705	33.768	0.170	0.147
-294.691	207.411	0.243	0.377
-293.676	-77.751	0.145	0.050
-292.662	39.757	0.177	-0.158
-291.647	77.243	-0.101	0.106
-290.632	800.000	-0.102	0.287
-289.618	232.064	0.092	0.151
-288.603	-200.000	-0.069	0.405
-287.589	573.412	0.094	0.228
-286.574	-58.450	0.236	0.102
-285.559	-47.870	0.236	0.114
-284.545	-200.000	0.020	-0.276
-283.530	-130.243	0.225	-0.030
-282.516	253.408	0.208	-0.353
-281.501	-144.081	-0.074	0.007
-280.486	259.763	-0.180	-0.308
-279.472	800.000	0.037	-0.151
-278.457	-101.159	-0.387	0.094
-277.443	-200.000	0.104	0.454
-276.428	102.516	0.158	0.184
-275.413	-14.449	0.144	0.092
-274.399	-109.105	0.226	-0.048
-273.384	741.249	-0.167	-0.446
-272.370	40.803	-0.261	0.234
-271.355	-96.508	0.322	0.085
-270.340	-200.000	0.008	0.037
-269.326	-46.101	-0.261	-0.128
-268.311	-68.588	-0.257	-0.099
-267.297	258.582	0.127	-0.218
-266.282	-39.685	0.126	-0.066
-265.267	242.142	0.130	-0.215
-264.253	-156.546	0.104	-0.006
-263.238	-6.367	0.321	-0.218
-262.224	-4.403	0.399	0.274
-261.209	800.000	0.125	-0.403
-260.195	-63.557	0.137	0.056
-259.180	-200.000	-0.006	0.188
-258.165	-136.073	0.306	-0.036
-257.151	45.690	0.130	0.119
-256.136	-200.000	-0.014	-0.067
-255.122	-99.224	0.178	-0.045
-254.107	-200.000	-0.071	-0.413
-253.092	800.000	-0.049	-0.137
-252.078	577.046	-0.113	-0.274
-251.063	592.194	0.119	-0.292
-250.049	800.000	0.078	-0.251
-249.034	183.205	0.100	-0.146
-248.019	800.000	0.201	0.623
-247.005	-39.629	0.212	0.110
-245.990	477.058	-0.160	-0.359
-244.976	778.330	0.104	0.283
-243.961	-93.849	0.192	0.052
-242.946	-200.000	0.034	0.341
-241.932	-200.000	0.003	-0.084
-240.917	364.573	-0.074	-0.148
-239.903	61.974	0.081	-0.080
-238.888	800.000	-0.054	-0.211
-237.873	339.745	-0.025	-0.048
-236.859	59.874	0.118	0.116
-235.844	-50.746	-0.236	0.110
-234.830	-154.711	0.168	-0.011
-233.815	-13.002	-0.394	-0.255
-232.800	-155.843	0.177	0.011
-231.786	800.000	0.065	0.214
-230.771	99.536	0.073	-0.084
-229.757	439.624	-0.053	0.115
-228.742	-200.000	-0.002	0.161
-227.727	26.413	0.306	0.254
-226.713	-200.000	-0.026	-0.175
-225.698	270.804	-0.059	0.103
-224.684	800.000	0.036	-0.131
-223.669	-32.396	-0.155	-0.086
-222.655	176.981	-0.069	-0.100
-221.640	-200.000	0.013	-0.284
-220.625	736.637	-0.062	-0.166
-219.611	523.612	0.087	-0.203
-218.596	-144.492	0.359	-0.033
-217.582	454.753	-0.077	0.170
-216.567	-200.000	0.004	0.234
-215.552	247.525	-0.012	-0.020
-214.538	1.107	0.211	0.151
-213.523	-43.498	-0.306	0.153
-212.509	-29.293	0.192	-0.109
-211.494	84.258	0.205	0.222
-210.479	315.851	0.058	0.109
-209.465	-200.000	0.020	-0.094
-208.450	193.397	-0.112	0.168
-207.436	-53.694	0.188	-0.085
-206.421	-68.429	-0.257	-0.099
-205.406	279.311	0.152	-0.269
-204.392	-200.000	-0.012	-0.360
-203.377	83.550	-0.169	-0.183
-202.363	246.269	-0.110	0.183
-201.348	116.140	-0.186	0.226
-200.333	-66.124	0.248	0.098
-199.319	44.860	0.109	0.100
-198.304	-200.000	-0.001	0.074
-197.290	180.875	-0.044	-0.065
-196.275	-8.796	-0.156	0.104
-195.260	-30.010	0.175	-0.099
-194.246	-11.298	0.351	0.229
-193.231	192.715	-0.211	0.317
-192.217	-4.036	0.149	0.102
-191.202	266.624	-0.181	-0.313
-190.187	246.097	0.127	-0.212
-189.173	-88.778	-0.109	0.032
-188.158	-200.000	0.022	-0.120
-187.144	-200.000	0.000	0.127
-186.129	163.364	0.087	-0.121
-185.114	-93.282	0.158	-0.043
-184.100	-104.883	0.285	0.065
-183.085	-92.989	0.312	0.086
-182.071	-16.257	-0.123	-0.078
-181.056	202.684	-0.096	0.146
-180.042	257.023	0.060	0.102
-179.027	-86.678	0.321	0.097
-178.012	752.421	0.113	0.303
-176.998	27.767	-0.210	0.175
-175.983	-173.456	-0.305	0.009
-174.969	-55.714	-0.251	0.111
-173.954	25.079	-0.332	0.273
-172.939	-89.902	0.366	0.106
-171.925	-45.368	-0.199	0.098
-170.910	-86.573	-0.313	-0.095
-169.896	-200.000	-0.003	0.114
-168.881	-67.710	-0.136	-0.053
-167.866	800.000	-0.191	-0.526
-166.852	800.000	0.126	0.496
-165.837	-200.000	-0.202	0.001
-164.823	-134.308	-0.157	-0.019
-163.808	-88.419	0.113	-0.033
-162.793	151.474	-0.280	0.378
-161.779	-71.092	-0.318	-0.118
-160.764	-78.428	-0.095	-0.032
-159.750	-200.000	-0.013	0.188
-158.735	-54.554	-0.104	0.047
-157.720	-164.621	-0.184	-0.008
-156.706	100.777	0.073	0.084
-155.691	-85.242	-0.226	0.070
-154.677	-165.409	-0.183	-0.008
-153.662	465.617	0.116	-0.257
-152.647	31.698	-0.213	0.182
-151.633	192.181	-0.075	-0.113
-150.618	512.711	0.103	-0.237
-149.604	-111.873	0.501	-0.100
-148.589	800.000	0.101	0.290
-147.574	800.000	-0.111	0.361
-146.560	125.971	-0.236	-0.296
-145.545	494.736	-0.154	-0.350
-144.531	344.375	-0.059	-0.115
-143.516	159.299	-0.100	0.138
-142.502	41.002	-0.243	0.217
-141.487	216.399	0.114	0.179
-140.472	146.831	0.123	-0.164
-139.458	-3.316	0.065	0.045
-138.443	800.000	0.025	-0.087
-137.429	618.300	-0.156	-0.387
-136.414	800.000	-0.087	-0.266
-135.399	-200.000	0.054	0.274
-134.385	528.283	0.210	0.491
-133.370	16.085	0.130	0.101
-132.356	-104.205	-0.295	-0.068
-131.341	30.504	-0.192	0.162
-130.326	-89.517	-0.024	-0.007
-129.312	226.316	0.143	0.229
-128.297	166.110	0.303	0.424
-127.283	62.367	0.144	-0.142
-126.268	-200.000	-0.004	-0.052
-125.253	134.282	0.111	-0.142
-124.239	-9.722	-0.083	0.055
-123.224	800.000	0.057	0.209
-122.210	-115.293	0.294	-0.055
-121.195	444.783	0.155	0.336
-120.180	-133.827	0.045	0.006
-119.166	208.532	0.096	0.148
-118.151	8.875	-0.116	-0.087
-117.137	-200.000	0.029	0.225
-116.122	359.483	0.205	-0.406
-115.107	-40.829	-0.140	0.071
-114.093	-200.000	-0.062	-0.336
-113.078	283.263	-0.121	-0.215
-112.064	800.000	-0.024	-0.094
-111.049	5.806	-0.185	0.135
-110.034	-200.000	-0.003	-0.258
-109.020	800.000	-0.057	0.178
-108.005	188.090	-0.141	0.209
-106.991	153.056	-0.069	0.093
-105.976	760.398	-0.018	0.049
-104.962	-87.289	0.268	0.080
-103.947	-47.162	0.287	-0.138
-102.932	-74.192	0.131	-0.047
-101.918	25.269	0.091	-0.075
-100.903	147.282	-0.023	-0.031
-99.889	-48.446	0.219	0.104
-98.874	800.000	0.058	-0.195
-97.859	51.777	0.156	0.147
-96.845	55.989	0.207	-0.199
-95.830	30.319	0.069	0.058
-94.816	29.117	0.202	-0.169
-93.801	-35.692	0.300	-0.161
-92.786	447.251	-0.069	-0.150
-91.772	107.343	0.308	0.361
-90.757	86.547	0.133	-0.145
-89.743	-16.376	-0.067	0.042
-88.728	-200.000	-0.023	0.234
-87.713	30.281	0.110	0.093
-86.699	101.201	0.040	0.046
-85.684	36.147	-0.251	-0.218
-84.670	-171.481	0.382	0.013
-83.655	-64.914	0.149	-0.060
-82.640	-50.039	0.168	0.079
-81.626	208.768	0.210	-0.325
-80.611	-104.690	0.055	-0.013
-79.597	-200.000	0.049	-0.299
-78.582	123.201	-0.199	-0.245
-77.567	-72.318	0.190	0.070
-76.553	-66.440	-0.250	0.098
-75.538	-167.680	0.135	-0.005
-74.524	800.000	0.051	-0.192
-73.509	-35.298	-0.393	0.211
-72.494	-32.746	0.256	0.140
-71.480	-57.395	0.250	0.108
-70.465	-145.481	0.180	-0.016
-69.451	-200.000	0.000	0.088
-68.436	62.547	0.264	-0.261
-67.422	-49.613	0.182	-0.086
-66.407	-200.000	0.001	-0.086
-65.392	800.000	0.116	-0.407
-64.378	-151.701	-0.123	0.009
-63.363	38.887	-0.219	-0.193
-62.349	800.000	-0.029	0.096
-61.334	118.010	-0.878	-1.066
-60.319	52.441	0.400	0.377
-59.305	-200.000	0.028	-1.063
-58.290	87.157	0.703	0.766
-57.276	800.000	0.450	1.546
-56.261	-200.000	94.506	554.776
-55.246	541.550	1378.296	3238.461
-54.232	151.021	2602.730	3490.335
-53.217	108.210	2309.266	2715.564
-52.203	44.329	1922.396	1739.826
-51.188	38.051	1707.873	1497.643
-50.173	35.223	1662.413	1436.562
-49.159	52.038	1710.617	1606.408
-48.144	55.429	1728.056	1648.478
-47.130	37.818	1684.128	1474.821
-46.115	34.716	1669.238	1438.413
-45.100	34.641	1664.520	1433.729
-44.086	34.581	1661.756	1430.835
-43.071	34.569	1659.146	1428.445
-42.057	34.481	1657.071	1425.947
-41.042	34.509	1655.026	1424.337
-40.027	34.591	1652.885	1423.049
-39.013	34.540	1650.949	1420.943
-37.998	34.548	1649.295	1419.523
-36.984	34.611	1648.017	1418.835
-35.969	34.703	1646.704	1418.333
-34.954	34.667	1645.018	1416.562
-33.940	34.698	1643.590	1415.506
-32.925	34.684	1641.343	1413.406
-31.911	34.800	1639.172	1412.342
-30.896	34.697	1637.583	1410.157
-29.881	34.640	1636.511	1408.756
-28.867	34.617	1634.853	1407.099
-27.852	34.777	1632.642	1406.324
-26.838	34.737	1631.425	1404.921
-25.823	34.687	1630.360	1403.582
-24.809	34.822	1628.673	1403.062
-23.794	34.737	1627.326	1401.227
-22.779	34.778	1625.794	1400.154
-21.765	34.763	1624.122	1398.548
-20.750	34.751	1622.141	1396.695
-19.736	34.780	1620.884	1395.772
-18.721	34.788	1619.567	1394.637
-17.706	34.783	1617.928	1393.135
-16.692	34.741	1616.101	1391.200
-15.677	34.745	1615.305	1390.490
-14.663	34.779	1613.559	1389.182
-13.648	34.804	1612.061	1388.016
-12.633	34.725	1610.913	1386.399
-11.619	34.733	1609.112	1384.853
-10.604	34.787	1607.594	1383.879
-9.590	34.828	1605.734	1382.521
-8.575	34.741	1604.841	1381.073
-7.560	34.675	1604.126	1379.923
-6.546	34.729	1602.695	1379.029
-5.531	34.795	1601.227	1378.185
-4.517	34.667	1600.331	1376.439
-3.502	34.688	1599.951	1376.210
-2.487	34.784	1597.947	1375.118
-1.473	34.870	1586.333	1365.683
-0.458	32.687	1568.615	1334.940
0.556	29.433	1569.541	1306.543
1.571	27.275	1594.785	1311.891
2.586	26.682	1608.613	1318.838
3.600	22.952	1553.067	1246.913
4.615	12.333	1438.128	1084.758
5.629	3.479	1369.609	977.084
6.644	1.913	1361.648	961.452
7.659	1.746	1360.218	959.301
8.673	1.799	1359.014	958.707
9.688	1.732	1356.782	956.625
10.702	1.437	1353.939	952.683
11.717	4.864	1361.211	979.292
12.731	15.456	1380.980	1060.680
13.746	24.176	1395.986	1127.558
14.761	26.354	1398.389	1143.186
15.775	26.491	1398.477	1144.025
16.790	26.615	1398.079	1144.384
17.804	26.714	1397.194	1144.183
18.819	26.755	1397.588	1144.666
19.834	26.977	1396.342	1144.945
20.848	27.004	1396.144	1144.849
21.863	26.944	1395.227	1143.616
22.877	27.006	1393.875	1142.799
23.892	27.025	1392.895	1142.013
24.907	26.968	1392.375	1141.129
25.921	26.918	1391.804	1140.244
26.936	26.979	1390.558	1139.507
27.950	26.928	1389.043	1137.844
28.965	27.006	1387.964	1137.349
29.980	26.945	1386.961	1136.041
30.994	26.957	1386.115	1135.322
32.009	26.971	1384.458	1133.954
33.023	26.936	1383.670	1132.988
34.038	26.949	1382.696	1132.176
35.053	26.965	1381.301	1131.032
36.067	26.900	1380.569	1129.928
37.082	27.049	1379.219	1129.646
38.096	26.881	1378.913	1128.255
39.111	26.945	1377.829	1127.664
40.126	26.962	1377.467	1127.376
41.140	26.983	1376.664	1126.744
42.155	26.892	1376.744	1126.148
43.169	26.985	1376.305	1126.267
44.184	26.916	1376.210	1125.660
45.199	26.906	1375.867	1125.215
46.213	27.003	1374.879	1124.909
47.228	26.980	1374.300	1124.198
48.242	27.013	1372.690	1122.982
49.257	26.960	1371.952	1121.952
50.271	26.961	1370.242	1120.460
51.286	26.946	1368.745	1119.048
52.301	26.924	1367.912	1118.133
53.315	26.962	1366.985	1117.505
54.330	26.948	1366.211	1116.692
55.344	26.845	1365.069	1115.022
56.359	26.830	1364.054	1114.006
57.374	26.978	1362.896	1113.866
58.388	26.982	1362.424	1113.411
59.403	27.068	1362.023	1113.508
60.417	26.934	1361.255	1111.964
61.432	26.990	1360.064	1111.236
62.447	26.980	1359.417	1110.545
63.461	26.953	1358.579	1109.600
64.476	26.988	1357.506	1108.834
65.490	26.943	1356.800	1107.885
66.505	26.992	1355.175	1106.764
67.520	26.947	1353.856	1105.314
68.534	26.999	1353.182	1104.983
69.549	26.891	1352.679	1103.816
70.563	26.961	1351.071	1102.829
71.578	27.017	1349.967	1102.174
72.593	26.875	1349.439	1100.779
73.607	26.967	1348.732	1100.666
74.622	27.007	1347.428	1099.745
75.636	26.933	1346.947	1098.810
76.651	26.970	1346.226	1098.343
77.666	27.041	1345.732	1098.277
78.680	26.965	1345.377	1097.432
79.695	27.029	1344.691	1097.162
80.709	26.910	1343.749	1095.574
81.724	26.930	1343.028	1095.009
82.739	26.981	1342.135	1094.492
83.753	26.947	1341.143	1093.383
84.768	26.913	1340.050	1092.190
85.782	26.962	1338.639	1091.237
86.797	27.062	1337.490	1090.806
87.812	27.012	1336.704	1089.771
88.826	26.962	1335.612	1088.480
89.841	27.080	1334.272	1088.002
90.855	27.008	1333.586	1086.913
91.870	27.026	1333.204	1086.617
92.884	27.178	1331.629	1086.140
93.899	27.087	1331.171	1085.130
94.914	27.021	1330.194	1083.842
95.928	27.043	1329.741	1083.508
96.943	26.995	1328.976	1082.503
97.957	26.981	1328.139	1081.642
98.972	27.081	1327.292	1081.454
99.987	27.041	1326.139	1080.180
101.001	26.993	1325.711	1079.451
102.016	27.038	1324.655	1078.759
103.030	27.048	1324.120	1078.287
104.045	26.919	1323.270	1076.734
105.060	27.151	1321.307	1076.421
106.074	26.991	1321.045	1075.165
107.089	27.128	1319.743	1074.817
108.103	26.998	1319.166	1073.486
109.118	27.094	1318.120	1073.103
110.133	27.174	1316.400	1072.083
111.147	26.973	1315.578	1070.135
112.162	27.091	1314.579	1069.920
113.176	27.175	1313.441	1069.397
114.191	27.045	1312.799	1068.014
115.206	27.027	1311.967	1067.136
116.220	27.007	1311.008	1066.143
117.235	27.064	1309.952	1065.524
118.249	26.999	1309.231	1064.466
119.264	27.146	1307.961	1064.200
120.279	27.084	1307.128	1063.062
121.293	27.169	1306.453	1062.918
122.308	27.160	1306.001	1062.401
123.322	27.185	1304.967	1061.611
124.337	27.126	1304.045	1060.426
125.352	27.188	1303.290	1060.080
126.366	27.157	1302.535	1059.192
127.381	27.163	1301.383	1058.193
128.395	27.164	1300.819	1057.650
129.410	27.196	1299.933	1057.022
130.424	27.131	1299.458	1056.162
131.439	27.153	1298.164	1055.147
132.454	27.154	1298.032	1054.948
133.468	27.038	1297.449	1053.710
134.483	27.112	1296.642	1053.392
135.497	27.132	1295.451	1052.448
136.512	27.048	1294.674	1051.235
137.527	27.219	1293.454	1051.137
138.541	27.204	1292.291	1050.015
139.556	27.049	1291.363	1048.272
140.570	27.139	1290.588	1048.071
141.585	27.237	1288.733	1047.033
142.600	27.184	1288.322	1046.305
143.614	27.264	1287.110	1045.689
144.629	27.099	1286.474	1044.130
145.643	27.015	1285.201	1042.520
146.658	27.019	1284.298	1041.720
147.673	27.040	1283.188	1040.847
148.687	27.079	1283.089	1040.897
149.702	27.046	1281.430	1039.273
150.716	27.119	1279.834	1038.303
151.731	26.980	1279.031	1036.764
152.746	27.053	1278.062	1036.307
153.760	27.063	1277.368	1035.710
154.775	27.274	1275.927	1035.650
155.789	27.212	1275.310	1034.704
156.804	27.084	1274.187	1032.974
157.819	27.104	1273.483	1032.427
158.833	27.189	1272.458	1031.986
159.848	27.135	1272.219	1031.396
160.862	27.190	1271.264	1030.839
161.877	27.209	1270.528	1030.262
162.892	27.104	1270.156	1029.272
163.906	27.174	1268.996	1028.638
164.921	27.263	1268.265	1028.456
165.935	27.168	1267.836	1027.483
166.950	27.253	1267.161	1027.322
167.964	27.331	1266.630	1027.246
168.979	27.216	1265.912	1025.922
169.994	27.233	1265.222	1025.368
171.008	27.302	1264.350	1024.960
172.023	27.215	1263.743	1023.887
173.037	27.324	1263.101	1023.887
174.052	27.288	1262.259	1022.914
175.067	27.213	1261.797	1022.025
176.081	27.342	1260.643	1021.722
177.096	27.289	1259.863	1020.707
178.110	27.325	1258.984	1020.103
179.125	27.270	1257.823	1018.768
180.140	27.298	1257.040	1018.200
181.154	27.414	1255.424	1017.450
182.169	27.291	1254.700	1016.085
183.183	27.246	1254.162	1015.308
184.198	27.340	1252.799	1014.636
185.213	27.396	1252.087	1014.284
186.227	27.329	1251.060	1012.990
187.242	27.295	1250.271	1012.070
188.256	27.279	1249.289	1011.099
189.271	27.264	1248.912	1010.619
190.286	27.421	1247.960	1010.631
191.300	27.329	1247.411	1009.586
192.315	27.379	1246.560	1009.085
193.329	27.365	1246.625	1008.971
194.344	27.401	1246.034	1008.605
195.359	27.341	1245.514	1007.762
196.373	27.371	1244.995	1007.419
197.388	27.176	1244.886	1006.163
198.402	27.290	1244.330	1006.254
199.417	27.170	1244.383	1005.543
200.432	27.273	1243.437	1005.262
201.446	27.242	1243.005	1004.650
202.461	27.349	1242.101	1004.419
203.475	27.335	1240.989	1003.357
204.490	27.371	1240.141	1002.779
205.504	27.325	1238.933	1001.462
206.519	27.344	1238.175	1000.863
207.534	27.467	1237.329	1000.766
208.548	27.460	1235.952	999.528
209.563	27.436	1235.308	998.786
210.577	27.344	1234.561	997.592
211.592	27.408	1233.665	997.130
212.607	27.561	1232.978	997.322
213.621	27.495	1232.537	996.517
214.636	27.481	1231.612	995.606
215.650	27.430	1230.997	994.738
216.665	27.382	1230.077	993.644
217.680	27.505	1228.558	993.002
218.694	27.507	1228.188	992.626
219.709	27.462	1227.671	991.875
220.723	27.594	1226.548	991.598
221.738	27.405	1226.027	990.060
222.753	27.505	1225.253	989.894
223.767	27.460	1224.717	989.127
224.782	27.526	1224.508	989.231
225.796	27.508	1223.897	988.549
226.811	27.588	1223.019	988.187
227.826	27.609	1222.721	987.970
228.840	27.577	1222.058	987.176
229.855	27.596	1221.316	986.592
230.869	27.597	1220.696	986.011
231.884	27.525	1220.081	985.036
232.899	27.556	1219.102	984.326
233.913	27.639	1218.364	984.088
234.928	27.651	1218.027	983.796
235.942	27.601	1217.862	983.305
236.957	27.688	1216.541	982.619
237.972	27.583	1215.934	981.480
238.986	27.584	1215.157	980.769
240.001	27.649	1215.213	981.078
241.015	27.691	1214.458	980.608
242.030	27.804	1212.952	979.910
243.045	27.831	1212.459	979.573
244.059	27.748	1211.689	978.419
245.074	27.684	1211.146	977.547
246.088	27.697	1210.456	976.977
247.103	27.732	1209.460	976.271
248.117	27.711	1208.745	975.499
249.132	27.732	1207.938	974.871
250.147	27.696	1207.680	974.386
251.161	27.781	1206.723	973.978
252.176	27.768	1205.655	972.966
253.190	27.855	1204.947	972.771
254.205	27.797	1204.576	972.073
255.220	27.751	1204.263	971.492
256.234	27.738	1203.889	971.037
257.249	27.813	1202.977	970.610
258.263	27.756	1202.569	969.894
259.278	27.914	1201.879	970.090
260.293	27.828	1201.422	969.177
261.307	27.936	1200.848	969.202
262.322	27.799	1200.292	967.941
263.336	27.749	1199.612	967.045
264.351	27.766	1199.096	966.632
265.366	27.804	1198.425	966.209
266.380	27.775	1197.982	965.610
267.395	27.824	1196.837	964.860
268.409	27.837	1196.059	964.218
269.424	27.911	1195.726	964.254
270.439	27.899	1195.393	963.837
271.453	27.953	1194.402	963.237
272.468	27.891	1193.623	962.198
273.482	27.913	1192.847	961.601
274.497	27.974	1192.548	961.596
275.512	28.030	1191.857	961.248
276.526	28.052	1191.057	960.636
277.541	27.945	1190.690	959.692
278.555	27.995	1190.108	959.398
279.570	27.944	1189.531	958.584
280.585	28.043	1188.216	957.957
281.599	27.991	1187.474	957.000
282.614	27.987	1186.698	956.269
283.628	28.046	1185.873	955.827
284.643	28.108	1184.712	955.132
285.657	28.028	1184.182	954.203
286.672	28.011	1183.536	953.509
287.687	28.091	1182.550	953.047
288.701	28.099	1181.837	952.430
289.716	28.149	1181.342	952.208
290.730	28.088	1180.808	951.379
291.745	28.184	1180.026	951.161
292.760	27.997	1179.896	950.000
293.774	28.056	1178.992	949.497
294.789	28.071	1178.693	949.246
295.803	28.191	1177.813	949.078
296.818	28.200	1176.827	948.244
297.833	28.166	1176.257	947.529
298.847	28.252	1175.505	947.283
299.862	28.001	1175.446	945.851
300.876	28.135	1174.578	945.761
301.891	28.200	1173.790	945.380
302.906	28.254	1173.200	945.100
303.920	28.252	1172.685	944.590
304.935	28.228	1172.014	943.841
305.949	28.089	1171.559	942.675
306.964	28.237	1170.556	942.546
307.979	28.343	1169.795	942.397
308.993	28.354	1169.400	942.054
310.008	28.274	1168.871	941.132
311.022	28.190	1168.450	940.277
312.037	28.223	1167.276	939.418
313.052	28.328	1166.234	939.037
314.066	28.335	1165.167	938.129
315.081	28.314	1164.891	937.715
316.095	28.406	1164.212	937.558
317.110	28.393	1163.541	936.868
318.125	28.287	1163.092	935.880
319.139	28.371	1162.266	935.564
320.154	28.315	1161.692	934.734
321.168	28.327	1161.213	934.323
322.183	28.410	1160.450	934.049
323.197	28.503	1159.891	933.993
324.212	28.437	1159.204	933.022
325.227	28.432	1158.844	932.624
326.241	28.416	1158.218	931.958
327.256	28.453	1157.634	931.592
328.270	28.486	1156.694	930.920
329.285	28.376	1156.137	929.830
330.300	28.423	1155.114	929.165
331.314	28.509	1154.128	928.727
332.329	28.559	1153.410	928.317
333.343	28.563	1152.940	927.879
334.358	28.635	1152.132	927.511
335.373	28.493	1151.527	926.221
336.387	28.570	1150.663	925.837
337.402	28.609	1150.573	925.876
338.416	28.712	1149.468	925.424
339.431	28.606	1148.926	924.374
340.446	28.789	1147.717	924.241
341.460	28.767	1147.636	923.983
342.475	28.816	1146.488	923.223
343.489	28.741	1145.653	922.090
344.504	28.723	1144.514	921.002
345.519	28.733	1144.026	920.577
346.533	28.658	1143.516	919.711
347.548	28.734	1143.116	919.687
348.562	28.762	1142.200	919.012
349.577	28.677	1141.183	917.687
350.592	28.675	1140.318	916.898
351.606	28.597	1140.172	916.310
352.621	28.669	1139.656	916.174
353.635	28.697	1138.925	915.643
354.650	28.812	1137.780	915.215
355.665	28.714	1137.558	914.467
356.679	28.901	1136.491	914.459
357.694	28.766	1136.468	913.689
358.708	28.864	1135.444	913.273
359.723	28.800	1134.760	912.325
360.738	28.811	1134.115	911.779
361.752	28.743	1134.047	911.308
362.767	28.841	1133.623	911.372
363.781	28.829	1133.070	910.788
364.796	28.833	1132.257	910.070
365.810	28.898	1131.787	909.936
366.825	29.021	1130.736	909.617
367.840	29.036	1130.369	909.316
368.854	29.171	1129.534	909.231
369.869	29.029	1129.070	908.077
370.883	29.015	1128.284	907.296
371.898	28.943	1128.074	906.690
372.913	28.927	1127.202	905.832
373.927	29.103	1126.820	906.310
374.942	29.159	1126.018	905.859
375.956	29.016	1125.792	904.897
376.971	28.980	1125.110	904.091
377.986	29.062	1124.599	904.002
379.000	29.143	1123.762	903.645
380.015	28.983	1123.907	902.900
381.029	29.159	1122.688	902.701
382.044	29.173	1122.137	902.248
383.059	29.010	1122.008	901.266
384.073	29.135	1120.734	900.771
385.088	29.159	1120.027	900.243
386.102	29.260	1118.823	899.687
387.117	29.062	1118.340	898.256
388.132	29.114	1117.595	897.829
389.146	29.236	1116.509	897.472
390.161	29.171	1116.467	897.041
391.175	29.128	1115.645	896.095
392.190	29.186	1114.798	895.615
393.205	29.069	1114.416	894.661
394.219	29.157	1113.606	894.361
395.234	29.264	1112.852	894.194
396.248	29.194	1112.274	893.311
397.263	29.355	1110.890	892.900
398.278	29.326	1110.560	892.414
399.292	29.336	1109.904	891.858
400.307	29.437	1109.126	891.641
401.321	29.365	1108.402	890.633
402.336	29.339	1108.266	890.321
403.350	29.312	1107.473	889.473
404.365	29.273	1107.005	888.829
405.380	29.462	1105.986	888.845
406.394	29.423	1105.414	888.120
407.409	29.511	1104.509	887.736
408.423	29.510	1104.063	887.291
409.438	29.486	1103.241	886.438
410.453	29.530	1103.163	886.508
411.467	29.551	1101.734	885.382
412.482	29.515	1101.295	884.780
413.496	29.460	1100.710	883.968
414.511	29.584	1099.957	883.877
415.526	29.550	1099.696	883.428
416.540	29.622	1099.129	883.241
417.555	29.551	1098.654	882.437
418.569	29.500	1098.170	881.731
419.584	29.610	1097.794	881.875
420.599	29.624	1097.445	881.583
421.613	99.935	1318.478	1442.293
422.628	93.331	1350.692	1442.410
