DTS Sentinel unit serial number:	SN413079Multiplexer serial number:	ORYXHardware model number:	OX4-SRSoftware version number:	ORYX F/W v4.00 Oryx Data Collector v3.7.2.0data status	okinstallation	princeton_trtdifferential loss correction	single-endedforward channel	channel 2reverse channel	N/Adate	2019/09/19time	09:07:35forward acquisition time	60.00reverse acquisition time	0.00gamma	496.2192k internal	0.2352k external	0.2352temperature offset calibration	0.9996default loss term (dB/km)	0.3790temperature slope calibration	1.0000multiplexer offset coefficient	1.0000multiplexer slope coefficient	1.0000fibre end	0.00T internal ref (°C)	21.81T ext. ref 1 (°C)	0.59T ext. ref 2 (°C)	18.89length (m)	temperature (°C)	Stokes	anti-Stokes-747.200	37.117	-0.161	0.142
-746.185	-200.000	-0.038	0.487
-745.171	-200.000	0.001	0.372
-744.156	-25.486	-0.253	0.149
-743.142	-41.648	-0.405	-0.208
-742.127	-200.000	-0.013	0.402
-741.112	2.735	0.204	-0.148
-740.098	-200.000	-0.024	0.170
-739.083	275.265	-0.201	-0.356
-738.069	-45.225	-0.170	0.084
-737.054	666.664	0.059	0.152
-736.039	-29.840	-0.277	0.157
-735.025	-200.000	0.047	0.289
-734.010	67.413	-0.279	-0.284
-732.996	163.269	0.131	0.184
-731.981	-200.000	0.012	0.444
-730.966	-150.325	0.174	0.013
-729.952	-129.833	-0.309	0.042
-728.937	439.051	0.095	-0.206
-727.923	-34.999	0.161	-0.087
-726.908	257.325	-0.104	0.179
-725.894	-200.000	0.004	0.104
-724.879	-200.000	0.001	-0.333
-723.864	-109.621	-0.356	0.075
-722.850	-28.369	0.081	0.047
-721.835	64.918	0.174	-0.175
-720.821	-86.621	-0.183	-0.056
-719.806	-23.098	0.371	-0.223
-718.791	194.425	-0.147	-0.222
-717.777	21.080	0.085	0.068
-716.762	-40.357	-0.464	0.240
-715.748	-200.000	-0.070	-0.473
-714.733	21.306	-0.038	0.031
-713.718	-200.000	-0.015	0.125
-712.704	-113.915	0.124	0.024
-711.689	-158.391	-0.071	0.004
-710.675	-200.000	-0.007	-0.463
-709.660	-62.505	-0.108	0.045
-708.645	-200.000	-0.002	-0.198
-707.631	630.407	-0.048	-0.122
-706.616	800.000	0.065	-0.183
-705.602	50.615	-0.247	-0.233
-704.587	12.000	0.134	0.102
-703.572	-91.880	-0.154	-0.044
-702.558	301.272	0.091	0.167
-701.543	-32.108	-0.183	-0.102
-700.529	28.866	-0.076	-0.064
-699.514	-128.081	0.159	0.023
-698.499	-16.838	-0.227	0.143
-697.485	800.000	-0.116	0.450
-696.470	800.000	0.043	-0.130
-695.456	800.000	-0.097	-0.303
-694.441	181.343	-0.086	0.126
-693.426	-24.131	-0.147	0.087
-692.412	38.473	0.074	-0.066
-691.397	-70.575	-0.259	-0.098
-690.383	19.805	0.208	0.167
-689.368	-79.447	-0.310	0.104
-688.354	79.888	0.186	0.199
-687.339	800.000	0.086	0.291
-686.324	-45.876	0.244	-0.120
-685.310	800.000	0.058	0.225
-684.295	-88.457	-0.240	-0.071
-683.281	-200.000	-0.002	0.089
-682.266	89.913	-0.197	-0.219
-681.251	234.177	-0.066	0.108
-680.237	-200.000	0.003	-0.262
-679.222	-72.254	-0.170	-0.063
-678.208	-200.000	-0.015	-0.122
-677.193	275.975	-0.050	-0.088
-676.178	-44.813	0.031	-0.016
-675.164	108.119	-0.016	0.020
-674.149	-12.177	0.114	0.074
-673.135	-110.495	0.158	-0.033
-672.120	-95.296	-0.100	-0.027
-671.105	189.523	0.086	-0.129
-670.091	-162.551	-0.348	0.017
-669.076	92.201	-0.185	-0.207
-668.062	92.478	-0.198	-0.222
-667.047	156.548	0.109	0.150
-666.032	68.511	-0.219	-0.224
-665.018	-106.514	-0.313	0.069
-664.003	143.492	-0.024	-0.032
-662.989	285.184	0.169	-0.303
-661.974	176.968	0.153	-0.222
-660.959	39.477	0.114	0.102
-659.945	710.466	-0.035	0.091
-658.930	180.525	0.068	0.099
-657.916	-55.981	-0.049	0.022
-656.901	-12.339	-0.045	-0.029
-655.886	-34.669	0.138	0.075
-654.872	-78.633	0.385	-0.131
-653.857	-60.952	0.245	-0.103
-652.843	39.050	0.073	-0.065
-651.828	-186.015	0.110	-0.002
-650.814	800.000	-0.025	0.089
-649.799	-200.000	-0.011	0.111
-648.784	20.123	-0.183	0.147
-647.770	277.549	0.061	-0.108
-646.755	15.205	-0.385	0.300
-645.741	500.963	0.120	-0.274
-644.726	-38.755	0.340	-0.178
-643.711	117.314	-0.198	-0.241
-642.697	418.297	0.103	-0.220
-641.682	58.858	0.111	-0.108
-640.668	576.844	0.163	0.396
-639.653	-48.254	-0.137	0.066
-638.638	-27.602	-0.284	-0.164
-637.624	-87.912	-0.315	-0.094
-636.609	78.014	0.127	0.135
-635.595	9.869	0.156	0.118
-634.580	231.382	-0.092	-0.150
-633.565	81.546	0.094	0.101
-632.551	-104.601	0.165	0.038
-631.536	167.385	-0.091	-0.129
-630.522	65.210	0.221	0.221
-629.507	-54.835	0.054	-0.024
-628.492	800.000	-0.065	0.187
-627.478	686.030	0.075	0.196
-626.463	-42.615	0.210	0.106
-625.449	-58.846	-0.155	-0.066
-624.434	-117.701	-0.208	0.037
-623.419	35.760	0.035	0.031
-622.405	-73.708	-0.176	-0.064
-621.390	71.642	-0.109	-0.112
-620.376	33.915	-0.132	0.114
-619.361	161.797	0.270	0.376
-618.346	212.142	-0.101	0.157
-617.332	-53.647	-0.262	-0.119
-616.317	-200.000	-0.015	-0.197
-615.303	-134.612	0.365	-0.044
-614.288	541.833	-0.152	0.360
-613.273	39.719	-0.281	-0.250
-612.259	-156.008	-0.300	-0.019
-611.244	-47.193	-0.074	0.036
-610.230	-169.094	0.158	-0.006
-609.215	-75.031	-0.199	0.071
-608.201	-120.290	0.141	-0.024
-607.186	-200.000	-0.032	-0.319
-606.171	-57.043	-0.238	-0.104
-605.157	315.949	-0.084	-0.158
-604.142	-120.631	-0.045	-0.008
-603.128	-200.000	-0.002	0.148
-602.113	-14.067	0.112	-0.072
-601.098	-149.163	-0.127	-0.010
-600.084	2.625	-0.190	0.136
-599.069	-68.592	0.276	0.106
-598.055	-92.952	0.172	0.048
-597.040	51.317	-0.154	0.145
-596.025	800.000	-0.012	0.033
-595.011	-117.110	-0.126	-0.023
-593.996	-162.067	0.172	0.009
-592.982	-200.000	-0.015	-0.111
-591.967	-54.121	0.099	-0.045
-590.952	-200.000	0.011	0.128
-589.938	-41.565	0.096	-0.049
-588.923	57.047	0.113	-0.109
-587.909	-200.000	0.025	0.130
-586.894	800.000	-0.060	-0.225
-585.879	170.254	-0.205	-0.290
-584.865	70.352	0.399	-0.409
-583.850	430.221	-0.180	-0.387
-582.836	160.599	-0.047	0.065
-581.821	-184.469	0.191	0.003
-580.806	-200.000	0.003	0.115
-579.792	-148.575	0.096	-0.008
-578.777	-37.883	-0.386	-0.203
-577.763	165.386	-0.303	-0.424
-576.748	-62.038	0.358	0.148
-575.733	-63.127	0.269	-0.110
-574.719	98.036	0.246	0.281
-573.704	-6.550	0.261	-0.176
-572.690	-131.341	0.324	0.042
-571.675	-32.770	-0.298	0.164
-570.661	-31.515	0.102	-0.057
-569.646	-29.242	-0.397	0.225
-568.631	800.000	0.048	0.137
-567.617	-120.367	-0.378	0.064
-566.602	-53.791	0.091	-0.041
-565.588	192.745	-0.052	-0.078
-564.573	-200.000	-0.021	0.234
-563.558	48.399	0.114	-0.106
-562.544	53.081	-0.114	-0.108
-561.529	-126.948	0.355	0.052
-560.515	81.099	-0.046	0.049
-559.500	-86.633	-0.067	0.020
-558.485	-8.421	-0.162	0.108
-557.471	-51.242	-0.114	0.053
-556.456	-200.000	-0.032	0.437
-555.442	-39.181	-0.254	0.132
-554.427	-117.573	0.227	-0.041
-553.412	-39.674	-0.271	-0.140
-552.398	-200.000	0.020	-0.102
-551.383	-76.492	0.020	-0.007
-550.369	6.755	0.344	-0.253
-549.354	800.000	-0.073	0.305
-548.339	-200.000	-0.009	-0.213
-547.325	800.000	0.069	-0.279
-546.310	-200.000	0.041	0.305
-545.296	-64.727	-0.104	0.042
-544.281	-200.000	0.075	0.456
-543.266	10.987	-0.076	0.057
-542.252	-118.415	-0.310	0.054
-541.237	800.000	0.032	0.098
-540.223	45.645	0.001	-0.001
-539.208	-171.810	0.189	-0.006
-538.193	-58.834	0.347	0.149
-537.179	-77.686	0.136	-0.046
-536.164	-35.357	-0.213	-0.115
-535.150	-200.000	-0.017	0.167
-534.135	54.474	-0.287	0.274
-533.121	-64.806	0.485	0.194
-532.106	-17.861	0.350	-0.217
-531.091	-112.283	-0.471	0.093
-530.077	-200.000	0.011	-0.075
-529.062	-40.928	-0.041	0.021
-528.048	77.611	-0.155	0.163
-527.033	178.112	0.075	0.108
-526.018	224.495	-0.218	0.349
-525.004	-40.892	-0.118	0.060
-523.989	-1.738	-0.060	-0.042
-522.975	778.603	-0.042	-0.114
-521.960	800.000	-0.091	0.261
-520.945	-164.816	0.260	0.012
-519.931	228.527	-0.072	-0.115
-518.916	228.172	-0.040	-0.064
-517.902	-101.254	0.022	-0.005
-516.887	748.639	0.109	-0.290
-515.872	-119.257	-0.198	-0.034
-514.858	-47.482	-0.230	0.111
-513.843	-106.002	0.349	-0.078
-512.829	-200.000	-0.004	-0.144
-511.814	-56.422	-0.313	-0.137
-510.799	363.499	0.028	-0.057
-509.785	63.662	-0.149	0.148
-508.770	-3.243	-0.192	0.133
-507.756	-200.000	-0.019	-0.131
-506.741	800.000	-0.038	-0.120
-505.726	105.059	-0.081	-0.095
-504.712	513.264	0.151	0.348
-503.697	-32.890	-0.370	-0.203
-502.683	-200.000	-0.007	-0.038
-501.668	-6.813	-0.106	0.071
-500.653	-148.597	0.251	-0.020
-499.639	-200.000	-0.008	-0.315
-498.624	-4.935	-0.233	-0.158
-497.610	800.000	-0.035	0.111
-496.595	-200.000	0.084	0.481
-495.581	-55.754	-0.154	-0.068
-494.566	-38.106	-0.250	-0.131
-493.551	-200.000	-0.018	0.502
-492.537	-63.021	0.237	0.097
-491.522	-49.707	-0.297	0.139
-490.508	-84.794	0.665	0.207
-489.493	54.132	0.235	0.223
-488.478	339.115	-0.162	-0.312
-487.464	800.000	0.109	0.440
-486.449	-0.921	-0.081	0.057
-485.435	-200.000	0.012	0.244
-484.420	-140.036	-0.348	0.036
-483.405	501.239	0.099	-0.227
-482.391	72.856	-0.176	0.181
-481.376	195.670	0.108	0.163
-480.362	223.049	-0.165	-0.263
-479.347	-121.063	0.212	0.035
-478.332	-200.000	-0.000	0.329
-477.318	65.538	0.103	-0.103
-476.303	800.000	0.034	0.141
-475.289	-56.175	0.063	-0.028
-474.274	-200.000	-0.015	-0.449
-473.259	-200.000	0.024	-0.222
-472.245	510.710	-0.051	0.117
-471.230	583.642	0.083	0.201
-470.216	474.445	-0.087	-0.193
-469.201	176.190	0.038	-0.054
-468.186	-200.000	-0.024	0.218
-467.172	-200.000	0.013	0.066
-466.157	-43.375	0.212	-0.106
-465.143	-84.382	-0.390	0.122
-464.128	-90.973	0.033	-0.009
-463.113	335.770	-0.189	0.363
-462.099	458.290	-0.147	-0.323
-461.084	800.000	-0.025	0.098
-460.070	-200.000	-0.036	0.198
-459.055	-80.047	0.298	0.099
-458.040	-9.003	0.120	-0.079
-457.026	208.385	-0.092	0.142
-456.011	-129.670	-0.353	-0.048
-454.997	-200.000	0.032	0.158
-453.982	-20.206	0.347	0.211
-452.968	-65.151	-0.170	-0.068
-451.953	-200.000	0.030	0.310
-450.938	800.000	0.016	-0.052
-449.924	311.427	0.039	-0.072
-448.909	58.241	0.125	0.120
-447.895	-200.000	0.023	0.143
-446.880	-9.449	-0.333	-0.219
-445.865	-51.728	0.211	-0.097
-444.851	-200.000	-0.122	-0.661
-443.836	-72.870	-0.181	0.066
-442.822	531.684	-0.046	0.108
-441.807	317.561	-0.257	0.479
-440.792	-142.511	0.158	0.015
-439.778	800.000	0.095	0.317
-438.763	353.320	-0.049	-0.097
-437.749	-27.909	-0.289	-0.165
-436.734	-59.578	0.068	-0.029
-435.719	-21.082	-0.307	0.185
-434.705	163.496	0.276	0.383
-433.690	-189.854	0.216	-0.002
-432.676	-127.983	-0.316	0.045
-431.661	-88.760	0.105	-0.031
-430.646	-71.104	-0.074	-0.028
-429.632	213.403	-0.258	-0.402
-428.617	18.720	-0.212	0.167
-427.603	-16.367	0.178	0.111
-426.588	-3.840	0.196	-0.134
-425.573	-87.344	0.392	-0.117
-424.559	-41.149	-0.323	0.164
-423.544	-103.726	0.271	0.063
-422.530	345.674	-0.070	0.135
-421.515	291.682	0.164	-0.295
-420.500	-115.781	-0.089	0.016
-419.486	9.526	-0.208	0.155
-418.471	225.743	-0.096	-0.153
-417.457	-148.160	-0.086	-0.007
-416.442	190.178	0.108	-0.160
-415.428	113.345	-0.058	0.069
-414.413	-89.246	0.142	0.041
-413.398	-200.000	0.028	0.214
-412.384	18.286	0.183	0.144
-411.369	-200.000	0.035	0.168
-410.355	128.817	-0.085	0.106
-409.340	-200.000	0.039	-0.211
-408.325	454.049	-0.021	0.046
-407.311	-56.657	0.123	0.054
-406.296	-127.071	0.139	0.020
-405.282	-200.000	0.005	-0.208
-404.267	108.764	0.148	0.174
-403.252	24.028	-0.223	0.181
-402.238	99.927	0.040	-0.045
-401.223	-112.068	-0.184	-0.037
-400.209	-200.000	0.009	0.087
-399.194	89.896	-0.080	0.088
-398.179	144.521	-0.116	-0.152
-397.165	231.710	0.185	0.298
-396.150	-200.000	0.003	-0.128
-395.136	-164.714	0.304	0.013
-394.121	294.295	0.148	0.266
-393.106	51.784	-0.176	-0.165
-392.092	46.084	0.242	-0.221
-391.077	96.274	0.154	0.173
-390.063	-200.000	-0.376	-0.000
-389.048	-31.376	-0.145	0.080
-388.033	-200.000	0.033	-0.169
-387.019	-0.270	0.278	-0.194
-386.004	-72.928	-0.324	-0.117
-384.990	-79.585	-0.302	-0.100
-383.975	262.922	-0.097	-0.166
-382.960	-64.860	0.460	-0.183
-381.946	-200.000	-0.002	0.073
-380.931	-32.847	-0.255	-0.139
-379.917	36.047	0.244	0.212
-378.902	55.812	0.158	-0.151
-377.888	33.151	0.350	-0.298
-376.873	-0.759	0.042	0.029
-375.858	800.000	0.046	-0.126
-374.844	-9.480	-0.095	-0.063
-373.829	118.296	-0.032	-0.039
-372.815	-119.978	0.043	0.007
-371.800	-77.584	-0.209	-0.071
-370.785	622.726	-0.057	0.141
-369.771	-185.204	-0.251	-0.004
-368.756	133.557	0.087	0.111
-367.742	-157.088	-0.173	-0.010
-366.727	193.661	-0.124	-0.184
-365.712	-149.811	-0.137	0.011
-364.698	45.494	0.105	-0.095
-363.683	-155.938	-0.283	0.018
-362.669	27.039	-0.150	0.124
-361.654	493.645	0.069	-0.156
-360.639	-200.000	0.039	0.210
-359.625	-200.000	0.003	-0.178
-358.610	-78.746	-0.155	0.052
-357.596	118.483	0.110	0.133
-356.581	15.497	-0.091	-0.070
-355.566	-98.380	0.088	-0.022
-354.552	-148.789	0.169	0.013
-353.537	-99.313	-0.182	-0.045
-352.523	-115.643	-0.093	-0.017
-351.508	-191.252	0.268	0.003
-350.493	32.585	0.263	0.223
-349.479	19.548	0.179	0.142
-348.464	-200.000	-0.036	-0.217
-347.450	-64.511	0.294	0.117
-346.435	304.274	-0.058	0.105
-345.420	268.192	0.044	0.076
-344.406	-63.015	-0.318	-0.129
-343.391	-24.241	-0.226	-0.132
-342.377	29.763	-0.018	-0.015
-341.362	-77.674	-0.312	0.106
-340.348	-98.560	0.048	-0.012
-339.333	800.000	0.069	0.217
-338.318	588.735	-0.111	-0.267
-337.304	131.021	0.242	0.305
-336.289	-11.553	-0.159	-0.103
-335.275	-136.658	-0.071	0.008
-334.260	243.985	0.118	0.194
-333.245	-57.248	0.041	0.018
-332.231	-200.000	0.035	0.227
-331.216	220.144	0.061	-0.096
-330.202	141.551	-0.177	0.230
-329.187	11.394	0.211	-0.159
-328.172	-200.000	-0.019	0.115
-327.158	-200.000	-0.022	0.111
-326.143	800.000	-0.051	0.191
-325.129	3.348	-0.057	0.041
-324.114	111.209	0.255	-0.302
-323.099	266.360	-0.197	-0.338
-322.085	-29.725	-0.159	0.089
-321.070	67.356	0.218	-0.218
-320.056	-200.000	-0.037	0.172
-319.041	334.695	-0.112	0.213
-318.026	-174.021	-0.120	-0.003
-317.012	763.959	0.130	-0.346
-315.997	219.637	0.194	-0.305
-314.983	13.133	0.299	0.227
-313.968	-67.537	-0.093	-0.036
-312.953	764.568	-0.066	-0.175
-311.939	209.219	0.110	-0.169
-310.924	8.137	0.142	-0.105
-309.910	800.000	0.046	-0.194
-308.895	271.323	-0.176	0.305
-307.880	800.000	-0.056	0.194
-306.866	20.795	0.166	-0.131
-305.851	19.827	-0.028	0.022
-304.837	-92.043	-0.048	-0.013
-303.822	800.000	-0.061	-0.201
-302.807	0.336	-0.055	0.039
-301.793	-103.166	0.391	-0.091
-300.778	800.000	-0.031	0.129
-299.764	-67.853	0.253	-0.097
-298.749	5.907	-0.615	-0.446
-297.735	-160.479	0.228	0.012
-296.720	-200.000	0.010	0.168
-295.705	106.749	0.099	0.115
-294.691	253.466	-0.048	0.081
-293.676	-200.000	0.002	0.253
-292.662	109.757	-0.059	0.069
-291.647	-200.000	-0.128	0.573
-290.632	-200.000	0.032	-0.248
-289.618	-88.745	0.196	0.057
-288.603	14.952	-0.070	-0.054
-287.589	-147.024	-0.272	0.023
-286.574	-181.014	0.436	-0.009
-285.559	-125.361	0.357	0.053
-284.545	-40.756	-0.208	-0.105
-283.530	800.000	-0.046	0.149
-282.516	-74.799	-0.067	0.023
-281.501	-53.096	-0.364	-0.164
-280.486	-183.399	0.181	-0.003
-279.472	-200.000	-0.013	-0.195
-278.457	7.432	0.173	-0.127
-277.443	74.070	-0.176	-0.181
-276.428	-76.651	0.108	-0.037
-275.413	206.028	0.164	0.249
-274.399	-73.760	-0.375	0.134
-273.384	-200.000	-0.026	0.158
-272.370	800.000	0.067	0.279
-271.355	184.500	-0.206	0.299
-270.340	-88.032	0.081	0.024
-269.326	65.012	-0.348	-0.345
-268.311	-90.706	0.271	0.077
-267.297	-162.181	-0.337	-0.017
-266.282	-200.000	0.005	0.232
-265.267	360.045	0.135	0.264
-264.253	-20.250	-0.345	-0.208
-263.238	800.000	0.075	-0.216
-262.224	-90.993	0.216	0.061
-261.209	-200.000	-0.001	0.051
-260.195	-42.641	-0.336	-0.167
-259.180	276.259	0.088	-0.153
-258.165	185.415	0.064	-0.093
-257.151	-89.175	0.316	-0.091
-256.136	-200.000	-0.019	0.304
-255.122	346.443	0.124	-0.238
-254.107	103.520	-0.078	0.090
-253.092	50.389	-0.142	-0.131
-252.078	19.945	-0.105	0.083
-251.063	-200.000	0.004	-0.047
-250.049	-200.000	0.004	0.136
-249.034	-50.424	-0.449	0.207
-248.019	-156.429	0.150	-0.009
-247.005	-46.056	-0.367	-0.177
-245.990	-73.647	0.357	-0.127
-244.976	-200.000	0.019	-0.303
-243.961	45.824	0.188	0.170
-242.946	-128.318	0.100	0.014
-241.932	-56.960	-0.130	0.056
-240.917	0.209	-0.082	0.057
-239.903	18.391	0.181	0.141
-238.888	31.408	0.185	0.155
-237.873	126.505	-0.122	-0.151
-236.859	464.426	0.126	0.275
-235.844	-38.628	0.051	-0.027
-234.830	3.767	-0.126	0.090
-233.815	-93.004	0.273	0.074
-232.800	-80.957	-0.291	0.094
-231.786	-5.653	-0.336	-0.225
-230.771	8.733	0.337	0.248
-229.757	32.879	-0.165	0.140
-228.742	-200.000	-0.046	-0.222
-227.727	-144.873	-0.141	-0.013
-226.713	-169.642	0.399	-0.014
-225.698	398.444	0.124	-0.254
-224.684	-15.753	-0.030	0.019
-223.669	792.209	-0.143	-0.385
-222.655	-200.000	0.004	0.088
-221.640	132.013	0.256	-0.322
-220.625	-200.000	0.042	-0.353
-219.611	800.000	0.053	0.203
-218.596	3.926	-0.320	0.228
-217.582	800.000	0.108	-0.312
-216.567	-111.393	0.251	-0.050
-215.552	-200.000	-0.058	-0.465
-214.538	-180.075	-0.163	0.003
-213.523	1.289	-0.179	0.125
-212.509	-96.952	-0.182	-0.046
-211.494	52.835	0.307	-0.287
-210.479	800.000	-0.040	0.132
-209.465	-200.000	0.040	-0.221
-208.450	-157.504	0.236	-0.014
-207.436	104.359	0.121	-0.139
-206.421	-200.000	0.010	0.050
-205.406	-140.939	0.169	0.017
-204.392	33.847	0.117	-0.100
-203.377	-117.184	0.255	-0.045
-202.363	-200.000	0.033	0.158
-201.348	13.643	-0.164	-0.124
-200.333	-14.120	0.120	-0.076
-199.319	-153.331	-0.054	-0.004
-198.304	800.000	0.040	-0.169
-197.290	26.553	0.122	0.100
-196.275	114.823	0.216	-0.257
-195.260	383.431	0.087	-0.174
-194.246	-11.956	0.119	-0.076
-193.231	-200.000	0.010	0.290
-192.217	112.302	0.188	-0.222
-191.202	-50.807	-0.322	0.148
-190.187	-200.000	-0.069	-0.628
-189.173	246.163	0.077	0.126
-188.158	-124.669	-0.107	0.016
-187.144	-200.000	0.025	-0.143
-186.129	410.254	-0.060	0.123
-185.114	175.944	-0.137	0.195
-184.100	343.556	0.152	-0.290
-183.085	80.562	0.101	0.106
-182.071	-93.308	0.178	-0.048
-181.056	-117.133	0.434	-0.077
-180.042	9.886	0.164	0.121
-179.027	310.513	-0.047	-0.086
-178.012	188.128	0.284	-0.415
-176.998	195.335	0.176	-0.260
-175.983	263.628	-0.077	-0.130
-174.969	184.437	0.171	0.247
-173.954	44.379	0.088	0.079
-172.939	-33.291	-0.244	0.132
-171.925	800.000	-0.074	0.253
-170.910	-200.000	0.047	0.308
-169.896	-200.000	-0.011	-0.323
-168.881	501.621	-0.019	0.042
-167.866	800.000	0.137	0.384
-166.852	154.335	-0.159	-0.213
-165.837	-200.000	-0.015	-0.139
-164.823	387.450	-0.096	-0.194
-163.808	20.064	-0.099	-0.078
-162.793	-200.000	0.027	0.124
-161.779	-18.340	0.071	-0.043
-160.764	196.710	0.059	-0.087
-159.750	-200.000	0.019	-0.241
-158.735	79.823	-0.195	-0.204
-157.720	25.635	0.068	-0.055
-156.706	82.798	0.090	0.095
-155.691	-67.218	0.155	0.060
-154.677	-50.390	-0.154	0.071
-153.662	254.408	0.166	-0.277
-152.647	41.123	0.305	-0.269
-151.633	-200.000	-0.014	-0.070
-150.618	-1.668	0.224	-0.154
-149.604	604.423	-0.111	0.269
-148.589	336.791	-0.056	0.106
-147.574	326.699	-0.130	0.242
-146.560	-93.327	0.182	-0.049
-145.545	152.903	0.184	0.245
-144.531	-200.000	0.019	0.141
-143.516	-200.000	-0.001	0.029
-142.502	-52.274	0.362	-0.163
-141.487	382.540	-0.085	0.171
-140.472	98.752	-0.173	-0.195
-139.458	696.242	-0.065	0.166
-138.443	800.000	0.032	0.094
-137.429	-66.400	-0.128	0.050
-136.414	-200.000	0.023	0.172
-135.399	-200.000	-0.045	0.285
-134.385	-43.322	0.117	-0.058
-133.370	135.347	0.237	-0.300
-132.356	398.690	0.094	0.192
-131.341	381.624	0.084	0.168
-130.326	-200.000	-0.044	0.192
-129.312	111.359	0.329	0.387
-128.297	246.802	0.133	-0.218
-127.283	800.000	0.074	0.266
-126.268	315.480	-0.126	-0.231
-125.253	-76.512	-0.299	-0.102
-124.239	-200.000	-0.012	-0.205
-123.224	545.858	0.076	0.176
-122.210	34.401	0.054	-0.046
-121.195	-200.000	-0.014	0.360
-120.180	-200.000	-0.035	0.193
-119.166	-200.000	0.001	-0.240
-118.151	800.000	0.036	0.112
-117.137	800.000	0.018	0.059
-116.122	800.000	-0.072	0.198
-115.107	-23.985	0.107	0.062
-114.093	-140.684	0.403	0.041
-113.078	-80.306	-0.178	0.058
-112.064	800.000	0.026	-0.073
-111.049	-18.778	-0.164	-0.099
-110.034	-70.244	0.219	-0.081
-109.020	110.672	-0.186	0.218
-108.005	-58.432	0.178	-0.075
-106.991	253.319	-0.120	-0.199
-105.976	800.000	-0.078	0.220
-104.962	117.091	-0.172	0.205
-103.947	-111.161	0.082	-0.016
-102.932	755.100	0.104	0.275
-101.918	800.000	-0.065	-0.249
-100.903	-200.000	0.019	-0.087
-99.889	-200.000	-0.009	-0.054
-98.874	159.795	0.226	-0.306
-97.859	-200.000	0.035	0.256
-96.845	31.739	-0.191	0.160
-95.830	-192.990	0.371	-0.003
-94.816	-45.750	0.205	0.098
-93.801	-200.000	0.005	-0.167
-92.786	259.294	0.128	0.215
-91.772	515.362	0.030	-0.069
-90.757	-112.150	0.294	-0.057
-89.743	-14.766	0.198	-0.124
-88.728	800.000	-0.131	0.427
-87.713	482.257	-0.076	0.168
-86.699	-122.660	0.110	-0.017
-85.684	237.596	0.249	-0.401
-84.670	-33.812	0.261	-0.140
-83.655	264.923	-0.101	0.171
-82.640	800.000	0.042	0.161
-81.626	-8.450	-0.074	0.048
-80.611	800.000	-0.029	0.083
-79.597	-23.470	0.239	0.139
-78.582	-34.329	0.223	-0.119
-77.567	-93.763	-0.205	-0.055
-76.553	-30.780	0.079	-0.043
-75.538	-14.696	0.119	0.074
-74.524	37.335	0.148	0.127
-73.509	-200.000	0.016	0.081
-72.494	53.514	-0.174	-0.162
-71.480	135.098	0.359	-0.453
-70.465	-160.137	-0.368	0.019
-69.451	143.947	-0.269	0.349
-68.436	800.000	0.084	0.313
-67.422	-40.807	0.281	0.141
-66.407	-111.706	-0.113	-0.022
-65.392	-112.296	0.118	0.023
-64.378	787.450	0.099	0.263
-63.363	800.000	0.059	0.222
-62.349	800.000	-0.095	0.283
-61.334	155.425	-0.812	-1.086
-60.319	52.598	0.966	0.896
-59.305	519.177	-0.642	-1.461
-58.290	224.686	1.004	1.576
-57.276	352.899	0.792	1.526
-56.261	-200.000	129.688	634.116
-55.246	350.289	1645.666	3158.681
-54.232	132.713	2822.818	3536.074
-53.217	84.487	2335.758	2481.119
-52.203	30.942	1926.543	1602.796
-51.188	24.703	1718.374	1381.516
-50.173	22.670	1679.354	1334.725
-49.159	44.065	1750.616	1557.958
-48.144	41.291	1761.680	1546.261
-47.130	24.362	1711.687	1373.296
-46.115	21.888	1695.829	1341.627
-45.100	21.685	1691.145	1336.319
-44.086	21.659	1688.550	1334.016
-43.071	21.682	1685.839	1331.992
-42.057	21.631	1684.367	1330.389
-41.042	21.658	1681.738	1328.464
-40.027	21.674	1679.908	1327.093
-39.013	21.657	1677.949	1325.363
-37.998	21.659	1676.537	1324.208
-36.984	21.755	1674.898	1323.589
-35.969	21.827	1673.514	1322.982
-34.954	21.821	1671.846	1321.565
-33.940	21.771	1670.037	1319.709
-32.925	21.737	1668.670	1318.319
-31.911	21.781	1666.734	1317.069
-30.896	21.825	1664.947	1315.935
-29.881	21.782	1663.594	1314.493
-28.867	21.790	1662.432	1313.583
-27.852	21.795	1660.571	1312.093
-26.838	21.776	1659.252	1310.860
-25.823	21.814	1657.338	1309.579
-24.809	21.831	1656.580	1309.053
-23.794	21.800	1655.114	1307.613
-22.779	21.872	1653.312	1306.675
-21.765	21.859	1652.281	1305.710
-20.750	21.809	1650.412	1303.812
-19.736	21.879	1649.015	1303.175
-18.721	21.925	1647.337	1302.135
-17.706	21.820	1646.299	1300.490
-16.692	21.797	1644.701	1299.003
-15.677	21.842	1643.704	1298.495
-14.663	21.896	1642.660	1298.019
-13.648	21.926	1640.337	1296.357
-12.633	21.828	1638.830	1294.387
-11.619	21.830	1637.514	1293.313
-10.604	21.858	1635.985	1292.258
-9.590	21.877	1634.728	1291.356
-8.575	21.821	1633.248	1289.722
-7.560	21.874	1632.177	1289.217
-6.546	21.885	1631.082	1288.382
-5.531	21.827	1630.067	1287.104
-4.517	21.853	1629.045	1286.437
-3.502	21.795	1628.139	1285.246
-2.487	21.945	1625.933	1284.550
-1.473	21.725	1614.374	1273.768
-0.458	19.443	1596.226	1242.974
0.556	15.149	1599.534	1216.793
1.571	13.404	1625.012	1223.176
2.586	13.050	1636.587	1229.142
3.600	12.043	1580.853	1179.936
4.615	6.685	1473.584	1063.733
5.629	1.557	1415.359	988.353
6.644	0.721	1408.229	977.878
7.659	0.594	1407.160	976.231
8.673	0.569	1406.413	975.461
9.688	0.486	1404.090	973.229
10.702	0.490	1400.689	970.810
11.717	2.902	1404.379	988.829
12.731	9.150	1413.709	1035.703
13.746	14.845	1421.888	1078.445
14.761	16.847	1424.873	1093.545
15.775	16.478	1422.936	1089.582
16.790	15.563	1420.010	1081.360
17.804	14.675	1418.297	1074.249
18.819	14.438	1416.298	1071.116
19.834	14.142	1415.224	1068.305
20.848	14.020	1413.762	1066.325
21.863	13.638	1413.008	1063.212
22.877	13.409	1411.658	1060.636
23.892	13.358	1410.583	1059.410
24.907	13.375	1409.492	1058.606
25.921	13.478	1408.762	1058.621
26.936	13.460	1407.491	1057.460
27.950	13.503	1406.867	1057.168
28.965	13.494	1406.134	1056.469
29.980	13.617	1405.013	1056.314
30.994	13.617	1403.811	1055.318
32.009	13.672	1402.777	1054.801
33.023	13.572	1402.510	1053.871
34.038	13.664	1400.512	1052.856
35.053	13.546	1399.944	1051.589
36.067	13.665	1398.337	1051.041
37.082	13.511	1397.540	1049.377
38.096	13.612	1396.446	1049.102
39.111	13.588	1395.900	1048.443
40.126	13.562	1394.528	1047.156
41.140	13.573	1393.815	1046.598
42.155	13.406	1393.217	1045.006
43.169	13.407	1393.937	1045.457
44.184	13.462	1393.042	1045.041
45.199	13.482	1392.575	1044.725
46.213	13.416	1392.308	1044.016
47.228	13.492	1390.941	1043.377
48.242	13.503	1389.707	1042.428
49.257	13.540	1388.460	1041.630
50.271	13.525	1386.938	1040.307
51.286	13.582	1385.293	1039.334
52.301	13.517	1384.345	1038.125
53.315	13.552	1382.696	1037.017
54.330	13.467	1382.184	1036.010
55.344	13.386	1381.178	1034.658
56.359	13.407	1379.806	1033.671
57.374	13.415	1378.947	1032.983
58.388	13.332	1378.498	1032.034
59.403	13.369	1377.636	1031.529
60.417	13.389	1377.004	1031.094
61.432	13.303	1376.223	1029.879
62.447	13.344	1374.773	1028.960
63.461	13.316	1373.802	1027.968
64.476	13.297	1372.696	1026.928
65.490	13.363	1371.313	1026.215
66.505	13.397	1369.276	1024.808
67.520	13.403	1368.358	1024.069
68.534	13.426	1367.144	1023.213
69.549	13.464	1366.055	1022.540
70.563	13.418	1364.952	1021.339
71.578	13.413	1363.886	1020.422
72.593	13.267	1363.267	1018.971
73.607	13.196	1362.345	1017.752
74.622	13.258	1361.679	1017.546
75.636	13.296	1361.159	1017.300
76.651	13.403	1360.051	1017.043
77.666	13.277	1359.168	1015.515
78.680	13.259	1358.796	1015.039
79.695	13.302	1357.750	1014.430
80.709	13.283	1357.009	1013.670
81.724	13.291	1356.198	1013.025
82.739	13.392	1355.187	1012.799
83.753	13.420	1354.219	1012.157
84.768	13.507	1352.506	1011.319
85.782	13.518	1351.598	1010.618
86.797	13.503	1350.492	1009.612
87.812	13.503	1348.971	1008.381
88.826	13.525	1348.101	1007.778
89.841	13.449	1346.838	1006.284
90.855	13.524	1345.899	1005.947
91.870	13.492	1344.923	1004.932
92.884	13.427	1344.569	1004.184
93.899	13.559	1343.197	1003.870
94.914	13.599	1342.486	1003.496
95.928	13.658	1341.128	1002.748
96.943	13.609	1340.897	1002.188
97.957	13.597	1340.101	1001.434
98.972	13.593	1338.828	1000.373
99.987	13.564	1337.631	999.211
101.001	13.548	1336.592	998.249
102.016	13.548	1335.681	997.482
103.030	13.634	1334.269	996.856
104.045	13.605	1333.507	996.023
105.060	13.523	1332.417	994.631
106.074	13.579	1331.366	994.095
107.089	13.522	1329.983	992.629
108.103	13.485	1328.574	991.270
109.118	13.350	1327.655	989.691
110.133	13.443	1326.031	988.944
111.147	13.492	1324.295	987.856
112.162	13.492	1323.184	986.940
113.176	13.502	1322.151	986.143
114.191	13.736	1320.758	986.408
115.206	13.528	1319.790	984.359
116.220	13.515	1318.435	983.184
117.235	13.451	1317.825	982.268
118.249	13.602	1316.262	981.907
119.264	13.479	1315.137	980.255
120.279	13.434	1314.703	979.577
121.293	13.414	1313.088	978.171
122.308	13.348	1312.617	977.341
123.322	13.502	1310.789	976.806
124.337	13.417	1310.315	975.862
125.352	13.471	1308.687	974.882
126.366	13.517	1307.529	974.204
127.381	13.444	1306.728	973.089
128.395	13.447	1305.302	971.963
129.410	13.387	1304.357	970.822
130.424	13.506	1303.305	970.647
131.439	13.474	1302.814	970.007
132.454	13.662	1301.097	969.746
133.468	13.691	1299.856	968.905
134.483	13.439	1299.976	967.434
135.497	13.459	1299.510	967.120
136.512	13.450	1297.688	965.627
137.527	13.540	1295.537	964.462
138.541	13.465	1294.527	963.186
139.556	13.533	1293.399	962.661
140.570	13.572	1292.456	962.102
141.585	13.570	1290.912	960.852
142.600	13.637	1289.732	960.280
143.614	13.654	1288.523	959.394
144.629	13.753	1287.321	958.985
145.643	13.746	1286.038	957.905
146.658	13.665	1285.055	956.616
147.673	13.637	1283.718	955.377
148.687	13.574	1282.494	954.021
149.702	13.668	1281.230	953.532
150.716	13.504	1280.198	951.743
151.731	13.715	1278.662	951.727
152.746	13.747	1277.249	950.770
153.760	13.765	1276.434	950.188
154.775	13.724	1275.466	949.147
155.789	13.714	1274.406	948.218
156.804	13.866	1273.010	947.960
157.819	13.857	1271.742	946.880
158.833	13.863	1270.943	946.240
159.848	13.764	1270.460	945.229
160.862	13.936	1269.362	945.312
161.877	13.641	1268.582	942.966
162.892	13.733	1266.985	942.219
163.906	13.789	1266.131	941.817
164.921	13.798	1265.271	941.148
165.935	13.829	1264.415	940.600
166.950	13.851	1263.628	940.059
167.964	13.865	1262.658	939.331
168.979	13.905	1261.791	938.829
169.994	13.884	1261.150	938.150
171.008	13.869	1260.469	937.477
172.023	13.901	1259.814	937.088
173.037	13.994	1258.399	936.478
174.052	13.962	1257.398	935.468
175.067	13.881	1256.953	934.601
176.081	13.876	1255.705	933.557
177.096	13.843	1254.964	932.739
178.110	14.011	1253.187	932.281
179.125	13.880	1252.547	930.989
180.140	14.001	1250.798	930.282
181.154	13.932	1249.622	928.942
182.169	14.089	1248.375	928.805
183.183	14.116	1247.201	928.001
184.198	13.996	1245.832	926.231
185.213	14.097	1244.916	926.030
186.227	14.083	1244.043	925.222
187.242	14.193	1242.802	924.830
188.256	14.129	1242.022	923.812
189.271	14.218	1240.988	923.453
190.286	14.120	1239.528	921.745
191.300	13.991	1239.208	920.710
192.315	13.970	1238.355	919.875
193.329	14.010	1237.378	919.294
194.344	14.081	1236.728	919.122
195.359	14.112	1236.554	919.078
196.373	14.049	1235.781	918.078
197.388	14.192	1235.261	918.398
198.402	14.125	1234.720	917.547
199.417	14.350	1234.017	918.181
200.432	14.268	1232.927	916.840
201.446	14.302	1231.877	916.167
202.461	14.324	1230.972	915.532
203.475	14.355	1230.143	915.004
204.490	14.312	1229.606	914.286
205.504	14.352	1227.877	913.142
206.519	14.328	1226.730	912.077
207.534	14.428	1225.123	911.347
208.548	14.387	1224.520	910.595
209.563	14.382	1223.620	909.816
210.577	14.440	1222.869	909.492
211.592	14.414	1222.290	908.841
212.607	14.425	1221.302	908.084
213.621	14.469	1220.066	907.327
214.636	14.492	1219.364	906.847
215.650	14.555	1218.649	906.575
216.665	14.551	1217.424	905.564
217.680	14.655	1216.394	905.285
218.694	14.537	1215.594	903.970
219.709	14.463	1215.504	903.418
220.723	14.624	1214.150	903.203
221.738	14.549	1213.596	902.307
222.753	14.529	1212.827	901.545
223.767	14.607	1212.116	901.361
224.782	14.686	1210.923	900.821
225.796	14.565	1211.397	900.441
226.811	14.645	1210.605	900.203
227.826	14.605	1209.307	898.944
228.840	14.808	1208.294	899.203
229.855	14.738	1207.258	897.975
230.869	14.725	1206.529	897.285
231.884	14.704	1205.659	896.447
232.899	14.759	1205.357	896.437
233.913	14.709	1204.431	895.399
234.928	14.613	1203.754	894.300
235.942	14.649	1202.732	893.658
236.957	14.795	1201.922	893.760
237.972	14.706	1201.820	893.127
238.986	14.744	1200.821	892.508
240.001	14.732	1200.300	891.978
241.015	14.766	1199.228	891.283
242.030	14.848	1198.472	891.079
243.045	14.765	1197.908	890.140
244.059	14.909	1197.022	890.171
245.074	14.887	1195.820	889.078
246.088	14.800	1194.994	887.927
247.103	14.914	1194.136	887.814
248.117	14.930	1193.647	887.455
249.132	15.016	1193.092	887.423
250.147	14.977	1191.949	886.287
251.161	14.993	1191.206	885.740
252.176	15.130	1190.602	885.939
253.190	15.112	1190.037	885.341
254.205	15.139	1189.428	884.957
255.220	15.153	1188.794	884.477
256.234	15.164	1187.929	883.812
257.249	15.159	1187.341	883.274
258.263	15.251	1186.426	882.998
259.278	15.259	1185.873	882.550
260.293	15.227	1186.055	882.440
261.307	15.273	1184.881	881.732
262.322	15.221	1184.302	880.950
263.336	15.372	1183.488	881.055
264.351	15.308	1182.844	880.167
265.366	15.261	1182.332	879.460
266.380	15.379	1181.688	879.518
267.395	15.357	1180.467	878.421
268.409	15.339	1179.973	877.877
269.424	15.496	1179.089	877.966
270.439	15.374	1179.070	877.235
271.453	15.401	1178.378	876.784
272.468	15.362	1177.193	875.619
273.482	15.431	1176.158	875.133
274.497	15.355	1175.705	874.322
275.512	15.362	1175.273	873.959
276.526	15.444	1174.189	873.503
277.541	15.490	1173.097	872.852
278.555	15.552	1172.416	872.592
279.570	15.525	1171.894	871.987
280.585	15.550	1171.127	871.468
281.599	15.553	1170.120	870.659
282.614	15.671	1169.195	870.504
283.628	15.572	1168.005	869.026
284.643	15.583	1167.105	868.338
285.657	15.584	1166.665	867.936
286.672	15.656	1165.404	867.296
287.687	15.588	1164.161	865.941
288.701	15.816	1163.244	866.358
289.716	15.642	1163.018	865.217
290.730	15.794	1161.749	864.980
291.745	15.803	1161.240	864.568
292.760	15.589	1161.209	863.370
293.774	15.850	1160.332	863.983
294.789	15.789	1159.942	863.301
295.803	15.827	1159.072	862.776
296.818	15.756	1158.176	861.664
297.833	15.706	1157.367	860.729
298.847	15.783	1156.558	860.446
299.862	15.826	1155.464	859.780
300.876	15.849	1154.972	859.455
301.891	15.875	1154.642	859.264
302.906	15.867	1153.712	858.457
303.920	15.790	1153.805	858.053
304.935	16.108	1151.922	858.198
305.949	16.015	1151.642	857.437
306.964	16.082	1150.719	857.015
307.979	16.043	1150.335	856.459
308.993	16.019	1149.378	855.548
310.008	16.036	1148.705	855.055
311.022	16.098	1147.757	854.591
312.037	16.190	1147.140	854.523
313.052	16.070	1145.832	852.863
314.066	16.056	1144.835	851.976
315.081	16.011	1144.392	851.342
316.095	16.042	1143.456	850.727
317.110	16.018	1142.963	850.164
318.125	16.077	1142.196	849.816
319.139	16.031	1141.218	848.781
320.154	16.057	1140.795	848.524
321.168	15.996	1140.538	847.952
322.183	16.002	1139.419	847.074
323.197	16.122	1139.063	847.336
324.212	16.178	1138.330	847.000
325.227	16.150	1138.065	846.585
326.241	16.192	1137.023	845.945
327.256	16.251	1135.932	845.355
328.270	16.181	1135.160	844.356
329.285	16.164	1134.244	843.513
330.300	16.224	1132.931	842.765
331.314	16.222	1132.379	842.267
332.329	16.208	1131.443	841.425
333.343	16.113	1130.761	840.369
334.358	16.245	1129.951	840.352
335.373	16.293	1129.484	840.168
336.387	16.445	1127.709	839.529
337.402	16.351	1127.690	838.972
338.416	16.329	1126.874	838.185
339.431	16.380	1126.257	837.904
340.446	16.385	1125.532	837.315
341.460	16.516	1124.469	837.101
342.475	16.588	1123.570	836.710
343.489	16.585	1122.545	835.863
344.504	16.455	1122.183	834.872
345.519	16.631	1120.867	834.689
346.533	16.678	1120.135	834.303
347.548	16.529	1119.391	832.938
348.562	16.647	1118.883	833.068
349.577	16.603	1118.319	832.358
350.592	16.606	1117.138	831.421
351.606	16.551	1116.307	830.459
352.621	16.598	1115.734	830.190
353.635	16.541	1115.317	829.528
354.650	16.563	1114.380	828.866
355.665	16.659	1113.324	828.477
356.679	16.751	1112.580	828.297
357.694	16.617	1112.311	827.370
358.708	16.604	1112.099	827.075
359.723	16.669	1111.191	826.644
360.738	16.762	1110.273	826.343
361.752	16.724	1109.860	825.778
362.767	16.897	1108.736	825.709
363.781	16.791	1108.720	825.107
364.796	16.818	1108.211	824.789
365.810	16.932	1106.972	824.346
366.825	16.812	1106.867	823.611
367.840	16.908	1106.327	823.605
368.854	16.965	1105.404	823.123
369.869	17.074	1104.804	823.128
370.883	16.884	1103.543	821.195
371.898	16.937	1103.205	821.128
372.913	16.966	1102.551	820.710
373.927	16.969	1102.173	820.372
374.942	17.042	1101.268	819.980
375.956	17.060	1101.002	819.796
376.971	16.926	1100.533	818.725
377.986	17.014	1100.002	818.681
379.000	17.081	1099.365	818.461
380.015	17.018	1098.528	817.462
381.029	17.235	1097.819	817.905
382.044	17.142	1097.278	816.981
383.059	17.214	1096.525	816.693
384.073	17.193	1095.863	816.029
385.088	17.241	1094.626	815.265
386.102	17.283	1093.547	814.593
387.117	17.211	1092.658	813.513
388.132	17.203	1091.817	812.774
389.146	17.157	1090.973	811.856
390.161	17.079	1090.501	811.060
391.175	17.380	1089.377	811.589
392.190	17.367	1088.921	811.117
393.205	17.380	1087.961	810.388
394.219	17.266	1087.361	809.327
395.234	17.236	1086.350	808.362
396.248	17.306	1085.340	807.872
397.263	17.379	1084.474	807.504
398.278	17.293	1083.853	806.560
399.292	17.369	1083.021	806.230
400.307	17.304	1082.074	805.147
401.321	17.298	1081.736	804.793
402.336	17.224	1081.324	804.065
403.350	17.225	1080.906	803.690
404.365	17.375	1079.964	803.628
405.380	17.253	1079.534	802.661
406.394	17.383	1078.487	802.425
407.409	17.450	1077.211	801.719
408.423	17.519	1076.668	801.569
409.438	17.429	1076.050	800.616
410.453	17.501	1075.440	800.429
411.467	17.494	1074.842	799.881
412.482	17.486	1073.835	799.021
413.496	17.520	1073.306	798.716
414.511	17.481	1072.645	797.969
415.526	17.627	1072.247	798.287
416.540	17.717	1071.843	798.336
417.555	17.700	1071.227	797.729
418.569	17.784	1070.351	797.401
419.584	17.742	1070.181	797.005
420.599	17.730	1069.569	796.426
421.613	108.668	1332.279	1489.180
422.628	100.576	1370.500	1489.262
