DTS Sentinel unit serial number:	SN413079Multiplexer serial number:	ORYXHardware model number:	OX4-SRSoftware version number:	ORYX F/W v4.00 Oryx Data Collector v3.7.2.0data status	okinstallation	princeton_trtdifferential loss correction	single-endedforward channel	channel 2reverse channel	N/Adate	2019/09/15time	05:27:34forward acquisition time	60.00reverse acquisition time	0.00gamma	496.2192k internal	0.2326k external	0.2326temperature offset calibration	1.0034default loss term (dB/km)	0.3790temperature slope calibration	1.0000multiplexer offset coefficient	1.0000multiplexer slope coefficient	1.0000fibre end	0.00T internal ref (°C)	30.58T ext. ref 1 (°C)	4.76T ext. ref 2 (°C)	25.68length (m)	temperature (°C)	Stokes	anti-Stokes-747.200	406.639	0.148	-0.316
-746.185	275.597	-0.105	0.188
-745.171	800.000	0.055	-0.155
-744.156	133.806	-0.073	-0.095
-743.142	-138.506	-0.111	0.012
-742.127	-154.013	-0.349	0.024
-741.112	81.341	-0.156	-0.170
-740.098	-55.752	-0.089	-0.040
-739.083	-48.247	-0.111	0.054
-738.069	6.186	-0.214	0.160
-737.054	-200.000	0.100	-0.452
-736.039	144.837	0.096	0.130
-735.025	800.000	0.028	0.094
-734.010	-200.000	-0.001	0.145
-732.996	67.838	-0.184	0.189
-731.981	-200.000	-0.007	-0.152
-730.966	-200.000	-0.034	0.162
-729.952	-200.000	-0.019	-0.255
-728.937	-200.000	-0.024	0.127
-727.923	-200.000	-0.112	-0.560
-726.908	-41.209	-0.133	0.069
-725.894	-90.833	0.175	0.051
-724.879	-200.000	0.048	0.329
-723.864	-151.967	-0.229	0.017
-722.850	36.500	0.156	-0.139
-721.835	-46.879	-0.264	-0.130
-720.821	-90.576	-0.148	-0.043
-719.806	25.887	-0.184	0.154
-718.791	3.567	0.110	-0.081
-717.777	276.296	-0.153	-0.274
-716.762	-26.896	-0.223	0.131
-715.748	562.589	0.088	-0.215
-714.733	-0.296	-0.196	-0.140
-713.718	-200.000	0.001	0.039
-712.704	-181.642	-0.269	-0.005
-711.689	438.690	-0.054	0.120
-710.675	-200.000	0.026	0.123
-709.660	-200.000	-0.050	-0.281
-708.645	-172.016	0.338	-0.011
-707.631	-41.232	-0.290	-0.151
-706.616	29.041	0.192	0.164
-705.602	763.079	-0.065	0.178
-704.587	245.930	0.153	0.260
-703.572	-7.761	-0.106	0.072
-702.558	-200.000	-0.005	0.036
-701.543	-26.054	-0.256	0.152
-700.529	144.959	-0.138	0.186
-699.514	800.000	0.058	-0.194
-698.499	-200.000	0.020	0.117
-697.485	-90.142	0.056	-0.017
-696.470	23.707	0.212	-0.176
-695.456	642.598	-0.051	-0.130
-694.441	56.022	-0.102	0.100
-693.426	-78.354	-0.178	0.061
-692.412	-112.815	-0.183	-0.037
-691.397	317.324	0.146	0.277
-690.383	1.754	0.165	0.120
-689.368	123.454	-0.268	0.339
-688.354	-121.341	0.277	0.047
-687.339	-69.589	0.114	-0.044
-686.324	-200.000	0.001	0.145
-685.310	-51.048	0.318	0.150
-684.295	-40.586	0.410	-0.214
-683.281	760.255	0.035	-0.096
-682.266	-52.772	-0.265	-0.123
-681.251	152.101	0.210	-0.289
-680.237	800.000	0.044	0.161
-679.222	800.000	-0.048	-0.143
-678.208	132.483	0.251	-0.326
-677.193	-32.680	0.454	-0.254
-676.178	-128.549	0.041	0.006
-675.164	-25.766	0.225	0.134
-674.149	-14.156	-0.416	-0.270
-673.135	-120.772	0.231	0.039
-672.120	157.524	-0.331	0.461
-671.105	800.000	0.085	0.249
-670.091	-120.736	0.167	0.028
-669.076	-200.000	0.012	-0.064
-668.062	347.814	-0.109	0.216
-667.047	800.000	0.037	-0.123
-666.032	-99.896	-0.206	0.052
-665.018	800.000	-0.089	-0.275
-664.003	800.000	-0.023	-0.068
-662.989	-80.283	0.211	-0.071
-661.974	-163.039	-0.179	0.009
-660.959	-9.820	-0.423	-0.283
-659.945	-125.768	-0.202	-0.031
-658.930	-200.000	0.005	-0.076
-657.916	590.701	0.163	-0.403
-656.901	-200.000	0.012	-0.144
-655.886	-117.681	0.362	0.065
-654.872	800.000	0.016	-0.070
-653.857	-148.860	0.437	-0.035
-652.843	-87.815	-0.147	0.044
-651.828	-145.951	0.175	-0.016
-650.814	56.889	-0.180	-0.177
-649.799	-151.077	-0.010	-0.001
-648.784	-200.000	-0.015	-0.196
-647.770	-135.715	-0.571	0.068
-646.755	81.562	-0.306	0.332
-645.741	-107.135	-0.366	-0.081
-644.726	-200.000	0.079	-0.354
-643.711	-194.917	0.179	-0.001
-642.697	-4.326	-0.208	0.145
-641.682	26.443	0.216	-0.181
-640.668	800.000	-0.015	0.059
-639.653	19.102	-0.079	-0.064
-638.638	38.046	-0.265	-0.237
-637.624	1.629	-0.113	-0.081
-636.609	-10.034	-0.181	0.121
-635.595	-200.000	-0.027	-0.119
-634.580	531.831	0.063	0.151
-633.565	703.052	-0.055	0.146
-632.551	42.783	-0.201	-0.184
-631.536	298.714	-0.020	0.037
-630.522	182.626	0.075	-0.111
-629.507	73.945	0.280	0.295
-628.492	800.000	0.053	-0.164
-627.478	132.213	-0.091	0.118
-626.463	-200.000	-0.010	0.204
-625.449	800.000	-0.092	0.289
-624.434	341.770	0.065	0.127
-623.419	-18.357	-0.253	0.158
-622.405	20.973	0.254	0.206
-621.390	-89.344	0.111	-0.033
-620.376	800.000	-0.009	0.039
-619.361	125.876	-0.128	0.163
-618.346	143.858	0.079	-0.106
-617.332	800.000	0.120	-0.468
-616.317	139.418	0.245	-0.323
-615.303	-92.781	0.368	-0.103
-614.288	27.620	-0.182	0.153
-613.273	800.000	-0.087	-0.319
-612.259	-31.962	-0.422	0.237
-611.244	-30.484	-0.206	-0.117
-610.230	-200.000	-0.043	-0.334
-609.215	549.161	0.073	-0.176
-608.201	800.000	0.054	-0.217
-607.186	-8.682	0.178	-0.120
-606.171	-200.000	-0.041	0.249
-605.157	-78.390	-0.268	-0.092
-604.142	157.477	0.089	-0.124
-603.128	-18.119	0.081	0.051
-602.113	-151.342	-0.181	-0.014
-601.098	-30.491	-0.062	-0.035
-600.084	-200.000	-0.016	0.225
-599.069	-96.062	0.088	0.023
-598.055	87.958	-0.111	0.123
-597.040	144.569	-0.166	0.222
-596.025	-113.606	-0.045	-0.009
-595.011	-103.126	0.195	-0.046
-593.996	42.613	-0.179	0.163
-592.982	-48.500	0.294	-0.142
-591.967	104.055	-0.138	-0.163
-590.952	-72.964	-0.183	-0.067
-589.938	16.758	0.201	0.159
-588.923	-200.000	-0.026	-0.166
-587.909	605.787	0.061	-0.152
-586.894	234.890	0.074	-0.123
-585.879	800.000	-0.092	0.285
-584.865	-53.035	0.200	-0.092
-583.850	-117.522	-0.285	0.052
-582.836	29.736	-0.203	-0.174
-581.821	-76.279	-0.220	0.078
-580.806	203.111	-0.099	0.153
-579.792	-125.978	-0.079	0.012
-578.777	-27.962	0.275	0.159
-577.763	270.029	-0.052	-0.092
-576.748	-3.231	0.157	-0.109
-575.733	-57.121	-0.149	0.066
-574.719	-90.341	-0.201	-0.058
-573.704	199.762	0.173	-0.266
-572.690	121.549	-0.176	-0.220
-571.675	242.121	-0.118	-0.198
-570.661	-87.608	-0.379	-0.115
-569.646	265.832	-0.197	0.344
-568.631	-3.645	-0.342	0.238
-567.617	-114.285	-0.128	0.025
-566.602	-200.000	0.044	-0.256
-565.588	140.258	0.164	0.216
-564.573	69.800	-0.145	-0.149
-563.558	141.898	-0.217	-0.288
-562.544	3.694	-0.091	0.067
-561.529	-104.394	-0.103	-0.024
-560.515	800.000	0.058	0.249
-559.500	-75.563	-0.104	0.037
-558.485	-55.780	0.042	0.019
-557.471	82.348	-0.075	0.082
-556.456	-200.000	-0.031	-0.246
-555.442	-200.000	-0.006	0.032
-554.427	-131.707	-0.203	0.027
-553.412	87.279	0.111	-0.123
-552.398	129.598	0.100	-0.128
-551.383	-108.123	0.186	-0.040
-550.369	-60.379	0.221	0.094
-549.354	-92.559	0.074	0.021
-548.339	18.145	-0.250	0.200
-547.325	58.871	0.168	0.165
-546.310	489.414	-0.072	0.164
-545.296	214.115	-0.140	-0.221
-544.281	-54.175	-0.132	0.060
-543.266	-200.000	0.011	0.089
-542.252	-16.854	-0.136	0.086
-541.237	22.404	0.138	0.113
-540.223	655.043	0.058	-0.148
-539.208	-142.801	0.457	-0.045
-538.193	103.741	-0.348	-0.409
-537.179	-3.253	-0.169	0.118
-536.164	-200.000	0.008	0.132
-535.150	-200.000	-0.026	-0.166
-534.135	365.746	0.073	-0.147
-533.121	585.729	-0.022	-0.055
-532.106	-41.357	0.207	-0.107
-531.091	744.841	-0.078	0.209
-530.077	757.189	-0.131	0.356
-529.062	-112.166	0.238	0.048
-528.048	-124.162	0.091	0.014
-527.033	678.255	0.087	0.226
-526.018	117.735	0.061	-0.075
-525.004	-54.894	-0.016	-0.007
-523.989	-72.575	-0.396	-0.146
-522.975	800.000	-0.081	-0.238
-521.960	61.082	0.338	-0.335
-520.945	-152.374	-0.407	0.029
-519.931	800.000	-0.060	-0.205
-518.916	162.926	-0.049	0.069
-517.902	-200.000	-0.041	0.219
-516.887	121.680	0.176	-0.219
-515.872	800.000	0.111	0.375
-514.858	572.849	-0.027	-0.066
-513.843	-16.195	0.087	-0.055
-512.829	665.426	-0.057	0.147
-511.814	800.000	-0.123	-0.346
-510.799	465.299	0.151	0.338
-509.785	133.590	0.130	0.169
-508.770	800.000	0.063	0.175
-507.756	800.000	0.077	-0.248
-506.741	-58.022	0.260	-0.113
-505.726	-29.347	-0.039	0.022
-504.712	-29.977	-0.377	0.215
-503.697	-124.368	0.152	0.024
-502.683	-126.853	-0.324	-0.048
-501.668	-200.000	0.008	0.040
-500.653	-200.000	0.048	0.215
-499.639	121.426	-0.275	-0.342
-498.624	-200.000	-0.012	-0.392
-497.610	-81.134	0.416	0.137
-496.595	113.350	0.056	-0.068
-495.581	104.305	-0.225	-0.264
-494.566	56.101	-0.217	-0.210
-493.551	-44.925	0.206	0.103
-492.537	-55.246	-0.056	0.025
-491.522	-93.372	0.386	-0.107
-490.508	-161.792	0.162	-0.008
-489.493	-112.014	-0.102	-0.021
-488.478	613.101	0.112	-0.279
-487.464	-200.000	-0.040	-0.220
-486.449	77.408	0.154	-0.163
-485.435	-106.723	0.064	-0.014
-484.420	-87.444	0.056	-0.017
-483.405	113.756	0.047	-0.057
-482.391	-39.527	-0.234	0.122
-481.376	-0.782	0.070	0.049
-480.362	-200.000	0.028	-0.264
-479.347	-0.644	0.153	0.108
-478.332	31.759	-0.118	-0.102
-477.318	-100.086	0.241	-0.060
-476.303	-200.000	-0.028	-0.434
-475.289	377.395	0.158	-0.322
-474.274	-75.913	0.134	0.047
-473.259	-177.538	-0.095	0.002
-472.245	-59.161	0.143	0.061
-471.230	133.810	-0.031	0.039
-470.216	121.262	0.187	-0.233
-469.201	-200.000	0.030	-0.317
-468.186	210.287	-0.127	0.199
-467.172	-137.681	0.219	-0.025
-466.157	-149.323	0.234	0.019
-465.143	-87.697	0.330	-0.099
-464.128	619.467	0.113	0.283
-463.113	-77.112	0.157	-0.055
-462.099	-200.000	0.030	-0.212
-461.084	800.000	0.136	0.381
-460.070	-200.000	0.059	-0.485
-459.055	-127.873	0.159	0.023
-458.040	-177.246	-0.320	-0.008
-457.026	-31.970	-0.064	-0.035
-456.011	-200.000	0.006	-0.065
-454.997	113.928	0.148	-0.179
-453.982	-200.000	0.008	0.195
-452.968	-200.000	-0.015	-0.178
-451.953	68.194	0.343	-0.350
-450.938	-200.000	-0.028	0.152
-449.924	765.632	-0.015	0.041
-448.909	-15.197	0.194	0.124
-447.895	-142.588	0.268	-0.026
-446.880	-149.790	0.240	-0.019
-445.865	-92.399	-0.357	0.100
-444.851	-136.703	0.226	-0.026
-443.836	439.611	0.077	-0.169
-442.822	162.214	-0.196	-0.274
-441.807	49.242	0.224	0.210
-440.792	-200.000	0.045	-0.244
-439.778	5.422	0.217	-0.160
-438.763	-200.000	-0.057	0.463
-437.749	-135.248	0.048	-0.006
-436.734	-6.657	0.189	-0.128
-435.719	-84.174	0.123	0.039
-434.705	-200.000	0.005	-0.079
-433.690	17.645	0.125	-0.099
-432.676	92.289	0.147	0.165
-431.661	-80.577	0.227	-0.075
-430.646	-128.252	0.079	0.011
-429.632	-200.000	-0.025	0.188
-428.617	800.000	0.065	-0.207
-427.603	-61.794	-0.094	0.039
-426.588	-107.627	0.171	-0.037
-425.573	-200.000	-0.031	0.273
-424.559	356.079	0.029	-0.058
-423.544	69.877	-0.162	0.167
-422.530	-123.062	-0.256	-0.041
-421.515	113.211	-0.207	0.250
-420.500	437.644	0.186	0.403
-419.486	206.261	0.244	-0.378
-418.471	-69.391	0.236	-0.090
-417.457	114.274	0.092	0.112
-416.442	-200.000	-0.031	-0.165
-415.428	93.010	-0.070	0.078
-414.413	148.276	0.240	0.322
-413.398	622.440	0.043	-0.108
-412.384	-131.382	0.089	0.012
-411.369	-146.851	0.267	0.023
-410.355	310.428	-0.084	0.157
-409.340	800.000	-0.055	0.182
-408.325	-111.017	-0.285	-0.058
-407.311	3.827	0.221	0.161
-406.296	-200.000	-0.015	-0.096
-405.282	-29.299	0.144	-0.082
-404.267	-72.618	0.073	0.027
-403.252	344.064	-0.139	0.270
-402.238	-76.042	-0.125	0.044
-401.223	-69.144	0.063	-0.024
-400.209	95.707	-0.055	-0.063
-399.194	-83.320	0.183	0.059
-398.179	-17.964	-0.050	-0.031
-397.165	225.454	-0.114	-0.184
-396.150	-200.000	-0.028	0.391
-395.136	-200.000	0.031	0.213
-394.121	800.000	0.158	0.549
-393.106	94.346	0.392	0.443
-392.092	-200.000	-0.001	-0.369
-391.077	-125.646	0.264	-0.040
-390.063	-49.499	-0.270	-0.128
-389.048	-80.302	0.239	0.080
-388.033	-93.673	-0.021	-0.006
-387.019	-55.235	0.177	-0.079
-386.004	251.167	-0.235	-0.397
-384.990	-103.386	-0.228	0.053
-383.975	-144.192	-0.419	-0.039
-382.960	-92.691	-0.281	0.078
-381.946	-83.305	-0.180	0.057
-380.931	800.000	-0.084	-0.259
-379.917	-96.895	-0.225	0.059
-378.902	253.980	0.221	0.376
-377.888	105.131	-0.136	0.160
-376.873	-200.000	0.030	0.213
-375.858	91.684	0.163	0.182
-374.844	351.925	0.142	-0.280
-373.829	-113.071	0.260	0.051
-372.815	-169.912	-0.297	-0.011
-371.800	102.170	-0.221	0.257
-370.785	800.000	-0.067	-0.235
-369.771	-58.697	0.239	-0.103
-368.756	43.201	0.199	0.180
-367.742	4.710	0.167	0.122
-366.727	98.480	0.132	0.151
-365.712	-159.836	-0.140	-0.008
-364.698	-200.000	0.010	-0.178
-363.683	-114.760	-0.177	-0.034
-362.669	-112.624	0.369	0.073
-361.654	512.110	-0.117	0.271
-360.639	391.120	0.132	-0.272
-359.625	-200.000	-0.048	-0.281
-358.610	-137.206	-0.455	-0.052
-357.596	800.000	0.093	-0.379
-356.581	-123.159	-0.169	0.027
-355.566	-72.417	-0.040	-0.015
-354.552	-50.096	-0.145	0.068
-353.537	-80.738	-0.149	0.049
-352.523	241.852	0.086	0.143
-351.508	324.642	-0.117	0.221
-350.493	-120.418	-0.079	-0.013
-349.479	480.769	-0.053	-0.119
-348.464	-77.875	-0.268	-0.092
-347.450	-185.427	-0.211	0.003
-346.435	35.391	0.192	-0.167
-345.420	-56.540	0.171	-0.075
-344.406	16.638	-0.238	0.187
-343.391	-65.028	-0.112	-0.045
-342.377	800.000	0.136	-0.412
-341.362	485.710	0.037	0.083
-340.348	-67.477	0.222	0.087
-339.333	28.236	0.218	0.183
-338.318	52.586	0.309	0.293
-337.304	-100.360	0.124	-0.031
-336.289	-93.864	-0.204	-0.056
-335.275	46.925	-0.356	-0.328
-334.260	800.000	-0.050	-0.140
-333.245	800.000	0.092	0.340
-332.231	59.758	0.149	-0.146
-331.216	192.160	0.074	-0.110
-330.202	-200.000	-0.003	-0.115
-329.187	760.486	-0.073	0.196
-328.172	410.059	-0.112	0.235
-327.158	153.365	0.193	0.262
-326.143	-200.000	0.000	0.002
-325.129	-200.000	-0.004	0.414
-324.114	-77.431	0.343	0.118
-323.099	347.177	0.074	-0.144
-322.085	42.156	-0.077	0.069
-321.070	-109.726	0.140	0.029
-320.056	-200.000	0.037	0.243
-319.041	-5.104	-0.224	0.153
-318.026	118.453	-0.086	0.105
-317.012	-200.000	-0.017	0.247
-315.997	77.639	-0.393	0.415
-314.983	16.043	0.228	0.178
-313.968	260.953	0.058	0.100
-312.953	-130.385	-0.023	0.003
-311.939	-200.000	-0.041	-0.299
-310.924	56.657	0.062	0.060
-309.910	-60.586	0.121	0.051
-308.895	-78.058	-0.100	-0.034
-307.880	-30.928	-0.266	0.149
-306.866	92.832	0.090	0.100
-305.851	-200.000	-0.016	0.215
-304.837	100.493	-0.131	0.150
-303.822	-200.000	0.048	-0.409
-302.807	-143.316	0.407	0.039
-301.793	-59.528	-0.243	-0.104
-300.778	185.467	-0.110	0.162
-299.764	798.587	-0.039	0.105
-298.749	168.883	0.126	0.178
-297.735	138.086	0.101	0.132
-296.720	267.120	-0.102	-0.176
-295.705	3.305	-0.034	-0.025
-294.691	800.000	0.075	-0.276
-293.676	-157.675	0.282	-0.017
-292.662	-146.954	-0.332	-0.028
-291.647	800.000	0.046	0.152
-290.632	-200.000	-0.011	0.136
-289.618	-200.000	-0.009	-0.332
-288.603	-200.000	-0.025	-0.268
-287.589	-15.138	0.307	-0.195
-286.574	177.316	-0.103	0.148
-285.559	800.000	0.047	0.167
-284.545	-167.041	-0.256	0.010
-283.530	-200.000	0.017	-0.084
-282.516	-200.000	0.015	0.187
-281.501	-200.000	-0.005	0.195
-280.486	286.905	-0.057	0.102
-279.472	800.000	-0.047	-0.146
-278.457	11.096	0.347	0.263
-277.443	386.750	-0.252	-0.516
-276.428	-82.474	-0.165	0.053
-275.413	-86.808	0.204	0.062
-274.399	-200.000	0.039	-0.174
-273.384	-138.305	0.625	-0.068
-272.370	-113.816	0.023	-0.004
-271.355	118.948	-0.114	0.140
-270.340	64.057	-0.047	-0.047
-269.326	146.787	-0.071	-0.095
-268.311	800.000	-0.060	-0.233
-267.297	201.633	0.036	0.055
-266.282	-195.959	-0.332	0.002
-265.267	-42.748	0.367	0.185
-264.253	60.559	-0.161	-0.158
-263.238	219.561	0.253	0.400
-262.224	-200.000	-0.021	-0.187
-261.209	478.329	0.052	0.116
-260.195	-200.000	0.015	0.202
-259.180	132.910	-0.209	-0.267
-258.165	363.307	0.074	0.148
-257.151	-74.014	0.247	0.088
-256.136	-200.000	0.014	-0.100
-255.122	686.471	0.082	-0.212
-254.107	-93.898	-0.157	-0.043
-253.092	-130.821	-0.407	-0.054
-252.078	-200.000	0.003	0.024
-251.063	-200.000	-0.012	-0.138
-250.049	-164.815	0.458	-0.020
-249.034	-112.298	0.063	0.012
-248.019	-51.600	-0.328	0.151
-247.005	-79.458	-0.335	-0.112
-245.990	-22.958	0.182	0.109
-244.976	8.352	-0.134	-0.100
-243.961	-84.348	-0.052	0.016
-242.946	288.757	-0.172	-0.308
-241.932	-54.452	-0.408	0.183
-240.917	-200.000	-0.064	-0.298
-239.903	-32.014	0.081	0.045
-238.888	-125.288	-0.094	0.014
-237.873	543.880	-0.107	-0.254
-236.859	252.555	0.238	0.401
-235.844	-184.660	0.221	0.004
-234.830	800.000	0.051	0.195
-233.815	155.724	-0.123	0.168
-232.800	-59.732	0.089	-0.038
-231.786	-200.000	-0.065	-0.483
-230.771	800.000	-0.098	0.345
-229.757	-152.870	-0.199	0.014
-228.742	-139.708	0.036	0.004
-227.727	71.722	0.155	0.159
-226.713	800.000	-0.156	0.542
-225.698	-200.000	0.032	0.269
-224.684	-103.717	0.182	-0.042
-223.669	119.881	0.074	-0.091
-222.655	-60.420	-0.255	0.107
-221.640	-200.000	-0.025	0.359
-220.625	-200.000	0.013	-0.098
-219.611	-173.567	0.192	-0.006
-218.596	-84.127	0.242	-0.076
-217.582	-118.329	-0.182	-0.032
-216.567	-79.607	0.268	0.089
-215.552	-101.732	-0.026	-0.006
-214.538	226.639	-0.055	-0.088
-213.523	-115.630	0.096	0.018
-212.509	800.000	-0.056	-0.225
-211.494	-28.842	-0.455	-0.259
-210.479	-148.607	0.069	-0.006
-209.465	6.614	-0.248	-0.182
-208.450	800.000	-0.040	0.154
-207.436	-188.528	0.342	-0.004
-206.421	-200.000	-0.065	0.324
-205.406	-153.409	0.197	-0.014
-204.392	-38.424	-0.336	-0.176
-203.377	201.345	-0.099	0.151
-202.363	692.566	0.043	0.112
-201.348	642.602	-0.109	0.275
-200.333	37.721	-0.043	-0.038
-199.319	127.965	0.248	0.312
-198.304	-164.052	-0.167	0.008
-197.290	800.000	0.017	0.072
-196.275	-80.880	-0.100	-0.033
-195.260	-30.090	-0.254	-0.143
-194.246	-200.000	-0.007	0.106
-193.231	197.515	0.243	0.366
-192.217	-64.566	0.246	0.099
-191.202	-109.821	-0.181	-0.037
-190.187	-200.000	-0.046	-0.282
-189.173	-200.000	-0.026	-0.221
-188.158	4.432	-0.172	-0.124
-187.144	-119.556	0.354	-0.061
-186.129	-83.128	-0.056	0.018
-185.114	484.893	-0.105	-0.235
-184.100	121.276	0.127	-0.157
-183.085	-12.945	0.136	0.087
-182.071	85.709	0.187	-0.202
-181.056	-200.000	-0.027	0.168
-180.042	-106.916	-0.156	-0.034
-179.027	-84.982	0.176	-0.054
-178.012	2.336	0.180	-0.129
-176.998	119.305	-0.024	-0.029
-175.983	-200.000	-0.007	0.073
-174.969	223.743	0.122	0.194
-173.954	288.618	0.073	-0.130
-172.939	-200.000	0.063	0.297
-171.925	66.867	-0.241	0.242
-170.910	-200.000	0.019	0.121
-169.896	89.256	-0.078	0.085
-168.881	285.609	0.102	-0.182
-167.866	-123.328	0.166	0.026
-166.852	230.401	0.163	-0.263
-165.837	-62.610	0.093	-0.038
-164.823	800.000	0.060	0.185
-163.808	-112.967	-0.261	0.051
-162.793	-176.368	-0.287	0.007
-161.779	150.602	-0.117	0.157
-160.764	49.753	0.077	-0.072
-159.750	-200.000	-0.019	-0.399
-158.735	-200.000	-0.010	-0.326
-157.720	-200.000	0.050	-0.225
-156.706	-60.000	0.122	-0.051
-155.691	-200.000	-0.006	-0.134
-154.677	-33.583	-0.045	-0.025
-153.662	-112.097	-0.315	0.062
-152.647	-200.000	0.044	0.286
-151.633	55.407	-0.142	-0.136
-150.618	-82.811	-0.307	0.098
-149.604	366.153	0.026	0.052
-148.589	-116.158	-0.339	0.062
-147.574	149.718	-0.159	0.212
-146.560	800.000	-0.035	-0.112
-145.545	185.335	0.117	-0.171
-144.531	-150.060	-0.079	0.006
-143.516	-45.725	0.129	0.063
-142.502	30.806	0.196	0.165
-141.487	-200.000	0.050	-0.263
-140.472	5.633	-0.254	-0.185
-139.458	-93.494	0.257	0.070
-138.443	109.694	-0.057	-0.068
-137.429	2.300	0.282	-0.201
-136.414	-146.990	0.169	-0.014
-135.399	-16.213	0.113	-0.070
-134.385	440.276	0.055	0.118
-133.370	-200.000	0.001	0.092
-132.356	-200.000	0.026	0.127
-131.341	-200.000	-0.075	-0.496
-130.326	-97.562	0.239	-0.061
-129.312	311.716	-0.175	-0.323
-128.297	242.715	0.192	-0.316
-127.283	38.459	0.150	-0.131
-126.268	88.251	-0.114	0.124
-125.253	30.971	-0.290	-0.245
-124.239	-200.000	0.045	-0.483
-123.224	15.959	-0.032	0.025
-122.210	298.829	-0.080	0.145
-121.195	149.897	-0.128	0.171
-120.180	490.088	0.115	-0.258
-119.166	-121.172	-0.086	-0.014
-118.151	-200.000	0.028	0.275
-117.137	616.214	0.108	0.266
-116.122	-134.024	-0.619	-0.075
-115.107	23.488	0.257	-0.208
-114.093	-22.805	-0.043	0.026
-113.078	292.641	-0.130	0.234
-112.064	115.915	-0.176	0.212
-111.049	-200.000	0.157	0.001
-110.034	56.855	0.107	-0.102
-109.020	800.000	0.039	-0.124
-108.005	27.581	0.232	-0.192
-106.991	-45.318	0.133	-0.065
-105.976	307.220	-0.243	-0.446
-104.962	244.568	-0.137	-0.227
-103.947	124.931	0.175	0.216
-102.932	238.692	-0.182	-0.298
-101.918	175.195	0.026	-0.037
-100.903	38.670	0.216	0.189
-99.889	-200.000	0.014	-0.099
-98.874	157.562	0.152	-0.206
-97.859	-200.000	0.034	0.217
-96.845	800.000	-0.076	0.258
-95.830	64.830	0.225	0.224
-94.816	-159.755	-0.343	-0.019
-93.801	488.112	0.148	0.333
-92.786	-200.000	0.004	-0.076
-91.772	504.638	0.106	0.241
-90.757	-119.046	-0.169	-0.029
-89.743	-71.037	0.107	-0.039
-88.728	-200.000	0.013	-0.228
-87.713	-200.000	0.109	-0.484
-86.699	-45.728	0.014	0.007
-85.684	92.650	-0.197	-0.218
-84.670	-178.763	-0.295	0.007
-83.655	-18.606	0.166	-0.102
-82.640	800.000	0.033	0.129
-81.626	117.851	-0.185	0.224
-80.611	800.000	0.044	0.126
-79.597	-200.000	-0.025	0.291
-78.582	49.035	0.295	-0.272
-77.567	-101.827	-0.219	-0.052
-76.553	342.383	-0.064	0.123
-75.538	183.671	0.099	-0.144
-74.524	62.506	0.051	0.050
-73.509	800.000	0.065	0.248
-72.494	233.853	0.130	0.210
-71.480	-43.062	0.187	0.093
-70.465	9.009	-0.149	0.111
-69.451	-119.624	0.098	-0.017
-68.436	20.561	-0.354	0.281
-67.422	-59.318	-0.088	-0.037
-66.407	40.255	-0.192	-0.169
-65.392	-200.000	-0.010	-0.139
-64.378	89.010	0.184	0.201
-63.363	-108.240	-0.198	-0.042
-62.349	702.382	-0.142	0.366
-61.334	53.517	-1.009	-0.950
-60.319	121.533	0.561	0.686
-59.305	800.000	-0.288	-0.781
-58.290	214.503	0.598	0.930
-57.276	516.076	0.614	1.409
-56.261	-200.000	103.050	593.607
-55.246	554.189	1437.122	3393.190
-54.232	186.122	2632.336	3843.144
-53.217	109.687	2281.258	2684.216
-52.203	39.813	1897.587	1671.660
-51.188	33.717	1685.669	1438.874
-50.173	31.143	1642.599	1383.000
-49.159	49.786	1693.412	1566.469
-48.144	50.609	1709.340	1587.328
-47.130	33.303	1668.498	1420.882
-46.115	30.714	1654.190	1389.337
-45.100	30.493	1649.286	1383.520
-44.086	30.430	1646.821	1380.930
-43.071	30.547	1643.672	1379.105
-42.057	30.464	1641.735	1376.804
-41.042	30.518	1639.424	1375.211
-40.027	30.464	1637.711	1373.323
-39.013	30.509	1635.472	1371.720
-37.998	30.472	1634.220	1370.348
-36.984	30.529	1632.776	1369.500
-35.969	30.566	1631.781	1368.882
-34.954	30.699	1629.189	1367.630
-33.940	30.598	1627.953	1365.799
-32.925	30.596	1626.796	1364.759
-31.911	30.634	1624.610	1363.153
-30.896	30.608	1623.101	1361.640
-29.881	30.537	1621.762	1359.943
-28.867	30.622	1619.352	1358.492
-27.852	30.572	1618.226	1357.125
-26.838	30.575	1616.528	1355.668
-25.823	30.671	1615.299	1355.284
-24.809	30.643	1614.240	1354.141
-23.794	30.512	1612.947	1352.046
-22.779	30.641	1611.148	1351.421
-21.765	30.584	1609.565	1349.626
-20.750	30.468	1608.114	1347.517
-19.736	30.566	1607.100	1347.326
-18.721	30.667	1605.068	1346.296
-17.706	30.544	1603.786	1344.281
-16.692	30.489	1602.545	1342.787
-15.677	30.631	1600.565	1342.100
-14.663	30.616	1599.691	1341.207
-13.648	30.623	1598.462	1340.171
-12.633	30.546	1596.680	1338.074
-11.619	30.592	1595.033	1336.971
-10.604	30.679	1593.299	1336.088
-9.590	30.627	1592.483	1334.974
-8.575	30.497	1591.632	1333.281
-7.560	30.630	1589.855	1332.690
-6.546	30.582	1588.768	1331.381
-5.531	30.566	1587.582	1330.222
-4.517	30.567	1586.573	1329.328
-3.502	30.568	1585.314	1328.229
-2.487	30.704	1583.325	1327.478
-1.473	30.360	1571.838	1315.363
-0.458	27.693	1552.973	1280.823
0.556	23.647	1554.640	1251.373
1.571	21.250	1579.224	1253.866
2.586	20.984	1592.545	1262.407
3.600	18.749	1539.163	1204.328
4.615	11.517	1432.255	1073.211
5.629	5.752	1371.327	991.099
6.644	4.923	1363.914	980.443
7.659	4.704	1363.054	978.362
8.673	4.654	1362.266	977.398
9.688	4.749	1359.895	976.201
10.702	4.749	1356.704	973.828
11.717	7.520	1362.062	994.970
12.731	14.355	1374.810	1047.301
13.746	18.887	1381.792	1081.098
14.761	18.728	1379.661	1078.339
15.775	17.732	1377.530	1070.328
16.790	16.722	1374.582	1061.615
17.804	15.815	1372.921	1054.556
18.819	15.541	1370.850	1051.155
19.834	15.324	1369.845	1048.936
20.848	15.050	1368.605	1046.180
21.863	14.779	1367.759	1043.748
22.877	14.697	1366.157	1041.925
23.892	14.570	1365.744	1040.721
24.907	14.605	1364.653	1040.019
25.921	14.561	1364.156	1039.272
26.936	14.620	1362.901	1038.596
27.950	14.723	1361.919	1038.391
28.965	14.749	1360.900	1037.689
29.980	14.776	1360.190	1037.221
30.994	14.937	1358.189	1036.599
32.009	15.013	1357.496	1036.451
33.023	14.845	1356.634	1034.662
34.038	14.882	1354.984	1033.539
35.053	14.909	1353.232	1032.280
36.067	14.830	1352.313	1031.000
37.082	14.741	1351.856	1030.012
38.096	14.754	1350.928	1029.292
39.111	14.817	1349.797	1028.727
40.126	14.857	1348.656	1028.011
41.140	14.603	1348.388	1026.159
42.155	14.580	1347.744	1025.432
43.169	14.530	1347.463	1024.824
44.184	14.465	1347.044	1024.015
45.199	14.510	1346.760	1023.984
46.213	14.602	1346.355	1024.152
47.228	14.679	1345.327	1023.746
48.242	14.767	1344.259	1023.382
49.257	14.700	1342.760	1021.744
50.271	14.787	1341.073	1020.900
51.286	14.750	1340.024	1019.785
52.301	14.698	1338.646	1018.331
53.315	14.586	1337.792	1016.907
54.330	14.642	1336.256	1015.991
55.344	14.719	1335.245	1015.601
56.359	14.650	1334.232	1014.320
57.374	14.670	1333.499	1013.799
58.388	14.543	1332.750	1012.364
59.403	14.541	1332.254	1011.885
60.417	14.574	1331.535	1011.454
61.432	14.493	1330.736	1010.266
62.447	14.455	1329.703	1009.161
63.461	14.512	1328.385	1008.416
64.476	14.383	1327.601	1006.950
65.490	14.443	1326.329	1006.261
66.505	14.427	1324.898	1004.990
67.520	14.491	1323.607	1004.305
68.534	14.397	1322.868	1003.090
69.549	14.529	1321.368	1002.661
70.563	14.419	1320.275	1001.083
71.578	14.285	1319.139	999.329
72.593	14.306	1318.300	998.728
73.607	14.283	1317.905	998.206
74.622	14.273	1317.083	997.434
75.636	14.296	1316.309	996.895
76.651	14.439	1315.487	997.039
77.666	14.261	1315.695	996.045
78.680	14.402	1314.860	996.168
79.695	14.388	1313.713	995.125
80.709	14.352	1313.321	994.528
81.724	14.521	1312.152	994.561
82.739	14.533	1311.446	994.011
83.753	14.669	1310.481	993.999
84.768	14.729	1309.783	993.739
85.782	14.788	1308.621	993.122
86.797	14.715	1307.654	991.863
87.812	14.609	1306.277	990.103
88.826	14.693	1304.895	989.469
89.841	14.730	1303.844	988.803
90.855	14.763	1302.933	988.220
91.870	14.768	1302.088	987.519
92.884	14.733	1301.765	986.978
93.899	14.779	1300.710	986.363
94.914	14.875	1299.608	986.011
95.928	14.944	1298.902	985.789
96.943	14.902	1297.982	984.761
97.957	14.900	1296.841	983.795
98.972	14.777	1296.001	982.344
99.987	14.698	1295.266	981.240
101.001	14.699	1293.975	980.182
102.016	14.801	1292.682	979.713
103.030	14.820	1291.736	979.019
104.045	14.785	1291.078	978.231
105.060	14.638	1289.979	976.451
106.074	14.628	1288.226	974.980
107.089	14.503	1287.077	973.291
108.103	14.519	1285.648	972.220
109.118	14.467	1284.516	970.976
110.133	14.524	1283.096	970.144
111.147	14.413	1281.977	968.570
112.162	14.608	1280.356	968.394
113.176	14.626	1279.281	967.594
114.191	14.611	1278.794	967.058
115.206	14.625	1277.486	966.060
116.220	14.572	1276.252	964.740
117.235	14.587	1275.341	964.051
118.249	14.496	1274.653	962.918
119.264	14.534	1273.235	961.980
120.279	14.562	1272.115	961.214
121.293	14.457	1271.013	959.690
122.308	14.460	1270.276	959.068
123.322	14.521	1268.811	958.226
124.337	14.429	1268.380	957.286
125.352	14.452	1266.789	956.134
126.366	14.505	1266.029	955.777
127.381	14.509	1264.525	954.579
128.395	14.462	1263.923	953.771
129.410	14.468	1263.031	953.048
130.424	14.538	1262.048	952.625
131.439	14.598	1261.216	952.253
132.454	14.616	1260.138	951.458
133.468	14.600	1259.422	950.741
134.483	14.606	1258.536	950.022
135.497	14.655	1257.492	949.432
136.512	14.742	1256.264	948.913
137.527	14.673	1254.732	947.280
138.541	14.623	1253.789	946.199
139.556	14.749	1251.703	945.257
140.570	14.695	1250.867	944.239
141.585	14.853	1249.998	944.389
142.600	14.820	1248.459	942.957
143.614	14.826	1248.182	942.701
144.629	14.901	1246.959	942.113
145.643	14.855	1245.953	941.010
146.658	14.704	1245.088	939.427
147.673	14.815	1242.891	938.309
148.687	14.739	1242.151	937.239
149.702	14.735	1240.595	935.961
150.716	14.636	1238.958	934.090
151.731	14.689	1238.338	933.833
152.746	14.754	1237.006	933.114
153.760	14.771	1235.959	932.332
154.775	14.813	1235.066	931.813
155.789	14.836	1234.026	931.074
156.804	14.780	1232.936	929.858
157.819	14.888	1231.855	929.557
158.833	14.993	1231.013	929.424
159.848	14.992	1230.193	928.720
160.862	14.967	1229.110	927.682
161.877	14.895	1227.774	926.193
162.892	14.880	1226.755	925.260
163.906	14.824	1225.987	924.285
164.921	14.806	1225.119	923.450
165.935	14.941	1223.920	923.212
166.950	14.897	1223.467	922.543
167.964	14.866	1222.781	921.772
168.979	14.855	1222.250	921.233
169.994	14.894	1221.561	920.844
171.008	15.009	1220.379	920.503
172.023	15.034	1219.388	919.813
173.037	15.066	1219.049	919.655
174.052	15.158	1217.807	919.141
175.067	14.927	1217.060	917.231
176.081	14.931	1215.699	916.145
177.096	14.870	1214.827	915.069
178.110	14.951	1214.248	914.997
179.125	14.930	1212.953	913.824
180.140	15.071	1211.711	913.576
181.154	14.935	1210.691	911.985
182.169	15.043	1209.299	911.448
183.183	15.131	1208.278	911.075
184.198	15.085	1207.460	910.127
185.213	15.109	1205.946	909.035
186.227	15.190	1204.718	908.471
187.242	15.220	1203.940	907.965
188.256	15.229	1202.972	907.203
189.271	15.283	1202.106	906.760
190.286	15.199	1200.994	905.387
191.300	14.922	1200.017	903.077
192.315	14.992	1199.131	902.707
193.329	14.873	1198.644	901.618
194.344	14.985	1198.168	901.786
195.359	15.060	1197.765	901.805
196.373	15.147	1197.053	901.659
197.388	15.226	1196.585	901.651
198.402	15.334	1196.223	901.880
199.417	15.461	1195.410	901.867
200.432	15.380	1194.830	900.919
201.446	15.464	1193.890	900.580
202.461	15.546	1193.053	900.309
203.475	15.503	1192.064	899.252
204.490	15.417	1190.896	897.828
205.504	15.351	1189.734	896.524
206.519	15.356	1188.377	895.448
207.534	15.287	1187.405	894.269
208.548	15.361	1186.240	893.706
209.563	15.296	1185.903	893.025
210.577	15.355	1185.053	892.619
211.592	15.435	1184.119	892.264
212.607	15.488	1183.369	891.901
213.621	15.465	1182.704	891.200
214.636	15.529	1181.645	890.659
215.650	15.562	1180.368	889.796
216.665	15.541	1179.607	889.033
217.680	15.660	1178.478	888.731
218.694	15.654	1177.625	887.977
219.709	15.614	1176.964	887.190
220.723	15.627	1176.454	886.796
221.738	15.749	1175.442	886.596
222.753	15.820	1174.431	886.130
223.767	15.673	1173.786	884.793
224.782	15.681	1173.666	884.666
225.796	15.794	1173.053	884.718
226.811	15.808	1172.286	884.135
227.826	15.768	1171.511	883.261
228.840	15.764	1171.024	882.794
229.855	15.724	1169.759	881.556
230.869	15.631	1169.327	880.666
231.884	15.734	1168.134	880.227
232.899	15.686	1167.540	879.448
233.913	15.686	1166.433	878.537
234.928	15.619	1166.118	877.875
235.942	15.612	1165.471	877.272
236.957	15.576	1164.405	876.206
237.972	15.710	1163.737	876.325
238.986	15.619	1163.435	875.544
240.001	15.652	1162.744	875.115
241.015	15.723	1161.926	874.792
242.030	15.702	1160.841	873.792
243.045	15.840	1160.002	873.799
244.059	15.714	1159.794	872.908
245.074	15.820	1158.808	872.642
246.088	15.872	1157.905	872.153
247.103	15.944	1157.353	872.032
248.117	16.033	1156.555	871.815
249.132	16.082	1155.440	871.150
250.147	16.234	1154.947	871.488
251.161	16.260	1154.372	871.111
252.176	16.315	1153.698	870.808
253.190	16.381	1153.156	870.661
254.205	16.353	1152.381	869.853
255.220	16.304	1151.877	869.146
256.234	16.301	1151.883	869.056
257.249	16.303	1150.842	868.203
258.263	16.481	1149.600	868.107
259.278	16.292	1149.430	866.928
260.293	16.303	1148.827	866.456
261.307	16.434	1148.071	866.479
262.322	16.494	1147.459	866.250
263.336	16.514	1146.598	865.623
264.351	16.428	1146.356	864.924
265.366	16.574	1145.419	864.890
266.380	16.556	1144.659	864.148
267.395	16.502	1143.842	863.175
268.409	16.387	1143.183	862.015
269.424	16.498	1142.224	861.784
270.439	16.386	1141.684	860.727
271.453	16.441	1140.735	860.218
272.468	16.447	1140.248	859.804
273.482	16.388	1139.279	858.696
274.497	16.338	1139.182	858.295
275.512	16.420	1138.120	857.836
276.526	16.395	1137.422	857.104
277.541	16.545	1136.169	856.848
278.555	16.390	1136.158	855.979
279.570	16.624	1135.328	856.459
280.585	16.650	1134.591	855.962
281.599	16.730	1133.739	855.646
282.614	16.661	1132.598	854.358
283.628	16.568	1131.473	852.967
284.643	16.637	1130.469	852.485
285.657	16.558	1129.711	851.439
286.672	16.718	1128.668	851.382
287.687	16.619	1127.799	850.153
288.701	16.695	1127.125	849.951
289.716	16.674	1126.492	849.293
290.730	16.657	1126.006	848.764
291.745	16.615	1125.626	848.194
292.760	16.649	1125.118	847.904
293.774	16.755	1124.176	847.655
294.789	16.899	1123.676	847.921
295.803	16.832	1122.672	846.751
296.818	16.802	1122.109	846.104
297.833	16.723	1121.223	844.967
298.847	16.717	1120.340	844.196
299.862	16.767	1119.302	843.587
300.876	16.843	1119.117	843.752
301.891	16.971	1118.009	843.480
302.906	16.949	1117.663	843.036
303.920	16.966	1117.364	842.818
304.935	17.233	1116.256	843.231
305.949	17.023	1115.654	841.661
306.964	17.039	1115.314	841.410
307.979	17.086	1114.609	841.037
308.993	17.102	1113.565	840.256
310.008	17.133	1112.762	839.729
311.022	17.153	1112.089	839.243
312.037	17.160	1110.904	838.310
313.052	16.955	1110.466	836.894
314.066	17.007	1109.335	836.223
315.081	16.932	1108.679	835.287
316.095	16.907	1107.962	834.548
317.110	16.911	1107.414	834.081
318.125	16.879	1106.576	833.222
319.139	16.960	1105.733	832.908
320.154	17.047	1104.882	832.619
321.168	16.996	1104.517	832.021
322.183	17.014	1104.096	831.719
323.197	17.111	1103.290	831.514
324.212	17.052	1102.726	830.724
325.227	17.067	1102.104	830.257
326.241	17.198	1101.494	830.365
327.256	17.029	1100.823	828.961
328.270	17.182	1099.232	828.438
329.285	17.082	1098.938	827.652
330.300	17.034	1098.135	826.742
331.314	16.991	1097.206	825.760
332.329	17.248	1095.977	826.011
333.343	17.124	1095.320	824.841
334.358	17.283	1094.463	824.892
335.373	17.275	1093.662	824.179
336.387	17.171	1093.143	823.212
337.402	17.291	1092.369	823.136
338.416	17.371	1091.806	823.026
339.431	17.312	1091.459	822.403
340.446	17.491	1090.442	822.433
341.460	17.573	1089.800	822.269
342.475	17.626	1089.192	821.996
343.489	17.505	1088.477	820.797
344.504	17.689	1087.275	820.707
345.519	17.555	1086.619	819.491
346.533	17.612	1085.818	819.090
347.548	17.826	1084.633	819.151
348.562	17.647	1084.174	817.873
349.577	17.670	1083.428	817.348
350.592	17.501	1082.989	816.134
351.606	17.519	1082.087	815.468
352.621	17.399	1081.412	814.315
353.635	17.548	1080.668	814.395
354.650	17.507	1079.721	813.414
355.665	17.552	1079.070	813.067
356.679	17.494	1078.962	812.637
357.694	17.513	1078.565	812.355
358.708	17.699	1077.311	812.223
359.723	17.691	1076.580	811.565
360.738	17.652	1076.386	811.159
361.752	17.698	1075.679	810.774
362.767	17.704	1074.908	810.151
363.781	17.737	1074.122	809.641
364.796	17.758	1073.633	809.303
365.810	17.892	1073.099	809.464
366.825	17.918	1072.755	809.256
367.840	18.030	1072.177	809.276
368.854	18.012	1071.714	808.772
369.869	18.057	1070.472	807.976
370.883	17.949	1069.731	806.834
371.898	17.929	1069.277	806.328
372.913	17.848	1068.702	805.438
373.927	18.021	1068.007	805.657
374.942	17.947	1068.076	805.292
375.956	18.048	1066.769	804.710
376.971	18.066	1066.422	804.461
377.986	18.049	1066.047	804.030
379.000	18.106	1065.402	803.740
380.015	18.151	1065.117	803.665
381.029	18.223	1064.392	803.383
382.044	18.139	1063.519	802.261
383.059	18.234	1062.545	801.897
384.073	18.213	1061.958	801.288
385.088	18.125	1061.163	800.207
386.102	18.223	1060.057	799.756
387.117	18.152	1059.252	798.747
388.132	18.009	1058.385	797.358
389.146	18.045	1057.580	796.847
390.161	18.098	1056.960	796.556
391.175	18.193	1056.263	796.402
392.190	18.254	1055.683	796.178
393.205	18.281	1054.647	795.453
394.219	18.271	1053.559	794.513
395.234	18.347	1052.800	794.224
396.248	18.151	1051.848	792.527
397.263	18.196	1050.925	791.971
398.278	18.147	1050.361	791.249
399.292	18.118	1049.575	790.454
400.307	18.143	1049.023	790.083
401.321	18.106	1048.409	789.378
402.336	18.173	1047.804	789.162
403.350	18.254	1046.985	788.849
404.365	18.210	1046.358	788.107
405.380	18.375	1045.502	788.151
406.394	18.326	1044.712	787.259
407.409	18.425	1044.160	787.228
408.423	18.357	1043.606	786.431
409.438	18.532	1042.731	786.503
410.453	18.487	1042.177	785.811
411.467	18.506	1041.296	785.162
412.482	18.635	1041.081	785.520
413.496	18.617	1040.202	784.707
414.511	18.642	1039.693	784.370
415.526	18.675	1039.499	784.305
416.540	18.743	1039.060	784.212
417.555	18.715	1038.242	783.401
418.569	18.672	1037.727	782.743
419.584	18.827	1036.862	782.728
420.599	18.782	1036.878	782.466
421.613	150.844	1401.677	1795.877
422.628	137.833	1454.785	1795.969
