DTS Sentinel unit serial number:	SN413079Multiplexer serial number:	ORYXHardware model number:	OX4-SRSoftware version number:	ORYX F/W v4.00 Oryx Data Collector v3.7.2.0data status	okinstallation	princeton_trtdifferential loss correction	single-endedforward channel	channel 2reverse channel	N/Adate	2019/09/14time	19:39:35forward acquisition time	60.00reverse acquisition time	0.00gamma	496.2192k internal	0.2320k external	0.2320temperature offset calibration	1.0097default loss term (dB/km)	0.3790temperature slope calibration	1.0000multiplexer offset coefficient	1.0000multiplexer slope coefficient	1.0000fibre end	0.00T internal ref (°C)	34.55T ext. ref 1 (°C)	4.88T ext. ref 2 (°C)	28.78length (m)	temperature (°C)	Stokes	anti-Stokes-747.200	-120.261	0.105	-0.018
-746.185	-67.793	-0.178	-0.070
-745.171	-54.367	-0.299	-0.137
-744.156	-193.417	-0.239	-0.002
-743.142	-67.619	0.147	0.058
-742.127	-200.000	-0.076	0.392
-741.112	-52.353	-0.130	0.061
-740.098	-26.417	-0.049	-0.029
-739.083	115.139	-0.121	-0.150
-738.069	800.000	0.064	-0.266
-737.054	-200.000	-0.001	-0.270
-736.039	-11.010	-0.169	0.112
-735.025	-72.201	0.091	-0.034
-734.010	-52.822	-0.199	-0.093
-732.996	800.000	0.095	-0.297
-731.981	800.000	-0.046	0.148
-730.966	800.000	-0.091	-0.268
-729.952	-89.757	0.491	0.145
-728.937	31.701	-0.295	-0.256
-727.923	58.980	-0.025	-0.025
-726.908	-154.910	-0.110	0.007
-725.894	-145.828	-0.158	0.014
-724.879	31.845	-0.092	-0.080
-723.864	65.619	0.047	-0.048
-722.850	-141.494	-0.314	0.032
-721.835	800.000	-0.069	-0.204
-720.821	562.192	-0.091	-0.222
-719.806	-99.318	0.236	0.060
-718.791	-75.593	-0.084	0.030
-717.777	0.619	-0.289	0.209
-716.762	-200.000	0.037	0.406
-715.748	-200.000	-0.019	0.134
-714.733	0.759	0.242	-0.175
-713.718	98.442	-0.107	0.125
-712.704	-98.639	0.207	-0.053
-711.689	161.012	-0.168	0.237
-710.675	181.461	-0.072	-0.107
-709.660	800.000	-0.127	-0.402
-708.645	-200.000	-0.081	-0.371
-707.631	342.914	-0.086	0.170
-706.616	67.426	-0.083	0.085
-705.602	-200.000	0.010	0.095
-704.587	70.817	-0.139	-0.146
-703.572	-25.910	-0.185	0.110
-702.558	800.000	0.047	0.174
-701.543	-200.000	-0.017	-0.361
-700.529	800.000	0.126	-0.461
-699.514	800.000	0.023	0.092
-698.499	800.000	0.023	-0.081
-697.485	-60.280	-0.024	-0.010
-696.470	-119.199	-0.234	-0.041
-695.456	-56.824	-0.088	-0.039
-694.441	61.128	-0.257	-0.258
-693.426	643.673	-0.069	-0.178
-692.412	186.323	0.131	0.197
-691.397	444.464	0.123	0.272
-690.383	81.240	-0.173	0.189
-689.368	-153.497	0.244	0.017
-688.354	800.000	-0.093	-0.325
-687.339	139.150	0.086	0.114
-686.324	774.224	-0.028	-0.078
-685.310	-90.698	0.025	0.007
-684.295	-85.093	0.165	-0.052
-683.281	157.421	0.075	0.105
-682.266	-93.660	-0.079	-0.022
-681.251	-172.571	0.033	-0.001
-680.237	52.627	-0.069	0.067
-679.222	462.937	0.106	0.239
-678.208	-200.000	0.005	0.095
-677.193	-117.522	0.319	-0.058
-676.178	-163.519	-0.361	0.017
-675.164	21.038	0.161	0.132
-674.149	-163.268	-0.339	0.016
-673.135	462.640	-0.124	0.279
-672.120	-164.979	-0.139	0.006
-671.105	-122.222	-0.098	0.016
-670.091	-12.898	0.359	0.236
-669.076	134.776	-0.045	-0.059
-668.062	-36.840	-0.129	0.070
-667.047	110.019	-0.119	-0.144
-666.032	-87.302	0.090	0.027
-665.018	-200.000	0.008	-0.105
-664.003	800.000	-0.087	0.242
-662.989	-5.594	0.038	-0.026
-661.974	233.316	0.092	0.152
-660.959	113.338	0.150	-0.183
-659.945	99.243	0.233	0.271
-658.930	686.664	-0.111	0.291
-657.916	-28.031	0.088	-0.051
-656.901	800.000	0.071	-0.221
-655.886	4.183	-0.222	-0.163
-654.872	-200.000	0.035	0.186
-653.857	72.582	0.238	0.250
-652.843	569.752	-0.054	-0.133
-651.828	116.913	-0.228	-0.282
-650.814	-200.000	0.007	-0.223
-649.799	286.548	-0.084	-0.153
-648.784	61.795	0.143	0.144
-647.770	-200.000	0.014	-0.228
-646.755	-56.806	-0.210	-0.094
-645.741	-71.784	0.310	0.117
-644.726	-174.591	0.187	-0.005
-643.711	65.491	0.085	-0.087
-642.697	-114.191	-0.079	-0.015
-641.682	182.005	-0.033	0.049
-640.668	-149.544	0.246	0.020
-639.653	-36.397	-0.060	0.032
-638.638	800.000	0.045	-0.141
-637.624	-200.000	-0.057	-0.282
-636.609	117.366	-0.276	-0.342
-635.595	84.055	-0.273	0.300
-634.580	-154.958	-0.269	-0.018
-633.565	-47.733	-0.167	0.082
-632.551	800.000	-0.048	-0.135
-631.536	147.988	0.118	-0.160
-630.522	36.996	-0.282	-0.251
-629.507	19.995	0.271	-0.220
-628.492	459.517	-0.072	-0.162
-627.478	234.626	-0.083	0.138
-626.463	10.962	0.067	0.051
-625.449	-200.000	0.034	-0.249
-624.434	-67.757	-0.182	0.072
-623.419	-3.687	0.380	-0.266
-622.405	374.839	-0.112	0.229
-621.390	1.781	-0.079	-0.057
-620.376	-15.831	-0.174	0.112
-619.361	231.190	-0.194	0.319
-618.346	800.000	-0.018	0.057
-617.332	-4.789	-0.177	0.123
-616.317	-60.357	-0.249	0.107
-615.303	800.000	0.059	0.201
-614.288	317.165	0.078	-0.148
-613.273	-56.226	-0.144	0.064
-612.259	15.643	-0.089	0.070
-611.244	338.828	-0.077	0.151
-610.230	-172.151	-0.170	-0.006
-609.215	-200.000	-0.018	0.367
-608.201	75.192	0.059	0.063
-607.186	52.643	-0.182	0.174
-606.171	1.839	0.159	-0.115
-605.157	204.960	0.145	-0.226
-604.142	-200.000	0.049	0.259
-603.128	-55.871	-0.239	0.108
-602.113	-200.000	0.042	0.354
-601.098	-141.796	-0.141	-0.014
-600.084	-81.934	0.166	0.054
-599.069	-200.000	0.044	0.429
-598.055	-56.352	0.028	0.012
-597.040	9.477	-0.142	0.108
-596.025	-200.000	0.048	-0.219
-595.011	-200.000	-0.526	-0.002
-593.996	84.701	0.104	-0.114
-592.982	752.043	0.056	-0.153
-591.967	404.596	-0.102	0.215
-590.952	103.207	0.296	-0.349
-589.938	-115.096	-0.174	0.033
-588.923	800.000	-0.066	0.200
-587.909	-200.000	-0.015	-0.156
-586.894	403.683	-0.112	-0.238
-585.879	-38.315	0.374	0.199
-584.865	-42.506	-0.050	0.026
-583.850	-81.934	0.067	-0.022
-582.836	-134.607	0.294	-0.036
-581.821	-200.000	0.016	0.084
-580.806	143.820	-0.013	0.017
-579.792	-8.871	0.257	0.173
-578.777	581.891	-0.124	-0.305
-577.763	42.109	-0.075	0.068
-576.748	-49.289	-0.334	-0.160
-575.733	246.647	-0.044	-0.075
-574.719	270.654	0.154	-0.272
-573.704	-200.000	0.012	0.109
-572.690	-200.000	-0.007	-0.164
-571.675	748.528	-0.103	0.278
-570.661	-91.826	0.120	0.034
-569.646	34.239	-0.268	-0.234
-568.631	-200.000	0.008	0.267
-567.617	800.000	0.068	-0.287
-566.602	681.644	0.152	-0.398
-565.588	-163.307	0.046	0.002
-564.573	114.904	0.213	0.260
-563.558	-165.586	0.098	0.004
-562.544	26.791	-0.048	0.040
-561.529	-200.000	0.004	-0.227
-560.515	-200.000	0.004	0.226
-559.500	-99.592	0.171	0.043
-558.485	-200.000	-0.010	-0.288
-557.471	-200.000	0.314	0.001
-556.456	-200.000	-0.022	0.396
-555.442	-89.853	0.210	-0.062
-554.427	165.853	0.028	-0.040
-553.412	-61.446	-0.312	0.132
-552.398	-109.290	0.303	0.064
-551.383	39.411	0.086	-0.077
-550.369	188.636	-0.037	-0.055
-549.354	-94.533	-0.253	-0.069
-548.339	19.384	-0.112	0.090
-547.325	63.746	0.196	-0.198
-546.310	-155.702	0.188	0.012
-545.296	800.000	0.002	-0.007
-544.281	148.288	0.125	-0.170
-543.266	56.530	0.116	0.113
-542.252	800.000	0.079	-0.304
-541.237	800.000	-0.017	0.049
-540.223	520.790	-0.024	-0.056
-539.208	-200.000	-0.006	-0.166
-538.193	-169.058	-0.543	-0.020
-537.179	800.000	-0.055	-0.239
-536.164	-2.876	-0.214	-0.150
-535.150	800.000	0.080	-0.260
-534.135	28.462	-0.145	-0.123
-533.121	-91.554	-0.175	0.050
-532.106	-29.171	-0.307	0.176
-531.091	-200.000	-0.079	0.683
-530.077	-200.000	-0.029	-0.334
-529.062	-81.526	0.261	0.086
-528.048	-200.000	0.021	-0.193
-527.033	-131.795	0.169	0.022
-526.018	32.211	-0.064	-0.056
-525.004	142.597	0.051	-0.068
-523.989	800.000	0.020	-0.079
-522.975	-124.163	-0.148	-0.023
-521.960	74.222	-0.127	0.134
-520.945	-48.915	0.168	-0.081
-519.931	-75.185	-0.328	-0.117
-518.916	519.593	-0.072	0.169
-517.902	-200.000	0.014	0.221
-516.887	164.092	0.205	-0.289
-515.872	-78.132	0.131	0.045
-514.858	637.773	0.065	0.165
-513.843	14.111	-0.153	-0.119
-512.829	-112.424	-0.129	0.026
-511.814	-3.562	-0.111	-0.078
-510.799	-58.272	0.294	-0.128
-509.785	800.000	-0.027	-0.083
-508.770	-200.000	-0.004	0.140
-507.756	24.977	0.178	0.148
-506.741	84.971	-0.162	0.178
-505.726	36.679	-0.053	-0.047
-504.712	800.000	0.047	0.141
-503.697	-200.000	0.020	-0.128
-502.683	800.000	-0.084	0.283
-501.668	43.606	0.155	0.142
-500.653	-1.956	-0.215	0.151
-499.639	-39.769	-0.232	0.121
-498.624	-98.020	0.373	0.096
-497.610	746.729	-0.021	0.058
-496.595	171.754	0.099	-0.142
-495.581	-116.082	0.246	-0.046
-494.566	800.000	-0.036	-0.111
-493.551	-200.000	-0.018	-0.174
-492.537	-100.776	0.132	0.033
-491.522	-69.433	0.254	-0.097
-490.508	-54.865	-0.129	-0.058
-489.493	237.270	0.195	-0.324
-488.478	-161.894	-0.184	0.009
-487.464	45.061	-0.153	0.141
-486.449	97.552	-0.134	0.155
-485.435	-200.000	-0.070	-0.328
-484.420	-200.000	-0.022	-0.314
-483.405	-200.000	0.075	-0.361
-482.391	-99.547	0.090	0.023
-481.376	-174.565	-0.464	0.013
-480.362	-106.960	-0.149	0.033
-479.347	-89.422	0.206	0.061
-478.332	72.098	0.125	0.130
-477.318	-200.000	0.053	0.332
-476.303	29.969	-0.105	-0.090
-475.289	4.565	0.233	0.171
-474.274	49.008	-0.233	-0.219
-473.259	404.249	0.071	0.149
-472.245	-109.630	0.203	-0.043
-471.230	-104.595	-0.115	0.026
-470.216	-200.000	0.036	-0.288
-469.201	-107.913	0.297	-0.065
-468.186	-200.000	-0.034	-0.360
-467.172	3.314	-0.247	-0.180
-466.157	32.591	0.074	0.064
-465.143	-148.223	-0.710	-0.059
-464.128	199.251	0.136	-0.208
-463.113	800.000	-0.078	0.301
-462.099	-12.392	0.164	0.107
-461.084	135.312	-0.168	0.218
-460.070	-166.704	-0.402	-0.017
-459.055	-110.792	0.084	0.017
-458.040	-6.591	-0.269	0.183
-457.026	28.288	0.173	0.146
-456.011	12.453	-0.154	-0.118
-454.997	-140.800	0.350	0.036
-453.982	-78.605	0.138	-0.047
-452.968	-128.245	-0.254	0.036
-451.953	-61.599	-0.277	-0.116
-450.938	-200.000	-0.026	-0.334
-449.924	-166.056	0.206	-0.009
-448.909	135.110	-0.121	-0.158
-447.895	-200.000	0.000	-0.058
-446.880	-118.014	0.061	-0.011
-445.865	96.688	-0.288	-0.329
-444.851	-152.014	0.180	0.013
-443.836	800.000	-0.026	0.084
-442.822	-95.415	-0.254	-0.068
-441.807	-66.735	-0.038	-0.015
-440.792	342.963	0.062	0.121
-439.778	49.177	0.180	0.169
-438.763	-200.000	0.030	-0.223
-437.749	800.000	0.073	-0.233
-436.734	295.876	-0.089	0.162
-435.719	5.760	0.181	-0.134
-434.705	72.668	0.097	0.101
-433.690	54.266	0.137	-0.132
-432.676	-86.510	-0.303	-0.093
-431.661	-200.000	0.072	0.340
-430.646	800.000	0.020	-0.057
-429.632	-4.503	-0.059	-0.041
-428.617	-164.921	0.109	-0.005
-427.603	800.000	-0.080	0.245
-426.588	202.980	-0.034	-0.052
-425.573	800.000	0.040	-0.131
-424.559	250.607	-0.071	-0.121
-423.544	800.000	-0.080	0.263
-422.530	-200.000	-0.014	0.186
-421.515	-200.000	-0.009	-0.284
-420.500	-200.000	0.009	-0.079
-419.486	800.000	-0.027	-0.111
-418.471	76.381	-0.040	-0.042
-417.457	-9.595	-0.158	0.105
-416.442	-62.755	-0.364	-0.150
-415.428	-82.999	-0.429	-0.138
-414.413	-68.853	0.093	-0.036
-413.398	-17.979	0.332	-0.208
-412.384	-184.206	0.182	0.003
-411.369	-50.674	0.150	-0.070
-410.355	-136.590	-0.261	-0.030
-409.340	-121.898	-0.696	0.114
-408.325	800.000	0.030	0.095
-407.311	800.000	-0.037	-0.125
-406.296	-26.780	0.069	0.040
-405.282	140.902	0.105	-0.138
-404.267	327.093	0.070	0.133
-403.252	-42.013	-0.052	0.027
-402.238	-50.109	-0.239	-0.113
-401.223	434.044	0.109	-0.236
-400.209	-200.000	0.027	0.221
-399.194	52.888	-0.127	0.121
-398.179	95.112	0.251	-0.286
-397.165	640.162	0.053	-0.133
-396.150	800.000	-0.048	0.187
-395.136	111.339	-0.115	0.138
-394.121	-200.000	0.070	-0.355
-393.106	0.235	0.067	0.048
-392.092	-136.869	0.220	-0.025
-391.077	119.361	-0.171	-0.211
-390.063	-92.729	-0.336	-0.094
-389.048	800.000	0.077	0.331
-388.033	-200.000	0.002	0.100
-387.019	-149.301	0.155	-0.012
-386.004	14.464	-0.147	-0.114
-384.990	-37.123	0.175	-0.094
-383.975	800.000	0.043	-0.142
-382.960	800.000	0.057	-0.217
-381.946	29.760	0.282	0.239
-380.931	-66.396	-0.363	-0.144
-379.917	-34.569	0.035	0.019
-378.902	-4.998	0.055	0.038
-377.888	-78.741	0.051	0.017
-376.873	5.664	0.445	-0.328
-375.858	102.921	0.170	0.199
-374.844	450.535	0.097	-0.213
-373.829	120.833	-0.132	0.163
-372.815	800.000	0.056	-0.154
-371.800	181.219	0.128	0.187
-370.785	-60.870	0.289	-0.122
-369.771	318.441	-0.088	-0.166
-368.756	-87.909	0.012	-0.004
-367.742	-12.430	-0.206	-0.134
-366.727	-21.401	0.290	0.177
-365.712	-200.000	-0.012	-0.365
-364.698	-115.026	0.324	-0.061
-363.683	800.000	0.075	0.222
-362.669	-200.000	0.013	0.066
-361.654	-200.000	-0.025	0.498
-360.639	98.987	0.084	-0.097
-359.625	-139.827	-0.408	-0.043
-358.610	-200.000	-0.012	0.198
-357.596	601.786	-0.094	0.233
-356.581	-14.045	-0.242	0.156
-355.566	-119.830	0.231	-0.040
-354.552	-200.000	-0.078	0.484
-353.537	-200.000	0.008	0.331
-352.523	800.000	-0.040	0.128
-351.508	-200.000	-0.007	0.251
-350.493	-58.344	-0.205	-0.089
-349.479	-200.000	0.046	0.348
-348.464	-200.000	-0.017	-0.139
-347.450	-184.464	0.328	-0.005
-346.435	-200.000	0.029	0.416
-345.420	148.487	-0.063	-0.085
-344.406	-78.760	0.304	-0.103
-343.391	-51.130	-0.071	0.033
-342.377	-29.634	-0.160	0.091
-341.362	-55.294	0.230	-0.103
-340.348	254.638	-0.124	0.211
-339.333	159.950	-0.134	0.186
-338.318	800.000	0.076	-0.258
-337.304	21.627	-0.167	-0.136
-336.289	88.870	0.107	-0.119
-335.275	-14.234	0.161	-0.103
-334.260	-53.807	0.432	-0.196
-333.245	-120.711	-0.186	0.031
-332.231	800.000	-0.043	-0.149
-331.216	118.157	0.050	0.061
-330.202	-37.729	-0.116	-0.061
-329.187	-200.000	-0.003	0.139
-328.172	-200.000	-0.025	0.141
-327.158	531.209	0.074	-0.174
-326.143	-28.375	0.215	-0.124
-325.129	493.696	0.146	0.334
-324.114	-44.485	0.122	0.061
-323.099	6.437	0.069	-0.051
-322.085	-132.868	0.128	-0.016
-321.070	43.109	-0.312	-0.283
-320.056	800.000	-0.029	0.097
-319.041	800.000	0.044	0.175
-318.026	-29.983	0.053	0.030
-317.012	-200.000	0.048	-0.309
-315.997	141.317	0.109	0.143
-314.983	60.044	0.211	-0.207
-313.968	-81.531	0.350	-0.114
-312.953	-200.000	-0.030	0.159
-311.939	-160.007	-0.153	0.008
-310.924	-200.000	-0.062	0.287
-309.910	204.369	-0.119	0.183
-308.895	146.440	0.251	0.335
-307.880	-200.000	-0.079	0.372
-306.866	800.000	0.053	0.168
-305.851	201.710	0.039	-0.060
-304.837	-60.968	0.460	-0.193
-303.822	302.443	0.167	0.308
-302.807	442.424	-0.047	0.102
-301.793	-120.958	-0.133	0.022
-300.778	6.226	-0.134	-0.099
-299.764	514.860	0.072	-0.168
-298.749	-200.000	0.013	0.102
-297.735	519.676	0.067	0.156
-296.720	216.315	0.031	-0.049
-295.705	45.751	-0.177	0.162
-294.691	-28.880	-0.200	0.114
-293.676	800.000	-0.061	0.172
-292.662	796.593	-0.078	-0.213
-291.647	201.321	-0.136	-0.208
-290.632	-83.779	0.155	0.049
-289.618	-29.983	-0.048	0.027
-288.603	-8.394	0.123	-0.082
-287.589	777.855	-0.065	-0.177
-286.574	-47.814	-0.113	0.055
-285.559	-200.000	-0.034	-0.209
-284.545	255.075	0.074	-0.126
-283.530	37.658	0.311	-0.274
-282.516	-31.855	0.063	-0.035
-281.501	-141.115	0.155	-0.016
-280.486	800.000	0.043	-0.119
-279.472	418.049	-0.046	0.097
-278.457	117.146	-0.167	-0.204
-277.443	-41.359	0.248	0.127
-276.428	-50.672	-0.132	-0.062
-275.413	-76.369	-0.136	-0.048
-274.399	4.392	-0.106	0.077
-273.384	-82.534	0.362	0.117
-272.370	149.725	0.175	-0.235
-271.355	690.773	-0.047	0.123
-270.340	93.761	0.054	0.061
-269.326	-55.996	0.061	-0.027
-268.311	-200.000	0.010	-0.045
-267.297	800.000	-0.083	-0.243
-266.282	743.725	0.061	-0.162
-265.267	36.249	-0.104	-0.091
-264.253	209.249	0.101	0.156
-263.238	-200.000	-0.012	0.177
-262.224	123.912	0.207	-0.258
-261.209	440.616	-0.102	-0.221
-260.195	-73.231	-0.267	0.097
-259.180	-101.934	0.233	-0.056
-258.165	-164.040	-0.223	0.010
-257.151	-68.489	-0.093	-0.036
-256.136	146.039	-0.068	-0.091
-255.122	-39.602	-0.306	-0.159
-254.107	-60.075	0.055	-0.023
-253.092	798.213	0.028	-0.077
-252.078	117.249	0.397	-0.484
-251.063	-4.755	0.065	-0.044
-250.049	199.887	0.039	0.059
-249.034	800.000	0.056	0.154
-248.019	-200.000	0.043	-0.207
-247.005	-60.534	0.318	-0.134
-245.990	527.827	0.092	0.214
-244.976	36.666	-0.292	0.255
-243.961	-200.000	-0.047	0.224
-242.946	-48.873	-0.254	0.121
-241.932	-200.000	0.004	0.085
-240.917	18.130	0.114	0.090
-239.903	83.553	0.194	-0.209
-238.888	213.695	0.128	0.201
-237.873	199.990	-0.156	0.238
-236.859	783.239	-0.110	-0.297
-235.844	1.775	0.290	0.207
-234.830	-40.299	-0.079	0.041
-233.815	-75.646	-0.266	0.094
-232.800	-72.202	0.197	0.072
-231.786	99.745	0.049	-0.057
-230.771	-200.000	-0.004	-0.051
-229.757	114.801	-0.064	-0.078
-228.742	-90.873	-0.064	0.018
-227.727	414.582	-0.093	0.196
-226.713	-200.000	0.021	0.166
-225.698	800.000	0.086	-0.292
-224.684	-46.830	0.036	-0.018
-223.669	316.888	0.193	-0.362
-222.655	-75.015	-0.159	0.056
-221.640	770.406	-0.039	-0.106
-220.625	-76.705	0.068	0.023
-219.611	800.000	-0.056	-0.191
-218.596	-63.606	-0.134	0.054
-217.582	-73.849	0.223	-0.080
-216.567	800.000	-0.114	0.365
-215.552	800.000	0.057	0.172
-214.538	271.736	-0.134	-0.233
-213.523	-200.000	-0.064	-0.303
-212.509	-73.856	0.187	0.067
-211.494	144.215	-0.138	0.182
-210.479	-82.505	0.047	-0.015
-209.465	61.804	-0.102	-0.101
-208.450	61.393	-0.180	-0.177
-207.436	-200.000	-0.013	0.238
-206.421	-66.635	-0.230	0.090
-205.406	-75.850	0.154	0.054
-204.392	51.041	-0.073	-0.068
-203.377	357.216	-0.139	0.274
-202.363	42.298	-0.241	0.217
-201.348	-200.000	-0.017	0.146
-200.333	800.000	-0.067	-0.270
-199.319	-200.000	0.034	-0.204
-198.304	800.000	0.102	0.323
-197.290	800.000	0.202	0.565
-196.275	208.250	0.117	-0.181
-195.260	-121.138	-0.203	-0.034
-194.246	-28.272	-0.242	0.138
-193.231	38.971	-0.126	0.111
-192.217	-61.532	-0.275	-0.114
-191.202	201.935	0.104	0.158
-190.187	-141.990	0.214	0.021
-189.173	-64.360	0.221	0.089
-188.158	-101.617	-0.086	-0.021
-187.144	128.602	0.173	-0.218
-186.129	-200.000	0.053	-0.292
-185.114	-136.257	-0.146	0.017
-184.100	61.875	0.315	0.311
-183.085	-68.699	0.245	-0.094
-182.071	129.401	-0.212	0.268
-181.056	474.648	0.138	0.309
-180.042	34.244	-0.084	0.073
-179.027	192.970	0.021	0.031
-178.012	328.399	0.132	0.251
-176.998	-132.049	0.337	-0.043
-175.983	-42.392	-0.392	0.198
-174.969	-146.155	-0.275	0.024
-173.954	800.000	-0.044	-0.128
-172.939	18.089	0.153	-0.120
-171.925	-200.000	-0.063	0.321
-170.910	-56.868	0.270	-0.118
-169.896	383.814	0.165	0.337
-168.881	800.000	0.081	-0.297
-167.866	-35.124	-0.224	-0.120
-166.852	-179.255	0.252	0.006
-165.837	-86.492	-0.186	-0.057
-164.823	34.372	-0.128	-0.110
-163.808	-129.469	0.251	0.034
-162.793	399.064	-0.191	0.395
-161.779	157.413	0.111	0.152
-160.764	-61.995	-0.253	-0.104
-159.750	-1.238	-0.147	-0.102
-158.735	-16.325	0.342	0.215
-157.720	800.000	0.033	-0.129
-156.706	-200.000	-0.019	0.091
-155.691	-200.000	0.033	-0.245
-154.677	-22.436	0.158	0.094
-153.662	-94.453	-0.219	-0.059
-152.647	-200.000	-0.066	0.319
-151.633	-167.413	0.299	0.012
-150.618	-45.338	0.144	-0.071
-149.604	800.000	-0.040	0.170
-148.589	800.000	0.067	-0.203
-147.574	-93.311	-0.070	0.019
-146.560	9.132	-0.257	0.192
-145.545	68.243	0.094	-0.095
-144.531	-147.754	-0.145	-0.012
-143.516	-200.000	-0.023	0.165
-142.502	-108.497	0.290	-0.062
-141.487	800.000	-0.077	0.267
-140.472	-151.025	0.283	-0.021
-139.458	0.464	0.224	0.158
-138.443	-200.000	0.036	0.485
-137.429	-148.197	0.113	0.009
-136.414	148.444	-0.205	0.274
-135.399	800.000	-0.083	0.289
-134.385	25.943	-0.168	-0.139
-133.370	132.779	-0.269	0.342
-132.356	800.000	-0.044	-0.179
-131.341	229.470	-0.110	-0.177
-130.326	35.728	-0.287	0.249
-129.312	-89.093	0.286	-0.084
-128.297	155.296	-0.081	0.110
-127.283	243.348	0.140	0.232
-126.268	442.978	0.092	0.199
-125.253	62.593	0.324	0.320
-124.239	-158.312	-0.179	0.010
-123.224	-96.094	-0.046	-0.012
-122.210	-200.000	0.003	-0.015
-121.195	700.541	-0.166	-0.430
-120.180	153.599	-0.205	-0.277
-119.166	-200.000	0.071	-0.458
-118.151	-94.937	0.416	-0.111
-117.137	-116.115	-0.512	-0.094
-116.122	453.976	-0.031	0.068
-115.107	-44.895	0.163	-0.080
-114.093	-200.000	-0.041	-0.253
-113.078	551.440	-0.104	-0.246
-112.064	367.908	0.158	-0.316
-111.049	-200.000	-0.059	0.437
-110.034	-16.267	0.119	0.075
-109.020	-200.000	0.004	-0.086
-108.005	-117.226	0.088	0.016
-106.991	-70.618	0.150	-0.056
-105.976	-57.476	0.051	-0.022
-104.962	-125.214	0.295	0.045
-103.947	-200.000	0.029	-0.212
-102.932	491.659	0.056	0.126
-101.918	-200.000	0.030	0.199
-100.903	-69.504	0.224	-0.085
-99.889	720.931	-0.081	-0.213
-98.874	-149.193	0.134	-0.011
-97.859	53.014	0.371	0.350
-96.845	310.662	-0.140	0.259
-95.830	378.963	0.115	0.232
-94.816	-152.274	0.119	0.008
-93.801	800.000	-0.081	0.310
-92.786	330.095	-0.055	-0.105
-91.772	800.000	-0.017	-0.065
-90.757	294.957	-0.255	-0.460
-89.743	800.000	0.029	0.101
-88.728	-38.973	0.063	0.033
-87.713	-200.000	0.063	0.351
-86.699	-200.000	0.001	0.261
-85.684	-6.655	0.176	0.118
-84.670	163.794	0.074	0.103
-83.655	41.706	0.174	-0.156
-82.640	800.000	0.021	-0.070
-81.626	104.829	0.222	-0.258
-80.611	-200.000	0.017	0.293
-79.597	-60.945	0.333	-0.139
-78.582	-132.352	0.263	-0.033
-77.567	-88.595	0.148	0.044
-76.553	56.100	0.121	-0.116
-75.538	44.785	-0.137	-0.124
-74.524	31.460	-0.041	0.035
-73.509	-83.881	-0.137	0.043
-72.494	315.827	0.239	0.445
-71.480	-137.499	-0.103	0.011
-70.465	-118.193	-0.266	-0.047
-69.451	-76.450	0.210	-0.073
-68.436	149.188	-0.164	0.219
-67.422	-10.738	0.088	0.057
-66.407	-200.000	-0.003	0.286
-65.392	39.554	-0.029	0.026
-64.378	4.397	0.144	-0.104
-63.363	65.628	0.145	-0.144
-62.349	-200.000	0.074	-0.323
-61.334	-36.087	-1.218	-0.647
-60.319	673.352	0.142	0.362
-59.305	95.139	-0.535	-0.600
-58.290	72.681	0.868	0.891
-57.276	509.057	0.661	1.512
-56.261	-200.000	98.190	579.531
-55.246	641.063	1394.147	3493.536
-54.232	190.006	2597.985	3837.124
-53.217	115.239	2287.347	2748.604
-52.203	43.934	1904.369	1716.865
-51.188	37.843	1694.029	1481.076
-50.173	34.982	1650.140	1421.429
-49.159	52.856	1698.298	1597.891
-48.144	56.030	1715.698	1638.063
-47.130	37.514	1672.657	1459.692
-46.115	34.592	1657.734	1424.832
-45.100	34.379	1652.866	1419.007
-44.086	34.413	1649.751	1416.529
-43.071	34.477	1647.364	1414.901
-42.057	34.374	1645.359	1412.359
-41.042	34.387	1643.013	1410.382
-40.027	34.420	1640.776	1408.655
-39.013	34.392	1639.075	1406.933
-37.998	34.405	1637.312	1405.456
-36.984	34.412	1636.125	1404.433
-35.969	34.537	1634.774	1404.141
-34.954	34.597	1632.739	1402.774
-33.940	34.522	1631.089	1400.754
-32.925	34.575	1629.188	1399.454
-31.911	34.507	1627.709	1397.625
-30.896	34.424	1626.249	1395.713
-29.881	34.504	1623.838	1394.172
-28.867	34.464	1622.558	1392.727
-27.852	34.550	1620.873	1391.852
-26.838	34.606	1619.358	1390.905
-25.823	34.525	1618.301	1389.348
-24.809	34.590	1616.810	1388.489
-23.794	34.628	1615.291	1387.406
-22.779	34.562	1613.590	1385.411
-21.765	34.551	1612.026	1383.931
-20.750	34.567	1610.540	1382.719
-19.736	34.663	1608.838	1381.895
-18.721	34.656	1607.889	1380.979
-17.706	34.636	1605.850	1379.022
-16.692	34.541	1604.333	1376.982
-15.677	34.521	1603.310	1375.904
-14.663	34.590	1601.731	1374.990
-13.648	34.562	1600.744	1373.891
-12.633	34.572	1599.127	1372.519
-11.619	34.531	1597.649	1370.900
-10.604	34.710	1595.717	1370.472
-9.590	34.636	1594.621	1368.945
-8.575	34.614	1593.551	1367.815
-7.560	34.512	1592.379	1366.027
-6.546	34.636	1591.243	1365.883
-5.531	34.541	1590.589	1364.590
-4.517	34.521	1588.824	1362.874
-3.502	34.591	1587.681	1362.341
-2.487	34.658	1586.266	1361.549
-1.473	34.193	1574.146	1347.804
-0.458	31.338	1554.094	1310.590
0.556	27.766	1553.557	1274.652
1.571	25.162	1577.203	1275.440
2.586	24.429	1590.396	1280.740
3.600	21.628	1536.876	1218.074
4.615	13.122	1428.031	1076.496
5.629	6.037	1363.423	983.477
6.644	5.006	1355.644	971.359
7.659	4.866	1354.389	969.502
8.673	4.813	1353.492	968.445
9.688	4.844	1351.722	967.282
10.702	4.789	1348.991	964.900
11.717	7.931	1354.795	988.499
12.731	15.573	1369.436	1046.886
13.746	20.401	1376.221	1082.138
14.761	20.001	1373.934	1077.760
15.775	19.017	1371.473	1069.618
16.790	17.884	1368.502	1060.170
17.804	17.103	1366.132	1053.396
18.819	16.676	1364.850	1049.668
19.834	16.477	1363.595	1047.380
20.848	16.243	1362.519	1045.009
21.863	16.022	1361.307	1042.620
22.877	15.913	1360.317	1041.098
23.892	15.856	1359.097	1039.722
24.907	15.827	1358.628	1039.092
25.921	15.817	1357.563	1038.120
26.936	15.945	1356.614	1038.096
27.950	16.010	1355.340	1037.428
28.965	16.083	1354.526	1037.163
29.980	16.211	1353.512	1037.081
30.994	16.138	1353.040	1036.180
32.009	16.206	1351.889	1035.620
33.023	16.146	1350.724	1034.271
34.038	16.201	1348.858	1033.084
35.053	15.996	1347.926	1031.028
36.067	16.054	1346.541	1030.233
37.082	16.084	1345.770	1029.736
38.096	16.078	1344.811	1028.871
39.111	16.165	1344.021	1028.707
40.126	15.977	1343.160	1026.808
41.140	15.917	1342.176	1025.602
42.155	15.792	1341.154	1023.971
43.169	15.760	1341.518	1023.960
44.184	15.770	1340.800	1023.382
45.199	15.700	1340.890	1022.937
46.213	15.915	1340.048	1023.513
47.228	15.973	1339.293	1023.193
48.242	15.995	1338.335	1022.504
49.257	16.031	1336.534	1021.257
50.271	15.896	1335.166	1019.308
51.286	15.959	1333.969	1018.680
52.301	15.955	1332.471	1017.424
53.315	15.874	1331.462	1016.072
54.330	15.843	1330.377	1014.970
55.344	15.883	1329.049	1014.105
56.359	15.881	1328.082	1013.271
57.374	15.752	1327.567	1012.010
58.388	15.658	1326.645	1010.651
59.403	15.655	1326.013	1010.066
60.417	15.693	1324.970	1009.406
61.432	15.657	1324.576	1008.804
62.447	15.603	1323.402	1007.496
63.461	15.534	1322.590	1006.373
64.476	15.559	1321.363	1005.500
65.490	15.561	1320.176	1004.520
66.505	15.583	1318.533	1003.315
67.520	15.671	1317.281	1002.797
68.534	15.580	1316.657	1001.693
69.549	15.621	1315.531	1000.989
70.563	15.663	1314.255	1000.180
71.578	15.501	1313.262	998.373
72.593	15.401	1312.479	997.094
73.607	15.459	1311.755	996.804
74.622	15.487	1310.459	995.893
75.636	15.494	1309.916	995.435
76.651	15.627	1308.862	995.332
77.666	15.539	1308.488	994.440
78.680	15.656	1308.028	994.697
79.695	15.603	1307.790	994.111
80.709	15.646	1306.670	993.429
81.724	15.801	1305.620	993.454
82.739	15.735	1305.278	992.717
83.753	15.762	1304.832	992.451
84.768	15.965	1303.108	992.250
85.782	16.044	1302.086	991.845
86.797	16.072	1300.449	990.679
87.812	15.962	1299.426	989.164
88.826	15.916	1298.572	988.159
89.841	15.844	1297.834	987.086
90.855	15.945	1296.691	986.720
91.870	16.017	1295.991	986.522
92.884	16.054	1295.073	985.953
93.899	16.109	1293.752	985.179
94.914	16.212	1293.669	985.635
95.928	16.147	1292.761	984.475
96.943	16.087	1291.124	982.788
97.957	15.951	1290.788	981.657
98.972	16.028	1289.744	981.220
99.987	16.020	1288.864	980.420
101.001	16.151	1287.345	979.937
102.016	15.991	1286.742	978.464
103.030	15.931	1286.311	977.702
104.045	16.011	1285.307	977.313
105.060	16.016	1283.619	975.975
106.074	15.755	1282.420	973.466
107.089	15.691	1280.941	971.888
108.103	15.680	1279.650	970.756
109.118	15.725	1278.688	970.201
110.133	15.670	1277.452	968.859
111.147	15.689	1275.789	967.624
112.162	15.850	1274.347	967.369
113.176	15.705	1273.658	965.931
114.191	15.769	1272.724	965.502
115.206	15.759	1271.376	964.334
116.220	15.784	1270.493	963.727
117.235	15.859	1268.700	962.707
118.249	15.779	1268.076	961.690
119.264	15.748	1267.050	960.650
120.279	15.588	1266.118	958.946
121.293	15.665	1264.749	958.266
122.308	15.715	1263.395	957.440
123.322	15.572	1262.740	956.042
124.337	15.611	1261.428	955.187
125.352	15.640	1260.743	954.751
126.366	15.710	1259.390	954.036
127.381	15.732	1258.278	953.236
128.395	15.584	1257.459	951.690
129.410	15.529	1257.262	951.146
130.424	15.731	1255.677	951.007
131.439	15.706	1254.941	950.223
132.454	15.774	1253.705	949.589
133.468	15.800	1253.141	949.221
134.483	15.771	1252.942	948.825
135.497	15.822	1251.461	947.907
136.512	15.820	1250.532	947.110
137.527	15.829	1248.869	945.815
138.541	15.822	1247.563	944.702
139.556	15.955	1246.034	944.208
140.570	15.895	1245.967	943.738
141.585	15.960	1244.263	942.724
142.600	16.069	1243.191	942.438
143.614	16.183	1242.314	942.328
144.629	16.069	1241.604	941.073
145.643	16.104	1240.124	940.060
146.658	16.123	1238.344	938.733
147.673	15.930	1237.385	936.849
148.687	15.777	1236.589	935.315
149.702	15.823	1235.331	934.534
150.716	15.731	1233.879	932.842
151.731	15.870	1232.723	932.660
152.746	15.827	1231.527	931.431
153.760	15.969	1230.182	931.118
154.775	16.031	1229.537	930.888
155.789	16.117	1227.769	929.941
156.804	16.060	1227.158	929.082
157.819	16.019	1226.343	928.158
158.833	16.172	1225.494	928.276
159.848	16.216	1224.325	927.548
160.862	16.137	1223.561	926.456
161.877	16.008	1222.516	924.876
162.892	16.005	1220.900	923.554
163.906	15.961	1220.576	922.987
164.921	15.926	1219.498	921.896
165.935	16.052	1218.288	921.591
166.950	16.089	1217.773	921.322
167.964	16.103	1216.699	920.504
168.979	16.033	1216.560	919.933
169.994	16.006	1216.170	919.411
171.008	16.024	1214.767	918.366
172.023	16.082	1214.033	918.047
173.037	16.235	1212.942	917.973
174.052	16.297	1211.893	917.434
175.067	16.036	1211.023	915.280
176.081	16.096	1209.836	914.625
177.096	16.074	1209.291	914.013
178.110	16.023	1208.217	912.844
179.125	16.082	1207.315	912.402
180.140	16.146	1205.887	911.587
181.154	16.178	1204.728	910.804
182.169	16.260	1203.776	910.444
183.183	16.322	1202.634	909.832
184.198	16.299	1201.777	908.981
185.213	16.377	1200.423	908.298
186.227	16.374	1199.205	907.278
187.242	16.433	1198.157	906.722
188.256	16.436	1197.482	906.146
189.271	16.447	1196.389	905.301
190.286	16.357	1195.143	903.794
191.300	16.032	1194.547	901.523
192.315	15.953	1193.790	900.454
193.329	16.064	1193.281	900.579
194.344	16.118	1192.394	900.120
195.359	16.107	1192.387	899.977
196.373	16.240	1191.619	900.027
197.388	16.381	1191.094	900.300
198.402	16.486	1190.699	900.484
199.417	16.504	1190.018	899.984
200.432	16.577	1189.429	899.846
201.446	16.644	1188.798	899.649
202.461	16.763	1187.334	899.090
203.475	16.700	1186.703	898.202
204.490	16.701	1185.229	897.008
205.504	16.523	1184.323	895.303
206.519	16.552	1183.155	894.496
207.534	16.535	1181.690	893.218
208.548	16.503	1180.913	892.380
209.563	16.510	1180.229	891.825
210.577	16.562	1179.250	891.277
211.592	16.521	1178.521	890.434
212.607	16.759	1177.509	890.840
213.621	16.615	1177.273	889.825
214.636	16.687	1175.862	889.059
215.650	16.669	1175.178	888.371
216.665	16.733	1174.013	887.743
217.680	16.748	1173.692	887.502
218.694	16.912	1172.284	887.220
219.709	16.775	1171.739	886.010
220.723	16.635	1171.048	884.677
221.738	16.733	1170.277	884.529
222.753	16.857	1169.236	884.311
223.767	16.928	1168.702	884.200
224.782	17.017	1167.989	884.046
225.796	17.001	1167.262	883.334
226.811	16.988	1166.696	882.759
227.826	16.981	1165.987	882.110
228.840	16.866	1165.333	880.940
229.855	16.922	1164.407	880.449
230.869	16.898	1163.488	879.553
231.884	16.901	1162.850	879.008
232.899	16.777	1162.137	877.747
233.913	16.709	1162.057	877.259
234.928	16.799	1160.694	876.620
235.942	16.756	1160.135	875.896
236.957	16.779	1158.985	875.067
237.972	16.896	1158.195	875.001
238.986	16.832	1157.940	874.401
240.001	16.645	1157.394	872.945
241.015	16.838	1156.020	872.824
242.030	16.867	1155.388	872.419
243.045	16.957	1154.804	872.365
244.059	16.829	1154.480	871.383
245.074	16.977	1153.286	871.168
246.088	17.037	1152.540	870.833
247.103	17.167	1151.483	870.622
248.117	17.132	1151.416	870.319
249.132	17.289	1150.378	870.258
250.147	17.398	1149.905	870.381
251.161	17.458	1149.122	870.020
252.176	17.510	1148.495	869.732
253.190	17.426	1148.037	868.882
254.205	17.481	1147.362	868.575
255.220	17.637	1146.170	868.389
256.234	17.524	1145.979	867.590
257.249	17.469	1145.408	866.800
258.263	17.529	1144.386	866.257
259.278	17.515	1143.905	865.747
260.293	17.507	1143.668	865.448
261.307	17.597	1143.094	865.396
262.322	17.644	1142.230	864.902
263.336	17.638	1141.519	864.258
264.351	17.628	1141.399	864.043
265.366	17.686	1140.324	863.442
266.380	17.692	1139.726	862.943
267.395	17.749	1138.692	862.371
268.409	17.687	1137.753	861.276
269.424	17.518	1137.794	860.376
270.439	17.561	1137.038	859.942
271.453	17.570	1136.265	859.328
272.468	17.453	1135.631	858.184
273.482	17.467	1134.391	857.239
274.497	17.589	1134.065	857.533
275.512	17.636	1133.089	856.957
276.526	17.552	1132.681	856.147
277.541	17.760	1131.639	856.327
278.555	17.749	1131.087	855.781
279.570	17.817	1130.315	855.464
280.585	17.883	1129.574	855.154
281.599	17.929	1128.770	854.701
282.614	17.678	1127.812	852.644
283.628	17.712	1126.264	851.569
284.643	17.723	1125.810	851.207
285.657	17.763	1124.938	850.672
286.672	17.738	1124.007	849.765
287.687	17.830	1123.043	849.420
288.701	17.795	1122.300	848.608
289.716	17.861	1121.400	848.182
290.730	17.966	1120.785	848.162
291.745	17.861	1120.203	847.125
292.760	17.869	1119.794	846.782
293.774	17.978	1119.108	846.727
294.789	17.962	1119.107	846.576
295.803	17.990	1118.063	845.847
296.818	17.921	1116.781	844.460
297.833	17.888	1116.069	843.684
298.847	17.911	1115.506	843.298
299.862	17.928	1114.674	842.677
300.876	17.877	1114.116	841.934
301.891	18.071	1113.472	842.327
302.906	18.233	1112.749	842.504
303.920	18.106	1112.264	841.437
304.935	18.162	1111.509	841.068
305.949	18.245	1110.883	840.924
306.964	18.338	1110.287	840.855
307.979	18.369	1108.951	839.923
308.993	18.305	1108.309	839.048
310.008	18.362	1107.543	838.675
311.022	18.214	1107.239	837.643
312.037	18.215	1106.439	836.969
313.052	18.209	1105.096	835.853
314.066	18.189	1104.152	834.966
315.081	18.076	1103.305	833.701
316.095	18.058	1102.730	833.104
317.110	18.113	1101.622	832.459
318.125	18.181	1101.051	832.285
319.139	18.007	1100.914	831.263
320.154	18.008	1100.095	830.574
321.168	18.039	1099.543	830.236
322.183	18.190	1098.700	830.260
323.197	18.074	1098.510	829.479
324.212	18.019	1098.093	828.826
325.227	18.157	1097.135	828.698
326.241	18.190	1096.489	828.294
327.256	18.107	1095.635	827.177
328.270	18.245	1094.571	826.966
329.285	18.257	1093.454	826.107
330.300	18.176	1092.916	825.234
331.314	18.208	1091.921	824.567
332.329	18.218	1091.073	823.900
333.343	18.326	1090.077	823.596
334.358	18.340	1089.144	822.884
335.373	18.334	1088.743	822.479
336.387	18.362	1088.243	822.164
337.402	18.405	1087.725	821.906
338.416	18.505	1086.588	821.453
339.431	18.553	1085.998	821.163
340.446	18.585	1085.370	820.772
341.460	18.563	1084.738	820.114
342.475	18.694	1083.928	820.056
343.489	18.614	1083.582	819.337
344.504	18.750	1082.307	818.952
345.519	18.742	1081.333	818.104
346.533	18.873	1080.336	817.903
347.548	18.870	1079.921	817.500
348.562	18.735	1079.264	816.290
349.577	18.682	1078.510	815.395
350.592	18.632	1077.419	814.258
351.606	18.560	1076.458	813.118
352.621	18.489	1075.900	812.290
353.635	18.542	1075.478	812.152
354.650	18.600	1074.927	811.935
355.665	18.642	1073.913	811.297
356.679	18.731	1073.295	811.181
357.694	18.795	1072.831	811.058
358.708	18.731	1072.549	810.473
359.723	18.822	1071.925	810.359
360.738	18.758	1071.087	809.350
361.752	18.849	1070.386	809.176
362.767	18.791	1069.778	808.374
363.781	18.829	1069.146	808.003
364.796	19.022	1068.753	808.541
365.810	19.055	1068.248	808.246
366.825	19.139	1067.360	807.894
367.840	19.021	1067.248	807.187
368.854	19.175	1066.275	807.098
369.869	19.180	1065.793	806.688
370.883	19.137	1064.980	805.801
371.898	19.084	1063.931	804.684
372.913	18.993	1063.729	804.037
373.927	19.103	1062.939	803.882
374.942	19.163	1062.446	803.717
375.956	19.133	1061.762	802.991
376.971	19.188	1061.311	802.834
377.986	19.256	1060.971	802.824
379.000	19.325	1060.410	802.651
380.015	19.161	1060.242	801.687
381.029	19.402	1059.324	802.041
382.044	19.277	1058.844	801.026
383.059	19.383	1057.846	800.691
384.073	19.366	1056.841	799.784
385.088	19.344	1056.152	799.086
386.102	19.268	1055.621	798.263
387.117	19.245	1054.349	797.126
388.132	19.095	1053.771	795.923
389.146	19.077	1053.093	795.260
390.161	19.248	1051.759	794.971
391.175	19.169	1051.320	794.202
392.190	19.213	1050.675	793.848
393.205	19.358	1049.730	793.731
394.219	19.338	1049.145	793.126
395.234	19.253	1048.415	792.116
396.248	19.218	1047.091	790.886
397.263	19.265	1045.917	790.142
398.278	19.261	1045.223	789.528
399.292	19.321	1044.622	789.280
400.307	19.161	1044.146	788.120
401.321	19.220	1043.389	787.750
402.336	19.276	1042.607	787.345
403.350	19.314	1041.759	786.808
404.365	19.253	1041.588	786.330
405.380	19.306	1040.497	785.680
406.394	19.495	1039.690	785.860
407.409	19.407	1039.220	785.033
408.423	19.590	1038.445	785.211
409.438	19.567	1037.861	784.598
410.453	19.549	1037.357	784.066
411.467	19.715	1036.495	784.098
412.482	19.844	1035.749	784.046
413.496	19.740	1035.322	783.182
414.511	19.794	1034.396	782.656
415.526	19.674	1034.804	782.356
416.540	19.824	1034.268	782.559
417.555	19.916	1032.972	781.923
418.569	19.714	1032.743	780.769
419.584	19.894	1032.199	781.101
420.599	19.887	1031.926	780.794
421.613	151.233	1400.660	1789.759
422.628	138.050	1454.387	1789.873
