DTS Sentinel unit serial number:	SN413079Multiplexer serial number:	ORYXHardware model number:	OX4-SRSoftware version number:	ORYX F/W v4.00 Oryx Data Collector v3.7.2.0data status	okinstallation	princeton_trtdifferential loss correction	single-endedforward channel	channel 2reverse channel	N/Adate	2019/09/11time	21:29:11forward acquisition time	60.00reverse acquisition time	0.00gamma	496.2192k internal	0.2325k external	0.2325temperature offset calibration	1.0065default loss term (dB/km)	0.3790temperature slope calibration	1.0000multiplexer offset coefficient	1.0000multiplexer slope coefficient	1.0000fibre end	0.00T internal ref (°C)	36.06T ext. ref 1 (°C)	1.63T ext. ref 2 (°C)	29.94length (m)	temperature (°C)	Stokes	anti-Stokes-747.200	800.000	-0.041	0.177
-746.185	229.053	-0.052	0.085
-745.171	-125.147	0.277	-0.043
-744.156	-95.647	0.099	-0.027
-743.142	28.559	0.296	-0.252
-742.127	800.000	-0.010	0.032
-741.112	-154.144	0.078	-0.005
-740.098	212.864	0.128	0.204
-739.083	77.792	0.172	0.185
-738.069	800.000	0.050	-0.220
-737.054	40.368	0.158	0.143
-736.039	68.372	-0.119	-0.123
-735.025	631.758	0.082	0.209
-734.010	-92.272	-0.144	-0.041
-732.996	461.268	0.037	-0.084
-731.981	-9.541	0.214	-0.144
-730.966	-45.447	0.157	0.078
-729.952	-200.000	-0.079	-0.503
-728.937	-2.995	0.112	-0.079
-727.923	670.959	-0.103	-0.270
-726.908	-200.000	-0.016	-0.456
-725.894	-68.041	-0.226	-0.089
-724.879	141.446	0.020	0.027
-723.864	-40.982	0.289	-0.151
-722.850	-125.265	-0.024	0.004
-721.835	-200.000	-0.023	0.107
-720.821	-107.491	-0.379	0.084
-719.806	445.928	0.159	0.351
-718.791	340.781	-0.191	-0.377
-717.777	62.643	0.072	0.073
-716.762	-72.078	-0.487	-0.182
-715.748	-68.831	-0.094	0.037
-714.733	25.962	0.212	-0.178
-713.718	-36.349	-0.300	-0.163
-712.704	97.922	0.074	0.085
-711.689	-200.000	-0.006	0.277
-710.675	-200.000	-0.060	-0.339
-709.660	60.373	-0.339	-0.338
-708.645	800.000	0.013	0.050
-707.631	63.285	0.113	-0.114
-706.616	685.935	0.110	0.290
-705.602	-134.424	0.112	0.014
-704.587	203.908	-0.166	-0.260
-703.572	-15.620	-0.218	0.140
-702.558	-27.811	-0.143	0.084
-701.543	-200.000	-0.009	0.390
-700.529	215.463	0.236	0.377
-699.514	800.000	0.063	-0.218
-698.499	-138.315	-0.073	-0.008
-697.485	-94.510	0.076	-0.021
-696.470	-125.135	-0.377	0.058
-695.456	-200.000	0.010	0.066
-694.441	-131.095	-0.223	-0.030
-693.426	800.000	0.034	-0.120
-692.412	-118.691	-0.074	0.013
-691.397	-135.450	-0.163	-0.020
-690.383	47.572	-0.154	-0.145
-689.368	-140.394	-0.179	0.019
-688.354	-200.000	-0.013	-0.194
-687.339	139.939	-0.159	0.211
-686.324	-144.011	0.456	-0.043
-685.310	800.000	0.112	0.370
-684.295	107.332	-0.056	-0.066
-683.281	470.778	-0.064	-0.145
-682.266	-200.000	-0.016	-0.349
-681.251	98.847	0.238	-0.276
-680.237	100.422	-0.049	-0.057
-679.222	-106.671	0.281	0.063
-678.208	58.902	0.271	0.268
-677.193	-1.153	-0.216	0.154
-676.178	340.575	-0.092	0.180
-675.164	87.735	-0.103	-0.115
-674.149	238.737	0.024	0.041
-673.135	-200.000	0.019	-0.223
-672.120	19.673	-0.175	-0.142
-671.105	-66.659	-0.164	0.065
-670.091	13.105	-0.162	0.126
-669.076	88.069	-0.147	0.164
-668.062	179.105	-0.199	0.294
-667.047	181.657	0.163	-0.242
-666.032	-36.659	0.208	-0.113
-665.018	-30.704	0.223	-0.127
-664.003	800.000	0.010	-0.041
-662.989	767.098	0.164	-0.448
-661.974	800.000	0.053	-0.152
-660.959	405.998	-0.141	-0.298
-659.945	-154.012	0.191	-0.013
-658.930	61.867	0.269	0.269
-657.916	800.000	-0.079	0.344
-656.901	198.777	-0.192	-0.296
-655.886	130.293	0.100	-0.129
-654.872	800.000	-0.040	0.149
-653.857	-81.555	0.345	0.114
-652.843	516.713	0.191	-0.449
-651.828	388.852	-0.147	-0.306
-650.814	276.183	-0.060	-0.107
-649.799	11.901	-0.249	0.193
-648.784	-50.673	-0.140	0.066
-647.770	-1.899	-0.134	0.095
-646.755	297.363	-0.070	-0.129
-645.741	53.137	0.158	0.152
-644.726	-200.000	0.072	-0.343
-643.711	140.571	0.163	0.216
-642.697	800.000	-0.094	0.275
-641.682	187.511	-0.108	0.161
-640.668	65.061	0.046	0.047
-639.653	-113.432	0.175	0.034
-638.638	-154.698	0.284	0.019
-637.624	-38.488	-0.137	-0.073
-636.609	102.056	0.048	-0.056
-635.595	476.197	0.011	0.024
-634.580	-106.103	0.257	0.058
-633.565	800.000	-0.049	0.140
-632.551	-35.930	-0.269	0.146
-631.536	-77.506	0.061	-0.021
-630.522	429.165	0.051	0.110
-629.507	34.094	0.211	0.184
-628.492	-200.000	0.002	0.273
-627.478	303.046	0.098	-0.183
-626.463	321.328	-0.112	-0.214
-625.449	-95.632	0.321	-0.086
-624.434	554.667	0.098	0.237
-623.419	-200.000	0.005	-0.176
-622.405	-89.315	-0.491	0.145
-621.390	-41.640	-0.162	-0.084
-620.376	-114.592	-0.323	0.062
-619.361	-200.000	-0.011	-0.178
-618.346	283.805	0.143	-0.258
-617.332	-50.343	-0.113	-0.054
-616.317	49.434	0.103	0.097
-615.303	20.307	-0.234	-0.190
-614.288	47.619	0.146	-0.136
-613.273	155.644	-0.016	-0.022
-612.259	11.350	0.179	-0.138
-611.244	-200.000	-0.043	0.311
-610.230	593.135	-0.124	0.308
-609.215	208.355	0.076	0.120
-608.201	132.811	-0.245	0.318
-607.186	36.024	-0.063	-0.055
-606.171	-200.000	-0.018	0.110
-605.157	-170.819	0.177	-0.006
-604.142	-8.923	0.384	-0.258
-603.128	800.000	0.023	-0.093
-602.113	53.834	0.075	-0.072
-601.098	-46.640	-0.226	-0.111
-600.084	-200.000	0.038	0.298
-599.069	-126.224	0.106	-0.016
-598.055	-61.950	0.179	-0.075
-597.040	800.000	0.077	0.223
-596.025	308.568	-0.130	0.243
-595.011	800.000	0.064	-0.250
-593.996	28.869	-0.284	-0.241
-592.982	-200.000	-0.022	-0.143
-591.967	-200.000	0.063	-0.293
-590.952	267.635	-0.084	0.147
-589.938	-200.000	0.018	0.141
-588.923	278.666	0.173	0.310
-587.909	-105.122	0.111	-0.026
-586.894	800.000	-0.154	-0.468
-585.879	-200.000	-0.050	-0.241
-584.865	-200.000	-0.025	-0.263
-583.850	-200.000	-0.001	-0.145
-582.836	-166.305	0.246	-0.010
-581.821	-113.196	-0.140	-0.028
-580.806	-27.745	0.116	-0.067
-579.792	-158.836	-0.189	-0.011
-578.777	-200.000	0.003	-0.133
-577.763	-19.221	0.298	-0.185
-576.748	-200.000	-0.001	-0.331
-575.733	-200.000	0.019	-0.122
-574.719	136.508	-0.135	0.177
-573.704	28.989	0.201	-0.171
-572.690	-184.719	-0.204	-0.003
-571.675	187.066	-0.097	-0.144
-570.661	-14.046	-0.311	-0.201
-569.646	-13.379	0.374	0.243
-568.631	-28.734	0.279	-0.161
-567.617	-65.550	-0.263	-0.106
-566.602	325.839	0.040	-0.077
-565.588	-200.000	-0.037	0.243
-564.573	-71.224	-0.332	0.125
-563.558	596.772	0.087	0.215
-562.544	336.336	-0.134	0.261
-561.529	-104.678	0.221	-0.051
-560.515	-38.356	0.027	0.014
-559.500	-200.000	-0.001	-0.126
-558.485	96.848	-0.078	-0.089
-557.471	-200.000	0.034	-0.216
-556.456	-156.888	-0.446	0.027
-555.442	-40.185	0.226	-0.118
-554.427	4.978	-0.015	-0.011
-553.412	31.090	-0.182	0.156
-552.398	71.932	0.157	-0.163
-551.383	-133.699	-0.344	-0.043
-550.369	-200.000	-0.030	0.381
-549.354	-200.000	0.003	-0.050
-548.339	212.458	-0.118	-0.186
-547.325	374.764	-0.127	0.258
-546.310	-135.439	-0.402	0.048
-545.296	-200.000	-0.014	-0.246
-544.281	-200.000	0.065	-0.420
-543.266	-135.826	-0.300	-0.035
-542.252	545.332	0.153	0.365
-541.237	194.507	-0.099	0.150
-540.223	54.440	0.041	0.040
-539.208	-95.558	-0.518	-0.139
-538.193	-156.524	0.227	-0.014
-537.179	-118.348	-0.124	0.022
-536.164	314.429	0.183	0.344
-535.150	-177.614	-0.036	0.001
-534.135	-200.000	0.032	0.153
-533.121	450.068	0.065	-0.144
-532.106	-171.165	0.162	0.005
-531.091	-200.000	0.046	0.504
-530.077	-121.453	-0.460	-0.077
-529.062	-200.000	0.003	-0.262
-528.048	213.342	0.017	-0.028
-527.033	-161.907	0.129	0.007
-526.018	-200.000	-0.024	0.359
-525.004	-22.524	-0.135	-0.082
-523.989	394.015	0.033	0.068
-522.975	-13.007	0.147	-0.096
-521.960	-159.608	0.022	-0.001
-520.945	642.249	-0.063	-0.161
-519.931	-200.000	-0.034	-0.271
-518.916	729.196	0.017	-0.045
-517.902	15.958	-0.185	-0.145
-516.887	34.526	0.168	0.147
-515.872	544.244	0.036	0.087
-514.858	687.840	0.057	0.149
-513.843	362.175	-0.099	-0.199
-512.829	-140.597	-0.220	-0.023
-511.814	800.000	-0.033	-0.127
-510.799	30.955	-0.212	-0.182
-509.785	222.802	-0.175	-0.282
-508.770	-200.000	-0.027	-0.174
-507.756	49.792	-0.258	-0.244
-506.741	-86.620	-0.243	-0.075
-505.726	-200.000	0.011	0.279
-504.712	-41.565	-0.297	-0.153
-503.697	-101.676	0.165	0.040
-502.683	-200.000	-0.012	-0.111
-501.668	72.852	-0.155	-0.162
-500.653	-55.634	0.047	-0.021
-499.639	-200.000	-0.015	-0.227
-498.624	360.235	-0.061	-0.121
-497.610	-149.660	0.044	-0.003
-496.595	-200.000	0.038	-0.408
-495.581	-53.759	-0.227	-0.103
-494.566	-200.000	-0.043	-0.260
-493.551	489.866	0.157	-0.358
-492.537	-200.000	-0.037	-0.196
-491.522	766.760	-0.051	0.140
-490.508	-200.000	-0.036	0.206
-489.493	-200.000	-0.009	0.205
-488.478	169.521	-0.194	0.277
-487.464	289.024	0.113	0.204
-486.449	-127.034	-0.235	-0.034
-485.435	-200.000	-0.033	-0.446
-484.420	239.651	-0.060	-0.100
-483.405	45.254	0.289	-0.266
-482.391	-7.578	-0.239	-0.162
-481.376	530.320	0.110	0.259
-480.362	-200.000	-0.049	0.360
-479.347	173.652	-0.236	0.340
-478.332	406.525	0.079	-0.166
-477.318	800.000	0.017	-0.061
-476.303	-96.169	0.056	0.015
-475.289	-200.000	0.032	-0.195
-474.274	-41.410	0.151	0.078
-473.259	255.354	-0.028	0.048
-472.245	-22.794	-0.328	-0.198
-471.230	194.472	-0.179	0.271
-470.216	77.337	0.198	0.211
-469.201	-200.000	-0.002	-0.355
-468.186	186.964	-0.033	-0.050
-467.172	-200.000	-0.019	-0.188
-466.157	-53.124	-0.136	-0.062
-465.143	154.017	0.070	0.096
-464.128	-79.863	-0.129	0.043
-463.113	-195.950	0.527	-0.004
-462.099	180.009	0.027	0.040
-461.084	-80.546	-0.312	0.104
-460.070	-149.028	0.198	-0.016
-459.055	33.066	-0.181	-0.157
-458.040	800.000	0.060	-0.180
-457.026	547.912	0.083	-0.199
-456.011	74.170	0.170	-0.179
-454.997	12.849	-0.364	0.281
-453.982	19.431	-0.102	0.082
-452.968	-200.000	0.002	0.039
-451.953	-41.307	-0.215	-0.111
-450.938	742.399	0.174	-0.468
-449.924	80.700	0.074	0.080
-448.909	21.410	0.218	0.177
-447.895	59.289	0.315	-0.309
-446.880	-136.505	0.332	0.038
-445.865	800.000	-0.042	0.126
-444.851	42.786	-0.012	-0.011
-443.836	-101.217	-0.251	-0.061
-442.822	28.154	0.234	-0.197
-441.807	209.143	-0.034	0.053
-440.792	30.072	0.216	0.184
-439.778	21.573	-0.095	0.077
-438.763	121.765	-0.225	-0.280
-437.749	782.992	0.053	0.145
-436.734	108.967	-0.156	-0.186
-435.719	-200.000	-0.038	-0.243
-434.705	344.361	-0.158	0.308
-433.690	-59.806	-0.139	0.059
-432.676	-7.099	-0.283	-0.192
-431.661	230.682	0.063	-0.103
-430.646	-16.536	-0.160	0.101
-429.632	-86.548	-0.202	-0.062
-428.617	-200.000	0.005	0.111
-427.603	-185.979	-0.272	-0.004
-426.588	-16.852	0.499	-0.314
-425.573	575.050	-0.080	0.194
-424.559	-97.823	-0.350	-0.090
-423.544	-174.560	0.182	-0.005
-422.530	720.295	-0.161	0.428
-421.515	-130.186	0.239	0.032
-420.500	100.174	0.158	0.183
-419.486	-160.073	-0.197	-0.011
-418.471	136.602	-0.143	0.186
-417.457	-75.835	-0.218	0.077
-416.442	256.374	-0.061	-0.105
-415.428	-77.964	0.159	0.055
-414.413	-200.000	0.009	0.215
-413.398	-90.412	0.347	0.100
-412.384	-117.534	0.280	0.050
-411.369	-200.000	-0.015	0.246
-410.355	140.783	0.157	-0.207
-409.340	33.619	-0.151	-0.131
-408.325	219.836	-0.288	0.459
-407.311	12.513	0.056	0.043
-406.296	800.000	0.039	0.108
-405.282	800.000	0.099	0.302
-404.267	-200.000	-0.033	0.341
-403.252	-51.572	-0.105	0.049
-402.238	25.057	0.263	-0.218
-401.223	-200.000	-0.000	0.236
-400.209	142.188	-0.042	0.056
-399.194	154.653	0.177	0.242
-398.179	-140.807	-0.179	-0.018
-397.165	589.619	-0.078	0.192
-396.150	275.946	0.169	-0.298
-395.136	800.000	-0.101	0.308
-394.121	76.106	0.082	-0.086
-393.106	-57.461	0.452	-0.198
-392.092	69.581	-0.121	0.124
-391.077	-200.000	0.009	0.309
-390.063	-21.940	0.227	0.138
-389.048	800.000	0.036	-0.107
-388.033	-25.344	0.209	-0.123
-387.019	67.824	0.024	-0.025
-386.004	800.000	-0.015	-0.046
-384.990	-127.788	-0.094	0.013
-383.975	-124.799	0.220	-0.034
-382.960	375.066	-0.119	0.241
-381.946	-101.851	0.021	0.005
-380.931	56.127	0.171	-0.165
-379.917	-147.442	-0.139	-0.012
-378.902	-135.410	0.105	-0.012
-377.888	281.466	0.146	-0.259
-376.873	-99.357	-0.055	-0.014
-375.858	-103.101	-0.258	-0.061
-374.844	92.694	0.295	0.331
-373.829	-200.000	-0.009	-0.142
-372.815	35.519	0.237	0.207
-371.800	-24.686	-0.084	-0.050
-370.785	109.344	0.097	-0.116
-369.771	-135.488	0.168	-0.020
-368.756	-118.475	0.238	0.042
-367.742	-176.719	0.164	-0.004
-366.727	-107.164	0.171	-0.038
-365.712	-86.462	0.094	-0.029
-364.698	100.967	-0.048	0.056
-363.683	95.126	0.115	-0.130
-362.669	-164.898	-0.150	0.007
-361.654	-100.946	-0.208	0.051
-360.639	-149.855	-0.314	-0.024
-359.625	800.000	-0.102	0.314
-358.610	130.691	0.135	0.172
-357.596	80.263	-0.195	-0.209
-356.581	303.163	-0.113	-0.207
-355.566	329.264	0.136	-0.259
-354.552	339.937	-0.197	-0.383
-353.537	1.248	-0.366	0.261
-352.523	375.675	0.092	0.186
-351.508	36.345	0.187	0.164
-350.493	-200.000	0.064	-0.305
-349.479	-10.383	-0.260	-0.171
-348.464	-200.000	-0.022	0.302
-347.450	800.000	-0.127	0.488
-346.435	411.663	0.154	0.325
-345.420	-83.236	0.277	0.089
-344.406	216.877	-0.070	-0.110
-343.391	20.112	-0.059	0.048
-342.377	100.533	0.206	0.238
-341.362	79.858	-0.127	0.135
-340.348	-200.000	-0.011	0.305
-339.333	-133.925	0.071	-0.009
-338.318	21.532	-0.321	-0.260
-337.304	-1.105	-0.220	0.155
-336.289	-111.994	-0.167	0.034
-335.275	-29.260	-0.035	-0.020
-334.260	68.110	-0.126	0.128
-333.245	705.813	-0.044	0.116
-332.231	-117.973	0.015	0.003
-331.216	-127.169	-0.272	0.040
-330.202	302.899	0.175	0.322
-329.187	-59.248	-0.132	0.056
-328.172	-81.272	-0.259	-0.085
-327.158	461.600	-0.159	-0.352
-326.143	41.751	0.119	-0.107
-325.129	-200.000	-0.034	-0.210
-324.114	-132.150	-0.180	-0.023
-323.099	-184.225	-0.460	0.008
-322.085	99.880	0.136	0.157
-321.070	-200.000	-0.019	-0.143
-320.056	-54.500	0.396	0.178
-319.041	51.553	0.133	0.126
-318.026	237.878	-0.118	0.195
-317.012	411.598	-0.030	0.062
-315.997	260.526	-0.081	0.139
-314.983	800.000	-0.102	-0.372
-313.968	-71.016	0.316	-0.118
-312.953	-116.860	-0.158	-0.029
-311.939	8.449	0.338	0.252
-310.924	654.531	-0.091	0.232
-309.910	26.600	0.311	-0.259
-308.895	-103.274	-0.134	0.031
-307.880	-43.832	0.016	-0.008
-306.866	-59.365	-0.227	0.097
-305.851	346.642	-0.045	0.089
-304.837	34.445	0.087	-0.075
-303.822	23.261	-0.264	0.215
-302.807	-84.477	-0.223	0.070
-301.793	-145.676	0.284	0.025
-300.778	-200.000	-0.083	0.556
-299.764	507.386	0.039	-0.089
-298.749	490.651	0.220	0.499
-297.735	49.329	0.311	0.290
-296.720	-1.910	0.367	0.256
-295.705	15.204	-0.160	-0.125
-294.691	-105.911	0.356	-0.080
-293.676	-3.094	0.287	-0.198
-292.662	-200.000	0.120	0.000
-291.647	-160.203	-0.334	-0.018
-290.632	145.947	-0.363	-0.482
-289.618	28.991	0.044	0.037
-288.603	-79.738	-0.258	-0.086
-287.589	-57.085	-0.241	-0.105
-286.574	-103.098	-0.135	-0.032
-285.559	376.308	0.152	-0.308
-284.545	-72.029	0.115	0.043
-283.530	-132.232	0.251	0.032
-282.516	-200.000	-0.009	-0.216
-281.501	-200.000	-0.006	0.031
-280.486	463.677	-0.199	0.441
-279.472	512.184	0.137	0.317
-278.457	-78.329	0.249	0.085
-277.443	146.507	0.056	0.075
-276.428	664.503	-0.029	-0.075
-275.413	-200.000	-0.035	0.360
-274.399	-10.125	0.202	0.133
-273.384	-93.434	-0.176	-0.048
-272.370	130.942	-0.121	0.154
-271.355	-200.000	-0.014	0.253
-270.340	-40.105	-0.187	-0.097
-269.326	-135.652	0.232	0.027
-268.311	497.250	-0.101	0.230
-267.297	-129.315	0.118	0.016
-266.282	-200.000	-0.016	0.128
-265.267	-75.541	0.312	-0.110
-264.253	-76.888	0.232	-0.080
-263.238	526.242	-0.152	-0.355
-262.224	311.944	0.160	-0.298
-261.209	50.864	-0.257	0.241
-260.195	212.255	-0.072	-0.113
-259.180	-200.000	0.028	0.145
-258.165	54.259	0.186	0.177
-257.151	152.512	0.191	-0.259
-256.136	-200.000	0.011	0.271
-255.122	26.136	0.140	-0.116
-254.107	-100.729	0.199	-0.049
-253.092	-19.092	-0.270	0.166
-252.078	-96.512	-0.151	0.039
-251.063	800.000	0.065	0.179
-250.049	-200.000	0.063	0.297
-249.034	-161.600	-0.298	-0.015
-248.019	-187.512	0.212	0.003
-247.005	-72.018	0.153	0.056
-245.990	46.806	0.385	0.354
-244.976	240.656	0.062	0.103
-243.961	-46.548	0.518	0.251
-242.946	-108.577	-0.146	0.031
-241.932	236.888	0.055	0.091
-240.917	-28.044	-0.105	-0.060
-239.903	76.271	0.085	-0.089
-238.888	714.788	0.153	-0.402
-237.873	340.375	-0.037	-0.072
-236.859	-200.000	-0.035	0.164
-235.844	800.000	-0.056	-0.204
-234.830	210.224	0.050	-0.077
-233.815	-80.407	-0.172	0.057
-232.800	-79.912	0.116	-0.039
-231.786	-163.368	0.524	0.025
-230.771	-200.000	0.017	0.093
-229.757	322.891	0.082	-0.154
-228.742	-65.475	0.127	0.051
-227.727	225.344	-0.079	0.126
-226.713	-200.000	0.009	-0.280
-225.698	-10.726	0.125	0.082
-224.684	-28.788	0.261	-0.148
-223.669	800.000	0.046	0.172
-222.655	-1.690	0.071	-0.049
-221.640	-88.408	0.345	-0.102
-220.625	-200.000	-0.034	0.229
-219.611	-28.906	0.118	-0.067
-218.596	-200.000	-0.011	0.161
-217.582	-200.000	0.037	0.165
-216.567	85.799	-0.128	-0.139
-215.552	-120.327	-0.455	0.077
-214.538	141.051	0.167	-0.219
-213.523	-6.690	0.253	-0.170
-212.509	72.641	0.085	-0.087
-211.494	-59.152	0.174	0.074
-210.479	31.711	-0.023	0.019
-209.465	-28.408	-0.252	0.144
-208.450	-3.428	0.269	0.185
-207.436	-200.000	0.056	-0.528
-206.421	-200.000	0.026	-0.517
-205.406	83.193	0.089	-0.096
-204.392	5.835	0.070	-0.051
-203.377	-41.132	0.063	-0.032
-202.363	-106.869	-0.055	0.012
-201.348	-118.183	-0.165	0.029
-200.333	-24.020	0.193	0.114
-199.319	-36.893	0.355	0.188
-198.304	-48.642	0.121	0.057
-197.290	-101.981	0.151	0.036
-196.275	-56.496	0.081	0.035
-195.260	247.466	-0.056	0.093
-194.246	-200.000	-0.055	-0.254
-193.231	-200.000	0.014	-0.385
-192.217	43.292	-0.144	-0.129
-191.202	800.000	-0.060	0.223
-190.187	-200.000	-0.019	-0.125
-189.173	-51.919	-0.300	0.138
-188.158	-12.806	-0.189	-0.122
-187.144	800.000	0.052	-0.205
-186.129	-200.000	0.010	-0.218
-185.114	37.683	0.251	0.220
-184.100	30.167	-0.259	-0.218
-183.085	-99.916	0.323	-0.080
-182.071	112.545	0.198	0.236
-181.056	203.021	0.084	-0.128
-180.042	50.932	-0.158	-0.148
-179.027	-200.000	-0.020	-0.144
-178.012	366.753	-0.101	-0.202
-176.998	-200.000	0.057	-0.258
-175.983	156.693	-0.118	-0.161
-174.969	-200.000	-0.008	0.172
-173.954	-23.495	-0.113	-0.067
-172.939	6.487	0.119	-0.087
-171.925	-200.000	-0.014	-0.187
-170.910	197.835	-0.066	0.100
-169.896	-200.000	-0.019	-0.276
-168.881	631.206	-0.038	-0.094
-167.866	427.285	0.092	-0.195
-166.852	122.122	-0.049	-0.061
-165.837	219.785	0.131	0.208
-164.823	-37.871	-0.142	-0.074
-163.808	-51.855	-0.152	0.070
-162.793	-132.137	0.086	0.011
-161.779	-200.000	-0.049	0.345
-160.764	-152.186	0.268	-0.019
-159.750	-72.492	0.314	0.114
-158.735	-24.914	-0.123	-0.072
-157.720	543.831	-0.122	0.288
-156.706	346.267	-0.075	-0.145
-155.691	51.011	-0.210	-0.196
-154.677	-45.875	-0.186	-0.091
-153.662	496.161	-0.095	-0.214
-152.647	-200.000	-0.013	-0.132
-151.633	-113.885	0.093	0.018
-150.618	476.507	-0.131	0.292
-149.604	-11.887	-0.229	-0.148
-148.589	-127.030	0.293	0.042
-147.574	436.752	-0.113	0.243
-146.560	800.000	0.039	0.152
-145.545	-85.065	-0.175	-0.054
-144.531	485.472	-0.192	-0.430
-143.516	105.153	-0.170	0.198
-142.502	-200.000	0.048	0.378
-141.487	-110.038	0.106	-0.022
-140.472	800.000	-0.102	-0.367
-139.458	303.011	0.222	0.405
-138.443	-22.987	-0.093	0.055
-137.429	724.558	-0.158	-0.415
-136.414	234.651	0.142	0.231
-135.399	23.657	0.166	-0.135
-134.385	800.000	0.060	0.166
-133.370	56.535	0.186	0.179
-132.356	313.335	-0.133	-0.247
-131.341	-1.354	-0.109	-0.075
-130.326	-70.660	-0.311	0.116
-129.312	30.623	0.081	-0.069
-128.297	174.154	0.131	0.187
-127.283	-59.782	-0.112	0.047
-126.268	735.834	-0.047	-0.125
-125.253	-170.416	-0.443	0.015
-124.239	-41.666	-0.192	0.097
-123.224	-58.099	0.175	-0.075
-122.210	-200.000	-0.019	0.088
-121.195	-200.000	0.034	0.476
-120.180	-200.000	-0.012	-0.211
-119.166	-66.615	-0.176	-0.069
-118.151	800.000	-0.098	0.344
-117.137	-200.000	0.049	-0.290
-116.122	76.380	-0.325	-0.339
-115.107	800.000	-0.030	-0.115
-114.093	5.886	0.445	-0.324
-113.078	68.531	0.090	-0.091
-112.064	5.745	0.300	-0.219
-111.049	-79.722	-0.117	0.039
-110.034	273.032	0.092	0.161
-109.020	305.890	-0.133	0.243
-108.005	786.414	-0.122	0.330
-106.991	-82.952	-0.140	0.044
-105.976	-51.976	0.081	-0.037
-104.962	-104.943	-0.186	-0.042
-103.947	-34.836	0.096	-0.051
-102.932	617.696	0.040	-0.099
-101.918	-200.000	0.056	0.306
-100.903	-103.251	-0.255	-0.059
-99.889	1.226	0.144	-0.102
-98.874	233.255	0.133	-0.215
-97.859	260.217	0.166	0.283
-96.845	199.584	0.125	-0.188
-95.830	-200.000	-0.040	0.296
-94.816	-200.000	0.064	-0.358
-93.801	380.364	-0.107	-0.215
-92.786	800.000	-0.076	0.255
-91.772	-88.844	0.128	-0.037
-90.757	367.990	0.139	-0.275
-89.743	-200.000	0.090	0.713
-88.728	-141.689	0.259	0.026
-87.713	-2.973	0.206	-0.142
-86.699	-200.000	-0.024	-0.441
-85.684	-124.589	-0.043	0.007
-84.670	756.326	0.076	0.202
-83.655	-146.140	0.108	0.009
-82.640	-200.000	0.047	-0.277
-81.626	296.955	-0.012	0.021
-80.611	-175.619	0.162	-0.004
-79.597	800.000	-0.054	-0.230
-78.582	-92.733	-0.142	0.039
-77.567	86.724	0.121	0.131
-76.553	-200.000	0.027	-0.340
-75.538	201.586	-0.096	0.145
-74.524	-153.068	0.371	-0.026
-73.509	-108.031	-0.087	0.019
-72.494	-28.134	-0.121	-0.069
-71.480	800.000	0.080	-0.234
-70.465	800.000	0.083	0.302
-69.451	-200.000	-0.073	0.323
-68.436	333.649	0.044	-0.083
-67.422	-163.300	0.113	0.005
-66.407	104.329	-0.182	-0.210
-65.392	-200.000	-0.025	-0.287
-64.378	532.797	-0.070	-0.162
-63.363	511.776	-0.131	0.299
-62.349	279.610	0.104	0.183
-61.334	-19.240	-1.108	-0.676
-60.319	57.329	0.484	0.464
-59.305	-200.000	-0.150	-0.927
-58.290	639.557	0.272	0.681
-57.276	501.583	0.851	1.930
-56.261	-200.000	92.745	556.742
-55.246	555.806	1364.557	3228.029
-54.232	154.620	2581.745	3483.583
-53.217	111.601	2288.899	2712.645
-52.203	45.903	1907.048	1732.907
-51.188	39.484	1695.607	1492.286
-50.173	36.609	1650.237	1431.061
-49.159	54.084	1698.353	1604.267
-48.144	57.502	1716.507	1646.960
-47.130	39.165	1672.851	1469.644
-46.115	36.197	1657.845	1434.371
-45.100	35.999	1652.815	1428.494
-44.086	35.934	1650.213	1425.705
-43.071	35.888	1647.356	1422.839
-42.057	35.801	1645.260	1420.333
-41.042	35.855	1643.661	1419.291
-40.027	36.051	1641.416	1418.742
-39.013	35.868	1639.830	1415.964
-37.998	35.873	1638.357	1414.676
-36.984	35.934	1636.490	1413.452
-35.969	35.990	1635.760	1413.180
-34.954	36.055	1633.919	1412.010
-33.940	36.148	1631.735	1410.744
-32.925	36.071	1630.150	1408.758
-31.911	36.046	1628.281	1406.904
-30.896	36.098	1626.559	1405.737
-29.881	36.069	1624.651	1403.821
-28.867	36.008	1623.540	1402.365
-27.852	36.035	1622.028	1401.200
-26.838	36.074	1620.288	1399.920
-25.823	36.139	1618.548	1398.833
-24.809	36.014	1618.180	1397.552
-23.794	36.045	1616.466	1396.244
-22.779	36.141	1614.600	1395.269
-21.765	36.054	1612.859	1393.081
-20.750	36.080	1610.982	1391.596
-19.736	36.098	1610.237	1391.028
-18.721	36.218	1608.151	1390.032
-17.706	36.092	1607.054	1388.125
-16.692	36.173	1605.532	1387.336
-15.677	36.114	1604.270	1385.764
-14.663	36.105	1602.716	1384.305
-13.648	36.046	1601.397	1382.689
-12.633	36.073	1599.903	1381.533
-11.619	36.118	1598.390	1380.497
-10.604	36.101	1596.922	1379.055
-9.590	36.145	1595.252	1377.872
-8.575	36.102	1594.216	1376.616
-7.560	36.149	1592.906	1375.760
-6.546	36.033	1592.137	1374.218
-5.531	36.061	1591.069	1373.438
-4.517	36.131	1589.728	1372.724
-3.502	36.075	1588.837	1371.500
-2.487	36.126	1587.187	1370.384
-1.473	35.802	1575.507	1357.962
-0.458	33.006	1555.943	1321.515
0.556	29.147	1555.704	1287.876
1.571	26.672	1579.455	1289.826
2.586	26.176	1593.455	1297.583
3.600	23.371	1540.879	1235.134
4.615	13.276	1428.306	1079.228
5.629	3.568	1359.214	966.373
6.644	1.804	1349.702	948.552
7.659	1.671	1348.155	946.553
8.673	1.485	1347.450	944.818
9.688	1.561	1345.179	943.612
10.702	1.313	1342.434	940.068
11.717	4.940	1349.822	967.711
12.731	15.355	1369.828	1047.302
13.746	23.810	1383.170	1110.480
14.761	25.573	1385.931	1123.624
15.775	25.861	1385.385	1124.880
16.790	25.870	1385.497	1124.933
17.804	25.944	1384.512	1124.492
18.819	26.113	1384.073	1125.088
19.834	26.214	1383.441	1125.105
20.848	26.266	1382.662	1124.694
21.863	26.366	1381.391	1124.188
22.877	26.256	1381.291	1123.319
23.892	26.288	1380.530	1122.801
24.907	26.359	1379.463	1122.274
25.921	26.359	1378.289	1121.222
26.936	26.352	1377.526	1120.459
27.950	26.307	1376.478	1119.228
28.965	26.363	1375.445	1118.635
29.980	26.257	1373.901	1116.625
30.994	26.272	1372.758	1115.686
32.009	26.252	1371.612	1114.537
33.023	26.364	1370.382	1114.127
34.038	26.286	1369.317	1112.682
35.053	26.258	1368.606	1111.835
36.067	26.257	1367.546	1110.868
37.082	26.190	1366.570	1109.564
38.096	26.233	1365.678	1109.006
39.111	26.199	1364.897	1108.068
40.126	26.331	1363.945	1108.008
41.140	26.233	1363.451	1106.907
42.155	26.265	1363.286	1106.867
43.169	26.228	1363.788	1106.952
44.184	26.247	1363.403	1106.658
45.199	26.226	1362.761	1105.911
46.213	26.335	1361.504	1105.459
47.228	26.208	1361.341	1104.450
48.242	26.258	1359.874	1103.468
49.257	26.258	1358.293	1102.089
50.271	26.345	1356.663	1101.202
51.286	26.300	1355.449	1099.840
52.301	26.318	1354.350	1098.962
53.315	26.255	1353.525	1097.812
54.330	26.342	1353.005	1097.825
55.344	26.324	1351.275	1096.215
56.359	26.230	1350.541	1094.952
57.374	26.212	1350.215	1094.478
58.388	26.312	1349.063	1094.056
59.403	26.225	1348.925	1093.320
60.417	26.164	1348.252	1092.308
61.432	26.136	1347.744	1091.630
62.447	26.298	1346.265	1091.315
63.461	26.243	1345.269	1090.079
64.476	26.175	1344.549	1088.988
65.490	26.243	1343.536	1088.484
66.505	26.193	1342.103	1086.926
67.520	26.249	1340.433	1085.810
68.534	26.294	1339.713	1085.402
69.549	26.222	1338.629	1083.997
70.563	26.189	1337.965	1083.165
71.578	26.279	1336.526	1082.443
72.593	26.281	1335.638	1081.639
73.607	26.327	1335.207	1081.470
74.622	26.324	1334.772	1081.004
75.636	26.286	1333.962	1080.026
76.651	26.324	1333.201	1079.542
77.666	26.292	1332.848	1078.968
78.680	26.308	1332.361	1078.578
79.695	26.243	1331.264	1077.207
80.709	26.232	1330.661	1076.553
81.724	26.261	1329.908	1076.024
82.739	26.221	1328.918	1074.892
83.753	26.221	1327.843	1073.924
84.768	26.252	1326.978	1073.314
85.782	26.361	1325.356	1072.551
86.797	26.321	1324.181	1071.271
87.812	26.223	1323.462	1070.012
88.826	26.199	1322.651	1069.122
89.841	26.278	1321.739	1068.758
90.855	26.202	1320.324	1067.071
91.870	26.283	1319.291	1066.620
92.884	26.336	1318.476	1066.178
93.899	26.268	1318.123	1065.394
94.914	26.278	1316.997	1064.451
95.928	26.359	1316.237	1064.218
96.943	26.421	1315.350	1063.773
97.957	26.308	1314.627	1062.428
98.972	26.340	1313.903	1061.938
99.987	26.298	1313.441	1061.224
101.001	26.254	1312.324	1059.973
102.016	26.209	1311.703	1059.109
103.030	26.235	1310.600	1058.279
104.045	26.237	1309.974	1057.689
105.060	26.334	1308.721	1057.155
106.074	26.339	1307.371	1055.998
107.089	26.344	1306.564	1055.281
108.103	26.195	1305.911	1053.794
109.118	26.338	1304.554	1053.439
110.133	26.355	1303.498	1052.593
111.147	26.453	1302.226	1052.042
112.162	26.381	1301.229	1050.722
113.176	26.361	1300.208	1049.689
114.191	26.417	1299.033	1048.972
115.206	26.430	1297.984	1048.111
116.220	26.446	1296.928	1047.255
117.235	26.347	1296.425	1046.185
118.249	26.386	1295.303	1045.412
119.264	26.448	1294.599	1045.107
120.279	26.386	1294.077	1044.236
121.293	26.337	1293.428	1043.336
122.308	26.537	1291.932	1043.192
123.322	26.415	1291.691	1042.201
124.337	26.398	1290.754	1041.259
125.352	26.467	1289.774	1040.769
126.366	26.551	1288.433	1040.082
127.381	26.492	1288.170	1039.433
128.395	26.464	1287.310	1038.490
129.410	26.501	1286.165	1037.687
130.424	26.409	1285.593	1036.607
131.439	26.576	1284.695	1036.745
132.454	26.582	1283.501	1035.727
133.468	26.457	1283.245	1034.713
134.483	26.377	1282.643	1033.679
135.497	26.483	1282.229	1033.857
136.512	26.411	1280.966	1032.338
137.527	26.456	1280.172	1031.863
138.541	26.402	1278.774	1030.337
139.556	26.422	1277.322	1029.190
140.570	26.324	1277.039	1028.313
141.585	26.319	1275.538	1026.987
142.600	26.448	1274.257	1026.596
143.614	26.393	1273.602	1025.664
144.629	26.387	1272.743	1024.848
145.643	26.371	1271.440	1023.616
146.658	26.299	1270.724	1022.541
147.673	26.268	1269.606	1021.380
148.687	26.325	1268.855	1021.008
149.702	26.360	1267.543	1020.057
150.716	26.376	1266.400	1019.138
151.731	26.366	1265.922	1018.606
152.746	26.412	1264.656	1017.757
153.760	26.491	1263.304	1017.020
154.775	26.444	1262.378	1015.925
155.789	26.469	1261.852	1015.547
156.804	26.524	1260.451	1014.640
157.819	26.409	1260.106	1013.626
158.833	26.381	1259.474	1012.871
159.848	26.474	1258.490	1012.512
160.862	26.419	1257.436	1011.266
161.877	26.458	1256.691	1010.797
162.892	26.568	1255.744	1010.560
163.906	26.631	1255.047	1010.263
164.921	26.411	1254.652	1008.629
165.935	26.439	1253.936	1008.119
166.950	26.638	1252.798	1008.223
167.964	26.553	1252.687	1007.573
168.979	26.549	1252.117	1007.002
169.994	26.495	1251.411	1006.043
171.008	26.503	1250.803	1005.507
172.023	26.470	1250.046	1004.632
173.037	26.538	1249.422	1004.416
174.052	26.537	1249.146	1004.098
175.067	26.527	1247.645	1002.750
176.081	26.573	1247.227	1002.578
177.096	26.575	1246.485	1001.905
178.110	26.584	1244.936	1000.618
179.125	26.536	1244.552	999.961
180.140	26.494	1243.459	998.762
181.154	26.595	1242.158	998.186
182.169	26.615	1240.994	997.271
183.183	26.584	1240.672	996.754
184.198	26.597	1239.485	995.781
185.213	26.597	1238.627	995.005
186.227	26.532	1238.000	994.057
187.242	26.625	1236.841	993.550
188.256	26.789	1235.102	992.961
189.271	26.678	1234.890	992.098
190.286	26.741	1234.016	991.649
191.300	26.754	1233.126	990.918
192.315	26.480	1233.574	989.693
193.329	26.526	1233.576	989.857
194.344	26.649	1232.720	989.754
195.359	26.570	1232.006	988.665
196.373	26.641	1231.265	988.366
197.388	26.497	1231.275	987.501
198.402	26.711	1230.453	987.921
199.417	26.573	1230.271	986.940
200.432	26.647	1229.523	986.655
201.446	26.602	1228.686	985.647
202.461	26.614	1228.021	985.094
203.475	26.697	1227.124	984.741
204.490	26.677	1226.385	983.948
205.504	26.550	1225.886	982.772
206.519	26.743	1224.411	982.552
207.534	26.628	1223.830	981.371
208.548	26.743	1222.570	980.899
209.563	26.699	1221.958	980.081
210.577	26.716	1221.138	979.429
211.592	26.749	1220.043	978.644
212.607	26.813	1219.206	978.232
213.621	26.761	1218.859	977.585
214.636	26.688	1218.618	976.910
215.650	26.716	1217.345	975.956
216.665	26.806	1216.336	975.544
217.680	26.803	1215.269	974.587
218.694	26.760	1214.562	973.700
219.709	26.818	1213.866	973.367
220.723	26.719	1213.653	972.582
221.738	26.672	1212.985	971.709
222.753	26.587	1212.271	970.595
223.767	26.762	1211.442	970.781
224.782	26.818	1210.949	970.603
225.796	26.799	1210.267	969.867
226.811	26.883	1209.408	969.539
227.826	26.799	1209.422	969.015
228.840	26.823	1208.690	968.474
229.855	26.822	1208.070	967.883
230.869	26.864	1207.419	967.500
231.884	26.773	1206.295	966.032
232.899	26.692	1206.356	965.561
233.913	26.759	1205.731	965.332
234.928	26.999	1204.481	965.523
235.942	27.077	1203.772	965.285
236.957	26.993	1203.398	964.453
237.972	26.814	1202.529	962.724
238.986	26.936	1201.884	962.769
240.001	26.925	1201.594	962.393
241.015	26.930	1200.658	961.582
242.030	27.033	1199.869	961.413
243.045	27.062	1198.951	960.746
244.059	27.027	1198.486	960.101
245.074	27.084	1197.340	959.398
246.088	27.024	1196.506	958.330
247.103	27.021	1196.183	957.968
248.117	26.905	1195.740	956.920
249.132	27.065	1194.840	956.955
250.147	27.099	1193.935	956.325
251.161	27.146	1193.179	955.886
252.176	27.055	1192.340	954.649
253.190	27.125	1192.123	954.759
254.205	27.080	1191.177	953.682
255.220	27.091	1190.803	953.353
256.234	26.998	1190.806	952.783
257.249	27.054	1189.764	952.161
258.263	27.086	1189.149	951.751
259.278	27.122	1188.352	951.218
260.293	27.157	1188.194	951.192
261.307	27.066	1187.341	949.948
262.322	27.142	1187.058	950.033
263.336	27.242	1185.966	949.599
264.351	27.111	1185.542	948.490
265.366	27.182	1185.201	948.504
266.380	27.181	1184.446	947.810
267.395	27.276	1183.519	947.482
268.409	27.112	1182.957	946.095
269.424	27.202	1182.404	946.035
270.439	27.194	1182.125	945.688
271.453	27.190	1181.543	945.115
272.468	27.205	1180.458	944.240
273.482	27.198	1179.389	943.269
274.497	27.130	1179.778	943.144
275.512	27.296	1178.760	943.107
276.526	27.293	1177.785	942.226
277.541	27.255	1177.238	941.509
278.555	27.387	1176.480	941.502
279.570	27.209	1176.384	940.421
280.585	27.350	1174.868	939.857
281.599	27.197	1174.460	938.654
282.614	27.262	1173.514	938.153
283.628	27.296	1172.362	937.322
284.643	27.308	1171.648	936.728
285.657	27.384	1170.824	936.381
286.672	27.341	1170.228	935.599
287.687	27.351	1169.071	934.644
288.701	27.369	1168.667	934.327
289.716	27.417	1167.921	933.895
290.730	27.400	1167.320	933.244
291.745	27.361	1166.808	932.556
292.760	27.390	1166.456	932.340
293.774	27.457	1165.682	931.980
294.789	27.486	1165.201	931.661
295.803	27.434	1165.246	931.351
296.818	27.455	1164.205	930.545
297.833	27.567	1163.322	930.329
298.847	27.483	1162.712	929.325
299.862	27.402	1162.344	928.539
300.876	27.491	1161.010	927.842
301.891	27.547	1160.886	927.948
302.906	27.614	1160.138	927.610
303.920	27.571	1159.708	926.963
304.935	27.564	1159.047	926.319
305.949	27.502	1158.154	925.209
306.964	27.662	1157.366	925.309
307.979	27.571	1156.956	924.437
308.993	27.518	1156.290	923.557
310.008	27.527	1155.654	923.009
311.022	27.577	1154.994	922.657
312.037	27.750	1153.955	922.616
313.052	27.641	1153.259	921.431
314.066	27.448	1152.650	919.886
315.081	27.581	1151.789	919.787
316.095	27.570	1151.195	919.175
317.110	27.522	1150.652	918.421
318.125	27.554	1150.005	917.985
319.139	27.615	1149.414	917.736
320.154	27.671	1148.725	917.389
321.168	27.680	1148.189	916.925
322.183	27.608	1147.680	916.074
323.197	27.749	1147.004	916.164
324.212	27.703	1146.276	915.271
325.227	27.814	1145.892	915.436
326.241	27.656	1145.927	914.594
327.256	27.794	1144.444	914.019
328.270	27.606	1144.022	912.660
329.285	27.621	1143.461	912.207
330.300	27.799	1142.113	911.941
331.314	27.720	1141.235	910.767
332.329	27.878	1140.562	910.937
333.343	27.824	1140.184	910.281
334.358	27.831	1138.974	909.270
335.373	27.859	1138.703	909.115
336.387	27.861	1138.236	908.670
337.402	27.999	1137.169	908.427
338.416	27.910	1136.868	907.663
339.431	27.895	1136.284	907.042
340.446	27.949	1135.734	906.790
341.460	28.055	1134.761	906.459
342.475	27.993	1133.893	905.377
343.489	27.871	1133.350	904.258
344.504	28.022	1132.000	903.850
345.519	27.976	1131.287	902.973
346.533	27.970	1130.963	902.605
347.548	28.004	1129.931	901.867
348.562	28.084	1128.916	901.375
349.577	28.012	1128.589	900.678
350.592	27.965	1127.986	899.884
351.606	27.956	1127.124	899.073
352.621	27.988	1126.820	898.908
353.635	28.007	1126.214	898.439
354.650	28.102	1125.403	898.179
355.665	28.147	1124.862	897.890
356.679	28.026	1124.591	896.998
357.694	28.021	1124.039	896.454
358.708	28.085	1122.965	895.831
359.723	27.943	1122.505	894.690
360.738	28.124	1121.333	894.562
361.752	28.096	1121.103	894.161
362.767	28.119	1120.625	893.815
363.781	28.207	1120.370	893.964
364.796	28.301	1119.309	893.495
365.810	28.248	1118.959	892.878
366.825	28.269	1118.198	892.295
367.840	28.257	1117.955	891.962
368.854	28.312	1117.057	891.438
369.869	28.344	1116.458	891.034
370.883	28.150	1115.959	889.613
371.898	28.318	1115.156	889.713
372.913	28.290	1114.445	888.931
373.927	28.408	1113.850	888.946
374.942	28.317	1113.614	888.243
375.956	28.351	1113.424	888.173
376.971	28.224	1112.718	886.920
377.986	28.391	1111.676	886.816
379.000	28.432	1111.348	886.675
380.015	28.480	1110.540	886.186
381.029	28.475	1109.953	885.614
382.044	28.461	1109.201	884.865
383.059	28.424	1108.902	884.370
384.073	28.478	1107.856	883.720
385.088	28.493	1107.173	883.172
386.102	28.402	1106.556	882.161
387.117	28.469	1105.434	881.508
388.132	28.392	1104.905	880.642
389.146	28.615	1104.029	880.933
390.161	28.458	1103.534	879.708
391.175	28.426	1102.843	878.926
392.190	28.531	1101.861	878.568
393.205	28.570	1101.603	878.475
394.219	28.538	1100.834	877.628
395.234	28.574	1100.391	877.372
396.248	28.558	1099.379	876.410
397.263	28.595	1098.270	875.627
398.278	28.551	1097.966	875.095
399.292	28.604	1097.831	875.164
400.307	28.662	1096.512	874.309
401.321	28.605	1096.456	873.914
402.336	28.501	1095.881	872.883
403.350	28.535	1094.542	871.904
404.365	28.704	1093.965	872.170
405.380	28.731	1093.330	871.716
406.394	28.724	1092.652	871.062
407.409	28.740	1092.253	870.742
408.423	28.561	1091.707	869.382
409.438	28.854	1090.648	869.851
410.453	28.774	1090.014	868.889
411.467	28.833	1089.361	868.570
412.482	28.792	1088.834	867.880
413.496	28.912	1087.976	867.687
414.511	28.831	1087.817	867.098
415.526	28.779	1087.138	866.237
416.540	28.763	1086.713	865.747
417.555	28.709	1086.449	865.202
418.569	28.831	1085.911	865.274
419.584	28.938	1085.326	865.235
420.599	29.003	1084.741	864.998
421.613	100.732	1313.800	1435.533
422.628	93.840	1347.173	1435.633
