DTS Sentinel unit serial number:	SN413079Multiplexer serial number:	ORYXHardware model number:	OX4-SRSoftware version number:	ORYX F/W v4.00 Oryx Data Collector v3.7.2.0data status	okinstallation	princeton_trtdifferential loss correction	single-endedforward channel	channel 2reverse channel	N/Adate	2019/09/13time	13:35:35forward acquisition time	60.00reverse acquisition time	0.00gamma	496.2192k internal	0.2315k external	0.2315temperature offset calibration	1.0207default loss term (dB/km)	0.3790temperature slope calibration	1.0000multiplexer offset coefficient	1.0000multiplexer slope coefficient	1.0000fibre end	0.00T internal ref (°C)	35.06T ext. ref 1 (°C)	4.58T ext. ref 2 (°C)	31.36length (m)	temperature (°C)	Stokes	anti-Stokes-747.200	-18.270	0.094	-0.060
-746.185	161.270	-0.122	0.173
-745.171	109.357	0.130	0.158
-744.156	41.067	-0.210	0.192
-743.142	115.555	0.133	0.164
-742.127	-117.870	-0.075	0.014
-741.112	800.000	0.045	-0.130
-740.098	-200.000	-0.011	0.151
-739.083	-144.157	0.469	0.044
-738.069	61.229	0.333	0.336
-737.054	-17.950	-0.133	0.084
-736.039	4.925	0.137	-0.102
-735.025	191.559	0.143	0.219
-734.010	-127.246	-0.231	-0.034
-732.996	-12.097	-0.200	0.133
-731.981	81.572	-0.129	-0.142
-730.966	534.385	0.197	-0.473
-729.952	-116.516	-0.223	-0.042
-728.937	-200.000	-0.004	-0.281
-727.923	-200.000	0.042	-0.356
-726.908	-51.220	0.282	-0.134
-725.894	118.041	-0.176	-0.220
-724.879	-140.792	0.236	0.025
-723.864	233.576	0.069	-0.115
-722.850	-200.000	-0.027	-0.230
-721.835	104.010	-0.209	-0.248
-720.821	47.465	-0.308	-0.290
-719.806	60.833	-0.164	0.165
-718.791	63.814	-0.168	-0.171
-717.777	-99.604	-0.265	-0.067
-716.762	457.828	-0.114	-0.257
-715.748	-50.677	-0.188	-0.089
-714.733	-200.000	-0.003	-0.080
-713.718	-200.000	0.003	0.073
-712.704	-121.176	-0.333	0.056
-711.689	245.217	-0.038	-0.065
-710.675	-200.000	-0.012	-0.103
-709.660	136.279	0.240	-0.317
-708.645	-200.000	0.021	0.214
-707.631	121.743	0.056	0.071
-706.616	27.625	-0.195	-0.166
-705.602	238.422	-0.132	-0.222
-704.587	2.188	-0.308	0.225
-703.572	800.000	-0.051	0.204
-702.558	-200.000	-0.092	-0.474
-701.543	-131.477	-0.318	0.042
-700.529	-19.771	-0.094	-0.059
-699.514	-182.641	-0.080	-0.001
-698.499	-200.000	0.004	0.128
-697.485	-200.000	-0.005	-0.112
-696.470	800.000	-0.090	-0.271
-695.456	624.244	0.066	-0.168
-694.441	-132.801	0.158	0.020
-693.426	-100.421	-0.248	0.062
-692.412	-200.000	-0.006	-0.093
-691.397	-11.954	0.192	0.127
-690.383	-144.941	-0.171	0.016
-689.368	-21.847	0.138	-0.085
-688.354	148.911	0.071	0.096
-687.339	800.000	-0.054	0.193
-686.324	405.035	0.094	-0.200
-685.310	-100.683	-0.242	-0.060
-684.295	800.000	0.037	0.143
-683.281	-99.358	0.403	-0.103
-682.266	408.412	0.210	-0.448
-681.251	-106.625	0.135	0.030
-680.237	323.566	-0.175	-0.338
-679.222	-35.691	-0.289	0.158
-678.208	-200.000	0.020	-0.155
-677.193	-94.710	0.247	-0.068
-676.178	53.949	0.172	-0.167
-675.164	-109.933	-0.365	-0.077
-674.149	-43.996	0.222	0.113
-673.135	-147.831	-0.106	0.009
-672.120	-200.000	-0.020	0.189
-671.105	-200.000	-0.006	-0.128
-670.091	43.066	0.098	0.090
-669.076	-59.007	0.385	0.168
-668.062	800.000	0.047	0.187
-667.047	800.000	-0.058	-0.231
-666.032	800.000	-0.076	-0.231
-665.018	-136.061	-0.131	-0.016
-664.003	129.753	-0.086	-0.111
-662.989	-200.000	0.012	-0.314
-661.974	-69.692	0.491	-0.190
-660.959	12.726	0.079	-0.062
-659.945	-92.150	-0.237	-0.068
-658.930	418.776	0.042	0.091
-657.916	662.359	0.114	0.297
-656.901	-172.582	0.136	0.004
-655.886	88.572	-0.112	-0.126
-654.872	-110.511	0.423	0.089
-653.857	187.666	-0.150	-0.226
-652.843	44.440	0.054	-0.050
-651.828	-47.212	-0.185	-0.091
-650.814	248.933	0.129	-0.221
-649.799	-93.791	0.195	-0.054
-648.784	-65.770	0.244	-0.099
-647.770	-155.943	-0.083	-0.005
-646.755	-72.436	0.143	-0.053
-645.741	82.965	0.080	-0.088
-644.726	-179.650	0.115	-0.003
-643.711	-132.421	0.327	0.043
-642.697	-200.000	-0.038	-0.314
-641.682	-161.443	-0.343	0.018
-640.668	37.521	0.188	0.168
-639.653	800.000	-0.063	0.188
-638.638	517.735	0.066	0.157
-637.624	-200.000	-0.027	0.193
-636.609	-200.000	-0.043	0.334
-635.595	-200.000	-0.016	-0.298
-634.580	95.520	0.248	0.285
-633.565	173.727	-0.171	-0.249
-632.551	157.487	-0.212	-0.296
-631.536	-116.561	0.230	-0.043
-630.522	-125.224	0.186	-0.029
-629.507	235.250	0.120	0.199
-628.492	36.670	0.116	-0.104
-627.478	520.257	-0.128	-0.304
-626.463	-1.077	0.162	-0.116
-625.449	219.578	0.145	0.234
-624.434	-34.721	0.086	0.048
-623.419	-200.000	-0.014	-0.107
-622.405	11.867	0.159	-0.123
-621.390	22.306	-0.246	-0.203
-620.376	-125.123	0.126	0.019
-619.361	-72.556	0.216	-0.080
-618.346	63.140	0.223	-0.225
-617.332	386.632	-0.134	0.280
-616.317	-200.000	-0.011	0.234
-615.303	734.623	0.081	0.220
-614.288	800.000	-0.116	0.427
-613.273	-27.798	-0.452	0.264
-612.259	-200.000	0.043	-0.228
-611.244	800.000	-0.066	-0.197
-610.230	800.000	-0.023	-0.100
-609.215	-58.493	0.196	0.086
-608.201	113.663	0.201	-0.246
-607.186	244.656	0.197	-0.335
-606.171	-80.329	0.483	-0.163
-605.157	800.000	-0.095	-0.268
-604.142	-171.387	-0.318	0.011
-603.128	564.186	-0.148	-0.361
-602.113	-130.487	0.019	0.003
-601.098	12.775	0.097	0.075
-600.084	33.030	-0.146	-0.128
-599.069	22.407	-0.040	0.033
-598.055	-62.469	-0.210	-0.088
-597.040	-200.000	0.028	-0.155
-596.025	-72.540	0.256	-0.095
-595.011	-75.848	0.029	0.010
-593.996	-57.353	0.106	-0.047
-592.982	91.485	-0.243	-0.275
-591.967	373.947	0.133	-0.273
-590.952	-200.000	0.046	0.446
-589.938	-147.869	0.096	0.008
-588.923	-200.000	-0.006	-0.099
-587.909	-200.000	-0.027	0.214
-586.894	-113.453	-0.123	0.024
-585.879	-91.762	0.351	0.100
-584.865	583.510	0.075	0.185
-583.850	312.581	-0.084	0.158
-582.836	-80.509	-0.198	0.067
-581.821	-200.000	-0.010	0.097
-580.806	46.902	-0.349	-0.327
-579.792	221.988	0.105	-0.171
-578.777	129.666	-0.020	0.026
-577.763	800.000	-0.087	-0.253
-576.748	64.451	0.071	-0.072
-575.733	-33.847	-0.177	-0.098
-574.719	-130.591	0.191	-0.026
-573.704	795.001	-0.028	0.079
-572.690	-200.000	-0.055	0.329
-571.675	800.000	0.067	0.273
-570.661	-200.000	-0.055	0.376
-569.646	-200.000	-0.010	0.155
-568.631	800.000	-0.084	-0.289
-567.617	220.709	-0.020	0.032
-566.602	-149.015	-0.280	-0.023
-565.588	800.000	0.009	-0.027
-564.573	-200.000	0.197	-0.001
-563.558	-51.369	0.123	-0.058
-562.544	-152.883	-0.085	-0.006
-561.529	61.174	0.116	-0.116
-560.515	85.027	-0.158	-0.174
-559.500	-191.036	-0.427	0.004
-558.485	-179.060	-0.061	0.001
-557.471	-181.388	0.159	0.003
-556.456	-200.000	0.056	0.303
-555.442	210.032	-0.268	-0.423
-554.427	574.619	-0.045	-0.110
-553.412	120.857	0.054	0.068
-552.398	126.611	-0.128	-0.163
-551.383	-75.723	0.088	0.031
-550.369	-200.000	-0.027	-0.197
-549.354	30.699	-0.101	0.087
-548.339	-189.228	-0.140	0.002
-547.325	160.365	-0.113	-0.158
-546.310	-149.045	0.256	0.021
-545.296	638.590	0.042	-0.106
-544.281	-123.032	-0.233	0.038
-543.266	167.559	-0.256	0.365
-542.252	800.000	0.034	0.119
-541.237	47.437	0.091	-0.085
-540.223	-47.866	-0.308	0.150
-539.208	617.413	0.080	0.203
-538.193	414.234	0.035	0.074
-537.179	-58.473	-0.047	0.021
-536.164	-3.609	0.221	-0.154
-535.150	223.117	0.079	0.128
-534.135	-121.066	0.264	-0.045
-533.121	-112.152	0.348	0.070
-532.106	307.041	0.024	0.044
-531.091	-200.000	0.071	-0.327
-530.077	-200.000	-0.460	-0.001
-529.062	29.201	0.401	-0.342
-528.048	800.000	-0.031	-0.101
-527.033	800.000	-0.113	-0.333
-526.018	-77.158	-0.157	-0.055
-525.004	703.863	-0.057	-0.151
-523.989	-119.766	0.220	-0.038
-522.975	155.566	-0.138	-0.191
-521.960	743.793	0.071	0.192
-520.945	-177.727	0.324	-0.008
-519.931	-200.000	-0.019	0.373
-518.916	15.348	-0.138	0.109
-517.902	167.562	-0.052	-0.075
-516.887	-103.228	-0.261	0.062
-515.872	72.607	-0.233	0.245
-514.858	-132.278	-0.192	0.025
-513.843	800.000	-0.051	0.182
-512.829	-37.743	-0.282	0.151
-511.814	29.449	0.251	-0.214
-510.799	-200.000	-0.017	0.384
-509.785	-200.000	0.020	0.356
-508.770	-200.000	0.012	-0.226
-507.756	337.003	0.039	-0.076
-506.741	125.393	-0.068	0.086
-505.726	-1.514	0.186	0.132
-504.712	-128.166	0.227	0.033
-503.697	-200.000	-0.020	0.096
-502.683	-200.000	-0.007	0.043
-501.668	91.685	0.081	0.092
-500.653	-132.764	-0.201	-0.026
-499.639	-119.203	-0.132	-0.023
-498.624	-200.000	0.003	-0.381
-497.610	234.866	-0.067	-0.111
-496.595	671.644	0.043	-0.113
-495.581	406.097	-0.056	-0.118
-494.566	230.130	0.080	-0.131
-493.551	-129.037	0.189	-0.027
-492.537	-88.271	0.211	0.063
-491.522	5.406	-0.145	0.108
-490.508	-162.951	-0.336	0.016
-489.493	-69.327	-0.164	0.063
-488.478	101.232	0.249	0.291
-487.464	638.110	0.135	0.345
-486.449	-200.000	-0.008	0.061
-485.435	-0.140	-0.291	-0.208
-484.420	-200.000	0.019	-0.129
-483.405	43.756	-0.132	-0.121
-482.391	-116.248	-0.216	0.040
-481.376	-6.135	-0.057	0.039
-480.362	-200.000	-0.013	-0.078
-479.347	-15.869	0.151	-0.097
-478.332	119.186	-0.116	-0.143
-477.318	-122.682	0.194	0.032
-476.303	-200.000	0.010	-0.081
-475.289	-105.079	-0.034	0.008
-474.274	-50.180	0.238	-0.113
-473.259	-200.000	-0.007	0.188
-472.245	-200.000	0.011	-0.199
-471.230	11.109	-0.057	0.043
-470.216	-63.985	0.061	-0.025
-469.201	224.866	0.065	0.105
-468.186	0.868	0.041	0.029
-467.172	-154.857	0.082	-0.005
-466.157	-30.516	-0.197	0.112
-465.143	800.000	-0.052	0.173
-464.128	-119.196	0.276	0.048
-463.113	-35.682	-0.199	-0.108
-462.099	126.199	0.079	0.100
-461.084	-200.000	0.001	-0.060
-460.070	-13.534	-0.172	0.112
-459.055	-77.219	-0.089	-0.031
-458.040	-200.000	-0.027	0.177
-457.026	-200.000	0.002	-0.108
-456.011	691.369	0.017	-0.045
-454.997	-95.247	-0.295	-0.080
-453.982	-80.085	-0.126	0.042
-452.968	800.000	0.093	-0.260
-451.953	218.925	-0.078	-0.124
-450.938	-43.031	-0.517	0.262
-449.924	-76.399	0.269	0.095
-448.909	800.000	-0.116	-0.357
-447.895	-9.818	-0.162	-0.108
-446.880	800.000	0.058	-0.194
-445.865	222.184	-0.126	0.203
-444.851	-22.588	0.098	0.059
-443.836	-200.000	0.021	-0.152
-442.822	90.614	0.133	-0.149
-441.807	-200.000	-0.016	0.100
-440.792	-200.000	-0.041	0.342
-439.778	-116.654	-0.120	-0.022
-438.763	178.214	0.175	-0.256
-437.749	-135.245	0.131	0.016
-436.734	-16.222	-0.075	0.048
-435.719	128.908	-0.167	-0.214
-434.705	-200.000	-0.038	-0.235
-433.690	-200.000	-0.014	-0.229
-432.676	147.587	0.066	0.089
-431.661	-200.000	-0.010	-0.157
-430.646	-200.000	0.005	-0.177
-429.632	-95.020	0.157	0.042
-428.617	-200.000	-0.059	0.378
-427.603	60.652	-0.118	0.117
-426.588	-127.767	-0.067	-0.010
-425.573	-37.529	-0.224	-0.120
-424.559	133.951	0.237	-0.307
-423.544	162.481	-0.106	-0.149
-422.530	800.000	-0.081	0.328
-421.515	-159.851	-0.160	0.009
-420.500	471.657	0.150	-0.338
-419.486	91.532	0.289	-0.325
-418.471	-108.764	0.058	-0.012
-417.457	91.975	0.138	-0.156
-416.442	174.469	-0.120	0.174
-415.428	800.000	0.095	0.316
-414.413	-97.903	-0.160	-0.041
-413.398	52.396	-0.048	-0.046
-412.384	800.000	-0.055	-0.178
-411.369	4.857	0.230	0.169
-410.355	-87.190	0.111	-0.034
-409.340	-121.965	0.256	0.042
-408.325	-113.058	-0.256	-0.051
-407.311	131.479	0.044	-0.057
-406.296	-200.000	-0.062	0.299
-405.282	800.000	0.043	0.132
-404.267	101.918	0.195	0.228
-403.252	85.924	0.117	0.128
-402.238	800.000	0.108	-0.309
-401.223	409.227	0.104	0.221
-400.209	-55.245	0.352	0.158
-399.194	737.368	0.024	0.065
-398.179	-200.000	0.007	-0.112
-397.165	175.928	-0.301	-0.437
-396.150	800.000	-0.026	-0.080
-395.136	187.607	-0.056	-0.083
-394.121	-17.638	0.325	0.204
-393.106	-200.000	-0.026	0.172
-392.092	800.000	-0.058	0.181
-391.077	-138.882	0.081	0.009
-390.063	32.768	-0.184	-0.159
-389.048	-103.135	-0.066	-0.016
-388.033	800.000	0.077	0.269
-387.019	573.992	0.130	-0.317
-386.004	71.183	-0.135	0.140
-384.990	188.104	-0.141	-0.211
-383.975	800.000	0.110	0.412
-382.960	800.000	-0.074	-0.307
-381.946	-12.105	0.163	0.106
-380.931	-200.000	0.008	-0.037
-379.917	-0.271	0.094	0.067
-378.902	-93.309	0.121	0.034
-377.888	232.156	-0.094	-0.154
-376.873	-106.375	0.093	-0.021
-375.858	-95.781	-0.203	-0.054
-374.844	-94.581	-0.361	-0.098
-373.829	-200.000	-0.068	-0.462
-372.815	-90.932	0.020	-0.006
-371.800	-104.921	-0.258	0.059
-370.785	-63.060	0.093	-0.038
-369.771	-42.856	0.180	0.091
-368.756	-200.000	-0.011	-0.131
-367.742	-84.587	0.104	-0.033
-366.727	-144.768	0.248	0.023
-365.712	-6.765	0.369	-0.251
-364.698	-200.000	0.034	0.171
-363.683	230.486	0.219	-0.358
-362.669	52.182	0.312	0.297
-361.654	12.818	-0.091	-0.070
-360.639	-200.000	-0.000	0.016
-359.625	18.040	0.409	-0.325
-358.610	-149.207	0.121	0.010
-357.596	105.260	-0.200	-0.236
-356.581	666.059	0.025	0.064
-355.566	304.000	-0.089	0.164
-354.552	-200.000	-0.010	-0.404
-353.537	-200.000	-0.003	-0.084
-352.523	-38.422	-0.203	0.107
-351.508	-103.023	0.075	-0.018
-350.493	105.256	0.216	0.254
-349.479	-82.618	-0.086	0.028
-348.464	-94.634	-0.192	-0.052
-347.450	205.247	0.097	0.151
-346.435	-200.000	-0.084	0.371
-345.420	57.522	0.048	-0.047
-344.406	800.000	-0.093	-0.296
-343.391	-147.582	-0.084	-0.007
-342.377	-45.087	0.220	0.109
-341.362	-118.748	-0.307	-0.054
-340.348	-103.255	0.223	-0.053
-339.333	16.348	0.178	0.140
-338.318	-181.464	-0.114	-0.002
-337.304	-72.673	-0.060	-0.022
-336.289	-144.665	0.092	-0.008
-335.275	-86.597	-0.081	-0.025
-334.260	800.000	0.013	0.039
-333.245	254.523	-0.066	0.113
-332.231	800.000	0.038	-0.147
-331.216	80.895	0.227	-0.244
-330.202	-119.709	-0.090	-0.015
-329.187	334.287	-0.100	0.193
-328.172	-46.384	-0.331	0.162
-327.158	56.213	-0.309	0.299
-326.143	-47.405	-0.224	0.109
-325.129	502.378	-0.027	0.063
-324.114	24.032	0.268	0.220
-323.099	346.252	-0.120	0.236
-322.085	-109.709	-0.597	-0.125
-321.070	29.271	0.194	0.164
-320.056	4.294	-0.142	0.104
-319.041	-4.417	0.407	-0.281
-318.026	192.695	-0.107	0.161
-317.012	-200.000	0.000	-0.063
-315.997	-200.000	-0.005	0.115
-314.983	-200.000	-0.035	0.201
-313.968	-200.000	0.054	0.352
-312.953	800.000	-0.067	-0.194
-311.939	-157.805	-0.085	-0.005
-310.924	-41.554	0.161	-0.082
-309.910	151.568	-0.088	-0.119
-308.895	-200.000	0.031	0.205
-307.880	-82.777	-0.323	0.104
-306.866	-93.195	-0.377	-0.104
-305.851	724.149	0.056	-0.150
-304.837	35.562	0.128	0.112
-303.822	-96.317	0.203	-0.053
-302.807	-19.815	-0.169	-0.104
-301.793	-7.643	0.233	0.157
-300.778	-35.730	-0.064	0.035
-299.764	800.000	-0.094	0.283
-298.749	12.787	-0.209	-0.161
-297.735	28.669	0.109	0.092
-296.720	93.828	-0.454	0.512
-295.705	800.000	0.143	0.469
-294.691	800.000	-0.098	-0.313
-293.676	-200.000	0.029	-0.341
-292.662	800.000	0.071	-0.276
-291.647	800.000	-0.068	-0.278
-290.632	-22.258	0.272	-0.164
-289.618	333.149	0.106	-0.203
-288.603	768.116	0.126	-0.342
-287.589	13.907	0.072	0.056
-286.574	-117.893	-0.261	0.047
-285.559	391.828	0.079	0.164
-284.545	217.375	0.143	-0.227
-283.530	175.111	-0.156	0.225
-282.516	800.000	0.036	-0.122
-281.501	-52.225	0.344	-0.159
-280.486	-140.513	-0.336	-0.035
-279.472	248.142	0.217	0.365
-278.457	-200.000	-0.029	0.167
-277.443	-65.155	-0.297	0.119
-276.428	43.723	-0.120	-0.110
-275.413	77.286	-0.157	0.166
-274.399	-118.843	0.248	0.043
-273.384	-200.000	-0.032	0.313
-272.370	-62.983	0.149	-0.061
-271.355	-200.000	-0.006	0.082
-270.340	-32.072	-0.045	0.025
-269.326	-72.021	-0.380	0.141
-268.311	-47.508	0.086	0.042
-267.297	186.012	-0.147	0.218
-266.282	-58.893	-0.138	0.059
-265.267	28.247	-0.084	0.071
-264.253	-200.000	0.076	0.388
-263.238	76.608	0.018	0.019
-262.224	-143.751	0.235	-0.022
-261.209	-83.008	0.012	0.004
-260.195	486.185	-0.070	0.159
-259.180	-42.317	0.014	-0.007
-258.165	-200.000	0.022	-0.241
-257.151	-200.000	-0.006	-0.085
-256.136	404.681	-0.040	-0.083
-255.122	-200.000	0.027	-0.282
-254.107	130.612	0.025	-0.032
-253.092	-178.167	0.101	-0.002
-252.078	185.093	-0.119	-0.175
-251.063	39.751	0.014	0.013
-250.049	-110.095	0.339	0.070
-249.034	162.376	0.107	0.149
-248.019	562.743	0.046	0.111
-247.005	-200.000	0.021	0.212
-245.990	-36.008	-0.248	-0.133
-244.976	-76.033	-0.497	-0.174
-243.961	142.768	0.057	0.075
-242.946	-200.000	0.025	-0.154
-241.932	268.423	0.116	-0.201
-240.917	232.167	-0.038	0.062
-239.903	-52.388	-0.116	0.053
-238.888	-200.000	-0.050	-0.402
-237.873	-18.487	0.095	-0.059
-236.859	31.295	0.200	-0.170
-235.844	-200.000	-0.277	-0.000
-234.830	-200.000	-0.021	-0.233
-233.815	-136.589	-0.082	0.009
-232.800	140.980	-0.095	-0.125
-231.786	-79.910	0.352	-0.117
-230.771	-97.759	-0.058	-0.015
-229.757	249.922	-0.046	-0.078
-228.742	662.536	-0.091	0.233
-227.727	800.000	-0.039	-0.113
-226.713	-10.136	-0.199	-0.131
-225.698	-27.132	-0.362	0.209
-224.684	-134.259	-0.298	-0.036
-223.669	-200.000	-0.023	-0.000
-222.655	65.171	-0.135	-0.135
-221.640	339.657	-0.183	0.355
-220.625	-132.238	0.209	0.027
-219.611	166.785	0.145	-0.204
-218.596	-127.834	-0.334	0.048
-217.582	800.000	0.082	-0.243
-216.567	-72.308	-0.273	0.101
-215.552	624.877	-0.139	0.348
-214.538	86.211	-0.174	0.191
-213.523	-98.929	0.295	-0.074
-212.509	456.983	-0.079	0.173
-211.494	-86.165	0.149	0.046
-210.479	-108.683	-0.393	-0.084
-209.465	800.000	0.023	0.093
-208.450	-81.467	0.175	-0.057
-207.436	-116.611	0.332	-0.061
-206.421	-200.000	0.035	-0.184
-205.406	138.581	0.024	-0.032
-204.392	290.709	-0.138	-0.249
-203.377	-200.000	-0.006	-0.243
-202.363	91.391	0.133	0.149
-201.348	800.000	0.060	0.244
-200.333	155.408	-0.069	0.094
-199.319	-155.920	0.338	-0.021
-198.304	133.917	-0.174	0.223
-197.290	317.896	-0.088	0.166
-196.275	800.000	-0.064	0.220
-195.260	228.122	0.229	-0.370
-194.246	-200.000	0.022	0.170
-193.231	-200.000	-0.019	0.150
-192.217	-84.970	-0.144	-0.045
-191.202	-43.715	0.102	-0.051
-190.187	48.513	-0.043	-0.040
-189.173	-131.883	0.188	0.024
-188.158	185.218	0.137	0.201
-187.144	-153.179	-0.160	-0.011
-186.129	119.748	0.091	-0.112
-185.114	800.000	0.053	0.209
-184.100	24.923	-0.096	0.079
-183.085	-200.000	-0.001	0.308
-182.071	37.101	0.102	0.090
-181.056	592.370	-0.055	-0.135
-180.042	332.028	-0.082	0.157
-179.027	22.011	-0.016	0.013
-178.012	-200.000	0.048	0.282
-176.998	78.471	-0.071	0.075
-175.983	-135.272	0.259	0.031
-174.969	-71.308	-0.150	-0.056
-173.954	312.263	-0.146	-0.272
-172.939	80.907	-0.081	-0.086
-171.925	-200.000	-0.006	-0.087
-170.910	148.228	-0.031	-0.042
-169.896	-200.000	-0.012	-0.222
-168.881	-200.000	-0.028	0.243
-167.866	716.835	-0.104	-0.273
-166.852	287.067	0.305	0.546
-165.837	-200.000	0.039	0.218
-164.823	-94.080	0.286	-0.078
-163.808	75.011	0.227	0.236
-162.793	88.410	0.181	0.199
-161.779	-114.815	-0.103	0.019
-160.764	-200.000	0.054	-0.257
-159.750	104.306	0.032	-0.037
-158.735	-128.674	-0.197	0.028
-157.720	-84.237	0.219	0.069
-156.706	639.046	0.084	0.212
-155.691	15.083	0.172	-0.133
-154.677	-146.789	0.458	-0.039
-153.662	-200.000	0.024	-0.106
-152.647	-102.105	0.341	-0.081
-151.633	-200.000	0.014	0.285
-150.618	64.601	-0.128	-0.128
-149.604	800.000	-0.060	-0.192
-148.589	305.109	0.183	-0.336
-147.574	800.000	0.061	-0.171
-146.560	-84.540	0.364	0.114
-145.545	-69.951	-0.112	0.042
-144.531	-129.172	0.172	0.024
-143.516	51.816	-0.135	-0.127
-142.502	-123.176	0.142	-0.023
-141.487	448.222	-0.067	0.146
-140.472	-200.000	-0.044	-0.273
-139.458	-200.000	0.024	-0.238
-138.443	19.529	-0.017	0.013
-137.429	800.000	-0.092	0.252
-136.414	-94.142	-0.089	-0.024
-135.399	137.214	0.200	0.259
-134.385	335.432	-0.103	-0.198
-133.370	800.000	0.143	0.433
-132.356	120.092	-0.201	-0.246
-131.341	-1.145	-0.276	-0.193
-130.326	-52.098	0.221	0.102
-129.312	-200.000	0.035	-0.384
-128.297	-200.000	0.022	0.204
-127.283	-200.000	0.015	-0.114
-126.268	-16.509	0.094	-0.059
-125.253	-19.157	0.217	0.134
-124.239	800.000	0.059	-0.252
-123.224	-16.810	0.275	-0.172
-122.210	413.943	-0.145	-0.305
-121.195	-200.000	-0.004	-0.038
-120.180	-60.287	0.147	0.062
-119.166	-72.271	-0.124	0.045
-118.151	11.865	-0.368	0.279
-117.137	800.000	-0.093	0.353
-116.122	-14.454	0.222	0.141
-115.107	-38.612	-0.309	0.161
-114.093	13.388	0.210	-0.161
-113.078	34.708	0.298	0.258
-112.064	176.936	-0.171	0.246
-111.049	271.583	-0.058	-0.102
-110.034	104.907	-0.189	-0.220
-109.020	36.046	-0.121	-0.105
-108.005	-138.456	0.118	0.013
-106.991	599.861	-0.076	0.186
-105.976	-154.055	-0.079	-0.005
-104.962	-4.146	-0.235	0.161
-103.947	-200.000	-0.055	-0.243
-102.932	-38.786	0.209	0.109
-101.918	-200.000	-0.055	-0.293
-100.903	3.884	-0.088	-0.064
-99.889	-126.566	-0.160	0.024
-98.874	800.000	0.050	0.180
-97.859	-74.552	0.206	0.073
-96.845	30.905	0.106	0.090
-95.830	38.962	-0.088	-0.078
-94.816	-142.660	-0.063	-0.006
-93.801	-9.329	-0.045	-0.030
-92.786	-48.373	0.144	-0.069
-91.772	454.873	0.005	0.011
-90.757	800.000	0.064	0.264
-89.743	37.449	-0.279	0.244
-88.728	175.341	-0.217	-0.310
-87.713	800.000	-0.034	-0.133
-86.699	-116.724	0.296	-0.054
-85.684	74.614	0.145	-0.151
-84.670	-50.878	0.072	-0.033
-83.655	112.276	0.110	0.132
-82.640	200.397	-0.147	0.223
-81.626	-74.280	0.114	-0.041
-80.611	-50.090	-0.211	0.098
-79.597	-62.049	-0.300	0.124
-78.582	-148.849	-0.203	-0.016
-77.567	-200.000	0.045	-0.220
-76.553	28.812	0.216	0.181
-75.538	-200.000	0.037	-0.203
-74.524	-144.087	0.096	0.009
-73.509	-110.708	0.287	0.059
-72.494	-41.628	-0.201	0.102
-71.480	-54.914	0.048	0.021
-70.465	-9.207	0.111	-0.073
-69.451	4.801	-0.175	-0.127
-68.436	4.627	0.145	0.105
-67.422	-175.949	0.180	-0.005
-66.407	-200.000	0.014	-0.072
-65.392	153.118	-0.107	0.145
-64.378	-137.383	0.308	0.034
-63.363	-113.967	-0.255	-0.049
-62.349	-124.854	-0.219	0.033
-61.334	60.689	-0.829	-0.810
-60.319	-129.559	0.605	0.083
-59.305	-200.000	-0.037	-0.729
-58.290	212.377	0.367	0.571
-57.276	-200.000	0.332	1.563
-56.261	-200.000	94.808	556.696
-55.246	636.414	1382.798	3463.743
-54.232	186.457	2612.778	3836.312
-53.217	116.548	2321.491	2808.318
-52.203	44.919	1932.950	1755.276
-51.188	38.492	1718.382	1510.968
-50.173	35.523	1673.576	1449.148
-49.159	51.771	1720.933	1614.825
-48.144	55.244	1738.105	1657.431
-47.130	38.070	1694.934	1486.900
-46.115	35.171	1680.116	1451.907
-45.100	34.998	1675.278	1446.365
-44.086	34.999	1672.468	1443.887
-43.071	34.857	1670.247	1440.839
-42.057	34.923	1667.441	1438.864
-41.042	34.948	1665.523	1437.338
-40.027	35.022	1663.565	1436.145
-39.013	34.935	1661.419	1433.584
-37.998	34.873	1660.511	1432.278
-36.984	34.950	1658.622	1431.172
-35.969	35.070	1657.318	1430.885
-34.954	35.177	1655.469	1430.029
-33.940	35.043	1653.990	1427.699
-32.925	35.020	1652.058	1425.802
-31.911	35.046	1650.199	1424.335
-30.896	35.003	1648.791	1422.740
-29.881	35.037	1647.325	1421.669
-28.867	34.958	1644.943	1418.976
-27.852	35.097	1643.696	1418.875
-26.838	35.094	1642.202	1417.507
-25.823	35.048	1640.539	1415.673
-24.809	35.076	1639.734	1415.127
-23.794	35.108	1637.855	1413.689
-22.779	35.206	1636.220	1412.944
-21.765	35.082	1635.069	1410.980
-20.750	35.145	1633.065	1409.659
-19.736	35.160	1631.486	1408.345
-18.721	35.054	1630.540	1406.700
-17.706	35.114	1628.574	1405.382
-16.692	35.033	1627.150	1403.508
-15.677	35.085	1625.372	1402.301
-14.663	35.140	1624.007	1401.471
-13.648	35.121	1623.054	1400.451
-12.633	35.125	1621.409	1399.007
-11.619	35.178	1619.815	1397.964
-10.604	35.083	1618.005	1395.653
-9.590	35.136	1616.786	1394.928
-8.575	35.159	1615.270	1393.732
-7.560	35.048	1614.653	1392.340
-6.546	34.956	1613.502	1390.621
-5.531	35.004	1612.553	1390.095
-4.517	35.074	1610.877	1389.104
-3.502	35.145	1609.726	1388.570
-2.487	35.199	1608.128	1387.529
-1.473	34.952	1596.860	1375.974
-0.458	32.138	1577.727	1339.406
0.556	30.591	1576.802	1302.597
1.571	27.728	1600.855	1301.949
2.586	26.377	1613.074	1302.054
3.600	22.901	1558.577	1233.718
4.615	13.793	1447.108	1086.037
5.629	6.144	1379.938	987.632
6.644	4.626	1371.183	971.800
7.659	4.560	1370.260	970.646
8.673	4.492	1369.267	969.434
9.688	4.652	1366.968	968.719
10.702	4.646	1364.669	966.962
11.717	8.280	1372.385	995.034
12.731	17.157	1388.744	1062.577
13.746	22.572	1396.654	1102.506
14.761	22.722	1395.507	1102.446
15.775	21.978	1393.276	1095.939
16.790	20.935	1390.435	1087.107
17.804	20.088	1388.408	1080.151
18.819	19.662	1387.615	1076.785
19.834	19.609	1386.344	1075.373
20.848	19.439	1385.149	1073.292
21.863	19.257	1383.901	1071.100
22.877	19.197	1382.745	1069.733
23.892	19.134	1381.825	1068.541
24.907	19.117	1381.118	1067.793
25.921	19.147	1379.978	1067.004
26.936	19.098	1379.304	1066.081
27.950	19.084	1378.250	1065.085
28.965	19.290	1377.167	1065.431
29.980	19.478	1375.641	1065.318
30.994	19.464	1375.026	1064.658
32.009	19.520	1374.108	1064.199
33.023	19.491	1373.003	1063.069
34.038	19.489	1371.042	1061.444
35.053	19.259	1370.221	1059.304
36.067	19.164	1369.575	1058.127
37.082	19.287	1368.152	1057.685
38.096	19.344	1367.629	1057.536
39.111	19.405	1366.457	1056.912
40.126	19.221	1365.182	1054.704
41.140	19.075	1364.606	1053.277
42.155	18.875	1363.695	1051.255
43.169	18.872	1363.483	1050.983
44.184	18.869	1362.567	1050.165
45.199	18.855	1362.924	1050.258
46.213	18.998	1362.353	1050.600
47.228	19.145	1362.047	1051.168
48.242	19.237	1360.311	1050.294
49.257	19.074	1359.387	1048.496
50.271	19.268	1357.247	1047.934
51.286	19.251	1356.493	1047.156
52.301	19.216	1355.218	1045.867
53.315	19.047	1353.870	1043.709
54.330	18.991	1352.517	1042.236
55.344	18.885	1351.696	1040.866
56.359	18.928	1350.379	1040.024
57.374	18.865	1349.856	1039.146
58.388	18.841	1348.708	1038.024
59.403	18.827	1348.227	1037.476
60.417	18.796	1347.510	1036.646
61.432	18.715	1346.395	1035.210
62.447	18.566	1345.547	1033.568
63.461	18.642	1343.933	1032.691
64.476	18.515	1343.253	1031.315
65.490	18.576	1342.017	1030.643
66.505	18.642	1340.452	1029.745
67.520	18.797	1338.973	1029.446
68.534	18.687	1337.841	1027.828
69.549	18.618	1337.378	1026.970
70.563	18.586	1336.216	1025.792
71.578	18.438	1335.000	1023.888
72.593	18.409	1334.310	1023.090
73.607	18.407	1333.168	1022.114
74.622	18.451	1332.711	1021.932
75.636	18.405	1332.235	1021.206
76.651	18.410	1331.315	1020.439
77.666	18.492	1331.025	1020.613
78.680	18.579	1330.645	1020.749
79.695	18.732	1329.892	1020.995
80.709	18.789	1329.147	1020.671
81.724	18.771	1328.386	1019.887
82.739	18.930	1327.622	1020.155
83.753	19.018	1327.047	1020.145
84.768	19.261	1326.249	1020.879
85.782	19.392	1325.145	1020.715
86.797	19.402	1324.054	1019.845
87.812	19.291	1322.670	1018.035
88.826	19.263	1321.789	1017.098
89.841	19.183	1320.973	1015.909
90.855	19.270	1319.883	1015.496
91.870	19.363	1319.205	1015.430
92.884	19.452	1318.142	1015.046
93.899	19.450	1317.323	1014.313
94.914	19.459	1316.623	1013.740
95.928	19.387	1316.118	1012.834
96.943	19.386	1315.197	1012.034
97.957	19.254	1313.992	1010.243
98.972	19.465	1312.473	1010.217
99.987	19.337	1312.183	1009.160
101.001	19.286	1311.091	1007.928
102.016	19.351	1310.279	1007.596
103.030	19.324	1309.308	1006.604
104.045	19.419	1308.001	1006.063
105.060	19.217	1306.740	1003.828
106.074	18.868	1305.477	1000.739
107.089	18.698	1303.892	998.444
108.103	18.660	1302.414	997.001
109.118	18.687	1300.899	995.912
110.133	18.643	1299.738	994.680
111.147	18.635	1298.638	993.705
112.162	18.785	1297.309	993.466
113.176	18.812	1296.542	992.948
114.191	18.776	1295.984	992.226
115.206	18.825	1294.665	991.409
116.220	18.843	1293.112	990.235
117.235	18.850	1291.753	989.149
118.249	18.838	1291.100	988.490
119.264	18.764	1289.413	986.686
120.279	18.619	1288.497	985.070
121.293	18.595	1287.716	984.247
122.308	18.500	1286.937	983.017
123.322	18.526	1285.411	981.912
124.337	18.538	1284.273	981.024
125.352	18.391	1283.282	979.345
126.366	18.439	1282.232	978.731
127.381	18.493	1281.222	978.181
128.395	18.463	1280.225	977.162
129.410	18.481	1279.099	976.317
130.424	18.649	1278.275	976.560
131.439	18.669	1277.232	975.787
132.454	18.710	1276.992	975.750
133.468	18.880	1275.825	975.738
134.483	18.893	1274.929	975.039
135.497	18.901	1274.611	974.755
136.512	18.863	1273.184	973.363
137.527	18.964	1271.771	972.770
138.541	18.930	1270.435	971.470
139.556	18.970	1269.083	970.574
140.570	18.996	1268.660	970.313
141.585	19.197	1266.945	970.049
142.600	19.188	1266.331	969.442
143.614	19.362	1265.416	969.632
144.629	19.331	1264.650	968.786
145.643	19.350	1263.257	967.743
146.658	19.253	1261.999	966.148
147.673	19.011	1260.669	963.688
148.687	18.983	1259.148	962.285
149.702	18.938	1257.232	960.485
150.716	18.807	1256.374	959.012
151.731	18.998	1254.979	958.927
152.746	18.910	1254.211	957.763
153.760	18.962	1253.306	957.280
154.775	18.993	1252.401	956.674
155.789	19.144	1251.036	956.387
156.804	19.119	1250.328	955.624
157.819	19.233	1249.314	955.391
158.833	19.295	1248.796	955.259
159.848	19.336	1247.692	954.556
160.862	19.292	1246.712	953.474
161.877	19.136	1245.239	951.406
162.892	18.849	1244.346	949.052
163.906	18.907	1242.879	948.171
164.921	18.952	1242.169	947.792
165.935	19.041	1241.213	947.468
166.950	19.093	1240.633	947.227
167.964	19.123	1240.206	946.986
168.979	18.945	1239.513	945.392
169.994	18.983	1238.438	944.696
171.008	19.038	1237.511	944.209
172.023	19.227	1236.740	944.572
173.037	19.320	1236.315	944.675
174.052	19.182	1235.618	943.301
175.067	19.069	1234.004	941.372
176.081	18.922	1233.004	939.720
177.096	18.910	1232.400	939.113
178.110	18.929	1230.951	938.029
179.125	19.010	1229.840	937.539
180.140	19.114	1228.629	937.101
181.154	19.177	1227.713	936.659
182.169	19.291	1226.547	936.306
183.183	19.285	1225.948	935.733
184.198	19.391	1224.642	935.231
185.213	19.411	1223.503	934.386
186.227	19.492	1222.396	933.894
187.242	19.505	1221.584	933.261
188.256	19.522	1220.537	932.472
189.271	19.705	1219.743	932.770
190.286	19.479	1218.028	930.162
191.300	18.989	1216.953	926.614
192.315	18.957	1216.213	925.798
193.329	18.982	1215.790	925.532
194.344	19.127	1215.148	925.740
195.359	19.092	1215.107	925.437
196.373	19.231	1214.336	925.517
197.388	19.315	1214.213	925.788
198.402	19.581	1213.869	926.872
199.417	19.728	1213.381	927.209
200.432	19.734	1212.780	926.696
201.446	19.891	1212.014	926.871
202.461	20.046	1211.005	926.849
203.475	19.894	1210.167	925.310
204.490	19.722	1208.879	923.324
205.504	19.519	1207.415	921.041
206.519	19.461	1206.240	919.757
207.534	19.430	1205.134	918.668
208.548	19.437	1204.435	918.091
209.563	19.487	1203.679	917.700
210.577	19.538	1202.854	917.258
211.592	19.663	1201.850	917.076
212.607	19.720	1201.288	916.871
213.621	19.729	1200.371	916.134
214.636	19.783	1199.134	915.394
215.650	19.727	1198.196	914.303
216.665	19.791	1197.742	914.214
217.680	20.021	1196.682	914.538
218.694	20.033	1195.977	913.983
219.709	19.888	1195.459	912.742
220.723	19.853	1195.084	912.190
221.738	19.967	1194.010	911.889
222.753	19.741	1193.307	910.081
223.767	19.844	1192.231	909.724
224.782	20.024	1192.126	910.510
225.796	20.121	1191.030	910.101
226.811	20.033	1190.439	909.104
227.826	19.892	1189.899	907.875
228.840	19.777	1189.108	906.587
229.855	19.644	1188.686	905.488
230.869	19.822	1187.736	905.614
231.884	19.714	1186.677	904.164
232.899	19.715	1185.437	903.144
233.913	19.702	1184.806	902.516
234.928	19.643	1184.166	901.642
235.942	19.526	1183.837	900.699
236.957	19.544	1182.740	899.876
237.972	19.604	1181.718	899.336
238.986	19.534	1181.705	898.883
240.001	19.658	1180.618	898.616
241.015	19.791	1179.384	898.291
242.030	19.758	1179.328	897.998
243.045	19.880	1178.187	897.683
244.059	19.843	1177.552	896.927
245.074	19.870	1176.855	896.456
246.088	19.983	1176.125	896.408
247.103	20.156	1175.200	896.519
248.117	20.270	1174.368	896.390
249.132	20.304	1174.399	896.513
250.147	20.558	1173.712	897.217
251.161	20.630	1173.132	897.067
252.176	20.638	1172.452	896.507
253.190	20.735	1172.029	896.604
254.205	20.813	1171.646	896.635
255.220	20.795	1170.425	895.528
256.234	20.785	1169.977	895.057
257.249	20.743	1169.451	894.358
258.263	20.771	1168.712	893.860
259.278	20.679	1167.939	892.714
260.293	20.741	1167.540	892.649
261.307	20.856	1167.194	892.897
262.322	20.849	1166.372	892.152
263.336	20.917	1165.760	891.951
264.351	20.845	1165.227	891.100
265.366	20.934	1164.362	890.811
266.380	20.815	1164.048	889.887
267.395	20.855	1162.769	889.030
268.409	20.678	1162.312	887.700
269.424	20.751	1161.221	887.162
270.439	20.743	1160.511	886.499
271.453	20.556	1159.911	885.011
272.468	20.425	1159.119	883.661
273.482	20.512	1158.173	883.304
274.497	20.506	1157.625	882.778
275.512	20.572	1156.725	882.347
276.526	20.581	1156.265	881.964
277.541	20.568	1155.056	880.900
278.555	20.655	1154.967	881.195
279.570	20.871	1154.093	881.542
280.585	21.024	1153.482	881.772
281.599	20.890	1152.865	880.546
282.614	20.790	1151.700	879.071
283.628	20.749	1149.833	877.364
284.643	20.683	1149.381	876.608
285.657	20.759	1148.326	876.108
286.672	20.784	1147.236	875.326
287.687	20.830	1146.314	874.775
288.701	20.676	1146.073	873.738
289.716	20.924	1144.860	873.982
290.730	20.856	1144.355	873.180
291.745	20.868	1143.930	872.839
292.760	20.914	1143.196	872.430
293.774	21.092	1142.380	872.623
294.789	21.049	1142.083	872.102
295.803	21.047	1141.806	871.801
296.818	20.844	1140.871	869.997
297.833	20.949	1139.441	869.354
298.847	20.877	1139.029	868.606
299.862	20.932	1138.382	868.308
300.876	20.948	1137.643	867.747
301.891	21.052	1137.033	867.722
302.906	21.205	1136.060	867.661
303.920	21.256	1135.333	867.283
304.935	21.267	1135.278	867.219
305.949	21.352	1134.785	867.189
306.964	21.373	1134.274	866.825
307.979	21.321	1132.789	865.357
308.993	21.330	1132.154	864.840
310.008	21.381	1131.345	864.395
311.022	21.361	1131.045	863.992
312.037	21.339	1130.098	863.082
313.052	21.198	1129.245	861.660
314.066	21.109	1127.740	859.994
315.081	20.916	1127.379	858.694
316.095	20.840	1126.254	857.389
317.110	20.972	1125.560	857.431
318.125	20.949	1124.873	856.723
319.139	20.868	1124.235	855.761
320.154	21.020	1122.894	855.412
321.168	20.865	1122.988	854.644
322.183	20.960	1122.496	854.661
323.197	21.150	1121.430	854.705
324.212	21.105	1121.087	854.149
325.227	20.997	1120.824	853.345
326.241	21.091	1119.940	853.052
327.256	20.990	1119.112	851.855
328.270	21.075	1118.123	851.443
329.285	21.003	1117.233	850.338
330.300	21.073	1116.234	849.843
331.314	21.047	1115.353	848.968
332.329	21.163	1114.410	848.743
333.343	21.100	1113.602	847.746
334.358	21.211	1112.693	847.514
335.373	21.311	1111.982	847.383
336.387	21.352	1111.384	847.052
337.402	21.358	1110.431	846.280
338.416	21.361	1110.028	845.911
339.431	21.552	1109.378	846.269
340.446	21.593	1109.392	846.399
341.460	21.792	1108.393	846.525
342.475	21.790	1107.623	845.854
343.489	21.804	1107.101	845.443
344.504	21.855	1105.719	844.563
345.519	21.964	1105.066	844.510
346.533	21.979	1104.298	843.924
347.548	22.063	1103.524	843.660
348.562	21.915	1102.591	842.161
349.577	21.666	1102.017	840.452
350.592	21.584	1100.803	839.062
351.606	21.637	1099.831	838.501
352.621	21.416	1099.374	837.019
353.635	21.308	1098.502	835.764
354.650	21.321	1097.810	835.227
355.665	21.423	1097.171	835.152
356.679	21.664	1096.447	835.676
357.694	21.723	1095.764	835.368
358.708	21.719	1095.712	835.230
359.723	21.669	1095.144	834.487
360.738	21.716	1094.406	834.076
361.752	21.834	1093.670	834.004
362.767	21.831	1093.009	833.412
363.781	21.740	1092.611	832.600
364.796	21.904	1092.191	832.983
365.810	22.074	1091.718	833.358
366.825	22.187	1090.819	833.133
367.840	22.247	1090.650	833.213
368.854	22.353	1090.261	833.345
369.869	22.328	1088.949	832.152
370.883	22.182	1088.440	830.997
371.898	22.047	1087.777	829.779
372.913	22.073	1087.182	829.378
373.927	22.182	1086.075	828.972
374.942	22.372	1085.734	829.535
375.956	22.221	1085.504	828.571
376.971	22.211	1084.745	827.873
377.986	22.152	1084.457	827.302
379.000	22.369	1083.983	827.888
380.015	22.485	1083.511	828.003
381.029	22.596	1082.616	827.763
382.044	22.549	1082.128	827.097
383.059	22.555	1081.120	826.283
384.073	22.323	1080.628	824.744
385.088	22.400	1079.272	823.997
386.102	22.420	1078.320	823.291
387.117	22.244	1077.416	821.706
388.132	22.189	1076.461	820.648
389.146	22.086	1075.704	819.519
390.161	22.066	1074.929	818.765
391.175	22.192	1074.069	818.624
392.190	22.221	1073.757	818.448
393.205	22.323	1073.309	818.505
394.219	22.344	1072.363	817.809
395.234	22.190	1071.349	816.249
396.248	22.167	1070.383	815.334
397.263	22.159	1069.557	814.597
398.278	22.046	1068.375	813.100
399.292	21.999	1067.760	812.343
400.307	21.931	1066.747	811.189
401.321	21.904	1066.376	810.710
402.336	21.906	1065.644	810.091
403.350	21.945	1065.132	809.809
404.365	22.105	1064.527	810.013
405.380	22.155	1063.899	809.696
406.394	22.245	1062.980	809.340
407.409	22.336	1062.649	809.432
408.423	22.420	1062.133	809.356
409.438	22.479	1061.331	808.944
410.453	22.690	1060.203	808.978
411.467	22.762	1059.497	808.700
412.482	22.733	1059.237	808.296
413.496	22.810	1058.669	808.143
414.511	22.858	1058.331	808.035
415.526	22.984	1057.543	807.938
416.540	22.986	1057.580	807.902
417.555	22.874	1057.069	806.928
418.569	22.743	1056.293	805.666
419.584	22.740	1055.698	805.127
420.599	22.860	1055.017	805.087
421.613	153.976	1401.127	1788.580
422.628	141.418	1451.559	1788.726
