DTS Sentinel unit serial number:	SN413079Multiplexer serial number:	ORYXHardware model number:	OX4-SRSoftware version number:	ORYX F/W v4.00 Oryx Data Collector v3.7.2.0data status	okinstallation	princeton_trtdifferential loss correction	single-endedforward channel	channel 2reverse channel	N/Adate	2019/09/15time	10:03:35forward acquisition time	60.00reverse acquisition time	0.00gamma	496.2192k internal	0.2315k external	0.2315temperature offset calibration	1.0017default loss term (dB/km)	0.3790temperature slope calibration	1.0000multiplexer offset coefficient	1.0000multiplexer slope coefficient	1.0000fibre end	0.00T internal ref (°C)	34.14T ext. ref 1 (°C)	5.00T ext. ref 2 (°C)	30.05length (m)	temperature (°C)	Stokes	anti-Stokes-747.200	800.000	-0.045	-0.138
-746.185	-200.000	0.002	0.162
-745.171	574.373	-0.072	-0.177
-744.156	239.148	0.160	0.270
-743.142	-130.505	-0.272	0.037
-742.127	89.956	-0.118	0.133
-741.112	224.339	-0.174	-0.284
-740.098	-200.000	0.033	0.249
-739.083	-200.000	0.038	0.189
-738.069	-200.000	0.035	0.298
-737.054	54.096	0.160	0.155
-736.039	84.009	0.172	-0.190
-735.025	-21.787	0.126	0.078
-734.010	-63.763	0.313	-0.130
-732.996	-81.006	0.161	0.054
-731.981	-200.000	0.012	0.069
-730.966	-162.538	0.277	0.014
-729.952	-102.623	-0.106	-0.026
-728.937	-88.160	-0.213	0.065
-727.923	-145.795	0.107	-0.010
-726.908	-19.242	-0.474	-0.298
-725.894	-81.500	0.091	0.030
-724.879	277.841	0.257	0.463
-723.864	397.385	0.050	0.105
-722.850	-200.000	0.014	-0.101
-721.835	82.886	0.171	0.188
-720.821	708.657	0.123	0.330
-719.806	-99.469	-0.151	-0.039
-718.791	-67.590	0.350	-0.139
-717.777	105.355	0.068	0.082
-716.762	80.815	0.231	-0.253
-715.748	800.000	-0.019	-0.083
-714.733	-200.000	-0.043	-0.206
-713.718	-109.739	-0.346	0.074
-712.704	-160.539	-0.171	0.009
-711.689	-44.354	-0.120	-0.061
-710.675	312.045	0.062	0.118
-709.660	29.024	0.298	-0.256
-708.645	121.811	-0.272	-0.343
-707.631	49.997	0.033	0.031
-706.616	-200.000	0.062	-0.293
-705.602	-104.107	-0.253	-0.060
-704.587	345.179	-0.122	-0.242
-703.572	-122.348	-0.125	-0.021
-702.558	-122.997	0.044	-0.007
-701.543	-183.508	-0.324	-0.006
-700.529	-54.396	-0.086	0.039
-699.514	-180.077	0.077	-0.002
-698.499	567.927	-0.211	-0.519
-697.485	-200.000	0.024	-0.560
-696.470	561.757	-0.103	-0.251
-695.456	-200.000	-0.063	-0.406
-694.441	321.418	-0.172	-0.331
-693.426	-52.400	-0.169	-0.079
-692.412	-108.853	-0.313	-0.068
-691.397	216.999	0.033	0.053
-690.383	-200.000	0.006	-0.025
-689.368	-2.027	-0.260	0.185
-688.354	-155.553	-0.120	-0.008
-687.339	642.396	0.129	-0.332
-686.324	-2.568	0.253	-0.179
-685.310	31.821	0.102	-0.088
-684.295	278.341	-0.039	-0.071
-683.281	199.942	-0.093	-0.144
-682.266	-5.364	-0.191	-0.133
-681.251	-121.884	0.287	-0.048
-680.237	800.000	-0.109	-0.455
-679.222	-200.000	0.011	-0.162
-678.208	-134.620	0.191	-0.024
-677.193	800.000	-0.047	-0.135
-676.178	-200.000	-0.015	-0.095
-675.164	-100.980	-0.166	0.041
-674.149	-122.513	-0.109	-0.018
-673.135	210.200	-0.226	-0.359
-672.120	263.353	0.195	-0.342
-671.105	290.714	-0.274	0.503
-670.091	-128.384	-0.155	-0.022
-669.076	82.084	-0.197	-0.215
-668.062	-108.857	-0.128	-0.028
-667.047	225.654	0.090	-0.147
-666.032	-145.233	-0.169	0.015
-665.018	335.392	-0.059	0.115
-664.003	491.290	0.175	-0.405
-662.989	800.000	0.123	-0.349
-661.974	15.384	-0.230	0.183
-660.959	-124.567	-0.453	0.071
-659.945	137.139	-0.155	-0.205
-658.930	149.442	-0.194	0.266
-657.916	800.000	-0.023	0.078
-656.901	-40.134	0.160	-0.084
-655.886	-200.000	0.021	0.243
-654.872	-162.479	-0.267	0.013
-653.857	-79.322	-0.094	0.032
-652.843	77.414	0.190	0.204
-651.828	-7.891	-0.238	-0.162
-650.814	-108.575	0.394	-0.085
-649.799	4.902	-0.202	-0.150
-648.784	-98.870	0.038	-0.010
-647.770	0.096	0.115	0.083
-646.755	270.406	-0.076	0.134
-645.741	-113.998	-0.140	0.027
-644.726	440.676	-0.109	0.241
-643.711	46.228	-0.229	0.214
-642.697	194.407	0.043	-0.066
-641.682	-61.956	0.258	0.109
-640.668	-0.952	0.237	-0.169
-639.653	-200.000	-0.039	-0.328
-638.638	-200.000	0.023	0.414
-637.624	98.651	-0.217	0.253
-636.609	621.949	0.015	0.039
-635.595	287.469	-0.222	0.404
-634.580	-154.133	0.149	0.010
-633.565	495.860	0.123	-0.286
-632.551	230.171	-0.227	-0.374
-631.536	-86.502	-0.357	-0.110
-630.522	-130.260	0.280	0.038
-629.507	-89.943	0.079	0.023
-628.492	296.927	-0.161	0.297
-627.478	-71.324	-0.333	0.126
-626.463	-108.835	0.155	-0.033
-625.449	345.379	-0.196	-0.389
-624.434	-43.409	0.233	-0.119
-623.419	96.858	-0.297	-0.344
-622.405	-93.528	0.080	-0.022
-621.390	582.075	0.091	-0.224
-620.376	-66.786	-0.224	-0.089
-619.361	-105.875	0.064	0.015
-618.346	-168.113	-0.423	0.017
-617.332	508.047	0.054	0.127
-616.317	-200.000	0.050	-0.319
-615.303	-200.000	-0.013	0.161
-614.288	566.728	-0.034	-0.083
-613.273	-12.039	-0.167	-0.111
-612.259	130.962	-0.199	-0.257
-611.244	-200.000	-0.008	0.149
-610.230	-107.522	0.187	-0.041
-609.215	689.149	-0.075	-0.197
-608.201	264.871	0.022	-0.038
-607.186	6.775	-0.222	-0.167
-606.171	358.414	0.085	-0.171
-605.157	-70.136	-0.197	0.076
-604.142	44.594	0.133	0.123
-603.128	480.007	0.071	0.163
-602.113	27.282	-0.270	-0.228
-601.098	-200.000	-0.020	-0.128
-600.084	659.196	0.107	0.278
-599.069	215.134	0.049	-0.078
-598.055	249.310	0.066	-0.113
-597.040	478.693	-0.148	0.338
-596.025	-29.843	-0.216	0.124
-595.011	-194.875	0.281	-0.002
-593.996	-121.135	-0.106	-0.018
-592.982	-200.000	0.037	0.330
-591.967	9.950	-0.258	-0.197
-590.952	44.499	0.072	-0.066
-589.938	-200.000	0.007	0.057
-588.923	-117.709	-0.420	-0.076
-587.909	130.685	0.223	0.288
-586.894	0.388	-0.044	-0.032
-585.879	-110.348	-0.129	0.027
-584.865	8.951	0.134	-0.102
-583.850	142.534	0.037	-0.050
-582.836	-141.683	0.284	-0.029
-581.821	-72.011	-0.105	-0.039
-580.806	484.662	-0.142	0.324
-579.792	69.113	0.107	-0.111
-578.777	16.398	-0.128	-0.101
-577.763	266.455	-0.110	-0.194
-576.748	-141.887	-0.315	-0.032
-575.733	-144.838	-0.217	-0.020
-574.719	194.567	-0.072	0.109
-573.704	-200.000	0.039	0.345
-572.690	-88.833	-0.068	-0.020
-571.675	293.300	0.116	0.213
-570.661	19.874	0.284	0.231
-569.646	-200.000	0.030	0.437
-568.631	-81.710	-0.401	-0.133
-567.617	-89.519	-0.270	-0.080
-566.602	249.130	0.103	-0.176
-565.588	-200.000	0.013	-0.197
-564.573	-200.000	-0.057	-0.319
-563.558	-117.110	-0.326	-0.060
-562.544	-78.998	0.170	-0.058
-561.529	-147.283	-0.196	-0.017
-560.515	-27.572	0.160	0.094
-559.500	87.957	-0.219	0.245
-558.485	275.648	0.042	0.075
-557.471	-81.628	-0.311	0.103
-556.456	-156.857	-0.023	-0.001
-555.442	-141.892	-0.197	0.020
-554.427	800.000	-0.017	-0.065
-553.412	-200.000	-0.022	-0.108
-552.398	330.619	-0.136	-0.264
-551.383	800.000	0.106	-0.348
-550.369	-81.308	0.368	0.122
-549.354	154.484	0.257	-0.355
-548.339	-200.000	-0.031	-0.397
-547.325	99.304	-0.195	0.227
-546.310	-194.830	0.338	-0.003
-545.296	-48.246	-0.252	-0.122
-544.281	-200.000	-0.025	0.112
-543.266	800.000	-0.110	-0.433
-542.252	-158.535	-0.172	0.010
-541.237	501.446	0.093	-0.216
-540.223	98.682	-0.170	-0.198
-539.208	800.000	-0.079	0.255
-538.193	-111.769	-0.245	-0.050
-537.179	-200.000	-0.005	-0.132
-536.164	-63.227	-0.526	0.218
-535.150	-105.336	-0.215	-0.049
-534.135	-26.116	0.066	-0.039
-533.121	-33.186	-0.165	-0.092
-532.106	800.000	0.014	-0.048
-531.091	138.774	0.131	-0.173
-530.077	-100.683	0.237	-0.059
-529.062	-64.533	0.049	0.020
-528.048	-97.059	0.186	0.049
-527.033	-200.000	-0.022	0.108
-526.018	58.322	0.261	-0.257
-525.004	-0.032	-0.131	-0.094
-523.989	207.855	0.122	0.191
-522.975	181.075	-0.207	-0.306
-521.960	-100.617	0.375	-0.093
-520.945	287.030	0.138	-0.250
-519.931	-12.945	0.228	0.149
-518.916	14.062	-0.300	-0.235
-517.902	800.000	-0.023	-0.067
-516.887	221.632	-0.059	0.095
-515.872	-150.225	-0.336	0.026
-514.858	-157.853	-0.226	0.013
-513.843	800.000	0.076	0.334
-512.829	115.749	-0.084	-0.103
-511.814	95.309	0.187	-0.214
-510.799	8.417	-0.102	-0.077
-509.785	-200.000	-0.000	0.024
-508.770	275.571	0.184	-0.327
-507.756	86.076	0.039	0.043
-506.741	41.567	-0.046	0.042
-505.726	-94.060	0.301	-0.083
-504.712	800.000	-0.015	0.056
-503.697	-31.957	0.240	0.135
-502.683	-48.352	-0.431	0.209
-501.668	4.846	-0.138	-0.102
-500.653	22.203	0.303	-0.248
-499.639	-97.316	-0.176	-0.046
-498.624	71.998	0.105	-0.109
-497.610	-16.129	-0.070	0.045
-496.595	-200.000	0.068	0.326
-495.581	-160.314	0.095	-0.005
-494.566	-126.099	-0.166	-0.025
-493.551	-136.319	-0.050	0.006
-492.537	166.324	0.322	-0.458
-491.522	29.396	0.230	-0.196
-490.508	236.069	-0.060	-0.099
-489.493	72.623	-0.094	-0.098
-488.478	-200.000	0.009	0.142
-487.464	171.993	0.144	-0.207
-486.449	43.182	-0.030	-0.027
-485.435	-144.473	-0.372	0.035
-484.420	63.675	0.107	-0.108
-483.405	77.403	0.031	-0.033
-482.391	-200.000	-0.028	-0.217
-481.376	-125.758	0.183	-0.028
-480.362	120.571	-0.199	-0.249
-479.347	177.941	-0.207	-0.303
-478.332	-200.000	-0.086	0.494
-477.318	94.803	0.291	0.332
-476.303	60.377	-0.136	-0.135
-475.289	-139.711	-0.356	0.038
-474.274	175.477	0.130	-0.189
-473.259	-71.333	-0.174	-0.065
-472.245	632.575	0.028	0.072
-471.230	751.588	-0.177	0.480
-470.216	800.000	0.021	0.072
-469.201	-122.954	0.104	-0.017
-468.186	-163.527	-0.110	-0.005
-467.172	-200.000	-0.022	-0.230
-466.157	-103.228	0.319	0.076
-465.143	199.623	-0.154	0.236
-464.128	800.000	0.066	0.284
-463.113	-40.205	0.122	-0.064
-462.099	25.193	0.101	-0.084
-461.084	184.498	0.302	-0.449
-460.070	403.088	-0.118	-0.249
-459.055	120.376	0.117	0.145
-458.040	-119.086	-0.158	-0.028
-457.026	-200.000	0.017	0.312
-456.011	190.846	0.030	-0.045
-454.997	-200.000	-0.049	-0.317
-453.982	-113.789	-0.150	0.029
-452.968	352.642	-0.221	0.439
-451.953	-4.921	0.289	-0.199
-450.938	549.294	-0.037	-0.089
-449.924	727.810	-0.104	-0.277
-448.909	11.103	-0.079	0.061
-447.895	-51.445	0.128	0.060
-446.880	-200.000	-0.009	0.057
-445.865	800.000	0.031	-0.101
-444.851	703.887	-0.106	-0.280
-443.836	393.466	0.125	0.260
-442.822	11.175	-0.164	-0.126
-441.807	800.000	-0.133	-0.370
-440.792	-200.000	0.014	-0.231
-439.778	47.885	-0.167	-0.156
-438.763	-114.785	-0.233	-0.044
-437.749	593.231	-0.029	0.071
-436.734	-148.097	0.112	-0.009
-435.719	315.487	0.149	-0.282
-434.705	-78.643	0.189	-0.065
-433.690	-200.000	-0.005	0.054
-432.676	165.597	0.168	0.237
-431.661	136.060	-0.226	0.295
-430.646	-1.063	-0.204	0.144
-429.632	439.157	0.124	-0.272
-428.617	-137.379	0.327	0.037
-427.603	-96.992	-0.169	-0.044
-426.588	229.690	0.246	0.402
-425.573	-28.087	-0.183	0.106
-424.559	52.892	-0.268	-0.257
-423.544	-200.000	-0.012	-0.174
-422.530	-200.000	0.021	-0.102
-421.515	0.204	0.214	0.153
-420.500	157.021	-0.150	0.208
-419.486	-77.925	-0.156	-0.054
-418.471	800.000	-0.145	-0.402
-417.457	-81.984	-0.215	0.070
-416.442	800.000	0.048	-0.142
-415.428	16.892	-0.253	0.201
-414.413	800.000	0.091	0.278
-413.398	800.000	-0.019	-0.077
-412.384	800.000	0.085	0.335
-411.369	767.788	0.055	0.150
-410.355	-200.000	0.062	-0.348
-409.340	97.401	0.071	0.081
-408.325	100.375	0.096	0.112
-407.311	-200.000	0.007	-0.098
-406.296	211.651	0.091	-0.143
-405.282	2.812	0.219	0.159
-404.267	-200.000	0.001	0.119
-403.252	388.514	-0.115	-0.238
-402.238	116.842	0.014	-0.018
-401.223	7.956	0.050	0.037
-400.209	9.006	-0.075	-0.056
-399.194	-200.000	0.004	-0.144
-398.179	-46.128	-0.113	-0.055
-397.165	-200.000	0.023	0.137
-396.150	-10.851	-0.376	0.248
-395.136	800.000	-0.045	0.134
-394.121	-200.000	0.001	0.131
-393.106	2.153	0.056	-0.040
-392.092	800.000	0.070	0.238
-391.077	-200.000	-0.071	0.450
-390.063	-18.213	0.260	-0.163
-389.048	800.000	0.031	-0.103
-388.033	800.000	0.084	-0.337
-387.019	-45.405	0.208	-0.103
-386.004	-200.000	0.019	0.123
-384.990	-48.424	-0.098	-0.047
-383.975	27.949	-0.125	0.105
-382.960	800.000	0.050	0.187
-381.946	83.026	0.130	-0.141
-380.931	800.000	-0.026	0.081
-379.917	-104.488	-0.107	-0.025
-378.902	-88.022	0.264	0.079
-377.888	-123.142	0.393	0.063
-376.873	318.970	0.151	0.286
-375.858	-200.000	-0.050	0.266
-374.844	18.710	-0.150	0.120
-373.829	-200.000	0.003	0.077
-372.815	-70.809	0.352	-0.132
-371.800	-47.297	-0.323	0.157
-370.785	-200.000	0.102	0.497
-369.771	800.000	0.090	-0.281
-368.756	118.844	0.037	0.045
-367.742	-4.890	0.062	-0.043
-366.727	319.629	-0.137	-0.260
-365.712	220.167	0.085	0.137
-364.698	506.625	0.105	0.243
-363.683	240.687	0.140	-0.232
-362.669	17.699	0.053	0.042
-361.654	281.560	-0.117	0.209
-360.639	-16.712	0.259	0.164
-359.625	71.115	-0.041	-0.042
-358.610	760.478	-0.045	-0.120
-357.596	800.000	-0.047	0.181
-356.581	-184.455	0.211	-0.003
-355.566	-95.981	0.107	-0.028
-354.552	-96.025	-0.077	0.020
-353.537	-0.810	-0.034	-0.024
-352.523	379.114	-0.044	-0.090
-351.508	-80.813	0.324	0.107
-350.493	99.859	0.105	0.121
-349.479	-95.907	0.117	-0.031
-348.464	663.115	0.124	0.318
-347.450	-200.000	0.030	0.308
-346.435	-4.314	-0.057	0.039
-345.420	72.247	-0.095	0.098
-344.406	75.280	0.264	0.278
-343.391	800.000	-0.054	0.185
-342.377	-2.929	-0.158	-0.110
-341.362	385.025	-0.143	-0.293
-340.348	-52.085	0.246	-0.114
-339.333	-12.537	0.227	0.148
-338.318	107.097	-0.267	0.317
-337.304	-200.000	0.044	-0.228
-336.289	24.936	0.181	-0.149
-335.275	-5.751	0.072	0.049
-334.260	439.829	0.053	0.116
-333.245	-200.000	0.000	0.238
-332.231	16.137	-0.279	0.219
-331.216	-200.000	0.046	-0.299
-330.202	112.110	0.101	0.121
-329.187	-122.271	-0.242	-0.039
-328.172	800.000	-0.082	0.231
-327.158	137.191	0.135	0.176
-326.143	-111.163	-0.230	0.047
-325.129	-200.000	-0.023	-0.103
-324.114	-148.035	0.104	-0.009
-323.099	-12.410	0.125	-0.082
-322.085	-95.695	0.382	0.102
-321.070	10.537	-0.111	-0.084
-320.056	800.000	0.060	-0.260
-319.041	113.824	-0.072	-0.087
-318.026	-200.000	0.017	-0.301
-317.012	-156.303	0.234	-0.015
-315.997	499.271	-0.092	-0.212
-314.983	-98.638	0.346	-0.088
-313.968	133.126	-0.102	-0.131
-312.953	1.058	0.078	0.056
-311.939	11.950	-0.402	0.308
-310.924	-105.047	-0.103	-0.024
-309.910	-86.425	-0.183	-0.056
-308.895	-88.075	-0.340	0.102
-307.880	205.607	0.149	-0.230
-306.866	-32.689	0.116	-0.064
-305.851	239.875	-0.099	0.164
-304.837	29.618	-0.191	-0.162
-303.822	172.941	0.158	0.227
-302.807	66.944	0.087	0.088
-301.793	800.000	0.134	-0.489
-300.778	-51.299	0.147	-0.068
-299.764	506.592	0.034	0.079
-298.749	-49.854	-0.341	0.161
-297.735	-52.408	0.160	-0.074
-296.720	-32.582	0.186	0.103
-295.705	-18.373	0.156	0.097
-294.691	-200.000	0.035	0.260
-293.676	123.884	-0.233	0.291
-292.662	375.405	0.061	-0.124
-291.647	-133.886	0.086	0.011
-290.632	-68.722	-0.164	-0.063
-289.618	-144.593	-0.050	-0.005
-288.603	375.974	-0.110	0.223
-287.589	-158.809	0.107	-0.006
-286.574	800.000	0.063	-0.270
-285.559	109.956	0.185	0.221
-284.545	800.000	-0.085	0.238
-283.530	-59.196	0.236	0.101
-282.516	-94.261	-0.304	0.083
-281.501	800.000	0.038	-0.142
-280.486	-91.385	0.159	-0.045
-279.472	51.354	-0.194	-0.183
-278.457	800.000	0.062	-0.185
-277.443	-164.571	0.101	0.005
-276.428	-89.888	-0.105	-0.031
-275.413	800.000	0.037	0.105
-274.399	-200.000	-0.014	-0.212
-273.384	-89.871	-0.207	0.060
-272.370	86.981	-0.244	-0.268
-271.355	24.314	-0.017	-0.014
-270.340	-200.000	0.013	0.077
-269.326	17.173	0.255	0.201
-268.311	-5.809	0.095	-0.065
-267.297	10.173	0.292	-0.221
-266.282	-200.000	0.003	-0.253
-265.267	-200.000	-0.050	0.248
-264.253	-79.936	0.102	-0.034
-263.238	-72.639	0.184	-0.067
-262.224	236.402	0.076	-0.124
-261.209	-200.000	-0.063	-0.441
-260.195	224.583	-0.152	0.244
-259.180	214.972	-0.291	0.458
-258.165	-99.661	0.238	-0.059
-257.151	40.789	-0.106	-0.095
-256.136	-200.000	-0.038	0.213
-255.122	-99.431	0.155	0.039
-254.107	115.174	0.227	0.275
-253.092	-0.232	0.092	0.065
-252.078	-200.000	0.003	0.064
-251.063	-140.743	-0.307	0.032
-250.049	242.483	-0.175	-0.291
-249.034	-110.488	0.121	-0.025
-248.019	81.463	-0.112	-0.121
-247.005	-30.283	-0.128	-0.072
-245.990	132.224	-0.026	-0.033
-244.976	131.019	-0.081	-0.104
-243.961	-131.924	0.300	0.039
-242.946	204.340	0.123	-0.190
-241.932	-200.000	-0.029	-0.320
-240.917	347.184	-0.229	0.448
-239.903	-200.000	-0.058	0.307
-238.888	-24.708	0.107	0.063
-237.873	-81.920	0.115	-0.037
-236.859	537.265	-0.170	0.401
-235.844	-109.248	-0.238	-0.050
-234.830	60.196	0.182	-0.179
-233.815	119.294	0.246	-0.302
-232.800	-115.140	0.094	-0.018
-231.786	-200.000	-0.001	-0.025
-230.771	421.661	-0.190	0.405
-229.757	158.580	0.093	-0.128
-228.742	800.000	0.060	0.222
-227.727	-183.383	0.388	0.007
-226.713	38.545	0.159	0.141
-225.698	-179.303	0.055	0.001
-224.684	106.887	0.144	-0.170
-223.669	250.060	-0.161	0.272
-222.655	109.073	0.223	-0.265
-221.640	-96.200	0.125	-0.033
-220.625	157.006	-0.107	0.147
-219.611	-40.055	-0.052	0.027
-218.596	800.000	0.020	-0.066
-217.582	-77.252	0.057	0.020
-216.567	-200.000	-0.054	0.306
-215.552	-134.564	-0.259	0.031
-214.538	427.618	0.078	0.168
-213.523	-82.648	-0.308	-0.099
-212.509	-75.554	-0.056	-0.020
-211.494	-200.000	0.002	-0.097
-210.479	-122.293	0.281	0.046
-209.465	-200.000	0.012	-0.120
-208.450	-200.000	-0.002	-0.034
-207.436	-9.983	-0.137	-0.090
-206.421	800.000	0.118	-0.343
-205.406	-62.330	-0.170	0.070
-204.392	800.000	-0.049	-0.167
-203.377	-47.509	-0.384	-0.185
-202.363	-200.000	-0.016	0.184
-201.348	11.312	0.308	0.234
-200.333	52.171	-0.049	-0.046
-199.319	218.954	0.112	0.177
-198.304	-143.781	-0.397	-0.037
-197.290	11.733	-0.267	0.203
-196.275	461.010	-0.090	0.200
-195.260	198.825	-0.098	0.149
-194.246	-144.052	-0.277	0.026
-193.231	123.127	-0.038	-0.048
-192.217	-200.000	0.026	0.227
-191.202	800.000	0.088	0.345
-190.187	-10.513	0.252	-0.165
-189.173	286.989	-0.050	-0.089
-188.158	170.085	0.155	0.220
-187.144	157.970	0.076	-0.105
-186.129	-200.000	-0.044	-0.263
-185.114	800.000	0.062	0.171
-184.100	138.022	0.207	0.269
-183.085	90.690	-0.225	-0.250
-182.071	-90.331	0.227	0.065
-181.056	-32.047	0.209	0.116
-180.042	-33.386	0.316	-0.173
-179.027	-96.834	0.306	-0.080
-178.012	245.375	-0.161	-0.269
-176.998	223.807	0.142	-0.227
-175.983	-200.000	0.020	0.091
-174.969	95.425	0.244	0.275
-173.954	-84.622	0.269	0.084
-172.939	-36.470	0.081	-0.043
-171.925	148.919	0.083	-0.111
-170.910	278.200	0.031	0.054
-169.896	-99.366	0.092	0.023
-168.881	-60.936	0.103	-0.043
-167.866	350.806	0.037	0.072
-166.852	53.189	0.286	0.271
-165.837	-85.320	-0.048	0.015
-164.823	-2.843	-0.105	0.072
-163.808	-8.605	0.105	0.070
-162.793	7.179	0.337	-0.249
-161.779	34.759	0.327	-0.283
-160.764	-49.680	0.127	0.060
-159.750	-92.823	-0.104	-0.029
-158.735	226.706	-0.067	0.108
-157.720	800.000	-0.037	-0.118
-156.706	-12.305	-0.293	0.190
-155.691	-148.316	0.153	0.012
-154.677	-13.138	-0.183	0.118
-153.662	-200.000	0.029	0.146
-152.647	-52.579	0.351	0.160
-151.633	356.035	-0.084	-0.165
-150.618	-169.617	-0.434	0.016
-149.604	-187.620	-0.228	-0.003
-148.589	-200.000	-0.017	-0.111
-147.574	-32.421	-0.260	0.143
-146.560	211.311	0.001	0.002
-145.545	167.322	-0.122	0.171
-144.531	264.684	-0.127	0.220
-143.516	-35.537	0.247	-0.133
-142.502	-200.000	0.017	0.103
-141.487	108.098	-0.100	0.118
-140.472	-153.997	-0.071	0.005
-139.458	585.586	0.023	0.056
-138.443	109.497	0.107	0.127
-137.429	506.904	-0.130	0.298
-136.414	800.000	0.060	0.209
-135.399	-38.841	-0.228	-0.119
-134.385	247.058	0.025	0.042
-133.370	175.874	-0.117	0.168
-132.356	164.319	-0.103	0.143
-131.341	-124.897	-0.151	0.023
-130.326	58.625	-0.047	0.045
-129.312	-200.000	-0.049	-0.333
-128.297	-186.051	-0.165	0.002
-127.283	400.975	-0.105	0.217
-126.268	-136.610	-0.153	-0.017
-125.253	800.000	0.088	0.286
-124.239	-200.000	0.004	-0.030
-123.224	329.244	0.077	0.146
-122.210	-136.698	-0.069	0.008
-121.195	-21.172	0.167	0.101
-120.180	800.000	-0.027	0.093
-119.166	-22.165	-0.247	0.148
-118.151	-200.000	0.027	-0.157
-117.137	-107.411	-0.290	0.063
-116.122	-82.157	-0.161	0.052
-115.107	605.592	0.112	-0.276
-114.093	-47.205	-0.211	-0.102
-113.078	457.517	0.099	-0.218
-112.064	-35.948	-0.154	0.082
-111.049	-200.000	0.031	0.159
-110.034	-160.857	0.051	-0.003
-109.020	-200.000	0.025	-0.161
-108.005	-200.000	0.046	-0.201
-106.991	-66.504	0.329	0.129
-105.976	87.701	-0.089	0.098
-104.962	-39.999	-0.169	-0.087
-103.947	678.882	0.051	0.130
-102.932	154.343	-0.285	0.387
-101.918	23.462	-0.227	0.185
-100.903	800.000	-0.027	0.079
-99.889	-200.000	0.000	0.102
-98.874	-200.000	0.003	-0.352
-97.859	-41.291	-0.211	-0.107
-96.845	207.259	0.033	0.050
-95.830	59.793	0.036	-0.035
-94.816	22.416	-0.040	-0.032
-93.801	42.071	0.138	-0.124
-92.786	36.378	0.129	-0.112
-91.772	-93.743	0.331	-0.090
-90.757	-46.490	-0.480	-0.233
-89.743	-73.285	-0.252	-0.091
-88.728	-125.535	-0.535	0.080
-87.713	24.424	-0.205	-0.167
-86.699	800.000	0.050	0.157
-85.684	750.301	0.068	-0.182
-84.670	-64.033	0.022	0.009
-83.655	58.573	0.344	-0.334
-82.640	800.000	0.027	0.103
-81.626	-92.587	-0.108	-0.030
-80.611	800.000	-0.085	0.234
-79.597	-200.000	-0.011	0.130
-78.582	-72.338	0.446	-0.163
-77.567	800.000	-0.219	0.647
-76.553	81.022	0.172	0.183
-75.538	-142.261	0.335	0.033
-74.524	-200.000	0.022	-0.116
-73.509	-16.323	-0.123	0.077
-72.494	51.823	0.082	-0.077
-71.480	282.200	-0.089	-0.158
-70.465	101.261	-0.062	-0.071
-69.451	-23.835	-0.061	-0.036
-68.436	-6.248	-0.275	-0.186
-67.422	-59.678	-0.088	0.037
-66.407	-101.157	-0.342	-0.082
-65.392	-97.218	0.359	-0.092
-64.378	-22.732	0.264	0.157
-63.363	432.947	0.138	-0.296
-62.349	-17.428	0.312	0.194
-61.334	-71.587	-0.883	-0.326
-60.319	133.502	0.504	0.643
-59.305	-200.000	-0.102	-0.961
-58.290	117.834	0.660	0.801
-57.276	-200.000	0.344	2.077
-56.261	-200.000	97.460	572.266
-55.246	627.627	1403.916	3497.692
-54.232	185.237	2621.445	3837.686
-53.217	114.037	2312.553	2774.274
-52.203	43.639	1923.383	1735.474
-51.188	37.334	1710.394	1494.912
-50.173	34.573	1665.660	1435.034
-49.159	51.396	1713.854	1605.214
-48.144	54.594	1730.855	1645.439
-47.130	37.000	1688.060	1472.627
-46.115	34.160	1672.510	1437.584
-45.100	33.973	1667.942	1432.198
-44.086	34.055	1664.546	1429.837
-43.071	33.971	1662.362	1427.274
-42.057	34.086	1659.482	1425.609
-41.042	33.971	1657.718	1423.172
-40.027	33.983	1656.042	1421.767
-39.013	34.033	1653.855	1420.213
-37.998	34.070	1652.016	1418.850
-36.984	34.054	1650.644	1417.492
-35.969	34.203	1649.147	1417.263
-34.954	34.148	1647.688	1415.542
-33.940	34.173	1645.826	1414.077
-32.925	34.088	1643.864	1411.702
-31.911	34.035	1642.461	1410.048
-30.896	34.010	1641.152	1408.681
-29.881	34.164	1638.476	1407.466
-28.867	34.118	1637.371	1406.121
-27.852	34.190	1635.650	1405.119
-26.838	34.110	1634.039	1403.089
-25.823	34.126	1632.829	1402.113
-24.809	34.217	1631.324	1401.439
-23.794	34.147	1629.974	1399.705
-22.779	34.177	1628.440	1398.553
-21.765	34.140	1626.737	1396.763
-20.750	34.109	1624.942	1394.940
-19.736	34.254	1623.620	1394.815
-18.721	34.272	1622.087	1393.575
-17.706	34.150	1620.836	1391.547
-16.692	34.164	1619.379	1390.346
-15.677	34.144	1617.648	1388.661
-14.663	34.190	1616.612	1388.048
-13.648	34.211	1614.790	1386.584
-12.633	34.160	1613.546	1385.089
-11.619	34.269	1611.814	1384.338
-10.604	34.201	1610.421	1382.598
-9.590	34.207	1608.959	1381.329
-8.575	34.084	1608.181	1379.714
-7.560	34.129	1606.694	1378.708
-6.546	34.135	1605.362	1377.555
-5.531	34.152	1604.490	1376.877
-4.517	34.199	1603.076	1375.943
-3.502	34.078	1602.183	1374.253
-2.487	34.151	1600.475	1373.258
-1.473	34.030	1589.413	1362.843
-0.458	31.228	1569.844	1326.147
0.556	26.689	1569.307	1293.113
1.571	24.187	1593.895	1295.093
2.586	23.632	1607.131	1301.664
3.600	21.042	1554.952	1240.889
4.615	13.094	1445.169	1100.415
5.629	6.200	1381.285	1007.634
6.644	5.070	1372.863	994.204
7.659	5.015	1371.613	992.862
8.673	4.931	1370.579	991.489
9.688	4.983	1368.409	990.163
10.702	4.814	1365.849	987.149
11.717	8.141	1372.833	1013.280
12.731	15.890	1386.181	1072.585
13.746	19.679	1392.094	1101.264
14.761	18.622	1388.779	1091.818
15.775	17.505	1386.147	1082.555
16.790	16.447	1383.200	1073.440
17.804	15.660	1380.945	1066.606
18.819	15.336	1379.239	1063.137
19.834	15.027	1377.469	1059.721
20.848	14.773	1376.833	1057.536
21.863	14.483	1375.544	1054.614
22.877	14.223	1374.608	1052.161
23.892	14.353	1373.572	1052.095
24.907	14.264	1372.616	1050.710
25.921	14.272	1372.152	1050.310
26.936	14.304	1370.962	1049.511
27.950	14.397	1369.832	1049.139
28.965	14.489	1369.103	1049.064
29.980	14.568	1367.535	1048.270
30.994	14.514	1366.850	1047.309
32.009	14.686	1365.367	1047.162
33.023	14.663	1363.735	1045.668
34.038	14.559	1362.630	1044.080
35.053	14.571	1361.157	1042.936
36.067	14.453	1360.248	1041.410
37.082	14.539	1359.393	1041.198
38.096	14.505	1358.419	1040.147
39.111	14.573	1357.599	1039.850
40.126	14.444	1357.119	1038.591
41.140	14.310	1356.208	1036.969
42.155	14.227	1355.659	1035.939
43.169	14.233	1355.191	1035.526
44.184	14.186	1354.895	1034.917
45.199	14.254	1354.197	1034.713
46.213	14.384	1353.369	1034.798
47.228	14.342	1353.121	1034.256
48.242	14.419	1351.423	1033.344
49.257	14.471	1350.215	1032.652
50.271	14.402	1348.646	1030.932
51.286	14.373	1347.504	1029.786
52.301	14.406	1346.032	1028.774
53.315	14.311	1345.026	1027.333
54.330	14.318	1343.875	1026.403
55.344	14.271	1342.722	1025.143
56.359	14.238	1341.790	1024.138
57.374	14.290	1340.615	1023.468
58.388	14.277	1340.124	1022.923
59.403	14.145	1339.849	1021.811
60.417	14.216	1338.582	1021.191
61.432	14.245	1337.521	1020.472
62.447	14.051	1337.038	1018.819
63.461	14.103	1335.196	1017.649
64.476	14.071	1334.769	1017.037
65.490	14.159	1333.407	1016.447
66.505	14.198	1331.743	1015.325
67.520	14.196	1330.677	1014.409
68.534	14.171	1329.877	1013.557
69.549	14.172	1329.222	1012.973
70.563	14.139	1327.796	1011.599
71.578	14.028	1326.955	1010.191
72.593	13.954	1325.927	1008.870
73.607	14.037	1324.687	1008.340
74.622	14.004	1323.924	1007.473
75.636	14.067	1323.533	1007.466
76.651	14.018	1323.132	1006.774
77.666	14.073	1322.412	1006.475
78.680	14.027	1321.926	1005.734
79.695	14.164	1321.130	1005.869
80.709	14.080	1320.638	1004.899
81.724	14.203	1319.584	1004.748
82.739	14.337	1318.373	1004.547
83.753	14.374	1317.671	1004.148
84.768	14.438	1316.916	1003.865
85.782	14.487	1315.347	1002.877
86.797	14.481	1314.273	1001.933
87.812	14.387	1313.442	1000.646
88.826	14.339	1312.311	999.406
89.841	14.420	1311.177	998.945
90.855	14.395	1310.401	998.111
91.870	14.432	1309.335	997.433
92.884	14.495	1308.547	997.121
93.899	14.416	1307.507	995.767
94.914	14.530	1306.888	995.891
95.928	14.499	1306.063	994.988
96.943	14.558	1305.346	994.707
97.957	14.496	1304.027	993.245
98.972	14.489	1302.934	992.282
99.987	14.493	1302.037	991.533
101.001	14.513	1300.814	990.632
102.016	14.411	1300.343	989.584
103.030	14.486	1299.485	989.287
104.045	14.386	1298.330	987.727
105.060	14.578	1296.766	987.589
106.074	14.415	1295.538	985.600
107.089	14.225	1294.518	983.617
108.103	14.161	1293.023	982.016
109.118	14.165	1291.971	981.148
110.133	14.239	1289.859	979.896
111.147	14.173	1288.789	978.611
112.162	14.227	1288.048	978.277
113.176	14.247	1286.805	977.362
114.191	14.426	1285.336	977.210
115.206	14.225	1284.468	975.287
116.220	14.285	1282.965	974.410
117.235	14.349	1282.093	974.037
118.249	14.240	1281.043	972.516
119.264	14.138	1280.067	971.093
120.279	14.114	1278.872	969.961
121.293	14.163	1277.920	969.436
122.308	14.156	1276.779	968.449
123.322	14.256	1275.491	967.966
124.337	14.196	1274.347	966.664
125.352	14.140	1273.406	965.539
126.366	14.127	1272.374	964.594
127.381	14.168	1271.254	963.896
128.395	14.083	1270.518	962.760
129.410	14.240	1269.323	962.683
130.424	14.280	1268.789	962.419
131.439	14.280	1267.225	961.150
132.454	14.232	1266.920	960.557
133.468	14.384	1266.028	960.672
134.483	14.325	1265.185	959.607
135.497	14.350	1264.209	958.925
136.512	14.227	1263.006	957.220
137.527	14.289	1261.609	956.436
138.541	14.283	1260.463	955.446
139.556	14.316	1259.207	954.597
140.570	14.467	1258.358	954.735
141.585	14.601	1256.403	953.935
142.600	14.452	1255.980	952.677
143.614	14.581	1254.992	952.578
144.629	14.527	1253.529	951.075
145.643	14.556	1252.588	950.443
146.658	14.502	1251.015	948.861
147.673	14.383	1249.907	947.259
148.687	14.400	1248.934	946.532
149.702	14.257	1247.897	944.854
150.716	14.335	1246.008	943.779
151.731	14.307	1245.445	943.114
152.746	14.242	1243.922	941.506
153.760	14.366	1242.728	941.220
154.775	14.507	1241.297	940.849
155.789	14.537	1240.502	940.334
156.804	14.492	1239.214	939.022
157.819	14.523	1238.590	938.638
158.833	14.644	1237.453	938.373
159.848	14.695	1236.859	938.129
160.862	14.688	1235.969	937.329
161.877	14.698	1234.462	936.160
162.892	14.502	1233.696	934.402
163.906	14.485	1232.666	933.442
164.921	14.556	1231.388	932.789
165.935	14.529	1231.163	932.382
166.950	14.546	1230.343	931.777
167.964	14.590	1229.223	931.092
168.979	14.505	1228.940	930.320
169.994	14.595	1228.069	930.080
171.008	14.641	1226.915	929.377
172.023	14.523	1226.970	928.679
173.037	14.665	1226.013	928.664
174.052	14.592	1225.071	927.464
175.067	14.606	1223.929	926.593
176.081	14.545	1222.914	925.408
177.096	14.552	1221.974	924.652
178.110	14.630	1221.161	924.384
179.125	14.681	1219.354	923.218
180.140	14.611	1218.563	922.153
181.154	14.636	1217.288	921.240
182.169	14.684	1216.302	920.680
183.183	14.610	1215.283	919.419
184.198	14.856	1213.474	919.322
185.213	14.788	1212.738	918.312
186.227	14.924	1211.242	917.840
187.242	14.890	1210.236	916.815
188.256	14.833	1210.077	916.301
189.271	14.921	1208.782	915.717
190.286	14.757	1207.733	913.947
191.300	14.566	1206.369	911.789
192.315	14.416	1205.899	910.535
193.329	14.516	1205.504	910.700
194.344	14.611	1204.829	910.629
195.359	14.592	1204.482	910.180
196.373	14.763	1203.723	910.459
197.388	14.948	1203.057	910.883
198.402	14.962	1202.780	910.669
199.417	15.051	1202.063	910.532
200.432	14.982	1201.223	909.438
201.446	15.056	1200.486	909.201
202.461	15.211	1199.003	908.839
203.475	15.171	1198.179	907.918
204.490	15.027	1197.299	906.388
205.504	15.177	1195.360	905.655
206.519	14.991	1194.634	904.015
207.534	15.074	1193.375	903.431
208.548	15.023	1192.558	902.458
209.563	15.030	1191.892	901.911
210.577	14.996	1191.091	901.047
211.592	15.061	1189.861	900.383
212.607	15.235	1189.133	900.690
213.621	15.293	1188.203	900.217
214.636	15.193	1187.254	898.879
215.650	15.133	1186.708	898.069
216.665	15.113	1185.498	896.966
217.680	15.198	1184.864	896.858
218.694	15.269	1183.992	896.498
219.709	15.369	1183.194	896.349
220.723	15.263	1182.408	895.110
221.738	15.436	1181.082	894.947
222.753	15.197	1181.324	893.778
223.767	15.304	1180.408	893.575
224.782	15.363	1179.599	893.199
225.796	15.527	1178.654	893.280
226.811	15.488	1177.852	892.385
227.826	15.371	1177.085	891.099
228.840	15.442	1176.123	890.669
229.855	15.405	1175.646	890.033
230.869	15.381	1174.994	889.337
231.884	15.355	1174.108	888.448
232.899	15.278	1173.371	887.406
233.913	15.266	1172.631	886.704
234.928	15.376	1171.662	886.472
235.942	15.328	1171.025	885.658
236.957	15.180	1170.543	884.435
237.972	15.228	1169.738	884.004
238.986	15.344	1169.041	884.007
240.001	15.292	1168.678	883.381
241.015	15.356	1167.142	882.477
242.030	15.391	1166.666	882.224
243.045	15.503	1165.590	881.921
244.059	15.533	1165.092	881.626
245.074	15.532	1164.265	880.917
246.088	15.602	1163.233	880.423
247.103	15.614	1162.967	880.209
248.117	15.616	1162.247	879.594
249.132	15.727	1161.487	879.525
250.147	15.732	1161.007	879.106
251.161	15.851	1159.611	878.594
252.176	15.838	1159.555	878.406
253.190	15.857	1158.937	877.960
254.205	15.936	1158.304	877.811
255.220	16.025	1157.654	877.706
256.234	16.065	1156.791	877.185
257.249	15.938	1156.310	876.082
258.263	15.950	1155.450	875.413
259.278	15.962	1155.067	875.106
260.293	15.947	1154.633	874.626
261.307	16.074	1153.986	874.717
262.322	15.948	1153.552	873.654
263.336	16.053	1152.525	873.345
264.351	16.124	1151.921	873.177
265.366	16.088	1151.085	872.280
266.380	16.233	1150.093	872.202
267.395	16.120	1149.754	871.283
268.409	16.141	1148.586	870.430
269.424	16.079	1147.957	869.554
270.439	16.159	1147.388	869.458
271.453	16.112	1146.604	868.547
272.468	16.004	1145.875	867.360
273.482	16.123	1145.021	867.251
274.497	16.083	1144.822	866.819
275.512	16.087	1143.513	865.770
276.526	16.114	1142.539	865.096
277.541	16.080	1142.187	864.574
278.555	16.064	1141.351	863.786
279.570	16.235	1140.780	864.151
280.585	16.316	1139.746	863.706
281.599	16.292	1139.115	863.030
282.614	16.179	1138.271	861.736
283.628	16.224	1136.844	860.808
284.643	16.126	1136.354	859.863
285.657	16.197	1135.792	859.725
286.672	16.179	1134.778	858.788
287.687	16.297	1133.897	858.644
288.701	16.378	1132.688	858.068
289.716	16.223	1132.467	857.035
290.730	16.290	1131.207	856.344
291.745	16.400	1130.606	856.375
292.760	16.434	1129.943	855.969
293.774	16.429	1129.394	855.448
294.789	16.540	1128.881	855.549
295.803	16.448	1128.687	854.861
296.818	16.427	1127.755	853.971
297.833	16.433	1126.893	853.274
298.847	16.449	1126.027	852.624
299.862	16.573	1124.516	852.030
300.876	16.444	1124.491	851.286
301.891	16.526	1124.160	851.370
302.906	16.544	1123.497	850.884
303.920	16.573	1122.844	850.461
304.935	16.664	1122.391	850.500
305.949	16.721	1121.591	850.106
306.964	16.671	1120.628	849.046
307.979	16.600	1119.708	847.918
308.993	16.699	1119.040	847.834
310.008	16.697	1118.264	847.162
311.022	16.830	1117.348	847.056
312.037	16.730	1116.950	846.183
313.052	16.635	1115.877	844.821
314.066	16.659	1114.977	844.181
315.081	16.506	1114.205	842.760
316.095	16.606	1113.423	842.591
317.110	16.580	1112.725	841.862
318.125	16.737	1111.952	841.984
319.139	16.674	1111.340	841.130
320.154	16.597	1110.774	840.244
321.168	16.555	1110.198	839.530
322.183	16.678	1109.409	839.465
323.197	16.723	1109.118	839.395
324.212	16.705	1108.543	838.798
325.227	16.643	1107.991	838.000
326.241	16.688	1107.266	837.600
327.256	16.758	1106.149	837.023
328.270	16.610	1105.220	835.519
329.285	16.757	1104.412	835.556
330.300	16.680	1103.553	834.454
331.314	16.670	1102.640	833.642
332.329	16.772	1101.598	833.283
333.343	16.763	1100.932	832.658
334.358	16.866	1099.927	832.330
335.373	16.884	1099.565	832.070
336.387	16.917	1098.655	831.472
337.402	16.932	1097.463	830.569
338.416	16.923	1097.168	830.231
339.431	16.921	1096.548	829.677
340.446	17.062	1095.754	829.694
341.460	17.132	1094.615	829.096
342.475	17.148	1094.427	828.959
343.489	17.061	1093.601	827.835
344.504	17.274	1092.221	827.755
345.519	17.204	1091.340	826.676
346.533	17.318	1090.363	826.414
347.548	17.272	1090.416	826.160
348.562	17.274	1089.393	825.318
349.577	17.275	1088.324	824.442
350.592	17.281	1087.208	823.552
351.606	17.122	1086.743	822.360
352.621	17.049	1086.584	821.814
353.635	17.081	1085.730	821.247
354.650	17.065	1085.302	820.772
355.665	17.079	1084.481	820.146
356.679	17.155	1083.878	819.984
357.694	17.281	1082.822	819.724
358.708	17.264	1082.779	819.535
359.723	17.345	1081.905	819.192
360.738	17.253	1081.238	818.171
361.752	17.297	1080.406	817.680
362.767	17.272	1079.909	817.113
363.781	17.211	1079.660	816.560
364.796	17.358	1078.784	816.529
365.810	17.455	1078.500	816.706
366.825	17.415	1077.936	816.015
367.840	17.558	1077.400	816.222
368.854	17.571	1076.562	815.577
369.869	17.523	1075.900	814.775
370.883	17.640	1074.763	814.402
371.898	17.596	1074.150	813.654
372.913	17.527	1073.575	812.819
373.927	17.672	1072.694	812.770
374.942	17.673	1072.123	812.272
375.956	17.616	1072.011	811.841
376.971	17.569	1071.292	811.003
377.986	17.717	1071.160	811.537
379.000	17.736	1070.599	811.130
380.015	17.767	1069.775	810.580
381.029	17.817	1069.592	810.608
382.044	17.784	1068.671	809.679
383.059	17.788	1067.918	809.057
384.073	17.768	1066.761	808.013
385.088	17.870	1065.819	807.712
386.102	17.931	1064.860	807.204
387.117	17.821	1063.932	805.906
388.132	17.774	1063.014	804.921
389.146	17.746	1062.342	804.206
390.161	17.691	1061.919	803.558
391.175	17.652	1061.016	802.620
392.190	17.763	1060.591	802.748
393.205	17.910	1059.592	802.612
394.219	17.962	1058.862	802.233
395.234	17.802	1057.834	800.633
396.248	17.761	1057.296	799.964
397.263	17.755	1056.117	798.970
398.278	17.777	1055.321	798.402
399.292	17.707	1054.698	797.533
400.307	17.669	1054.107	796.835
401.321	17.790	1053.368	796.774
402.336	17.842	1052.359	796.182
403.350	17.815	1051.813	795.575
404.365	17.945	1051.010	795.499
405.380	17.915	1050.260	794.724
406.394	17.918	1049.850	794.357
407.409	18.006	1048.976	794.031
408.423	18.084	1048.268	793.791
409.438	18.113	1047.930	793.599
410.453	18.004	1047.290	792.536
411.467	18.138	1046.751	792.682
412.482	18.263	1046.076	792.678
413.496	18.239	1045.141	791.787
414.511	18.348	1044.941	792.074
415.526	18.340	1044.330	791.500
416.540	18.356	1043.822	791.118
417.555	18.374	1043.479	790.871
418.569	18.315	1042.779	790.002
419.584	18.253	1042.579	789.493
420.599	18.238	1041.993	788.911
421.613	147.743	1400.234	1790.143
422.628	135.127	1452.409	1790.257
