DTS Sentinel unit serial number:	SN413079Multiplexer serial number:	ORYXHardware model number:	OX4-SRSoftware version number:	ORYX F/W v4.00 Oryx Data Collector v3.7.2.0data status	okinstallation	princeton_trtdifferential loss correction	single-endedforward channel	channel 2reverse channel	N/Adate	2019/09/15time	02:11:35forward acquisition time	60.00reverse acquisition time	0.00gamma	496.2192k internal	0.2325k external	0.2325temperature offset calibration	1.0033default loss term (dB/km)	0.3790temperature slope calibration	1.0000multiplexer offset coefficient	1.0000multiplexer slope coefficient	1.0000fibre end	0.00T internal ref (°C)	31.69T ext. ref 1 (°C)	4.55T ext. ref 2 (°C)	26.30length (m)	temperature (°C)	Stokes	anti-Stokes-747.200	206.838	-0.186	0.293
-746.185	-125.400	0.133	0.020
-745.171	-200.000	0.007	-0.157
-744.156	170.412	0.134	-0.193
-743.142	-57.369	0.291	-0.129
-742.127	800.000	0.124	0.357
-741.112	-33.605	0.172	0.096
-740.098	-170.035	-0.365	-0.013
-739.083	30.269	-0.178	-0.154
-738.069	-173.321	-0.182	0.006
-737.054	800.000	0.067	-0.247
-736.039	41.845	-0.189	0.173
-735.025	3.519	-0.250	0.184
-734.010	-50.900	0.134	-0.063
-732.996	-77.505	-0.044	-0.015
-731.981	-194.948	0.065	-0.001
-730.966	-20.723	-0.047	0.029
-729.952	-39.950	-0.237	0.125
-728.937	-200.000	-0.005	-0.280
-727.923	-200.000	0.072	-0.350
-726.908	-200.000	0.004	-0.154
-725.894	-49.321	-0.291	0.140
-724.879	96.182	0.194	-0.224
-723.864	-69.678	-0.158	-0.061
-722.850	800.000	0.107	-0.465
-721.835	-99.284	-0.215	0.055
-720.821	254.776	0.185	-0.319
-719.806	800.000	0.056	-0.181
-718.791	-200.000	0.032	-0.217
-717.777	-200.000	0.024	-0.204
-716.762	-129.834	-0.265	-0.037
-715.748	23.098	-0.178	-0.147
-714.733	-174.153	-0.048	-0.001
-713.718	-18.219	-0.121	0.076
-712.704	5.488	-0.026	-0.020
-711.689	123.224	0.216	-0.273
-710.675	-118.840	-0.146	0.026
-709.660	-131.007	0.098	0.013
-708.645	-200.000	0.011	-0.100
-707.631	-118.534	0.151	0.027
-706.616	324.177	0.035	0.068
-705.602	-60.049	-0.193	-0.083
-704.587	17.035	0.181	-0.145
-703.572	800.000	0.069	-0.296
-702.558	-92.538	0.128	-0.036
-701.543	-119.001	0.093	0.016
-700.529	331.070	-0.068	-0.133
-699.514	-140.518	-0.232	-0.024
-698.499	785.470	0.090	0.249
-697.485	64.553	-0.270	-0.274
-696.470	-200.000	-0.018	-0.110
-695.456	-200.000	0.002	-0.015
-694.441	-200.000	0.019	-0.355
-693.426	680.769	0.043	-0.112
-692.412	407.765	-0.081	0.172
-691.397	143.354	0.199	-0.267
-690.383	-200.000	0.032	-0.155
-689.368	67.966	-0.079	-0.081
-688.354	381.621	-0.018	-0.037
-687.339	65.549	-0.155	0.158
-686.324	133.430	0.081	0.106
-685.310	-120.188	-0.041	-0.007
-684.295	-105.384	0.092	0.021
-683.281	161.136	-0.055	-0.078
-682.266	95.251	-0.088	-0.101
-681.251	16.884	-0.136	-0.108
-680.237	-200.000	-0.037	-0.259
-679.222	-16.224	0.246	-0.157
-678.208	162.974	-0.098	-0.138
-677.193	-200.000	0.003	0.057
-676.178	-200.000	-0.010	0.059
-675.164	350.143	0.106	-0.211
-674.149	-200.000	-0.005	-0.293
-673.135	800.000	0.125	-0.353
-672.120	180.200	-0.061	-0.090
-671.105	-57.662	0.159	0.070
-670.091	-200.000	-0.043	0.464
-669.076	323.317	-0.129	-0.247
-668.062	176.506	-0.110	-0.161
-667.047	800.000	-0.068	-0.291
-666.032	-52.363	-0.253	-0.118
-665.018	-200.000	0.002	0.091
-664.003	-111.917	-0.129	0.026
-662.989	-200.000	0.002	-0.192
-661.974	-187.930	-0.415	-0.005
-660.959	303.467	-0.117	0.218
-659.945	-109.228	0.155	0.033
-658.930	49.905	-0.153	-0.145
-657.916	-33.832	-0.138	0.076
-656.901	680.209	-0.088	-0.231
-655.886	-200.000	-0.012	0.252
-654.872	-200.000	-0.006	-0.123
-653.857	82.608	-0.211	-0.230
-652.843	3.268	-0.193	0.141
-651.828	5.540	0.298	0.221
-650.814	124.635	-0.235	0.298
-649.799	327.526	-0.130	-0.251
-648.784	-107.763	0.115	-0.025
-647.770	-200.000	0.047	-0.296
-646.755	-15.201	-0.203	-0.131
-645.741	-200.000	0.049	-0.434
-644.726	22.743	-0.043	0.035
-643.711	-6.270	-0.277	0.190
-642.697	-129.395	-0.049	-0.007
-641.682	800.000	0.027	-0.091
-640.668	17.839	-0.293	-0.234
-639.653	271.870	0.041	-0.073
-638.638	-200.000	0.058	0.314
-637.624	-110.049	-0.145	0.030
-636.609	107.895	-0.111	0.133
-635.595	-95.836	-0.230	-0.062
-634.580	-45.447	-0.121	0.060
-633.565	-200.000	-0.034	0.255
-632.551	-200.000	0.054	0.289
-631.536	37.518	-0.258	0.230
-630.522	3.637	0.205	-0.150
-629.507	77.126	0.016	-0.017
-628.492	-192.386	-0.183	0.002
-627.478	10.349	0.050	-0.038
-626.463	-200.000	0.027	0.356
-625.449	285.209	-0.174	-0.315
-624.434	-95.824	-0.165	-0.044
-623.419	505.609	-0.114	0.266
-622.405	44.678	0.096	-0.088
-621.390	-158.794	0.112	-0.006
-620.376	-13.914	-0.319	-0.207
-619.361	26.391	0.136	-0.114
-618.346	454.500	-0.151	-0.336
-617.332	-107.318	0.184	0.041
-616.317	209.902	-0.198	0.312
-615.303	-39.401	0.111	0.059
-614.288	-200.000	0.010	0.073
-613.273	800.000	-0.055	-0.179
-612.259	354.897	-0.132	-0.263
-611.244	-113.000	0.024	-0.005
-610.230	323.504	-0.144	-0.275
-609.215	151.987	0.103	-0.141
-608.201	-165.384	0.322	-0.014
-607.186	-80.583	-0.033	-0.011
-606.171	-117.494	-0.108	0.020
-605.157	261.952	0.185	0.322
-604.142	800.000	0.062	0.204
-603.128	171.360	0.069	0.100
-602.113	-200.000	-0.003	-0.486
-601.098	-200.000	-0.050	-0.321
-600.084	534.908	0.158	-0.375
-599.069	630.425	-0.047	-0.121
-598.055	-179.933	0.101	0.002
-597.040	584.506	-0.042	0.104
-596.025	416.462	0.116	0.247
-595.011	-200.000	0.049	-0.302
-593.996	-87.616	0.599	-0.181
-592.982	-37.364	-0.324	-0.174
-591.967	-137.578	0.091	-0.010
-590.952	-71.841	-0.211	-0.079
-589.938	302.104	-0.075	0.139
-588.923	-200.000	0.023	0.137
-587.909	10.615	0.083	0.063
-586.894	-168.425	-0.384	-0.015
-585.879	-101.565	0.546	-0.133
-584.865	-200.000	-0.014	-0.079
-583.850	800.000	0.040	-0.112
-582.836	255.711	-0.172	-0.296
-581.821	800.000	-0.085	-0.244
-580.806	146.044	0.349	-0.469
-579.792	800.000	0.028	0.106
-578.777	-132.642	-0.273	0.035
-577.763	94.738	0.063	-0.072
-576.748	-173.855	0.353	0.010
-575.733	395.381	-0.025	-0.053
-574.719	170.113	-0.111	0.159
-573.704	-4.847	0.321	0.222
-572.690	-200.000	-0.001	-0.202
-571.675	-40.488	-0.306	-0.159
-570.661	1.160	0.239	0.172
-569.646	172.958	-0.222	-0.320
-568.631	-72.583	0.200	-0.074
-567.617	-121.346	0.218	-0.036
-566.602	-96.380	-0.116	-0.031
-565.588	-50.185	-0.379	-0.180
-564.573	-200.000	-0.006	0.163
-563.558	156.635	-0.088	0.121
-562.544	134.831	0.076	0.099
-561.529	-22.828	0.259	0.157
-560.515	-54.272	0.204	0.093
-559.500	204.867	0.130	0.202
-558.485	-56.613	-0.287	0.128
-557.471	51.688	-0.175	0.167
-556.456	-56.240	-0.066	-0.030
-555.442	-168.135	0.189	0.007
-554.427	-21.529	-0.135	0.083
-553.412	-200.000	-0.023	-0.240
-552.398	91.333	0.124	0.140
-551.383	144.191	0.160	-0.214
-550.369	-200.000	0.044	-0.208
-549.354	337.478	0.033	-0.064
-548.339	-200.000	-0.006	0.084
-547.325	465.227	0.103	0.230
-546.310	-200.000	0.017	0.226
-545.296	-168.312	0.059	-0.002
-544.281	-200.000	0.024	0.258
-543.266	34.049	0.110	0.096
-542.252	94.992	0.177	-0.201
-541.237	-91.825	0.077	-0.022
-540.223	-166.400	-0.101	-0.004
-539.208	279.577	-0.146	0.261
-538.193	17.669	-0.036	0.029
-537.179	-200.000	0.051	0.256
-536.164	-125.110	-0.240	-0.037
-535.150	-83.293	0.451	-0.145
-534.135	-48.520	-0.279	0.135
-533.121	-14.036	-0.204	0.132
-532.106	9.090	0.167	0.126
-531.091	196.228	-0.103	-0.157
-530.077	-80.180	0.082	-0.027
-529.062	800.000	-0.040	-0.165
-528.048	-200.000	0.050	-0.219
-527.033	-134.281	0.309	0.038
-526.018	-101.389	0.290	-0.071
-525.004	-120.668	-0.300	0.051
-523.989	-50.295	-0.314	0.149
-522.975	13.451	0.168	-0.130
-521.960	-200.000	0.062	0.476
-520.945	-63.449	-0.238	-0.098
-519.931	98.926	-0.207	0.239
-518.916	-200.000	0.008	-0.059
-517.902	-107.915	-0.365	0.079
-516.887	-20.558	-0.333	0.205
-515.872	800.000	0.075	0.207
-514.858	-23.725	0.218	-0.130
-513.843	-123.570	-0.462	0.073
-512.829	28.700	-0.088	-0.075
-511.814	-200.000	-0.006	-0.137
-510.799	-200.000	-0.010	-0.081
-509.785	183.689	0.070	-0.104
-508.770	375.041	-0.102	0.208
-507.756	33.807	-0.337	-0.293
-506.741	67.089	-0.008	-0.008
-505.726	86.215	-0.083	-0.092
-504.712	-47.878	-0.103	0.050
-503.697	-200.000	-0.019	0.262
-502.683	-56.846	0.280	0.124
-501.668	97.903	-0.211	-0.242
-500.653	-78.913	0.321	-0.109
-499.639	131.519	-0.096	-0.124
-498.624	-200.000	-0.042	-0.232
-497.610	73.630	-0.186	-0.195
-496.595	-200.000	-0.007	0.074
-495.581	800.000	-0.136	-0.438
-494.566	436.844	-0.109	-0.237
-493.551	-200.000	0.006	-0.083
-492.537	800.000	-0.093	0.372
-491.522	-104.312	-0.223	-0.052
-490.508	228.441	-0.084	-0.137
-489.493	-95.967	0.114	-0.030
-488.478	-47.783	-0.170	0.082
-487.464	-154.046	0.250	-0.017
-486.449	-200.000	0.008	0.048
-485.435	205.508	-0.270	-0.420
-484.420	-20.448	0.396	0.243
-483.405	-200.000	-0.002	0.011
-482.391	800.000	-0.078	-0.312
-481.376	-112.564	0.211	-0.042
-480.362	5.201	-0.272	0.200
-479.347	-23.627	0.381	0.228
-478.332	166.609	0.128	0.181
-477.318	-76.829	-0.147	-0.051
-476.303	63.237	0.135	-0.135
-475.289	7.886	-0.102	-0.077
-474.274	79.514	-0.103	0.110
-473.259	-108.671	0.188	-0.040
-472.245	236.519	0.140	0.231
-471.230	-200.000	0.013	-0.186
-470.216	23.598	-0.267	-0.219
-469.201	-15.895	0.005	0.003
-468.186	34.096	0.372	-0.324
-467.172	800.000	0.059	-0.259
-466.157	-200.000	0.022	0.323
-465.143	-42.095	0.458	0.234
-464.128	-200.000	-0.015	-0.080
-463.113	-28.131	0.077	-0.044
-462.099	81.434	-0.081	-0.087
-461.084	-165.541	0.036	0.002
-460.070	-9.396	-0.268	0.178
-459.055	-29.459	-0.296	0.169
-458.040	-187.495	-0.118	0.002
-457.026	43.174	-0.315	-0.287
-456.011	160.645	-0.015	0.021
-454.997	-45.460	-0.105	-0.052
-453.982	-200.000	0.014	-0.107
-452.968	-69.232	0.183	-0.070
-451.953	-134.811	-0.062	-0.007
-450.938	-79.302	0.314	0.106
-449.924	-3.502	-0.111	0.077
-448.909	157.967	-0.114	-0.158
-447.895	-124.149	-0.091	0.014
-446.880	14.555	0.182	-0.142
-445.865	-165.313	-0.144	-0.006
-444.851	-164.296	-0.300	-0.014
-443.836	-200.000	-0.034	0.175
-442.822	-186.892	0.510	0.007
-441.807	54.697	-0.217	0.209
-440.792	164.875	0.137	0.193
-439.778	-125.506	0.171	0.026
-438.763	50.011	-0.083	0.078
-437.749	86.800	-0.145	-0.159
-436.734	92.222	-0.137	0.154
-435.719	489.085	0.038	0.087
-434.705	-82.202	0.051	0.016
-433.690	26.244	-0.144	-0.120
-432.676	-46.580	0.193	0.095
-431.661	-200.000	-0.031	0.202
-430.646	158.158	0.103	-0.142
-429.632	-51.512	0.129	-0.060
-428.617	-155.894	-0.341	-0.022
-427.603	-98.917	-0.014	-0.003
-426.588	-96.193	0.146	0.039
-425.573	800.000	-0.083	-0.265
-424.559	-200.000	-0.037	0.162
-423.544	-5.905	0.177	0.121
-422.530	-144.658	0.268	0.025
-421.515	-200.000	-0.019	-0.168
-420.500	494.018	0.114	-0.262
-419.486	800.000	-0.080	-0.226
-418.471	25.031	0.112	0.093
-417.457	190.096	0.085	-0.127
-416.442	5.186	0.097	-0.071
-415.428	-200.000	0.022	-0.213
-414.413	-200.000	0.014	-0.298
-413.398	497.714	0.030	-0.068
-412.384	-144.702	0.487	0.045
-411.369	102.126	-0.311	-0.362
-410.355	297.883	0.268	0.490
-409.340	-200.000	-0.003	-0.126
-408.325	-130.703	-0.164	0.022
-407.311	-3.586	0.203	-0.141
-406.296	-191.198	0.241	0.002
-405.282	-200.000	-0.026	0.136
-404.267	-80.427	-0.344	0.114
-403.252	-200.000	0.007	0.202
-402.238	89.625	-0.069	-0.077
-401.223	102.164	-0.080	0.092
-400.209	147.558	0.109	0.146
-399.194	-200.000	-0.048	0.292
-398.179	-200.000	0.033	-0.263
-397.165	-56.989	0.168	0.074
-396.150	-117.194	-0.225	-0.041
-395.136	310.120	-0.085	-0.158
-394.121	-5.166	-0.244	0.167
-393.106	-200.000	-0.008	0.051
-392.092	12.567	0.179	-0.138
-391.077	-139.640	0.328	-0.035
-390.063	68.918	-0.132	-0.135
-389.048	-59.456	0.146	0.062
-388.033	800.000	0.059	0.200
-387.019	800.000	-0.078	-0.217
-386.004	-121.137	-0.163	-0.027
-384.990	-17.948	0.167	0.104
-383.975	-200.000	0.032	0.157
-382.960	-144.421	-0.184	0.017
-381.946	800.000	-0.058	-0.172
-380.931	124.696	0.118	0.148
-379.917	151.862	-0.156	0.212
-378.902	236.850	0.038	-0.063
-377.888	-200.000	0.017	0.145
-376.873	18.237	0.147	0.117
-375.858	-125.823	-0.027	-0.004
-374.844	-110.858	-0.121	0.025
-373.829	-68.298	0.124	0.048
-372.815	44.075	-0.179	-0.163
-371.800	-88.212	-0.178	0.053
-370.785	-200.000	0.023	0.169
-369.771	-200.000	-0.029	0.138
-368.756	22.618	-0.219	0.178
-367.742	208.512	0.263	-0.408
-366.727	10.172	0.134	0.101
-365.712	170.119	0.140	-0.199
-364.698	3.103	-0.098	0.071
-363.683	-200.000	-0.032	-0.305
-362.669	-53.080	0.332	-0.152
-361.654	335.805	-0.083	-0.159
-360.639	-146.706	0.087	-0.007
-359.625	380.501	0.156	-0.319
-358.610	-106.469	0.128	-0.028
-357.596	-150.308	-0.193	0.015
-356.581	576.457	-0.085	0.206
-355.566	-200.000	-0.051	0.436
-354.552	-27.369	-0.250	0.145
-353.537	666.103	-0.132	0.340
-352.523	-18.580	-0.398	-0.247
-351.508	-2.648	-0.209	-0.145
-350.493	-200.000	0.038	0.364
-349.479	-26.544	-0.160	-0.093
-348.464	12.938	-0.183	-0.140
-347.450	-97.302	0.026	-0.007
-346.435	-85.232	-0.183	0.057
-345.420	18.711	0.268	-0.213
-344.406	-200.000	0.053	-0.302
-343.391	-48.881	0.154	0.073
-342.377	280.992	0.144	0.256
-341.362	-60.069	0.176	0.075
-340.348	282.181	0.110	0.195
-339.333	-146.761	0.302	-0.026
-338.318	138.319	0.075	-0.098
-337.304	345.962	0.231	0.452
-336.289	800.000	-0.077	-0.297
-335.275	-7.596	-0.277	0.186
-334.260	-86.040	0.248	0.076
-333.245	-200.000	-0.005	-0.172
-332.231	32.797	-0.041	-0.035
-331.216	229.706	0.158	-0.257
-330.202	239.256	0.130	-0.214
-329.187	-200.000	-0.075	0.339
-328.172	800.000	0.091	-0.278
-327.158	189.861	0.021	0.031
-326.143	-80.142	-0.215	-0.072
-325.129	-200.000	0.028	0.214
-324.114	-87.018	-0.481	-0.145
-323.099	40.632	-0.178	0.159
-322.085	-200.000	0.023	-0.170
-321.070	-154.657	0.275	-0.018
-320.056	-1.452	-0.221	-0.155
-319.041	800.000	0.094	-0.289
-318.026	17.205	0.094	-0.074
-317.012	171.705	0.149	0.212
-315.997	-200.000	0.084	0.408
-314.983	119.996	-0.189	-0.232
-313.968	-44.149	-0.224	0.112
-312.953	74.730	-0.171	-0.178
-311.939	-32.190	-0.127	0.070
-310.924	-109.734	-0.259	-0.054
-309.910	343.418	-0.099	-0.192
-308.895	-131.695	0.179	0.023
-307.880	-164.957	0.267	0.012
-306.866	47.195	0.062	-0.057
-305.851	152.324	-0.037	-0.051
-304.837	47.176	0.054	-0.050
-303.822	-95.233	0.015	0.004
-302.807	800.000	-0.067	-0.239
-301.793	6.965	0.127	-0.094
-300.778	-36.934	-0.153	0.081
-299.764	657.385	-0.065	0.166
-298.749	-97.832	0.217	0.056
-297.735	800.000	0.089	-0.263
-296.720	-90.264	-0.085	-0.024
-295.705	800.000	-0.046	0.191
-294.691	-18.761	0.189	0.117
-293.676	800.000	0.057	-0.166
-292.662	-109.034	-0.027	0.006
-291.647	-200.000	0.040	0.291
-290.632	189.069	0.029	0.043
-289.618	-200.000	0.014	-0.214
-288.603	-5.696	0.204	0.138
-287.589	160.104	-0.294	0.407
-286.574	-25.915	0.140	0.082
-285.559	-168.100	0.321	-0.012
-284.545	-200.000	-0.018	0.091
-283.530	-200.000	0.015	-0.154
-282.516	800.000	-0.029	-0.096
-281.501	-67.393	-0.421	-0.164
-280.486	38.429	-0.092	0.081
-279.472	-115.502	-0.355	0.066
-278.457	636.446	-0.134	0.336
-277.443	-160.534	-0.285	0.015
-276.428	-34.347	0.114	-0.062
-275.413	800.000	-0.099	0.314
-274.399	800.000	0.037	-0.150
-273.384	-200.000	0.013	-0.372
-272.370	-200.000	-0.024	0.321
-271.355	-132.254	0.243	0.031
-270.340	-82.340	0.140	0.045
-269.326	-200.000	0.001	0.249
-268.311	-200.000	-0.014	0.135
-267.297	1.670	0.175	0.125
-266.282	40.946	-0.145	-0.129
-265.267	170.756	-0.081	0.114
-264.253	-134.989	-0.305	-0.036
-263.238	51.775	0.157	0.148
-262.224	-200.000	0.024	-0.121
-261.209	498.271	-0.131	0.298
-260.195	-130.470	0.191	0.026
-259.180	-116.384	0.043	-0.008
-258.165	301.656	-0.204	0.373
-257.151	-131.701	-0.066	0.009
-256.136	71.959	0.169	-0.174
-255.122	720.024	-0.058	-0.154
-254.107	-56.893	-0.218	0.095
-253.092	-33.476	0.321	0.176
-252.078	-157.549	0.102	0.006
-251.063	-107.738	0.381	0.082
-250.049	-101.586	-0.163	-0.039
-249.034	-200.000	-0.004	-0.033
-248.019	84.452	-0.228	-0.247
-247.005	22.613	0.174	0.141
-245.990	250.624	0.167	-0.280
-244.976	-68.514	-0.147	0.056
-243.961	39.598	0.237	0.210
-242.946	800.000	0.057	-0.203
-241.932	800.000	0.080	-0.231
-240.917	12.228	0.062	-0.047
-239.903	800.000	-0.032	0.125
-238.888	-200.000	-0.003	-0.225
-237.873	800.000	0.108	0.340
-236.859	117.768	0.172	-0.209
-235.844	137.927	-0.148	0.192
-234.830	800.000	0.029	-0.085
-233.815	59.277	0.183	0.178
-232.800	-16.402	-0.495	0.311
-231.786	-145.480	-0.263	0.023
-230.771	-200.000	0.051	-0.232
-229.757	674.633	-0.056	-0.144
-228.742	-71.585	0.261	-0.096
-227.727	149.288	-0.106	0.141
-226.713	-69.309	0.121	-0.046
-225.698	800.000	-0.111	0.428
-224.684	-54.722	0.168	0.075
-223.669	137.639	-0.114	-0.147
-222.655	-129.390	0.194	-0.027
-221.640	430.472	-0.040	0.085
-220.625	-125.506	-0.227	0.034
-219.611	-200.000	-0.084	-0.392
-218.596	-10.830	0.207	-0.136
-217.582	-200.000	-0.022	0.318
-216.567	-70.167	0.173	0.065
-215.552	162.887	-0.190	0.264
-214.538	-176.553	0.282	-0.007
-213.523	-49.646	0.085	0.040
-212.509	-52.178	0.345	-0.158
-211.494	-200.000	0.044	0.252
-210.479	-200.000	0.020	0.243
-209.465	40.524	0.324	0.289
-208.450	-148.341	0.221	0.018
-207.436	109.823	0.170	0.201
-206.421	-20.754	0.188	-0.114
-205.406	-67.998	0.079	-0.030
-204.392	21.593	-0.236	0.190
-203.377	376.374	-0.039	0.079
-202.363	-200.000	-0.005	0.304
-201.348	-200.000	0.059	-0.266
-200.333	78.169	0.104	0.110
-199.319	20.153	0.194	-0.155
-198.304	487.077	0.023	0.051
-197.290	-156.562	0.362	-0.022
-196.275	-43.364	-0.478	0.239
-195.260	-83.686	-0.121	0.038
-194.246	-200.000	0.001	-0.276
-193.231	103.133	-0.029	0.034
-192.217	800.000	-0.067	0.237
-191.202	-200.000	-0.015	-0.078
-190.187	-200.000	0.006	0.272
-189.173	-200.000	-0.036	0.238
-188.158	0.137	-0.084	0.059
-187.144	-78.985	0.269	-0.090
-186.129	107.143	-0.130	0.153
-185.114	94.186	0.126	0.141
-184.100	216.791	-0.095	-0.149
-183.085	19.784	-0.281	-0.223
-182.071	-200.000	0.006	0.187
-181.056	800.000	0.056	0.227
-180.042	335.094	-0.076	-0.145
-179.027	-63.968	-0.104	-0.042
-178.012	-70.046	0.202	0.076
-176.998	133.537	0.066	-0.084
-175.983	-60.259	0.202	-0.085
-174.969	-91.696	0.126	0.035
-173.954	212.166	-0.085	-0.133
-172.939	-70.902	-0.212	-0.079
-171.925	35.638	-0.038	-0.033
-170.910	-200.000	0.028	0.202
-169.896	416.668	-0.193	-0.407
-168.881	-200.000	0.048	-0.293
-167.866	-189.815	0.018	-0.000
-166.852	452.448	-0.116	0.252
-165.837	-200.000	-0.035	0.154
-164.823	-8.811	0.329	0.218
-163.808	83.622	-0.183	-0.196
-162.793	-106.304	-0.202	0.044
-161.779	-112.880	-0.198	0.039
-160.764	-200.000	-0.039	-0.233
-159.750	-109.210	0.284	0.060
-158.735	-100.417	0.237	0.058
-157.720	-73.591	0.214	0.077
-156.706	-200.000	-0.046	-0.360
-155.691	66.222	-0.115	-0.115
-154.677	12.264	0.227	-0.172
-153.662	-111.954	-0.197	0.039
-152.647	116.644	-0.133	0.161
-151.633	-200.000	-0.061	0.340
-150.618	307.426	-0.076	0.139
-149.604	65.687	-0.236	-0.236
-148.589	26.642	0.302	0.250
-147.574	-200.000	-0.364	0.002
-146.560	12.793	-0.057	-0.043
-145.545	43.944	0.372	-0.336
-144.531	58.499	0.050	-0.048
-143.516	800.000	0.038	0.110
-142.502	21.010	-0.073	0.059
-141.487	800.000	-0.038	0.160
-140.472	800.000	0.110	0.324
-139.458	-98.221	0.176	0.045
-138.443	145.086	-0.114	0.151
-137.429	614.797	-0.032	-0.079
-136.414	473.466	0.074	0.164
-135.399	433.728	0.205	-0.439
-134.385	800.000	0.086	-0.240
-133.370	-200.000	0.039	-0.397
-132.356	362.911	0.086	-0.169
-131.341	800.000	0.011	-0.042
-130.326	126.668	-0.179	0.224
-129.312	169.818	0.106	-0.149
-128.297	-77.361	-0.282	0.097
-127.283	-24.769	-0.244	0.143
-126.268	-23.955	0.488	0.287
-125.253	-15.843	0.079	-0.050
-124.239	-200.000	-0.050	0.248
-123.224	800.000	-0.036	-0.121
-122.210	-71.829	0.377	-0.138
-121.195	694.640	0.059	0.153
-120.180	239.827	-0.176	0.288
-119.166	-82.106	-0.030	-0.010
-118.151	81.555	0.402	-0.428
-117.137	204.759	-0.131	-0.200
-116.122	800.000	0.031	-0.088
-115.107	-145.207	-0.154	-0.014
-114.093	114.910	0.090	-0.108
-113.078	-110.388	0.459	-0.094
-112.064	457.852	0.017	-0.037
-111.049	485.448	-0.049	-0.111
-110.034	-200.000	0.017	0.090
-109.020	-112.933	0.252	-0.049
-108.005	800.000	0.107	0.384
-106.991	279.183	0.109	0.192
-105.976	153.577	0.090	-0.121
-104.962	344.679	-0.083	0.160
-103.947	-143.820	-0.344	0.032
-102.932	166.816	0.111	-0.154
-101.918	10.930	-0.249	0.187
-100.903	-78.494	0.201	-0.068
-99.889	-143.804	0.129	0.012
-98.874	-19.610	0.327	0.199
-97.859	-82.336	-0.089	0.028
-96.845	16.657	-0.163	-0.126
-95.830	56.797	-0.209	0.200
-94.816	-125.028	-0.173	-0.026
-93.801	-200.000	-0.040	0.252
-92.786	-18.838	0.074	0.046
-91.772	-188.372	-0.139	0.002
-90.757	800.000	0.018	-0.074
-89.743	265.586	-0.100	-0.172
-88.728	127.549	0.149	-0.186
-87.713	-200.000	0.001	-0.030
-86.699	41.589	0.304	0.271
-85.684	-141.620	0.344	0.034
-84.670	707.188	0.077	0.200
-83.655	-84.047	0.114	-0.036
-82.640	-95.011	-0.101	-0.027
-81.626	-23.800	0.341	0.201
-80.611	12.900	-0.238	0.181
-79.597	-52.787	0.198	-0.090
-78.582	-49.949	-0.223	0.104
-77.567	520.621	0.088	0.204
-76.553	800.000	0.099	-0.275
-75.538	-200.000	0.088	0.466
-74.524	-60.916	-0.477	-0.198
-73.509	78.758	-0.147	-0.154
-72.494	-51.592	-0.108	0.050
-71.480	-200.000	0.004	0.191
-70.465	84.017	-0.101	-0.109
-69.451	-57.083	-0.120	0.052
-68.436	471.401	0.051	-0.112
-67.422	-141.279	-0.182	-0.018
-66.407	2.661	0.251	0.179
-65.392	800.000	0.081	-0.266
-64.378	-72.038	-0.200	0.073
-63.363	-137.306	0.191	-0.021
-62.349	395.130	0.092	0.189
-61.334	37.891	-1.250	-1.092
-60.319	14.822	0.405	0.311
-59.305	-200.000	-0.084	-1.123
-58.290	800.000	0.335	1.217
-57.276	507.838	0.637	1.453
-56.261	-200.000	97.167	608.960
-55.246	640.024	1382.511	3455.696
-54.232	196.200	2567.998	3839.582
-53.217	113.443	2269.278	2705.636
-52.203	41.263	1895.743	1683.330
-51.188	34.952	1685.458	1448.945
-50.173	32.338	1641.716	1391.964
-49.159	50.449	1689.582	1568.825
-48.144	52.070	1705.294	1595.502
-47.130	34.572	1666.508	1429.578
-46.115	31.887	1651.745	1396.887
-45.100	31.716	1646.874	1391.441
-44.086	31.611	1644.619	1388.707
-43.071	31.586	1642.141	1386.372
-42.057	31.625	1639.321	1384.225
-41.042	31.693	1637.589	1383.212
-40.027	31.610	1635.962	1381.168
-39.013	31.601	1633.458	1378.930
-37.998	31.531	1632.754	1377.764
-36.984	31.562	1630.958	1376.429
-35.969	31.660	1629.453	1375.822
-34.954	31.645	1627.941	1374.377
-33.940	31.672	1626.350	1373.177
-32.925	31.634	1624.852	1371.580
-31.911	31.648	1622.733	1369.839
-30.896	31.573	1621.182	1367.933
-29.881	31.702	1618.891	1366.886
-28.867	31.672	1617.673	1365.580
-27.852	31.708	1615.515	1363.969
-26.838	31.649	1614.508	1362.637
-25.823	31.693	1613.188	1361.789
-24.809	31.808	1611.489	1361.133
-23.794	31.698	1610.770	1359.671
-22.779	31.811	1608.712	1358.700
-21.765	31.666	1607.494	1356.568
-20.750	31.698	1605.752	1355.279
-19.736	31.632	1604.472	1353.666
-18.721	31.785	1602.779	1353.285
-17.706	31.769	1601.023	1351.639
-16.692	31.731	1599.573	1350.086
-15.677	31.696	1598.750	1349.088
-14.663	31.799	1597.111	1348.388
-13.648	31.777	1596.054	1347.285
-12.633	31.701	1594.328	1345.228
-11.619	31.673	1592.806	1343.693
-10.604	31.702	1591.600	1342.830
-9.590	31.735	1590.062	1341.716
-8.575	31.741	1588.637	1340.497
-7.560	31.843	1586.796	1339.619
-6.546	31.686	1587.059	1338.673
-5.531	31.714	1585.728	1337.691
-4.517	31.713	1583.987	1336.162
-3.502	31.820	1582.605	1335.710
-2.487	31.721	1581.513	1334.028
-1.473	31.507	1569.511	1322.338
-0.458	28.740	1550.097	1286.581
0.556	24.396	1551.109	1254.614
1.571	22.048	1574.767	1256.853
2.586	21.509	1587.094	1262.688
3.600	19.029	1533.672	1202.761
4.615	11.584	1426.568	1070.076
5.629	5.506	1365.464	985.954
6.644	4.647	1357.859	974.995
7.659	4.598	1356.419	973.563
8.673	4.453	1355.877	972.179
9.688	4.502	1353.771	970.895
10.702	4.494	1350.638	968.507
11.717	7.223	1356.166	989.453
12.731	14.379	1369.187	1043.844
13.746	18.990	1376.094	1077.987
14.761	18.830	1374.468	1075.613
15.775	17.793	1372.004	1067.105
16.790	16.825	1368.802	1058.477
17.804	16.034	1366.481	1051.653
18.819	15.609	1365.605	1048.235
19.834	15.322	1364.159	1045.243
20.848	15.095	1363.339	1043.110
21.863	14.928	1361.712	1040.735
22.877	14.699	1361.030	1038.696
23.892	14.647	1359.730	1037.293
24.907	14.634	1359.360	1036.837
25.921	14.755	1357.951	1036.422
26.936	14.733	1357.282	1035.684
27.950	14.708	1356.291	1034.679
28.965	14.779	1355.363	1034.320
29.980	14.789	1354.305	1033.484
30.994	15.052	1352.856	1033.907
32.009	15.068	1351.662	1033.003
33.023	14.944	1350.890	1031.557
34.038	14.975	1348.887	1030.127
35.053	14.800	1347.706	1028.056
36.067	14.950	1346.431	1027.919
37.082	14.934	1345.311	1026.875
38.096	14.963	1344.837	1026.596
39.111	14.975	1343.961	1025.910
40.126	14.850	1343.065	1024.370
41.140	14.661	1342.373	1022.597
42.155	14.679	1341.493	1021.946
43.169	14.511	1342.105	1021.293
44.184	14.665	1341.048	1021.342
45.199	14.673	1340.684	1021.023
46.213	14.740	1340.538	1021.229
47.228	14.822	1339.662	1020.970
48.242	14.797	1338.581	1019.907
49.257	14.708	1336.939	1018.020
50.271	14.759	1335.481	1017.134
51.286	14.809	1334.131	1016.316
52.301	14.875	1332.626	1015.484
53.315	14.713	1331.805	1013.785
54.330	14.734	1330.716	1012.993
55.344	14.763	1329.160	1011.894
56.359	14.664	1328.102	1010.401
57.374	14.618	1327.868	1009.854
58.388	14.642	1326.622	1008.964
59.403	14.574	1326.072	1008.043
60.417	14.577	1325.776	1007.747
61.432	14.576	1324.973	1007.040
62.447	14.477	1323.947	1005.573
63.461	14.513	1322.807	1004.840
64.476	14.566	1321.547	1004.109
65.490	14.559	1320.084	1002.869
66.505	14.516	1319.045	1001.733
67.520	14.381	1317.977	1000.021
68.534	14.668	1316.661	1000.654
69.549	14.541	1315.250	998.735
70.563	14.544	1314.620	998.184
71.578	14.449	1313.754	996.870
72.593	14.423	1312.488	995.665
73.607	14.387	1311.924	994.937
74.622	14.358	1311.092	994.043
75.636	14.395	1310.475	993.709
76.651	14.442	1309.559	993.208
77.666	14.479	1309.003	992.918
78.680	14.401	1308.506	991.988
79.695	14.449	1307.904	991.730
80.709	14.580	1307.243	991.919
81.724	14.637	1305.883	991.139
82.739	14.648	1305.451	990.785
83.753	14.685	1304.261	990.019
84.768	14.803	1303.410	989.981
85.782	14.960	1302.416	990.070
86.797	14.836	1301.525	988.568
87.812	14.859	1300.034	987.488
88.826	14.791	1298.376	985.740
89.841	14.920	1297.669	985.875
90.855	14.842	1296.877	984.725
91.870	14.888	1296.235	984.422
92.884	14.782	1295.664	983.280
93.899	14.887	1294.450	982.890
94.914	15.054	1293.594	983.130
95.928	14.964	1292.288	981.524
96.943	14.949	1291.566	980.803
97.957	14.858	1290.822	979.614
98.972	14.892	1289.830	978.975
99.987	14.872	1288.672	977.893
101.001	14.858	1287.522	976.854
102.016	14.863	1286.750	976.206
103.030	14.915	1286.042	975.887
104.045	14.798	1285.422	974.649
105.060	14.855	1283.878	973.723
106.074	14.758	1282.317	971.889
107.089	14.567	1281.055	969.735
108.103	14.521	1279.978	968.571
109.118	14.576	1278.455	967.650
110.133	14.511	1277.522	966.484
111.147	14.594	1276.005	965.726
112.162	14.652	1274.365	964.738
113.176	14.582	1273.556	963.635
114.191	14.684	1272.557	963.384
115.206	14.570	1272.057	962.263
116.220	14.672	1270.129	961.306
117.235	14.584	1269.158	959.977
118.249	14.584	1268.735	959.574
119.264	14.592	1267.297	958.445
120.279	14.665	1265.815	957.663
121.293	14.668	1264.468	956.572
122.308	14.515	1263.865	955.155
123.322	14.533	1262.787	954.360
124.337	14.464	1261.858	953.178
125.352	14.516	1260.423	952.309
126.366	14.587	1259.365	951.832
127.381	14.605	1258.156	950.937
128.395	14.516	1257.358	949.742
129.410	14.696	1256.345	949.914
130.424	14.587	1256.195	949.097
131.439	14.739	1254.442	948.554
132.454	14.586	1254.158	947.386
133.468	14.745	1253.012	947.339
134.483	14.704	1252.300	946.485
135.497	14.699	1251.562	945.816
136.512	14.759	1249.964	944.862
137.527	14.735	1248.945	943.873
138.541	14.625	1247.606	942.157
139.556	14.711	1246.401	941.647
140.570	14.834	1245.496	941.576
141.585	14.893	1243.873	940.597
142.600	14.821	1243.156	939.565
143.614	14.934	1242.205	939.396
144.629	15.062	1240.650	938.857
145.643	14.876	1240.189	937.381
146.658	14.891	1238.889	936.398
147.673	14.818	1237.345	934.741
148.687	14.863	1235.750	933.704
149.702	14.728	1234.910	932.234
150.716	14.765	1233.328	931.163
151.731	14.667	1232.306	929.768
152.746	14.863	1230.936	929.739
153.760	14.945	1229.385	928.944
154.775	14.997	1228.661	928.599
155.789	14.982	1227.746	927.741
156.804	14.837	1227.422	926.616
157.819	15.001	1225.745	926.173
158.833	15.021	1224.966	925.613
159.848	15.138	1224.055	925.489
160.862	15.128	1223.192	924.698
161.877	14.964	1222.119	922.903
162.892	14.926	1220.776	921.597
163.906	14.860	1220.208	920.725
164.921	14.906	1219.038	920.013
165.935	14.829	1218.552	919.141
166.950	14.881	1217.871	918.831
167.964	14.861	1216.858	917.878
168.979	14.814	1216.225	917.061
169.994	14.913	1215.440	916.931
171.008	14.877	1214.511	915.949
172.023	15.031	1213.424	915.892
173.037	15.198	1212.600	916.102
174.052	15.114	1211.574	914.788
175.067	14.990	1210.856	913.484
176.081	14.865	1209.910	912.011
177.096	14.972	1208.966	911.804
178.110	14.938	1207.779	910.643
179.125	14.962	1206.551	909.764
180.140	15.048	1205.175	909.114
181.154	14.976	1204.276	907.966
182.169	15.116	1203.119	907.770
183.183	15.171	1201.708	906.921
184.198	15.275	1200.744	906.677
185.213	15.177	1200.298	905.732
186.227	15.167	1198.812	904.478
187.242	15.370	1197.535	904.525
188.256	15.319	1196.711	903.547
189.271	15.377	1195.829	903.114
190.286	15.124	1194.800	900.896
191.300	15.109	1193.936	900.088
192.315	14.974	1193.224	898.744
193.329	14.870	1192.489	897.555
194.344	15.050	1191.780	897.904
195.359	15.143	1191.175	897.870
196.373	15.246	1190.636	897.937
197.388	15.263	1190.873	898.127
198.402	15.415	1189.905	898.132
199.417	15.528	1188.978	897.954
200.432	15.438	1188.774	897.243
201.446	15.620	1187.748	897.359
202.461	15.513	1187.046	896.179
203.475	15.611	1185.836	895.708
204.490	15.522	1184.519	894.160
205.504	15.502	1183.187	892.969
206.519	15.434	1182.282	891.847
207.534	15.423	1181.025	890.761
208.548	15.480	1179.833	890.086
209.563	15.319	1179.776	889.111
210.577	15.492	1178.608	889.067
211.592	15.591	1177.990	889.044
212.607	15.583	1176.790	888.017
213.621	15.477	1176.486	887.152
214.636	15.545	1175.234	886.485
215.650	15.569	1174.471	885.960
216.665	15.645	1173.113	885.257
217.680	15.766	1172.454	885.318
218.694	15.805	1171.677	884.860
219.709	15.684	1171.014	883.642
220.723	15.606	1170.613	882.853
221.738	15.631	1169.884	882.357
222.753	15.773	1168.603	882.056
223.767	15.724	1167.932	881.217
224.782	15.789	1167.517	881.162
225.796	15.885	1166.912	881.130
226.811	15.860	1166.230	880.410
227.826	15.777	1165.764	879.546
228.840	15.829	1164.164	878.532
229.855	15.700	1164.372	877.936
230.869	15.705	1163.215	877.011
231.884	15.641	1162.848	876.324
232.899	15.791	1161.642	876.119
233.913	15.702	1160.885	875.008
234.928	15.691	1159.794	874.053
235.942	15.606	1159.220	873.101
236.957	15.652	1158.667	872.847
237.972	15.716	1157.879	872.505
238.986	15.677	1157.148	871.674
240.001	15.791	1156.202	871.474
241.015	15.797	1155.662	871.023
242.030	15.691	1155.181	870.034
243.045	15.769	1154.326	869.718
244.059	15.900	1153.173	869.447
245.074	15.880	1152.645	868.869
246.088	15.893	1151.696	868.145
247.103	15.889	1151.469	867.879
248.117	16.200	1150.109	868.378
249.132	16.119	1149.795	867.643
250.147	16.254	1149.075	867.718
251.161	16.425	1147.795	867.551
252.176	16.336	1147.714	866.957
253.190	16.285	1147.253	866.270
254.205	16.267	1146.648	865.647
255.220	16.449	1145.771	865.841
256.234	16.456	1145.418	865.533
257.249	16.388	1144.794	864.635
258.263	16.408	1144.281	864.274
259.278	16.428	1143.339	863.589
260.293	16.496	1142.803	863.455
261.307	16.520	1142.386	863.188
262.322	16.522	1141.438	862.405
263.336	16.604	1140.913	862.348
264.351	16.551	1140.314	861.550
265.366	16.553	1139.604	860.946
266.380	16.561	1138.763	860.275
267.395	16.509	1138.116	859.449
268.409	16.460	1137.376	858.562
269.424	16.459	1136.434	857.771
270.439	16.457	1135.959	857.325
271.453	16.492	1135.012	856.712
272.468	16.396	1134.201	855.540
273.482	16.369	1133.605	854.876
274.497	16.410	1132.891	854.469
275.512	16.500	1132.571	854.608
276.526	16.458	1131.684	853.653
277.541	16.476	1130.761	852.970
278.555	16.661	1130.590	853.698
279.570	16.622	1129.443	852.561
280.585	16.652	1129.044	852.337
281.599	16.682	1127.998	851.621
282.614	16.687	1126.522	850.457
283.628	16.588	1125.324	848.981
284.643	16.689	1124.818	849.029
285.657	16.610	1123.887	847.859
286.672	16.612	1123.246	847.306
287.687	16.741	1121.827	846.806
288.701	16.667	1121.530	846.140
289.716	16.607	1120.880	845.273
290.730	16.740	1119.723	844.989
291.745	16.734	1119.279	844.552
292.760	16.701	1119.177	844.237
293.774	16.773	1118.290	843.850
294.789	16.924	1117.748	844.115
295.803	16.940	1117.135	843.659
296.818	16.866	1116.092	842.428
297.833	16.899	1114.947	841.656
298.847	16.720	1114.876	840.638
299.862	16.866	1114.386	840.917
300.876	16.784	1113.655	839.885
301.891	16.864	1112.840	839.592
302.906	16.920	1112.194	839.308
303.920	16.960	1111.501	838.907
304.935	17.098	1110.845	839.019
305.949	17.130	1110.436	838.796
306.964	17.100	1109.220	837.656
307.979	17.000	1108.832	836.794
308.993	17.079	1108.088	836.549
310.008	17.139	1107.098	836.021
311.022	17.318	1106.325	836.245
312.037	17.173	1105.852	835.100
313.052	17.105	1104.708	833.831
314.066	17.112	1103.496	832.874
315.081	16.985	1102.717	831.592
316.095	17.015	1101.986	831.113
317.110	16.993	1101.506	830.569
318.125	17.015	1100.511	829.854
319.139	17.121	1099.711	829.695
320.154	17.061	1099.268	828.993
321.168	17.037	1098.587	828.292
322.183	16.971	1098.557	827.870
323.197	17.060	1097.655	827.552
324.212	17.123	1096.640	827.021
325.227	17.146	1096.228	826.751
326.241	17.089	1095.906	826.154
327.256	17.115	1094.998	825.525
328.270	17.089	1093.991	824.565
329.285	17.069	1092.889	823.564
330.300	17.108	1092.195	823.160
331.314	17.077	1091.383	822.325
332.329	17.072	1090.683	821.699
333.343	17.213	1089.200	821.193
334.358	17.208	1088.898	820.865
335.373	17.245	1088.520	820.687
336.387	17.295	1087.369	819.990
337.402	17.299	1086.723	819.449
338.416	17.342	1086.114	819.127
339.431	17.283	1085.428	818.252
340.446	17.529	1084.889	818.957
341.460	17.521	1083.994	818.169
342.475	17.581	1083.382	817.924
343.489	17.598	1082.753	817.455
344.504	17.690	1081.813	817.116
345.519	17.781	1080.436	816.439
346.533	17.717	1079.589	815.421
347.548	17.702	1079.202	814.984
348.562	17.598	1078.804	814.113
349.577	17.565	1077.566	812.952
350.592	17.602	1076.999	812.626
351.606	17.434	1076.361	811.273
352.621	17.569	1075.298	811.042
353.635	17.488	1074.671	810.114
354.650	17.598	1074.010	810.068
355.665	17.608	1073.366	809.557
356.679	17.596	1072.683	808.911
357.694	17.565	1072.243	808.363
358.708	17.568	1071.773	807.953
359.723	17.708	1071.307	808.191
360.738	17.732	1070.583	807.687
361.752	17.734	1069.907	807.115
362.767	17.743	1069.081	806.465
363.781	17.796	1068.618	806.295
364.796	17.861	1067.947	806.022
365.810	17.950	1067.354	805.923
366.825	18.027	1066.710	805.729
367.840	18.121	1066.508	805.950
368.854	18.080	1066.116	805.389
369.869	18.055	1065.436	804.686
370.883	17.975	1064.303	803.380
371.898	18.023	1063.408	802.860
372.913	17.891	1063.218	802.027
373.927	17.815	1062.925	801.379
374.942	18.088	1062.211	802.051
375.956	18.151	1061.710	801.897
376.971	17.999	1060.452	800.160
377.986	18.046	1060.371	800.253
379.000	18.187	1059.784	800.397
380.015	18.080	1059.341	799.489
381.029	18.196	1059.023	799.720
382.044	18.149	1058.038	798.689
383.059	18.214	1057.528	798.535
384.073	18.282	1056.480	797.989
385.088	18.168	1055.846	796.912
386.102	18.252	1054.707	796.371
387.117	18.237	1053.426	795.266
388.132	18.197	1052.221	794.098
389.146	18.003	1052.267	793.162
390.161	18.165	1050.889	792.806
391.175	18.212	1050.715	792.821
392.190	18.108	1049.822	791.594
393.205	18.213	1049.339	791.647
394.219	18.320	1048.322	791.305
395.234	18.206	1047.291	789.931
396.248	18.248	1046.511	789.466
397.263	18.251	1045.196	788.417
398.278	18.263	1044.704	788.033
399.292	18.172	1043.992	787.007
400.307	18.160	1043.669	786.636
401.321	18.183	1042.633	785.894
402.336	18.191	1042.125	785.475
403.350	18.138	1041.598	784.766
404.365	18.157	1040.752	784.146
405.380	18.335	1039.799	784.175
406.394	18.303	1039.270	783.560
407.409	18.372	1038.658	783.347
408.423	18.433	1038.088	783.127
409.438	18.519	1036.964	782.601
410.453	18.590	1036.288	782.344
411.467	18.646	1035.788	782.154
412.482	18.611	1035.609	781.790
413.496	18.662	1034.563	781.163
414.511	18.683	1033.818	780.626
415.526	18.729	1033.606	780.609
416.540	18.800	1033.156	780.519
417.555	18.713	1032.670	779.689
418.569	18.742	1032.172	779.375
419.584	18.749	1031.884	779.122
420.599	18.782	1030.848	778.418
421.613	150.105	1400.693	1792.114
422.628	136.950	1454.596	1792.228
