DTS Sentinel unit serial number:	SN413079Multiplexer serial number:	ORYXHardware model number:	OX4-SRSoftware version number:	ORYX F/W v4.00 Oryx Data Collector v3.7.2.0data status	okinstallation	princeton_trtdifferential loss correction	single-endedforward channel	channel 2reverse channel	N/Adate	2019/09/19time	07:27:34forward acquisition time	60.00reverse acquisition time	0.00gamma	496.2192k internal	0.2350k external	0.2350temperature offset calibration	1.0013default loss term (dB/km)	0.3790temperature slope calibration	1.0000multiplexer offset coefficient	1.0000multiplexer slope coefficient	1.0000fibre end	0.00T internal ref (°C)	19.19T ext. ref 1 (°C)	0.55T ext. ref 2 (°C)	13.90length (m)	temperature (°C)	Stokes	anti-Stokes-747.200	-11.318	-0.350	0.230
-746.185	-64.256	0.317	-0.129
-745.171	-27.944	0.097	0.056
-744.156	-84.624	-0.173	-0.055
-743.142	-127.277	-0.204	-0.030
-742.127	22.728	-0.134	-0.109
-741.112	-23.014	0.172	-0.103
-740.098	57.448	-0.152	0.148
-739.083	-17.233	0.149	-0.094
-738.069	-200.000	-0.049	0.319
-737.054	-53.245	-0.343	0.157
-736.039	-92.670	-0.485	-0.136
-735.025	-19.691	0.172	0.106
-734.010	-165.557	-0.254	-0.011
-732.996	595.575	-0.053	0.132
-731.981	800.000	0.064	-0.208
-730.966	-59.903	-0.139	-0.059
-729.952	472.750	-0.014	-0.031
-728.937	-84.530	-0.073	0.023
-727.923	-95.992	0.403	-0.107
-726.908	-132.469	-0.384	-0.049
-725.894	-200.000	-0.040	0.523
-724.879	-13.613	-0.215	0.139
-723.864	735.866	0.081	0.216
-722.850	-154.413	0.233	0.016
-721.835	23.133	0.181	0.148
-720.821	-94.899	0.103	0.028
-719.806	800.000	-0.072	-0.211
-718.791	-200.000	-0.360	-0.001
-717.777	408.768	-0.150	-0.317
-716.762	-13.065	-0.269	-0.175
-715.748	-120.126	0.175	-0.030
-714.733	288.843	0.076	0.137
-713.718	-8.446	-0.374	-0.251
-712.704	800.000	-0.049	0.149
-711.689	-98.363	-0.128	-0.033
-710.675	-83.610	-0.109	0.035
-709.660	187.486	-0.169	-0.251
-708.645	-200.000	-0.018	-0.280
-707.631	141.190	-0.136	0.179
-706.616	787.817	-0.124	-0.338
-705.602	-200.000	0.035	0.246
-704.587	800.000	0.018	0.059
-703.572	42.382	0.140	0.127
-702.558	-200.000	0.004	0.136
-701.543	117.071	0.173	-0.212
-700.529	-200.000	0.006	-0.081
-699.514	-200.000	0.032	-0.288
-698.499	46.602	-0.195	-0.181
-697.485	-53.499	-0.241	0.110
-696.470	-139.805	-0.441	-0.047
-695.456	-104.844	0.517	0.118
-694.441	-30.847	-0.267	0.150
-693.426	55.068	0.315	-0.303
-692.412	-154.261	0.187	-0.013
-691.397	10.984	-0.300	0.229
-690.383	-85.944	-0.277	-0.085
-689.368	112.709	-0.107	-0.130
-688.354	-14.891	0.066	-0.042
-687.339	-200.000	0.017	0.221
-686.324	-123.170	-0.326	-0.052
-685.310	151.607	0.249	0.338
-684.295	672.870	0.038	0.097
-683.281	-200.000	0.005	-0.327
-682.266	419.299	-0.117	0.250
-681.251	800.000	0.082	0.238
-680.237	73.694	-0.254	0.265
-679.222	63.344	-0.263	-0.262
-678.208	-200.000	-0.051	-0.266
-677.193	-55.458	0.302	0.135
-676.178	406.617	-0.172	-0.361
-675.164	-200.000	0.068	0.297
-674.149	-80.559	-0.372	0.124
-673.135	268.260	0.095	-0.165
-672.120	-200.000	0.027	-0.193
-671.105	-200.000	0.003	-0.174
-670.091	-44.509	-0.290	0.145
-669.076	800.000	-0.057	-0.236
-668.062	-200.000	-0.021	0.136
-667.047	-11.293	0.134	-0.088
-666.032	119.102	0.165	-0.203
-665.018	800.000	0.030	0.103
-664.003	-35.186	-0.174	-0.094
-662.989	800.000	-0.041	-0.169
-661.974	-75.769	-0.308	-0.109
-660.959	1.444	-0.155	0.111
-659.945	-186.581	-0.167	-0.002
-658.930	-60.673	0.283	-0.119
-657.916	800.000	-0.052	-0.218
-656.901	-200.000	-0.269	-0.001
-655.886	612.598	0.062	0.156
-654.872	-200.000	0.034	0.226
-653.857	800.000	-0.019	0.055
-652.843	-200.000	0.043	0.248
-651.828	-122.508	0.200	-0.032
-650.814	-147.206	-0.088	-0.007
-649.799	-100.930	-0.052	-0.013
-648.784	-42.782	-0.104	0.052
-647.770	-92.396	-0.361	-0.101
-646.755	-101.569	-0.179	0.043
-645.741	-65.095	-0.078	0.031
-644.726	-192.055	0.100	0.001
-643.711	-59.645	0.107	-0.046
-642.697	98.219	0.028	0.032
-641.682	-81.301	0.155	-0.051
-640.668	34.616	-0.113	-0.098
-639.653	269.082	-0.079	-0.138
-638.638	-58.392	0.228	0.099
-637.624	-82.328	-0.186	0.060
-636.609	128.080	0.138	0.174
-635.595	-200.000	-0.044	-0.444
-634.580	90.341	-0.134	-0.149
-633.565	182.382	-0.119	0.174
-632.551	-200.000	0.007	0.214
-631.536	-200.000	-0.004	-0.294
-630.522	82.256	0.123	0.132
-629.507	45.517	-0.275	0.252
-628.492	-200.000	-0.007	0.127
-627.478	2.030	-0.179	0.129
-626.463	296.221	0.058	-0.105
-625.449	-169.567	-0.337	0.012
-624.434	-60.457	-0.287	-0.121
-623.419	-200.000	-0.017	0.172
-622.405	-40.907	0.118	-0.061
-621.390	555.578	0.096	-0.229
-620.376	18.643	-0.175	-0.139
-619.361	129.559	-0.172	-0.218
-618.346	-78.366	-0.130	-0.044
-617.332	8.416	-0.235	0.175
-616.317	126.026	0.101	0.127
-615.303	82.726	-0.167	-0.180
-614.288	350.975	0.078	0.154
-613.273	118.018	-0.109	0.133
-612.259	-110.665	0.442	-0.091
-611.244	655.911	-0.065	-0.167
-610.230	261.710	-0.049	0.085
-609.215	-134.382	-0.091	0.011
-608.201	-70.251	-0.013	0.005
-607.186	-106.569	0.250	-0.055
-606.171	800.000	0.012	0.036
-605.157	-95.985	-0.342	-0.090
-604.142	-91.999	0.210	0.059
-603.128	-200.000	-0.010	0.072
-602.113	-200.000	0.030	-0.172
-601.098	-200.000	-0.026	0.247
-600.084	-15.717	0.238	0.150
-599.069	118.666	0.071	-0.087
-598.055	-0.663	-0.165	0.116
-597.040	525.871	0.087	-0.203
-596.025	-200.000	0.024	-0.232
-595.011	-192.128	0.266	0.003
-593.996	800.000	-0.066	-0.218
-592.982	-140.088	-0.378	-0.039
-591.967	-44.181	-0.181	0.090
-590.952	195.184	-0.170	0.257
-589.938	-102.543	0.194	-0.046
-588.923	604.887	-0.083	0.205
-587.909	-33.697	-0.150	-0.082
-586.894	-162.977	0.213	0.010
-585.879	44.906	-0.093	-0.085
-584.865	-39.568	-0.172	-0.089
-583.850	-16.644	0.175	0.110
-582.836	800.000	-0.048	0.197
-581.821	90.142	0.202	-0.224
-580.806	800.000	-0.016	-0.060
-579.792	-200.000	0.005	0.294
-578.777	21.311	0.162	-0.131
-577.763	-200.000	-0.036	-0.333
-576.748	28.306	0.214	0.180
-575.733	-106.730	0.119	0.026
-574.719	141.943	-0.226	-0.297
-573.704	-200.000	-0.044	-0.191
-572.690	-45.353	-0.322	-0.159
-571.675	-200.000	0.005	-0.046
-570.661	-88.529	-0.224	0.066
-569.646	431.376	0.202	-0.434
-568.631	327.949	-0.164	0.311
-567.617	-200.000	-0.086	0.448
-566.602	9.363	0.190	0.143
-565.588	-73.157	-0.239	0.087
-564.573	-57.824	0.134	0.058
-563.558	361.314	-0.144	-0.286
-562.544	-200.000	-0.047	-0.257
-561.529	372.319	-0.015	-0.029
-560.515	-91.289	-0.153	-0.043
-559.500	32.717	-0.220	-0.189
-558.485	800.000	-0.014	0.049
-557.471	-200.000	-0.088	0.509
-556.456	-76.743	0.198	-0.069
-555.442	-141.491	-0.346	0.035
-554.427	267.796	-0.095	-0.165
-553.412	800.000	-0.127	-0.489
-552.398	569.845	-0.150	-0.362
-551.383	150.941	-0.194	0.261
-550.369	-119.246	0.111	0.019
-549.354	-39.628	-0.112	-0.058
-548.339	-81.397	-0.198	-0.065
-547.325	800.000	0.046	-0.160
-546.310	-36.610	0.167	0.089
-545.296	63.426	-0.203	0.201
-544.281	539.797	-0.046	0.108
-543.266	-27.176	-0.190	-0.110
-542.252	-200.000	0.043	-0.250
-541.237	-114.205	0.545	0.104
-540.223	28.818	-0.219	-0.184
-539.208	-102.046	-0.221	0.053
-538.193	-38.050	-0.146	0.077
-537.179	70.028	0.099	-0.101
-536.164	-89.980	-0.216	-0.062
-535.150	-50.313	-0.353	-0.165
-534.135	542.109	-0.045	-0.106
-533.121	-51.957	0.278	0.128
-532.106	81.873	0.016	0.017
-531.091	-200.000	0.070	0.339
-530.077	12.934	0.217	0.166
-529.062	-146.196	-0.210	-0.018
-528.048	-200.000	0.301	-0.000
-527.033	-15.492	-0.200	0.127
-526.018	117.316	-0.092	-0.113
-525.004	266.527	0.196	0.338
-523.989	-45.527	0.119	-0.058
-522.975	-200.000	0.042	-0.224
-521.960	394.262	-0.113	0.232
-520.945	-200.000	0.051	-0.349
-519.931	83.211	0.065	0.070
-518.916	26.832	-0.180	0.150
-517.902	84.539	0.110	0.120
-516.887	141.097	0.108	0.142
-515.872	800.000	0.010	-0.030
-514.858	429.519	0.177	-0.379
-513.843	54.754	-0.037	0.036
-512.829	-105.423	-0.360	0.081
-511.814	-200.000	-0.019	-0.173
-510.799	0.176	0.219	-0.154
-509.785	69.173	0.307	-0.312
-508.770	-200.000	0.014	-0.262
-507.756	-63.771	-0.243	0.098
-506.741	800.000	0.171	-0.470
-505.726	591.575	-0.060	0.148
-504.712	-200.000	-0.008	-0.153
-503.697	16.562	-0.182	0.142
-502.683	-55.782	-0.120	0.053
-501.668	-200.000	0.024	-0.329
-500.653	-108.505	-0.227	-0.048
-499.639	-118.109	0.314	0.055
-498.624	154.209	-0.138	0.187
-497.610	104.141	0.028	0.032
-496.595	-200.000	-0.010	-0.239
-495.581	-99.166	0.126	-0.031
-494.566	27.260	-0.216	-0.179
-493.551	-73.427	-0.119	-0.043
-492.537	107.657	0.306	-0.360
-491.522	205.998	-0.103	0.159
-490.508	-200.000	0.038	0.234
-489.493	-118.754	-0.049	-0.009
-488.478	-200.000	-0.019	0.107
-487.464	800.000	0.079	-0.278
-486.449	-57.784	-0.442	0.191
-485.435	97.154	0.269	0.305
-484.420	-200.000	0.046	-0.234
-483.405	-104.852	0.066	0.015
-482.391	291.393	-0.110	-0.197
-481.376	-141.843	0.155	0.015
-480.362	-83.133	0.379	-0.120
-479.347	-69.864	-0.170	0.064
-478.332	800.000	-0.097	-0.292
-477.318	-143.250	0.220	-0.021
-476.303	-56.270	-0.143	0.063
-475.289	800.000	0.082	-0.270
-474.274	31.519	0.260	0.221
-473.259	459.642	0.058	-0.128
-472.245	-76.534	0.254	-0.088
-471.230	800.000	-0.063	0.213
-470.216	-44.454	0.049	-0.024
-469.201	7.209	0.204	-0.150
-468.186	-83.600	-0.277	0.087
-467.172	589.331	0.097	-0.236
-466.157	-200.000	0.047	-0.252
-465.143	569.845	-0.109	-0.261
-464.128	424.399	-0.126	0.267
-463.113	458.419	0.095	0.209
-462.099	-200.000	-0.028	-0.469
-461.084	-33.867	0.197	-0.107
-460.070	800.000	-0.083	0.254
-459.055	-200.000	-0.030	0.151
-458.040	-200.000	0.007	-0.254
-457.026	21.503	0.019	0.015
-456.011	91.182	0.236	0.261
-454.997	156.470	-0.080	-0.109
-453.982	-131.607	-0.071	0.009
-452.968	565.858	0.085	-0.203
-451.953	-82.828	0.262	0.083
-450.938	-64.883	-0.279	-0.112
-449.924	800.000	-0.039	-0.117
-448.909	74.060	0.064	-0.067
-447.895	193.390	-0.124	-0.184
-446.880	129.133	0.255	-0.321
-445.865	-163.567	-0.268	0.013
-444.851	-17.813	0.184	-0.114
-443.836	26.675	-0.235	0.194
-442.822	-55.337	0.141	-0.063
-441.807	26.898	0.144	0.119
-440.792	800.000	0.061	0.252
-439.778	-200.000	0.012	0.186
-438.763	-176.730	0.159	-0.004
-437.749	-200.000	-0.033	-0.240
-436.734	132.692	-0.027	-0.035
-435.719	-200.000	0.067	0.331
-434.705	-13.011	-0.080	0.052
-433.690	112.897	0.252	-0.301
-432.676	800.000	0.033	0.107
-431.661	800.000	0.093	0.358
-430.646	17.037	-0.109	0.085
-429.632	142.779	-0.143	-0.187
-428.617	115.441	-0.084	0.101
-427.603	-5.342	-0.099	-0.067
-426.588	616.167	0.142	-0.352
-425.573	-6.719	0.160	0.107
-424.559	-88.572	-0.483	0.142
-423.544	-72.964	-0.208	0.075
-422.530	-200.000	0.014	-0.132
-421.515	800.000	-0.059	-0.166
-420.500	-40.875	0.279	0.142
-419.486	117.377	0.078	0.095
-418.471	93.678	0.183	0.204
-417.457	113.551	0.203	0.243
-416.442	-200.000	-0.003	0.019
-415.428	-114.037	0.290	0.055
-414.413	611.640	-0.157	-0.388
-413.398	-133.294	-0.355	-0.044
-412.384	265.031	-0.150	-0.258
-411.369	-121.303	0.153	-0.025
-410.355	-200.000	0.040	0.201
-409.340	43.421	-0.257	-0.232
-408.325	-118.406	0.149	0.026
-407.311	120.491	-0.232	-0.283
-406.296	-73.804	-0.179	-0.064
-405.282	-52.991	0.564	0.256
-404.267	-200.000	0.006	0.071
-403.252	37.231	-0.144	0.126
-402.238	233.358	0.118	-0.191
-401.223	-102.368	-0.217	-0.051
-400.209	149.052	-0.163	0.217
-399.194	549.133	0.097	0.230
-398.179	37.461	-0.145	0.126
-397.165	233.981	-0.205	0.333
-396.150	-200.000	0.000	-0.071
-395.136	263.436	-0.148	0.253
-394.121	-106.839	-0.132	-0.029
-393.106	-66.995	0.109	0.042
-392.092	-17.466	0.395	0.245
-391.077	228.757	0.071	-0.114
-390.063	153.869	0.170	-0.229
-389.048	-136.112	0.258	0.030
-388.033	-200.000	0.019	-0.244
-387.019	309.608	-0.018	0.034
-386.004	-73.357	0.068	-0.024
-384.990	145.262	-0.074	-0.098
-383.975	-200.000	-0.008	-0.045
-382.960	153.540	0.228	-0.308
-381.946	-200.000	-0.026	0.248
-380.931	-87.653	-0.042	-0.012
-379.917	-200.000	-0.017	0.303
-378.902	65.342	-0.252	0.251
-377.888	-200.000	-0.040	0.179
-376.873	800.000	0.016	-0.065
-375.858	-119.169	-0.263	0.045
-374.844	289.372	-0.065	0.115
-373.829	-101.048	-0.077	0.019
-372.815	-20.353	-0.199	0.121
-371.800	-74.646	0.121	-0.043
-370.785	-8.079	-0.066	0.044
-369.771	66.924	-0.099	-0.100
-368.756	498.046	0.174	0.394
-367.742	167.613	-0.061	0.085
-366.727	-58.633	0.030	-0.013
-365.712	-15.109	0.394	0.248
-364.698	-93.634	-0.154	-0.042
-363.683	94.851	0.127	0.142
-362.669	800.000	-0.125	-0.377
-361.654	-96.979	0.251	-0.065
-360.639	-89.199	-0.434	0.126
-359.625	52.706	-0.105	0.098
-358.610	-48.981	-0.399	-0.188
-357.596	-63.624	0.108	0.044
-356.581	296.935	-0.151	-0.272
-355.566	-200.000	-0.016	0.172
-354.552	242.524	0.161	0.266
-353.537	55.319	0.171	-0.163
-352.523	346.368	0.151	0.291
-351.508	-200.000	0.001	-0.233
-350.493	117.128	-0.220	0.266
-349.479	-153.351	0.201	-0.014
-348.464	312.104	0.152	0.281
-347.450	-104.215	0.106	0.024
-346.435	-96.164	0.221	-0.058
-345.420	-200.000	0.017	0.099
-344.406	247.817	-0.094	0.155
-343.391	-133.939	0.392	-0.048
-342.377	-88.830	0.073	0.021
-341.362	-200.000	-0.026	0.261
-340.348	-97.190	-0.127	0.033
-339.333	102.350	-0.181	0.208
-338.318	-74.393	-0.201	0.071
-337.304	342.930	-0.084	0.162
-336.289	-45.545	0.424	-0.206
-335.275	-198.534	-0.242	0.001
-334.260	-123.545	0.223	0.035
-333.245	800.000	0.041	0.149
-332.231	-128.684	0.065	0.009
-331.216	-7.856	-0.164	0.109
-330.202	800.000	0.096	-0.376
-329.187	39.196	0.276	0.242
-328.172	103.757	0.234	0.270
-327.158	24.250	-0.286	-0.232
-326.143	45.143	0.162	0.146
-325.129	201.421	-0.113	-0.171
-324.114	115.118	0.184	-0.221
-323.099	-162.330	-0.142	-0.007
-322.085	172.536	-0.228	0.323
-321.070	800.000	-0.022	0.086
-320.056	-200.000	0.043	-0.209
-319.041	37.066	0.192	-0.167
-318.026	-70.889	0.153	-0.057
-317.012	238.214	-0.038	-0.062
-315.997	119.607	0.113	0.137
-314.983	59.490	0.149	-0.145
-313.968	237.672	-0.073	-0.119
-312.953	97.626	0.175	-0.198
-311.939	-200.000	-0.002	-0.346
-310.924	-200.000	0.033	0.178
-309.910	-101.440	0.227	0.054
-308.895	-200.000	0.003	-0.080
-307.880	-200.000	-0.043	0.226
-306.866	20.715	-0.196	0.156
-305.851	-200.000	0.024	-0.314
-304.837	800.000	0.034	-0.094
-303.822	77.978	-0.152	-0.159
-302.807	-104.087	0.225	-0.051
-301.793	800.000	0.038	0.105
-300.778	-110.771	-0.185	-0.037
-299.764	153.803	0.101	-0.135
-298.749	-21.294	0.077	-0.046
-297.735	540.972	0.163	-0.380
-296.720	-116.820	-0.414	0.074
-295.705	236.319	0.100	-0.163
-294.691	-134.818	0.272	0.032
-293.676	-68.846	0.192	-0.073
-292.662	544.831	0.116	-0.273
-291.647	110.294	-0.125	0.147
-290.632	-200.000	-0.032	0.215
-289.618	-14.585	0.119	-0.075
-288.603	-63.041	0.381	-0.155
-287.589	624.065	-0.093	0.229
-286.574	405.846	0.082	-0.169
-285.559	-10.161	-0.092	0.060
-284.545	56.907	-0.271	0.259
-283.530	800.000	-0.128	-0.385
-282.516	82.613	-0.129	0.137
-281.501	6.318	0.130	-0.095
-280.486	234.174	0.129	0.208
-279.472	-119.263	-0.306	0.052
-278.457	519.737	-0.114	-0.262
-277.443	-91.276	0.076	0.021
-276.428	638.886	-0.063	-0.156
-275.413	800.000	0.013	-0.038
-274.399	-121.452	-0.137	0.022
-273.384	20.488	-0.110	-0.087
-272.370	800.000	-0.040	0.123
-271.355	-123.109	0.068	0.011
-270.340	155.859	0.048	0.064
-269.326	376.491	-0.102	0.203
-268.311	237.672	0.077	0.126
-267.297	163.114	-0.096	0.132
-266.282	55.753	-0.113	0.108
-265.267	348.363	-0.056	0.109
-264.253	800.000	-0.053	-0.220
-263.238	-200.000	-0.022	-0.238
-262.224	800.000	-0.017	-0.055
-261.209	800.000	0.078	0.274
-260.195	30.268	-0.235	-0.197
-259.180	-50.250	0.313	0.145
-258.165	-52.946	0.443	0.200
-257.151	761.334	0.032	-0.085
-256.136	216.652	-0.153	-0.238
-255.122	-49.069	0.443	0.207
-254.107	800.000	0.060	0.232
-253.092	-200.000	-0.010	-0.352
-252.078	-169.629	0.305	0.011
-251.063	-90.744	-0.483	-0.137
-250.049	291.784	-0.057	-0.102
-249.034	392.619	-0.054	0.111
-248.019	-200.000	0.011	0.216
-247.005	-200.000	0.027	0.161
-245.990	312.252	-0.049	-0.090
-244.976	73.479	-0.174	0.179
-243.961	-200.000	0.002	-0.167
-242.946	693.733	0.208	0.535
-241.932	326.694	0.083	-0.156
-240.917	579.866	-0.083	-0.200
-239.903	38.320	-0.173	0.151
-238.888	254.949	0.182	0.305
-237.873	-3.375	-0.155	-0.106
-236.859	371.313	-0.080	0.158
-235.844	-148.679	0.183	0.015
-234.830	713.816	-0.121	0.313
-233.815	39.299	-0.130	-0.114
-232.800	56.237	-0.080	-0.076
-231.786	-7.347	-0.098	-0.065
-230.771	-86.451	0.224	0.067
-229.757	-200.000	-0.004	0.222
-228.742	348.273	0.160	-0.308
-227.727	578.328	0.080	0.191
-226.713	-91.358	-0.293	-0.082
-225.698	-200.000	-0.005	0.057
-224.684	-200.000	0.010	0.142
-223.669	-105.309	-0.223	-0.050
-222.655	-111.863	-0.144	-0.029
-221.640	43.440	0.083	0.074
-220.625	-200.000	0.027	-0.219
-219.611	-200.000	0.046	0.403
-218.596	614.838	0.081	0.197
-217.582	478.769	0.147	0.326
-216.567	107.129	0.181	0.210
-215.552	38.667	-0.033	0.029
-214.538	468.017	0.177	0.388
-213.523	-120.871	0.276	-0.046
-212.509	207.282	0.060	0.091
-211.494	-200.000	0.004	0.285
-210.479	-88.077	0.063	-0.019
-209.465	108.156	-0.145	-0.169
-208.450	-104.503	-0.365	0.083
-207.436	-200.000	0.035	-0.349
-206.421	153.581	-0.026	0.035
-205.406	-200.000	0.006	0.180
-204.392	800.000	-0.088	-0.296
-203.377	-67.620	0.332	-0.127
-202.363	-67.500	0.265	-0.102
-201.348	-200.000	0.060	0.303
-200.333	-60.590	-0.178	-0.074
-199.319	-200.000	-0.023	0.296
-198.304	-200.000	-0.012	-0.237
-197.290	800.000	0.054	0.172
-196.275	800.000	-0.071	-0.298
-195.260	15.557	-0.141	-0.108
-194.246	792.575	0.050	0.135
-193.231	-200.000	-0.075	0.341
-192.217	14.279	0.099	0.076
-191.202	104.095	0.021	-0.025
-190.187	522.901	0.082	0.189
-189.173	-6.869	0.287	0.191
-188.158	61.554	-0.309	0.300
-187.144	-179.036	0.338	0.007
-186.129	-2.949	0.214	-0.146
-185.114	-133.596	-0.079	0.010
-184.100	-36.818	0.224	-0.117
-183.085	-48.544	-0.144	-0.068
-182.071	-122.266	-0.080	-0.013
-181.056	-104.826	0.332	0.074
-180.042	-82.139	-0.412	0.131
-179.027	104.669	-0.136	-0.157
-178.012	107.012	-0.042	-0.049
-176.998	800.000	-0.015	-0.050
-175.983	-116.399	0.151	-0.027
-174.969	800.000	0.066	0.200
-173.954	215.792	-0.098	0.152
-172.939	51.527	0.118	-0.110
-171.925	200.550	0.052	-0.078
-170.910	-127.504	0.282	0.040
-169.896	792.980	0.098	0.264
-168.881	-0.226	-0.202	-0.140
-167.866	298.175	0.155	-0.279
-166.852	-157.382	-0.202	0.012
-165.837	800.000	0.021	-0.061
-164.823	-45.002	0.210	0.102
-163.808	-1.064	0.056	-0.039
-162.793	-93.261	-0.310	0.084
-161.779	430.176	-0.027	-0.057
-160.764	406.223	-0.141	-0.291
-159.750	-83.343	0.349	0.109
-158.735	800.000	-0.075	-0.233
-157.720	52.164	0.321	-0.298
-156.706	-112.949	0.274	0.053
-155.691	-9.030	-0.079	0.052
-154.677	265.582	-0.090	0.152
-153.662	800.000	-0.015	0.063
-152.647	-15.929	-0.144	-0.090
-151.633	-12.936	0.027	0.017
-150.618	-2.281	-0.089	-0.061
-149.604	534.690	0.105	0.243
-148.589	-117.114	0.137	-0.024
-147.574	-200.000	0.003	-0.043
-146.560	96.046	0.164	0.183
-145.545	-200.000	-0.014	-0.060
-144.531	-200.000	0.041	-0.235
-143.516	251.919	-0.065	-0.108
-142.502	-160.002	0.342	-0.018
-141.487	-103.500	0.329	-0.075
-140.472	629.699	-0.049	0.122
-139.458	-69.900	0.052	0.019
-138.443	66.553	0.314	0.311
-137.429	-200.000	-0.031	-0.264
-136.414	-200.000	-0.005	0.166
-135.399	-200.000	0.022	0.234
-134.385	-99.238	0.453	-0.112
-133.370	-89.870	-0.287	0.082
-132.356	82.721	-0.061	0.065
-131.341	319.768	0.117	-0.217
-130.326	800.000	-0.030	-0.114
-129.312	-37.090	0.139	0.073
-128.297	-120.756	0.047	-0.008
-127.283	29.836	0.300	0.249
-126.268	139.054	0.074	0.095
-125.253	800.000	-0.050	0.197
-124.239	-192.072	-0.220	-0.002
-123.224	142.460	0.198	-0.256
-122.210	-200.000	-0.085	-0.410
-121.195	155.269	0.136	-0.182
-120.180	-123.914	0.329	0.051
-119.166	-153.312	-0.078	-0.005
-118.151	-200.000	-0.007	0.145
-117.137	-31.213	-0.026	0.014
-116.122	-18.475	-0.205	0.125
-115.107	228.191	0.100	-0.159
-114.093	-4.610	-0.103	0.069
-113.078	-200.000	-0.021	0.436
-112.064	298.278	-0.128	0.229
-111.049	49.701	0.254	0.233
-110.034	76.297	0.249	0.257
-109.020	18.429	0.279	0.217
-108.005	-200.000	-0.060	0.261
-106.991	-121.628	0.201	0.032
-105.976	-95.890	-0.297	0.077
-104.962	58.364	0.288	0.275
-103.947	12.474	-0.086	-0.064
-102.932	-112.018	0.373	0.073
-101.918	-171.737	-0.204	0.007
-100.903	-168.666	0.347	-0.013
-99.889	64.392	0.126	-0.124
-98.874	262.899	-0.027	0.046
-97.859	-200.000	-0.086	0.450
-96.845	-29.092	-0.338	-0.189
-95.830	-53.915	0.186	-0.082
-94.816	243.838	-0.112	0.183
-93.801	-200.000	0.013	-0.158
-92.786	-13.511	-0.126	-0.079
-91.772	800.000	0.010	0.039
-90.757	-200.000	0.022	0.104
-89.743	-14.848	0.104	0.065
-88.728	-130.549	0.363	0.048
-87.713	-121.684	-0.216	0.035
-86.699	800.000	-0.084	-0.284
-85.684	11.467	-0.095	-0.071
-84.670	-200.000	0.043	-0.273
-83.655	-200.000	-0.007	-0.063
-82.640	-121.257	0.024	0.004
-81.626	-200.000	-0.032	0.154
-80.611	47.359	0.156	0.141
-79.597	-200.000	0.032	-0.150
-78.582	310.803	-0.146	-0.267
-77.567	89.860	0.314	-0.341
-76.553	152.070	-0.133	0.177
-75.538	-42.665	0.339	0.168
-74.524	60.814	0.168	0.162
-73.509	-200.000	0.017	-0.078
-72.494	-5.832	-0.153	0.102
-71.480	183.554	0.062	-0.089
-70.465	132.617	0.226	0.284
-69.451	-7.850	-0.301	0.198
-68.436	-200.000	-0.008	-0.117
-67.422	-56.092	0.292	-0.126
-66.407	28.917	-0.174	-0.143
-65.392	192.212	-0.214	0.314
-64.378	169.305	-0.186	-0.258
-63.363	-180.754	0.308	0.006
-62.349	46.128	0.183	0.165
-61.334	151.600	-0.988	-1.309
-60.319	61.195	0.719	0.694
-59.305	279.500	-0.680	-1.180
-58.290	188.307	1.093	1.588
-57.276	800.000	0.420	1.388
-56.261	-200.000	136.364	619.421
-55.246	338.164	1644.419	3109.477
-54.232	135.768	2795.695	3537.217
-53.217	76.908	2307.812	2380.907
-52.203	27.580	1909.432	1561.163
-51.188	22.045	1703.519	1350.324
-50.173	20.273	1666.701	1307.740
-49.159	41.410	1741.498	1530.815
-48.144	37.896	1749.813	1510.894
-47.130	21.449	1701.562	1343.980
-46.115	19.286	1685.846	1315.026
-45.100	19.144	1680.519	1309.737
-44.086	19.046	1678.431	1307.313
-43.071	19.169	1675.081	1305.583
-42.057	19.082	1672.713	1303.029
-41.042	19.046	1671.184	1301.513
-40.027	19.046	1669.501	1300.151
-39.013	19.108	1667.527	1299.031
-37.998	19.036	1666.511	1297.644
-36.984	19.094	1664.698	1296.619
-35.969	19.177	1663.078	1295.927
-34.954	19.210	1661.573	1294.955
-33.940	19.187	1659.750	1293.306
-32.925	19.177	1658.024	1291.839
-31.911	19.064	1656.609	1289.839
-30.896	19.079	1655.236	1288.828
-29.881	19.125	1653.285	1287.601
-28.867	19.173	1651.793	1286.745
-27.852	19.204	1650.567	1285.971
-26.838	19.097	1649.071	1283.959
-25.823	19.191	1647.444	1283.344
-24.809	19.213	1646.300	1282.567
-23.794	19.133	1645.248	1281.099
-22.779	19.201	1643.690	1280.340
-21.765	19.289	1642.115	1279.719
-20.750	19.177	1640.531	1277.596
-19.736	19.191	1639.596	1276.926
-18.721	19.350	1637.390	1276.334
-17.706	19.192	1635.874	1273.932
-16.692	19.227	1634.516	1273.084
-15.677	19.262	1633.333	1272.367
-14.663	19.170	1632.094	1270.676
-13.648	19.240	1630.299	1269.745
-12.633	19.272	1628.739	1268.715
-11.619	19.302	1626.991	1267.521
-10.604	19.233	1626.419	1266.517
-9.590	19.278	1624.835	1265.561
-8.575	19.258	1623.054	1263.982
-7.560	19.215	1622.877	1263.479
-6.546	19.205	1621.424	1262.221
-5.531	19.264	1620.529	1261.908
-4.517	19.176	1619.713	1260.578
-3.502	19.156	1618.746	1259.632
-2.487	19.354	1616.388	1259.194
-1.473	18.948	1603.916	1246.480
-0.458	16.222	1584.743	1211.982
0.556	11.805	1586.793	1181.917
1.571	9.766	1611.417	1185.180
2.586	9.640	1623.665	1193.152
3.600	9.265	1568.305	1149.689
4.615	5.291	1463.481	1046.180
5.629	1.242	1408.624	980.743
6.644	0.681	1401.721	972.246
7.659	0.531	1401.132	970.782
8.673	0.515	1400.309	970.026
9.688	0.483	1397.457	967.757
10.702	0.445	1394.327	965.260
11.717	2.504	1396.185	979.646
12.731	8.157	1404.649	1021.801
13.746	14.356	1414.141	1068.487
14.761	16.902	1417.874	1087.567
15.775	16.425	1416.967	1083.719
16.790	15.647	1413.483	1075.975
17.804	14.866	1411.136	1069.105
18.819	14.448	1409.896	1065.399
19.834	14.211	1408.921	1063.052
20.848	13.987	1407.676	1060.589
21.863	13.717	1406.147	1057.624
22.877	13.694	1404.603	1056.220
23.892	13.539	1403.899	1054.611
24.907	13.613	1403.238	1054.495
25.921	13.604	1402.301	1053.640
26.936	13.543	1401.491	1052.550
27.950	13.723	1399.967	1052.452
28.965	13.721	1399.258	1051.815
29.980	13.742	1398.476	1051.265
30.994	13.734	1397.452	1050.355
32.009	13.805	1396.068	1049.670
33.023	13.779	1395.498	1048.982
34.038	13.683	1394.475	1047.517
35.053	13.629	1393.084	1046.037
36.067	13.733	1391.793	1045.629
37.082	13.716	1390.735	1044.634
38.096	13.725	1390.013	1044.059
39.111	13.671	1389.227	1043.037
40.126	13.684	1388.418	1042.415
41.140	13.595	1387.749	1041.264
42.155	13.570	1387.148	1040.565
43.169	13.581	1387.192	1040.575
44.184	13.547	1387.041	1040.156
45.199	13.638	1386.193	1039.996
46.213	13.570	1385.734	1039.137
47.228	13.633	1384.891	1038.809
48.242	13.630	1383.423	1037.594
49.257	13.644	1381.848	1036.406
50.271	13.594	1380.368	1034.893
51.286	13.661	1379.177	1034.325
52.301	13.664	1377.873	1033.278
53.315	13.681	1376.755	1032.454
54.330	13.515	1376.201	1030.915
55.344	13.489	1374.958	1029.730
56.359	13.560	1373.701	1029.137
57.374	13.532	1372.934	1028.301
58.388	13.555	1372.183	1027.786
59.403	13.612	1371.239	1027.344
60.417	13.570	1370.863	1026.710
61.432	13.496	1370.141	1025.619
62.447	13.587	1368.740	1025.043
63.461	13.457	1367.808	1023.452
64.476	13.571	1366.643	1023.191
65.490	13.539	1365.529	1022.072
66.505	13.553	1363.770	1020.753
67.520	13.565	1362.495	1019.780
68.534	13.491	1361.588	1018.558
69.549	13.507	1360.597	1017.820
70.563	13.590	1359.183	1017.182
71.578	13.542	1358.255	1016.106
72.593	13.432	1357.265	1014.598
73.607	13.422	1356.536	1013.903
74.622	13.450	1355.527	1013.232
75.636	13.395	1355.360	1012.681
76.651	13.450	1354.065	1011.963
77.666	13.439	1353.766	1011.577
78.680	13.472	1352.922	1011.063
79.695	13.554	1351.853	1010.674
80.709	13.546	1351.116	1009.981
81.724	13.524	1350.475	1009.283
82.739	13.547	1349.759	1008.796
83.753	13.571	1348.432	1007.860
84.768	13.593	1347.566	1007.258
85.782	13.650	1345.770	1006.176
86.797	13.664	1344.742	1005.403
87.812	13.652	1343.442	1004.270
88.826	13.620	1342.085	1002.970
89.841	13.631	1341.349	1002.398
90.855	13.700	1340.407	1002.020
91.870	13.700	1339.380	1001.169
92.884	13.710	1338.239	1000.282
93.899	13.793	1337.168	999.894
94.914	13.750	1337.251	999.610
95.928	13.766	1336.133	998.782
96.943	13.802	1334.761	997.885
97.957	13.710	1334.037	996.702
98.972	13.641	1332.948	995.387
99.987	13.640	1332.142	994.692
101.001	13.763	1330.808	994.346
102.016	13.759	1329.764	993.452
103.030	13.711	1329.177	992.637
104.045	13.722	1327.819	991.602
105.060	13.703	1326.389	990.334
106.074	13.653	1325.588	989.348
107.089	13.746	1323.880	988.541
108.103	13.618	1322.680	986.793
109.118	13.576	1321.577	985.637
110.133	13.502	1320.521	984.320
111.147	13.591	1319.252	983.818
112.162	13.677	1317.313	982.792
113.176	13.759	1316.173	982.341
114.191	13.721	1315.432	981.474
115.206	13.580	1314.454	979.826
116.220	13.606	1312.699	978.581
117.235	13.610	1312.097	978.070
118.249	13.673	1310.703	977.320
119.264	13.605	1309.733	976.107
120.279	13.638	1308.585	975.362
121.293	13.667	1307.079	974.320
122.308	13.643	1306.727	973.830
123.322	13.584	1305.540	972.514
124.337	13.656	1304.537	972.105
125.352	13.587	1303.219	970.631
126.366	13.482	1302.188	969.165
127.381	13.548	1301.102	968.653
128.395	13.555	1300.402	968.089
129.410	13.639	1299.063	967.496
130.424	13.591	1298.576	966.770
131.439	13.611	1297.081	965.685
132.454	13.739	1295.747	965.354
133.468	13.648	1294.832	964.060
134.483	13.658	1294.127	963.508
135.497	13.600	1293.405	962.547
136.512	13.638	1292.451	961.969
137.527	13.677	1290.704	960.812
138.541	13.756	1288.698	959.690
139.556	13.770	1287.555	958.836
140.570	13.786	1287.016	958.442
141.585	13.709	1285.961	957.126
142.600	13.859	1284.710	956.978
143.614	13.951	1283.398	956.445
144.629	13.845	1282.548	955.113
145.643	13.756	1281.798	953.962
146.658	13.755	1280.323	952.775
147.673	13.789	1278.468	951.505
148.687	13.773	1277.923	950.921
149.702	13.844	1275.913	949.749
150.716	13.703	1275.383	948.464
151.731	13.923	1273.750	948.422
152.746	13.789	1272.992	947.010
153.760	13.940	1271.774	946.878
154.775	13.925	1270.562	945.810
155.789	13.915	1269.514	944.885
156.804	13.916	1268.300	943.905
157.819	13.949	1267.024	943.059
158.833	13.932	1266.061	942.166
159.848	14.017	1265.060	941.815
160.862	13.985	1264.406	941.067
161.877	14.017	1262.886	940.032
162.892	13.906	1261.968	938.637
163.906	13.947	1261.224	938.230
164.921	13.929	1260.136	937.241
165.935	13.952	1259.468	936.789
166.950	13.989	1258.671	936.322
167.964	14.056	1257.697	935.893
168.979	14.086	1256.930	935.408
169.994	13.954	1256.656	934.377
171.008	14.043	1255.533	933.960
172.023	14.091	1254.577	933.437
173.037	14.053	1254.290	932.924
174.052	14.134	1253.143	932.444
175.067	14.120	1252.202	931.581
176.081	14.058	1250.964	930.232
177.096	14.092	1249.985	929.614
178.110	14.047	1248.814	928.410
179.125	14.051	1247.362	927.267
180.140	14.172	1245.752	926.664
181.154	14.067	1245.631	925.910
182.169	14.159	1243.949	925.087
183.183	14.201	1242.798	924.383
184.198	14.189	1241.865	923.538
185.213	14.262	1240.365	922.745
186.227	14.220	1239.468	921.766
187.242	14.236	1238.248	920.864
188.256	14.358	1237.412	920.839
189.271	14.294	1236.346	919.612
190.286	14.134	1235.745	918.196
191.300	14.131	1234.748	917.359
192.315	14.223	1233.873	917.133
193.329	14.251	1233.390	916.846
194.344	14.214	1232.828	916.146
195.359	14.206	1232.075	915.459
196.373	14.285	1231.570	915.438
197.388	14.353	1231.391	915.597
198.402	14.439	1230.511	915.334
199.417	14.448	1230.009	914.932
200.432	14.469	1228.835	914.093
201.446	14.569	1227.881	913.851
202.461	14.455	1227.204	912.639
203.475	14.526	1226.165	912.177
204.490	14.467	1225.202	911.059
205.504	14.536	1223.863	910.354
206.519	14.563	1222.215	909.199
207.534	14.482	1221.509	908.150
208.548	14.458	1220.344	907.073
209.563	14.469	1219.537	906.454
210.577	14.529	1218.736	906.105
211.592	14.669	1217.404	905.791
212.607	14.713	1216.684	905.416
213.621	14.588	1216.317	904.383
214.636	14.614	1215.197	903.611
215.650	14.636	1214.406	903.062
216.665	14.728	1212.978	902.420
217.680	14.702	1212.106	901.550
218.694	14.809	1211.207	901.376
219.709	14.715	1210.876	900.547
220.723	14.694	1209.582	899.392
221.738	14.765	1209.286	899.471
222.753	14.762	1208.264	898.620
223.767	14.850	1207.402	898.372
224.782	14.919	1206.764	898.187
225.796	14.886	1206.395	897.655
226.811	14.902	1205.120	896.714
227.826	14.933	1204.595	896.411
228.840	14.922	1204.178	895.962
229.855	14.870	1203.483	895.084
230.869	14.947	1202.353	894.578
231.884	14.855	1201.681	893.505
232.899	14.856	1200.860	892.824
233.913	14.916	1199.992	892.419
234.928	14.964	1199.215	892.016
235.942	14.860	1198.574	890.908
236.957	14.825	1198.024	890.233
237.972	14.887	1196.791	889.569
238.986	14.841	1196.489	889.019
240.001	14.960	1195.746	889.023
241.015	14.907	1195.311	888.340
242.030	15.027	1193.999	887.923
243.045	15.015	1193.176	887.168
244.059	14.954	1192.739	886.443
245.074	15.038	1191.593	885.955
246.088	15.042	1191.402	885.755
247.103	14.989	1190.301	884.580
248.117	15.226	1189.539	885.187
249.132	15.239	1188.693	884.546
250.147	15.320	1188.020	884.397
251.161	15.281	1186.897	883.278
252.176	15.192	1186.739	882.613
253.190	15.212	1185.717	881.877
254.205	15.213	1185.439	881.598
255.220	15.320	1184.416	881.320
256.234	15.290	1183.832	880.653
257.249	15.412	1183.151	880.710
258.263	15.304	1182.554	879.618
259.278	15.415	1181.659	879.458
260.293	15.506	1181.239	879.542
261.307	15.502	1180.467	878.873
262.322	15.493	1180.248	878.581
263.336	15.455	1179.474	877.729
264.351	15.494	1178.788	877.347
265.366	15.549	1177.999	876.967
266.380	15.507	1177.460	876.268
267.395	15.596	1176.412	875.878
268.409	15.506	1175.857	874.918
269.424	15.599	1174.991	874.681
270.439	15.506	1174.620	873.840
271.453	15.599	1173.638	873.517
272.468	15.591	1172.665	872.673
273.482	15.467	1172.191	871.602
274.497	15.544	1171.780	871.616
275.512	15.644	1170.766	871.303
276.526	15.610	1170.134	870.580
277.541	15.491	1169.582	869.477
278.555	15.620	1168.720	869.425
279.570	15.669	1167.726	868.864
280.585	15.720	1166.990	868.503
281.599	15.774	1165.734	867.769
282.614	15.730	1165.071	866.974
283.628	15.835	1163.561	866.309
284.643	15.802	1162.905	865.576
285.657	15.785	1162.073	864.791
286.672	15.669	1161.475	863.675
287.687	15.835	1160.220	863.518
288.701	15.842	1159.581	863.003
289.716	15.899	1158.446	862.372
290.730	15.693	1158.379	861.193
291.745	15.872	1157.227	861.174
292.760	15.802	1156.984	860.561
293.774	15.863	1156.364	860.335
294.789	15.959	1155.855	860.371
295.803	15.943	1155.069	859.628
296.818	16.027	1154.076	859.242
297.833	15.910	1153.083	857.828
298.847	15.884	1152.618	857.276
299.862	16.041	1151.271	856.995
300.876	16.019	1151.115	856.690
301.891	16.041	1150.221	856.063
302.906	16.115	1149.264	855.648
303.920	15.965	1149.039	854.647
304.935	16.153	1148.455	855.087
305.949	16.200	1147.247	854.352
306.964	16.120	1146.977	853.668
307.979	16.108	1146.248	852.991
308.993	16.208	1145.135	852.591
310.008	16.323	1144.318	852.487
311.022	16.305	1143.585	851.775
312.037	16.224	1142.921	850.799
313.052	16.199	1141.827	849.784
314.066	16.270	1140.420	849.016
315.081	16.308	1140.133	848.920
316.095	16.191	1139.584	847.848
317.110	16.145	1138.654	846.852
318.125	16.284	1137.663	846.736
319.139	16.191	1137.161	845.821
320.154	16.204	1136.119	845.037
321.168	16.221	1135.919	844.897
322.183	16.241	1135.644	844.720
323.197	16.304	1134.780	844.316
324.212	16.236	1134.091	843.388
325.227	16.339	1133.408	843.323
326.241	16.353	1132.892	842.930
327.256	16.316	1132.092	842.077
328.270	16.264	1131.253	841.122
329.285	16.322	1130.453	840.742
330.300	16.352	1129.289	839.950
331.314	16.385	1128.277	839.287
332.329	16.357	1127.298	838.343
333.343	16.377	1126.268	837.605
334.358	16.443	1125.361	837.184
335.373	16.396	1124.742	836.417
336.387	16.469	1123.738	835.956
337.402	16.526	1123.030	835.636
338.416	16.412	1122.639	834.710
339.431	16.423	1121.844	834.096
340.446	16.657	1121.107	834.629
341.460	16.513	1120.818	833.631
342.475	16.668	1119.460	833.312
343.489	16.656	1118.409	832.395
344.504	16.833	1117.084	832.206
345.519	16.599	1116.925	830.861
346.533	16.664	1115.841	830.303
347.548	16.747	1115.231	830.182
348.562	16.738	1114.269	829.348
349.577	16.761	1113.674	828.947
350.592	16.600	1113.348	827.839
351.606	16.626	1112.499	827.261
352.621	16.631	1112.031	826.867
353.635	16.783	1111.024	826.785
354.650	16.682	1110.413	825.767
355.665	16.795	1109.522	825.583
356.679	16.796	1109.121	825.215
357.694	16.947	1108.272	825.244
358.708	16.849	1107.748	824.307
359.723	16.869	1107.164	823.893
360.738	16.813	1106.461	823.028
361.752	16.934	1105.882	823.113
362.767	16.944	1105.087	822.494
363.781	16.870	1104.589	821.692
364.796	16.858	1104.044	821.157
365.810	16.970	1103.256	821.041
366.825	17.005	1102.707	820.728
367.840	17.160	1101.784	820.715
368.854	17.138	1101.217	820.116
369.869	17.061	1100.728	819.309
370.883	17.023	1100.000	818.509
371.898	17.028	1099.183	817.856
372.913	17.074	1098.360	817.391
373.927	17.171	1097.965	817.493
374.942	17.249	1097.085	817.136
375.956	17.233	1096.798	816.776
376.971	17.200	1096.403	816.253
377.986	17.180	1095.817	815.647
379.000	17.306	1094.883	815.484
380.015	17.192	1094.834	814.827
381.029	17.247	1094.019	814.413
382.044	17.314	1093.183	814.037
383.059	17.370	1092.269	813.553
384.073	17.283	1091.824	812.737
385.088	17.343	1090.582	812.027
386.102	17.432	1089.722	811.735
387.117	17.406	1088.503	810.635
388.132	17.347	1087.878	809.816
389.146	17.421	1086.981	809.429
390.161	17.360	1086.362	808.605
391.175	17.251	1086.155	807.862
392.190	17.345	1085.223	807.546
393.205	17.427	1084.313	807.185
394.219	17.494	1083.565	806.875
395.234	17.423	1082.680	805.808
396.248	17.458	1081.576	805.079
397.263	17.410	1080.539	804.008
398.278	17.382	1080.135	803.506
399.292	17.466	1079.223	803.151
400.307	17.396	1078.676	802.345
401.321	17.537	1077.648	802.173
402.336	17.267	1077.425	800.666
403.350	17.446	1076.773	800.952
404.365	17.472	1076.329	800.673
405.380	17.526	1075.022	799.883
406.394	17.571	1073.803	799.114
407.409	17.557	1073.422	798.696
408.423	17.681	1072.925	798.838
409.438	17.643	1072.241	798.077
410.453	17.688	1071.266	797.494
411.467	17.701	1070.540	796.941
412.482	17.668	1070.219	796.480
413.496	17.885	1069.219	796.679
414.511	17.776	1068.767	795.760
415.526	17.868	1068.554	795.961
416.540	17.872	1067.902	795.424
417.555	17.901	1067.310	795.046
418.569	17.970	1066.616	794.780
419.584	17.905	1066.324	794.192
420.599	17.974	1065.698	793.975
421.613	109.576	1333.190	1493.479
422.628	101.307	1372.114	1493.569
