DTS Sentinel unit serial number:	SN413079Multiplexer serial number:	ORYXHardware model number:	OX4-SRSoftware version number:	ORYX F/W v4.00 Oryx Data Collector v3.7.2.0data status	okinstallation	princeton_trtdifferential loss correction	single-endedforward channel	channel 2reverse channel	N/Adate	2019/09/19time	08:31:35forward acquisition time	60.00reverse acquisition time	0.00gamma	496.2192k internal	0.2352k external	0.2352temperature offset calibration	1.0003default loss term (dB/km)	0.3790temperature slope calibration	1.0000multiplexer offset coefficient	1.0000multiplexer slope coefficient	1.0000fibre end	0.00T internal ref (°C)	20.67T ext. ref 1 (°C)	0.57T ext. ref 2 (°C)	16.38length (m)	temperature (°C)	Stokes	anti-Stokes-747.200	263.052	0.187	0.324
-746.185	195.731	0.202	0.307
-745.171	106.485	0.196	-0.232
-744.156	123.616	-0.263	0.329
-743.142	11.056	-0.059	0.045
-742.127	-65.266	-0.036	-0.015
-741.112	206.415	-0.076	0.118
-740.098	11.653	-0.132	0.101
-739.083	800.000	0.037	0.132
-738.069	-187.167	-0.106	-0.001
-737.054	37.218	0.174	0.153
-736.039	-128.108	-0.311	0.044
-735.025	-11.276	0.356	-0.234
-734.010	273.499	-0.183	-0.322
-732.996	-40.342	-0.264	0.137
-731.981	-135.276	-0.197	-0.024
-730.966	7.336	-0.329	0.245
-729.952	-200.000	-0.012	-0.223
-728.937	130.249	0.216	-0.275
-727.923	216.254	-0.116	0.184
-726.908	10.435	-0.044	0.033
-725.894	-71.590	-0.117	-0.044
-724.879	-16.734	0.198	0.125
-723.864	652.046	0.137	0.349
-722.850	-200.000	-0.079	-0.372
-721.835	-200.000	-0.004	0.195
-720.821	456.131	-0.054	-0.118
-719.806	-45.668	0.202	0.100
-718.791	-1.640	-0.088	0.062
-717.777	-200.000	0.012	-0.316
-716.762	-54.995	0.234	-0.105
-715.748	-79.022	0.217	0.074
-714.733	800.000	0.132	-0.455
-713.718	-145.898	-0.208	-0.018
-712.704	-64.967	-0.062	-0.025
-711.689	-190.414	-0.072	0.001
-710.675	58.829	-0.177	-0.173
-709.660	22.675	-0.343	0.280
-708.645	92.894	0.120	-0.135
-707.631	-200.000	-0.009	-0.129
-706.616	-8.162	0.194	0.130
-705.602	20.206	0.084	0.067
-704.587	91.746	-0.034	-0.039
-703.572	-200.000	-0.084	-0.463
-702.558	433.874	-0.138	0.298
-701.543	-146.759	-0.171	0.015
-700.529	84.738	0.111	-0.121
-699.514	32.933	-0.267	0.230
-698.499	219.671	0.043	-0.069
-697.485	-28.391	-0.243	0.140
-696.470	156.306	-0.134	-0.184
-695.456	599.883	-0.148	0.364
-694.441	329.078	0.099	0.190
-693.426	-200.000	-0.048	-0.211
-692.412	433.576	-0.034	0.074
-691.397	-89.613	0.148	-0.043
-690.383	27.052	0.290	-0.242
-689.368	-200.000	0.036	0.320
-688.354	524.650	0.078	-0.184
-687.339	323.015	-0.099	-0.188
-686.324	-112.887	0.016	-0.003
-685.310	412.054	-0.049	-0.103
-684.295	-189.092	0.181	-0.002
-683.281	-200.000	0.038	-0.199
-682.266	40.136	-0.118	0.106
-681.251	-86.280	0.122	-0.038
-680.237	-200.000	0.088	0.393
-679.222	161.714	0.053	0.074
-678.208	-35.679	-0.038	0.021
-677.193	-20.827	-0.343	0.209
-676.178	-183.388	-0.047	-0.001
-675.164	-86.268	0.281	-0.086
-674.149	45.284	-0.217	-0.199
-673.135	134.828	-0.169	0.218
-672.120	-143.231	-0.133	-0.013
-671.105	800.000	0.146	-0.429
-670.091	-169.091	-0.178	0.007
-669.076	104.765	0.128	-0.150
-668.062	196.045	0.048	-0.072
-667.047	24.020	-0.212	-0.173
-666.032	-143.126	-0.311	-0.030
-665.018	-111.727	-0.179	0.036
-664.003	-200.000	-0.026	-0.187
-662.989	-125.033	0.138	0.021
-661.974	-42.943	-0.035	0.018
-660.959	800.000	-0.018	-0.075
-659.945	800.000	-0.113	-0.323
-658.930	214.182	-0.039	0.062
-657.916	-200.000	-0.007	-0.118
-656.901	26.802	0.207	-0.172
-655.886	636.772	-0.050	0.126
-654.872	506.583	0.089	0.205
-653.857	-200.000	0.006	0.403
-652.843	-52.163	0.152	-0.070
-651.828	-10.916	0.080	-0.053
-650.814	244.655	-0.038	0.064
-649.799	-112.876	0.321	-0.063
-648.784	-97.969	-0.329	0.084
-647.770	-0.828	0.242	0.171
-646.755	-83.433	0.153	0.049
-645.741	-77.864	-0.147	0.051
-644.726	13.886	-0.382	0.295
-643.711	357.294	0.094	0.187
-642.697	-144.177	0.159	0.015
-641.682	155.242	-0.230	-0.314
-640.668	-121.854	0.099	0.016
-639.653	-33.680	-0.045	-0.025
-638.638	296.002	0.065	0.118
-637.624	242.838	0.057	0.095
-636.609	-140.574	-0.130	0.013
-635.595	568.225	-0.078	-0.188
-634.580	800.000	-0.019	-0.054
-633.565	-200.000	-0.075	-0.346
-632.551	-48.451	-0.329	0.157
-631.536	694.014	0.143	0.372
-630.522	-34.209	-0.140	-0.077
-629.507	210.260	-0.087	-0.136
-628.492	24.258	0.105	-0.086
-627.478	305.273	-0.148	-0.273
-626.463	-9.805	-0.226	-0.149
-625.449	-200.000	0.042	-0.217
-624.434	-74.096	0.434	-0.156
-623.419	439.180	0.080	-0.173
-622.405	149.958	-0.320	-0.431
-621.390	39.169	0.082	-0.073
-620.376	22.684	-0.036	-0.029
-619.361	-177.546	-0.144	0.003
-618.346	87.035	0.109	-0.119
-617.332	244.421	-0.138	0.230
-616.317	209.601	0.197	-0.306
-615.303	-57.286	0.148	-0.065
-614.288	331.479	0.063	0.121
-613.273	-54.397	0.095	0.043
-612.259	377.687	-0.127	-0.257
-611.244	-200.000	-0.010	0.050
-610.230	53.020	0.038	0.036
-609.215	87.748	-0.226	0.248
-608.201	-3.196	0.085	-0.059
-607.186	95.015	-0.195	0.220
-606.171	-99.703	0.144	-0.036
-605.157	249.669	0.148	-0.248
-604.142	95.623	-0.267	0.302
-603.128	-50.449	-0.148	-0.069
-602.113	-200.000	-0.028	0.247
-601.098	615.191	0.083	-0.206
-600.084	-200.000	0.015	-0.232
-599.069	-109.348	-0.080	-0.017
-598.055	422.497	-0.131	-0.279
-597.040	-200.000	-0.055	-0.363
-596.025	9.968	-0.170	-0.128
-595.011	279.132	-0.108	-0.191
-593.996	-177.329	-0.281	0.007
-592.982	116.867	-0.325	-0.396
-591.967	-123.602	0.476	-0.075
-590.952	47.234	0.223	0.206
-589.938	328.929	0.012	-0.022
-588.923	-97.263	-0.295	0.076
-587.909	-56.653	0.303	-0.133
-586.894	-200.000	-0.015	0.231
-585.879	-149.792	-0.281	0.022
-584.865	-200.000	0.040	-0.252
-583.850	-200.000	-0.012	-0.245
-582.836	-139.622	-0.287	0.030
-581.821	-87.427	0.204	-0.061
-580.806	-124.193	0.298	-0.046
-579.792	-147.184	-0.212	-0.018
-578.777	350.760	0.137	-0.268
-577.763	553.867	-0.041	0.098
-576.748	800.000	0.121	-0.358
-575.733	10.219	-0.240	0.181
-574.719	329.722	0.115	-0.219
-573.704	74.879	-0.123	-0.129
-572.690	-156.186	-0.089	-0.006
-571.675	-157.622	-0.240	-0.014
-570.661	-152.597	-0.246	0.017
-569.646	240.356	0.124	0.205
-568.631	197.321	-0.140	0.212
-567.617	25.984	0.051	0.042
-566.602	-200.000	-0.002	-0.020
-565.588	59.428	-0.318	0.311
-564.573	89.129	0.158	-0.174
-563.558	-191.360	0.129	-0.001
-562.544	73.201	-0.171	-0.177
-561.529	221.430	-0.110	-0.175
-560.515	96.831	0.115	0.130
-559.500	-36.659	-0.202	-0.108
-558.485	85.748	-0.122	0.133
-557.471	800.000	0.039	0.125
-556.456	-200.000	-0.023	-0.159
-555.442	454.402	0.034	0.074
-554.427	117.348	0.194	0.236
-553.412	800.000	0.012	-0.038
-552.398	-167.861	-0.230	0.009
-551.383	20.121	-0.237	0.189
-550.369	-133.256	0.140	0.017
-549.354	-57.060	0.147	-0.064
-548.339	-121.563	-0.198	-0.033
-547.325	-118.065	-0.177	-0.031
-546.310	-117.573	-0.254	-0.045
-545.296	-50.789	-0.184	-0.085
-544.281	-200.000	0.025	-0.125
-543.266	-200.000	0.000	-0.043
-542.252	9.657	-0.327	-0.245
-541.237	-197.616	0.007	0.000
-540.223	-68.980	-0.141	-0.054
-539.208	-200.000	0.021	-0.252
-538.193	-200.000	-0.088	-0.473
-537.179	-20.655	-0.077	-0.047
-536.164	-44.953	0.225	0.111
-535.150	184.530	0.131	0.193
-534.135	-140.476	0.250	0.026
-533.121	-97.801	0.224	-0.057
-532.106	-183.311	-0.236	-0.004
-531.091	-127.645	-0.234	0.033
-530.077	193.646	-0.142	0.213
-529.062	-114.809	0.227	-0.043
-528.048	-67.328	-0.263	0.102
-527.033	800.000	0.066	-0.181
-526.018	-112.630	-0.153	-0.030
-525.004	-200.000	0.014	0.109
-523.989	-43.519	-0.411	0.205
-522.975	-39.443	-0.266	-0.138
-521.960	-1.031	0.440	-0.308
-520.945	-74.297	-0.177	-0.063
-519.931	-79.074	0.311	0.104
-518.916	800.000	0.041	-0.158
-517.902	136.756	0.151	0.195
-516.887	113.435	0.073	0.087
-515.872	-125.018	0.130	0.020
-514.858	-200.000	-0.020	0.137
-513.843	183.781	0.180	-0.263
-512.829	68.953	-0.155	-0.157
-511.814	234.202	-0.181	0.295
-510.799	-112.623	0.309	-0.061
-509.785	-140.911	0.465	0.047
-508.770	112.457	-0.246	0.294
-507.756	-121.224	-0.330	0.055
-506.741	-140.926	0.109	-0.011
-505.726	-82.148	0.189	-0.061
-504.712	322.067	-0.141	0.265
-503.697	-200.000	-0.010	-0.144
-502.683	-15.520	0.235	0.148
-501.668	-127.318	0.439	0.063
-500.653	15.145	0.332	0.257
-499.639	33.190	-0.397	0.340
-498.624	-11.495	-0.185	0.120
-497.610	-71.730	0.343	0.126
-496.595	-15.400	-0.174	-0.110
-495.581	-200.000	-0.270	-0.001
-494.566	-41.422	0.101	0.051
-493.551	99.125	0.141	-0.161
-492.537	-200.000	-0.007	0.195
-491.522	8.393	-0.200	0.149
-490.508	-187.854	0.343	-0.004
-489.493	-200.000	0.018	0.097
-488.478	-130.323	0.233	-0.031
-487.464	29.154	-0.232	0.194
-486.449	-141.263	-0.371	0.037
-485.435	-47.644	-0.307	-0.147
-484.420	-200.000	0.018	-0.191
-483.405	800.000	0.078	-0.337
-482.391	177.064	-0.091	-0.131
-481.376	800.000	0.052	-0.196
-480.362	25.591	-0.120	0.099
-479.347	-200.000	0.023	-0.166
-478.332	800.000	-0.049	0.188
-477.318	402.142	0.106	0.221
-476.303	514.795	-0.054	0.123
-475.289	-36.200	0.323	0.172
-474.274	153.244	-0.046	-0.062
-473.259	45.211	0.238	-0.217
-472.245	-44.024	-0.147	-0.073
-471.230	-117.087	-0.436	-0.078
-470.216	-79.553	0.233	-0.078
-469.201	800.000	-0.045	-0.147
-468.186	-60.293	-0.306	0.128
-467.172	-123.367	-0.037	0.006
-466.157	-30.452	0.270	0.151
-465.143	-200.000	-0.073	0.345
-464.128	263.176	0.107	-0.184
-463.113	-69.825	-0.112	-0.042
-462.099	0.174	-0.359	0.252
-461.084	-131.369	-0.446	-0.058
-460.070	-0.031	0.275	0.193
-459.055	-69.767	0.323	-0.122
-458.040	-75.624	0.279	-0.098
-457.026	326.815	0.159	-0.300
-456.011	592.645	0.171	-0.417
-454.997	20.702	-0.125	-0.100
-453.982	118.798	-0.108	0.132
-452.968	-200.000	0.000	0.005
-451.953	800.000	0.085	-0.270
-450.938	133.457	-0.164	-0.208
-449.924	-40.788	0.264	-0.135
-448.909	-9.727	-0.119	0.078
-447.895	-48.937	-0.178	-0.084
-446.880	800.000	0.105	0.294
-445.865	-18.467	-0.220	0.136
-444.851	-200.000	-0.042	0.318
-443.836	-200.000	-0.037	-0.247
-442.822	-131.929	-0.121	-0.016
-441.807	-67.615	0.203	-0.078
-440.792	35.816	0.223	0.193
-439.778	327.052	0.147	0.278
-438.763	-200.000	0.023	0.244
-437.749	-200.000	0.012	0.101
-436.734	89.294	-0.204	0.224
-435.719	-10.741	0.312	0.203
-434.705	31.966	0.157	-0.133
-433.690	-76.906	0.243	-0.084
-432.676	41.386	0.191	0.170
-431.661	76.734	-0.212	0.221
-430.646	-52.956	-0.065	-0.029
-429.632	234.637	0.047	0.076
-428.617	-110.301	0.360	-0.074
-427.603	91.938	0.103	-0.115
-426.588	45.060	0.107	0.097
-425.573	-41.110	0.161	0.082
-424.559	-200.000	0.080	-0.492
-423.544	-10.905	-0.113	0.073
-422.530	-69.643	-0.037	0.014
-421.515	77.539	0.057	-0.060
-420.500	279.643	-0.204	0.359
-419.486	-175.315	0.309	0.008
-418.471	12.921	0.096	-0.073
-417.457	-200.000	0.042	-0.214
-416.442	-140.868	0.228	0.023
-415.428	-88.476	0.126	0.037
-414.413	215.222	0.139	0.217
-413.398	-11.818	0.213	0.138
-412.384	800.000	0.106	0.351
-411.369	-86.671	-0.413	-0.125
-410.355	480.057	-0.036	0.081
-409.340	-69.555	0.101	-0.038
-408.325	27.472	-0.454	-0.376
-407.311	-11.526	0.241	-0.156
-406.296	-158.765	0.497	0.028
-405.282	148.035	-0.107	0.142
-404.267	81.197	-0.424	-0.451
-403.252	800.000	0.157	-0.506
-402.238	252.776	-0.080	-0.135
-401.223	413.281	0.120	0.252
-400.209	-200.000	0.038	-0.180
-399.194	-42.966	-0.345	0.172
-398.179	-114.294	0.288	-0.055
-397.165	-200.000	0.041	-0.187
-396.150	-69.825	0.072	0.027
-395.136	318.981	-0.111	0.207
-394.121	-200.000	0.460	0.000
-393.106	23.516	-0.243	-0.196
-392.092	-200.000	0.314	-0.001
-391.077	-28.078	-0.212	0.120
-390.063	659.010	-0.069	-0.173
-389.048	524.271	-0.034	-0.078
-388.033	-136.549	0.292	-0.033
-387.019	-51.427	-0.227	0.104
-386.004	-103.818	0.368	0.085
-384.990	800.000	-0.035	-0.119
-383.975	-14.673	0.031	0.020
-382.960	131.110	0.168	-0.212
-381.946	-44.238	-0.285	0.140
-380.931	275.266	-0.076	-0.132
-379.917	-90.375	-0.182	0.052
-378.902	-99.245	0.245	0.061
-377.888	-200.000	-0.019	-0.181
-376.873	-129.633	0.136	-0.019
-375.858	800.000	0.120	0.427
-374.844	-200.000	0.033	0.152
-373.829	-200.000	-0.010	0.260
-372.815	-200.000	-0.005	-0.060
-371.800	800.000	0.019	-0.069
-370.785	800.000	0.082	-0.255
-369.771	-200.000	-0.025	0.109
-368.756	171.783	-0.162	0.229
-367.742	-104.586	0.085	-0.019
-366.727	800.000	0.080	0.298
-365.712	-63.880	0.182	-0.073
-364.698	-43.117	-0.015	-0.007
-363.683	-200.000	0.021	-0.172
-362.669	-42.583	-0.121	-0.061
-361.654	-138.073	0.237	-0.026
-360.639	-103.890	0.112	0.026
-359.625	300.096	-0.159	-0.288
-358.610	59.930	0.067	-0.065
-357.596	-50.824	-0.111	0.051
-356.581	-127.736	0.576	0.082
-355.566	177.983	-0.025	0.035
-354.552	800.000	0.046	-0.128
-353.537	-36.959	0.221	-0.116
-352.523	-100.746	-0.264	-0.064
-351.508	48.288	0.056	-0.052
-350.493	229.314	0.179	0.287
-349.479	-200.000	-0.036	0.181
-348.464	800.000	-0.025	-0.086
-347.450	265.528	-0.105	0.180
-346.435	800.000	0.067	-0.236
-345.420	-200.000	0.010	-0.148
-344.406	-156.154	0.089	0.006
-343.391	-115.885	-0.268	0.049
-342.377	26.732	-0.202	0.166
-341.362	800.000	-0.110	0.305
-340.348	800.000	0.032	0.099
-339.333	399.123	-0.064	0.131
-338.318	800.000	0.047	0.185
-337.304	416.373	0.136	0.284
-336.289	-200.000	0.036	-0.169
-335.275	-200.000	-0.012	-0.139
-334.260	-76.833	-0.417	-0.143
-333.245	121.870	-0.147	0.180
-332.231	-138.412	0.287	-0.031
-331.216	115.561	0.139	0.166
-330.202	800.000	-0.046	-0.138
-329.187	-103.938	0.280	0.064
-328.172	322.052	-0.025	0.047
-327.158	-96.049	0.112	-0.029
-326.143	-200.000	0.007	-0.103
-325.129	15.340	0.038	-0.030
-324.114	-200.000	0.038	-0.178
-323.099	-45.459	-0.116	-0.057
-322.085	-138.003	0.188	-0.021
-321.070	-11.413	0.260	0.168
-320.056	-200.000	0.000	0.104
-319.041	800.000	0.039	-0.143
-318.026	-200.000	0.025	0.163
-317.012	-125.512	0.095	0.014
-315.997	-79.661	0.135	0.045
-314.983	-200.000	-0.038	0.405
-313.968	-67.188	0.384	0.148
-312.953	-200.000	0.008	0.038
-311.939	-200.000	0.009	0.047
-310.924	45.839	0.043	0.039
-309.910	-200.000	-0.013	0.108
-308.895	536.482	0.127	0.297
-307.880	21.059	-0.412	0.328
-306.866	-37.665	-0.071	-0.037
-305.851	54.878	0.225	-0.213
-304.837	2.708	-0.180	0.128
-303.822	-200.000	-0.022	0.374
-302.807	8.050	0.117	0.086
-301.793	220.354	-0.181	0.285
-300.778	-105.083	-0.080	0.018
-299.764	-97.581	0.119	0.030
-298.749	-200.000	0.019	-0.143
-297.735	-200.000	-0.026	-0.249
-296.720	394.723	0.119	0.242
-295.705	-28.243	0.160	-0.091
-294.691	177.833	0.191	-0.273
-293.676	606.586	-0.112	0.273
-292.662	800.000	0.004	0.018
-291.647	-200.000	0.038	-0.251
-290.632	-200.000	-0.037	0.212
-289.618	-35.639	0.366	0.194
-288.603	-200.000	0.016	0.105
-287.589	-98.983	-0.321	-0.080
-286.574	-151.688	0.272	0.020
-285.559	236.139	0.201	-0.325
-284.545	-31.370	-0.340	-0.187
-283.530	-200.000	-0.030	-0.220
-282.516	265.599	-0.145	-0.247
-281.501	-200.000	-0.005	0.033
-280.486	800.000	-0.090	-0.260
-279.472	35.404	-0.302	0.260
-278.457	-200.000	0.013	-0.241
-277.443	-200.000	-0.027	-0.212
-276.428	42.292	-0.231	0.205
-275.413	166.749	-0.189	-0.262
-274.399	112.188	0.090	-0.107
-273.384	800.000	-0.034	0.137
-272.370	84.152	0.158	0.169
-271.355	105.210	0.288	0.333
-270.340	12.544	-0.026	0.019
-269.326	182.843	-0.083	0.120
-268.311	20.637	-0.112	0.089
-267.297	111.258	0.093	-0.110
-266.282	706.034	0.112	-0.288
-265.267	114.770	0.073	0.087
-264.253	220.406	0.095	0.149
-263.238	-58.184	-0.188	0.080
-262.224	-155.700	0.271	-0.017
-261.209	121.909	0.179	-0.219
-260.195	68.387	0.064	0.064
-259.180	-102.174	-0.221	-0.052
-258.165	2.927	-0.068	-0.048
-257.151	312.686	0.178	0.326
-256.136	162.889	-0.098	0.135
-255.122	800.000	0.034	0.127
-254.107	203.310	-0.159	0.241
-253.092	-16.632	-0.098	-0.061
-252.078	-11.208	-0.131	0.084
-251.063	-61.969	0.152	-0.062
-250.049	-87.032	0.423	-0.126
-249.034	79.457	-0.206	0.217
-248.019	-94.241	-0.291	0.078
-247.005	-200.000	0.075	0.394
-245.990	57.772	0.218	-0.209
-244.976	-200.000	0.022	-0.441
-243.961	201.799	0.187	-0.282
-242.946	32.428	0.168	-0.142
-241.932	-200.000	0.004	0.143
-240.917	45.695	0.243	0.220
-239.903	800.000	-0.034	-0.097
-238.888	-155.679	0.205	-0.013
-237.873	16.287	0.077	-0.059
-236.859	800.000	-0.076	-0.270
-235.844	-81.932	-0.165	0.053
-234.830	-87.903	0.334	0.098
-233.815	800.000	0.065	0.249
-232.800	175.572	0.029	-0.041
-231.786	-98.879	-0.021	0.005
-230.771	-128.234	0.044	-0.006
-229.757	-22.413	-0.151	-0.090
-228.742	-136.016	0.278	0.032
-227.727	-126.768	-0.211	-0.031
-226.713	-174.026	0.019	-0.001
-225.698	-1.074	-0.209	-0.144
-224.684	-1.043	-0.301	-0.208
-223.669	-200.000	-0.029	0.257
-222.655	425.114	-0.206	-0.434
-221.640	-37.150	-0.134	0.070
-220.625	800.000	0.052	-0.214
-219.611	625.601	-0.075	0.185
-218.596	-16.855	0.067	-0.041
-217.582	513.915	0.029	0.067
-216.567	-131.626	0.171	-0.022
-215.552	800.000	0.068	-0.193
-214.538	554.772	0.064	0.149
-213.523	-200.000	0.009	0.385
-212.509	-86.745	-0.227	-0.068
-211.494	-200.000	0.069	-0.357
-210.479	-200.000	-0.012	0.271
-209.465	22.315	0.077	-0.061
-208.450	795.233	-0.033	-0.090
-207.436	-76.202	0.127	-0.044
-206.421	18.478	-0.153	-0.119
-205.406	161.774	-0.106	0.145
-204.392	-200.000	-0.029	-0.127
-203.377	143.458	-0.145	-0.188
-202.363	-200.000	0.033	0.461
-201.348	275.869	-0.058	0.101
-200.333	-63.110	-0.099	0.040
-199.319	800.000	0.064	0.203
-198.304	128.018	0.007	0.009
-197.290	-200.000	0.048	0.334
-196.275	419.634	0.049	-0.102
-195.260	-117.800	-0.351	0.062
-194.246	-200.000	0.015	-0.170
-193.231	-26.001	0.410	-0.235
-192.217	-200.000	-0.002	0.423
-191.202	89.771	-0.058	0.063
-190.187	-200.000	-0.018	0.092
-189.173	-91.183	0.262	0.073
-188.158	-200.000	0.018	0.131
-187.144	-52.790	-0.274	-0.123
-186.129	800.000	-0.081	0.228
-185.114	800.000	0.119	0.332
-184.100	-82.495	0.246	-0.078
-183.085	-86.060	-0.229	0.069
-182.071	800.000	0.030	0.121
-181.056	-28.140	-0.164	-0.092
-180.042	-88.998	-0.303	0.088
-179.027	85.388	-0.127	-0.136
-178.012	9.605	-0.208	0.154
-176.998	-200.000	-0.058	-0.257
-175.983	186.791	-0.180	0.261
-174.969	436.554	-0.145	-0.308
-173.954	610.444	-0.096	-0.235
-172.939	-200.000	-0.025	0.153
-171.925	800.000	0.053	0.158
-170.910	12.941	-0.244	-0.184
-169.896	-37.387	0.395	0.206
-168.881	3.492	0.210	0.149
-167.866	-200.000	0.053	-0.406
-166.852	74.603	0.316	0.324
-165.837	17.398	-0.242	-0.187
-164.823	-63.144	-0.139	-0.056
-163.808	-90.722	-0.066	-0.019
-162.793	-200.000	0.046	0.202
-161.779	-29.392	0.060	-0.033
-160.764	-200.000	-0.018	-0.221
-159.750	-46.566	-0.234	0.112
-158.735	-14.420	-0.135	-0.085
-157.720	168.699	-0.159	-0.221
-156.706	-200.000	0.049	0.267
-155.691	65.715	-0.154	-0.152
-154.677	-139.252	-0.138	0.014
-153.662	800.000	-0.044	-0.175
-152.647	-200.000	0.007	-0.129
-151.633	81.109	-0.047	0.049
-150.618	800.000	-0.028	-0.082
-149.604	-200.000	0.018	0.189
-148.589	800.000	0.059	-0.198
-147.574	-200.000	0.020	-0.304
-146.560	-100.381	-0.339	-0.082
-145.545	797.992	-0.111	0.297
-144.531	-200.000	0.016	0.102
-143.516	-200.000	-0.013	-0.227
-142.502	107.411	0.109	-0.126
-141.487	-94.160	-0.113	0.030
-140.472	269.150	-0.053	0.091
-139.458	-62.845	0.413	-0.166
-138.443	43.996	-0.098	-0.088
-137.429	269.877	0.057	0.098
-136.414	-101.627	-0.078	-0.018
-135.399	208.898	0.086	-0.131
-134.385	-84.589	0.052	-0.016
-133.370	-47.694	-0.189	-0.089
-132.356	275.702	0.241	0.417
-131.341	-200.000	-0.012	0.180
-130.326	-200.000	-0.006	0.273
-129.312	-42.720	0.148	0.073
-128.297	-74.834	0.256	0.090
-127.283	-4.549	-0.380	0.256
-126.268	232.579	-0.061	-0.097
-125.253	-23.175	-0.243	0.142
-124.239	800.000	0.062	-0.261
-123.224	36.887	-0.214	0.184
-122.210	156.284	0.045	-0.060
-121.195	65.233	-0.265	0.261
-120.180	-99.763	0.119	-0.029
-119.166	19.427	0.265	-0.207
-118.151	288.800	-0.016	0.028
-117.137	86.950	0.205	0.220
-116.122	236.764	0.108	-0.175
-115.107	-154.346	-0.240	-0.016
-114.093	-21.532	0.500	0.297
-113.078	800.000	-0.030	-0.099
-112.064	363.524	0.123	0.240
-111.049	800.000	0.020	0.078
-110.034	-56.515	-0.206	-0.089
-109.020	129.707	0.173	0.215
-108.005	-200.000	-0.032	-0.192
-106.991	-3.509	0.047	0.032
-105.976	42.186	0.130	0.115
-104.962	800.000	-0.042	0.160
-103.947	8.518	0.157	-0.115
-102.932	106.479	-0.071	-0.081
-101.918	46.335	0.081	0.073
-100.903	-97.137	0.204	0.052
-99.889	187.280	0.272	-0.395
-98.874	-200.000	0.048	-0.320
-97.859	-200.000	0.018	0.185
-96.845	-200.000	0.056	0.315
-95.830	-17.714	0.126	-0.077
-94.816	-131.050	0.270	0.035
-93.801	210.281	-0.141	-0.216
-92.786	264.129	0.099	-0.167
-91.772	-48.096	0.236	0.111
-90.757	800.000	-0.097	0.352
-89.743	-200.000	0.011	0.119
-88.728	-141.994	0.305	0.030
-87.713	49.161	-0.146	0.134
-86.699	132.185	-0.107	0.135
-85.684	-27.335	-0.131	0.074
-84.670	-114.597	-0.344	0.064
-83.655	-94.922	-0.129	-0.034
-82.640	-11.966	0.170	0.109
-81.626	-49.096	-0.519	-0.241
-80.611	0.826	-0.300	-0.209
-79.597	-97.257	-0.164	-0.042
-78.582	249.772	0.122	-0.201
-77.567	-200.000	-0.013	-0.249
-76.553	-8.158	-0.230	0.150
-75.538	371.169	0.111	0.219
-74.524	471.383	0.071	0.155
-73.509	-24.409	-0.283	-0.164
-72.494	-61.433	-0.083	0.034
-71.480	115.383	-0.045	0.054
-70.465	-200.000	0.002	-0.296
-69.451	-52.524	0.111	0.050
-68.436	-200.000	-0.022	0.367
-67.422	427.705	-0.072	0.152
-66.407	103.962	0.240	-0.274
-65.392	440.576	0.081	0.172
-64.378	800.000	0.083	0.317
-63.363	409.824	0.158	0.324
-62.349	85.271	-0.156	-0.166
-61.334	77.343	-1.225	-1.265
-60.319	126.210	0.828	1.017
-59.305	800.000	-0.504	-1.433
-58.290	385.261	0.658	1.318
-57.276	403.022	0.672	1.372
-56.261	-200.000	134.858	673.010
-55.246	325.754	1686.475	3132.404
-54.232	131.684	2832.492	3536.321
-53.217	81.563	2327.483	2443.621
-52.203	29.676	1919.804	1585.947
-51.188	23.791	1712.286	1369.264
-50.173	21.724	1674.124	1323.099
-49.159	43.850	1748.146	1553.735
-48.144	40.825	1757.986	1539.031
-47.130	23.233	1707.638	1361.041
-46.115	20.700	1692.241	1329.393
-45.100	20.594	1687.130	1324.516
-44.086	20.501	1684.357	1321.582
-43.071	20.542	1681.794	1319.825
-42.057	20.515	1680.132	1318.264
-41.042	20.493	1677.767	1316.187
-40.027	20.644	1675.533	1315.529
-39.013	20.567	1674.017	1313.705
-37.998	20.501	1672.385	1311.869
-36.984	20.594	1670.883	1311.344
-35.969	20.605	1670.368	1310.973
-34.954	20.691	1668.514	1310.108
-33.940	20.569	1666.672	1307.694
-32.925	20.615	1664.888	1306.590
-31.911	20.704	1662.827	1305.587
-30.896	20.613	1661.670	1303.948
-29.881	20.711	1659.281	1302.754
-28.867	20.666	1658.541	1301.781
-27.852	20.732	1656.403	1300.544
-26.838	20.638	1655.661	1299.211
-25.823	20.593	1654.357	1297.802
-24.809	20.738	1652.798	1297.607
-23.794	20.702	1651.230	1296.058
-22.779	20.669	1650.287	1295.016
-21.765	20.674	1648.239	1293.395
-20.750	20.675	1646.652	1292.104
-19.736	20.728	1644.898	1291.074
-18.721	20.830	1643.690	1290.826
-17.706	20.642	1642.786	1288.674
-16.692	20.705	1640.574	1287.358
-15.677	20.681	1639.613	1286.374
-14.663	20.804	1638.080	1286.030
-13.648	20.785	1636.859	1284.875
-12.633	20.767	1635.316	1283.481
-11.619	20.705	1633.434	1281.501
-10.604	20.729	1632.195	1280.653
-9.590	20.640	1631.301	1279.241
-8.575	20.666	1629.815	1278.221
-7.560	20.808	1627.969	1277.766
-6.546	20.688	1627.940	1276.811
-5.531	20.630	1627.004	1275.601
-4.517	20.799	1624.777	1275.042
-3.502	20.621	1624.196	1273.227
-2.487	20.797	1622.090	1272.812
-1.473	20.551	1610.571	1261.940
-0.458	18.018	1591.881	1229.050
0.556	13.647	1595.811	1201.974
1.571	11.668	1620.778	1206.090
2.586	11.575	1632.954	1214.350
3.600	10.793	1577.854	1167.656
4.615	6.049	1470.630	1056.368
5.629	1.399	1414.017	985.498
6.644	0.682	1406.787	975.743
7.659	0.571	1406.015	974.404
8.673	0.498	1404.988	973.133
9.688	0.549	1402.975	971.986
10.702	0.386	1398.893	968.025
11.717	2.783	1401.536	985.172
12.731	8.763	1411.071	1030.352
13.746	14.608	1419.865	1074.411
14.761	16.994	1422.375	1091.589
15.775	16.517	1421.041	1087.402
16.790	15.492	1418.561	1078.822
17.804	14.835	1415.991	1072.561
18.819	14.451	1415.036	1069.281
19.834	14.307	1413.298	1066.949
20.848	13.949	1412.359	1063.850
21.863	13.658	1410.974	1060.851
22.877	13.515	1410.023	1059.131
23.892	13.531	1408.801	1058.223
24.907	13.407	1407.821	1056.600
25.921	13.515	1406.545	1056.237
26.936	13.537	1406.016	1055.886
27.950	13.585	1405.126	1055.431
28.965	13.594	1404.166	1054.670
29.980	13.676	1403.116	1054.312
30.994	13.631	1402.322	1053.334
32.009	13.595	1401.259	1052.218
33.023	13.788	1399.540	1052.059
34.038	13.652	1398.541	1050.350
35.053	13.582	1397.498	1049.033
36.067	13.491	1396.537	1047.639
37.082	13.623	1395.437	1047.555
38.096	13.651	1394.382	1046.851
39.111	13.603	1393.263	1045.616
40.126	13.464	1392.966	1044.424
41.140	13.457	1391.880	1043.474
42.155	13.400	1391.542	1042.769
43.169	13.485	1391.626	1043.272
44.184	13.492	1390.946	1042.715
45.199	13.358	1390.678	1041.577
46.213	13.537	1389.691	1041.870
47.228	13.454	1389.587	1041.182
48.242	13.549	1387.933	1040.443
49.257	13.518	1386.392	1039.007
50.271	13.578	1384.645	1037.977
51.286	13.621	1382.856	1036.817
52.301	13.509	1382.270	1035.580
53.315	13.500	1380.966	1034.458
54.330	13.481	1380.165	1033.650
55.344	13.545	1378.484	1032.699
56.359	13.509	1377.420	1031.583
57.374	13.429	1376.847	1030.567
58.388	13.402	1375.689	1029.438
59.403	13.475	1375.204	1029.442
60.417	13.378	1374.974	1028.571
61.432	13.471	1373.510	1027.963
62.447	13.351	1372.650	1026.482
63.461	13.361	1371.568	1025.645
64.476	13.377	1370.705	1025.012
65.490	13.425	1369.140	1024.048
66.505	13.418	1367.431	1022.631
67.520	13.423	1366.536	1021.906
68.534	13.434	1365.562	1021.153
69.549	13.511	1363.997	1020.371
70.563	13.440	1363.213	1019.254
71.578	13.321	1362.441	1017.854
72.593	13.218	1361.538	1016.459
73.607	13.364	1360.850	1016.749
74.622	13.357	1359.482	1015.597
75.636	13.359	1359.002	1015.155
76.651	13.252	1358.553	1014.075
77.666	13.396	1357.424	1014.025
78.680	13.369	1357.039	1013.485
79.695	13.399	1356.010	1012.813
80.709	13.360	1355.320	1011.966
81.724	13.431	1354.258	1011.519
82.739	13.400	1353.602	1010.749
83.753	13.557	1352.149	1010.533
84.768	13.496	1351.821	1009.827
85.782	13.647	1349.911	1009.229
86.797	13.625	1348.690	1008.091
87.812	13.478	1347.585	1006.283
88.826	13.401	1346.698	1005.066
89.841	13.542	1345.357	1004.829
90.855	13.614	1344.165	1004.290
91.870	13.624	1343.564	1003.812
92.884	13.665	1342.477	1003.155
93.899	13.598	1341.817	1002.169
94.914	13.624	1340.941	1001.587
95.928	13.627	1340.476	1001.170
96.943	13.701	1338.903	1000.351
97.957	13.635	1337.962	999.164
98.972	13.688	1336.725	998.470
99.987	13.558	1335.955	997.020
101.001	13.672	1334.533	996.557
102.016	13.598	1334.067	995.680
103.030	13.737	1332.572	995.307
104.045	13.637	1331.822	994.058
105.060	13.644	1330.294	992.871
106.074	13.568	1329.627	991.832
107.089	13.535	1328.350	990.592
108.103	13.531	1327.062	989.523
109.118	13.534	1325.856	988.554
110.133	13.513	1324.769	987.533
111.147	13.596	1322.329	986.120
112.162	13.501	1321.544	984.881
113.176	13.690	1319.997	984.766
114.191	13.688	1319.176	984.050
115.206	13.700	1318.606	983.611
116.220	13.536	1317.241	981.535
117.235	13.589	1316.055	980.878
118.249	13.495	1315.626	979.915
119.264	13.626	1313.281	978.854
120.279	13.534	1312.660	977.762
121.293	13.561	1311.781	977.182
122.308	13.515	1310.633	975.965
123.322	13.508	1309.335	974.874
124.337	13.445	1308.878	974.079
125.352	13.431	1307.663	973.004
126.366	13.517	1306.060	972.233
127.381	13.534	1305.341	971.711
128.395	13.600	1303.688	970.777
129.410	13.621	1302.972	970.283
130.424	13.582	1301.837	969.121
131.439	13.596	1301.134	968.595
132.454	13.579	1300.017	967.581
133.468	13.651	1298.894	967.080
134.483	13.513	1297.917	965.463
135.497	13.550	1297.092	964.979
136.512	13.535	1295.592	963.692
137.527	13.570	1294.520	963.007
138.541	13.556	1292.937	961.666
139.556	13.554	1291.942	960.830
140.570	13.632	1290.636	960.222
141.585	13.826	1288.501	959.673
142.600	13.726	1288.144	958.746
143.614	13.683	1287.537	957.956
144.629	13.728	1286.040	957.019
145.643	13.702	1284.980	955.999
146.658	13.730	1283.383	954.882
147.673	13.851	1282.335	954.718
148.687	13.787	1281.216	953.434
149.702	13.813	1279.736	952.396
150.716	13.757	1278.436	951.022
151.731	13.731	1277.535	950.117
152.746	13.876	1276.125	949.816
153.760	13.723	1275.430	948.340
154.775	13.769	1274.203	947.605
155.789	13.881	1272.998	947.268
156.804	13.867	1272.071	946.411
157.819	13.819	1271.297	945.481
158.833	13.870	1269.971	944.701
159.848	13.955	1269.093	944.445
160.862	13.934	1268.237	943.606
161.877	13.906	1267.028	942.464
162.892	13.787	1266.132	941.041
163.906	13.865	1265.277	940.765
164.921	13.838	1263.945	939.536
165.935	13.768	1263.650	938.840
166.950	13.937	1262.428	938.801
167.964	14.004	1261.461	938.379
168.979	13.965	1260.767	937.559
169.994	13.983	1259.880	936.917
171.008	13.941	1259.485	936.303
172.023	14.077	1257.883	935.796
173.037	14.031	1257.197	934.947
174.052	14.055	1256.871	934.756
175.067	14.080	1255.441	933.751
176.081	13.970	1254.589	932.412
177.096	13.970	1253.523	931.538
178.110	13.961	1252.161	930.393
179.125	13.989	1250.940	929.561
180.140	13.995	1249.941	928.771
181.154	14.077	1248.853	928.336
182.169	14.182	1246.798	927.316
183.183	14.107	1246.391	926.510
184.198	14.149	1245.189	925.769
185.213	14.165	1244.264	925.090
186.227	14.216	1243.030	924.376
187.242	14.293	1241.554	923.623
188.256	14.285	1240.856	922.974
189.271	14.213	1239.791	921.705
190.286	14.185	1239.031	920.904
191.300	14.067	1238.178	919.532
192.315	14.103	1237.585	919.212
193.329	14.070	1236.881	918.422
194.344	14.044	1236.615	918.000
195.359	14.140	1235.705	917.774
196.373	14.161	1235.290	917.500
197.388	14.255	1234.894	917.642
198.402	14.309	1234.273	917.396
199.417	14.271	1233.591	916.599
200.432	14.402	1232.151	916.173
201.446	14.423	1231.340	915.600
202.461	14.500	1230.293	915.167
203.475	14.459	1229.686	914.406
204.490	14.437	1228.308	913.181
205.504	14.414	1227.344	912.259
206.519	14.371	1225.902	910.868
207.534	14.517	1224.323	910.413
208.548	14.476	1223.836	909.747
209.563	14.522	1222.917	909.236
210.577	14.517	1222.066	908.495
211.592	14.491	1221.420	907.793
212.607	14.435	1220.586	906.786
213.621	14.599	1219.062	906.468
214.636	14.448	1218.711	905.306
215.650	14.495	1217.614	904.664
216.665	14.582	1216.648	904.340
217.680	14.621	1215.612	903.701
218.694	14.530	1215.055	902.713
219.709	14.598	1214.451	902.552
220.723	14.701	1213.344	902.204
221.738	14.717	1212.450	901.550
222.753	14.764	1211.531	901.041
223.767	14.772	1210.526	900.255
224.782	14.653	1210.409	899.447
225.796	14.696	1209.482	898.909
226.811	14.788	1208.742	898.772
227.826	14.833	1207.922	898.325
228.840	14.743	1207.223	897.243
229.855	14.842	1206.423	897.099
230.869	14.820	1205.601	896.291
231.884	14.810	1205.030	895.736
232.899	14.925	1203.752	895.324
233.913	14.793	1203.429	894.297
234.928	14.765	1202.857	893.643
235.942	14.727	1202.049	892.761
236.957	14.607	1201.476	891.612
237.972	14.819	1200.339	891.825
238.986	14.796	1199.667	891.123
240.001	14.858	1199.110	890.961
241.015	14.811	1198.274	890.012
242.030	14.917	1197.346	889.805
243.045	14.815	1196.616	888.644
244.059	14.820	1196.089	888.201
245.074	14.847	1195.581	887.886
246.088	14.961	1194.016	887.250
247.103	14.967	1193.475	886.801
248.117	15.045	1192.298	886.263
249.132	15.133	1191.717	886.215
250.147	15.184	1190.901	885.799
251.161	15.128	1190.135	884.857
252.176	15.150	1189.969	884.773
253.190	15.217	1189.380	884.610
254.205	15.170	1188.751	883.813
255.220	15.273	1187.772	883.550
256.234	15.258	1187.401	883.119
257.249	15.289	1186.457	882.504
258.263	15.192	1185.672	881.328
259.278	15.285	1185.038	881.267
260.293	15.314	1184.296	880.794
261.307	15.321	1183.837	880.410
262.322	15.520	1182.360	880.276
263.336	15.386	1182.375	879.507
264.351	15.420	1182.077	879.384
265.366	15.437	1181.114	878.679
266.380	15.461	1180.271	878.103
267.395	15.324	1179.603	876.812
268.409	15.369	1178.825	876.392
269.424	15.401	1178.497	876.236
270.439	15.376	1178.281	875.864
271.453	15.456	1176.957	875.222
272.468	15.484	1175.626	874.298
273.482	15.469	1175.455	874.019
274.497	15.430	1174.785	873.242
275.512	15.565	1173.604	872.988
276.526	15.542	1173.074	872.396
277.541	15.457	1172.409	871.383
278.555	15.417	1171.935	870.747
279.570	15.648	1170.668	870.923
280.585	15.549	1170.303	870.064
281.599	15.660	1169.106	869.670
282.614	15.591	1168.286	868.629
283.628	15.533	1167.384	867.579
284.643	15.616	1165.916	866.842
285.657	15.666	1165.185	866.478
286.672	15.818	1164.007	866.307
287.687	15.692	1163.415	865.144
288.701	15.700	1162.698	864.575
289.716	15.653	1162.410	864.042
290.730	15.674	1161.672	863.522
291.745	15.809	1160.233	863.068
292.760	15.913	1159.716	863.144
293.774	15.839	1159.510	862.533
294.789	15.877	1158.704	862.050
295.803	15.863	1158.333	861.628
296.818	15.847	1157.273	860.682
297.833	15.917	1156.488	860.378
298.847	15.878	1155.654	859.481
299.862	15.806	1154.781	858.391
300.876	15.972	1154.514	858.960
301.891	15.983	1153.343	858.069
302.906	15.866	1153.101	857.218
303.920	15.976	1152.272	857.086
304.935	15.994	1151.577	856.586
305.949	16.061	1151.272	856.623
306.964	16.031	1149.929	855.397
307.979	16.049	1149.462	855.065
308.993	16.148	1148.560	854.820
310.008	16.104	1147.519	853.749
311.022	16.134	1146.555	853.109
312.037	16.187	1145.853	852.775
313.052	16.098	1145.108	851.696
314.066	16.187	1143.884	851.160
315.081	16.184	1143.159	850.531
316.095	16.151	1142.404	849.726
317.110	16.122	1142.197	849.350
318.125	16.064	1141.228	848.263
319.139	16.185	1140.203	848.034
320.154	16.177	1139.409	847.328
321.168	16.074	1139.402	846.732
322.183	16.164	1138.570	846.493
323.197	16.119	1137.864	845.664
324.212	16.372	1137.318	846.453
325.227	16.290	1136.615	845.442
326.241	16.287	1135.991	844.888
327.256	16.299	1135.015	844.148
328.270	16.263	1134.120	843.228
329.285	16.200	1133.791	842.596
330.300	16.268	1132.454	841.865
331.314	16.254	1131.334	840.887
332.329	16.341	1130.359	840.521
333.343	16.339	1129.743	839.980
334.358	16.406	1128.784	839.528
335.373	16.295	1128.675	838.820
336.387	16.417	1127.625	838.569
337.402	16.421	1126.583	837.744
338.416	16.404	1126.250	837.333
339.431	16.423	1125.295	836.644
340.446	16.453	1124.696	836.276
341.460	16.618	1123.621	836.216
342.475	16.678	1122.858	835.870
343.489	16.649	1122.220	835.179
344.504	16.601	1121.200	834.111
345.519	16.668	1120.193	833.614
346.533	16.635	1119.545	832.896
347.548	16.734	1118.821	832.773
348.562	16.701	1118.268	832.126
349.577	16.682	1117.487	831.377
350.592	16.665	1116.299	830.334
351.606	16.639	1115.713	829.701
352.621	16.648	1115.029	829.161
353.635	16.767	1114.423	829.220
354.650	16.660	1113.544	827.967
355.665	16.674	1113.217	827.719
356.679	16.680	1112.541	827.174
357.694	16.639	1111.884	826.414
358.708	16.767	1110.768	826.135
359.723	16.772	1110.607	825.968
360.738	16.763	1109.627	825.122
361.752	16.859	1109.119	825.139
362.767	16.770	1108.813	824.403
363.781	16.879	1108.124	824.346
364.796	16.910	1107.343	823.845
365.810	16.973	1106.833	823.699
366.825	16.895	1106.371	822.900
367.840	17.015	1105.498	822.761
368.854	17.038	1104.906	822.361
369.869	17.089	1104.227	822.028
370.883	17.085	1103.306	821.253
371.898	17.000	1102.683	820.305
372.913	16.926	1102.428	819.686
373.927	17.099	1101.892	820.051
374.942	17.055	1101.365	819.372
375.956	17.059	1100.686	818.813
376.971	17.112	1099.529	818.138
377.986	17.039	1099.265	817.516
379.000	17.245	1098.711	818.022
380.015	17.266	1098.252	817.708
381.029	17.254	1097.512	817.030
382.044	17.339	1096.560	816.656
383.059	17.299	1095.801	815.825
384.073	17.336	1095.098	815.407
385.088	17.307	1094.219	814.541
386.102	17.229	1093.510	813.567
387.117	17.255	1092.837	813.123
388.132	17.305	1091.688	812.432
389.146	17.188	1090.936	811.245
390.161	17.386	1089.968	811.394
391.175	17.314	1089.112	810.344
392.190	17.239	1088.946	809.792
393.205	17.317	1088.029	809.408
394.219	17.407	1086.954	808.966
395.234	17.376	1085.959	808.008
396.248	17.422	1085.027	807.460
397.263	17.329	1083.865	806.085
398.278	17.356	1083.658	805.983
399.292	17.309	1083.110	805.283
400.307	17.440	1082.038	805.034
401.321	17.355	1081.369	804.065
402.336	17.394	1081.065	803.952
403.350	17.325	1080.366	803.034
404.365	17.427	1079.419	802.740
405.380	17.526	1078.687	802.594
406.394	17.472	1078.065	801.805
407.409	17.580	1076.702	801.229
408.423	17.598	1076.323	800.958
409.438	17.593	1075.778	800.461
410.453	17.650	1074.593	799.773
411.467	17.607	1074.170	799.186
412.482	17.722	1073.440	799.110
413.496	17.778	1072.580	798.662
414.511	17.651	1072.338	797.817
415.526	17.692	1072.345	797.944
416.540	17.836	1071.367	797.821
417.555	17.783	1070.804	797.084
418.569	17.696	1070.406	796.309
419.584	17.869	1069.577	796.429
420.599	17.900	1069.140	796.179
421.613	108.907	1333.227	1490.100
422.628	100.773	1371.634	1490.188
