DTS Sentinel unit serial number:	SN413079Multiplexer serial number:	ORYXHardware model number:	OX4-SRSoftware version number:	ORYX F/W v4.00 Oryx Data Collector v3.7.2.0data status	okinstallation	princeton_trtdifferential loss correction	single-endedforward channel	channel 2reverse channel	N/Adate	2019/09/13time	05:43:34forward acquisition time	60.00reverse acquisition time	0.00gamma	496.2192k internal	0.2337k external	0.2337temperature offset calibration	1.0194default loss term (dB/km)	0.3790temperature slope calibration	1.0000multiplexer offset coefficient	1.0000multiplexer slope coefficient	1.0000fibre end	0.00T internal ref (°C)	26.19T ext. ref 1 (°C)	4.05T ext. ref 2 (°C)	20.91length (m)	temperature (°C)	Stokes	anti-Stokes-747.200	545.545	0.084	-0.200
-746.185	-69.742	-0.135	0.052
-745.171	36.683	0.252	-0.224
-744.156	-63.716	-0.086	0.035
-743.142	-22.375	-0.368	-0.224
-742.127	600.011	0.155	0.386
-741.112	-200.000	-0.026	-0.131
-740.098	66.275	0.132	-0.135
-739.083	-23.542	0.213	-0.128
-738.069	-9.678	-0.233	0.156
-737.054	80.330	0.146	-0.158
-736.039	-87.212	-0.381	-0.116
-735.025	-152.786	-0.248	-0.018
-734.010	-110.721	-0.379	0.078
-732.996	21.892	0.216	0.177
-731.981	131.759	0.195	-0.252
-730.966	-103.095	-0.128	-0.030
-729.952	-83.650	-0.202	-0.065
-728.937	-200.000	-0.003	-0.107
-727.923	-156.381	-0.072	0.004
-726.908	-13.621	-0.153	-0.100
-725.894	11.939	-0.103	-0.079
-724.879	154.773	-0.206	0.284
-723.864	-200.000	0.027	-0.281
-722.850	120.371	-0.059	-0.074
-721.835	741.916	0.083	0.223
-720.821	-200.000	-0.020	0.160
-719.806	-44.430	-0.455	0.228
-718.791	123.810	0.085	-0.107
-717.777	128.297	-0.069	0.088
-716.762	-200.000	-0.004	-0.073
-715.748	51.131	-0.258	-0.245
-714.733	75.280	0.221	0.233
-713.718	-38.359	-0.289	0.153
-712.704	-112.786	-0.063	0.013
-711.689	-165.571	0.071	-0.003
-710.675	-200.000	-0.016	0.119
-709.660	-130.162	-0.332	0.045
-708.645	-200.000	0.027	0.188
-707.631	-200.000	0.064	-0.596
-706.616	68.839	0.064	0.066
-705.602	-168.333	-0.180	-0.007
-704.587	-177.353	-0.373	-0.009
-703.572	465.887	0.130	-0.292
-702.558	554.067	-0.083	-0.199
-701.543	-200.000	0.021	-0.170
-700.529	14.780	-0.180	0.141
-699.514	151.827	0.052	-0.071
-698.499	-170.070	-0.142	-0.005
-697.485	-200.000	0.033	-0.348
-696.470	-98.418	-0.301	-0.077
-695.456	-86.382	0.216	0.067
-694.441	178.550	0.077	0.112
-693.426	-200.000	-0.006	0.064
-692.412	-200.000	0.006	0.091
-691.397	-52.124	0.087	0.040
-690.383	72.118	-0.055	0.057
-689.368	-182.882	0.052	0.001
-688.354	-88.279	-0.181	0.054
-687.339	-119.691	0.200	0.035
-686.324	-104.385	-0.152	-0.035
-685.310	-110.602	0.119	-0.025
-684.295	-121.803	-0.231	-0.038
-683.281	-112.309	0.181	0.036
-682.266	-57.260	-0.156	0.069
-681.251	176.090	0.087	-0.126
-680.237	-200.000	0.003	0.082
-679.222	-200.000	-0.013	0.067
-678.208	22.170	-0.234	-0.192
-677.193	-161.250	0.175	0.009
-676.178	-200.000	-0.005	0.300
-675.164	-23.292	-0.089	-0.053
-674.149	275.873	-0.191	-0.339
-673.135	800.000	0.054	0.230
-672.120	339.541	-0.117	-0.229
-671.105	346.877	0.028	0.055
-670.091	236.193	0.248	-0.411
-669.076	101.312	-0.244	-0.284
-668.062	25.610	0.099	0.082
-667.047	-127.701	-0.313	-0.045
-666.032	86.690	0.225	-0.248
-665.018	14.006	0.079	-0.062
-664.003	96.085	-0.120	0.137
-662.989	102.260	-0.106	-0.124
-661.974	101.382	-0.178	0.208
-660.959	-200.000	-0.015	0.192
-659.945	800.000	0.104	0.375
-658.930	-170.500	-0.301	-0.010
-657.916	-200.000	0.018	0.146
-656.901	-99.878	-0.250	0.062
-655.886	-122.818	-0.195	-0.031
-654.872	800.000	0.086	-0.331
-653.857	81.551	0.251	0.271
-652.843	-8.384	-0.097	0.065
-651.828	73.749	0.111	-0.116
-650.814	214.988	0.133	-0.211
-649.799	26.321	-0.227	0.189
-648.784	-139.296	0.414	0.045
-647.770	-124.816	-0.248	-0.038
-646.755	800.000	-0.108	0.311
-645.741	-61.328	-0.043	0.018
-644.726	-200.000	0.081	-0.461
-643.711	-8.322	0.204	0.137
-642.697	-110.394	-0.284	0.059
-641.682	-94.694	-0.100	0.027
-640.668	438.854	0.147	0.321
-639.653	252.674	-0.177	0.302
-638.638	-200.000	-0.005	0.083
-637.624	117.355	-0.272	0.334
-636.609	-35.326	-0.248	-0.135
-635.595	-2.290	0.082	-0.058
-634.580	37.035	-0.151	-0.134
-633.565	-119.408	-0.448	0.078
-632.551	63.921	-0.162	-0.163
-631.536	28.457	0.245	0.207
-630.522	1.100	0.082	-0.059
-629.507	800.000	0.103	0.309
-628.492	259.231	0.066	0.114
-627.478	800.000	0.033	-0.099
-626.463	436.659	-0.064	-0.139
-625.449	-200.000	-0.022	-0.110
-624.434	318.203	0.123	-0.234
-623.419	133.201	-0.113	-0.146
-622.405	-110.279	0.203	0.042
-621.390	-200.000	-0.003	-0.116
-620.376	-42.966	-0.192	0.097
-619.361	-166.897	0.174	-0.007
-618.346	-200.000	-0.083	-0.406
-617.332	-158.177	0.254	-0.015
-616.317	-124.767	-0.046	0.007
-615.303	-49.181	0.245	-0.117
-614.288	87.118	-0.163	-0.180
-613.273	-200.000	0.022	0.130
-612.259	800.000	-0.036	-0.106
-611.244	96.810	-0.184	0.210
-610.230	800.000	0.075	0.239
-609.215	800.000	0.132	-0.536
-608.201	-92.079	0.100	-0.028
-607.186	-155.957	0.162	-0.010
-606.171	-61.330	0.214	0.090
-605.157	-25.343	-0.119	0.070
-604.142	-200.000	-0.024	-0.285
-603.128	-200.000	0.010	0.158
-602.113	800.000	-0.103	-0.419
-601.098	800.000	0.026	0.110
-600.084	-200.000	-0.333	-0.002
-599.069	800.000	0.110	0.402
-598.055	262.979	0.100	-0.174
-597.040	208.014	0.113	-0.176
-596.025	800.000	0.025	-0.074
-595.011	542.928	0.012	0.028
-593.996	-107.832	-0.313	-0.068
-592.982	178.564	0.282	-0.411
-591.967	-70.871	-0.388	0.146
-590.952	157.842	-0.222	-0.307
-589.938	800.000	0.131	-0.494
-588.923	-71.826	0.098	0.036
-587.909	800.000	-0.020	-0.073
-586.894	-38.805	-0.264	-0.139
-585.879	-27.088	0.230	0.134
-584.865	-200.000	-0.019	0.194
-583.850	-16.485	-0.133	0.084
-582.836	707.359	0.067	-0.178
-581.821	93.911	-0.295	0.334
-580.806	-86.247	-0.139	-0.043
-579.792	26.660	-0.159	0.133
-578.777	226.852	0.226	0.367
-577.763	-106.789	0.290	0.064
-576.748	-142.504	-0.095	0.009
-575.733	336.423	-0.069	0.134
-574.719	386.695	-0.077	0.158
-573.704	-31.581	-0.452	-0.253
-572.690	-128.045	-0.293	0.042
-571.675	800.000	-0.037	0.118
-570.661	-55.649	0.044	-0.019
-569.646	260.386	-0.061	-0.106
-568.631	109.397	0.254	0.303
-567.617	202.263	0.290	0.446
-566.602	-21.399	-0.186	0.113
-565.588	-42.617	-0.316	0.160
-564.573	90.085	-0.062	-0.069
-563.558	170.011	-0.196	-0.279
-562.544	-163.403	0.110	-0.005
-561.529	800.000	0.044	-0.122
-560.515	3.271	0.214	-0.155
-559.500	-200.000	-0.016	0.322
-558.485	-61.882	0.106	0.044
-557.471	-11.163	-0.272	0.178
-556.456	-200.000	0.000	0.263
-555.442	-91.155	0.161	-0.046
-554.427	800.000	-0.050	-0.175
-553.412	74.060	0.336	-0.351
-552.398	22.024	-0.183	-0.149
-551.383	-200.000	-0.007	0.082
-550.369	-39.416	-0.287	0.150
-549.354	-200.000	-0.037	0.253
-548.339	331.272	0.073	-0.140
-547.325	-125.977	0.198	0.030
-546.310	138.073	0.025	-0.032
-545.296	-79.493	-0.268	-0.090
-544.281	-200.000	-0.003	-0.113
-543.266	-102.880	-0.297	-0.070
-542.252	76.557	-0.169	0.179
-541.237	64.114	-0.054	0.054
-540.223	627.722	-0.102	0.255
-539.208	-72.524	0.058	-0.021
-538.193	800.000	0.018	-0.079
-537.179	-69.101	-0.160	-0.061
-536.164	36.491	-0.051	-0.045
-535.150	-134.403	0.178	0.022
-534.135	-200.000	0.032	-0.283
-533.121	10.429	0.221	0.167
-532.106	226.032	-0.118	0.191
-531.091	162.316	0.080	-0.112
-530.077	-36.472	-0.278	0.149
-529.062	41.024	-0.081	0.073
-528.048	-74.614	-0.317	0.113
-527.033	-16.722	-0.172	0.108
-526.018	-133.864	-0.140	0.017
-525.004	-24.999	-0.192	0.113
-523.989	-77.692	-0.240	0.083
-522.975	54.970	-0.136	-0.131
-521.960	-25.586	-0.215	-0.126
-520.945	-99.430	0.339	-0.085
-519.931	64.630	0.221	-0.222
-518.916	312.510	-0.064	-0.119
-517.902	-139.063	-0.184	0.020
-516.887	450.798	0.057	-0.126
-515.872	-91.206	0.419	-0.120
-514.858	603.500	-0.012	0.030
-513.843	-200.000	-0.044	-0.219
-512.829	420.523	-0.056	-0.119
-511.814	-200.000	-0.017	0.139
-510.799	466.605	0.005	0.012
-509.785	-119.656	0.068	0.012
-508.770	800.000	-0.041	0.130
-507.756	-139.673	-0.101	0.011
-506.741	-125.057	0.133	0.020
-505.726	4.004	0.411	0.299
-504.712	-55.543	0.176	-0.078
-503.697	212.806	0.158	-0.248
-502.683	800.000	-0.042	-0.136
-501.668	-145.178	0.052	0.005
-500.653	55.358	-0.038	-0.037
-499.639	-200.000	-0.037	-0.175
-498.624	-1.923	-0.123	0.086
-497.610	-75.074	-0.359	-0.128
-496.595	-200.000	0.021	0.174
-495.581	246.137	0.127	-0.213
-494.566	-200.000	0.011	-0.143
-493.551	-200.000	-0.002	-0.065
-492.537	-133.854	0.359	-0.044
-491.522	-14.774	0.223	-0.142
-490.508	245.973	-0.097	0.162
-489.493	68.550	0.047	-0.048
-488.478	218.343	-0.115	0.183
-487.464	-10.343	0.266	0.176
-486.449	-130.407	-0.362	-0.049
-485.435	-200.000	-0.015	0.511
-484.420	-200.000	0.030	0.278
-483.405	800.000	0.058	-0.194
-482.391	-200.000	0.026	-0.184
-481.376	-90.754	0.281	0.081
-480.362	-200.000	0.023	-0.144
-479.347	778.611	-0.094	0.255
-478.332	-138.102	0.162	-0.018
-477.318	-180.853	0.271	0.005
-476.303	-89.584	0.130	0.038
-475.289	5.054	0.146	-0.107
-474.274	-67.333	0.192	-0.075
-473.259	22.971	-0.253	0.206
-472.245	-200.000	-0.079	0.387
-471.230	-141.784	0.271	-0.027
-470.216	77.729	-0.236	-0.250
-469.201	800.000	0.072	0.275
-468.186	199.586	0.164	0.249
-467.172	45.429	0.331	0.303
-466.157	153.907	-0.154	-0.210
-465.143	266.812	0.136	0.236
-464.128	-50.083	0.167	0.079
-463.113	-78.338	-0.212	0.072
-462.099	-12.009	0.288	0.187
-461.084	-85.755	0.148	0.045
-460.070	16.686	-0.081	-0.063
-459.055	-200.000	-0.075	0.341
-458.040	79.638	0.093	-0.099
-457.026	-181.718	-0.083	0.002
-456.011	-123.557	-0.355	0.056
-454.997	-98.459	-0.396	0.101
-453.982	-200.000	0.026	-0.299
-452.968	-55.925	-0.080	0.035
-451.953	367.462	-0.079	0.158
-450.938	-55.034	-0.297	-0.133
-449.924	-79.211	0.279	0.094
-448.909	800.000	0.029	0.084
-447.895	224.851	-0.082	-0.132
-446.880	497.961	0.061	0.140
-445.865	123.801	0.321	0.399
-444.851	-200.000	-0.039	0.310
-443.836	367.020	-0.041	-0.081
-442.822	-200.000	0.040	-0.342
-441.807	-200.000	-0.041	-0.450
-440.792	-86.221	-0.089	0.027
-439.778	782.572	-0.089	-0.243
-438.763	-81.990	0.277	-0.090
-437.749	-200.000	0.002	-0.076
-436.734	-200.000	-0.029	-0.265
-435.719	-200.000	0.010	0.349
-434.705	-200.000	0.041	-0.195
-433.690	139.095	0.252	-0.328
-432.676	-69.970	0.126	-0.048
-431.661	-135.117	0.050	0.006
-430.646	-200.000	-0.064	-0.408
-429.632	-28.630	-0.151	0.086
-428.617	-200.000	0.028	-0.249
-427.603	445.469	0.038	-0.083
-426.588	578.488	0.022	0.054
-425.573	172.373	0.093	-0.133
-424.559	667.333	-0.038	0.097
-423.544	-95.641	-0.216	0.057
-422.530	169.191	-0.149	0.211
-421.515	-81.627	-0.078	-0.025
-420.500	273.539	-0.098	0.171
-419.486	-139.106	-0.204	-0.022
-418.471	69.441	0.480	0.490
-417.457	-63.666	-0.457	0.186
-416.442	23.950	-0.092	-0.075
-415.428	-12.282	0.127	-0.082
-414.413	-120.730	0.175	-0.029
-413.398	800.000	0.034	-0.103
-412.384	84.037	0.155	-0.168
-411.369	-200.000	0.004	0.051
-410.355	83.568	0.289	-0.312
-409.340	-200.000	0.009	-0.257
-408.325	-200.000	-0.003	0.146
-407.311	-200.000	-0.051	-0.320
-406.296	800.000	0.043	-0.124
-405.282	-43.246	0.322	-0.161
-404.267	-38.761	-0.312	0.163
-403.252	135.047	0.016	-0.020
-402.238	95.953	-0.298	0.337
-401.223	-129.560	0.449	0.061
-400.209	-185.753	0.147	0.002
-399.194	111.677	-0.059	-0.070
-398.179	800.000	0.082	0.280
-397.165	242.552	0.117	-0.194
-396.150	21.888	-0.169	-0.136
-395.136	63.971	-0.267	-0.266
-394.121	8.568	-0.062	-0.046
-393.106	447.819	-0.189	-0.411
-392.092	111.674	-0.109	-0.130
-391.077	-200.000	-0.020	0.274
-390.063	479.744	0.020	0.044
-389.048	-74.721	0.155	0.055
-388.033	74.421	0.279	-0.290
-387.019	103.063	0.090	-0.105
-386.004	6.073	-0.260	0.191
-384.990	-40.362	-0.377	0.194
-383.975	319.359	0.085	0.160
-382.960	-38.707	0.183	0.096
-381.946	766.397	-0.042	0.113
-380.931	30.128	-0.067	0.057
-379.917	-121.876	-0.204	0.033
-378.902	453.417	-0.082	-0.180
-377.888	142.563	-0.042	0.055
-376.873	-128.222	-0.167	-0.024
-375.858	-159.925	-0.161	0.009
-374.844	131.863	0.128	0.164
-373.829	573.022	-0.107	0.259
-372.815	182.382	-0.036	-0.052
-371.800	-200.000	0.019	0.191
-370.785	800.000	-0.141	-0.484
-369.771	634.838	0.053	0.134
-368.756	-200.000	0.001	0.453
-367.742	-124.253	0.167	-0.026
-366.727	-11.071	-0.108	-0.070
-365.712	309.421	0.121	0.224
-364.698	50.825	0.120	0.113
-363.683	29.142	0.173	0.145
-362.669	609.631	-0.173	0.428
-361.654	-200.000	0.007	0.206
-360.639	171.554	0.113	0.161
-359.625	304.915	0.016	-0.030
-358.610	55.690	0.079	0.075
-357.596	0.831	0.290	0.206
-356.581	-200.000	-0.044	0.370
-355.566	-118.067	-0.173	0.031
-354.552	480.477	0.064	0.144
-353.537	547.098	-0.177	-0.420
-352.523	281.596	-0.097	-0.171
-351.508	228.698	0.054	0.087
-350.493	-84.086	0.121	0.038
-349.479	800.000	-0.071	0.195
-348.464	-200.000	-0.015	0.213
-347.450	-101.154	-0.227	0.055
-346.435	-108.487	-0.243	-0.052
-345.420	-200.000	-0.016	0.094
-344.406	-27.435	0.214	-0.123
-343.391	9.864	0.198	0.149
-342.377	-111.324	-0.123	-0.025
-341.362	-65.500	-0.146	-0.058
-340.348	-200.000	-0.099	0.493
-339.333	-39.560	0.116	-0.060
-338.318	3.483	-0.184	0.132
-337.304	-76.806	-0.130	-0.045
-336.289	-48.381	0.228	0.109
-335.275	148.910	0.163	-0.218
-334.260	-47.173	0.169	0.081
-333.245	79.193	-0.119	0.126
-332.231	-200.000	0.006	-0.077
-331.216	79.744	-0.057	-0.061
-330.202	-116.217	-0.141	-0.026
-329.187	159.099	0.061	-0.084
-328.172	-79.640	0.137	0.046
-327.158	-200.000	0.020	-0.369
-326.143	133.223	0.254	0.324
-325.129	-200.000	-0.039	0.214
-324.114	-200.000	-0.012	0.097
-323.099	12.908	-0.092	-0.070
-322.085	-59.895	0.202	-0.085
-321.070	100.874	0.345	0.397
-320.056	38.902	0.095	0.083
-319.041	-200.000	-0.040	0.250
-318.026	547.901	-0.109	0.259
-317.012	39.442	-0.301	-0.266
-315.997	-200.000	-0.003	0.046
-314.983	-83.882	0.332	0.105
-313.968	44.030	0.212	0.192
-312.953	-64.884	0.421	-0.168
-311.939	46.147	-0.052	0.048
-310.924	-88.373	-0.191	0.056
-309.910	22.182	-0.054	-0.044
-308.895	-89.733	0.166	0.048
-307.880	-150.937	-0.024	0.002
-306.866	-109.922	-0.158	-0.033
-305.851	20.861	0.231	-0.185
-304.837	-54.975	0.211	0.094
-303.822	800.000	-0.025	-0.102
-302.807	398.201	0.041	-0.085
-301.793	-28.617	0.196	0.111
-300.778	-1.664	-0.231	0.161
-299.764	-94.601	-0.189	0.051
-298.749	108.730	-0.042	-0.049
-297.735	-105.175	-0.323	0.073
-296.720	180.026	0.115	-0.166
-295.705	-125.613	0.387	-0.058
-294.691	-75.721	0.074	0.026
-293.676	-85.102	-0.174	-0.054
-292.662	-200.000	-0.006	0.160
-291.647	-132.362	0.197	0.025
-290.632	258.725	-0.019	0.033
-289.618	-101.668	-0.102	-0.024
-288.603	-28.668	0.265	0.150
-287.589	268.893	0.165	-0.285
-286.574	29.510	0.154	0.129
-285.559	337.071	0.139	-0.267
-284.545	-200.000	-0.027	-0.156
-283.530	-101.794	0.156	-0.037
-282.516	-200.000	0.005	-0.131
-281.501	84.393	-0.135	-0.146
-280.486	-200.000	-0.025	-0.132
-279.472	800.000	-0.041	0.148
-278.457	135.466	-0.120	0.154
-277.443	-37.523	0.288	0.152
-276.428	337.177	0.182	-0.349
-275.413	800.000	-0.049	-0.154
-274.399	-200.000	0.059	-0.265
-273.384	21.593	0.197	-0.158
-272.370	-104.872	0.036	-0.008
-271.355	-200.000	0.156	0.000
-270.340	800.000	-0.040	0.133
-269.326	135.217	-0.113	0.145
-268.311	-101.042	-0.585	0.141
-267.297	-20.623	0.070	0.042
-266.282	-200.000	-0.010	-0.111
-265.267	93.196	-0.079	0.088
-264.253	53.699	-0.130	-0.123
-263.238	800.000	-0.091	-0.258
-262.224	10.905	0.274	-0.206
-261.209	335.864	-0.082	-0.157
-260.195	92.107	0.122	-0.136
-259.180	-173.861	-0.154	0.004
-258.165	-77.910	0.375	0.127
-257.151	-12.464	0.146	0.094
-256.136	-200.000	-0.023	-0.277
-255.122	48.608	0.023	-0.021
-254.107	295.796	-0.182	-0.328
-253.092	42.223	0.101	-0.090
-252.078	-200.000	0.012	-0.210
-251.063	212.062	-0.128	-0.198
-250.049	139.574	-0.044	0.058
-249.034	800.000	-0.032	0.102
-248.019	120.282	-0.208	-0.254
-247.005	411.541	-0.099	-0.206
-245.990	-18.293	-0.362	-0.223
-244.976	328.335	-0.063	0.120
-243.961	-12.471	-0.057	0.037
-242.946	-93.337	-0.245	0.067
-241.932	347.376	0.165	0.320
-240.917	35.158	-0.182	-0.157
-239.903	-44.567	0.135	0.066
-238.888	-42.467	-0.332	-0.166
-237.873	-29.244	-0.155	-0.088
-236.859	629.954	0.149	0.371
-235.844	227.753	0.213	-0.342
-234.830	-134.851	-0.365	-0.044
-233.815	-200.000	-0.019	-0.091
-232.800	285.878	0.126	0.224
-231.786	-99.946	-0.188	-0.046
-230.771	800.000	0.052	0.218
-229.757	164.445	0.354	0.491
-228.742	-98.646	-0.133	-0.033
-227.727	337.137	0.069	-0.132
-226.713	-200.000	-0.018	0.077
-225.698	63.857	0.109	0.108
-224.684	147.212	0.117	-0.155
-223.669	800.000	0.084	-0.227
-222.655	-97.662	-0.071	-0.018
-221.640	604.200	0.103	-0.251
-220.625	-40.059	0.292	-0.150
-219.611	800.000	-0.035	-0.126
-218.596	84.615	-0.075	0.081
-217.582	-77.865	0.227	0.077
-216.567	190.018	-0.025	-0.037
-215.552	800.000	0.004	-0.012
-214.538	-200.000	0.049	0.265
-213.523	159.989	-0.047	-0.065
-212.509	-167.739	0.207	0.008
-211.494	163.285	-0.006	-0.009
-210.479	456.264	-0.050	-0.110
-209.465	-75.092	-0.151	-0.053
-208.450	285.658	0.139	0.247
-207.436	489.086	0.110	-0.246
-206.421	26.661	-0.157	-0.129
-205.406	91.004	-0.287	-0.317
-204.392	-200.000	-0.016	-0.238
-203.377	60.401	0.206	-0.201
-202.363	-200.000	0.042	-0.198
-201.348	307.589	0.135	0.247
-200.333	800.000	0.103	-0.358
-199.319	-157.531	-0.234	0.014
-198.304	-28.508	0.290	0.165
-197.290	-103.787	-0.245	-0.056
-196.275	-162.506	0.405	-0.020
-195.260	59.824	-0.203	0.197
-194.246	149.141	-0.139	0.185
-193.231	-200.000	-0.007	0.095
-192.217	-112.610	0.177	-0.035
-191.202	-92.052	0.222	-0.062
-190.187	207.330	0.193	-0.295
-189.173	-200.000	-0.000	0.224
-188.158	776.341	-0.107	-0.288
-187.144	-162.089	-0.304	-0.015
-186.129	-93.486	0.113	-0.031
-185.114	225.298	-0.039	-0.061
-184.100	364.773	-0.133	0.263
-183.085	800.000	-0.036	-0.140
-182.071	-200.000	-0.002	0.107
-181.056	-80.227	0.046	-0.015
-180.042	137.948	0.198	0.255
-179.027	247.217	0.120	0.199
-178.012	-97.513	-0.186	0.047
-176.998	245.925	0.088	-0.146
-175.983	-200.000	0.013	0.073
-174.969	800.000	-0.110	-0.403
-173.954	800.000	0.088	0.252
-172.939	146.672	0.141	-0.186
-171.925	327.164	0.062	-0.116
-170.910	265.828	0.189	-0.323
-169.896	466.025	-0.116	0.254
-168.881	-159.215	-0.519	-0.029
-167.866	-66.983	0.105	0.041
-166.852	-52.607	0.199	0.090
-165.837	59.964	0.091	-0.088
-164.823	144.752	-0.163	-0.213
-163.808	-178.678	-0.041	0.001
-162.793	-200.000	-0.005	0.094
-161.779	79.353	-0.258	0.272
-160.764	-200.000	-0.004	-0.105
-159.750	-82.832	0.331	0.105
-158.735	251.799	0.048	0.080
-157.720	-200.000	0.015	0.123
-156.706	800.000	-0.081	-0.324
-155.691	-105.301	-0.280	-0.063
-154.677	-200.000	0.019	-0.126
-153.662	-78.763	0.248	-0.083
-152.647	-35.868	-0.234	-0.124
-151.633	-82.508	0.176	0.056
-150.618	-162.229	-0.299	0.015
-149.604	-200.000	0.046	0.250
-148.589	800.000	0.056	0.199
-147.574	34.195	0.127	-0.108
-146.560	-56.144	-0.043	-0.019
-145.545	-47.343	0.104	-0.050
-144.531	-200.000	-0.006	0.478
-143.516	-200.000	0.028	-0.178
-142.502	181.222	0.112	0.162
-141.487	-200.000	0.015	0.198
-140.472	9.576	-0.074	-0.055
-139.458	-191.291	0.389	0.004
-138.443	-38.618	0.256	0.133
-137.429	171.023	-0.102	0.143
-136.414	-37.321	0.113	0.059
-135.399	-200.000	0.001	0.028
-134.385	800.000	-0.057	0.190
-133.370	-137.981	-0.264	0.029
-132.356	651.510	-0.109	-0.274
-131.341	-111.868	-0.207	-0.041
-130.326	-200.000	0.014	0.089
-129.312	93.751	-0.159	-0.176
-128.297	-200.000	0.048	-0.359
-127.283	173.978	0.108	-0.152
-126.268	254.746	0.133	-0.223
-125.253	-200.000	0.020	-0.414
-124.239	476.600	0.140	-0.310
-123.224	-101.296	0.375	0.090
-122.210	800.000	0.059	-0.195
-121.195	529.180	0.114	0.263
-120.180	-55.690	-0.327	0.143
-119.166	800.000	-0.020	0.069
-118.151	-200.000	0.005	-0.038
-117.137	29.976	0.366	-0.305
-116.122	800.000	-0.051	-0.173
-115.107	-61.835	0.147	0.060
-114.093	-104.180	0.456	-0.104
-113.078	-108.565	0.104	0.022
-112.064	-200.000	0.014	-0.102
-111.049	635.396	-0.175	0.434
-110.034	59.795	0.086	0.083
-109.020	-183.534	0.213	0.004
-108.005	-48.176	-0.058	0.027
-106.991	-200.000	0.048	-0.407
-105.976	113.083	0.099	0.117
-104.962	800.000	0.081	0.220
-103.947	32.602	-0.235	0.199
-102.932	37.629	-0.311	0.271
-101.918	511.016	0.102	0.231
-100.903	365.884	-0.112	-0.220
-99.889	-95.335	-0.165	-0.043
-98.874	-200.000	0.035	-0.179
-97.859	140.011	-0.172	-0.222
-96.845	-200.000	-0.017	-0.189
-95.830	26.986	-0.101	-0.083
-94.816	271.883	0.013	-0.022
-93.801	-109.065	0.248	-0.052
-92.786	-49.364	0.072	0.033
-91.772	-200.000	0.025	-0.235
-90.757	756.051	-0.093	0.246
-89.743	172.880	0.119	-0.167
-88.728	290.835	-0.068	0.121
-87.713	319.373	-0.157	0.291
-86.699	-20.586	0.272	0.163
-85.684	-49.929	-0.117	-0.054
-84.670	56.613	0.178	-0.169
-83.655	800.000	0.047	-0.178
-82.640	-105.792	0.298	-0.066
-81.626	-91.245	-0.213	0.060
-80.611	-133.133	-0.409	0.051
-79.597	-80.161	0.210	-0.069
-78.582	176.126	-0.230	-0.327
-77.567	-75.291	0.472	0.165
-76.553	-105.453	0.277	-0.062
-75.538	-200.000	0.047	0.202
-74.524	169.291	-0.172	-0.240
-73.509	193.720	0.127	-0.187
-72.494	313.994	0.118	0.218
-71.480	386.396	-0.035	-0.071
-70.465	-47.155	0.079	0.038
-69.451	-114.049	-0.156	0.030
-68.436	287.605	-0.087	0.154
-67.422	139.255	-0.138	-0.177
-66.407	-58.550	0.296	-0.126
-65.392	356.426	-0.175	0.340
-64.378	800.000	0.047	-0.188
-63.363	354.428	0.048	0.093
-62.349	498.408	0.029	0.064
-61.334	177.106	-0.826	-1.175
-60.319	10.858	0.634	0.473
-59.305	-200.000	-0.275	-1.330
-58.290	68.322	0.937	0.938
-57.276	800.000	0.505	1.629
-56.261	-200.000	118.063	643.420
-55.246	484.437	1552.487	3452.675
-54.232	173.044	2728.581	3841.714
-53.217	96.987	2293.432	2569.276
-52.203	35.159	1900.390	1627.010
-51.188	29.307	1694.877	1406.516
-50.173	26.912	1653.867	1354.574
-49.159	46.661	1711.965	1552.849
-48.144	45.468	1724.657	1555.239
-47.130	28.779	1681.915	1391.537
-46.115	26.293	1667.302	1360.703
-45.100	26.025	1663.048	1355.158
-44.086	26.076	1659.927	1352.945
-43.071	26.069	1657.888	1351.178
-42.057	26.013	1655.461	1348.731
-41.042	26.023	1653.056	1346.792
-40.027	26.056	1651.503	1345.716
-39.013	26.014	1649.598	1343.800
-37.998	25.988	1647.826	1342.111
-36.984	26.004	1646.829	1341.362
-35.969	26.158	1645.225	1341.149
-34.954	26.135	1643.683	1339.670
-33.940	26.200	1641.569	1338.372
-32.925	26.159	1640.225	1336.916
-31.911	26.158	1638.266	1335.262
-30.896	26.147	1636.451	1333.650
-29.881	26.187	1635.107	1332.797
-28.867	26.217	1633.336	1331.521
-27.852	26.177	1632.766	1330.710
-26.838	26.205	1630.502	1329.017
-25.823	26.195	1629.464	1328.041
-24.809	26.207	1627.914	1326.820
-23.794	26.242	1626.345	1325.744
-22.779	26.146	1625.553	1324.337
-21.765	26.124	1623.679	1322.600
-20.750	26.249	1621.624	1321.787
-19.736	26.227	1620.620	1320.752
-18.721	26.268	1618.851	1319.561
-17.706	26.259	1617.025	1317.953
-16.692	26.207	1616.021	1316.705
-15.677	26.316	1614.589	1316.276
-14.663	26.196	1613.246	1314.261
-13.648	26.322	1611.623	1313.798
-12.633	26.203	1610.782	1312.200
-11.619	26.311	1608.258	1310.870
-10.604	26.290	1606.915	1309.572
-9.590	26.233	1605.673	1308.099
-8.575	26.204	1604.943	1307.243
-7.560	26.212	1603.312	1305.916
-6.546	26.270	1602.107	1305.307
-5.531	26.177	1601.244	1303.875
-4.517	26.223	1600.104	1303.226
-3.502	26.163	1599.445	1302.206
-2.487	26.263	1597.387	1301.202
-1.473	25.834	1584.834	1287.856
-0.458	23.086	1565.626	1252.760
0.556	21.573	1567.235	1221.541
1.571	19.199	1591.631	1223.600
2.586	18.867	1603.971	1230.604
3.600	17.081	1550.224	1176.893
4.615	10.861	1443.273	1055.335
5.629	5.046	1383.949	975.580
6.644	3.967	1376.659	963.637
7.659	3.966	1375.334	962.620
8.673	4.087	1374.325	962.582
9.688	4.190	1372.372	961.765
10.702	4.190	1369.265	959.501
11.717	6.860	1374.153	979.410
12.731	14.329	1388.175	1035.932
13.746	20.815	1398.959	1084.409
14.761	22.647	1400.846	1097.185
15.775	22.177	1399.195	1092.877
16.790	21.253	1397.364	1085.611
17.804	20.509	1394.937	1079.007
18.819	20.194	1393.455	1075.817
19.834	20.286	1392.458	1075.521
20.848	20.085	1391.494	1073.433
21.863	20.051	1390.247	1072.169
22.877	19.835	1389.361	1070.051
23.892	19.815	1388.480	1069.154
24.907	19.672	1387.748	1067.613
25.921	19.698	1386.877	1067.013
26.936	19.661	1386.306	1066.251
27.950	19.746	1385.099	1065.751
28.965	19.922	1384.427	1066.223
29.980	20.114	1383.147	1066.325
30.994	20.240	1382.324	1066.370
32.009	20.313	1380.700	1065.474
33.023	20.260	1379.713	1064.292
34.038	20.030	1378.614	1061.936
35.053	19.972	1377.338	1060.505
36.067	19.931	1375.982	1059.116
37.082	20.032	1375.173	1059.016
38.096	20.094	1374.063	1058.452
39.111	20.121	1373.375	1057.993
40.126	19.933	1372.375	1055.978
41.140	19.616	1371.069	1052.952
42.155	19.395	1371.118	1051.548
43.169	19.264	1370.834	1050.436
44.184	19.395	1370.495	1050.882
45.199	19.521	1370.016	1051.191
46.213	19.806	1369.711	1052.595
47.228	19.934	1369.005	1052.742
48.242	19.941	1367.519	1051.548
49.257	19.813	1366.795	1050.120
50.271	19.876	1365.296	1049.254
51.286	19.707	1364.261	1047.346
52.301	19.941	1362.086	1046.997
53.315	19.717	1361.197	1044.865
54.330	19.462	1360.312	1042.556
55.344	19.445	1359.001	1041.355
56.359	19.476	1357.921	1040.621
57.374	19.475	1357.141	1039.929
58.388	19.283	1356.667	1038.313
59.403	19.396	1355.252	1037.823
60.417	19.358	1355.070	1037.364
61.432	19.361	1354.013	1036.480
62.447	19.246	1353.032	1034.943
63.461	19.058	1351.925	1032.878
64.476	19.011	1350.896	1031.721
65.490	19.151	1349.364	1031.298
66.505	19.107	1347.888	1029.812
67.520	19.068	1346.936	1028.762
68.534	19.266	1345.507	1028.759
69.549	19.163	1345.032	1027.691
70.563	19.105	1343.908	1026.397
71.578	18.925	1342.469	1024.132
72.593	18.867	1341.659	1023.081
73.607	18.855	1341.076	1022.477
74.622	18.971	1340.493	1022.631
75.636	19.031	1338.939	1021.709
76.651	19.015	1338.880	1021.479
77.666	19.084	1338.489	1021.500
78.680	19.197	1337.992	1021.701
79.695	19.266	1337.397	1021.564
80.709	19.380	1336.818	1021.707
81.724	19.438	1336.019	1021.350
82.739	19.640	1334.757	1021.488
83.753	19.765	1334.428	1021.889
84.768	19.936	1333.689	1022.243
85.782	20.081	1332.325	1021.957
86.797	20.138	1330.861	1021.082
87.812	19.920	1329.866	1018.946
88.826	19.910	1328.948	1018.095
89.841	19.954	1327.889	1017.448
90.855	20.042	1327.241	1017.379
91.870	20.055	1327.083	1017.247
92.884	20.103	1325.724	1016.395
93.899	20.219	1324.678	1016.182
94.914	20.249	1323.967	1015.720
95.928	20.173	1323.109	1014.532
96.943	20.089	1321.812	1012.957
97.957	20.012	1321.250	1011.985
98.972	20.037	1320.141	1011.194
99.987	19.888	1319.336	1009.615
101.001	20.034	1318.033	1009.380
102.016	19.931	1317.765	1008.486
103.030	20.086	1316.241	1008.135
104.045	20.030	1315.610	1007.235
105.060	19.908	1314.039	1005.234
106.074	19.535	1312.444	1001.764
107.089	19.244	1310.976	998.868
108.103	19.286	1309.190	997.657
109.118	19.146	1308.200	996.008
110.133	19.170	1306.815	995.005
111.147	19.285	1305.405	994.507
112.162	19.275	1304.245	993.474
113.176	19.298	1303.573	993.011
114.191	19.443	1302.364	992.831
115.206	19.397	1301.508	991.830
116.220	19.398	1300.231	990.772
117.235	19.366	1298.867	989.463
118.249	19.271	1297.812	988.025
119.264	19.160	1297.185	986.825
120.279	19.093	1295.825	985.324
121.293	19.171	1294.773	984.880
122.308	19.012	1293.365	982.815
123.322	18.860	1292.488	981.192
124.337	18.858	1291.096	980.036
125.352	18.915	1290.420	979.761
126.366	18.868	1289.448	978.672
127.381	18.854	1288.006	977.412
128.395	18.893	1286.801	976.627
129.410	19.004	1285.577	976.247
130.424	18.956	1285.898	976.129
131.439	19.243	1285.013	976.998
132.454	19.192	1284.164	975.977
133.468	19.261	1283.320	975.643
134.483	19.285	1283.033	975.472
135.497	19.307	1281.484	974.332
136.512	19.308	1280.917	973.821
137.527	19.337	1279.526	972.841
138.541	19.449	1277.948	972.185
139.556	19.583	1276.641	971.858
140.570	19.675	1275.388	971.336
141.585	19.836	1274.539	971.511
142.600	19.765	1274.001	970.615
143.614	19.824	1273.003	970.100
144.629	19.911	1272.300	969.963
145.643	19.983	1270.705	969.066
146.658	19.745	1269.524	966.749
147.673	19.556	1267.854	964.336
148.687	19.486	1266.508	962.837
149.702	19.434	1265.065	961.365
150.716	19.369	1263.833	959.981
151.731	19.373	1262.733	959.087
152.746	19.372	1261.434	958.008
153.760	19.451	1260.575	957.709
154.775	19.526	1259.901	957.529
155.789	19.680	1258.662	957.354
156.804	19.615	1258.353	956.675
157.819	19.797	1256.894	956.487
158.833	19.937	1256.215	956.659
159.848	20.096	1255.427	956.851
160.862	20.023	1254.472	955.637
161.877	19.620	1252.530	951.857
162.892	19.302	1251.725	949.405
163.906	19.411	1250.470	948.973
164.921	19.283	1249.758	947.643
165.935	19.367	1249.353	947.716
166.950	19.601	1248.582	948.329
167.964	19.561	1247.660	947.327
168.979	19.478	1247.281	946.497
169.994	19.498	1245.877	945.461
171.008	19.461	1245.478	944.872
172.023	19.639	1244.405	944.946
173.037	19.823	1244.796	946.165
174.052	19.934	1243.026	945.345
175.067	19.487	1241.437	941.616
176.081	19.425	1240.618	940.572
177.096	19.389	1239.610	939.528
178.110	19.406	1238.538	938.727
179.125	19.534	1237.208	938.329
180.140	19.619	1236.762	938.368
181.154	19.700	1235.926	938.093
182.169	19.760	1234.776	937.461
183.183	19.941	1233.347	937.273
184.198	19.962	1232.224	936.452
185.213	19.889	1231.222	935.214
186.227	20.050	1230.108	935.150
187.242	20.126	1229.719	935.184
188.256	20.198	1228.273	934.388
189.271	20.072	1227.802	933.268
190.286	19.936	1225.966	931.062
191.300	19.402	1225.318	927.616
192.315	19.370	1223.896	926.282
193.329	19.456	1223.877	926.648
194.344	19.493	1223.558	926.522
195.359	19.577	1223.029	926.494
196.373	19.813	1221.658	926.635
197.388	19.912	1221.891	927.259
198.402	20.135	1221.944	928.415
199.417	20.185	1221.616	928.350
200.432	20.390	1221.200	929.051
201.446	20.507	1219.956	928.644
202.461	20.610	1219.289	928.605
203.475	20.503	1218.553	927.392
204.490	20.135	1216.785	924.004
205.504	20.040	1215.284	922.276
206.519	19.976	1214.186	921.021
207.534	19.898	1213.458	919.975
208.548	19.847	1212.586	918.961
209.563	19.949	1212.066	919.026
210.577	19.911	1210.861	917.827
211.592	20.147	1209.823	918.211
212.607	20.345	1209.019	918.567
213.621	20.244	1208.129	917.274
214.636	20.264	1206.919	916.384
215.650	20.285	1206.065	915.762
216.665	20.383	1205.178	915.523
217.680	20.583	1204.752	916.177
218.694	20.589	1204.025	915.571
219.709	20.492	1203.058	914.244
220.723	20.441	1202.361	913.366
221.738	20.431	1201.554	912.618
222.753	20.321	1200.737	911.343
223.767	20.312	1200.156	910.771
224.782	20.637	1199.479	911.885
225.796	20.746	1199.073	912.064
226.811	20.619	1198.415	910.820
227.826	20.355	1197.650	908.772
228.840	20.386	1196.638	908.086
229.855	20.295	1195.506	906.675
230.869	20.281	1194.952	906.102
231.884	20.204	1193.848	904.781
232.899	20.202	1193.094	904.119
233.913	20.120	1192.239	902.965
234.928	20.039	1191.353	901.791
235.942	19.954	1190.727	900.797
236.957	19.992	1190.030	900.388
237.972	19.970	1188.855	899.304
238.986	19.928	1188.794	898.958
240.001	20.028	1187.997	898.793
241.015	20.136	1187.081	898.584
242.030	20.220	1186.406	898.426
243.045	20.294	1185.663	898.168
244.059	20.400	1184.530	897.778
245.074	20.447	1184.052	897.580
246.088	20.400	1183.595	896.913
247.103	20.456	1183.027	896.691
248.117	20.643	1182.334	897.053
249.132	20.899	1181.989	898.028
250.147	21.116	1181.419	898.636
251.161	21.184	1180.930	898.532
252.176	21.378	1180.022	898.760
253.190	21.426	1179.448	898.489
254.205	21.352	1179.295	897.912
255.220	21.494	1178.509	897.963
256.234	21.415	1177.720	896.881
257.249	21.275	1177.208	895.691
258.263	21.301	1176.314	895.065
259.278	21.298	1175.858	894.624
260.293	21.302	1175.379	894.201
261.307	21.471	1174.668	894.442
262.322	21.516	1173.879	893.995
263.336	21.450	1173.726	893.464
264.351	21.463	1172.827	892.763
265.366	21.531	1171.781	892.234
266.380	21.480	1171.709	891.844
267.395	21.387	1170.688	890.514
268.409	21.203	1169.716	888.759
269.424	21.309	1168.807	888.527
270.439	21.303	1167.958	887.773
271.453	21.170	1167.408	886.603
272.468	21.077	1166.292	885.205
273.482	20.904	1165.394	883.567
274.497	20.961	1165.115	883.564
275.512	21.142	1164.215	883.723
276.526	21.000	1163.760	882.580
277.541	21.132	1162.246	882.018
278.555	21.327	1162.111	882.827
279.570	21.433	1161.833	883.070
280.585	21.552	1161.095	883.032
281.599	21.454	1160.004	881.633
282.614	21.306	1158.749	879.853
283.628	21.147	1157.573	878.084
284.643	21.214	1156.765	877.729
285.657	21.283	1155.785	877.253
286.672	21.224	1154.636	876.008
287.687	21.233	1153.911	875.427
288.701	21.176	1153.654	874.868
289.716	21.213	1152.301	873.952
290.730	21.286	1151.634	873.733
291.745	21.396	1151.331	873.976
292.760	21.446	1150.516	873.527
293.774	21.515	1149.859	873.299
294.789	21.521	1149.937	873.306
295.803	21.577	1149.096	872.870
296.818	21.294	1148.124	870.645
297.833	21.312	1147.528	870.209
298.847	21.316	1146.030	869.011
299.862	21.289	1145.855	868.672
300.876	21.383	1144.712	868.193
301.891	21.520	1144.546	868.670
302.906	21.599	1144.225	868.744
303.920	21.817	1143.412	869.130
304.935	21.803	1143.118	868.760
305.949	21.975	1142.574	869.119
306.964	21.903	1141.536	867.896
307.979	21.722	1141.075	866.576
308.993	21.649	1139.934	865.273
310.008	21.804	1139.126	865.345
311.022	21.826	1138.606	864.983
312.037	21.730	1137.591	863.665
313.052	21.689	1136.539	862.588
314.066	21.561	1135.095	860.783
315.081	21.192	1134.558	858.486
316.095	21.146	1133.775	857.591
317.110	21.277	1132.862	857.470
318.125	21.294	1131.936	856.776
319.139	21.180	1131.820	856.055
320.154	21.310	1130.811	855.852
321.168	21.362	1129.974	855.398
322.183	21.434	1129.424	855.255
323.197	21.291	1129.358	854.433
324.212	21.499	1128.484	854.711
325.227	21.482	1128.095	854.256
326.241	21.497	1127.470	853.781
327.256	21.451	1126.623	852.840
328.270	21.390	1125.461	851.587
329.285	21.265	1124.805	850.410
330.300	21.443	1123.668	850.340
331.314	21.261	1122.994	848.870
332.329	21.359	1122.091	848.586
333.343	21.450	1121.055	848.172
334.358	21.570	1120.206	848.032
335.373	21.670	1120.145	848.397
336.387	21.850	1118.602	848.023
337.402	21.801	1118.272	847.462
338.416	21.785	1117.554	846.768
339.431	21.933	1117.448	847.323
340.446	22.094	1116.637	847.410
341.460	22.243	1116.170	847.700
342.475	22.215	1115.557	847.024
343.489	22.273	1114.477	846.409
344.504	22.383	1113.303	845.972
345.519	22.339	1112.894	845.375
346.533	22.390	1112.168	844.991
347.548	22.525	1111.335	844.932
348.562	22.442	1110.236	843.627
349.577	22.242	1109.132	841.754
350.592	21.882	1108.374	839.381
351.606	21.832	1107.337	838.283
352.621	21.756	1106.468	837.190
353.635	21.586	1106.367	836.228
354.650	21.734	1105.524	836.224
355.665	21.854	1104.710	836.103
356.679	21.954	1104.294	836.190
357.694	21.963	1103.884	835.850
358.708	22.118	1103.317	836.086
359.723	22.077	1102.604	835.275
360.738	21.974	1102.266	834.456
361.752	22.072	1100.963	833.859
362.767	22.150	1100.847	834.068
363.781	22.154	1100.206	833.527
364.796	22.342	1100.109	834.273
365.810	22.557	1099.198	834.527
366.825	22.725	1098.773	834.926
367.840	22.729	1098.645	834.773
368.854	22.868	1098.089	834.932
369.869	22.771	1097.259	833.770
370.883	22.667	1096.075	832.307
371.898	22.529	1095.317	831.007
372.913	22.490	1094.748	830.317
373.927	22.562	1094.253	830.205
374.942	22.742	1093.572	830.464
375.956	22.632	1093.345	829.702
376.971	22.622	1092.847	829.201
377.986	22.648	1092.158	828.729
379.000	22.866	1091.539	829.208
380.015	22.852	1091.419	828.979
381.029	22.961	1090.377	828.626
382.044	23.137	1089.407	828.638
383.059	22.957	1088.972	827.392
384.073	22.858	1088.313	826.356
385.088	22.899	1087.588	825.922
386.102	22.894	1086.348	824.886
387.117	22.665	1085.227	822.895
388.132	22.486	1084.010	821.063
389.146	22.561	1083.019	820.591
390.161	22.513	1082.288	819.740
391.175	22.481	1082.154	819.418
392.190	22.558	1081.527	819.226
393.205	22.789	1081.048	819.867
394.219	22.730	1080.228	818.897
395.234	22.736	1078.871	817.825
396.248	22.544	1077.928	816.147
397.263	22.513	1077.017	815.242
398.278	22.344	1076.372	813.900
399.292	22.285	1075.149	812.631
400.307	22.262	1074.572	812.014
401.321	22.253	1073.802	811.322
402.336	22.286	1073.313	811.033
403.350	22.199	1072.866	810.222
404.365	22.432	1071.758	810.385
405.380	22.563	1071.244	810.525
406.394	22.565	1070.791	810.121
407.409	22.765	1069.820	810.234
408.423	22.931	1069.543	810.714
409.438	23.082	1068.901	810.850
410.453	22.973	1068.501	809.974
411.467	23.170	1067.449	810.005
412.482	23.175	1067.122	809.712
413.496	23.174	1066.402	809.089
414.511	23.323	1066.195	809.538
415.526	23.346	1065.658	809.166
416.540	23.503	1064.960	809.280
417.555	23.467	1064.605	808.775
418.569	23.263	1063.906	807.242
419.584	23.239	1063.578	806.814
420.599	23.287	1062.570	806.192
421.613	157.805	1404.748	1797.063
422.628	145.183	1454.594	1797.129
