DTS Sentinel unit serial number:	SN413079Multiplexer serial number:	ORYXHardware model number:	OX4-SRSoftware version number:	ORYX F/W v4.00 Oryx Data Collector v3.7.2.0data status	okinstallation	princeton_trtdifferential loss correction	single-endedforward channel	channel 2reverse channel	N/Adate	2019/09/11time	09:33:10forward acquisition time	60.00reverse acquisition time	0.00gamma	496.2192k internal	0.2317k external	0.2317temperature offset calibration	0.9966default loss term (dB/km)	0.3790temperature slope calibration	1.0000multiplexer offset coefficient	1.0000multiplexer slope coefficient	1.0000fibre end	0.00T internal ref (°C)	34.75T ext. ref 1 (°C)	0.12T ext. ref 2 (°C)	30.74length (m)	temperature (°C)	Stokes	anti-Stokes-747.200	800.000	0.077	0.286
-746.185	-29.270	0.337	0.195
-745.171	-139.153	0.436	0.048
-744.156	-200.000	0.017	-0.149
-743.142	-200.000	0.022	-0.265
-742.127	17.273	0.313	0.251
-741.112	-66.373	-0.391	0.157
-740.098	62.917	0.021	-0.021
-739.083	-113.208	0.229	-0.046
-738.069	24.618	-0.104	0.087
-737.054	800.000	-0.039	-0.159
-736.039	-108.048	-0.266	-0.058
-735.025	800.000	-0.077	-0.340
-734.010	-90.575	-0.494	0.145
-732.996	800.000	-0.052	-0.174
-731.981	548.082	0.046	0.110
-730.966	-166.752	-0.087	-0.004
-729.952	102.844	-0.086	0.102
-728.937	-68.898	0.129	-0.051
-727.923	800.000	-0.081	-0.237
-726.908	800.000	0.027	0.105
-725.894	-200.000	-0.029	0.143
-724.879	101.217	0.105	0.123
-723.864	-98.331	-0.253	-0.066
-722.850	-187.936	-0.357	-0.005
-721.835	186.469	-0.083	0.125
-720.821	182.115	-0.217	0.323
-719.806	800.000	-0.111	-0.346
-718.791	311.323	-0.029	-0.056
-717.777	800.000	0.062	-0.201
-716.762	-200.000	-0.014	-0.284
-715.748	92.929	-0.192	-0.219
-714.733	132.464	-0.206	0.269
-713.718	800.000	0.087	0.272
-712.704	-31.590	-0.152	-0.086
-711.689	-63.246	-0.204	-0.085
-710.675	-200.000	-0.043	-0.242
-709.660	-96.179	-0.152	0.041
-708.645	51.000	0.342	0.327
-707.631	90.392	-0.107	0.121
-706.616	-166.692	-0.412	0.017
-705.602	-34.646	0.214	0.118
-704.587	-200.000	0.019	-0.083
-703.572	213.624	-0.090	0.143
-702.558	800.000	-0.117	-0.392
-701.543	16.822	-0.202	-0.162
-700.529	297.879	0.041	-0.076
-699.514	17.946	-0.119	0.096
-698.499	-46.896	0.060	-0.030
-697.485	216.538	0.069	-0.110
-696.470	-43.420	0.147	-0.075
-695.456	35.511	-0.353	0.314
-694.441	53.856	-0.115	-0.111
-693.426	-200.000	-0.054	-0.440
-692.412	-51.270	-0.179	0.085
-691.397	-64.468	-0.091	-0.038
-690.383	-105.502	-0.180	-0.041
-689.368	800.000	-0.003	-0.011
-688.354	153.461	-0.073	0.101
-687.339	-58.057	-0.224	-0.099
-686.324	-43.744	-0.183	-0.093
-685.310	311.958	-0.049	0.093
-684.295	-24.053	-0.150	0.091
-683.281	312.534	0.070	0.133
-682.266	-81.505	0.260	0.086
-681.251	800.000	-0.063	-0.257
-680.237	-67.853	-0.108	-0.042
-679.222	130.731	0.239	0.309
-678.208	-78.405	0.103	-0.036
-677.193	-85.961	0.071	0.022
-676.178	-73.771	-0.199	-0.073
-675.164	8.270	-0.076	-0.058
-674.149	132.360	0.129	-0.168
-673.135	185.669	-0.249	0.374
-672.120	-81.830	0.420	0.139
-671.105	-132.788	-0.253	-0.033
-670.091	428.614	0.102	-0.223
-669.076	-104.187	-0.185	-0.043
-668.062	-50.279	0.215	-0.103
-667.047	-200.000	-0.010	-0.198
-666.032	-69.138	0.119	-0.046
-665.018	304.869	-0.116	0.218
-664.003	452.008	0.122	0.273
-662.989	800.000	0.041	0.137
-661.974	-22.320	0.089	-0.055
-660.959	-160.984	0.289	-0.015
-659.945	-200.000	0.013	0.135
-658.930	-98.280	-0.296	0.077
-657.916	-200.000	0.021	-0.145
-656.901	-164.420	-0.167	0.008
-655.886	-153.114	-0.236	-0.017
-654.872	-200.000	0.050	-0.306
-653.857	171.371	0.092	0.134
-652.843	-99.586	0.117	0.030
-651.828	158.291	0.113	-0.158
-650.814	-153.407	0.170	-0.012
-649.799	-200.000	0.075	-0.412
-648.784	-69.324	0.164	0.063
-647.770	-23.882	-0.124	-0.075
-646.755	-142.890	-0.442	-0.043
-645.741	436.869	-0.161	-0.355
-644.726	173.744	-0.018	-0.026
-643.711	-110.334	-0.242	-0.051
-642.697	140.056	0.314	-0.417
-641.682	486.473	0.031	-0.070
-640.668	-200.000	-0.023	0.181
-639.653	-97.137	-0.346	0.091
-638.638	129.132	0.100	-0.128
-637.624	-81.248	0.131	-0.044
-636.609	-200.000	0.058	-0.575
-635.595	-90.262	0.189	-0.055
-634.580	800.000	0.043	-0.140
-633.565	160.385	-0.155	0.218
-632.551	575.302	-0.074	0.182
-631.536	-200.000	-0.054	0.355
-630.522	753.037	-0.046	0.126
-629.507	111.134	-0.079	0.096
-628.492	129.387	0.045	-0.058
-627.478	-13.436	0.239	0.157
-626.463	-116.732	-0.214	0.040
-625.449	-200.000	-0.022	-0.174
-624.434	512.649	-0.039	0.090
-623.419	-200.000	0.049	0.247
-622.405	-19.626	0.183	0.114
-621.390	11.750	-0.323	0.250
-620.376	-200.000	0.011	0.230
-619.361	-89.462	-0.218	-0.065
-618.346	450.904	-0.018	-0.039
-617.332	800.000	-0.080	0.291
-616.317	-128.388	0.259	0.037
-615.303	-19.267	0.061	-0.038
-614.288	-21.084	-0.280	-0.173
-613.273	-90.619	-0.131	-0.038
-612.259	-29.530	-0.237	-0.136
-611.244	-39.876	-0.197	0.103
-610.230	-145.020	0.259	-0.024
-609.215	-133.410	-0.074	0.009
-608.201	78.608	0.198	0.213
-607.186	-200.000	-0.010	-0.414
-606.171	103.376	-0.242	0.286
-605.157	-200.000	0.045	0.337
-604.142	742.001	0.042	0.114
-603.128	-27.981	-0.162	0.094
-602.113	152.109	-0.061	-0.084
-601.098	23.435	-0.242	-0.200
-600.084	59.529	-0.139	0.138
-599.069	-55.600	-0.231	0.104
-598.055	193.221	-0.209	0.318
-597.040	-37.138	0.149	-0.080
-596.025	-64.962	-0.147	-0.060
-595.011	150.988	0.065	0.088
-593.996	800.000	0.041	-0.181
-592.982	-26.622	0.162	0.095
-591.967	-28.274	0.060	0.035
-590.952	-59.225	-0.190	-0.082
-589.938	48.205	-0.120	-0.113
-588.923	-35.084	0.174	0.096
-587.909	-103.746	0.199	0.047
-586.894	438.170	-0.051	-0.111
-585.879	2.542	0.116	0.084
-584.865	-32.314	0.033	-0.018
-583.850	276.485	0.085	-0.151
-582.836	-86.349	0.121	0.038
-581.821	415.490	0.092	0.198
-580.806	561.460	0.186	-0.453
-579.792	-8.656	0.011	-0.008
-578.777	78.418	0.148	-0.159
-577.763	535.721	0.082	-0.195
-576.748	113.654	-0.149	0.182
-575.733	-113.840	-0.317	0.062
-574.719	15.316	0.324	-0.256
-573.704	60.895	-0.122	0.122
-572.690	-44.156	-0.064	-0.032
-571.675	800.000	-0.020	0.081
-570.661	-200.000	-0.094	0.513
-569.646	116.432	0.097	-0.119
-568.631	-124.877	0.482	-0.075
-567.617	799.964	0.056	-0.155
-566.602	-125.643	-0.162	0.025
-565.588	218.503	0.042	0.068
-564.573	14.105	-0.283	0.221
-563.558	-19.929	0.113	-0.070
-562.544	83.411	0.096	0.105
-561.529	137.519	-0.150	0.197
-560.515	-35.298	0.291	-0.159
-559.500	35.925	-0.042	-0.037
-558.485	800.000	0.039	0.152
-557.471	-200.000	0.008	-0.080
-556.456	-71.789	0.024	-0.009
-555.442	-51.894	-0.277	-0.129
-554.427	-21.709	-0.269	-0.165
-553.412	-125.493	-0.501	0.077
-552.398	4.350	0.340	-0.251
-551.383	-180.521	-0.177	0.004
-550.369	-94.756	-0.214	-0.058
-549.354	176.380	0.088	-0.128
-548.339	486.444	-0.090	-0.207
-547.325	-32.200	0.256	0.144
-546.310	247.082	-0.132	0.223
-545.296	-195.250	-0.310	0.002
-544.281	-124.002	0.265	-0.042
-543.266	-200.000	0.001	-0.120
-542.252	273.727	-0.119	-0.212
-541.237	-200.000	-0.038	0.249
-540.223	-200.000	0.015	-0.277
-539.208	513.226	-0.090	-0.210
-538.193	210.891	0.135	0.213
-537.179	-170.893	0.275	0.009
-536.164	57.315	-0.027	0.027
-535.150	-200.000	0.006	0.243
-534.135	54.043	0.089	0.085
-533.121	-200.000	0.071	-0.411
-532.106	80.310	0.168	-0.182
-531.091	-52.152	0.184	0.086
-530.077	-200.000	-0.005	0.058
-529.062	369.095	-0.063	0.128
-528.048	-31.924	-0.092	-0.052
-527.033	41.317	-0.174	0.158
-526.018	267.469	-0.118	0.207
-525.004	-200.000	0.006	0.052
-523.989	169.106	0.114	0.163
-522.975	-7.210	0.304	-0.207
-521.960	598.300	-0.035	0.087
-520.945	206.773	0.034	0.054
-519.931	-39.102	0.091	0.048
-518.916	800.000	-0.117	0.432
-517.902	111.175	0.160	-0.193
-516.887	-28.594	0.112	0.065
-515.872	30.009	-0.314	0.269
-514.858	-143.475	-0.210	0.020
-513.843	-200.000	-0.032	-0.298
-512.829	276.132	-0.150	0.268
-511.814	-200.000	-0.024	0.195
-510.799	800.000	0.073	0.233
-509.785	15.064	0.369	-0.290
-508.770	26.204	-0.179	0.150
-507.756	104.389	-0.196	-0.232
-506.741	-173.903	0.086	-0.003
-505.726	454.154	0.033	-0.074
-504.712	-44.156	0.093	0.047
-503.697	97.771	-0.102	-0.118
-502.683	-200.000	0.021	0.198
-501.668	-76.030	0.395	0.140
-500.653	800.000	0.077	0.293
-499.639	-175.440	0.252	0.007
-498.624	-37.372	-0.114	0.061
-497.610	-157.772	0.355	-0.021
-496.595	-99.905	0.119	0.030
-495.581	-200.000	0.004	0.020
-494.566	-34.528	-0.068	-0.037
-493.551	-159.864	-0.444	-0.024
-492.537	236.007	0.094	-0.155
-491.522	-200.000	0.027	-0.262
-490.508	40.924	0.120	-0.109
-489.493	-69.155	-0.346	-0.133
-488.478	-200.000	-0.038	-0.210
-487.464	-200.000	-0.019	-0.090
-486.449	60.966	0.291	0.290
-485.435	-101.506	-0.236	0.058
-484.420	18.131	-0.141	0.113
-483.405	-84.113	-0.162	0.051
-482.391	29.932	-0.054	0.046
-481.376	-61.936	-0.178	0.075
-480.362	-200.000	-0.007	0.090
-479.347	88.715	-0.152	-0.170
-478.332	-101.801	0.147	-0.036
-477.318	281.920	-0.030	0.053
-476.303	0.347	0.134	0.096
-475.289	-20.101	-0.197	0.122
-474.274	-198.124	-0.358	-0.002
-473.259	-200.000	0.016	0.233
-472.245	126.704	-0.017	0.022
-471.230	-145.540	0.143	0.013
-470.216	-15.607	-0.292	-0.187
-469.201	400.305	-0.009	-0.020
-468.186	62.182	0.231	-0.230
-467.172	800.000	-0.066	0.233
-466.157	323.355	0.327	-0.625
-465.143	-155.216	-0.181	-0.012
-464.128	800.000	0.028	-0.083
-463.113	-100.516	-0.175	-0.043
-462.099	126.671	-0.070	0.089
-461.084	-133.859	-0.121	0.015
-460.070	155.383	0.003	0.005
-459.055	-52.606	0.105	0.048
-458.040	-136.154	-0.122	-0.014
-457.026	-32.682	-0.287	-0.160
-456.011	104.766	0.242	-0.286
-454.997	42.358	-0.223	-0.203
-453.982	-37.158	0.287	-0.154
-452.968	-153.946	-0.420	-0.029
-451.953	-156.346	-0.374	-0.023
-450.938	-131.464	-0.307	-0.041
-449.924	-200.000	-0.002	-0.368
-448.909	800.000	-0.094	-0.341
-447.895	735.770	0.039	-0.106
-446.880	-49.897	-0.113	-0.053
-445.865	57.465	-0.109	-0.106
-444.851	-73.950	-0.203	-0.074
-443.836	48.486	-0.103	-0.096
-442.822	-101.133	0.462	-0.113
-441.807	242.602	0.175	-0.292
-440.792	800.000	-0.056	-0.184
-439.778	397.011	-0.053	0.111
-438.763	-64.365	0.058	-0.024
-437.749	-200.000	0.032	0.157
-436.734	-16.603	-0.074	-0.047
-435.719	-46.944	-0.358	-0.175
-434.705	43.235	-0.160	0.146
-433.690	-23.061	-0.134	0.081
-432.676	-200.000	0.044	-0.282
-431.661	150.413	-0.035	0.048
-430.646	800.000	-0.067	0.214
-429.632	-183.274	-0.049	0.001
-428.617	-98.815	0.159	0.040
-427.603	185.507	-0.113	0.168
-426.588	442.573	-0.102	-0.224
-425.573	290.029	0.151	-0.273
-424.559	203.570	-0.055	0.084
-423.544	-9.769	-0.059	0.039
-422.530	-109.180	0.096	0.020
-421.515	-200.000	-0.000	-0.214
-420.500	-60.280	0.201	0.085
-419.486	249.269	-0.100	-0.170
-418.471	105.584	0.198	0.234
-417.457	-5.239	0.238	-0.164
-416.442	-200.000	-0.089	0.450
-415.428	-52.922	-0.073	0.033
-414.413	-9.365	-0.263	-0.176
-413.398	-115.469	0.396	-0.075
-412.384	-200.000	-0.010	0.145
-411.369	30.279	0.161	0.138
-410.355	-131.057	0.163	0.022
-409.340	46.497	-0.163	0.151
-408.325	-85.600	-0.173	-0.054
-407.311	-200.000	-0.012	0.109
-406.296	-54.590	0.133	-0.060
-405.282	529.292	0.046	0.109
-404.267	545.487	0.081	0.194
-403.252	327.469	0.115	0.220
-402.238	-36.770	-0.077	0.041
-401.223	-68.364	-0.160	0.062
-400.209	-200.000	0.019	-0.173
-399.194	-88.621	0.301	0.090
-398.179	-133.712	0.168	0.021
-397.165	-53.063	-0.258	0.118
-396.150	-105.776	-0.019	0.004
-395.136	272.599	-0.125	0.220
-394.121	-62.894	0.273	0.113
-393.106	-200.000	-0.022	-0.214
-392.092	382.216	-0.103	0.212
-391.077	-103.803	0.150	0.035
-390.063	1.752	0.289	0.208
-389.048	-200.000	0.005	-0.044
-388.033	388.322	0.086	-0.179
-387.019	-96.394	-0.251	-0.066
-386.004	-36.339	0.179	-0.096
-384.990	-35.907	-0.297	0.160
-383.975	-200.000	0.012	0.155
-382.960	64.139	-0.232	0.233
-381.946	-22.973	-0.058	-0.035
-380.931	37.979	0.060	-0.053
-379.917	800.000	0.074	-0.319
-378.902	-124.115	-0.111	0.017
-377.888	-200.000	-0.081	-0.370
-376.873	449.043	0.119	-0.262
-375.858	-39.421	-0.446	-0.233
-374.844	-138.172	-0.191	-0.021
-373.829	-200.000	-0.038	-0.381
-372.815	-67.663	-0.228	0.089
-371.800	-123.398	0.279	-0.044
-370.785	-83.021	-0.059	-0.019
-369.771	507.970	-0.075	0.174
-368.756	260.820	-0.225	-0.388
-367.742	94.542	-0.153	-0.174
-366.727	206.516	0.099	0.154
-365.712	-91.472	0.257	-0.073
-364.698	-200.000	0.002	0.054
-363.683	-200.000	-0.003	0.062
-362.669	77.435	-0.158	-0.168
-361.654	-200.000	0.009	0.302
-360.639	207.189	-0.096	0.149
-359.625	452.109	-0.017	0.037
-358.610	220.554	0.033	-0.053
-357.596	-200.000	-0.013	-0.200
-356.581	-0.962	0.299	0.211
-355.566	28.772	-0.086	0.073
-354.552	-77.929	-0.078	0.027
-353.537	-54.615	0.362	-0.163
-352.523	98.923	0.057	0.066
-351.508	389.145	0.058	-0.120
-350.493	426.228	0.072	-0.155
-349.479	-67.953	0.110	-0.043
-348.464	-200.000	-0.006	0.156
-347.450	455.006	0.033	0.073
-346.435	-64.182	0.162	0.066
-345.420	-200.000	-0.040	-0.185
-344.406	-200.000	0.071	0.315
-343.391	-152.135	0.177	0.013
-342.377	42.331	0.207	-0.187
-341.362	800.000	-0.059	0.202
-340.348	-200.000	0.035	0.191
-339.333	-105.960	0.111	0.025
-338.318	-186.393	0.054	-0.001
-337.304	-116.590	-0.039	0.007
-336.289	93.699	-0.044	0.049
-335.275	-200.000	0.037	0.214
-334.260	-70.352	0.330	0.125
-333.245	-60.238	-0.161	0.068
-332.231	-132.562	-0.395	0.051
-331.216	-64.799	0.158	-0.064
-330.202	-200.000	-0.017	0.221
-329.187	396.012	-0.018	-0.037
-328.172	800.000	-0.043	-0.187
-327.158	228.012	0.114	-0.185
-326.143	-153.404	-0.060	-0.004
-325.129	-84.612	-0.111	-0.035
-324.114	-16.398	0.081	0.051
-323.099	-123.819	0.271	-0.043
-322.085	800.000	-0.071	-0.290
-321.070	-165.207	-0.447	-0.020
-320.056	-102.680	-0.280	0.067
-319.041	-73.223	-0.037	-0.014
-318.026	84.670	0.131	0.142
-317.012	-31.412	-0.211	-0.118
-315.997	-200.000	-0.012	-0.144
-314.983	-86.438	0.456	0.140
-313.968	-134.128	-0.048	0.006
-312.953	-35.648	0.299	0.161
-311.939	-40.960	0.188	0.097
-310.924	89.381	0.081	-0.089
-309.910	-142.860	0.125	0.012
-308.895	-200.000	0.004	0.179
-307.880	303.316	-0.034	-0.063
-306.866	-27.621	0.125	0.072
-305.851	800.000	-0.092	0.284
-304.837	-42.648	-0.113	-0.057
-303.822	49.643	0.261	-0.245
-302.807	-99.104	0.080	-0.020
-301.793	367.137	-0.041	0.082
-300.778	184.789	-0.106	-0.156
-299.764	497.865	-0.071	-0.162
-298.749	155.665	-0.072	-0.099
-297.735	13.201	0.156	-0.120
-296.720	177.199	0.114	0.165
-295.705	-22.976	-0.154	0.092
-294.691	-10.667	0.308	0.203
-293.676	159.047	0.068	0.094
-292.662	-164.054	-0.240	-0.011
-291.647	14.028	-0.328	0.254
-290.632	-83.250	-0.094	-0.030
-289.618	171.710	0.257	-0.367
-288.603	-116.072	0.307	0.057
-287.589	-165.543	-0.175	-0.008
-286.574	-27.962	0.200	-0.115
-285.559	-86.485	0.178	0.054
-284.545	226.847	0.043	-0.070
-283.530	145.117	0.033	0.044
-282.516	-200.000	0.034	0.157
-281.501	-78.929	0.327	-0.111
-280.486	46.406	-0.433	0.399
-279.472	23.112	0.073	0.060
-278.457	9.785	0.125	0.094
-277.443	-24.891	-0.244	0.144
-276.428	-94.756	0.281	-0.076
-275.413	-168.806	0.033	-0.001
-274.399	-140.492	0.316	0.033
-273.384	768.061	-0.137	-0.370
-272.370	800.000	0.073	-0.297
-271.355	7.902	-0.145	-0.108
-270.340	-27.310	-0.180	0.104
-269.326	-200.000	-0.017	0.268
-268.311	14.819	0.056	0.043
-267.297	-77.806	0.441	-0.151
-266.282	-67.874	-0.078	0.030
-265.267	-200.000	-0.033	-0.491
-264.253	-83.847	0.488	0.155
-263.238	-200.000	-0.062	0.274
-262.224	653.931	0.056	0.143
-261.209	106.687	0.100	0.118
-260.195	-121.787	0.270	0.044
-259.180	-150.377	-0.095	-0.007
-258.165	-87.674	0.120	-0.036
-257.151	800.000	0.085	0.250
-256.136	-40.879	-0.372	-0.191
-255.122	-44.362	0.200	0.100
-254.107	237.729	0.050	-0.082
-253.092	10.460	-0.374	-0.283
-252.078	-46.129	-0.355	0.174
-251.063	81.250	-0.273	0.293
-250.049	-73.238	-0.099	-0.036
-249.034	191.522	0.059	0.089
-248.019	-200.000	-0.028	0.195
-247.005	-200.000	-0.049	-0.215
-245.990	-163.757	0.278	-0.013
-244.976	523.310	0.101	0.236
-243.961	484.024	0.146	-0.331
-242.946	57.953	-0.119	-0.115
-241.932	-68.233	0.100	0.039
-240.917	-107.691	-0.204	0.044
-239.903	800.000	-0.016	0.054
-238.888	86.944	0.064	-0.071
-237.873	72.067	0.159	-0.164
-236.859	800.000	-0.035	0.128
-235.844	34.645	0.163	-0.141
-234.830	-94.945	0.093	-0.025
-233.815	-140.357	0.117	0.012
-232.800	480.155	0.072	-0.162
-231.786	89.942	0.111	0.123
-230.771	-130.880	0.078	-0.010
-229.757	-200.000	-0.000	-0.030
-228.742	-156.216	0.207	-0.013
-227.727	26.975	0.243	-0.203
-226.713	800.000	0.051	-0.179
-225.698	-46.535	-0.284	-0.138
-224.684	195.700	-0.100	0.151
-223.669	700.490	-0.121	-0.316
-222.655	-200.000	-0.001	-0.097
-221.640	-93.970	-0.224	-0.061
-220.625	-27.348	0.333	-0.192
-219.611	-106.455	-0.222	-0.049
-218.596	-81.601	0.298	0.097
-217.582	-83.776	0.074	0.023
-216.567	-27.082	0.073	-0.042
-215.552	-200.000	-0.158	0.000
-214.538	-190.840	0.145	-0.002
-213.523	-194.307	0.435	-0.003
-212.509	390.621	-0.219	-0.451
-211.494	150.328	0.073	-0.098
-210.479	149.334	-0.036	0.049
-209.465	186.816	-0.072	0.107
-208.450	21.032	-0.122	-0.098
-207.436	800.000	-0.096	0.314
-206.421	-103.865	0.065	0.015
-205.406	-166.727	-0.313	0.013
-204.392	46.251	-0.100	0.092
-203.377	-200.000	0.002	0.153
-202.363	-200.000	-0.023	0.139
-201.348	68.760	0.259	0.264
-200.333	24.736	-0.116	-0.096
-199.319	277.463	-0.084	-0.149
-198.304	271.899	-0.136	-0.238
-197.290	-200.000	-0.016	0.194
-196.275	-163.194	0.214	0.010
-195.260	800.000	-0.066	0.253
-194.246	-163.343	0.338	0.016
-193.231	-120.194	-0.173	0.029
-192.217	-200.000	-0.023	-0.217
-191.202	-200.000	0.005	0.266
-190.187	20.083	-0.196	0.156
-189.173	-175.251	0.138	0.004
-188.158	-200.000	0.014	-0.177
-187.144	364.367	-0.100	0.200
-186.129	800.000	0.078	0.216
-185.114	437.569	-0.095	-0.206
-184.100	-77.566	0.190	-0.065
-183.085	-104.494	-0.301	0.069
-182.071	495.384	0.093	-0.211
-181.056	-27.209	0.286	-0.165
-180.042	470.335	-0.202	0.450
-179.027	-85.078	0.173	-0.054
-178.012	-108.547	0.259	-0.055
-176.998	342.136	0.051	0.098
-175.983	-32.980	0.233	-0.128
-174.969	0.540	-0.091	-0.064
-173.954	-156.773	0.290	-0.018
-172.939	-200.000	0.010	0.305
-171.925	-142.194	0.025	-0.002
-170.910	210.853	0.048	-0.075
-169.896	-36.894	-0.169	0.090
-168.881	-130.507	0.176	-0.024
-167.866	-154.881	-0.177	0.012
-166.852	13.534	-0.292	0.224
-165.837	-36.491	-0.101	-0.054
-164.823	-29.319	-0.279	0.158
-163.808	-142.852	0.280	0.027
-162.793	-136.705	0.159	-0.018
-161.779	315.872	-0.063	-0.117
-160.764	-46.382	-0.123	-0.060
-159.750	-200.000	-0.015	0.211
-158.735	67.408	0.082	0.083
-157.720	-200.000	0.026	-0.216
-156.706	-65.975	0.333	0.132
-155.691	-200.000	-0.023	0.136
-154.677	83.841	-0.099	0.107
-153.662	81.159	0.090	0.096
-152.647	-51.006	-0.059	0.027
-151.633	706.646	-0.068	0.178
-150.618	-200.000	-0.024	-0.180
-149.604	118.529	0.037	0.045
-148.589	210.380	-0.124	-0.193
-147.574	42.486	0.318	-0.286
-146.560	8.103	-0.381	-0.283
-145.545	66.860	0.082	-0.082
-144.531	-81.763	0.063	0.020
-143.516	-200.000	-0.036	0.263
-142.502	55.097	-0.075	0.072
-141.487	-200.000	0.026	-0.376
-140.472	396.003	-0.149	-0.308
-139.458	800.000	-0.124	-0.420
-138.443	-149.378	0.120	0.009
-137.429	-200.000	0.069	0.308
-136.414	-79.144	0.164	-0.055
-135.399	9.734	-0.221	0.166
-134.385	-163.787	0.395	0.018
-133.370	8.807	-0.141	0.105
-132.356	-200.000	-0.004	-0.139
-131.341	8.733	-0.239	0.178
-130.326	84.597	0.099	0.107
-129.312	800.000	-0.046	0.168
-128.297	82.398	-0.079	-0.084
-127.283	-200.000	0.104	-0.489
-126.268	800.000	-0.010	-0.040
-125.253	-51.633	0.239	-0.110
-124.239	0.685	-0.199	0.141
-123.224	-200.000	0.018	-0.174
-122.210	208.902	0.148	-0.229
-121.195	800.000	0.126	-0.445
-120.180	-3.301	0.132	-0.091
-119.166	-200.000	-0.019	0.147
-118.151	800.000	0.047	0.130
-117.137	450.145	-0.018	-0.039
-116.122	-71.715	0.375	0.138
-115.107	-86.878	0.129	0.039
-114.093	-85.213	-0.347	-0.107
-113.078	-15.868	-0.139	-0.087
-112.064	-140.482	0.174	0.018
-111.049	43.907	0.187	-0.169
-110.034	90.573	-0.076	-0.084
-109.020	800.000	-0.047	-0.157
-108.005	-50.947	0.105	0.049
-106.991	-91.151	0.137	0.039
-105.976	20.215	-0.205	0.163
-104.962	35.940	-0.269	-0.233
-103.947	-200.000	0.001	0.162
-102.932	372.026	-0.072	0.145
-101.918	-200.000	-0.006	0.028
-100.903	-93.030	-0.334	-0.092
-99.889	606.378	0.062	-0.152
-98.874	-200.000	-0.006	0.117
-97.859	-200.000	0.004	0.292
-96.845	618.005	0.087	0.216
-95.830	58.193	0.070	-0.068
-94.816	800.000	0.125	-0.396
-93.801	-127.755	-0.358	-0.051
-92.786	800.000	-0.082	0.344
-91.772	-176.571	-0.155	0.004
-90.757	-200.000	0.009	-0.154
-89.743	382.050	-0.136	-0.276
-88.728	-200.000	-0.044	0.191
-87.713	435.140	-0.064	0.138
-86.699	90.302	0.081	0.089
-85.684	12.993	-0.158	0.120
-84.670	-200.000	0.013	-0.272
-83.655	269.376	0.151	0.262
-82.640	-65.487	0.125	-0.050
-81.626	-69.802	-0.060	0.022
-80.611	-56.401	0.127	-0.055
-79.597	134.674	-0.281	-0.360
-78.582	0.508	0.301	-0.212
-77.567	155.631	-0.075	-0.102
-76.553	-200.000	0.021	-0.110
-75.538	-111.566	-0.151	0.030
-74.524	406.296	0.092	0.192
-73.509	99.134	-0.135	-0.154
-72.494	22.658	0.174	0.141
-71.480	41.738	-0.107	-0.095
-70.465	267.527	-0.012	-0.021
-69.451	-60.223	0.223	-0.094
-68.436	-200.000	0.039	0.372
-67.422	448.295	0.095	-0.207
-66.407	800.000	-0.054	0.161
-65.392	-101.659	0.145	0.035
-64.378	-78.596	0.313	0.105
-63.363	4.251	0.283	0.204
-62.349	132.870	-0.072	-0.091
-61.334	433.528	-0.534	-1.143
-60.319	-13.667	0.525	0.335
-59.305	260.824	-0.473	-0.807
-58.290	448.681	0.598	1.299
-57.276	647.917	0.558	1.406
-56.261	-200.000	93.529	522.447
-55.246	580.368	1372.309	3313.541
-54.232	185.807	2621.450	3839.732
-53.217	112.084	2330.420	2775.348
-52.203	44.190	1940.276	1754.058
-51.188	38.073	1723.477	1510.853
-50.173	35.272	1677.206	1449.095
-49.159	50.881	1725.506	1610.900
-48.144	54.011	1743.219	1651.387
-47.130	37.655	1699.458	1486.369
-46.115	34.779	1684.341	1451.282
-45.100	34.697	1679.226	1446.199
-44.086	34.616	1676.786	1443.425
-43.071	34.695	1673.512	1441.148
-42.057	34.604	1671.690	1438.836
-41.042	34.612	1669.506	1436.955
-40.027	34.589	1667.710	1435.179
-39.013	34.556	1665.576	1433.039
-37.998	34.540	1664.417	1431.868
-36.984	34.565	1663.381	1431.107
-35.969	34.757	1661.263	1430.667
-34.954	34.781	1659.834	1429.557
-33.940	34.752	1657.956	1427.667
-32.925	34.695	1656.060	1425.548
-31.911	34.741	1654.586	1424.572
-30.896	34.720	1652.931	1422.932
-29.881	34.674	1651.415	1421.228
-28.867	34.760	1649.328	1420.017
-27.852	34.781	1648.316	1419.244
-26.838	34.803	1646.659	1417.923
-25.823	34.816	1644.614	1416.199
-24.809	34.766	1644.003	1415.246
-23.794	34.832	1642.500	1414.390
-22.779	34.737	1641.342	1412.631
-21.765	34.663	1639.275	1410.250
-20.750	34.729	1637.401	1409.068
-19.736	34.775	1635.873	1408.036
-18.721	34.847	1634.262	1407.122
-17.706	34.806	1632.780	1405.489
-16.692	34.781	1631.330	1404.001
-15.677	34.823	1629.804	1402.945
-14.663	34.891	1628.459	1402.226
-13.648	34.832	1627.571	1400.977
-12.633	34.849	1625.916	1399.622
-11.619	34.733	1623.871	1396.959
-10.604	34.788	1621.836	1395.554
-9.590	34.812	1620.772	1394.752
-8.575	34.752	1620.217	1393.784
-7.560	34.816	1618.753	1392.938
-6.546	34.808	1617.270	1391.549
-5.531	34.781	1616.289	1390.450
-4.517	34.787	1615.315	1389.599
-3.502	34.821	1613.650	1388.364
-2.487	34.807	1612.388	1387.119
-1.473	34.725	1600.691	1376.408
-0.458	32.125	1581.372	1341.206
0.556	26.791	1581.791	1309.790
1.571	24.594	1607.588	1314.885
2.586	24.121	1622.017	1323.058
3.600	20.925	1567.644	1255.605
4.615	10.774	1451.083	1094.106
5.629	1.803	1382.399	984.456
6.644	0.227	1373.208	967.704
7.659	0.173	1371.290	965.920
8.673	0.087	1370.755	964.904
9.688	-0.006	1368.830	962.870
10.702	-0.235	1366.205	959.475
11.717	3.302	1372.891	986.779
12.731	13.435	1392.992	1066.732
13.746	21.386	1406.719	1128.692
14.761	22.983	1408.731	1140.523
15.775	23.203	1408.314	1141.505
16.790	23.369	1407.560	1141.859
17.804	23.317	1407.238	1141.161
18.819	23.502	1406.980	1142.044
19.834	23.593	1406.259	1141.945
20.848	23.650	1405.332	1141.456
21.863	23.645	1404.352	1140.524
22.877	23.686	1403.521	1140.015
23.892	23.741	1402.468	1139.408
24.907	23.675	1401.625	1138.204
25.921	23.668	1400.607	1137.230
26.936	23.603	1400.145	1136.338
27.950	23.657	1399.079	1135.718
28.965	23.598	1397.562	1134.010
29.980	23.702	1396.097	1133.383
30.994	23.740	1394.594	1132.303
32.009	23.563	1393.964	1130.564
33.023	23.718	1392.052	1129.899
34.038	23.587	1391.368	1128.411
35.053	23.617	1390.248	1127.595
36.067	23.543	1389.624	1126.519
37.082	23.671	1388.641	1126.433
38.096	23.640	1387.555	1125.258
39.111	23.737	1386.489	1124.910
40.126	23.626	1385.819	1123.562
41.140	23.638	1385.812	1123.532
42.155	23.604	1385.419	1122.899
43.169	23.643	1384.971	1122.685
44.184	23.510	1385.076	1121.829
45.199	23.606	1384.373	1121.764
46.213	23.750	1383.436	1121.819
47.228	23.627	1382.761	1120.393
48.242	23.612	1381.702	1119.345
49.257	23.639	1380.243	1118.233
50.271	23.606	1378.637	1116.623
51.286	23.706	1376.966	1115.800
52.301	23.612	1376.562	1114.786
53.315	23.518	1375.753	1113.440
54.330	23.616	1374.504	1112.944
55.344	23.656	1373.252	1112.087
56.359	23.598	1372.277	1110.832
57.374	23.600	1371.489	1110.110
58.388	23.593	1370.893	1109.486
59.403	23.646	1370.750	1109.600
60.417	23.581	1369.812	1108.338
61.432	23.620	1368.902	1107.749
62.447	23.545	1368.132	1106.562
63.461	23.677	1366.904	1106.289
64.476	23.624	1366.142	1105.247
65.490	23.664	1364.913	1104.402
66.505	23.717	1362.964	1103.054
67.520	23.631	1362.168	1101.783
68.534	23.578	1361.266	1100.623
69.549	23.618	1360.172	1099.892
70.563	23.610	1359.391	1099.112
71.578	23.671	1357.646	1097.984
72.593	23.564	1357.553	1097.146
73.607	23.817	1356.150	1097.479
74.622	23.677	1355.801	1096.236
75.636	23.633	1355.167	1095.352
76.651	23.722	1353.955	1094.830
77.666	23.554	1354.170	1093.866
78.680	23.565	1353.360	1093.185
79.695	23.629	1352.295	1092.622
80.709	23.581	1351.859	1091.877
81.724	23.602	1350.892	1091.131
82.739	23.626	1350.139	1090.574
83.753	23.677	1348.902	1089.791
84.768	23.596	1348.242	1088.661
85.782	23.580	1346.745	1087.258
86.797	23.556	1345.732	1086.201
87.812	23.652	1344.754	1085.903
88.826	23.723	1343.000	1084.820
89.841	23.689	1342.397	1084.029
90.855	23.690	1341.737	1083.410
91.870	23.642	1340.693	1082.179
92.884	23.605	1339.718	1081.066
93.899	23.671	1338.670	1080.529
94.914	23.725	1338.187	1080.372
95.928	23.677	1337.456	1079.393
96.943	23.671	1336.763	1078.700
97.957	23.720	1335.775	1078.110
98.972	23.771	1334.455	1077.254
99.987	23.715	1333.856	1076.338
101.001	23.696	1332.844	1075.313
102.016	23.643	1331.841	1074.088
103.030	23.690	1331.206	1073.761
104.045	23.699	1330.388	1073.061
105.060	23.793	1329.238	1072.611
106.074	23.708	1328.588	1071.477
107.089	23.812	1327.021	1070.744
108.103	23.668	1326.323	1069.219
109.118	23.818	1325.310	1069.211
110.133	23.721	1324.175	1067.614
111.147	23.789	1322.725	1066.760
112.162	23.766	1321.877	1065.848
113.176	23.805	1320.594	1064.952
114.191	23.648	1319.958	1063.402
115.206	23.649	1318.879	1062.446
116.220	23.826	1317.426	1062.235
117.235	23.792	1316.788	1061.426
118.249	23.767	1316.075	1060.609
119.264	23.761	1314.884	1059.519
120.279	23.762	1314.073	1058.779
121.293	23.768	1313.454	1058.219
122.308	23.821	1312.296	1057.509
123.322	23.855	1311.199	1056.734
124.337	23.809	1310.644	1055.918
125.352	23.805	1309.655	1055.005
126.366	23.851	1308.893	1054.571
127.381	23.853	1307.530	1053.391
128.395	23.906	1306.723	1052.962
129.410	23.841	1305.747	1051.702
130.424	23.788	1305.880	1051.399
131.439	23.883	1304.448	1050.717
132.454	23.860	1303.504	1049.726
133.468	23.756	1303.043	1048.646
134.483	23.815	1302.814	1048.719
135.497	23.779	1301.710	1047.524
136.512	23.897	1300.454	1047.118
137.527	23.839	1299.018	1045.526
138.541	23.791	1298.131	1044.438
139.556	23.868	1296.237	1043.276
140.570	23.812	1295.964	1042.632
141.585	23.745	1294.619	1041.066
142.600	23.865	1293.371	1040.671
143.614	23.784	1292.874	1039.706
144.629	23.787	1291.658	1038.656
145.643	23.727	1290.631	1037.386
146.658	23.583	1289.956	1035.911
147.673	23.787	1288.435	1035.790
148.687	23.755	1287.900	1035.077
149.702	23.654	1286.607	1033.364
150.716	23.727	1285.386	1032.716
151.731	23.675	1284.280	1031.434
152.746	23.659	1283.562	1030.671
153.760	23.857	1282.177	1030.615
154.775	23.752	1281.288	1029.205
155.789	23.788	1280.487	1028.678
156.804	23.814	1279.347	1027.819
157.819	23.784	1278.153	1026.594
158.833	23.749	1277.906	1026.107
159.848	23.881	1276.800	1025.885
160.862	23.873	1276.232	1025.295
161.877	23.862	1275.222	1024.326
162.892	23.788	1274.674	1023.373
163.906	23.891	1273.923	1023.270
164.921	23.866	1273.007	1022.298
165.935	23.876	1272.575	1021.919
166.950	23.862	1271.700	1021.047
167.964	23.816	1271.437	1020.484
168.979	23.943	1270.482	1020.354
169.994	23.953	1269.656	1019.658
171.008	23.919	1269.183	1018.990
172.023	23.939	1268.277	1018.287
173.037	23.848	1267.778	1017.279
174.052	23.878	1267.365	1017.030
175.067	23.850	1266.217	1015.857
176.081	23.918	1265.586	1015.649
177.096	23.877	1265.228	1015.035
178.110	23.938	1263.964	1014.281
179.125	23.901	1263.137	1013.316
180.140	24.052	1261.346	1012.650
181.154	23.928	1260.516	1011.190
182.169	23.905	1259.555	1010.199
183.183	23.969	1258.522	1009.643
184.198	23.944	1257.503	1008.593
185.213	23.937	1256.207	1007.428
186.227	24.059	1255.290	1007.293
187.242	24.019	1254.670	1006.482
188.256	24.016	1253.622	1005.532
189.271	23.942	1253.129	1004.629
190.286	24.002	1252.511	1004.386
191.300	23.979	1251.677	1003.496
192.315	23.980	1251.201	1003.035
193.329	23.996	1250.794	1002.706
194.344	24.039	1250.115	1002.315
195.359	24.063	1249.914	1002.204
196.373	23.958	1249.520	1001.207
197.388	23.885	1248.969	1000.263
198.402	23.918	1248.846	1000.265
199.417	23.965	1247.992	999.756
200.432	23.979	1247.809	999.598
201.446	24.074	1246.850	999.278
202.461	23.964	1246.189	998.044
203.475	23.909	1245.628	997.197
204.490	23.877	1244.837	996.294
205.504	23.927	1243.100	995.096
206.519	24.050	1242.687	995.364
207.534	23.960	1241.781	994.049
208.548	24.047	1240.421	993.360
209.563	23.969	1240.130	992.603
210.577	23.956	1239.026	991.556
211.592	24.025	1238.153	991.156
212.607	24.174	1237.162	991.103
213.621	24.123	1236.829	990.464
214.636	24.097	1236.121	989.668
215.650	24.124	1235.099	988.911
216.665	24.052	1234.153	987.665
217.680	24.027	1233.521	986.933
218.694	24.186	1232.284	986.735
219.709	24.182	1231.626	986.103
220.723	24.193	1231.358	985.859
221.738	24.145	1230.407	984.746
222.753	24.013	1229.413	983.137
223.767	24.009	1229.331	982.961
224.782	24.156	1228.574	983.080
225.796	24.230	1227.962	982.913
226.811	24.130	1227.444	981.860
227.826	24.226	1226.546	981.580
228.840	24.179	1226.135	980.906
229.855	24.254	1225.495	980.720
230.869	24.168	1224.574	979.422
231.884	24.229	1224.214	979.381
232.899	24.232	1223.286	978.573
233.913	24.148	1223.064	977.846
234.928	24.232	1222.628	977.873
235.942	24.215	1221.857	977.075
236.957	24.325	1220.736	976.697
237.972	24.260	1220.219	975.839
238.986	24.207	1219.508	974.896
240.001	24.262	1219.232	974.890
241.015	24.436	1218.001	974.766
242.030	24.358	1217.345	973.733
243.045	24.356	1216.249	972.759
244.059	24.206	1216.280	971.879
245.074	24.366	1215.024	971.660
246.088	24.359	1214.509	971.125
247.103	24.328	1213.309	969.907
248.117	24.472	1212.509	969.966
249.132	24.379	1212.015	968.980
250.147	24.512	1211.127	968.905
251.161	24.520	1210.371	968.262
252.176	24.441	1209.684	967.197
253.190	24.459	1209.035	966.690
254.205	24.481	1208.559	966.341
255.220	24.405	1207.673	965.137
256.234	24.450	1207.427	965.097
257.249	24.448	1206.800	964.500
258.263	24.474	1206.210	964.086
259.278	24.461	1205.920	963.699
260.293	24.491	1204.976	963.020
261.307	24.542	1204.329	962.690
262.322	24.548	1203.947	962.334
263.336	24.568	1203.105	961.685
264.351	24.422	1202.673	960.466
265.366	24.531	1201.946	960.386
266.380	24.480	1201.736	959.861
267.395	24.456	1200.760	958.865
268.409	24.441	1200.353	958.378
269.424	24.539	1199.403	958.057
270.439	24.481	1198.862	957.234
271.453	24.601	1197.779	956.924
272.468	24.501	1197.066	955.737
273.482	24.541	1196.527	955.437
274.497	24.569	1196.165	955.208
275.512	24.590	1195.660	954.837
276.526	24.618	1194.839	954.246
277.541	24.540	1194.620	953.570
278.555	24.646	1193.584	953.222
279.570	24.598	1193.297	952.656
280.585	24.617	1192.407	951.958
281.599	24.684	1191.176	951.248
282.614	24.607	1190.628	950.320
283.628	24.733	1189.330	949.869
284.643	24.553	1188.913	948.494
285.657	24.746	1188.035	948.733
286.672	24.668	1187.211	947.579
287.687	24.619	1186.409	946.593
288.701	24.745	1185.773	946.671
289.716	24.793	1184.876	946.123
290.730	24.738	1184.073	945.107
291.745	24.661	1183.930	944.506
292.760	24.702	1183.038	943.925
293.774	24.780	1182.486	943.816
294.789	24.823	1181.883	943.475
295.803	24.762	1180.779	942.192
296.818	24.714	1180.598	941.707
297.833	24.761	1179.953	941.358
298.847	24.847	1179.389	941.278
299.862	24.804	1178.311	940.109
300.876	24.732	1177.731	939.182
301.891	24.866	1177.223	939.399
302.906	24.899	1176.522	938.932
303.920	24.942	1175.698	938.414
304.935	24.880	1175.498	937.845
305.949	24.905	1174.603	937.181
306.964	24.857	1174.489	936.756
307.979	24.865	1173.653	936.047
308.993	24.973	1172.559	935.656
310.008	24.921	1171.923	934.796
311.022	24.950	1171.093	934.203
312.037	25.002	1170.637	934.026
313.052	24.969	1169.379	932.770
314.066	24.901	1168.701	931.791
315.081	25.005	1168.053	931.732
316.095	25.019	1167.385	931.187
317.110	25.008	1166.767	930.554
318.125	25.045	1166.146	930.171
319.139	24.916	1165.655	929.028
320.154	25.183	1164.677	929.552
321.168	25.040	1164.279	928.411
322.183	24.954	1164.076	927.718
323.197	24.896	1163.748	927.076
324.212	25.004	1162.491	926.553
325.227	25.122	1162.309	926.934
326.241	25.040	1161.768	925.996
327.256	25.039	1160.960	925.266
328.270	25.075	1160.103	924.687
329.285	25.160	1159.102	924.244
330.300	25.323	1158.127	924.224
331.314	25.121	1157.835	922.872
332.329	25.177	1156.532	922.038
333.343	25.274	1155.816	921.887
334.358	25.304	1154.873	921.207
335.373	25.251	1154.446	920.512
336.387	25.235	1154.135	920.100
337.402	25.267	1153.569	919.729
338.416	25.269	1152.872	919.106
339.431	25.289	1152.023	918.447
340.446	25.282	1151.505	917.917
341.460	25.263	1150.494	916.936
342.475	25.331	1149.870	916.703
343.489	25.391	1148.816	916.090
344.504	25.357	1147.907	915.111
345.519	25.309	1147.229	914.245
346.533	25.449	1146.502	914.294
347.548	25.456	1145.871	913.747
348.562	25.331	1145.056	912.380
349.577	25.259	1144.837	911.757
350.592	25.296	1143.703	910.965
351.606	25.355	1142.902	910.544
352.621	25.370	1142.262	910.029
353.635	25.391	1141.847	909.722
354.650	25.437	1141.242	909.396
355.665	25.384	1140.785	908.680
356.679	25.482	1139.639	908.185
357.694	25.393	1139.618	907.637
358.708	25.449	1139.072	907.404
359.723	25.334	1137.995	905.888
360.738	25.361	1137.375	905.446
361.752	25.477	1136.780	905.477
362.767	25.551	1136.483	905.533
363.781	25.605	1135.409	904.870
364.796	25.614	1134.946	904.466
365.810	25.560	1134.508	903.767
366.825	25.514	1133.789	902.885
367.840	25.598	1133.594	903.072
368.854	25.582	1132.680	902.183
369.869	25.644	1131.935	901.819
370.883	25.650	1131.233	901.208
371.898	25.641	1130.574	900.562
372.913	25.693	1129.780	900.107
373.927	25.877	1129.211	900.493
374.942	25.744	1128.974	899.560
375.956	25.676	1128.585	898.832
376.971	25.634	1128.217	898.249
377.986	25.708	1127.577	898.030
379.000	25.677	1127.272	897.555
380.015	25.807	1126.166	897.238
381.029	25.932	1124.978	896.836
382.044	25.739	1124.766	895.628
383.059	25.772	1124.575	895.562
384.073	25.707	1123.592	894.377
385.088	25.697	1122.542	893.410
386.102	25.801	1121.830	893.281
387.117	25.873	1120.884	892.805
388.132	25.603	1120.769	891.296
389.146	25.737	1119.558	890.919
390.161	25.771	1119.134	890.674
391.175	25.878	1118.134	890.324
392.190	25.776	1117.501	889.241
393.205	25.797	1117.390	889.177
394.219	25.904	1116.251	888.719
395.234	25.968	1115.407	888.281
396.248	25.831	1114.701	886.966
397.263	26.048	1113.520	887.015
398.278	26.088	1112.830	886.585
399.292	25.978	1112.648	885.822
400.307	25.959	1112.162	885.264
401.321	25.885	1111.642	884.404
402.336	25.854	1110.866	883.558
403.350	26.025	1110.316	883.879
404.365	26.097	1109.230	883.291
405.380	25.977	1108.998	882.442
406.394	26.059	1108.204	882.134
407.409	26.184	1107.163	881.838
408.423	26.059	1106.479	880.605
409.438	26.110	1105.619	880.088
410.453	26.083	1105.454	879.750
411.467	26.096	1104.521	878.990
412.482	26.011	1103.705	877.849
413.496	26.102	1102.887	877.563
414.511	26.106	1102.257	877.007
415.526	26.215	1101.954	877.217
416.540	26.109	1101.902	876.583
417.555	26.221	1100.935	876.279
418.569	26.087	1100.518	875.218
419.584	26.166	1100.343	875.386
420.599	26.266	1100.023	875.540
421.613	146.149	1402.353	1792.583
422.628	135.520	1446.407	1792.695
