DTS Sentinel unit serial number:	SN413079Multiplexer serial number:	ORYXHardware model number:	OX4-SRSoftware version number:	ORYX F/W v4.00 Oryx Data Collector v3.7.2.0data status	okinstallation	princeton_trtdifferential loss correction	single-endedforward channel	channel 2reverse channel	N/Adate	2019/09/17time	21:55:35forward acquisition time	60.00reverse acquisition time	0.00gamma	496.2192k internal	0.2342k external	0.2342temperature offset calibration	0.9990default loss term (dB/km)	0.3790temperature slope calibration	1.0000multiplexer offset coefficient	1.0000multiplexer slope coefficient	1.0000fibre end	0.00T internal ref (°C)	26.20T ext. ref 1 (°C)	0.18T ext. ref 2 (°C)	18.88length (m)	temperature (°C)	Stokes	anti-Stokes-747.200	-16.583	-0.081	-0.051
-746.185	-164.306	-0.159	0.007
-745.171	800.000	0.046	0.172
-744.156	280.699	-0.055	0.099
-743.142	-110.140	0.354	0.074
-742.127	69.278	0.071	-0.073
-741.112	-29.346	0.223	0.128
-740.098	-200.000	-0.083	0.379
-739.083	209.605	-0.097	0.152
-738.069	65.706	0.274	0.278
-737.054	112.362	0.186	0.225
-736.039	171.911	-0.243	-0.350
-735.025	215.289	-0.129	-0.206
-734.010	-94.401	-0.348	-0.095
-732.996	-44.219	-0.374	0.188
-731.981	-200.000	-0.006	-0.314
-730.966	800.000	-0.023	-0.092
-729.952	69.967	0.192	-0.198
-728.937	641.671	-0.058	-0.148
-727.923	-94.773	0.130	-0.035
-726.908	-136.967	-0.308	0.035
-725.894	-81.412	-0.201	-0.066
-724.879	441.186	0.099	0.216
-723.864	276.625	-0.039	0.070
-722.850	605.586	-0.085	-0.212
-721.835	473.964	-0.086	-0.194
-720.821	800.000	-0.140	-0.446
-719.806	480.643	-0.033	-0.075
-718.791	4.866	-0.259	-0.190
-717.777	37.136	-0.072	-0.064
-716.762	-53.581	-0.305	-0.139
-715.748	20.543	-0.281	-0.228
-714.733	153.367	-0.085	-0.117
-713.718	-200.000	0.003	-0.077
-712.704	-121.306	0.363	0.061
-711.689	800.000	-0.083	-0.328
-710.675	-69.980	0.273	0.104
-709.660	-63.385	-0.044	-0.018
-708.645	-200.000	-0.019	0.142
-707.631	246.488	0.088	0.148
-706.616	-60.478	0.288	-0.122
-705.602	800.000	0.083	-0.361
-704.587	395.366	0.034	-0.070
-703.572	-200.000	0.044	0.196
-702.558	-87.659	-0.139	0.042
-701.543	0.023	0.299	-0.213
-700.529	-60.012	-0.080	-0.034
-699.514	-71.203	-0.008	-0.003
-698.499	-74.620	0.304	0.109
-697.485	-75.050	0.093	0.033
-696.470	800.000	-0.051	0.161
-695.456	-200.000	0.014	-0.147
-694.441	94.613	0.053	0.060
-693.426	-200.000	-0.075	0.462
-692.412	324.769	0.086	-0.165
-691.397	800.000	-0.102	-0.441
-690.383	-60.633	-0.105	-0.045
-689.368	-200.000	-0.003	-0.533
-688.354	505.216	0.081	-0.187
-687.339	-34.996	-0.049	0.027
-686.324	-200.000	-0.043	0.289
-685.310	-200.000	-0.030	-0.172
-684.295	-200.000	0.008	-0.457
-683.281	94.381	0.194	-0.220
-682.266	-200.000	-0.007	-0.104
-681.251	229.641	-0.229	-0.373
-680.237	608.732	-0.096	0.239
-679.222	185.158	-0.114	-0.169
-678.208	-142.683	-0.239	-0.023
-677.193	-158.478	0.083	0.005
-676.178	-149.791	0.110	-0.009
-675.164	280.254	0.072	0.128
-674.149	639.453	-0.120	-0.304
-673.135	-169.248	-0.032	-0.001
-672.120	-200.000	0.035	0.245
-671.105	183.590	-0.120	-0.177
-670.091	196.818	-0.124	0.188
-669.076	46.689	-0.187	0.173
-668.062	57.361	-0.118	-0.115
-667.047	-70.718	-0.455	0.171
-666.032	-18.362	-0.186	0.116
-665.018	800.000	0.086	0.316
-664.003	-74.485	-0.206	-0.074
-662.989	-200.000	0.027	0.160
-661.974	-52.323	0.062	-0.029
-660.959	-200.000	0.004	-0.278
-659.945	-133.212	0.119	0.015
-658.930	-200.000	0.001	-0.049
-657.916	410.124	-0.090	-0.190
-656.901	356.002	0.143	-0.284
-655.886	-71.920	0.163	0.060
-654.872	-85.655	0.255	-0.079
-653.857	49.826	-0.060	-0.056
-652.843	285.135	0.264	0.475
-651.828	-85.720	0.315	0.098
-650.814	-200.000	0.090	-0.402
-649.799	74.885	0.228	0.239
-648.784	-200.000	-0.035	0.255
-647.770	489.749	-0.104	0.238
-646.755	-200.000	0.044	0.230
-645.741	169.796	0.157	-0.223
-644.726	126.525	-0.048	-0.060
-643.711	357.963	0.026	-0.052
-642.697	347.066	-0.102	0.201
-641.682	241.751	0.091	-0.151
-640.668	303.784	-0.209	-0.386
-639.653	-32.496	0.067	0.037
-638.638	-108.447	-0.083	-0.018
-637.624	-200.000	0.004	-0.244
-636.609	-200.000	-0.081	-0.404
-635.595	-46.533	0.099	-0.049
-634.580	383.934	0.066	-0.136
-633.565	750.713	0.165	-0.443
-632.551	241.240	0.062	0.104
-631.536	23.078	0.244	0.200
-630.522	526.653	0.103	-0.242
-629.507	753.751	-0.067	-0.180
-628.492	14.019	0.181	0.141
-627.478	113.754	-0.107	-0.129
-626.463	556.223	-0.123	-0.294
-625.449	-66.187	-0.333	0.132
-624.434	800.000	0.052	0.182
-623.419	800.000	-0.127	-0.369
-622.405	-200.000	-0.016	-0.131
-621.390	-119.696	0.233	-0.040
-620.376	43.595	-0.031	-0.029
-619.361	-141.303	0.139	-0.014
-618.346	-200.000	-0.072	-0.486
-617.332	1.358	-0.073	-0.052
-616.317	800.000	0.146	-0.423
-615.303	-200.000	0.007	-0.079
-614.288	-200.000	0.106	0.597
-613.273	544.248	0.072	0.172
-612.259	800.000	-0.127	-0.354
-611.244	-48.738	0.279	-0.133
-610.230	89.618	-0.063	0.070
-609.215	800.000	-0.020	0.064
-608.201	-200.000	0.009	0.184
-607.186	-133.177	-0.150	0.019
-606.171	-165.496	-0.081	-0.004
-605.157	-56.846	0.215	-0.095
-604.142	78.708	0.258	-0.275
-603.128	106.298	0.101	0.119
-602.113	-66.917	0.329	0.129
-601.098	800.000	-0.138	-0.452
-600.084	-112.492	0.133	-0.026
-599.069	-64.226	0.072	0.029
-598.055	94.083	0.191	0.215
-597.040	32.964	0.386	0.333
-596.025	24.080	-0.149	-0.122
-595.011	-200.000	-0.007	0.328
-593.996	1.227	-0.213	0.152
-592.982	-67.594	0.115	-0.045
-591.967	-200.000	0.022	-0.469
-590.952	39.681	-0.086	-0.077
-589.938	-96.745	-0.235	0.062
-588.923	-128.838	-0.141	-0.020
-587.909	89.138	-0.203	0.225
-586.894	270.513	0.179	0.314
-585.879	410.341	-0.132	-0.278
-584.865	121.890	-0.158	-0.197
-583.850	309.778	0.123	0.229
-582.836	489.601	0.072	-0.164
-581.821	-126.314	-0.425	-0.063
-580.806	-64.411	0.108	0.044
-579.792	-200.000	-0.103	-0.464
-578.777	800.000	0.031	0.091
-577.763	-189.876	-0.090	-0.001
-576.748	795.711	0.105	0.287
-575.733	159.148	-0.142	-0.196
-574.719	182.214	-0.092	0.134
-573.704	236.538	0.098	-0.162
-572.690	-99.193	0.222	-0.056
-571.675	-200.000	-0.034	-0.155
-570.661	101.505	-0.101	-0.117
-569.646	-118.138	0.299	-0.053
-568.631	259.139	0.055	0.095
-567.617	-105.582	0.187	-0.042
-566.602	-152.660	0.302	-0.021
-565.588	-119.346	0.236	-0.041
-564.573	-24.277	0.209	0.124
-563.558	800.000	-0.107	0.345
-562.544	-57.507	-0.177	0.077
-561.529	-200.000	-0.030	0.264
-560.515	800.000	-0.107	0.351
-559.500	-123.541	-0.456	-0.072
-558.485	624.701	-0.160	-0.402
-557.471	134.167	0.117	0.151
-556.456	-200.000	0.005	0.087
-555.442	-200.000	0.003	-0.251
-554.427	800.000	-0.024	-0.070
-553.412	-200.000	0.039	-0.225
-552.398	664.715	0.048	-0.124
-551.383	800.000	0.040	0.115
-550.369	-88.880	-0.211	-0.062
-549.354	-87.658	-0.248	-0.074
-548.339	556.970	0.113	0.271
-547.325	800.000	0.076	0.246
-546.310	-65.636	0.256	0.102
-545.296	16.962	-0.186	0.147
-544.281	-86.151	0.388	-0.119
-543.266	-88.219	0.279	-0.083
-542.252	58.049	0.031	-0.030
-541.237	-31.158	-0.021	0.012
-540.223	-64.018	-0.075	-0.031
-539.208	800.000	-0.160	-0.458
-538.193	-192.904	0.185	-0.002
-537.179	-188.876	-0.346	0.004
-536.164	-195.640	-0.304	0.002
-535.150	-3.228	0.222	0.154
-534.135	-200.000	-0.050	-0.472
-533.121	-12.390	-0.392	0.254
-532.106	-0.606	-0.269	0.190
-531.091	-200.000	-0.011	0.136
-530.077	35.185	-0.212	-0.184
-529.062	449.313	-0.116	-0.253
-528.048	-29.123	-0.077	-0.044
-527.033	53.611	-0.337	-0.321
-526.018	67.811	-0.104	0.106
-525.004	-155.395	-0.111	0.007
-523.989	-3.216	0.382	-0.264
-522.975	-41.366	0.181	0.092
-521.960	29.022	0.244	0.206
-520.945	-105.974	-0.017	0.004
-519.931	409.992	-0.081	-0.171
-518.916	178.272	0.147	0.213
-517.902	-200.000	0.031	-0.210
-516.887	167.349	0.246	-0.347
-515.872	800.000	0.084	-0.246
-514.858	-63.858	-0.133	0.054
-513.843	449.528	-0.062	0.135
-512.829	-200.000	-0.043	0.315
-511.814	-8.061	-0.138	-0.092
-510.799	530.806	-0.063	0.147
-509.785	-91.682	-0.073	-0.021
-508.770	-200.000	-0.038	0.175
-507.756	172.208	-0.162	-0.232
-506.741	761.517	-0.048	-0.130
-505.726	-122.099	-0.144	-0.023
-504.712	-200.000	0.025	0.326
-503.697	-1.975	-0.158	0.110
-502.683	-111.780	-0.252	-0.051
-501.668	-200.000	0.018	0.470
-500.653	-56.710	0.354	0.156
-499.639	-143.351	-0.188	-0.018
-498.624	-155.781	0.199	0.013
-497.610	-131.026	0.251	-0.033
-496.595	-51.221	0.328	-0.152
-495.581	-76.192	0.037	0.013
-494.566	-200.000	-0.025	0.175
-493.551	-125.114	0.154	-0.023
-492.537	83.316	-0.038	-0.041
-491.522	800.000	-0.025	0.100
-490.508	-35.951	-0.292	-0.157
-489.493	800.000	-0.096	0.335
-488.478	204.101	-0.136	-0.209
-487.464	493.962	0.086	0.195
-486.449	-54.121	0.195	0.088
-485.435	-142.634	0.117	-0.011
-484.420	-100.980	-0.238	0.058
-483.405	299.990	-0.277	0.505
-482.391	348.035	-0.084	0.163
-481.376	-200.000	-0.009	-0.100
-480.362	-98.626	0.252	-0.064
-479.347	262.609	-0.134	-0.231
-478.332	107.404	-0.125	-0.148
-477.318	33.450	0.230	-0.198
-476.303	52.142	0.286	-0.270
-475.289	-37.014	0.317	0.169
-474.274	-89.307	-0.197	0.057
-473.259	800.000	0.090	-0.255
-472.245	-55.770	-0.145	-0.064
-471.230	-21.151	0.357	-0.216
-470.216	-172.555	-0.072	0.002
-469.201	-131.020	0.094	-0.012
-468.186	-91.434	0.137	-0.039
-467.172	800.000	-0.100	0.352
-466.157	80.331	-0.177	-0.189
-465.143	-55.241	-0.218	-0.097
-464.128	-170.065	-0.332	-0.012
-463.113	-31.693	0.074	-0.041
-462.099	-200.000	-0.010	-0.075
-461.084	30.508	0.074	0.062
-460.070	-49.844	-0.210	-0.099
-459.055	98.578	-0.133	-0.152
-458.040	9.123	0.121	-0.090
-457.026	-63.777	-0.309	0.125
-456.011	-51.189	-0.332	0.154
-454.997	-111.809	-0.274	0.055
-453.982	-78.872	0.429	-0.145
-452.968	222.925	-0.267	0.426
-451.953	-104.900	-0.031	0.007
-450.938	-76.838	-0.142	-0.049
-449.924	-126.475	-0.069	-0.010
-448.909	-48.202	0.125	-0.060
-447.895	333.585	0.036	0.069
-446.880	293.338	0.134	-0.242
-445.865	604.493	0.050	0.123
-444.851	-84.397	0.365	-0.114
-443.836	-111.002	-0.488	0.099
-442.822	800.000	0.035	-0.099
-441.807	-66.332	-0.312	0.123
-440.792	800.000	0.097	-0.333
-439.778	-200.000	-0.002	-0.054
-438.763	35.641	-0.126	-0.110
-437.749	334.164	-0.067	-0.128
-436.734	-83.096	0.573	-0.182
-435.719	30.345	0.118	-0.099
-434.705	231.741	-0.154	-0.249
-433.690	800.000	-0.044	0.139
-432.676	-4.367	0.213	-0.146
-431.661	-137.417	-0.162	0.018
-430.646	244.938	-0.051	0.085
-429.632	-26.248	0.090	0.052
-428.617	728.961	0.042	-0.112
-427.603	-80.630	-0.389	0.128
-426.588	-23.767	-0.026	0.015
-425.573	-200.000	0.006	-0.085
-424.559	-200.000	-0.007	-0.158
-423.544	-110.076	-0.068	0.014
-422.530	-47.247	-0.092	-0.045
-421.515	-146.161	0.162	-0.014
-420.500	-14.453	-0.257	0.163
-419.486	-29.920	0.210	-0.118
-418.471	592.106	0.076	-0.187
-417.457	-61.366	-0.118	-0.049
-416.442	733.079	0.115	-0.304
-415.428	18.659	0.098	-0.078
-414.413	256.661	-0.063	0.106
-413.398	-132.043	-0.105	0.014
-412.384	-51.880	-0.236	0.109
-411.369	-132.696	0.217	-0.027
-410.355	-200.000	0.055	-0.281
-409.340	-2.048	-0.267	-0.185
-408.325	-200.000	-0.007	-0.246
-407.311	751.409	-0.124	0.331
-406.296	800.000	-0.056	0.225
-405.282	-35.405	-0.102	-0.055
-404.267	-200.000	-0.080	0.371
-403.252	121.063	-0.186	0.228
-402.238	86.539	0.174	-0.190
-401.223	41.849	-0.107	-0.096
-400.209	-160.718	-0.141	0.007
-399.194	-74.382	0.174	0.062
-398.179	-200.000	0.006	0.432
-397.165	-113.171	0.275	-0.054
-396.150	-69.941	-0.264	0.100
-395.136	800.000	-0.088	0.283
-394.121	10.868	0.097	0.073
-393.106	-97.318	-0.143	-0.037
-392.092	-200.000	-0.016	0.166
-391.077	587.013	0.064	0.157
-390.063	-200.000	0.023	-0.323
-389.048	800.000	-0.020	-0.083
-388.033	-14.436	0.120	-0.076
-387.019	18.311	0.200	0.158
-386.004	-119.824	0.092	0.016
-384.990	45.028	0.305	-0.277
-383.975	-118.468	-0.254	-0.044
-382.960	-105.025	0.293	0.066
-381.946	-23.914	0.204	0.120
-380.931	171.450	0.078	-0.110
-379.917	800.000	-0.047	-0.145
-378.902	167.831	-0.252	0.354
-377.888	88.698	-0.104	0.114
-376.873	-200.000	-0.012	0.139
-375.858	520.199	0.095	0.221
-374.844	400.415	0.059	-0.121
-373.829	-0.726	0.085	0.059
-372.815	-31.697	-0.184	-0.102
-371.800	189.111	-0.167	0.247
-370.785	-200.000	-0.026	-0.132
-369.771	-200.000	-0.014	-0.413
-368.756	613.173	0.044	-0.110
-367.742	293.346	-0.066	-0.118
-366.727	-75.030	-0.198	-0.070
-365.712	120.353	-0.130	0.159
-364.698	-32.911	-0.180	0.099
-363.683	-200.000	-0.039	-0.174
-362.669	430.027	-0.149	-0.319
-361.654	51.618	-0.283	-0.265
-360.639	-12.518	-0.161	0.104
-359.625	-172.266	0.165	-0.005
-358.610	793.517	-0.151	-0.409
-357.596	-152.571	0.265	0.019
-356.581	-200.000	-0.004	0.066
-355.566	-200.000	-0.005	0.269
-354.552	-68.153	0.160	-0.061
-353.537	-200.000	0.029	0.171
-352.523	-39.058	0.204	0.106
-351.508	-73.616	0.275	-0.099
-350.493	-159.468	0.238	0.013
-349.479	-50.903	-0.311	-0.144
-348.464	377.934	-0.064	0.129
-347.450	655.026	0.076	0.192
-346.435	15.968	0.263	0.204
-345.420	480.859	0.198	0.442
-344.406	-31.117	-0.064	-0.035
-343.391	800.000	0.083	-0.260
-342.377	-200.000	-0.007	0.135
-341.362	353.822	0.082	-0.161
-340.348	-200.000	-0.065	-0.373
-339.333	-200.000	-0.001	-0.021
-338.318	-200.000	-0.020	0.161
-337.304	295.584	0.238	0.430
-336.289	48.603	0.202	-0.186
-335.275	16.509	-0.112	-0.087
-334.260	624.749	0.102	-0.255
-333.245	236.198	-0.201	0.327
-332.231	-71.756	0.103	-0.038
-331.216	36.388	0.259	-0.225
-330.202	800.000	0.040	0.163
-329.187	-62.685	0.139	-0.057
-328.172	-56.185	-0.260	0.114
-327.158	14.615	0.358	-0.276
-326.143	-37.954	0.130	-0.068
-325.129	133.985	-0.056	-0.071
-324.114	689.015	0.125	0.323
-323.099	-200.000	0.022	0.133
-322.085	84.636	0.091	-0.099
-321.070	145.896	-0.201	-0.265
-320.056	-174.317	-0.150	-0.004
-319.041	9.577	-0.179	-0.134
-318.026	-200.000	0.000	0.221
-317.012	42.218	-0.076	-0.068
-315.997	-200.000	0.063	0.359
-314.983	-191.840	0.249	-0.002
-313.968	9.085	-0.065	0.048
-312.953	800.000	0.051	-0.195
-311.939	66.860	-0.092	0.092
-310.924	412.003	0.013	0.027
-309.910	222.713	-0.207	0.329
-308.895	90.294	-0.217	-0.239
-307.880	-11.862	-0.220	0.142
-306.866	-133.380	0.267	-0.033
-305.851	16.662	-0.086	0.067
-304.837	306.183	0.121	0.221
-303.822	800.000	0.027	-0.094
-302.807	186.359	0.068	-0.100
-301.793	408.054	0.123	-0.256
-300.778	443.678	0.011	0.024
-299.764	273.139	-0.068	-0.118
-298.749	125.595	-0.101	0.125
-297.735	206.056	-0.164	0.251
-296.720	-200.000	-0.051	-0.249
-295.705	63.632	0.203	0.201
-294.691	53.134	-0.061	-0.058
-293.676	-200.000	-0.021	-0.199
-292.662	-200.000	-0.036	-0.168
-291.647	-125.694	0.157	-0.023
-290.632	31.672	0.081	-0.068
-289.618	250.964	0.283	-0.473
-288.603	-200.000	-0.002	-0.012
-287.589	96.324	0.148	-0.167
-286.574	335.624	0.167	-0.318
-285.559	685.987	0.078	-0.201
-284.545	-200.000	-0.008	0.039
-283.530	-111.808	-0.222	0.044
-282.516	-57.680	-0.133	0.057
-281.501	-87.364	0.456	0.136
-280.486	505.663	0.061	0.138
-279.472	339.463	-0.099	-0.189
-278.457	-200.000	0.042	0.218
-277.443	-4.935	-0.382	-0.259
-276.428	-168.351	-0.068	-0.003
-275.413	-75.540	-0.210	0.074
-274.399	24.402	0.127	-0.104
-273.384	513.746	0.095	-0.217
-272.370	-158.297	-0.393	0.023
-271.355	-200.000	0.004	0.138
-270.340	-200.000	0.036	0.231
-269.326	177.592	-0.209	0.300
-268.311	645.782	-0.101	-0.253
-267.297	59.852	0.163	0.158
-266.282	-50.259	-0.176	0.082
-265.267	395.351	-0.089	0.182
-264.253	-159.791	-0.208	0.011
-263.238	14.085	-0.236	-0.181
-262.224	105.615	0.038	0.045
-261.209	-58.065	0.467	0.200
-260.195	800.000	-0.028	-0.117
-259.180	291.436	-0.052	0.092
-258.165	-149.895	-0.144	0.011
-257.151	265.374	0.013	0.022
-256.136	-200.000	-0.050	0.337
-255.122	722.282	0.113	0.295
-254.107	-37.108	-0.158	0.083
-253.092	800.000	-0.063	0.248
-252.078	800.000	0.034	0.135
-251.063	-155.512	0.355	-0.023
-250.049	29.663	0.027	-0.022
-249.034	-171.149	-0.267	-0.009
-248.019	-200.000	0.027	-0.152
-247.005	630.645	0.090	-0.225
-245.990	-200.000	0.013	-0.112
-244.976	183.846	-0.019	-0.027
-243.961	800.000	0.067	0.218
-242.946	-28.517	0.220	0.124
-241.932	-72.675	-0.233	-0.084
-240.917	49.835	0.127	0.117
-239.903	-133.144	-0.396	0.049
-238.888	-127.064	0.453	0.065
-237.873	-32.711	0.088	0.048
-236.859	-77.128	-0.078	-0.027
-235.844	49.278	-0.050	-0.046
-234.830	-172.623	0.188	0.006
-233.815	-1.145	0.503	-0.349
-232.800	427.750	-0.032	-0.068
-231.786	-163.018	-0.121	0.006
-230.771	800.000	-0.098	-0.269
-229.757	800.000	0.058	0.194
-228.742	-48.325	0.356	-0.168
-227.727	-172.786	-0.137	-0.004
-226.713	-78.559	0.205	-0.069
-225.698	375.073	0.060	0.119
-224.684	800.000	0.019	0.058
-223.669	-110.309	0.163	0.033
-222.655	-46.005	0.120	0.058
-221.640	-187.273	-0.388	0.005
-220.625	-200.000	-0.014	-0.327
-219.611	-132.909	-0.113	-0.014
-218.596	800.000	0.099	0.305
-217.582	-150.063	-0.202	0.015
-216.567	-102.653	0.133	-0.031
-215.552	23.843	0.138	-0.111
-214.538	-200.000	-0.007	-0.243
-213.523	112.412	-0.250	-0.296
-212.509	52.155	0.167	0.156
-211.494	-142.470	0.143	-0.014
-210.479	-117.886	-0.487	-0.086
-209.465	-117.040	0.114	0.020
-208.450	-200.000	0.008	0.092
-207.436	800.000	-0.035	0.109
-206.421	6.479	0.179	-0.130
-205.406	800.000	-0.042	-0.122
-204.392	-91.084	0.166	-0.047
-203.377	800.000	-0.166	0.489
-202.363	-122.859	0.410	-0.065
-201.348	350.806	0.038	-0.074
-200.333	59.564	-0.222	-0.215
-199.319	-114.513	-0.372	-0.070
-198.304	-61.811	0.163	0.067
-197.290	-83.659	-0.070	0.022
-196.275	188.518	0.066	0.097
-195.260	-200.000	0.019	0.278
-194.246	-200.000	0.024	0.273
-193.231	410.664	-0.050	0.104
-192.217	597.460	0.187	0.453
-191.202	-200.000	-0.002	0.259
-190.187	-107.092	-0.298	0.065
-189.173	76.266	0.266	0.277
-188.158	692.992	0.071	0.182
-187.144	-144.696	0.176	-0.016
-186.129	107.364	0.045	0.053
-185.114	-200.000	0.007	-0.051
-184.100	800.000	-0.016	0.057
-183.085	343.296	0.085	0.163
-182.071	119.790	0.099	-0.120
-181.056	800.000	0.131	0.527
-180.042	476.955	0.158	-0.350
-179.027	-200.000	-0.017	-0.196
-178.012	-52.465	0.206	0.093
-176.998	-40.116	0.055	0.028
-175.983	41.410	-0.204	0.181
-174.969	57.207	-0.157	-0.150
-173.954	-200.000	0.016	-0.075
-172.939	-131.592	-0.289	-0.037
-171.925	42.871	0.123	0.110
-170.910	-136.117	0.095	-0.011
-169.896	40.173	0.075	-0.066
-168.881	-200.000	-0.031	0.341
-167.866	-108.191	0.248	0.053
-166.852	-15.492	-0.214	0.134
-165.837	167.004	0.027	0.037
-164.823	-105.111	0.163	0.036
-163.808	-140.450	-0.189	0.019
-162.793	559.081	-0.160	0.379
-161.779	63.045	0.290	0.284
-160.764	-98.569	0.027	-0.007
-159.750	75.843	-0.113	0.117
-158.735	-169.548	-0.196	-0.007
-157.720	-89.214	-0.207	-0.060
-156.706	614.671	-0.080	0.195
-155.691	404.668	-0.207	0.427
-154.677	-84.542	-0.323	-0.100
-153.662	-200.000	-0.008	0.042
-152.647	-105.885	-0.080	0.018
-151.633	-120.168	0.174	-0.029
-150.618	-150.397	0.116	0.009
-149.604	800.000	0.093	0.360
-148.589	223.383	-0.116	0.183
-147.574	267.219	-0.068	0.117
-146.560	91.302	0.205	-0.225
-145.545	800.000	0.041	-0.132
-144.531	-200.000	0.027	0.469
-143.516	68.129	0.037	-0.038
-142.502	5.759	-0.157	0.113
-141.487	-95.891	0.100	0.026
-140.472	-200.000	0.040	0.277
-139.458	186.461	0.041	0.059
-138.443	74.235	-0.268	-0.275
-137.429	-100.687	-0.271	-0.065
-136.414	-35.618	0.179	-0.095
-135.399	135.065	0.161	-0.205
-134.385	403.957	-0.069	0.142
-133.370	-200.000	-0.025	-0.296
-132.356	178.707	0.142	0.203
-131.341	800.000	0.102	-0.294
-130.326	-200.000	0.042	-0.211
-129.312	202.375	0.066	0.099
-128.297	-59.582	-0.382	0.160
-127.283	800.000	-0.095	-0.306
-126.268	-200.000	0.015	0.132
-125.253	507.580	0.043	0.097
-124.239	800.000	-0.041	-0.116
-123.224	135.902	-0.268	0.341
-122.210	72.491	-0.318	-0.324
-121.195	562.778	-0.081	0.192
-120.180	800.000	-0.019	-0.055
-119.166	-42.436	-0.087	-0.043
-118.151	-200.000	-0.010	-0.364
-117.137	-88.617	0.138	-0.040
-116.122	2.877	-0.135	-0.096
-115.107	-63.063	0.300	-0.121
-114.093	-200.000	-0.028	-0.158
-113.078	587.301	0.024	0.058
-112.064	-144.574	-0.240	-0.022
-111.049	-20.391	-0.088	0.053
-110.034	218.092	-0.093	0.146
-109.020	519.986	-0.128	0.292
-108.005	-104.900	-0.140	-0.031
-106.991	-91.514	-0.080	0.022
-105.976	-7.186	0.143	-0.095
-104.962	-34.210	-0.078	-0.042
-103.947	800.000	-0.083	0.300
-102.932	-200.000	0.012	-0.077
-101.918	-26.248	0.122	-0.070
-100.903	332.545	0.130	0.245
-99.889	-200.000	0.041	0.357
-98.874	-53.799	-0.129	-0.058
-97.859	-200.000	-0.005	0.104
-96.845	-9.425	-0.189	-0.123
-95.830	-15.030	0.046	0.029
-94.816	-51.299	0.092	0.042
-93.801	-56.695	-0.148	0.064
-92.786	116.600	-0.213	0.255
-91.772	11.698	0.252	-0.189
-90.757	-49.933	0.377	0.175
-89.743	-121.415	0.391	-0.064
-88.728	71.800	0.063	-0.064
-87.713	44.666	0.169	-0.152
-86.699	-200.000	0.023	-0.100
-85.684	128.880	0.115	0.143
-84.670	19.923	0.146	-0.115
-83.655	-64.677	-0.229	0.091
-82.640	42.973	0.170	0.152
-81.626	69.216	-0.207	-0.207
-80.611	110.927	0.224	-0.263
-79.597	-200.000	0.020	0.295
-78.582	-36.708	-0.328	-0.172
-77.567	682.728	0.116	-0.296
-76.553	-37.953	-0.266	-0.138
-75.538	-4.677	0.096	-0.064
-74.524	49.045	-0.345	0.316
-73.509	201.695	-0.026	0.039
-72.494	73.294	0.277	-0.282
-71.480	345.501	-0.072	0.138
-70.465	148.055	-0.146	0.193
-69.451	-200.000	-0.013	0.134
-68.436	-93.675	-0.091	0.025
-67.422	10.784	0.217	-0.161
-66.407	99.360	-0.279	0.315
-65.392	-172.300	0.403	0.013
-64.378	-146.780	-0.343	-0.029
-63.363	79.149	-0.277	0.290
-62.349	-148.165	0.257	-0.021
-61.334	59.013	-1.007	-0.966
-60.319	-30.464	0.873	0.482
-59.305	-200.000	-0.199	-0.954
-58.290	163.736	0.998	1.369
-57.276	800.000	0.422	1.432
-56.261	-200.000	116.408	609.056
-55.246	429.256	1511.449	3185.531
-54.232	148.940	2677.354	3529.556
-53.217	91.545	2261.097	2477.213
-52.203	34.503	1876.473	1597.379
-51.188	29.319	1673.416	1385.630
-50.173	26.992	1632.953	1334.983
-49.159	45.884	1693.885	1527.167
-48.144	44.715	1707.574	1530.663
-47.130	28.725	1662.737	1372.128
-46.115	26.281	1648.149	1341.914
-45.100	26.197	1642.889	1336.957
-44.086	26.098	1640.241	1334.013
-43.071	25.999	1638.304	1331.659
-42.057	26.059	1635.538	1329.793
-41.042	26.050	1633.554	1328.061
-40.027	26.022	1631.948	1326.502
-39.013	26.189	1629.612	1325.778
-37.998	26.017	1628.506	1323.563
-36.984	26.134	1627.055	1323.189
-35.969	26.061	1625.796	1321.576
-34.954	26.200	1623.338	1320.540
-33.940	26.139	1622.171	1319.096
-32.925	26.190	1620.488	1318.047
-31.911	26.193	1618.976	1316.782
-30.896	26.257	1616.860	1315.479
-29.881	26.104	1616.015	1313.626
-28.867	26.158	1614.518	1312.751
-27.852	26.106	1612.949	1311.042
-26.838	26.230	1611.402	1310.631
-25.823	26.187	1610.139	1309.239
-24.809	26.214	1609.127	1308.561
-23.794	26.162	1607.867	1307.107
-22.779	26.294	1605.937	1306.441
-21.765	26.217	1604.727	1304.851
-20.750	26.203	1603.045	1303.327
-19.736	26.174	1601.803	1302.060
-18.721	26.304	1600.083	1301.543
-17.706	26.172	1599.300	1299.909
-16.692	26.187	1597.387	1298.407
-15.677	26.247	1595.809	1297.503
-14.663	26.288	1594.946	1297.047
-13.648	26.348	1593.006	1295.848
-12.633	26.267	1591.453	1293.953
-11.619	26.215	1589.799	1292.182
-10.604	26.243	1588.476	1291.258
-9.590	26.328	1586.980	1290.598
-8.575	26.260	1586.461	1289.642
-7.560	26.324	1584.867	1288.747
-6.546	26.298	1583.797	1287.641
-5.531	26.233	1582.525	1286.091
-4.517	26.228	1581.229	1284.952
-3.502	26.250	1579.954	1284.025
-2.487	26.341	1577.987	1283.020
-1.473	25.737	1566.154	1269.094
-0.458	22.429	1546.558	1230.094
0.556	16.984	1547.235	1195.504
1.571	14.483	1569.688	1194.849
2.586	14.108	1581.518	1201.039
3.600	12.886	1528.954	1152.478
4.615	7.282	1424.241	1036.879
5.629	1.455	1364.930	956.992
6.644	0.303	1357.757	944.661
7.659	0.203	1356.676	943.200
8.673	0.053	1356.245	941.881
9.688	0.161	1353.582	940.623
10.702	-0.002	1350.339	937.267
11.717	2.896	1354.366	958.077
12.731	10.075	1364.795	1010.373
13.746	15.662	1373.221	1051.568
14.761	16.904	1374.413	1060.155
15.775	16.319	1371.871	1054.451
16.790	15.220	1369.733	1045.858
17.804	14.488	1367.120	1039.211
18.819	14.168	1366.288	1036.492
19.834	13.930	1364.773	1033.770
20.848	13.623	1363.599	1030.879
21.863	13.478	1362.054	1028.723
22.877	13.244	1360.961	1026.352
23.892	13.230	1359.975	1025.432
24.907	13.187	1359.563	1024.763
25.921	13.259	1358.425	1024.260
26.936	13.258	1357.528	1023.486
27.950	13.381	1356.340	1023.263
28.965	13.333	1355.940	1022.570
29.980	13.466	1354.359	1022.112
30.994	13.504	1353.396	1021.530
32.009	13.542	1352.569	1021.049
33.023	13.452	1351.527	1019.617
34.038	13.332	1350.684	1018.152
35.053	13.304	1349.422	1016.935
36.067	13.308	1348.536	1016.205
37.082	13.443	1347.100	1015.859
38.096	13.426	1346.608	1015.296
39.111	13.365	1346.034	1014.399
40.126	13.342	1345.094	1013.460
41.140	13.318	1344.120	1012.491
42.155	13.251	1343.734	1011.697
43.169	13.136	1343.894	1011.026
44.184	13.180	1343.415	1010.845
45.199	13.257	1342.649	1010.651
46.213	13.257	1342.346	1010.335
47.228	13.343	1340.716	1009.541
48.242	13.319	1339.607	1008.470
49.257	13.302	1338.402	1007.368
50.271	13.357	1336.877	1006.467
51.286	13.379	1335.525	1005.492
52.301	13.416	1334.582	1004.920
53.315	13.342	1333.472	1003.547
54.330	13.299	1332.419	1002.407
55.344	13.316	1330.717	1001.141
56.359	13.348	1329.902	1000.629
57.374	13.341	1328.977	999.807
58.388	13.180	1328.801	998.613
59.403	13.169	1328.064	997.900
60.417	13.188	1327.569	997.559
61.432	13.034	1326.792	995.953
62.447	13.106	1325.743	995.515
63.461	13.166	1324.295	994.697
64.476	13.147	1323.192	993.666
65.490	13.167	1321.973	992.785
66.505	13.242	1320.319	991.904
67.520	13.109	1319.170	990.160
68.534	13.236	1318.165	990.078
69.549	13.112	1317.707	988.902
70.563	13.164	1316.224	988.015
71.578	13.217	1314.593	987.019
72.593	13.178	1313.757	986.071
73.607	13.124	1313.432	985.419
74.622	13.049	1313.068	984.606
75.636	13.140	1311.512	983.898
76.651	13.177	1311.049	983.684
77.666	13.065	1310.630	982.613
78.680	13.129	1310.102	982.515
79.695	13.159	1309.243	981.960
80.709	13.133	1308.025	980.806
81.724	13.153	1307.724	980.613
82.739	13.289	1306.493	980.410
83.753	13.309	1305.569	979.749
84.768	13.417	1304.418	979.435
85.782	13.397	1303.772	978.742
86.797	13.391	1301.940	977.246
87.812	13.283	1300.720	975.608
88.826	13.263	1299.796	974.712
89.841	13.369	1298.661	974.399
90.855	13.348	1297.933	973.641
91.870	13.374	1296.748	972.821
92.884	13.384	1296.237	972.407
93.899	13.391	1295.195	971.583
94.914	13.456	1294.861	971.628
95.928	13.544	1293.432	970.985
96.943	13.420	1292.996	969.848
97.957	13.419	1291.928	968.953
98.972	13.497	1290.872	968.530
99.987	13.476	1289.910	967.601
101.001	13.421	1288.887	966.428
102.016	13.312	1288.580	965.473
103.030	13.485	1287.412	965.525
104.045	13.399	1286.511	964.259
105.060	13.408	1284.951	963.059
106.074	13.368	1283.578	961.712
107.089	13.298	1282.656	960.532
108.103	13.190	1281.581	959.010
109.118	13.245	1279.767	957.891
110.133	13.254	1278.467	956.886
111.147	13.234	1277.331	955.836
112.162	13.285	1275.883	954.959
113.176	13.309	1274.937	954.304
114.191	13.350	1273.965	953.727
115.206	13.303	1272.902	952.579
116.220	13.303	1271.927	951.764
117.235	13.330	1270.789	950.984
118.249	13.201	1270.244	949.753
119.264	13.289	1268.458	948.835
120.279	13.312	1267.099	947.871
121.293	13.300	1266.774	947.475
122.308	13.263	1265.479	946.208
123.322	13.305	1264.504	945.635
124.337	13.251	1263.392	944.409
125.352	13.249	1261.904	943.203
126.366	13.213	1261.299	942.465
127.381	13.238	1260.174	941.682
128.395	13.262	1258.963	940.830
129.410	13.378	1257.501	940.312
130.424	13.373	1257.003	939.828
131.439	13.358	1256.109	938.993
132.454	13.282	1255.261	937.845
133.468	13.293	1254.340	937.135
134.483	13.316	1253.436	936.508
135.497	13.320	1252.434	935.701
136.512	13.274	1251.111	934.369
137.527	13.278	1250.285	933.694
138.541	13.353	1248.482	932.684
139.556	13.369	1247.099	931.659
140.570	13.417	1245.687	930.790
141.585	13.469	1244.663	930.237
142.600	13.443	1244.130	929.609
143.614	13.458	1243.455	929.107
144.629	13.528	1242.162	928.453
145.643	13.573	1240.522	927.398
146.658	13.451	1239.379	925.780
147.673	13.468	1238.224	924.929
148.687	13.491	1237.015	924.070
149.702	13.358	1236.316	922.726
150.716	13.335	1234.881	921.445
151.731	13.374	1233.822	920.792
152.746	13.409	1232.149	919.652
153.760	13.446	1230.814	918.783
154.775	13.482	1229.900	918.216
155.789	13.594	1228.928	918.034
156.804	13.480	1227.963	916.598
157.819	13.430	1227.208	915.675
158.833	13.669	1225.969	915.994
159.848	13.634	1224.521	914.637
160.862	13.686	1224.058	914.495
161.877	13.567	1222.930	912.917
162.892	13.572	1221.991	912.162
163.906	13.478	1221.397	911.122
164.921	13.505	1220.079	910.207
165.935	13.606	1219.371	910.155
166.950	13.575	1218.385	909.168
167.964	13.614	1217.503	908.642
168.979	13.733	1216.714	908.626
169.994	13.674	1216.129	907.786
171.008	13.687	1215.131	907.028
172.023	13.706	1214.121	906.298
173.037	13.754	1213.761	906.214
174.052	13.763	1212.645	905.351
175.067	13.737	1211.635	904.373
176.081	13.643	1210.996	903.301
177.096	13.621	1209.896	902.280
178.110	13.611	1208.934	901.432
179.125	13.533	1207.601	899.936
180.140	13.634	1206.501	899.581
181.154	13.720	1205.515	899.233
182.169	13.872	1203.817	898.710
183.183	13.893	1202.491	897.753
184.198	13.901	1201.366	896.880
185.213	13.879	1200.828	896.278
186.227	13.835	1199.655	895.086
187.242	13.882	1198.794	894.616
188.256	13.881	1197.653	893.683
189.271	13.912	1196.746	893.094
190.286	13.892	1195.369	891.879
191.300	13.791	1194.934	890.936
192.315	13.735	1194.454	890.194
193.329	13.706	1193.771	889.452
194.344	13.797	1193.144	889.398
195.359	13.833	1192.582	889.089
196.373	13.829	1192.129	888.653
197.388	13.929	1191.897	888.937
198.402	14.032	1191.052	888.779
199.417	14.157	1189.758	888.403
200.432	14.087	1189.365	887.654
201.446	14.112	1188.730	887.236
202.461	14.223	1187.395	886.751
203.475	14.188	1186.144	885.553
204.490	14.177	1185.262	884.757
205.504	14.109	1183.801	883.227
206.519	14.201	1182.954	883.009
207.534	14.052	1182.201	881.576
208.548	14.089	1180.870	880.700
209.563	14.065	1180.557	880.266
210.577	14.204	1179.086	879.826
211.592	14.269	1178.374	879.560
212.607	14.338	1177.433	879.141
213.621	14.255	1176.867	878.205
214.636	14.242	1175.962	877.383
215.650	14.303	1174.840	876.787
216.665	14.261	1174.428	876.184
217.680	14.293	1173.031	875.230
218.694	14.423	1172.508	875.447
219.709	14.338	1171.967	874.517
220.723	14.288	1171.197	873.605
221.738	14.312	1170.415	873.068
222.753	14.347	1169.578	872.553
223.767	14.299	1168.772	871.621
224.782	14.557	1167.968	872.296
225.796	14.430	1167.832	871.452
226.811	14.457	1166.751	870.707
227.826	14.403	1166.256	869.979
228.840	14.329	1165.707	869.105
229.855	14.410	1164.602	868.627
230.869	14.468	1163.718	868.196
231.884	14.329	1163.175	866.991
232.899	14.441	1161.995	866.618
233.913	14.463	1161.450	866.246
234.928	14.432	1160.436	865.252
235.942	14.382	1159.839	864.471
236.957	14.330	1159.308	863.731
237.972	14.347	1158.546	863.176
238.986	14.467	1157.820	863.180
240.001	14.463	1157.412	862.777
241.015	14.624	1155.875	862.386
242.030	14.556	1155.579	861.737
243.045	14.621	1154.508	861.199
244.059	14.501	1154.001	860.127
245.074	14.562	1153.212	859.775
246.088	14.621	1151.894	859.023
247.103	14.575	1151.442	858.370
248.117	14.746	1150.679	858.605
249.132	14.691	1150.155	857.855
250.147	14.825	1149.398	857.904
251.161	14.856	1148.576	857.374
252.176	14.924	1147.703	856.992
253.190	14.874	1146.845	856.020
254.205	14.906	1146.883	856.139
255.220	14.918	1146.228	855.637
256.234	14.953	1145.259	855.015
257.249	14.884	1145.001	854.392
258.263	14.845	1144.485	853.734
259.278	14.946	1143.702	853.590
260.293	15.009	1143.265	853.508
261.307	15.106	1142.054	853.024
262.322	15.092	1142.078	852.894
263.336	15.192	1140.820	852.390
264.351	15.034	1140.425	851.214
265.366	15.091	1139.909	851.042
266.380	15.101	1139.246	850.523
267.395	15.178	1138.279	850.116
268.409	15.141	1137.409	849.208
269.424	15.111	1136.865	848.571
270.439	15.085	1136.777	848.297
271.453	15.095	1136.129	847.794
272.468	15.050	1134.824	846.514
273.482	15.232	1133.851	846.636
274.497	15.143	1134.179	846.356
275.512	15.310	1133.022	846.262
276.526	15.167	1132.255	844.892
277.541	15.157	1131.510	844.210
278.555	15.224	1131.148	844.202
279.570	15.245	1130.862	844.021
280.585	15.330	1129.287	843.195
281.599	15.295	1128.692	842.502
282.614	15.257	1127.148	841.083
283.628	15.325	1126.418	840.804
284.643	15.334	1125.890	840.382
285.657	15.302	1125.013	839.495
286.672	15.375	1124.091	839.094
287.687	15.250	1123.455	837.923
288.701	15.412	1122.724	838.111
289.716	15.307	1121.601	836.675
290.730	15.337	1120.825	836.169
291.745	15.489	1120.236	836.415
292.760	15.433	1119.623	835.604
293.774	15.551	1118.552	835.321
294.789	15.440	1118.554	834.695
295.803	15.551	1117.698	834.533
296.818	15.405	1117.507	833.590
297.833	15.452	1116.584	833.064
298.847	15.536	1115.589	832.663
299.862	15.544	1114.868	832.089
300.876	15.503	1114.481	831.528
301.891	15.633	1113.364	831.261
302.906	15.648	1112.837	830.871
303.920	15.747	1112.347	830.916
304.935	15.636	1111.651	829.777
305.949	15.729	1110.858	829.570
306.964	15.698	1110.282	828.916
307.979	15.824	1109.346	828.764
308.993	15.725	1108.920	827.885
310.008	15.871	1107.868	827.742
311.022	15.788	1107.331	826.860
312.037	15.704	1106.680	825.888
313.052	15.679	1105.765	825.011
314.066	15.806	1104.474	824.598
315.081	15.720	1103.687	823.517
316.095	15.732	1103.193	823.131
317.110	15.810	1102.521	822.940
318.125	15.861	1101.523	822.373
319.139	15.700	1101.309	821.351
320.154	15.836	1100.806	821.567
321.168	15.724	1100.058	820.390
322.183	15.747	1099.358	819.908
323.197	15.689	1098.923	819.229
324.212	15.750	1098.364	819.037
325.227	15.841	1097.765	818.960
326.241	15.876	1096.977	818.472
327.256	15.732	1096.260	817.164
328.270	15.798	1095.355	816.739
329.285	15.950	1094.263	816.584
330.300	15.916	1093.098	815.478
331.314	15.895	1092.449	814.821
332.329	15.998	1091.731	814.711
333.343	15.928	1090.786	813.600
334.358	16.015	1089.713	813.143
335.373	15.950	1089.343	812.485
336.387	16.068	1088.312	812.210
337.402	16.105	1087.225	811.508
338.416	16.098	1087.033	811.256
339.431	16.022	1086.633	810.524
340.446	16.145	1085.500	810.195
341.460	16.188	1085.230	810.131
342.475	16.052	1084.477	808.844
343.489	16.176	1083.315	808.497
344.504	16.201	1082.703	808.091
345.519	16.199	1081.719	807.275
346.533	16.133	1081.368	806.624
347.548	16.348	1079.963	806.535
348.562	16.260	1079.249	805.509
349.577	16.299	1078.784	805.274
350.592	16.191	1077.744	803.916
351.606	16.232	1077.275	803.691
352.621	16.207	1076.750	803.105
353.635	16.144	1076.066	802.226
354.650	16.242	1075.301	802.050
355.665	16.307	1074.640	801.794
356.679	16.362	1073.730	801.306
357.694	16.281	1073.275	800.510
358.708	16.386	1072.708	800.513
359.723	16.446	1071.756	800.020
360.738	16.439	1071.243	799.532
361.752	16.475	1070.683	799.212
362.767	16.434	1070.661	798.931
363.781	16.453	1069.353	797.973
364.796	16.494	1068.912	797.769
365.810	16.524	1068.820	797.771
366.825	16.585	1067.669	797.126
367.840	16.681	1067.179	797.143
368.854	16.707	1066.392	796.608
369.869	16.570	1065.768	795.426
370.883	16.654	1065.002	795.179
371.898	16.527	1064.173	793.893
372.913	16.591	1063.903	793.923
373.927	16.678	1063.325	793.828
374.942	16.663	1062.650	793.185
375.956	16.722	1062.453	793.242
376.971	16.610	1061.994	792.305
377.986	16.728	1061.270	792.251
379.000	16.759	1060.810	791.978
380.015	16.703	1060.535	791.444
381.029	16.749	1059.499	790.816
382.044	16.769	1058.937	790.419
383.059	16.881	1058.094	790.243
384.073	16.853	1057.003	789.228
385.088	16.897	1055.985	788.599
386.102	16.933	1055.044	787.994
387.117	16.943	1053.983	787.179
388.132	16.853	1053.628	786.429
389.146	17.038	1052.510	786.379
390.161	16.941	1051.798	785.331
391.175	16.996	1051.087	784.985
392.190	16.954	1050.248	784.095
393.205	16.936	1050.001	783.757
394.219	17.034	1049.040	783.424
395.234	17.020	1048.089	782.579
396.248	17.082	1047.034	782.005
397.263	16.912	1046.727	780.926
398.278	16.920	1046.011	780.358
399.292	16.939	1044.853	779.514
400.307	16.928	1044.439	779.084
401.321	17.004	1043.306	778.521
402.336	16.988	1043.079	778.209
403.350	17.158	1042.427	778.434
404.365	17.030	1041.540	777.116
405.380	17.071	1041.104	776.907
406.394	17.079	1040.425	776.371
407.409	17.189	1038.986	775.729
408.423	17.307	1038.399	775.760
409.438	17.227	1037.896	774.950
410.453	17.249	1037.197	774.461
411.467	17.175	1037.080	773.971
412.482	17.219	1036.244	773.479
413.496	17.158	1035.399	772.502
414.511	17.265	1035.000	772.620
415.526	17.436	1034.229	772.753
416.540	17.372	1033.850	772.111
417.555	17.350	1033.272	771.512
418.569	17.335	1032.929	771.120
419.584	17.491	1032.392	771.358
420.599	17.440	1031.658	770.510
421.613	107.114	1327.197	1482.608
422.628	98.074	1370.215	1482.656
