DTS Sentinel unit serial number:	SN413079Multiplexer serial number:	ORYXHardware model number:	OX4-SRSoftware version number:	ORYX F/W v4.00 Oryx Data Collector v3.7.2.0data status	okinstallation	princeton_trtdifferential loss correction	single-endedforward channel	channel 2reverse channel	N/Adate	2019/09/13time	21:47:34forward acquisition time	60.00reverse acquisition time	0.00gamma	496.2192k internal	0.2335k external	0.2335temperature offset calibration	1.0129default loss term (dB/km)	0.3790temperature slope calibration	1.0000multiplexer offset coefficient	1.0000multiplexer slope coefficient	1.0000fibre end	0.00T internal ref (°C)	28.12T ext. ref 1 (°C)	3.27T ext. ref 2 (°C)	22.66length (m)	temperature (°C)	Stokes	anti-Stokes-747.200	-12.141	0.169	-0.111
-746.185	70.121	0.190	-0.197
-745.171	-104.831	-0.105	-0.024
-744.156	-200.000	0.083	0.472
-743.142	362.158	-0.076	0.154
-742.127	289.796	0.102	0.187
-741.112	133.432	0.364	-0.474
-740.098	-42.662	0.190	0.097
-739.083	299.255	0.051	0.095
-738.069	-13.300	0.103	-0.067
-737.054	-4.003	0.152	-0.106
-736.039	10.517	0.072	0.055
-735.025	-122.819	0.223	0.036
-734.010	-100.890	-0.534	-0.132
-732.996	56.706	-0.341	-0.333
-731.981	161.366	0.033	-0.047
-730.966	-13.421	-0.196	-0.128
-729.952	11.211	-0.112	0.086
-728.937	171.017	-0.096	0.139
-727.923	188.520	-0.066	0.099
-726.908	-50.224	0.164	0.078
-725.894	-200.000	0.020	0.206
-724.879	402.178	-0.074	0.157
-723.864	261.042	0.134	-0.233
-722.850	-200.000	-0.041	-0.255
-721.835	26.690	-0.234	-0.197
-720.821	-115.898	-0.079	0.015
-719.806	-120.166	-0.496	-0.085
-718.791	74.444	-0.130	0.138
-717.777	-0.865	-0.170	0.121
-716.762	65.782	0.077	0.078
-715.748	-8.609	0.051	0.034
-714.733	-3.199	-0.113	0.079
-713.718	37.621	-0.272	0.242
-712.704	454.405	-0.078	-0.174
-711.689	-105.413	0.197	0.045
-710.675	595.598	-0.094	0.235
-709.660	-62.826	-0.369	0.153
-708.645	-200.000	-0.011	0.333
-707.631	77.797	-0.049	0.052
-706.616	-22.657	0.113	-0.069
-705.602	800.000	-0.039	0.115
-704.587	-169.166	0.140	-0.005
-703.572	76.514	-0.097	-0.103
-702.558	686.987	0.070	0.183
-701.543	-6.147	0.189	-0.130
-700.529	-153.703	0.283	0.020
-699.514	-200.000	-0.033	0.476
-698.499	164.433	-0.041	0.058
-697.485	33.432	-0.249	-0.217
-696.470	-125.726	-0.429	0.065
-695.456	701.272	0.046	-0.120
-694.441	-109.996	0.153	-0.032
-693.426	-200.000	-0.032	0.364
-692.412	44.519	-0.040	-0.037
-691.397	123.166	0.108	0.136
-690.383	43.422	0.127	-0.116
-689.368	-200.000	-0.107	-0.596
-688.354	-93.952	0.167	-0.046
-687.339	-43.418	0.334	0.169
-686.324	299.194	0.092	0.171
-685.310	-102.403	-0.153	-0.037
-684.295	-52.541	-0.094	0.044
-683.281	-200.000	-0.018	-0.263
-682.266	-122.310	-0.387	0.063
-681.251	-71.604	-0.341	0.128
-680.237	-116.378	-0.315	0.058
-679.222	178.431	-0.236	-0.346
-678.208	-122.359	-0.279	-0.046
-677.193	800.000	0.024	0.072
-676.178	-200.000	-0.042	0.245
-675.164	-141.065	0.422	0.043
-674.149	-71.054	-0.161	0.061
-673.135	94.892	-0.082	0.094
-672.120	-101.425	-0.286	-0.070
-671.105	-111.380	-0.167	0.034
-670.091	147.403	-0.056	-0.075
-669.076	-67.684	-0.204	-0.080
-668.062	-93.497	-0.183	0.051
-667.047	3.046	0.100	-0.073
-666.032	402.093	-0.103	-0.216
-665.018	-57.262	0.139	0.061
-664.003	66.297	-0.153	-0.155
-662.989	46.495	-0.100	-0.093
-661.974	-41.072	0.114	-0.059
-660.959	-57.379	0.203	0.089
-659.945	126.809	-0.386	-0.490
-658.930	3.799	0.020	-0.015
-657.916	73.932	0.195	-0.205
-656.901	-200.000	0.007	0.157
-655.886	-65.955	-0.139	0.056
-654.872	128.603	-0.239	-0.305
-653.857	-200.000	-0.025	0.297
-652.843	319.742	-0.174	-0.330
-651.828	-59.716	-0.126	0.054
-650.814	-200.000	-0.067	-0.306
-649.799	-200.000	-0.001	-0.160
-648.784	-65.937	-0.083	-0.033
-647.770	-87.492	0.306	-0.093
-646.755	-200.000	-0.021	-0.186
-645.741	-52.360	-0.221	-0.102
-644.726	-181.664	0.212	0.004
-643.711	-200.000	0.110	0.000
-642.697	23.796	-0.202	0.166
-641.682	-103.762	0.047	-0.011
-640.668	-34.807	0.116	-0.064
-639.653	-35.109	0.163	0.089
-638.638	-99.586	0.117	0.029
-637.624	-196.882	-0.312	0.002
-636.609	60.388	-0.100	-0.099
-635.595	32.104	0.283	0.245
-634.580	-200.000	-0.027	0.202
-633.565	-200.000	-0.011	0.181
-632.551	-137.780	0.186	-0.021
-631.536	-102.705	-0.091	0.022
-630.522	-200.000	-0.004	0.211
-629.507	-82.967	0.332	-0.107
-628.492	-25.457	0.108	-0.064
-627.478	29.449	0.095	0.081
-626.463	-49.196	-0.339	-0.162
-625.449	331.786	-0.144	-0.278
-624.434	-200.000	-0.010	0.076
-623.419	35.022	0.168	0.148
-622.405	62.619	-0.083	0.083
-621.390	116.565	-0.168	0.206
-620.376	-119.486	0.345	-0.060
-619.361	99.562	0.109	-0.126
-618.346	33.638	-0.339	-0.294
-617.332	209.016	-0.078	-0.122
-616.317	-72.769	-0.225	0.083
-615.303	-158.311	0.109	0.006
-614.288	-200.000	0.004	0.044
-613.273	-200.000	-0.038	0.202
-612.259	-8.145	-0.083	-0.056
-611.244	-200.000	0.041	-0.258
-610.230	-95.328	0.097	0.026
-609.215	91.591	0.117	-0.131
-608.201	105.787	0.131	0.155
-607.186	76.124	-0.174	-0.184
-606.171	-52.186	0.058	-0.027
-605.157	-200.000	0.030	-0.141
-604.142	-136.469	-0.213	0.025
-603.128	-200.000	-0.028	0.146
-602.113	-46.779	-0.180	0.088
-601.098	-200.000	-0.017	0.354
-600.084	-73.438	0.104	0.038
-599.069	-35.608	-0.256	0.139
-598.055	-146.764	0.089	0.008
-597.040	134.735	0.130	0.169
-596.025	74.913	0.134	-0.141
-595.011	-66.635	-0.262	-0.104
-593.996	-200.000	-0.013	0.119
-592.982	-200.000	-0.024	0.187
-591.967	209.165	0.189	-0.295
-590.952	-69.916	-0.086	-0.033
-589.938	444.671	0.004	0.009
-588.923	-3.600	0.340	-0.236
-587.909	-111.822	0.601	0.121
-586.894	-112.554	-0.187	0.037
-585.879	800.000	0.045	0.188
-584.865	-95.313	-0.268	0.072
-583.850	208.619	-0.133	0.208
-582.836	108.683	0.142	-0.170
-581.821	-171.975	-0.058	0.002
-580.806	-200.000	0.056	-0.302
-579.792	-200.000	-0.005	-0.256
-578.777	-79.310	0.106	0.036
-577.763	800.000	0.074	-0.237
-576.748	-143.005	-0.228	-0.022
-575.733	-200.000	-0.003	-0.142
-574.719	116.771	0.035	-0.042
-573.704	-142.049	-0.097	0.010
-572.690	-200.000	-0.025	0.416
-571.675	-150.966	0.108	0.008
-570.661	111.484	0.261	0.314
-569.646	18.190	-0.052	-0.041
-568.631	463.893	-0.072	0.160
-567.617	38.968	0.094	0.084
-566.602	-112.494	-0.167	0.033
-565.588	206.681	0.061	-0.095
-564.573	-103.549	-0.103	-0.024
-563.558	18.438	-0.049	-0.039
-562.544	-171.628	-0.197	0.006
-561.529	499.527	0.069	-0.159
-560.515	211.882	-0.049	-0.076
-559.500	-162.424	0.211	-0.010
-558.485	396.429	0.066	0.138
-557.471	182.131	-0.119	-0.176
-556.456	-116.199	-0.292	0.054
-555.442	169.438	0.100	0.143
-554.427	94.665	-0.148	0.168
-553.412	304.769	-0.081	-0.151
-552.398	-200.000	-0.014	-0.153
-551.383	-16.400	0.232	0.146
-550.369	137.264	-0.134	0.175
-549.354	91.951	0.201	0.226
-548.339	-200.000	0.004	-0.020
-547.325	-131.265	0.457	0.060
-546.310	205.034	0.071	0.111
-545.296	-200.000	-0.034	0.201
-544.281	699.963	0.053	0.139
-543.266	800.000	0.069	0.204
-542.252	-2.882	0.443	-0.309
-541.237	3.320	-0.285	-0.207
-540.223	254.635	-0.128	0.219
-539.208	800.000	-0.054	0.226
-538.193	-166.088	0.192	0.008
-537.179	79.087	-0.048	0.051
-536.164	-12.743	-0.347	-0.226
-535.150	94.225	0.174	-0.197
-534.135	229.488	0.167	-0.272
-533.121	-116.467	0.185	0.034
-532.106	-53.293	0.175	-0.080
-531.091	12.188	-0.063	-0.048
-530.077	172.123	0.079	0.113
-529.062	33.646	0.213	-0.184
-528.048	800.000	-0.083	-0.294
-527.033	-96.932	0.211	-0.055
-526.018	40.576	-0.170	0.153
-525.004	10.145	0.150	0.113
-523.989	217.856	-0.132	0.209
-522.975	-155.626	0.070	-0.005
-521.960	-200.000	-0.046	0.237
-520.945	800.000	0.092	0.314
-519.931	-119.439	0.034	-0.006
-518.916	800.000	-0.060	0.218
-517.902	43.621	-0.164	-0.149
-516.887	33.362	0.077	0.067
-515.872	-200.000	-0.002	-0.243
-514.858	435.424	-0.207	-0.447
-513.843	-141.151	-0.243	0.025
-512.829	-200.000	0.006	-0.206
-511.814	-157.194	0.326	0.020
-510.799	-124.826	0.311	0.048
-509.785	-89.174	-0.104	0.031
-508.770	800.000	-0.067	-0.220
-507.756	-130.602	-0.319	-0.043
-506.741	258.249	-0.044	-0.076
-505.726	313.377	-0.099	-0.185
-504.712	-200.000	0.021	-0.134
-503.697	-124.103	0.197	0.031
-502.683	800.000	-0.064	0.254
-501.668	800.000	-0.057	0.208
-500.653	30.075	0.172	-0.146
-499.639	85.256	-0.219	-0.239
-498.624	52.341	0.366	0.348
-497.610	-49.197	-0.228	0.108
-496.595	800.000	0.057	0.173
-495.581	452.122	-0.035	-0.076
-494.566	191.242	0.136	-0.203
-493.551	155.136	-0.347	-0.475
-492.537	-200.000	-0.002	0.093
-491.522	-82.117	-0.124	0.040
-490.508	-200.000	-0.045	-0.275
-489.493	385.904	-0.064	-0.130
-488.478	24.712	-0.127	0.105
-487.464	-200.000	0.004	0.171
-486.449	-48.216	0.193	0.093
-485.435	-84.573	-0.183	-0.057
-484.420	-200.000	0.011	0.158
-483.405	204.310	0.071	-0.110
-482.391	146.749	-0.096	-0.128
-481.376	4.389	-0.364	0.265
-480.362	-24.495	0.151	-0.090
-479.347	-200.000	0.006	-0.219
-478.332	-126.977	-0.112	0.016
-477.318	-81.609	0.365	-0.119
-476.303	698.624	0.080	-0.209
-475.289	-71.418	-0.138	-0.051
-474.274	-98.530	-0.294	0.075
-473.259	-96.288	-0.065	-0.017
-472.245	733.673	0.007	0.017
-471.230	-200.000	0.020	0.142
-470.216	-148.091	0.178	0.015
-469.201	339.618	0.145	-0.281
-468.186	-179.792	-0.183	-0.004
-467.172	162.556	0.037	0.052
-466.157	-113.262	-0.448	0.088
-465.143	105.603	0.036	0.042
-464.128	-136.269	-0.210	0.024
-463.113	-81.581	-0.129	-0.042
-462.099	-124.371	0.068	-0.011
-461.084	-21.915	0.069	-0.042
-460.070	741.441	0.089	0.236
-459.055	329.109	-0.093	-0.177
-458.040	-94.528	-0.276	0.075
-457.026	35.181	-0.374	0.325
-456.011	-200.000	0.042	-0.306
-454.997	83.364	0.158	0.171
-453.982	-200.000	-0.002	-0.041
-452.968	531.428	0.094	0.220
-451.953	733.977	-0.173	0.460
-450.938	247.299	-0.061	-0.103
-449.924	-109.906	-0.240	-0.050
-448.909	-154.217	-0.140	-0.009
-447.895	108.516	-0.066	-0.078
-446.880	-200.000	-0.016	-0.154
-445.865	-8.784	-0.213	-0.142
-444.851	-24.785	-0.166	0.098
-443.836	81.771	-0.192	-0.207
-442.822	-200.000	0.050	0.300
-441.807	3.342	0.164	0.119
-440.792	-200.000	-0.036	-0.279
-439.778	93.224	0.101	0.113
-438.763	108.451	-0.152	0.181
-437.749	800.000	-0.054	0.199
-436.734	-135.146	0.337	-0.040
-435.719	-67.958	0.278	0.108
-434.705	0.807	-0.236	-0.167
-433.690	-145.750	-0.239	0.021
-432.676	-106.850	-0.181	0.040
-431.661	-129.416	-0.321	0.044
-430.646	-156.760	0.213	0.013
-429.632	96.478	0.218	-0.248
-428.617	172.530	-0.081	-0.116
-427.603	-13.794	-0.247	-0.158
-426.588	-188.477	-0.165	0.002
-425.573	-200.000	-0.004	-0.125
-424.559	-70.913	-0.173	0.065
-423.544	-6.517	0.262	0.177
-422.530	3.751	-0.064	-0.046
-421.515	800.000	-0.071	-0.230
-420.500	-156.319	0.131	0.008
-419.486	-71.945	-0.188	-0.069
-418.471	-134.321	-0.133	-0.016
-417.457	26.529	-0.196	0.163
-416.442	523.476	0.029	-0.067
-415.428	27.069	0.117	0.098
-414.413	-103.541	-0.051	0.012
-413.398	-41.851	0.214	0.109
-412.384	8.386	-0.295	-0.220
-411.369	-10.050	0.440	0.290
-410.355	-200.000	-0.061	0.268
-409.340	47.356	-0.233	0.215
-408.325	-101.902	0.352	-0.084
-407.311	22.691	-0.179	0.146
-406.296	-111.840	-0.041	0.008
-405.282	-200.000	0.021	0.129
-404.267	61.293	-0.065	0.064
-403.252	-20.795	-0.098	0.059
-402.238	9.368	0.147	0.110
-401.223	800.000	-0.037	0.136
-400.209	-35.892	0.147	-0.079
-399.194	-193.767	0.130	-0.001
-398.179	-1.602	0.161	-0.112
-397.165	-168.067	-0.174	-0.007
-396.150	136.241	0.331	0.428
-395.136	-200.000	0.002	0.183
-394.121	34.911	0.272	-0.236
-393.106	-200.000	-0.018	-0.093
-392.092	495.382	0.128	-0.292
-391.077	-86.658	-0.223	-0.068
-390.063	1.627	-0.108	-0.077
-389.048	-200.000	-0.033	0.252
-388.033	1.598	0.281	-0.201
-387.019	800.000	0.079	0.232
-386.004	-160.589	-0.107	-0.006
-384.990	-84.376	0.246	0.077
-383.975	363.947	0.174	0.347
-382.960	404.550	-0.199	-0.416
-381.946	-69.720	-0.230	0.087
-380.931	296.297	-0.174	-0.315
-379.917	-34.835	0.250	-0.135
-378.902	-200.000	-0.017	-0.318
-377.888	-139.948	0.333	0.035
-376.873	-13.056	-0.083	0.053
-375.858	175.151	-0.097	-0.139
-374.844	-169.156	-0.160	0.006
-373.829	59.412	0.167	0.163
-372.815	-91.799	0.143	0.040
-371.800	-200.000	-0.091	-0.444
-370.785	149.750	-0.231	0.310
-369.771	137.535	-0.137	-0.178
-368.756	60.744	-0.060	-0.059
-367.742	193.094	-0.024	0.036
-366.727	-200.000	0.002	-0.023
-365.712	-200.000	-0.032	0.201
-364.698	75.559	0.046	-0.048
-363.683	-90.442	-0.381	-0.109
-362.669	135.728	0.117	0.150
-361.654	-32.806	-0.029	0.016
-360.639	5.071	-0.202	-0.147
-359.625	-200.000	0.332	-0.000
-358.610	-200.000	-0.000	-0.095
-357.596	-132.100	0.169	-0.022
-356.581	-200.000	-0.019	0.195
-355.566	257.134	-0.050	0.086
-354.552	-92.889	0.410	0.113
-353.537	800.000	0.077	-0.246
-352.523	716.590	0.105	-0.277
-351.508	800.000	0.077	-0.230
-350.493	7.507	0.108	0.080
-349.479	800.000	-0.115	-0.348
-348.464	-23.081	-0.367	0.219
-347.450	26.744	-0.164	0.136
-346.435	-200.000	-0.045	0.259
-345.420	-54.661	-0.256	-0.115
-344.406	-163.437	-0.286	0.013
-343.391	-152.974	0.145	-0.010
-342.377	-200.000	-0.005	-0.252
-341.362	800.000	-0.028	0.101
-340.348	112.595	0.176	-0.211
-339.333	-179.962	0.128	-0.003
-338.318	800.000	0.091	0.317
-337.304	-5.331	-0.140	-0.095
-336.289	6.292	-0.117	0.086
-335.275	310.542	-0.028	-0.052
-334.260	137.710	-0.146	-0.189
-333.245	-64.306	0.320	0.129
-332.231	-134.527	-0.407	0.049
-331.216	109.592	0.112	0.133
-330.202	22.520	-0.263	-0.213
-329.187	585.811	0.101	0.245
-328.172	125.508	0.158	-0.197
-327.158	-68.624	0.231	-0.088
-326.143	-59.146	-0.399	-0.170
-325.129	-200.000	-0.022	-0.332
-324.114	-47.778	0.211	-0.101
-323.099	13.534	-0.346	0.266
-322.085	800.000	0.059	0.165
-321.070	12.780	0.075	0.058
-320.056	24.518	0.161	-0.132
-319.041	-34.579	0.178	-0.096
-318.026	3.372	0.242	0.174
-317.012	-48.495	0.250	0.119
-315.997	227.726	-0.024	-0.039
-314.983	-89.453	0.078	-0.023
-313.968	-29.791	0.328	0.185
-312.953	-15.428	-0.339	-0.214
-311.939	-161.681	-0.078	0.004
-310.924	344.520	-0.073	-0.142
-309.910	298.965	0.086	0.156
-308.895	513.024	-0.075	0.172
-307.880	-200.000	0.037	0.224
-306.866	-146.392	-0.273	-0.024
-305.851	84.204	-0.146	-0.158
-304.837	-63.337	-0.168	0.068
-303.822	-200.000	-0.031	0.201
-302.807	-89.341	-0.453	-0.132
-301.793	-200.000	0.007	-0.221
-300.778	-71.712	0.168	0.062
-299.764	-200.000	-0.063	-0.369
-298.749	431.373	-0.029	0.062
-297.735	-200.000	0.022	0.109
-296.720	288.192	-0.045	0.081
-295.705	-6.300	0.142	-0.096
-294.691	-200.000	-0.018	0.257
-293.676	73.553	-0.195	0.202
-292.662	-25.103	0.231	0.135
-291.647	-93.469	-0.254	-0.069
-290.632	-200.000	0.009	0.153
-289.618	-72.324	0.240	0.088
-288.603	-157.028	0.126	-0.008
-287.589	30.764	-0.078	-0.066
-286.574	-169.328	0.350	0.013
-285.559	-200.000	-0.014	0.125
-284.545	104.649	-0.274	0.318
-283.530	-73.185	0.257	0.093
-282.516	-81.576	0.322	0.104
-281.501	-200.000	0.036	0.248
-280.486	-49.572	0.230	0.108
-279.472	282.579	-0.101	0.180
-278.457	-200.000	-0.021	0.144
-277.443	800.000	0.132	-0.393
-276.428	-36.856	-0.291	0.154
-275.413	-84.338	0.424	0.132
-274.399	18.143	0.153	-0.120
-273.384	-38.194	-0.212	-0.111
-272.370	443.367	-0.125	-0.270
-271.355	-176.967	-0.165	0.004
-270.340	800.000	0.071	-0.216
-269.326	800.000	-0.059	0.209
-268.311	-200.000	-0.028	-0.167
-267.297	-200.000	-0.015	0.280
-266.282	-138.047	0.283	0.031
-265.267	-40.032	-0.192	-0.099
-264.253	364.432	-0.148	0.293
-263.238	-75.532	0.124	-0.044
-262.224	269.638	-0.050	-0.087
-261.209	-200.000	0.016	-0.170
-260.195	-96.746	-0.102	-0.026
-259.180	6.377	-0.041	0.030
-258.165	174.289	-0.034	-0.048
-257.151	800.000	-0.050	-0.181
-256.136	-4.420	-0.203	-0.138
-255.122	16.382	-0.234	0.182
-254.107	800.000	0.028	0.093
-253.092	2.479	-0.061	-0.044
-252.078	-89.275	0.500	0.145
-251.063	-200.000	0.005	0.251
-250.049	18.758	-0.032	-0.025
-249.034	-73.693	0.106	0.038
-248.019	5.987	-0.245	0.179
-247.005	34.567	0.284	-0.244
-245.990	-21.500	0.203	0.122
-244.976	-200.000	-0.054	-0.425
-243.961	-200.000	0.029	-0.437
-242.946	320.493	-0.118	-0.221
-241.932	540.020	-0.086	0.201
-240.917	-200.000	-0.000	-0.102
-239.903	46.731	-0.234	-0.214
-238.888	736.468	-0.033	0.088
-237.873	800.000	0.019	0.072
-236.859	730.835	-0.054	-0.142
-235.844	-132.495	0.106	-0.013
-234.830	373.014	-0.115	0.230
-233.815	35.955	0.087	-0.076
-232.800	-78.031	-0.250	-0.085
-231.786	-146.698	0.340	0.029
-230.771	-48.022	0.229	-0.109
-229.757	-200.000	-0.013	0.193
-228.742	-117.807	-0.092	0.016
-227.727	17.469	0.153	0.119
-226.713	173.866	-0.216	0.307
-225.698	-123.054	-0.125	-0.020
-224.684	329.971	0.100	-0.190
-223.669	11.872	0.179	-0.135
-222.655	-18.980	-0.171	-0.105
-221.640	-59.898	-0.228	-0.096
-220.625	242.886	-0.053	-0.088
-219.611	-200.000	0.004	-0.070
-218.596	-200.000	-0.020	-0.211
-217.582	800.000	-0.066	-0.205
-216.567	212.402	0.041	0.063
-215.552	38.592	0.170	0.149
-214.538	-27.597	0.151	0.086
-213.523	-157.979	0.485	0.028
-212.509	-36.683	-0.214	0.113
-211.494	628.291	0.082	0.203
-210.479	364.969	0.048	-0.096
-209.465	-23.618	-0.132	-0.078
-208.450	-200.000	0.018	-0.084
-207.436	-195.302	-0.137	0.001
-206.421	-171.936	0.284	-0.009
-205.406	268.681	0.118	-0.204
-204.392	-200.000	0.099	-0.443
-203.377	-18.336	0.037	0.023
-202.363	7.783	0.234	0.172
-201.348	800.000	-0.025	-0.083
-200.333	17.471	0.216	0.169
-199.319	5.746	-0.067	0.048
-198.304	-171.912	0.048	-0.002
-197.290	800.000	0.059	0.225
-196.275	-82.520	0.258	-0.082
-195.260	-140.002	-0.128	-0.013
-194.246	-63.501	-0.406	-0.164
-193.231	-169.492	0.290	-0.010
-192.217	800.000	0.071	-0.291
-191.202	-8.734	0.113	-0.075
-190.187	-200.000	-0.006	-0.065
-189.173	-200.000	0.029	0.240
-188.158	108.315	0.243	0.285
-187.144	371.123	-0.096	0.192
-186.129	485.915	-0.142	0.318
-185.114	408.250	0.112	0.233
-184.100	-107.014	0.159	-0.034
-183.085	-200.000	-0.066	0.289
-182.071	234.722	-0.130	0.211
-181.056	757.031	-0.033	-0.088
-180.042	-200.000	0.053	-0.370
-179.027	-90.348	0.244	-0.070
-178.012	-119.470	-0.204	0.035
-176.998	-69.131	0.229	0.087
-175.983	228.280	-0.068	0.109
-174.969	-94.328	0.265	0.071
-173.954	-5.471	-0.153	0.103
-172.939	53.504	0.092	-0.087
-171.925	-200.000	-0.014	0.131
-170.910	583.916	0.044	-0.106
-169.896	-106.706	0.359	-0.078
-168.881	273.324	0.110	0.191
-167.866	187.874	-0.174	-0.255
-166.852	-200.000	-0.020	0.160
-165.837	-177.276	0.053	0.001
-164.823	72.339	-0.251	-0.257
-163.808	38.758	0.032	-0.028
-162.793	-200.000	-0.022	0.115
-161.779	-73.964	-0.230	0.082
-160.764	-200.000	-0.024	-0.212
-159.750	-169.928	0.184	0.006
-158.735	-200.000	-0.002	-0.016
-157.720	800.000	0.096	-0.312
-156.706	-200.000	-0.038	-0.219
-155.691	214.484	-0.032	0.050
-154.677	-33.657	-0.325	0.176
-153.662	181.863	0.098	0.141
-152.647	800.000	0.055	-0.211
-151.633	-87.824	-0.314	-0.093
-150.618	800.000	0.065	0.201
-149.604	800.000	0.031	0.120
-148.589	-116.128	0.533	0.097
-147.574	-47.722	0.275	0.131
-146.560	38.927	0.315	-0.276
-145.545	146.178	0.347	0.457
-144.531	800.000	0.050	0.202
-143.516	-139.684	-0.303	-0.032
-142.502	44.876	-0.200	0.181
-141.487	-91.483	0.045	-0.013
-140.472	491.889	-0.014	0.031
-139.458	800.000	0.106	-0.305
-138.443	707.698	-0.064	-0.165
-137.429	18.459	0.172	0.135
-136.414	34.044	0.172	-0.147
-135.399	-57.381	0.317	0.137
-134.385	-200.000	-0.011	0.100
-133.370	45.409	-0.173	-0.157
-132.356	-79.342	-0.245	-0.081
-131.341	449.461	-0.210	-0.455
-130.326	68.878	-0.040	-0.040
-129.312	800.000	-0.039	-0.111
-128.297	747.415	0.152	0.403
-127.283	-118.526	-0.050	0.009
-126.268	-60.705	-0.318	0.132
-125.253	563.466	0.039	-0.092
-124.239	-75.661	-0.237	0.083
-123.224	-85.834	-0.149	-0.045
-122.210	-104.919	-0.140	-0.031
-121.195	59.566	0.142	0.138
-120.180	-33.822	0.411	0.222
-119.166	156.121	-0.041	-0.056
-118.151	154.577	0.145	-0.195
-117.137	633.135	-0.071	-0.175
-116.122	599.359	-0.061	-0.149
-115.107	397.663	-0.011	-0.023
-114.093	166.711	-0.225	-0.313
-113.078	-121.951	-0.093	0.015
-112.064	745.511	0.139	0.366
-111.049	-27.202	0.124	-0.071
-110.034	800.000	-0.129	-0.539
-109.020	-139.070	0.205	0.022
-108.005	-63.511	-0.214	0.086
-106.991	159.304	-0.255	-0.348
-105.976	402.657	0.082	-0.169
-104.962	-76.826	-0.109	0.037
-103.947	208.373	-0.126	-0.193
-102.932	-35.454	-0.134	0.071
-101.918	800.000	0.091	-0.246
-100.903	-64.205	0.241	-0.096
-99.889	-28.829	0.224	0.126
-98.874	43.728	-0.051	0.045
-97.859	739.122	0.112	-0.294
-96.845	299.532	-0.154	-0.278
-95.830	-200.000	0.055	0.389
-94.816	174.440	-0.107	-0.152
-93.801	-53.764	0.265	-0.119
-92.786	-115.355	0.116	0.021
-91.772	718.693	-0.037	0.097
-90.757	800.000	0.019	0.077
-89.743	-22.395	-0.094	-0.056
-88.728	-13.534	0.042	0.027
-87.713	147.821	-0.406	0.536
-86.699	-200.000	0.048	-0.314
-85.684	41.400	0.165	0.146
-84.670	-71.967	-0.202	0.074
-83.655	-78.208	0.519	-0.175
-82.640	-128.968	-0.460	0.063
-81.626	-32.517	-0.198	-0.108
-80.611	800.000	0.057	-0.200
-79.597	21.799	-0.187	-0.149
-78.582	-36.346	0.262	0.138
-77.567	-200.000	0.015	0.234
-76.553	15.353	0.047	-0.036
-75.538	198.518	0.072	-0.108
-74.524	-18.200	0.227	0.139
-73.509	61.834	0.226	0.221
-72.494	670.774	-0.120	0.304
-71.480	133.696	0.147	-0.186
-70.465	-200.000	-0.018	-0.145
-69.451	645.468	0.082	0.204
-68.436	800.000	0.076	-0.315
-67.422	198.483	0.110	0.165
-66.407	-111.809	0.260	0.051
-65.392	-64.223	-0.006	-0.003
-64.378	-136.376	0.176	-0.020
-63.363	-200.000	-0.013	0.087
-62.349	-145.251	-0.182	0.016
-61.334	59.111	-0.970	-0.934
-60.319	-13.150	0.730	0.464
-59.305	745.190	-0.405	-1.067
-58.290	310.689	0.710	1.301
-57.276	444.743	0.794	1.705
-56.261	-200.000	113.463	667.254
-55.246	563.171	1510.422	3576.687
-54.232	179.058	2687.379	3844.275
-53.217	107.400	2283.618	2656.775
-52.203	37.750	1891.695	1643.227
-51.188	31.470	1680.959	1412.855
-50.173	28.850	1638.492	1357.780
-49.159	51.507	1694.976	1575.186
-48.144	50.232	1708.391	1578.048
-47.130	31.028	1665.962	1396.713
-46.115	28.206	1651.387	1363.453
-45.100	28.057	1646.427	1358.194
-44.086	28.012	1643.908	1355.734
-43.071	27.936	1641.167	1352.855
-42.057	27.974	1638.855	1351.173
-41.042	27.920	1637.032	1349.220
-40.027	27.972	1635.395	1348.199
-39.013	27.950	1633.328	1346.283
-37.998	28.000	1631.505	1345.095
-36.984	27.978	1630.362	1343.935
-35.969	28.082	1629.043	1343.556
-34.954	28.128	1627.155	1342.284
-33.940	28.090	1625.870	1340.893
-32.925	28.134	1623.530	1339.235
-31.911	28.045	1621.881	1337.167
-30.896	28.047	1620.586	1336.066
-29.881	28.109	1618.646	1334.863
-28.867	28.010	1617.615	1333.236
-27.852	28.024	1615.502	1331.544
-26.838	28.091	1613.940	1330.697
-25.823	28.079	1612.623	1329.470
-24.809	28.186	1611.200	1329.020
-23.794	28.135	1610.207	1327.778
-22.779	28.145	1608.790	1326.631
-21.765	28.052	1607.170	1324.563
-20.750	28.124	1605.566	1323.714
-19.736	28.230	1604.095	1323.216
-18.721	28.187	1602.775	1321.761
-17.706	28.093	1601.960	1320.361
-16.692	28.193	1599.812	1319.254
-15.677	28.267	1598.338	1318.523
-14.663	28.219	1597.045	1317.060
-13.648	28.192	1595.781	1315.770
-12.633	28.218	1594.343	1314.720
-11.619	28.147	1592.952	1313.008
-10.604	28.221	1591.457	1312.255
-9.590	28.292	1589.802	1311.344
-8.575	28.178	1589.030	1309.844
-7.560	28.179	1588.201	1309.115
-6.546	28.237	1586.853	1308.362
-5.531	28.241	1585.629	1307.336
-4.517	28.204	1584.423	1306.020
-3.502	28.170	1583.360	1304.854
-2.487	28.324	1581.443	1304.314
-1.473	27.928	1569.782	1291.847
-0.458	24.897	1550.668	1254.855
0.556	22.310	1551.955	1223.776
1.571	19.856	1575.929	1225.208
2.586	19.340	1588.648	1231.307
3.600	17.079	1534.016	1173.246
4.615	9.956	1427.520	1045.735
5.629	4.122	1367.922	965.708
6.644	3.271	1360.193	954.890
7.659	3.213	1359.199	953.745
8.673	3.253	1357.937	953.024
9.688	3.344	1356.114	952.224
10.702	3.134	1353.652	949.115
11.717	5.822	1358.277	968.896
12.731	13.392	1371.990	1025.679
13.746	19.437	1382.225	1070.874
14.761	20.578	1382.907	1078.385
15.775	19.971	1381.026	1073.067
16.790	18.997	1377.765	1064.409
17.804	18.186	1375.877	1057.846
18.819	17.895	1374.286	1054.730
19.834	17.735	1373.537	1053.074
20.848	17.557	1372.372	1050.991
21.863	17.328	1371.393	1048.736
22.877	17.108	1370.267	1046.428
23.892	17.141	1369.105	1045.650
24.907	17.115	1368.364	1044.829
25.921	17.131	1367.819	1044.419
26.936	17.097	1366.901	1043.418
27.950	17.277	1365.525	1043.381
28.965	17.366	1365.092	1043.505
29.980	17.437	1363.802	1042.857
30.994	17.526	1362.437	1042.271
32.009	17.539	1361.465	1041.511
33.023	17.537	1360.067	1040.341
34.038	17.444	1359.044	1038.897
35.053	17.386	1357.531	1037.295
36.067	17.300	1356.596	1035.966
37.082	17.337	1355.459	1035.229
38.096	17.406	1354.544	1034.859
39.111	17.519	1353.836	1034.911
40.126	17.433	1352.838	1033.537
41.140	17.216	1351.765	1031.306
42.155	17.015	1351.295	1029.640
43.169	16.985	1351.357	1029.415
44.184	16.951	1351.204	1028.997
45.199	17.010	1349.891	1028.265
46.213	17.145	1349.609	1028.780
47.228	17.262	1349.182	1029.069
48.242	17.301	1347.725	1028.103
49.257	17.193	1346.761	1026.624
50.271	17.218	1345.185	1025.485
51.286	17.316	1343.551	1024.738
52.301	17.245	1342.620	1023.507
53.315	17.134	1341.664	1022.020
54.330	17.136	1339.976	1020.656
55.344	16.977	1338.857	1018.758
56.359	16.992	1337.922	1018.048
57.374	16.922	1337.313	1017.072
58.388	16.898	1336.686	1016.362
59.403	16.814	1336.240	1015.434
60.417	16.974	1334.964	1015.329
61.432	16.870	1334.191	1014.032
62.447	16.793	1333.306	1012.809
63.461	16.812	1331.638	1011.567
64.476	16.773	1330.615	1010.466
65.490	16.687	1329.511	1009.022
66.505	16.815	1327.817	1008.412
67.520	16.773	1326.626	1007.167
68.534	16.820	1325.141	1006.228
69.549	16.783	1324.685	1005.575
70.563	16.852	1323.463	1004.971
71.578	16.654	1322.726	1003.146
72.593	16.636	1321.322	1001.884
73.607	16.605	1320.600	1001.065
74.622	16.610	1319.999	1000.550
75.636	16.709	1319.481	1000.658
76.651	16.690	1319.017	1000.106
77.666	16.728	1318.527	999.867
78.680	16.657	1318.291	999.183
79.695	16.889	1316.881	999.390
80.709	16.919	1316.425	999.136
81.724	17.050	1315.554	999.153
82.739	17.108	1314.865	998.886
83.753	17.131	1314.259	998.469
84.768	17.380	1312.926	998.834
85.782	17.342	1312.243	998.000
86.797	17.469	1310.882	997.622
87.812	17.267	1309.959	995.650
88.826	17.308	1308.632	994.793
89.841	17.315	1307.361	993.783
90.855	17.384	1306.499	993.440
91.870	17.394	1305.865	992.926
92.884	17.387	1305.117	992.228
93.899	17.501	1304.347	992.222
94.914	17.577	1303.253	991.742
95.928	17.574	1302.332	990.936
96.943	17.532	1301.568	990.026
97.957	17.401	1300.680	988.501
98.972	17.449	1299.335	987.672
99.987	17.473	1298.581	987.146
101.001	17.449	1297.492	986.091
102.016	17.432	1296.775	985.362
103.030	17.554	1295.733	985.192
104.045	17.318	1295.107	983.262
105.060	17.300	1293.489	981.843
106.074	17.045	1292.316	979.393
107.089	16.886	1290.723	977.183
108.103	16.809	1289.098	975.425
109.118	16.963	1287.581	975.078
110.133	16.901	1286.893	974.112
111.147	16.814	1285.709	972.633
112.162	16.852	1284.322	971.711
113.176	16.875	1283.434	971.088
114.191	16.975	1282.594	970.935
115.206	17.039	1281.184	970.150
116.220	16.984	1280.162	968.975
117.235	17.044	1278.928	968.301
118.249	16.922	1278.178	966.953
119.264	16.887	1276.764	965.595
120.279	16.888	1275.906	964.864
121.293	16.801	1274.662	963.344
122.308	16.801	1273.344	962.267
123.322	16.635	1272.768	960.804
124.337	16.669	1271.795	960.175
125.352	16.687	1270.821	959.457
126.366	16.673	1269.568	958.348
127.381	16.670	1268.565	957.487
128.395	16.686	1267.342	956.573
129.410	16.760	1266.683	956.408
130.424	16.780	1266.195	956.066
131.439	16.929	1264.786	955.757
132.454	16.967	1263.673	955.045
133.468	17.001	1263.112	954.727
134.483	17.031	1262.289	954.189
135.497	16.979	1261.530	953.240
136.512	16.993	1260.601	952.532
137.527	17.043	1258.847	951.401
138.541	16.939	1257.965	950.069
139.556	17.209	1256.301	950.240
140.570	17.164	1255.777	949.510
141.585	17.225	1254.112	948.506
142.600	17.191	1253.603	947.847
143.614	17.331	1252.749	947.900
144.629	17.329	1251.676	946.991
145.643	17.366	1250.504	946.227
146.658	17.287	1249.084	944.630
147.673	17.138	1247.931	942.846
148.687	17.086	1246.227	941.189
149.702	17.061	1245.565	940.467
150.716	17.046	1244.034	939.144
151.731	17.091	1242.354	938.040
152.746	17.058	1241.423	937.074
153.760	17.148	1240.194	936.556
154.775	17.195	1239.472	936.186
155.789	17.226	1238.334	935.415
156.804	17.261	1237.272	934.728
157.819	17.332	1236.360	934.344
158.833	17.418	1235.368	933.985
159.848	17.568	1234.509	934.071
160.862	17.304	1234.011	932.169
161.877	17.228	1232.486	930.515
162.892	17.094	1230.894	928.498
163.906	17.156	1230.197	928.231
164.921	17.104	1229.422	927.279
165.935	17.293	1228.324	927.403
166.950	17.229	1227.972	926.703
167.964	17.290	1226.924	926.161
168.979	17.310	1226.788	926.088
169.994	17.160	1225.891	924.512
171.008	17.216	1224.992	924.058
172.023	17.447	1224.437	924.809
173.037	17.510	1223.255	924.179
174.052	17.482	1222.224	923.168
175.067	17.231	1221.391	921.097
176.081	17.055	1220.804	919.617
177.096	17.211	1219.274	919.228
178.110	17.204	1218.164	918.269
179.125	17.287	1216.995	917.755
180.140	17.286	1216.074	916.974
181.154	17.285	1214.817	915.941
182.169	17.462	1213.746	916.005
183.183	17.584	1212.314	915.499
184.198	17.602	1211.237	914.701
185.213	17.505	1210.332	913.420
186.227	17.627	1209.355	913.254
187.242	17.647	1208.584	912.698
188.256	17.694	1207.692	912.197
189.271	17.649	1206.780	911.184
190.286	17.414	1205.489	908.873
191.300	17.315	1204.016	907.156
192.315	17.091	1203.545	905.527
193.329	17.227	1202.679	905.518
194.344	17.276	1202.536	905.590
195.359	17.441	1201.789	905.829
196.373	17.375	1201.467	905.154
197.388	17.527	1201.107	905.612
198.402	17.707	1200.601	906.107
199.417	17.858	1199.915	906.310
200.432	17.915	1199.242	906.022
201.446	17.969	1198.428	905.616
202.461	18.060	1197.694	905.460
203.475	18.058	1196.286	904.308
204.490	17.867	1195.237	902.424
205.504	17.724	1194.069	900.706
206.519	17.640	1192.588	899.068
207.534	17.596	1191.915	898.247
208.548	17.703	1190.485	897.652
209.563	17.675	1189.862	896.957
210.577	17.609	1189.075	895.936
211.592	17.728	1188.199	895.827
212.607	18.029	1187.568	896.848
213.621	17.885	1186.863	895.482
214.636	17.877	1185.796	894.557
215.650	17.837	1185.206	893.825
216.665	18.019	1183.815	893.644
217.680	18.140	1183.755	894.157
218.694	18.073	1182.735	892.952
219.709	18.079	1181.783	892.189
220.723	18.001	1180.726	890.904
221.738	17.947	1180.466	890.347
222.753	17.950	1179.225	889.350
223.767	18.037	1178.949	889.514
224.782	18.270	1178.125	890.029
225.796	18.284	1177.390	889.464
226.811	18.272	1176.903	888.956
227.826	18.190	1175.843	887.651
228.840	17.966	1175.573	886.207
229.855	18.065	1174.526	885.853
230.869	18.046	1173.936	885.228
231.884	17.991	1172.657	883.902
232.899	18.018	1171.705	883.245
233.913	17.912	1171.351	882.356
234.928	17.864	1170.505	881.389
235.942	17.828	1169.666	880.497
236.957	17.828	1168.744	879.725
237.972	17.931	1168.489	879.984
238.986	17.845	1167.762	878.917
240.001	17.954	1166.858	878.720
241.015	17.970	1166.083	878.141
242.030	18.093	1165.260	878.076
243.045	18.073	1164.873	877.605
244.059	18.157	1163.600	876.997
245.074	18.148	1163.178	876.556
246.088	18.173	1162.480	876.079
247.103	18.336	1161.368	875.996
248.117	18.395	1161.340	876.200
249.132	18.568	1160.310	876.232
250.147	18.578	1160.186	876.109
251.161	18.643	1159.336	875.725
252.176	18.725	1158.534	875.460
253.190	18.810	1157.799	875.257
254.205	18.856	1157.738	875.368
255.220	18.798	1156.946	874.396
256.234	18.914	1155.933	874.141
257.249	18.852	1155.697	873.574
258.263	18.759	1154.671	872.248
259.278	18.814	1154.027	871.965
260.293	18.820	1153.736	871.695
261.307	18.896	1153.121	871.540
262.322	18.990	1152.309	871.323
263.336	19.003	1151.792	870.922
264.351	19.033	1150.854	870.287
265.366	19.013	1150.056	869.507
266.380	18.946	1149.827	868.919
267.395	19.030	1148.484	868.248
268.409	18.770	1148.050	866.535
269.424	18.841	1147.430	866.348
270.439	18.872	1146.922	866.044
271.453	18.855	1146.068	865.237
272.468	18.689	1144.975	863.497
273.482	18.711	1144.443	863.130
274.497	18.733	1143.771	862.658
275.512	18.801	1142.780	862.178
276.526	18.906	1142.351	862.306
277.541	18.808	1141.376	860.998
278.555	18.933	1140.722	861.058
279.570	18.918	1140.550	860.777
280.585	19.108	1139.488	860.848
281.599	19.127	1138.596	860.196
282.614	18.836	1137.948	858.177
283.628	18.867	1136.770	857.363
284.643	18.865	1135.817	856.563
285.657	18.932	1134.657	855.942
286.672	18.997	1133.466	855.291
287.687	19.047	1132.676	854.868
288.701	18.977	1132.206	854.092
289.716	19.081	1131.424	853.940
290.730	18.946	1130.717	852.664
291.745	19.057	1129.549	852.257
292.760	19.124	1129.291	852.321
293.774	19.126	1129.246	852.220
294.789	19.272	1128.447	852.262
295.803	19.265	1127.536	851.465
296.818	19.173	1126.626	850.246
297.833	19.045	1126.294	849.292
298.847	19.084	1125.387	848.723
299.862	19.109	1124.530	848.127
300.876	19.153	1123.837	847.743
301.891	19.104	1123.316	847.035
302.906	19.234	1122.723	847.153
303.920	19.340	1122.636	847.530
304.935	19.455	1121.516	847.176
305.949	19.588	1120.910	847.298
306.964	19.551	1119.935	846.302
307.979	19.479	1119.272	845.376
308.993	19.401	1118.429	844.282
310.008	19.421	1117.747	843.790
311.022	19.497	1116.964	843.494
312.037	19.505	1115.617	842.443
313.052	19.384	1115.031	841.333
314.066	19.288	1114.084	840.077
315.081	19.141	1113.164	838.593
316.095	19.260	1112.216	838.387
317.110	19.323	1111.736	838.258
318.125	19.166	1111.245	837.047
319.139	19.210	1110.092	836.321
320.154	19.150	1109.546	835.543
321.168	19.190	1108.760	835.073
322.183	19.100	1108.835	834.618
323.197	19.208	1107.943	834.397
324.212	19.287	1107.224	834.162
325.227	19.347	1106.902	834.138
326.241	19.373	1106.173	833.639
327.256	19.465	1104.791	832.969
328.270	19.433	1103.948	832.103
329.285	19.289	1103.523	831.016
330.300	19.317	1102.492	830.300
331.314	19.406	1101.297	829.758
332.329	19.387	1100.753	829.182
333.343	19.411	1099.742	828.459
334.358	19.552	1099.340	828.763
335.373	19.519	1098.799	828.123
336.387	19.555	1098.191	827.762
337.402	19.535	1097.484	827.062
338.416	19.676	1096.822	827.164
339.431	19.639	1096.313	826.531
340.446	19.843	1095.447	826.777
341.460	19.903	1095.164	826.780
342.475	20.054	1094.240	826.729
343.489	20.106	1093.051	826.006
344.504	19.874	1092.714	824.574
345.519	19.992	1091.671	824.276
346.533	20.168	1090.640	824.261
347.548	20.054	1090.415	823.477
348.562	20.056	1089.497	822.717
349.577	19.932	1088.404	821.231
350.592	19.793	1087.405	819.745
351.606	19.706	1086.811	818.816
352.621	19.584	1086.156	817.672
353.635	19.683	1084.964	817.170
354.650	19.655	1084.672	816.743
355.665	19.667	1083.978	816.204
356.679	19.744	1083.358	816.030
357.694	19.993	1082.546	816.519
358.708	19.838	1082.118	815.395
359.723	19.899	1081.600	815.218
360.738	19.951	1080.905	814.869
361.752	19.829	1080.867	814.195
362.767	19.997	1079.875	814.165
363.781	19.944	1079.493	813.557
364.796	20.063	1078.888	813.585
365.810	20.280	1077.854	813.753
366.825	20.281	1078.037	813.823
367.840	20.300	1077.778	813.644
368.854	20.478	1076.867	813.720
369.869	20.478	1076.370	813.270
370.883	20.368	1074.920	811.587
371.898	20.283	1074.068	810.478
372.913	20.261	1073.677	810.005
373.927	20.244	1073.475	809.705
374.942	20.446	1072.815	810.078
375.956	20.430	1072.148	809.428
376.971	20.301	1071.592	808.333
377.986	20.413	1071.119	808.427
379.000	20.425	1071.032	808.347
380.015	20.485	1070.332	808.025
381.029	20.750	1069.229	808.353
382.044	20.478	1068.789	806.686
383.059	20.567	1067.942	806.390
384.073	20.582	1067.037	805.705
385.088	20.611	1066.297	805.206
386.102	20.675	1064.888	804.365
387.117	20.430	1064.265	802.692
388.132	20.369	1062.965	801.362
389.146	20.332	1062.564	800.816
390.161	20.318	1061.914	800.193
391.175	20.332	1060.790	799.337
392.190	20.479	1060.422	799.668
393.205	20.566	1059.997	799.678
394.219	20.487	1059.254	798.681
395.234	20.494	1057.812	797.555
396.248	20.423	1056.774	796.378
397.263	20.434	1055.995	795.771
398.278	20.324	1055.412	794.755
399.292	20.381	1054.173	794.013
400.307	20.160	1053.613	792.511
401.321	20.268	1053.245	792.656
402.336	20.304	1052.759	792.387
403.350	20.388	1051.730	791.923
404.365	20.404	1050.855	791.269
405.380	20.440	1050.480	791.081
406.394	20.510	1049.683	790.730
407.409	20.642	1048.862	790.639
408.423	20.677	1048.542	790.487
409.438	20.809	1047.780	790.444
410.453	20.785	1047.057	789.720
411.467	20.832	1046.754	789.634
412.482	20.979	1045.826	789.531
413.496	20.988	1045.479	789.237
414.511	20.957	1045.061	788.713
415.526	21.026	1044.527	788.554
416.540	21.126	1043.780	788.369
417.555	21.241	1043.359	788.502
418.569	21.078	1042.918	787.364
419.584	20.923	1042.265	786.103
420.599	21.044	1041.707	786.156
421.613	155.518	1403.042	1797.176
422.628	142.350	1455.666	1797.261
