DTS Sentinel unit serial number:	SN413079Multiplexer serial number:	ORYXHardware model number:	OX4-SRSoftware version number:	ORYX F/W v4.00 Oryx Data Collector v3.7.2.0data status	okinstallation	princeton_trtdifferential loss correction	single-endedforward channel	channel 2reverse channel	N/Adate	2019/09/16time	08:39:35forward acquisition time	60.00reverse acquisition time	0.00gamma	496.2192k internal	0.2326k external	0.2326temperature offset calibration	0.9977default loss term (dB/km)	0.3790temperature slope calibration	1.0000multiplexer offset coefficient	1.0000multiplexer slope coefficient	1.0000fibre end	0.00T internal ref (°C)	29.59T ext. ref 1 (°C)	11.94T ext. ref 2 (°C)	26.43length (m)	temperature (°C)	Stokes	anti-Stokes-747.200	234.170	-0.165	-0.274
-746.185	58.128	0.126	0.125
-745.171	242.346	0.202	0.341
-744.156	636.857	0.090	0.230
-743.142	-99.340	-0.077	-0.020
-742.127	20.127	0.018	0.015
-741.112	-87.740	-0.220	-0.067
-740.098	14.477	-0.175	0.138
-739.083	-66.876	0.160	0.064
-738.069	53.224	-0.192	0.185
-737.054	-110.793	0.278	-0.058
-736.039	-42.919	0.126	0.065
-735.025	-66.012	0.132	0.053
-734.010	-70.155	-0.476	0.182
-732.996	-80.585	-0.116	0.039
-731.981	-200.000	-0.004	0.142
-730.966	-53.400	0.290	0.134
-729.952	29.450	-0.161	-0.138
-728.937	205.888	-0.075	-0.117
-727.923	-126.036	-0.295	-0.045
-726.908	517.299	-0.059	0.139
-725.894	-200.000	-0.033	-0.336
-724.879	1.742	0.274	0.199
-723.864	84.499	0.160	0.177
-722.850	-66.368	-0.344	-0.138
-721.835	800.000	-0.084	-0.238
-720.821	-102.668	-0.184	0.044
-719.806	-200.000	-0.020	0.151
-718.791	-21.657	-0.094	-0.058
-717.777	-148.943	0.174	0.014
-716.762	360.342	0.141	-0.284
-715.748	278.005	-0.020	-0.037
-714.733	65.195	-0.170	0.173
-713.718	-200.000	-0.009	-0.352
-712.704	-179.330	0.157	-0.004
-711.689	-32.353	-0.288	-0.162
-710.675	475.430	-0.116	-0.264
-709.660	103.256	0.080	-0.094
-708.645	9.367	-0.325	0.248
-707.631	-200.000	0.055	-0.339
-706.616	-142.388	-0.356	0.035
-705.602	-167.132	0.284	0.012
-704.587	-131.300	0.135	-0.018
-703.572	-23.008	-0.194	0.118
-702.558	37.294	0.369	-0.329
-701.543	14.015	-0.107	-0.084
-700.529	10.615	-0.121	-0.093
-699.514	247.392	-0.133	-0.227
-698.499	-94.038	-0.196	0.054
-697.485	516.267	-0.056	-0.131
-696.470	61.698	-0.155	-0.155
-695.456	186.823	-0.277	-0.415
-694.441	-18.148	-0.196	-0.123
-693.426	-75.023	-0.369	0.133
-692.412	382.263	0.148	-0.305
-691.397	164.781	0.104	-0.147
-690.383	133.745	-0.147	-0.192
-689.368	78.407	0.203	-0.218
-688.354	-123.992	0.329	0.052
-687.339	183.493	-0.285	0.424
-686.324	24.076	-0.184	0.153
-685.310	13.015	-0.037	0.029
-684.295	30.981	-0.169	0.146
-683.281	212.757	0.187	-0.298
-682.266	-200.000	-0.040	-0.239
-681.251	800.000	0.073	0.276
-680.237	-26.591	-0.226	-0.133
-679.222	-83.049	0.207	-0.067
-678.208	-200.000	0.017	-0.206
-677.193	61.629	-0.031	-0.031
-676.178	-86.634	-0.254	-0.078
-675.164	800.000	-0.095	-0.308
-674.149	800.000	-0.035	0.150
-673.135	-20.543	-0.201	0.124
-672.120	-130.168	0.371	-0.051
-671.105	24.344	0.159	-0.132
-670.091	257.235	-0.148	-0.256
-669.076	-200.000	0.039	-0.240
-668.062	800.000	0.057	0.225
-667.047	-200.000	0.001	-0.192
-666.032	-200.000	-0.019	-0.095
-665.018	-200.000	-0.033	-0.162
-664.003	36.978	0.203	-0.181
-662.989	-200.000	-0.020	0.109
-661.974	-142.262	-0.128	-0.013
-660.959	708.291	-0.134	-0.356
-659.945	273.619	-0.027	-0.048
-658.930	-126.754	0.116	-0.017
-657.916	569.843	0.055	0.135
-656.901	-138.422	0.177	0.020
-655.886	-59.400	0.286	0.123
-654.872	-200.000	-0.010	0.075
-653.857	18.987	-0.150	0.121
-652.843	106.722	0.229	-0.272
-651.828	2.764	0.166	0.121
-650.814	800.000	0.091	-0.264
-649.799	-200.000	-0.077	-0.356
-648.784	-107.241	0.344	-0.076
-647.770	-200.000	0.029	-0.575
-646.755	-200.000	0.007	-0.112
-645.741	546.082	-0.123	-0.295
-644.726	45.146	0.062	0.058
-643.711	-151.322	0.138	-0.010
-642.697	464.572	0.113	-0.253
-641.682	-200.000	-0.018	0.093
-640.668	-99.679	0.129	-0.033
-639.653	-78.241	-0.116	-0.040
-638.638	156.745	-0.144	0.200
-637.624	14.997	-0.178	0.140
-636.609	-87.875	-0.311	0.094
-635.595	-43.666	0.117	-0.059
-634.580	-31.911	-0.169	0.095
-633.565	193.269	0.101	-0.154
-632.551	281.853	-0.226	-0.407
-631.536	-98.447	-0.338	-0.087
-630.522	-70.467	0.119	-0.045
-629.507	-133.801	-0.287	-0.036
-628.492	-2.669	-0.162	0.114
-627.478	800.000	-0.044	-0.179
-626.463	-200.000	0.016	-0.501
-625.449	357.392	0.108	0.216
-624.434	-200.000	-0.007	0.218
-623.419	147.008	0.006	-0.009
-622.405	800.000	0.112	-0.341
-621.390	132.175	0.163	0.210
-620.376	38.235	-0.210	-0.188
-619.361	772.567	0.053	0.144
-618.346	-200.000	0.011	0.067
-617.332	-127.969	-0.116	-0.017
-616.317	-200.000	0.040	-0.274
-615.303	569.215	-0.110	0.268
-614.288	124.550	0.198	-0.249
-613.273	303.823	-0.095	-0.176
-612.259	800.000	-0.033	-0.127
-611.244	-131.864	-0.298	-0.039
-610.230	-12.096	-0.317	-0.208
-609.215	-173.218	0.161	0.005
-608.201	199.670	0.092	0.142
-607.186	-42.442	0.376	0.192
-606.171	800.000	-0.077	0.250
-605.157	-156.884	-0.177	0.011
-604.142	226.413	0.040	-0.066
-603.128	800.000	-0.035	-0.151
-602.113	-43.958	-0.088	0.044
-601.098	17.889	-0.255	0.204
-600.084	-135.927	0.352	0.042
-599.069	9.375	0.082	0.063
-598.055	155.199	0.009	-0.013
-597.040	-11.136	0.124	-0.082
-596.025	60.042	-0.189	-0.187
-595.011	-49.662	-0.142	-0.068
-593.996	-57.144	0.081	-0.036
-592.982	800.000	0.090	0.343
-591.967	800.000	-0.046	-0.148
-590.952	165.809	-0.167	0.236
-589.938	-200.000	0.004	-0.048
-588.923	-86.555	-0.342	-0.105
-587.909	-96.426	-0.291	0.077
-586.894	-61.465	-0.316	0.133
-585.879	-131.981	0.190	0.025
-584.865	101.134	0.069	-0.080
-583.850	-26.048	-0.192	0.113
-582.836	-20.031	0.202	-0.125
-581.821	-200.000	-0.035	-0.296
-580.806	-200.000	0.072	-0.436
-579.792	120.098	0.154	-0.191
-578.777	399.754	0.076	0.161
-577.763	-180.258	0.129	0.003
-576.748	471.363	0.041	0.093
-575.733	-200.000	-0.006	0.127
-574.719	-1.650	-0.347	0.245
-573.704	-200.000	-0.039	0.231
-572.690	-200.000	-0.002	-0.358
-571.675	207.779	-0.112	0.176
-570.661	71.624	-0.127	0.133
-569.646	45.005	0.165	0.152
-568.631	800.000	0.026	-0.109
-567.617	20.425	0.188	-0.152
-566.602	36.495	0.173	0.153
-565.588	-118.113	0.088	0.016
-564.573	-4.478	-0.193	0.134
-563.558	210.388	-0.123	0.193
-562.544	-88.388	0.237	0.071
-561.529	-200.000	-0.031	-0.285
-560.515	58.232	0.142	-0.139
-559.500	-163.716	-0.286	-0.013
-558.485	800.000	-0.102	-0.286
-557.471	-200.000	0.016	-0.085
-556.456	106.876	-0.048	0.057
-555.442	81.089	0.293	-0.317
-554.427	-52.341	-0.167	-0.078
-553.412	31.391	0.009	0.007
-552.398	-141.461	-0.463	0.047
-551.383	-200.000	0.010	0.183
-550.369	-200.000	0.027	0.257
-549.354	-73.252	-0.432	0.158
-548.339	593.726	-0.066	-0.164
-547.325	-58.268	-0.513	-0.224
-546.310	37.469	-0.249	-0.221
-545.296	-95.366	0.261	0.070
-544.281	227.739	-0.120	0.195
-543.266	-200.000	-0.018	0.140
-542.252	109.615	-0.180	-0.216
-541.237	-98.566	-0.205	0.052
-540.223	-16.280	0.224	0.142
-539.208	5.555	-0.082	0.061
-538.193	93.450	-0.155	-0.175
-537.179	-146.683	0.327	0.028
-536.164	-24.918	-0.009	0.005
-535.150	-44.068	0.290	0.145
-534.135	-115.059	0.075	0.014
-533.121	31.032	-0.205	-0.176
-532.106	-200.000	-0.002	0.040
-531.091	29.198	0.024	-0.021
-530.077	-118.809	-0.154	0.027
-529.062	-84.756	0.161	-0.051
-528.048	160.191	-0.076	0.105
-527.033	-149.807	-0.117	-0.009
-526.018	-18.747	0.464	-0.289
-525.004	800.000	0.054	-0.189
-523.989	-45.124	0.044	0.022
-522.975	-200.000	0.035	0.255
-521.960	800.000	0.063	-0.207
-520.945	91.585	0.107	-0.120
-519.931	337.170	-0.038	0.074
-518.916	-133.853	-0.064	-0.008
-517.902	-101.895	-0.295	-0.071
-516.887	590.263	-0.068	0.168
-515.872	135.426	0.040	0.051
-514.858	351.841	-0.100	0.199
-513.843	-200.000	0.007	-0.256
-512.829	-88.401	0.141	0.042
-511.814	-156.436	-0.179	0.011
-510.799	800.000	-0.103	0.328
-509.785	-115.628	0.166	0.031
-508.770	-9.884	-0.089	0.059
-507.756	-200.000	0.014	0.164
-506.741	128.135	0.272	-0.345
-505.726	-200.000	0.012	-0.115
-504.712	-63.564	-0.091	0.037
-503.697	-10.949	0.103	0.068
-502.683	-165.166	0.123	-0.005
-501.668	-200.000	0.003	-0.054
-500.653	-126.243	-0.198	-0.030
-499.639	-34.197	0.019	0.010
-498.624	-40.284	0.284	0.148
-497.610	-200.000	0.008	0.340
-496.595	-200.000	-0.009	0.221
-495.581	-200.000	0.001	-0.093
-494.566	3.877	0.164	-0.120
-493.551	159.761	-0.079	0.110
-492.537	-102.985	-0.389	0.092
-491.522	-200.000	-0.017	-0.188
-490.508	-200.000	-0.027	0.177
-489.493	-181.170	0.117	-0.002
-488.478	-70.234	-0.319	-0.121
-487.464	-14.396	-0.220	-0.141
-486.449	-28.999	-0.193	-0.110
-485.435	800.000	0.035	0.126
-484.420	-24.384	0.204	0.122
-483.405	-123.642	0.305	-0.048
-482.391	800.000	-0.056	0.226
-481.376	76.016	0.260	0.275
-480.362	656.380	0.136	-0.348
-479.347	25.730	0.087	-0.072
-478.332	161.904	-0.228	-0.319
-477.318	-63.108	0.258	0.106
-476.303	404.277	-0.032	-0.066
-475.289	92.488	-0.098	-0.111
-474.274	13.852	0.060	0.046
-473.259	331.530	-0.045	0.086
-472.245	82.412	0.087	-0.094
-471.230	-200.000	-0.009	0.083
-470.216	-157.398	0.191	0.011
-469.201	800.000	0.049	0.197
-468.186	-200.000	-0.006	0.146
-467.172	-120.869	0.232	0.039
-466.157	-103.539	0.049	-0.011
-465.143	-200.000	0.013	-0.431
-464.128	1.467	-0.013	0.010
-463.113	-63.515	0.044	-0.018
-462.099	-7.437	-0.131	0.089
-461.084	762.805	-0.050	0.136
-460.070	-109.471	0.114	-0.024
-459.055	-200.000	0.007	0.105
-458.040	-133.881	0.123	-0.015
-457.026	197.482	0.222	0.337
-456.011	145.325	-0.054	0.072
-454.997	-11.484	0.226	0.148
-453.982	726.562	-0.092	0.245
-452.968	-200.000	0.062	-0.319
-451.953	109.688	0.191	-0.228
-450.938	32.503	-0.268	0.231
-449.924	-23.069	0.427	-0.257
-448.909	-200.000	-0.018	0.158
-447.895	800.000	-0.036	-0.155
-446.880	64.577	-0.238	0.239
-445.865	199.113	-0.191	0.292
-444.851	298.010	-0.131	-0.240
-443.836	-200.000	0.012	-0.229
-442.822	-128.718	-0.153	-0.021
-441.807	-200.000	-0.030	-0.186
-440.792	75.992	-0.195	-0.206
-439.778	483.943	-0.125	0.282
-438.763	-36.951	0.409	0.218
-437.749	-200.000	-0.009	-0.308
-436.734	16.385	-0.327	-0.257
-435.719	-129.796	0.077	-0.010
-434.705	-8.810	-0.107	-0.071
-433.690	34.937	-0.182	0.159
-432.676	800.000	0.045	-0.154
-431.661	-56.235	-0.249	0.110
-430.646	18.041	0.130	0.103
-429.632	54.850	0.093	0.089
-428.617	-142.414	-0.206	0.020
-427.603	-142.280	0.342	-0.034
-426.588	-147.045	0.220	0.019
-425.573	-200.000	-0.046	-0.212
-424.559	-5.922	0.102	0.069
-423.544	724.537	-0.074	0.196
-422.530	81.549	0.164	0.176
-421.515	-62.726	0.085	0.035
-420.500	142.170	-0.100	0.132
-419.486	-79.585	-0.286	-0.096
-418.471	-153.141	-0.445	0.031
-417.457	-180.460	0.149	-0.003
-416.442	-156.561	-0.145	-0.009
-415.428	104.175	-0.171	0.200
-414.413	37.544	0.177	-0.157
-413.398	64.330	0.138	-0.139
-412.384	-150.578	0.318	0.024
-411.369	800.000	0.094	0.338
-410.355	-200.000	0.001	-0.165
-409.340	67.843	-0.031	0.032
-408.325	270.240	-0.060	0.106
-407.311	-90.921	0.187	0.054
-406.296	-10.457	-0.253	-0.167
-405.282	-200.000	-0.029	0.204
-404.267	-65.738	-0.242	-0.097
-403.252	-176.215	-0.311	-0.008
-402.238	-102.879	-0.181	-0.043
-401.223	800.000	-0.108	-0.360
-400.209	157.723	0.044	-0.061
-399.194	72.677	0.122	-0.127
-398.179	41.630	-0.186	0.168
-397.165	-45.584	-0.207	0.102
-396.150	-122.181	0.357	-0.058
-395.136	-69.787	-0.043	-0.016
-394.121	-200.000	-0.036	0.356
-393.106	141.317	0.044	0.057
-392.092	-98.112	-0.251	-0.064
-391.077	800.000	0.053	0.175
-390.063	-145.071	0.213	-0.019
-389.048	-18.981	0.126	0.078
-388.033	-123.750	-0.236	0.037
-387.019	-19.895	0.229	0.141
-386.004	-76.667	-0.050	-0.017
-384.990	-113.630	-0.139	0.027
-383.975	-124.202	-0.198	-0.031
-382.960	493.279	-0.100	-0.228
-381.946	-92.215	-0.052	-0.015
-380.931	409.037	0.171	-0.360
-379.917	800.000	-0.035	0.121
-378.902	90.663	-0.151	-0.168
-377.888	-200.000	-0.017	0.267
-376.873	-103.521	-0.330	0.077
-375.858	25.254	0.250	-0.206
-374.844	793.420	-0.022	-0.061
-373.829	-145.419	0.147	-0.013
-372.815	800.000	0.099	0.291
-371.800	97.271	-0.201	0.230
-370.785	363.127	0.065	0.131
-369.771	-44.410	0.151	-0.075
-368.756	-94.047	0.253	-0.069
-367.742	-75.899	0.082	0.029
-366.727	128.235	-0.049	-0.062
-365.712	237.903	0.036	0.060
-364.698	786.337	0.088	-0.241
-363.683	-28.090	-0.259	0.149
-362.669	-200.000	-0.034	0.150
-361.654	537.596	0.156	-0.368
-360.639	-200.000	-0.007	-0.111
-359.625	-200.000	0.009	0.153
-358.610	-200.000	-0.007	0.168
-357.596	32.940	-0.096	0.082
-356.581	51.690	-0.184	-0.174
-355.566	328.949	-0.063	0.120
-354.552	-136.147	0.215	0.025
-353.537	-51.354	0.053	-0.024
-352.523	107.750	-0.239	0.282
-351.508	-200.000	0.000	-0.031
-350.493	-200.000	-0.011	-0.189
-349.479	-3.712	0.302	0.208
-348.464	69.257	0.100	-0.102
-347.450	-200.000	0.009	-0.144
-346.435	-29.290	0.104	0.059
-345.420	-200.000	0.056	-0.388
-344.406	111.411	-0.157	0.188
-343.391	800.000	-0.064	-0.197
-342.377	-200.000	-0.007	-0.140
-341.362	-126.921	-0.358	-0.052
-340.348	321.930	-0.202	0.381
-339.333	328.524	-0.148	-0.282
-338.318	-187.816	0.169	-0.002
-337.304	-200.000	0.024	-0.121
-336.289	-118.811	-0.271	0.047
-335.275	-200.000	0.040	0.256
-334.260	351.645	-0.029	0.057
-333.245	-91.708	0.400	-0.113
-332.231	-125.467	0.099	0.015
-331.216	-200.000	0.017	-0.159
-330.202	-130.452	0.249	0.033
-329.187	-123.028	0.232	-0.037
-328.172	423.846	0.017	0.037
-327.158	-1.258	-0.323	-0.226
-326.143	58.147	-0.362	0.352
-325.129	187.038	0.035	-0.051
-324.114	139.629	0.282	0.368
-323.099	252.416	-0.118	0.199
-322.085	15.145	0.227	0.176
-321.070	-56.503	0.096	0.042
-320.056	-180.073	0.235	0.005
-319.041	-200.000	-0.026	0.237
-318.026	234.092	-0.089	-0.146
-317.012	-52.678	-0.353	-0.161
-315.997	-50.089	0.118	0.055
-314.983	24.747	0.034	-0.028
-313.968	-108.948	-0.324	0.069
-312.953	-150.752	0.385	-0.029
-311.939	-181.974	0.105	0.002
-310.924	-108.869	-0.149	-0.032
-309.910	-9.344	0.084	-0.056
-308.895	-120.005	0.287	0.049
-307.880	515.985	0.043	-0.099
-306.866	198.311	-0.074	0.112
-305.851	-59.258	0.284	-0.121
-304.837	-84.130	0.111	0.035
-303.822	-131.764	-0.063	-0.008
-302.807	93.166	0.225	0.252
-301.793	-200.000	0.002	0.197
-300.778	-80.617	-0.169	-0.056
-299.764	-3.810	-0.108	0.074
-298.749	-200.000	0.015	-0.124
-297.735	484.932	-0.164	-0.370
-296.720	-26.114	0.484	-0.282
-295.705	-200.000	0.022	-0.105
-294.691	58.123	-0.097	0.094
-293.676	130.440	0.138	-0.176
-292.662	392.641	-0.179	-0.368
-291.647	29.876	-0.052	-0.044
-290.632	-7.245	0.071	-0.048
-289.618	-36.929	-0.274	0.145
-288.603	743.596	-0.052	-0.138
-287.589	-120.039	0.188	-0.032
-286.574	-200.000	0.097	0.000
-285.559	401.721	-0.050	0.104
-284.545	-89.761	0.048	0.014
-283.530	292.729	-0.044	0.080
-282.516	800.000	0.057	0.199
-281.501	800.000	-0.152	0.437
-280.486	-96.061	-0.058	0.015
-279.472	-200.000	-0.005	0.175
-278.457	800.000	-0.015	-0.046
-277.443	389.056	0.030	0.062
-276.428	623.082	-0.126	-0.314
-275.413	165.449	-0.034	0.048
-274.399	-91.932	-0.280	-0.079
-273.384	90.674	-0.213	0.237
-272.370	-140.020	0.331	-0.035
-271.355	800.000	-0.005	-0.013
-270.340	-200.000	-0.029	0.177
-269.326	800.000	-0.007	0.031
-268.311	67.675	0.091	0.092
-267.297	800.000	0.147	-0.432
-266.282	800.000	0.114	-0.345
-265.267	-15.266	-0.138	-0.087
-264.253	182.021	0.122	0.178
-263.238	-162.174	-0.077	-0.004
-262.224	52.441	0.010	-0.010
-261.209	44.976	-0.073	-0.067
-260.195	29.901	-0.152	0.128
-259.180	800.000	-0.045	-0.133
-258.165	-92.922	0.083	0.023
-257.151	-43.875	-0.069	0.034
-256.136	466.521	0.072	-0.159
-255.122	-124.209	0.325	-0.050
-254.107	7.957	-0.174	0.129
-253.092	683.368	-0.067	-0.174
-252.078	319.201	0.123	-0.230
-251.063	-142.946	0.472	0.045
-250.049	-200.000	0.041	0.384
-249.034	-116.848	0.314	0.057
-248.019	-70.661	-0.198	-0.074
-247.005	-200.000	-0.023	-0.166
-245.990	297.070	-0.168	0.305
-244.976	-0.083	0.201	0.142
-243.961	-35.399	-0.130	-0.070
-242.946	-123.447	0.387	-0.061
-241.932	-200.000	0.070	0.377
-240.917	800.000	-0.075	0.292
-239.903	-49.241	0.404	0.191
-238.888	-200.000	0.058	-0.311
-237.873	800.000	0.038	0.113
-236.859	-123.601	0.164	-0.026
-235.844	-200.000	-0.025	0.126
-234.830	137.864	0.132	-0.171
-233.815	171.238	-0.193	-0.273
-232.800	-95.556	0.268	-0.071
-231.786	-177.493	0.078	-0.002
-230.771	63.485	-0.103	-0.102
-229.757	-200.000	-0.107	-0.482
-228.742	-151.376	0.305	0.022
-227.727	-96.826	-0.124	-0.032
-226.713	190.778	-0.069	0.102
-225.698	41.048	0.046	0.041
-224.684	-52.901	0.099	-0.045
-223.669	-100.977	0.307	0.075
-222.655	-125.756	0.209	0.031
-221.640	13.699	0.328	0.252
-220.625	-83.393	-0.200	-0.063
-219.611	-131.494	0.057	0.007
-218.596	-60.340	-0.050	-0.021
-217.582	-127.915	0.237	0.034
-216.567	184.553	0.169	-0.248
-215.552	-125.292	-0.472	-0.071
-214.538	-200.000	0.011	0.057
-213.523	-85.589	-0.086	0.026
-212.509	92.750	-0.089	0.099
-211.494	-175.406	-0.200	0.005
-210.479	601.825	0.022	-0.054
-209.465	82.167	-0.134	0.143
-208.450	-5.426	0.100	0.068
-207.436	-46.399	-0.182	0.088
-206.421	725.347	-0.014	0.037
-205.406	-124.965	-0.039	0.006
-204.392	-123.416	-0.371	-0.058
-203.377	79.689	-0.113	0.120
-202.363	196.368	0.158	0.237
-201.348	-84.291	0.453	0.142
-200.333	-200.000	0.027	0.291
-199.319	800.000	0.111	0.307
-198.304	679.934	0.087	0.222
-197.290	-200.000	-0.027	0.172
-196.275	-65.636	0.120	-0.048
-195.260	-20.644	-0.225	-0.136
-194.246	-200.000	-0.039	0.281
-193.231	800.000	-0.026	0.075
-192.217	800.000	0.131	0.426
-191.202	800.000	-0.022	0.086
-190.187	-200.000	0.024	-0.400
-189.173	-200.000	-0.009	-0.109
-188.158	-108.345	-0.353	0.075
-187.144	-25.179	0.155	-0.090
-186.129	-95.704	-0.066	-0.017
-185.114	800.000	-0.030	-0.095
-184.100	42.878	-0.216	-0.194
-183.085	-83.524	-0.094	-0.030
-182.071	68.103	0.165	0.166
-181.056	359.547	-0.232	-0.457
-180.042	79.901	-0.231	-0.245
-179.027	304.779	-0.111	0.204
-178.012	800.000	-0.077	-0.241
-176.998	-121.229	0.049	-0.008
-175.983	-114.318	-0.016	0.003
-174.969	63.428	-0.123	-0.122
-173.954	20.046	-0.197	0.157
-172.939	244.318	0.076	-0.127
-171.925	-39.750	-0.350	-0.180
-170.910	-23.806	0.202	0.119
-169.896	-166.671	-0.306	0.012
-168.881	-200.000	0.418	-0.000
-167.866	-57.013	0.154	-0.067
-166.852	-154.730	0.344	-0.022
-165.837	-116.020	-0.363	0.067
-164.823	-5.305	0.320	0.217
-163.808	61.591	0.172	0.169
-162.793	-200.000	-0.002	0.052
-161.779	55.240	0.181	0.172
-160.764	35.038	0.239	-0.207
-159.750	-42.514	-0.031	-0.016
-158.735	186.480	0.319	0.468
-157.720	-21.853	-0.097	-0.058
-156.706	22.116	0.169	-0.136
-155.691	30.618	0.147	0.124
-154.677	-68.709	0.152	-0.058
-153.662	492.676	0.013	-0.030
-152.647	364.192	0.070	0.138
-151.633	800.000	0.050	-0.150
-150.618	-200.000	0.038	-0.376
-149.604	187.295	-0.131	0.193
-148.589	483.863	-0.019	-0.042
-147.574	-200.000	-0.050	0.342
-146.560	-200.000	0.021	0.292
-145.545	66.409	0.121	0.121
-144.531	-67.452	0.203	0.079
-143.516	-17.765	0.248	0.153
-142.502	326.370	0.104	0.195
-141.487	800.000	0.021	-0.085
-140.472	424.739	-0.045	0.095
-139.458	-41.209	-0.130	-0.066
-138.443	670.304	0.052	-0.133
-137.429	46.478	0.074	0.068
-136.414	800.000	0.088	-0.357
-135.399	128.454	0.219	0.274
-134.385	51.989	0.079	0.074
-133.370	800.000	0.129	0.370
-132.356	71.612	0.327	-0.334
-131.341	-121.056	0.312	-0.052
-130.326	-73.970	-0.063	-0.022
-129.312	-74.634	-0.202	0.072
-128.297	-61.276	0.320	0.133
-127.283	80.326	0.117	0.124
-126.268	-75.746	0.270	-0.094
-125.253	-87.470	0.279	0.083
-124.239	27.690	0.037	0.031
-123.224	79.032	-0.065	0.069
-122.210	453.057	-0.078	0.170
-121.195	138.567	-0.147	-0.190
-120.180	241.902	0.082	-0.134
-119.166	-60.733	-0.130	0.054
-118.151	165.305	0.228	0.316
-117.137	-67.044	0.163	-0.063
-116.122	-102.344	-0.162	0.038
-115.107	-51.978	0.035	-0.016
-114.093	548.523	0.119	0.281
-113.078	-200.000	0.024	-0.524
-112.064	-106.200	0.408	-0.090
-111.049	-44.829	-0.063	-0.031
-110.034	27.221	0.109	0.090
-109.020	-200.000	0.006	-0.156
-108.005	-109.091	0.421	-0.088
-106.991	-66.125	0.222	0.087
-105.976	104.764	-0.056	0.065
-104.962	104.222	0.048	-0.055
-103.947	-16.584	0.207	0.129
-102.932	-102.438	0.045	-0.010
-101.918	119.117	-0.149	-0.181
-100.903	-185.600	-0.187	-0.003
-99.889	99.136	0.178	-0.202
-98.874	-200.000	0.039	0.420
-97.859	-119.845	-0.368	0.062
-96.845	252.813	0.173	-0.290
-95.830	703.994	-0.014	0.035
-94.816	102.014	-0.115	-0.132
-93.801	800.000	-0.048	0.139
-92.786	-53.770	0.206	-0.093
-91.772	77.359	0.143	0.150
-90.757	-130.655	0.150	-0.020
-89.743	-200.000	-0.048	-0.373
-88.728	238.657	-0.134	-0.219
-87.713	124.669	-0.070	-0.086
-86.699	34.734	0.060	0.052
-85.684	-161.734	0.134	0.007
-84.670	-200.000	0.002	-0.102
-83.655	-200.000	0.073	0.333
-82.640	-27.669	0.059	0.034
-81.626	-82.097	-0.412	-0.132
-80.611	412.562	0.152	-0.317
-79.597	-200.000	-0.036	-0.290
-78.582	189.621	-0.056	-0.082
-77.567	800.000	0.108	0.348
-76.553	-84.507	0.308	0.096
-75.538	800.000	0.117	0.496
-74.524	-128.702	0.476	-0.066
-73.509	86.979	0.178	-0.193
-72.494	73.761	-0.149	0.154
-71.480	-200.000	-0.028	0.142
-70.465	-104.196	0.164	0.037
-69.451	-48.694	0.368	-0.173
-68.436	-200.000	0.014	0.128
-67.422	-52.966	-0.372	-0.168
-66.407	-127.203	0.138	-0.020
-65.392	-200.000	0.030	0.321
-64.378	800.000	-0.101	-0.287
-63.363	800.000	0.031	0.124
-62.349	-43.876	0.135	-0.067
-61.334	6.255	-1.074	-0.783
-60.319	199.012	0.288	0.433
-59.305	800.000	-0.326	-1.023
-58.290	176.543	0.836	1.194
-57.276	800.000	0.580	1.779
-56.261	-200.000	104.230	566.234
-55.246	449.367	1461.340	3162.551
-54.232	147.248	2662.672	3517.507
-53.217	99.438	2305.068	2617.003
-52.203	38.502	1916.795	1677.205
-51.188	32.783	1703.561	1446.854
-50.173	30.187	1660.036	1390.398
-49.159	48.155	1711.857	1571.096
-48.144	48.407	1727.818	1587.597
-47.130	32.284	1686.419	1428.277
-46.115	29.645	1672.083	1396.172
-45.100	29.501	1667.121	1390.886
-44.086	29.559	1664.215	1388.848
-43.071	29.360	1662.321	1385.715
-42.057	29.374	1659.350	1383.291
-41.042	29.421	1656.973	1381.604
-40.027	29.572	1655.231	1381.224
-39.013	29.485	1653.429	1379.016
-37.998	29.333	1652.434	1376.996
-36.984	29.526	1650.599	1376.854
-35.969	29.619	1648.880	1376.059
-34.954	29.706	1647.197	1375.249
-33.940	29.611	1645.285	1372.888
-32.925	29.591	1644.015	1371.629
-31.911	29.582	1642.619	1370.338
-30.896	29.569	1640.655	1368.553
-29.881	29.602	1638.883	1367.266
-28.867	29.598	1637.207	1365.784
-27.852	29.578	1635.724	1364.339
-26.838	29.503	1634.436	1362.660
-25.823	29.580	1633.297	1362.227
-24.809	29.573	1631.910	1360.961
-23.794	29.617	1630.415	1359.988
-22.779	29.577	1629.016	1358.467
-21.765	29.595	1627.304	1357.117
-20.750	29.577	1625.670	1355.576
-19.736	29.617	1624.224	1354.603
-18.721	29.645	1622.807	1353.577
-17.706	29.607	1621.199	1351.899
-16.692	29.675	1619.495	1350.925
-15.677	29.756	1617.954	1350.175
-14.663	29.691	1616.872	1348.746
-13.648	29.645	1615.524	1347.232
-12.633	29.599	1614.535	1346.016
-11.619	29.587	1612.685	1344.338
-10.604	29.600	1611.115	1343.071
-9.590	29.673	1609.640	1342.315
-8.575	29.615	1608.917	1341.239
-7.560	29.622	1607.393	1339.968
-6.546	29.695	1605.999	1339.281
-5.531	29.580	1605.687	1338.130
-4.517	29.659	1604.074	1337.310
-3.502	29.603	1602.966	1335.928
-2.487	29.686	1600.941	1334.782
-1.473	29.544	1589.601	1324.256
-0.458	27.366	1571.878	1293.977
0.556	22.618	1574.095	1266.670
1.571	20.653	1598.320	1271.700
2.586	20.380	1611.226	1279.843
3.600	19.428	1561.426	1233.371
4.615	16.062	1460.684	1131.147
5.629	12.667	1403.877	1065.125
6.644	12.017	1396.117	1054.963
7.659	11.962	1395.543	1054.079
8.673	11.951	1393.957	1052.724
9.688	11.850	1392.209	1050.660
10.702	11.833	1388.964	1048.011
11.717	13.486	1391.584	1060.491
12.731	16.754	1397.197	1085.651
13.746	18.249	1398.805	1096.391
14.761	17.697	1396.724	1091.130
15.775	16.643	1394.158	1082.296
16.790	15.678	1391.261	1073.791
17.804	14.830	1388.972	1066.517
18.819	14.319	1387.589	1062.104
19.834	14.057	1385.994	1059.121
20.848	13.743	1384.648	1055.998
21.863	13.560	1383.402	1053.788
22.877	13.437	1381.997	1051.847
23.892	13.374	1381.750	1051.163
24.907	13.321	1380.524	1049.804
25.921	13.317	1379.684	1049.042
26.936	13.345	1378.952	1048.576
27.950	13.465	1377.958	1048.486
28.965	13.460	1376.737	1047.429
29.980	13.516	1375.423	1046.690
30.994	13.564	1374.584	1046.266
32.009	13.595	1373.377	1045.452
33.023	13.682	1371.636	1044.580
34.038	13.566	1370.464	1042.861
35.053	13.556	1368.920	1041.535
36.067	13.656	1367.538	1041.022
37.082	13.553	1366.895	1039.788
38.096	13.484	1366.443	1038.923
39.111	13.534	1365.286	1038.262
40.126	13.455	1364.429	1037.026
41.140	13.434	1363.274	1035.926
42.155	13.383	1362.803	1035.154
43.169	13.365	1362.918	1035.040
44.184	13.330	1362.340	1034.291
45.199	13.389	1361.844	1034.193
46.213	13.398	1361.663	1034.015
47.228	13.409	1360.543	1033.143
48.242	13.554	1358.787	1032.622
49.257	13.498	1357.638	1031.308
50.271	13.502	1355.958	1029.967
51.286	13.496	1354.806	1028.966
52.301	13.448	1353.997	1027.958
53.315	13.416	1352.898	1026.836
54.330	13.359	1351.580	1025.392
55.344	13.403	1349.844	1024.254
56.359	13.391	1348.993	1023.447
57.374	13.383	1348.103	1022.628
58.388	13.285	1347.619	1021.569
59.403	13.274	1347.304	1021.168
60.417	13.237	1346.475	1020.224
61.432	13.269	1345.295	1019.438
62.447	13.306	1344.415	1018.906
63.461	13.206	1342.958	1017.096
64.476	13.161	1342.574	1016.439
65.490	13.298	1340.420	1015.559
66.505	13.282	1339.343	1014.558
67.520	13.310	1338.232	1013.798
68.534	13.241	1337.447	1012.692
69.549	13.280	1336.333	1011.997
70.563	13.228	1335.747	1011.143
71.578	13.198	1333.954	1009.511
72.593	13.214	1333.040	1008.830
73.607	13.191	1332.215	1007.973
74.622	13.179	1331.846	1007.533
75.636	13.228	1330.751	1006.919
76.651	13.235	1330.459	1006.649
77.666	13.185	1329.748	1005.719
78.680	13.056	1329.546	1004.693
79.695	13.105	1329.120	1004.581
80.709	13.239	1327.545	1004.115
81.724	13.306	1326.725	1003.808
82.739	13.331	1326.064	1003.371
83.753	13.358	1325.366	1002.918
84.768	13.553	1323.840	1002.859
85.782	13.576	1322.992	1002.265
86.797	13.465	1321.637	1000.476
87.812	13.467	1320.588	999.611
88.826	13.400	1319.285	998.132
89.841	13.438	1318.119	997.388
90.855	13.422	1317.221	996.522
91.870	13.490	1316.617	996.387
92.884	13.539	1315.510	995.759
93.899	13.586	1314.802	995.412
94.914	13.503	1313.837	994.097
95.928	13.645	1312.539	993.877
96.943	13.494	1312.122	992.570
97.957	13.398	1311.708	991.593
98.972	13.477	1310.134	990.790
99.987	13.498	1308.917	989.909
101.001	13.567	1308.023	989.555
102.016	13.532	1307.166	988.612
103.030	13.475	1306.830	987.928
104.045	13.466	1305.600	986.857
105.060	13.463	1304.250	985.730
106.074	13.491	1302.267	984.314
107.089	13.225	1301.508	982.074
108.103	13.284	1299.988	981.186
109.118	13.274	1298.758	980.117
110.133	13.312	1297.096	979.000
111.147	13.250	1295.962	977.689
112.162	13.358	1294.614	977.223
113.176	13.462	1293.106	976.615
114.191	13.426	1292.452	975.821
115.206	13.433	1291.246	974.867
116.220	13.282	1290.193	973.096
117.235	13.389	1289.259	972.933
118.249	13.357	1288.130	971.807
119.264	13.410	1286.808	971.037
120.279	13.305	1285.605	969.428
121.293	13.307	1284.728	968.689
122.308	13.364	1283.684	968.149
123.322	13.316	1282.541	966.924
124.337	13.346	1281.887	966.522
125.352	13.258	1280.886	965.165
126.366	13.378	1278.993	964.355
127.381	13.261	1278.496	963.212
128.395	13.210	1277.499	962.076
129.410	13.243	1276.631	961.529
130.424	13.351	1275.865	961.494
131.439	13.367	1274.787	960.694
132.454	13.307	1273.830	959.538
133.468	13.467	1272.910	959.685
134.483	13.396	1271.964	958.479
135.497	13.484	1271.046	958.210
136.512	13.347	1269.822	956.412
137.527	13.363	1268.220	955.215
138.541	13.469	1266.552	954.484
139.556	13.471	1265.737	953.798
140.570	13.519	1264.540	953.088
141.585	13.610	1262.692	952.129
142.600	13.516	1261.949	950.949
143.614	13.518	1261.149	950.274
144.629	13.674	1259.832	950.088
145.643	13.636	1258.665	948.906
146.658	13.544	1257.377	947.325
147.673	13.377	1256.361	945.526
148.687	13.485	1255.094	945.104
149.702	13.513	1253.748	944.164
150.716	13.454	1252.387	942.720
151.731	13.575	1251.317	942.522
152.746	13.544	1250.371	941.546
153.760	13.674	1248.795	941.014
154.775	13.573	1248.269	939.963
155.789	13.626	1247.146	939.335
156.804	13.626	1245.911	938.322
157.819	13.751	1244.484	937.873
158.833	13.713	1243.975	937.192
159.848	13.745	1242.777	936.386
160.862	13.753	1241.671	935.515
161.877	13.720	1240.472	934.344
162.892	13.633	1239.901	933.336
163.906	13.697	1238.655	932.679
164.921	13.632	1237.763	931.558
165.935	13.671	1236.641	930.851
166.950	13.707	1236.162	930.612
167.964	13.608	1235.575	929.528
168.979	13.773	1234.523	929.581
169.994	13.753	1233.960	928.964
171.008	13.700	1233.333	928.110
172.023	13.808	1232.536	928.036
173.037	13.802	1231.956	927.483
174.052	13.753	1230.931	926.355
175.067	13.706	1229.832	925.182
176.081	13.763	1228.411	924.349
177.096	13.790	1227.475	923.714
178.110	13.807	1226.476	922.977
179.125	13.844	1225.050	922.024
180.140	13.775	1224.210	920.931
181.154	13.816	1223.402	920.470
182.169	13.771	1222.004	919.086
183.183	13.937	1220.343	918.674
184.198	14.028	1219.202	918.235
185.213	13.964	1218.309	917.126
186.227	13.993	1217.616	916.684
187.242	13.928	1216.553	915.447
188.256	14.047	1215.375	915.132
189.271	14.051	1214.589	914.482
190.286	13.987	1213.476	913.214
191.300	13.771	1212.544	911.246
192.315	13.720	1212.058	910.520
193.329	13.681	1211.414	909.737
194.344	13.792	1210.687	909.721
195.359	13.948	1209.864	909.880
196.373	13.984	1209.274	909.551
197.388	14.065	1208.826	909.578
198.402	14.056	1208.310	909.059
199.417	14.229	1207.590	909.379
200.432	14.196	1206.991	908.667
201.446	14.208	1206.366	908.183
202.461	14.324	1205.062	907.756
203.475	14.349	1203.743	906.816
204.490	14.315	1202.492	905.610
205.504	14.112	1201.510	903.687
206.519	14.194	1200.203	903.068
207.534	14.227	1198.832	902.137
208.548	14.175	1198.312	901.382
209.563	14.227	1197.312	900.830
210.577	14.201	1196.690	900.143
211.592	14.246	1195.775	899.619
212.607	14.434	1194.229	899.390
213.621	14.344	1193.996	898.648
214.636	14.326	1193.127	897.819
215.650	14.390	1192.227	897.408
216.665	14.449	1191.223	896.892
217.680	14.457	1190.582	896.371
218.694	14.373	1189.717	895.191
219.709	14.493	1188.209	894.619
220.723	14.412	1188.005	893.951
221.738	14.407	1187.575	893.525
222.753	14.585	1186.114	893.300
223.767	14.506	1185.975	892.690
224.782	14.595	1185.145	892.465
225.796	14.635	1184.388	892.029
226.811	14.628	1183.574	891.299
227.826	14.546	1183.117	890.439
228.840	14.588	1182.218	889.907
229.855	14.519	1181.550	888.959
230.869	14.601	1180.698	888.672
231.884	14.526	1179.648	887.404
232.899	14.521	1179.347	887.073
233.913	14.487	1178.458	886.149
234.928	14.611	1177.491	885.998
235.942	14.389	1177.139	884.477
236.957	14.433	1176.299	884.004
237.972	14.507	1175.543	883.749
238.986	14.604	1174.518	883.412
240.001	14.472	1173.792	882.091
241.015	14.586	1173.242	882.201
242.030	14.590	1172.037	881.241
243.045	14.704	1171.203	881.136
244.059	14.555	1170.891	880.036
245.074	14.720	1169.843	880.041
246.088	14.780	1168.971	879.621
247.103	14.799	1168.282	879.126
248.117	14.789	1167.649	878.521
249.132	14.861	1166.876	878.237
250.147	15.002	1166.244	878.426
251.161	15.022	1165.246	877.699
252.176	15.041	1164.643	877.268
253.190	14.951	1164.323	876.481
254.205	15.119	1163.601	876.735
255.220	15.169	1162.600	876.169
256.234	15.006	1162.094	874.858
257.249	15.107	1161.403	874.787
258.263	15.126	1161.130	874.602
259.278	15.055	1160.798	873.905
260.293	15.150	1159.515	873.357
261.307	15.059	1159.512	872.801
262.322	15.243	1158.386	872.837
263.336	15.156	1158.215	872.177
264.351	15.172	1157.283	871.480
265.366	15.282	1156.369	871.285
266.380	15.275	1155.751	870.706
267.395	15.282	1154.839	869.981
268.409	15.253	1153.872	869.026
269.424	15.229	1153.226	868.335
270.439	15.256	1152.819	868.093
271.453	15.282	1152.547	867.944
272.468	15.190	1151.358	866.495
273.482	15.264	1150.646	866.265
274.497	15.240	1150.130	865.679
275.512	15.297	1149.274	865.253
276.526	15.442	1148.415	865.277
277.541	15.343	1147.681	864.136
278.555	15.365	1147.014	863.673
279.570	15.380	1146.224	863.078
280.585	15.495	1145.481	863.034
281.599	15.411	1144.785	861.999
282.614	15.466	1143.401	861.164
283.628	15.391	1142.812	860.262
284.643	15.266	1141.773	858.762
285.657	15.487	1140.951	859.199
286.672	15.541	1139.695	858.452
287.687	15.466	1138.977	857.453
288.701	15.504	1138.185	856.972
289.716	15.520	1137.334	856.338
290.730	15.428	1137.268	855.746
291.745	15.554	1136.064	855.407
292.760	15.514	1135.825	854.943
293.774	15.603	1135.026	854.723
294.789	15.579	1134.414	854.063
295.803	15.641	1133.565	853.663
296.818	15.642	1132.740	852.970
297.833	15.542	1132.589	852.277
298.847	15.648	1131.313	851.776
299.862	15.650	1130.470	851.077
300.876	15.671	1130.032	850.776
301.891	15.777	1129.240	850.641
302.906	15.758	1128.614	850.000
303.920	15.714	1127.979	849.224
304.935	15.853	1127.493	849.486
305.949	15.799	1126.917	848.703
306.964	15.806	1126.393	848.269
307.979	15.929	1124.984	847.751
308.993	15.790	1124.589	846.678
310.008	15.844	1123.640	846.160
311.022	15.843	1123.319	845.837
312.037	15.932	1122.028	845.238
313.052	15.887	1120.967	844.140
314.066	15.775	1120.306	843.006
315.081	15.741	1119.788	842.370
316.095	15.820	1118.751	841.912
317.110	15.901	1117.863	841.572
318.125	15.822	1117.411	840.763
319.139	15.703	1116.797	839.632
320.154	15.773	1116.000	839.310
321.168	15.950	1115.175	839.499
322.183	15.903	1114.606	838.760
323.197	15.842	1113.988	837.919
324.212	15.923	1113.286	837.716
325.227	15.948	1112.972	837.532
326.241	15.903	1112.600	836.955
327.256	16.017	1111.371	836.522
328.270	15.766	1110.868	834.823
329.285	16.000	1109.273	834.708
330.300	15.892	1108.835	833.772
331.314	15.916	1107.850	833.076
332.329	15.998	1106.610	832.477
333.343	16.062	1106.076	832.316
334.358	16.135	1105.172	831.921
335.373	16.085	1104.509	831.101
336.387	16.141	1103.517	830.560
337.402	16.182	1102.836	830.174
338.416	16.151	1102.373	829.598
339.431	16.131	1101.492	828.766
340.446	16.235	1101.147	828.944
341.460	16.334	1100.328	828.742
342.475	16.310	1099.746	828.112
343.489	16.380	1098.439	827.393
344.504	16.341	1097.568	826.476
345.519	16.301	1097.017	825.791
346.533	16.480	1095.768	825.652
347.548	16.465	1095.153	825.044
348.562	16.410	1094.532	824.236
349.577	16.501	1093.522	823.845
350.592	16.354	1092.780	822.496
351.606	16.318	1091.818	821.525
352.621	16.392	1091.431	821.518
353.635	16.286	1090.832	820.483
354.650	16.325	1089.621	819.690
355.665	16.452	1089.683	820.278
356.679	16.363	1088.736	819.061
357.694	16.419	1087.938	818.660
358.708	16.484	1087.373	818.478
359.723	16.598	1086.596	818.370
360.738	16.480	1085.867	817.180
361.752	16.370	1085.964	816.646
362.767	16.521	1085.136	816.684
363.781	16.559	1084.223	816.107
364.796	16.537	1084.264	815.958
365.810	16.636	1083.541	815.819
366.825	16.823	1082.531	815.886
367.840	16.806	1082.064	815.384
368.854	16.669	1081.962	814.575
369.869	16.709	1081.146	814.080
370.883	16.799	1079.742	813.383
371.898	16.754	1079.187	812.676
372.913	16.836	1078.774	812.684
373.927	16.877	1077.817	812.091
374.942	16.962	1077.373	812.090
375.956	16.884	1076.656	811.107
376.971	16.831	1076.552	810.700
377.986	16.817	1076.047	810.185
379.000	16.913	1075.425	810.102
380.015	16.964	1074.863	809.850
381.029	16.998	1073.959	809.261
382.044	16.850	1073.631	808.235
383.059	16.965	1072.709	808.017
384.073	16.944	1072.171	807.442
385.088	17.070	1071.011	807.093
386.102	17.094	1070.158	806.495
387.117	16.900	1069.108	804.708
388.132	16.988	1068.365	804.497
389.146	16.885	1067.556	803.330
390.161	16.789	1066.970	802.363
391.175	16.953	1065.874	802.245
392.190	16.977	1065.367	801.906
393.205	17.106	1064.539	801.818
394.219	17.088	1063.681	801.019
395.234	17.092	1062.984	800.438
396.248	17.019	1061.843	799.167
397.263	17.050	1060.655	798.347
398.278	17.034	1060.228	797.879
399.292	17.033	1059.782	797.470
400.307	16.917	1058.913	796.198
401.321	17.100	1058.214	796.461
402.336	16.954	1057.605	795.247
403.350	16.877	1056.896	794.286
404.365	17.020	1056.437	794.540
405.380	17.037	1055.994	794.218
406.394	17.060	1054.807	793.361
407.409	17.175	1054.192	793.364
408.423	17.227	1053.308	792.871
409.438	17.281	1052.812	792.681
410.453	17.469	1051.489	792.491
411.467	17.421	1051.284	792.040
412.482	17.328	1050.669	791.077
413.496	17.379	1049.710	790.521
414.511	17.332	1049.688	790.215
415.526	17.444	1049.198	790.299
416.540	17.534	1048.271	789.946
417.555	17.547	1047.735	789.533
418.569	17.513	1047.362	789.025
419.584	17.383	1046.990	788.070
420.599	17.512	1046.547	788.265
421.613	103.279	1322.521	1469.631
422.628	94.966	1362.699	1469.731
