DTS Sentinel unit serial number:	SN413079Multiplexer serial number:	ORYXHardware model number:	OX4-SRSoftware version number:	ORYX F/W v4.00 Oryx Data Collector v3.7.2.0data status	okinstallation	princeton_trtdifferential loss correction	single-endedforward channel	channel 2reverse channel	N/Adate	2019/09/12time	18:38:49forward acquisition time	15.00reverse acquisition time	0.00gamma	496.2192k internal	0.2324k external	0.2324temperature offset calibration	1.0139default loss term (dB/km)	0.3790temperature slope calibration	1.0000multiplexer offset coefficient	1.0000multiplexer slope coefficient	1.0000fibre end	0.00T internal ref (°C)	33.12T ext. ref 1 (°C)	2.97T ext. ref 2 (°C)	27.68length (m)	temperature (°C)	Stokes	anti-Stokes-747.200	800.000	0.037	-0.110
-746.185	-200.000	0.015	0.492
-745.171	25.781	0.179	-0.151
-744.156	277.640	-0.364	-0.654
-743.142	-40.722	-0.469	0.245
-742.127	800.000	-0.136	-0.401
-741.112	535.013	-0.254	0.608
-740.098	66.785	-0.112	0.115
-739.083	182.311	0.298	0.443
-738.069	-49.253	0.259	0.125
-737.054	800.000	-0.158	-0.557
-736.039	475.795	-0.094	0.215
-735.025	-106.350	1.067	0.241
-734.010	163.755	-0.405	0.575
-732.996	21.347	-0.408	0.334
-731.981	64.409	-0.756	-0.768
-730.966	-200.000	-0.041	-0.368
-729.952	-120.275	1.118	0.192
-728.937	86.677	0.246	0.274
-727.923	160.472	0.296	-0.417
-726.908	15.351	-0.520	-0.412
-725.894	123.652	-0.815	-1.032
-724.879	24.969	-0.552	-0.462
-723.864	-112.289	-0.120	0.024
-722.850	-1.325	0.226	-0.161
-721.835	-200.000	-0.130	-0.664
-720.821	517.549	0.084	0.199
-719.806	-200.000	-0.087	-0.652
-718.791	-200.000	-0.012	0.121
-717.777	-200.000	-0.052	0.626
-716.762	-60.845	0.051	0.022
-715.748	143.380	0.443	-0.594
-714.733	-69.688	-0.291	-0.112
-713.718	123.614	-0.279	-0.353
-712.704	800.000	-0.180	-0.522
-711.689	-200.000	0.258	-1.271
-710.675	312.379	0.189	-0.359
-709.660	42.896	-0.240	0.221
-708.645	800.000	-0.015	-0.053
-707.631	-64.585	0.431	0.176
-706.616	-99.523	1.044	0.264
-705.602	271.858	-0.127	0.225
-704.587	-126.303	-0.284	-0.043
-703.572	182.587	-0.309	-0.459
-702.558	-33.245	-0.501	0.279
-701.543	-174.632	-0.167	0.005
-700.529	-76.306	0.164	-0.058
-699.514	18.037	0.176	0.141
-698.499	325.976	-0.427	-0.823
-697.485	-41.660	-0.643	0.333
-696.470	-89.631	0.998	-0.295
-695.456	189.072	-0.215	-0.324
-694.441	-181.880	0.249	-0.005
-693.426	-70.191	0.162	0.062
-692.412	-44.594	0.365	0.184
-691.397	339.732	-0.116	-0.229
-690.383	-103.737	0.122	-0.029
-689.368	-48.910	0.480	0.232
-688.354	-200.000	0.027	-0.990
-687.339	-153.988	-0.317	-0.022
-686.324	-200.000	-0.021	0.146
-685.310	36.597	0.501	0.446
-684.295	62.162	-0.150	0.150
-683.281	84.578	-0.290	0.319
-682.266	-16.111	0.299	0.191
-681.251	-159.307	0.293	-0.017
-680.237	56.866	-0.135	-0.133
-679.222	800.000	-0.434	1.220
-678.208	-135.913	0.201	0.024
-677.193	-14.291	0.536	0.347
-676.178	-130.071	-0.196	0.027
-675.164	-81.551	-0.508	0.168
-674.149	-200.000	-0.106	-0.649
-673.135	-41.219	-0.864	-0.449
-672.120	-145.061	0.535	0.049
-671.105	-175.248	0.466	-0.013
-670.091	65.884	0.582	-0.594
-669.076	-200.000	-0.019	-0.547
-668.062	295.064	0.157	-0.289
-667.047	-200.000	0.125	0.699
-666.032	-156.292	0.825	-0.052
-665.018	143.401	0.307	-0.411
-664.003	800.000	0.213	-0.851
-662.989	-33.435	0.350	0.195
-661.974	-200.000	0.077	0.398
-660.959	401.340	-0.102	0.215
-659.945	300.923	-0.393	-0.729
-658.930	304.881	0.140	-0.261
-657.916	-200.000	0.041	-0.723
-656.901	-24.212	-0.168	-0.101
-655.886	-184.202	0.618	0.010
-654.872	-200.000	-0.038	0.181
-653.857	-12.484	0.232	-0.152
-652.843	92.039	0.370	0.419
-651.828	30.405	-0.528	0.453
-650.814	72.583	0.129	-0.135
-649.799	192.033	0.120	0.182
-648.784	-6.251	0.595	0.408
-647.770	-200.000	-0.081	0.779
-646.755	-200.000	0.208	-1.076
-645.741	-88.484	0.836	0.251
-644.726	-85.036	0.561	-0.177
-643.711	-133.173	0.628	0.080
-642.697	800.000	-0.119	0.463
-641.682	-200.000	0.088	-0.465
-640.668	-200.000	0.059	-0.549
-639.653	-200.000	0.027	0.181
-638.638	-159.304	-0.554	-0.031
-637.624	-137.315	-0.175	-0.020
-636.609	-26.296	-0.286	0.169
-635.595	-62.807	-0.542	0.226
-634.580	-61.388	-0.298	-0.126
-633.565	-20.987	0.871	-0.536
-632.551	-89.730	-0.569	0.168
-631.536	58.084	-0.536	0.528
-630.522	87.127	-0.226	-0.251
-629.507	37.286	-0.447	-0.398
-628.492	-122.462	-0.525	0.086
-627.478	-154.864	-0.291	-0.019
-626.463	-85.032	0.327	0.103
-625.449	-113.870	-1.009	-0.197
-624.434	129.558	-0.283	-0.363
-623.419	436.298	0.183	-0.400
-622.405	-9.051	-0.496	-0.333
-621.390	141.287	-0.375	-0.499
-620.376	97.865	-0.283	-0.327
-619.361	-42.394	0.113	0.058
-618.346	-123.773	-0.853	0.135
-617.332	17.790	-0.369	-0.295
-616.317	73.017	0.227	0.238
-615.303	129.514	0.240	0.308
-614.288	-36.513	0.461	0.249
-613.273	-151.581	-0.750	-0.056
-612.259	-200.000	-0.036	-0.346
-611.244	-115.735	-1.206	0.227
-610.230	-200.000	0.015	-0.369
-609.215	-153.462	0.422	0.029
-608.201	-137.413	-0.373	0.042
-607.186	-136.989	0.590	-0.068
-606.171	80.762	-0.359	0.388
-605.157	-6.874	-0.705	0.481
-604.142	-200.000	-0.039	-1.020
-603.128	-200.000	-0.078	0.419
-602.113	523.439	-0.449	1.058
-601.098	-40.967	-0.296	0.153
-600.084	-200.000	0.048	-0.307
-599.069	-24.919	-0.639	0.381
-598.055	254.713	-0.341	0.585
-597.040	-22.896	-0.234	0.141
-596.025	61.224	0.456	0.454
-595.011	-12.442	-0.338	-0.221
-593.996	172.992	-0.696	-1.006
-592.982	22.546	-0.623	-0.512
-591.967	141.882	-0.212	-0.283
-590.952	-200.000	0.057	0.435
-589.938	-63.028	-0.874	0.362
-588.923	-200.000	-0.083	0.595
-587.909	364.880	-0.264	-0.534
-586.894	155.970	0.196	-0.271
-585.879	151.328	-0.225	0.308
-584.865	-123.673	0.788	0.125
-583.850	20.954	-0.486	0.395
-582.836	203.925	0.299	-0.465
-581.821	-200.000	0.083	0.419
-580.806	-114.487	0.440	-0.085
-579.792	-21.335	-0.627	-0.384
-578.777	800.000	-0.216	-0.793
-577.763	245.537	0.394	0.666
-576.748	-101.255	-0.119	0.029
-575.733	145.508	-0.414	-0.557
-574.719	-200.000	-0.018	0.329
-573.704	-138.594	-0.203	-0.022
-572.690	665.301	-0.105	0.273
-571.675	800.000	-0.182	-0.619
-570.661	71.974	-0.745	-0.777
-569.646	-40.178	-0.340	0.178
-568.631	-200.000	-0.040	0.307
-567.617	-30.438	0.713	-0.405
-566.602	-64.521	0.596	-0.242
-565.588	-94.981	0.151	-0.041
-564.573	-130.210	-0.456	-0.062
-563.558	-4.236	-0.094	0.065
-562.544	292.117	0.076	-0.138
-561.529	-62.239	-0.273	0.114
-560.515	281.814	-0.342	-0.614
-559.500	-133.367	-0.398	0.050
-558.485	-152.384	-0.475	0.034
-557.471	-200.000	0.081	0.523
-556.456	361.820	0.287	-0.577
-555.442	83.306	0.250	-0.273
-554.427	-64.105	0.574	-0.235
-553.412	800.000	0.083	0.266
-552.398	281.143	0.641	1.150
-551.383	117.288	0.130	0.160
-550.369	-168.455	-0.460	0.018
-549.354	108.534	0.186	-0.223
-548.339	127.308	-0.538	-0.684
-547.325	-200.000	-0.069	-0.307
-546.310	-119.067	0.620	0.109
-545.296	-178.524	-0.655	0.015
-544.281	800.000	0.186	-0.644
-543.266	-114.060	-0.525	0.102
-542.252	-80.517	-0.182	0.061
-541.237	800.000	-0.143	-0.563
-540.223	205.724	0.267	-0.416
-539.208	-167.603	-0.403	-0.016
-538.193	-111.043	-0.143	-0.029
-537.179	-200.000	-0.125	0.811
-536.164	-78.869	0.293	0.100
-535.150	73.785	-0.524	0.550
-534.135	800.000	0.043	0.158
-533.121	-200.000	0.078	0.648
-532.106	-84.738	1.352	-0.426
-531.091	-129.303	0.904	0.126
-530.077	44.912	0.222	0.204
-529.062	-200.000	0.076	0.369
-528.048	135.201	0.470	0.612
-527.033	-200.000	-0.106	-0.680
-526.018	494.759	-0.253	-0.581
-525.004	209.642	0.275	0.432
-523.989	118.913	0.462	-0.571
-522.975	-148.207	-0.346	0.029
-521.960	800.000	0.180	0.550
-520.945	-200.000	0.022	-0.431
-519.931	-0.471	-0.635	-0.451
-518.916	75.822	-0.566	-0.599
-517.902	1.920	0.423	-0.305
-516.887	-200.000	-0.065	0.430
-515.872	-128.101	0.973	-0.139
-514.858	171.426	-0.416	-0.597
-513.843	-98.047	0.821	0.212
-512.829	-200.000	0.048	-0.391
-511.814	-200.000	0.044	-0.212
-510.799	105.350	-0.313	-0.370
-509.785	63.343	-0.258	-0.259
-508.770	779.221	-0.056	-0.152
-507.756	-41.331	0.147	0.076
-506.741	-137.228	0.414	0.047
-505.726	635.216	0.143	0.364
-504.712	-136.685	0.382	0.044
-503.697	-70.994	-0.252	0.095
-502.683	5.303	0.254	-0.187
-501.668	-200.000	0.147	0.710
-500.653	-47.102	-0.915	-0.446
-499.639	33.301	0.179	0.155
-498.624	-200.000	0.054	0.358
-497.610	-98.347	0.987	-0.253
-496.595	-200.000	-0.038	-0.425
-495.581	-85.604	-0.813	-0.252
-494.566	-73.027	0.358	0.131
-493.551	248.543	-0.224	0.379
-492.537	-200.000	-0.177	-1.032
-491.522	-47.860	-0.528	-0.255
-490.508	-44.425	-0.091	0.046
-489.493	127.954	-0.181	0.230
-488.478	-200.000	0.026	0.541
-487.464	-200.000	0.038	-0.247
-486.449	-94.093	-0.587	0.161
-485.435	-179.741	0.314	-0.007
-484.420	-9.609	0.975	-0.650
-483.405	-94.543	-0.423	0.115
-482.391	-200.000	0.052	-0.232
-481.376	-200.000	0.051	0.408
-480.362	800.000	0.079	0.293
-479.347	-200.000	-0.058	0.487
-478.332	-88.804	0.322	-0.096
-477.318	406.475	0.150	0.316
-476.303	-177.955	0.693	-0.017
-475.289	-200.000	-0.065	0.372
-474.274	-141.003	0.436	0.045
-473.259	-39.797	-0.172	0.090
-472.245	-200.000	-0.124	0.871
-471.230	-47.950	-0.894	-0.432
-470.216	-107.474	1.018	-0.223
-469.201	800.000	0.142	0.464
-468.186	300.787	-0.223	0.410
-467.172	-36.733	0.435	0.233
-466.157	52.319	-0.523	-0.498
-465.143	434.577	0.384	-0.833
-464.128	103.005	0.329	0.385
-463.113	-155.818	-0.470	0.030
-462.099	-139.510	0.500	0.053
-461.084	236.326	0.063	-0.104
-460.070	800.000	0.126	-0.505
-459.055	39.119	-0.078	-0.070
-458.040	-200.000	0.045	0.236
-457.026	-200.000	-0.012	1.087
-456.011	-200.000	-0.106	-0.873
-454.997	71.022	-0.401	0.415
-453.982	-200.000	0.062	-0.406
-452.968	-107.139	0.360	0.079
-451.953	258.813	-0.016	-0.027
-450.938	-35.914	0.463	0.250
-449.924	35.487	0.295	-0.259
-448.909	388.534	-0.216	-0.447
-447.895	-10.680	0.112	-0.074
-446.880	-200.000	0.150	0.844
-445.865	204.806	-0.318	0.492
-444.851	-200.000	-0.158	0.855
-443.836	-108.144	0.778	0.168
-442.822	-41.700	0.359	-0.184
-441.807	-107.393	-0.727	0.159
-440.792	-83.019	1.077	-0.346
-439.778	-78.643	0.355	0.121
-438.763	-79.474	-0.376	-0.127
-437.749	185.971	-0.293	0.435
-436.734	-200.000	-0.026	-0.156
-435.719	800.000	0.157	0.502
-434.705	-169.947	0.376	0.013
-433.690	-83.765	0.466	-0.148
-432.676	-71.388	0.800	0.299
-431.661	-200.000	0.037	0.243
-430.646	-200.000	-0.014	0.135
-429.632	-30.302	-0.551	0.312
-428.617	120.084	0.136	0.169
-427.603	53.920	-0.276	0.265
-426.588	-56.978	-0.475	-0.209
-425.573	-74.019	0.425	0.154
-424.559	-200.000	0.050	-0.218
-423.544	-82.079	-0.554	0.180
-422.530	22.358	-0.143	-0.117
-421.515	-90.118	0.234	-0.068
-420.500	-200.000	-0.024	-0.782
-419.486	-120.109	0.618	-0.105
-418.471	-174.071	-0.104	0.003
-417.457	107.054	0.500	-0.592
-416.442	-49.606	0.229	-0.109
-415.428	-137.825	0.750	0.084
-414.413	91.970	-0.638	-0.716
-413.398	-200.000	0.107	-0.588
-412.384	-200.000	0.072	-0.454
-411.369	180.778	-0.589	0.862
-410.355	-165.863	-0.211	-0.009
-409.340	-95.093	-0.536	0.144
-408.325	736.393	0.092	-0.246
-407.311	-100.374	-0.220	-0.054
-406.296	-103.265	0.210	0.049
-405.282	-107.911	-0.590	-0.128
-404.267	70.975	-0.083	-0.086
-403.252	-200.000	-0.067	0.330
-402.238	-72.165	-0.487	0.180
-401.223	-200.000	-0.017	-0.222
-400.209	-21.577	-0.265	0.161
-399.194	51.519	0.290	0.274
-398.179	114.573	-0.566	0.687
-397.165	-200.000	-0.028	0.468
-396.150	98.914	0.307	0.352
-395.136	50.858	0.194	-0.183
-394.121	800.000	-0.111	0.430
-393.106	52.529	-0.490	-0.466
-392.092	-34.650	-0.870	-0.474
-391.077	133.411	0.251	0.323
-390.063	586.311	-0.421	1.031
-389.048	200.191	-0.490	0.749
-388.033	19.918	-1.096	0.880
-387.019	78.532	0.416	0.442
-386.004	532.996	0.432	1.018
-384.990	-42.613	0.417	-0.211
-383.975	13.408	-0.663	0.512
-382.960	598.627	0.217	-0.535
-381.946	-68.414	-0.703	-0.272
-380.931	385.796	0.257	0.528
-379.917	-47.307	0.560	0.271
-378.902	234.415	0.487	-0.799
-377.888	368.776	0.211	-0.424
-376.873	-115.793	-0.530	0.099
-375.858	800.000	0.202	0.630
-374.844	800.000	0.292	-0.832
-373.829	-200.000	0.033	-0.282
-372.815	-105.768	1.052	-0.237
-371.800	-57.307	-0.713	-0.312
-370.785	-195.014	0.953	-0.007
-369.771	80.089	-0.124	0.132
-368.756	200.193	-0.203	-0.311
-367.742	-23.023	-0.616	0.369
-366.727	-200.000	-0.029	-0.607
-365.712	-200.000	-0.017	-0.443
-364.698	-200.000	-0.000	-0.466
-363.683	800.000	-0.094	0.346
-362.669	149.003	-0.183	0.246
-361.654	-200.000	0.168	0.980
-360.639	-200.000	0.077	-0.574
-359.625	-111.052	0.353	0.072
-358.610	156.591	0.406	0.558
-357.596	149.574	0.040	-0.054
-356.581	800.000	0.151	0.432
-355.566	84.141	0.266	-0.289
-354.552	120.108	-0.253	0.312
-353.537	78.020	0.232	0.246
-352.523	-2.418	-0.935	0.651
-351.508	-200.000	-0.038	-0.330
-350.493	-96.421	-0.389	0.102
-349.479	-200.000	0.008	-0.083
-348.464	14.226	-0.595	-0.461
-347.450	-115.557	-0.061	-0.011
-346.435	-48.798	0.437	0.208
-345.420	-175.806	-0.122	0.003
-344.406	546.308	-0.106	0.251
-343.391	-102.048	-0.398	0.095
-342.377	-118.621	-0.322	-0.057
-341.362	230.869	-0.465	0.756
-340.348	800.000	-0.056	0.238
-339.333	24.027	0.404	-0.331
-338.318	-80.023	0.446	-0.149
-337.304	800.000	0.136	-0.426
-336.289	55.038	0.967	0.928
-335.275	-48.798	-0.417	0.199
-334.260	-156.491	-0.593	-0.037
-333.245	52.950	-0.947	0.900
-332.231	800.000	-0.170	0.623
-331.216	-165.802	0.467	0.020
-330.202	452.196	-0.063	-0.139
-329.187	800.000	-0.207	0.783
-328.172	692.701	0.218	0.567
-327.158	-114.185	0.637	-0.122
-326.143	-62.517	0.646	-0.266
-325.129	-102.394	-0.397	0.095
-324.114	134.171	0.463	-0.596
-323.099	-200.000	0.027	-0.352
-322.085	98.806	-0.768	0.880
-321.070	-54.413	1.101	-0.496
-320.056	-55.554	0.119	0.053
-319.041	-200.000	0.089	0.619
-318.026	-139.239	-0.490	-0.052
-317.012	160.806	0.267	-0.371
-315.997	-200.000	0.012	0.271
-314.983	-200.000	-0.021	0.141
-313.968	-200.000	0.120	1.265
-312.953	800.000	-0.079	-0.239
-311.939	-35.066	0.348	0.188
-310.924	-38.025	-0.367	0.193
-309.910	-108.682	-0.263	-0.056
-308.895	-19.185	0.970	0.598
-307.880	18.775	0.824	-0.654
-306.866	-191.010	-0.505	-0.005
-305.851	-13.447	0.054	0.034
-304.837	86.443	0.400	0.437
-303.822	-143.815	0.255	-0.024
-302.807	-33.947	0.939	-0.513
-301.793	198.039	-0.289	0.438
-300.778	800.000	0.117	0.438
-299.764	284.309	0.267	0.477
-298.749	-100.434	0.410	0.101
-297.735	329.421	-0.312	0.595
-296.720	-191.738	0.754	0.007
-295.705	-200.000	-0.049	-0.541
-294.691	-73.307	-0.402	0.146
-293.676	500.967	0.175	-0.401
-292.662	95.567	-0.146	0.165
-291.647	-98.581	-0.694	0.176
-290.632	67.701	-0.569	-0.576
-289.618	-103.409	-0.725	-0.169
-288.603	26.287	0.783	-0.649
-287.589	-119.096	1.473	-0.255
-286.574	89.330	-0.686	-0.758
-285.559	148.490	-0.379	-0.507
-284.545	-97.397	-1.134	-0.293
-283.530	-200.000	0.061	-1.068
-282.516	-200.000	-0.090	-0.568
-281.501	255.305	-0.416	-0.706
-280.486	-19.631	1.008	0.618
-279.472	-7.588	0.759	-0.509
-278.457	-200.000	-0.050	-0.445
-277.443	-200.000	-0.103	0.523
-276.428	-116.494	0.410	0.075
-275.413	-58.315	-0.582	-0.251
-274.399	-56.607	-0.645	0.283
-273.384	-8.676	0.918	0.611
-272.370	-118.160	1.023	0.181
-271.355	800.000	-0.476	-1.542
-270.340	-200.000	0.123	-0.663
-269.326	-24.344	0.512	0.303
-268.311	-200.000	-0.022	0.414
-267.297	-200.000	-0.029	0.231
-266.282	319.262	-0.218	-0.409
-265.267	-200.000	-0.212	-1.164
-264.253	-178.387	0.122	0.003
-263.238	127.326	-0.525	0.660
-262.224	-75.633	0.449	-0.158
-261.209	13.433	-0.513	0.394
-260.195	-171.404	0.463	0.015
-259.180	72.027	0.264	0.272
-258.165	800.000	-0.116	0.436
-257.151	-200.000	-0.112	0.874
-256.136	-119.278	0.292	0.050
-255.122	118.193	0.478	-0.584
-254.107	395.822	0.616	-1.272
-253.092	234.448	-0.413	-0.674
-252.078	8.153	-0.556	-0.413
-251.063	66.961	-0.292	-0.294
-250.049	-200.000	-0.137	-0.603
-249.034	-148.828	0.387	0.031
-248.019	-200.000	-0.052	0.936
-247.005	40.795	0.129	-0.115
-245.990	-148.702	0.414	0.033
-244.976	231.914	-0.685	-1.112
-243.961	-200.000	0.038	-0.806
-242.946	617.037	0.420	1.043
-241.932	-69.595	0.796	-0.302
-240.917	-200.000	-0.008	-0.282
-239.903	800.000	-0.101	-0.277
-238.888	38.468	-0.080	-0.071
-237.873	224.489	-0.270	0.432
-236.859	-144.210	0.698	-0.064
-235.844	800.000	-0.150	-0.530
-234.830	-200.000	0.105	0.904
-233.815	-53.241	-0.652	-0.296
-232.800	-200.000	0.094	0.564
-231.786	-101.924	0.980	-0.234
-230.771	732.179	0.227	-0.600
-229.757	-64.872	0.256	-0.103
-228.742	143.151	0.217	-0.285
-227.727	-200.000	0.028	-0.775
-226.713	-200.000	-0.023	0.220
-225.698	467.660	-0.112	0.248
-224.684	148.141	0.315	-0.420
-223.669	-44.072	-0.431	-0.214
-222.655	800.000	-0.223	0.887
-221.640	-158.001	-0.391	0.023
-220.625	-92.699	-0.318	0.088
-219.611	110.523	-0.463	-0.551
-218.596	-21.899	0.615	0.370
-217.582	111.313	0.425	0.506
-216.567	91.675	-0.217	-0.241
-215.552	-200.000	-0.075	0.347
-214.538	397.953	-0.306	0.632
-213.523	289.534	-0.505	-0.906
-212.509	-200.000	-0.081	0.857
-211.494	-200.000	-0.028	0.726
-210.479	301.757	-0.119	-0.217
-209.465	-149.103	0.382	0.030
-208.450	2.586	-0.370	-0.265
-207.436	-38.113	-0.270	0.142
-206.421	-19.808	-0.295	0.180
-205.406	-11.950	0.561	0.364
-204.392	-105.120	-0.559	-0.126
-203.377	184.336	0.550	0.805
-202.363	23.795	0.805	0.655
-201.348	800.000	-0.110	-0.348
-200.333	800.000	-0.163	0.464
-199.319	-106.259	-1.239	0.274
-198.304	181.987	-0.136	-0.198
-197.290	100.198	-0.489	-0.560
-196.275	39.716	0.402	0.356
-195.260	21.141	-1.052	-0.844
-194.246	467.273	0.122	0.271
-193.231	-101.667	0.468	0.112
-192.217	-65.088	0.303	-0.121
-191.202	365.004	0.062	-0.123
-190.187	-200.000	0.063	0.425
-189.173	-200.000	0.014	-0.372
-188.158	660.609	-0.113	0.289
-187.144	-6.594	0.291	0.196
-186.129	-200.000	0.092	-0.719
-185.114	-100.496	-0.787	0.192
-184.100	800.000	-0.098	-0.272
-183.085	-112.902	0.365	0.071
-182.071	-11.607	0.608	0.395
-181.056	-61.209	-0.970	-0.404
-180.042	-36.219	0.501	-0.267
-179.027	-116.390	-0.764	-0.139
-178.012	-116.953	0.429	0.077
-176.998	-200.000	-0.132	-0.661
-175.983	-200.000	0.133	-0.633
-174.969	80.820	0.471	0.502
-173.954	800.000	-0.391	1.223
-172.939	-48.919	0.469	-0.222
-171.925	800.000	-0.133	-0.375
-170.910	-48.998	0.625	-0.295
-169.896	-184.177	0.744	0.012
-168.881	427.781	-0.132	-0.280
-167.866	53.181	-0.325	0.307
-166.852	65.816	0.467	0.467
-165.837	29.784	-0.487	0.409
-164.823	-35.637	-0.483	-0.258
-163.808	220.970	0.172	-0.273
-162.793	-200.000	0.048	0.615
-161.779	704.513	-0.196	-0.511
-160.764	205.342	0.325	0.498
-159.750	800.000	0.287	0.819
-158.735	120.408	0.402	0.492
-157.720	11.614	-0.173	-0.131
-156.706	97.486	0.290	-0.328
-155.691	-200.000	-0.092	-0.436
-154.677	28.663	0.894	-0.746
-153.662	-33.162	0.647	-0.354
-152.647	-181.651	-0.422	0.008
-151.633	308.189	0.713	-1.312
-150.618	-200.000	-0.079	0.743
-149.604	-87.307	0.384	0.115
-148.589	-5.106	-0.636	-0.432
-147.574	-180.670	-0.304	-0.006
-146.560	800.000	0.302	0.869
-145.545	-187.332	1.064	-0.014
-144.531	201.008	-0.344	0.521
-143.516	-40.504	0.388	-0.198
-142.502	-200.000	-0.001	-0.061
-141.487	119.781	-0.292	-0.357
-140.472	565.556	-0.145	0.346
-139.458	121.776	-0.930	1.144
-138.443	-73.547	0.435	-0.156
-137.429	-28.049	0.639	0.364
-136.414	20.902	0.445	-0.355
-135.399	149.999	-0.142	-0.190
-134.385	-200.000	-0.025	-0.169
-133.370	-110.469	0.084	0.017
-132.356	-155.341	1.017	0.065
-131.341	-120.258	0.326	-0.055
-130.326	37.268	0.498	-0.435
-129.312	53.397	0.475	-0.449
-128.297	65.044	-0.584	0.581
-127.283	171.537	-0.041	0.058
-126.268	33.384	-0.291	0.249
-125.253	-75.616	0.143	-0.050
-124.239	-200.000	0.019	0.508
-123.224	800.000	0.226	0.860
-122.210	-103.279	-0.309	-0.072
-121.195	800.000	-0.414	-1.331
-120.180	30.910	-0.173	-0.146
-119.166	800.000	0.083	-0.288
-118.151	32.698	0.376	0.320
-117.137	-3.054	-0.356	-0.244
-116.122	-107.011	-0.651	0.142
-115.107	206.966	0.189	-0.290
-114.093	-200.000	0.084	-0.389
-113.078	216.862	0.076	-0.119
-112.064	-28.014	0.224	0.128
-111.049	61.658	0.766	-0.750
-110.034	-200.000	0.095	0.661
-109.020	-84.148	-0.447	0.139
-108.005	800.000	0.147	-0.572
-106.991	90.535	0.408	-0.450
-105.976	-126.870	-0.578	-0.084
-104.962	-102.027	-0.196	0.047
-103.947	212.600	-0.376	0.584
-102.932	-76.992	-0.863	0.297
-101.918	427.162	-0.365	0.775
-100.903	-54.648	0.629	0.280
-99.889	688.797	0.351	-0.903
-98.874	-76.598	0.468	0.162
-97.859	346.116	-0.323	0.626
-96.845	-143.452	0.533	-0.050
-95.830	346.086	0.220	-0.425
-94.816	28.049	1.190	-0.988
-93.801	-99.975	-0.612	-0.150
-92.786	57.888	0.741	-0.713
-91.772	-81.561	-0.442	-0.143
-90.757	-200.000	0.020	-0.752
-89.743	-200.000	0.008	-0.067
-88.728	-127.689	0.627	0.089
-87.713	-200.000	0.030	0.833
-86.699	98.284	-0.419	0.475
-85.684	20.982	1.002	-0.799
-84.670	-67.206	0.284	0.110
-83.655	-180.522	0.583	0.012
-82.640	-153.793	-0.182	-0.012
-81.626	267.381	-0.253	0.436
-80.611	-200.000	0.152	-0.879
-79.597	-50.604	0.837	0.388
-78.582	623.835	-0.177	-0.440
-77.567	-200.000	-0.117	0.812
-76.553	309.972	0.293	-0.538
-75.538	649.082	0.111	0.280
-74.524	47.738	-0.086	0.079
-73.509	-85.741	0.244	0.074
-72.494	582.960	-0.329	-0.793
-71.480	-111.080	0.530	0.107
-70.465	-200.000	0.189	0.943
-69.451	-56.918	0.264	-0.115
-68.436	68.761	0.230	0.232
-67.422	246.045	0.463	0.767
-66.407	156.269	0.212	0.288
-65.392	-46.887	0.360	0.173
-64.378	26.589	-0.334	-0.275
-63.363	800.000	0.125	-0.511
-62.349	-78.438	-0.482	0.162
-61.334	468.933	-0.792	-1.747
-60.319	800.000	-0.387	1.207
-59.305	-117.213	-0.435	-0.078
-58.290	-200.000	0.181	1.835
-57.276	800.000	0.615	2.296
-56.261	-200.000	95.690	570.482
-55.246	642.112	1366.629	3421.298
-54.232	200.804	2540.579	3838.989
-53.217	111.650	2253.764	2671.945
-52.203	42.373	1883.066	1681.903
-51.188	36.227	1675.758	1450.650
-50.173	33.718	1632.018	1394.322
-49.159	51.705	1680.123	1569.805
-48.144	52.718	1696.677	1592.753
-47.130	36.011	1655.985	1431.699
-46.115	33.422	1640.563	1399.215
-45.100	33.312	1636.903	1395.224
-44.086	33.208	1633.848	1391.798
-43.071	32.945	1631.888	1388.141
-42.057	33.041	1627.897	1385.396
-41.042	33.051	1626.976	1384.628
-40.027	33.049	1625.470	1383.282
-39.013	32.999	1622.850	1380.633
-37.998	33.147	1621.395	1380.416
-36.984	32.893	1621.382	1378.495
-35.969	33.129	1618.457	1377.676
-34.954	33.162	1617.241	1376.826
-33.940	33.131	1615.001	1374.639
-32.925	33.281	1613.406	1374.314
-31.911	33.120	1611.594	1371.553
-30.896	32.942	1611.557	1370.175
-29.881	33.103	1608.426	1368.625
-28.867	33.096	1607.216	1367.486
-27.852	33.083	1605.971	1366.283
-26.838	33.271	1603.979	1365.888
-25.823	33.049	1601.860	1362.427
-24.809	33.351	1600.768	1363.623
-23.794	33.052	1598.882	1359.808
-22.779	33.376	1598.675	1361.908
-21.765	33.074	1596.871	1358.150
-20.750	33.144	1595.639	1357.553
-19.736	33.084	1594.020	1355.693
-18.721	33.103	1592.459	1354.442
-17.706	33.236	1590.992	1354.092
-16.692	33.172	1589.369	1352.202
-15.677	33.169	1587.314	1350.381
-14.663	33.114	1586.104	1348.901
-13.648	33.349	1584.853	1349.465
-12.633	33.037	1584.078	1346.526
-11.619	33.112	1582.209	1345.420
-10.604	33.096	1580.422	1343.733
-9.590	32.881	1579.945	1341.740
-8.575	32.933	1580.105	1342.194
-7.560	33.258	1576.130	1341.069
-6.546	33.287	1575.550	1340.731
-5.531	33.271	1574.372	1339.561
-4.517	33.191	1573.135	1337.885
-3.502	33.004	1572.585	1336.044
-2.487	33.160	1570.700	1335.490
-1.473	32.909	1558.326	1323.157
-0.458	29.936	1539.527	1286.518
0.556	27.346	1539.234	1252.701
1.571	24.879	1561.660	1253.583
2.586	24.328	1574.229	1259.675
3.600	21.568	1521.112	1198.197
4.615	12.824	1412.833	1056.966
5.629	4.621	1348.701	958.502
6.644	3.010	1341.144	943.166
7.659	2.982	1338.815	941.275
8.673	2.979	1338.043	940.629
9.688	2.909	1336.993	939.381
10.702	2.828	1333.442	936.306
11.717	6.522	1338.555	962.404
12.731	15.799	1357.303	1032.995
13.746	23.391	1369.491	1089.024
14.761	25.249	1370.649	1101.260
15.775	25.320	1371.181	1102.028
16.790	25.523	1370.224	1102.404
17.804	25.775	1368.787	1102.695
18.819	26.039	1369.254	1104.591
19.834	26.001	1367.933	1103.194
20.848	25.832	1367.814	1101.968
21.863	25.820	1367.398	1101.461
22.877	25.902	1367.065	1101.596
23.892	25.870	1366.005	1100.448
24.907	25.705	1365.602	1099.019
25.921	25.966	1363.724	1099.001
26.936	25.869	1364.280	1098.759
27.950	25.697	1362.512	1096.195
28.965	26.003	1360.447	1096.296
29.980	25.888	1360.261	1095.347
30.994	25.834	1358.659	1093.637
32.009	26.111	1357.297	1094.120
33.023	26.012	1357.268	1093.404
34.038	25.659	1356.480	1090.533
35.053	26.126	1354.632	1091.773
36.067	25.891	1353.999	1089.745
37.082	25.751	1353.971	1088.778
38.096	25.875	1353.093	1088.728
39.111	25.869	1352.109	1087.805
40.126	25.974	1350.861	1087.338
41.140	26.190	1349.376	1087.349
42.155	25.712	1350.078	1084.933
43.169	26.130	1350.435	1087.646
44.184	26.076	1349.499	1086.472
45.199	25.898	1350.553	1086.148
46.213	26.089	1349.305	1086.200
47.228	26.095	1347.754	1084.889
48.242	26.061	1346.060	1083.225
49.257	25.802	1345.367	1081.020
50.271	26.103	1343.536	1081.259
51.286	26.234	1342.057	1080.757
52.301	25.975	1342.080	1079.126
53.315	26.191	1339.841	1078.523
54.330	26.053	1339.529	1077.354
55.344	26.164	1337.699	1076.443
56.359	26.086	1337.701	1075.886
57.374	25.956	1337.752	1075.055
58.388	26.036	1336.021	1074.046
59.403	26.198	1334.996	1074.094
60.417	25.965	1335.231	1072.801
61.432	26.100	1334.530	1072.944
62.447	26.090	1334.397	1072.683
63.461	26.008	1333.452	1071.340
64.476	25.934	1332.286	1069.870
65.490	26.264	1330.307	1070.140
66.505	25.882	1329.733	1067.326
67.520	26.023	1328.163	1066.803
68.534	25.994	1326.829	1065.468
69.549	26.041	1326.239	1065.177
70.563	26.075	1325.001	1064.287
71.578	26.324	1323.540	1064.489
72.593	25.917	1323.734	1062.151
73.607	26.088	1323.551	1062.915
74.622	26.082	1321.880	1061.449
75.636	26.138	1322.546	1062.216
76.651	26.178	1320.419	1060.652
77.666	26.165	1320.360	1060.433
78.680	26.222	1319.755	1060.186
79.695	26.167	1319.549	1059.606
80.709	26.400	1317.611	1059.318
81.724	26.290	1318.173	1059.032
82.739	26.436	1316.261	1058.257
83.753	26.394	1314.777	1056.728
84.768	26.198	1314.330	1055.128
85.782	26.155	1314.124	1054.617
86.797	26.146	1311.977	1052.751
87.812	26.026	1311.427	1051.517
88.826	26.410	1309.953	1052.476
89.841	26.540	1307.667	1051.299
90.855	26.428	1306.876	1049.923
91.870	26.173	1306.462	1048.016
92.884	26.197	1306.833	1048.360
93.899	25.951	1305.704	1045.937
94.914	26.144	1304.989	1046.389
95.928	26.511	1303.485	1047.213
96.943	26.359	1302.741	1045.646
97.957	26.398	1302.402	1045.508
98.972	26.221	1301.931	1044.014
99.987	26.036	1301.752	1042.708
101.001	26.193	1299.665	1041.849
102.016	26.356	1298.854	1042.048
103.030	26.054	1299.387	1040.642
104.045	26.261	1296.950	1039.787
105.060	26.081	1296.086	1037.969
106.074	26.346	1295.394	1038.845
107.089	26.228	1294.120	1037.052
108.103	26.189	1293.106	1035.926
109.118	26.314	1292.388	1035.973
110.133	26.337	1289.974	1034.079
111.147	26.344	1289.261	1033.456
112.162	26.443	1287.865	1032.811
113.176	26.097	1287.471	1030.432
114.191	26.269	1286.640	1030.657
115.206	26.280	1285.525	1029.731
116.220	26.507	1283.661	1029.439
117.235	26.394	1282.178	1027.518
118.249	26.373	1282.178	1027.308
119.264	26.217	1280.853	1025.269
120.279	26.355	1279.840	1025.149
121.293	26.652	1279.139	1026.179
122.308	26.444	1278.841	1024.673
123.322	26.683	1277.550	1024.898
124.337	26.530	1276.445	1023.059
125.352	26.558	1275.657	1022.494
126.366	26.594	1275.125	1022.182
127.381	26.403	1274.258	1020.319
128.395	26.513	1273.391	1020.151
129.410	26.384	1272.240	1018.413
130.424	26.271	1273.168	1018.432
131.439	26.292	1271.729	1017.309
132.454	26.289	1269.864	1015.706
133.468	26.374	1268.557	1015.049
134.483	26.233	1269.314	1014.776
135.497	26.583	1265.968	1013.969
136.512	26.192	1266.970	1012.492
137.527	26.279	1265.866	1012.006
138.541	26.302	1263.669	1010.289
139.556	26.142	1264.362	1009.857
140.570	26.340	1262.418	1009.320
141.585	26.441	1260.593	1008.335
142.600	26.505	1260.511	1008.540
143.614	26.479	1259.914	1007.829
144.629	26.506	1258.184	1006.507
145.643	26.269	1257.515	1004.563
146.658	26.404	1255.251	1003.413
147.673	26.374	1255.113	1003.049
148.687	26.090	1255.104	1001.378
149.702	26.413	1253.569	1001.856
150.716	26.530	1252.148	1001.274
151.731	26.263	1250.864	998.686
152.746	26.322	1250.543	998.669
153.760	26.378	1249.424	997.996
154.775	26.321	1247.937	996.406
155.789	26.292	1247.786	996.033
156.804	26.502	1245.948	995.635
157.819	26.340	1245.262	994.110
158.833	26.384	1244.538	993.684
159.848	26.347	1244.160	993.093
160.862	26.336	1243.162	992.144
161.877	26.528	1242.197	992.340
162.892	26.469	1241.878	991.674
163.906	26.602	1240.471	991.192
164.921	26.608	1239.067	990.014
165.935	26.317	1238.997	988.281
166.950	26.180	1238.813	987.298
167.964	26.377	1238.193	987.792
168.979	26.535	1237.792	988.246
169.994	26.574	1236.649	987.463
171.008	26.717	1235.188	986.987
172.023	26.762	1234.928	986.937
173.037	26.493	1234.716	985.214
174.052	26.381	1233.860	983.837
175.067	26.403	1233.844	983.857
176.081	26.558	1232.096	983.219
177.096	26.595	1231.210	982.624
178.110	26.510	1231.294	982.144
179.125	26.534	1229.204	980.516
180.140	26.458	1227.907	978.987
181.154	26.677	1227.302	979.603
182.169	26.339	1226.689	977.196
183.183	26.449	1225.027	976.380
184.198	26.664	1224.074	976.693
185.213	26.780	1223.083	976.444
186.227	26.585	1222.845	975.114
187.242	26.488	1221.463	973.406
188.256	26.526	1221.132	973.258
189.271	26.722	1219.565	972.976
190.286	26.443	1220.014	971.750
191.300	26.662	1218.429	971.575
192.315	26.721	1218.997	972.258
193.329	26.580	1218.620	971.116
194.344	26.559	1217.594	970.103
195.359	26.547	1217.331	969.743
196.373	26.318	1217.142	968.277
197.388	26.413	1216.203	967.953
198.402	26.503	1216.447	968.544
199.417	26.799	1214.131	968.197
200.432	26.921	1212.887	967.770
201.446	26.602	1213.926	966.811
202.461	26.637	1212.894	966.088
203.475	26.798	1211.444	965.709
204.490	26.531	1210.733	963.630
205.504	26.666	1209.447	963.239
206.519	26.781	1207.860	962.502
207.534	26.589	1208.350	961.790
208.548	26.765	1207.546	961.998
209.563	26.622	1207.010	960.729
210.577	26.707	1205.635	959.997
211.592	26.751	1205.017	959.654
212.607	26.896	1203.238	958.921
213.621	26.865	1203.199	958.639
214.636	26.566	1203.278	957.034
215.650	26.819	1201.227	956.656
216.665	26.644	1201.059	955.513
217.680	26.561	1199.613	953.842
218.694	26.637	1199.082	953.736
219.709	26.641	1199.119	953.702
220.723	26.540	1198.701	952.752
221.738	26.756	1196.779	952.275
222.753	26.714	1195.978	951.334
223.767	26.710	1195.565	950.900
224.782	26.838	1195.988	951.821
225.796	26.930	1195.702	951.995
226.811	26.712	1194.676	949.950
227.826	26.697	1193.643	948.968
228.840	26.755	1192.780	948.498
229.855	26.533	1192.500	947.034
230.869	26.825	1191.494	947.676
231.884	26.649	1190.995	946.275
232.899	26.881	1189.871	946.512
233.913	26.562	1190.412	945.189
234.928	26.848	1189.027	945.498
235.942	26.888	1188.718	945.379
236.957	27.153	1187.274	945.525
237.972	26.806	1187.081	943.479
238.986	26.729	1186.513	942.549
240.001	26.908	1185.305	942.435
241.015	27.093	1184.328	942.531
242.030	26.722	1184.459	940.630
243.045	27.206	1183.016	941.907
244.059	26.886	1182.818	940.011
245.074	26.819	1182.048	938.969
246.088	26.986	1180.889	938.830
247.103	26.846	1180.204	937.478
248.117	26.993	1179.580	937.656
249.132	26.735	1179.494	936.174
250.147	26.960	1177.689	935.819
251.161	27.173	1177.145	936.398
252.176	27.109	1176.202	935.240
253.190	27.094	1175.165	934.252
254.205	26.986	1175.458	933.845
255.220	26.898	1175.238	933.137
256.234	27.137	1174.308	933.545
257.249	27.209	1173.320	933.045
258.263	27.157	1172.434	931.990
259.278	26.903	1172.556	930.702
260.293	27.068	1172.396	931.342
261.307	27.076	1171.347	930.465
262.322	27.308	1170.345	930.775
263.336	27.086	1169.241	928.683
264.351	27.024	1170.406	929.206
265.366	26.999	1168.330	927.345
266.380	27.140	1168.521	928.138
267.395	26.771	1167.604	925.445
268.409	27.136	1166.556	926.393
269.424	26.933	1167.371	925.920
270.439	26.971	1165.907	924.871
271.453	27.143	1165.239	925.136
272.468	26.908	1164.480	923.257
273.482	26.798	1163.688	921.989
274.497	27.277	1162.450	923.359
275.512	26.857	1163.346	921.852
276.526	26.903	1162.382	921.242
277.541	27.104	1161.769	921.692
278.555	27.280	1160.181	921.244
279.570	26.990	1160.295	919.786
280.585	26.866	1159.481	918.431
281.599	27.259	1157.811	919.011
282.614	27.086	1156.768	917.229
283.628	26.964	1156.093	915.998
284.643	27.018	1155.609	915.806
285.657	27.205	1154.250	915.591
286.672	27.172	1153.155	914.473
287.687	27.136	1152.705	913.856
288.701	27.022	1152.826	913.297
289.716	27.076	1152.263	913.041
290.730	27.209	1150.150	911.951
291.745	27.053	1150.190	911.123
292.760	27.181	1149.911	911.463
293.774	27.042	1149.221	910.135
294.789	26.885	1148.839	908.968
295.803	27.029	1147.692	908.701
296.818	27.386	1147.378	910.157
297.833	27.270	1146.956	909.160
298.847	27.247	1144.953	907.378
299.862	27.082	1145.386	906.815
300.876	27.328	1145.010	907.669
301.891	27.309	1144.265	906.903
302.906	26.967	1143.626	904.611
303.920	27.327	1142.414	905.362
304.935	27.196	1142.942	905.052
305.949	27.016	1141.943	903.281
306.964	27.285	1140.775	903.616
307.979	26.871	1141.232	901.841
308.993	27.091	1139.888	901.790
310.008	26.930	1139.178	900.349
311.022	27.462	1137.746	901.773
312.037	27.031	1137.539	899.395
313.052	27.118	1135.889	898.442
314.066	27.303	1135.459	898.937
315.081	27.132	1135.938	898.392
316.095	27.058	1134.334	896.679
317.110	27.158	1133.627	896.532
318.125	27.239	1133.440	896.706
319.139	27.278	1132.642	896.189
320.154	26.960	1131.938	893.983
321.168	27.282	1131.128	894.850
322.183	27.039	1131.306	893.716
323.197	27.167	1129.750	893.037
324.212	26.915	1130.320	892.167
325.227	27.238	1128.841	892.511
326.241	27.211	1127.970	891.607
327.256	27.253	1126.793	890.804
328.270	27.137	1126.608	890.009
329.285	27.100	1126.434	889.616
330.300	27.191	1124.654	888.575
331.314	26.973	1124.965	887.674
332.329	27.080	1123.809	887.206
333.343	27.193	1122.978	887.026
334.358	27.227	1121.672	886.083
335.373	27.475	1120.535	886.309
336.387	27.394	1120.679	885.953
337.402	27.204	1120.906	885.130
338.416	27.242	1119.611	884.212
339.431	27.523	1118.503	884.624
340.446	27.181	1118.179	882.629
341.460	27.432	1117.902	883.550
342.475	27.357	1117.209	882.561
343.489	27.373	1115.652	881.327
344.504	27.327	1115.170	880.648
345.519	27.484	1113.765	880.219
346.533	27.290	1113.389	878.905
347.548	27.406	1113.205	879.242
348.562	27.310	1112.298	877.989
349.577	27.352	1110.827	876.953
350.592	27.042	1111.317	875.768
351.606	26.937	1110.404	874.464
352.621	27.131	1109.039	874.243
353.635	27.273	1108.600	874.502
354.650	27.455	1107.863	874.719
355.665	26.966	1107.902	872.320
356.679	27.220	1107.409	873.079
357.694	27.505	1105.242	872.655
358.708	27.430	1105.277	872.249
359.723	26.846	1105.267	869.367
360.738	27.411	1104.601	871.469
361.752	27.206	1104.366	870.226
362.767	27.222	1103.945	869.892
363.781	27.295	1102.267	868.844
364.796	27.537	1100.945	868.880
365.810	27.294	1100.656	867.415
366.825	27.323	1100.530	867.378
367.840	27.250	1100.173	866.669
368.854	27.275	1099.559	866.228
369.869	26.982	1099.230	864.498
370.883	27.475	1097.662	865.534
371.898	27.468	1096.641	864.619
372.913	27.084	1097.133	863.103
373.927	27.221	1096.009	862.794
374.942	27.131	1095.772	862.103
375.956	27.452	1095.150	863.063
376.971	27.280	1095.253	862.248
377.986	27.363	1093.805	861.425
379.000	27.120	1093.567	860.010
380.015	27.187	1093.105	859.888
381.029	27.280	1092.465	859.752
382.044	27.304	1091.033	858.662
383.059	27.305	1090.952	858.528
384.073	27.244	1089.854	857.298
385.088	27.267	1088.989	856.652
386.102	26.949	1088.628	854.792
387.117	27.536	1086.714	855.972
388.132	27.088	1086.945	853.973
389.146	27.091	1086.038	853.199
390.161	27.203	1085.188	852.983
391.175	27.268	1085.299	853.299
392.190	27.045	1084.103	851.239
393.205	27.343	1083.490	852.076
394.219	27.454	1082.537	851.769
395.234	27.381	1082.247	851.127
396.248	27.374	1081.277	850.256
397.263	27.000	1080.044	847.467
398.278	27.269	1079.548	848.258
399.292	27.188	1079.280	847.592
400.307	27.165	1078.786	847.024
401.321	27.121	1077.657	845.854
402.336	27.151	1076.552	845.054
403.350	27.082	1076.035	844.250
404.365	27.192	1076.151	844.780
405.380	27.572	1074.537	845.203
406.394	26.959	1074.383	842.161
407.409	27.268	1072.948	842.393
408.423	27.439	1071.682	842.115
409.438	27.354	1071.674	841.644
410.453	27.083	1072.206	840.731
411.467	27.158	1071.234	840.241
412.482	27.160	1070.771	839.812
413.496	27.379	1068.975	839.339
414.511	27.489	1067.531	838.639
415.526	27.517	1068.132	839.164
416.540	27.306	1068.628	838.509
417.555	27.092	1067.097	836.247
418.569	27.268	1066.683	836.662
419.584	27.048	1066.812	835.673
420.599	27.249	1064.905	835.029
421.613	153.041	1404.297	1792.891
422.628	140.797	1453.720	1793.006
