DTS Sentinel unit serial number:	SN413079Multiplexer serial number:	ORYXHardware model number:	OX4-SRSoftware version number:	ORYX F/W v4.00 Oryx Data Collector v3.7.2.0data status	okinstallation	princeton_trtdifferential loss correction	single-endedforward channel	channel 2reverse channel	N/Adate	2019/09/10time	21:45:10forward acquisition time	60.00reverse acquisition time	0.00gamma	496.2192k internal	0.2330k external	0.2330temperature offset calibration	0.9948default loss term (dB/km)	0.3790temperature slope calibration	1.0000multiplexer offset coefficient	1.0000multiplexer slope coefficient	1.0000fibre end	0.00T internal ref (°C)	30.91T ext. ref 1 (°C)	-0.30T ext. ref 2 (°C)	24.26length (m)	temperature (°C)	Stokes	anti-Stokes-747.200	618.821	0.057	-0.144
-746.185	-142.272	-0.112	0.011
-745.171	-200.000	0.006	0.087
-744.156	-72.470	0.358	0.133
-743.142	800.000	0.045	0.137
-742.127	-172.324	0.300	0.010
-741.112	-60.704	-0.081	-0.035
-740.098	74.798	-0.223	0.237
-739.083	35.937	0.218	0.193
-738.069	-84.195	0.393	0.125
-737.054	-200.000	0.051	-0.424
-736.039	-168.574	-0.139	-0.005
-735.025	800.000	-0.048	0.167
-734.010	233.110	-0.115	-0.191
-732.996	248.441	-0.116	-0.198
-731.981	-200.000	0.076	-0.412
-730.966	657.253	-0.107	-0.276
-729.952	46.173	-0.236	-0.220
-728.937	538.095	-0.109	-0.261
-727.923	518.399	0.162	0.383
-726.908	72.118	-0.222	0.233
-725.894	35.239	-0.089	-0.079
-724.879	153.865	0.005	-0.007
-723.864	37.305	0.220	-0.196
-722.850	-4.760	-0.108	-0.075
-721.835	-200.000	-0.008	-0.195
-720.821	-121.300	-0.062	-0.010
-719.806	-31.888	0.091	-0.051
-718.791	800.000	0.030	0.125
-717.777	-184.363	0.153	-0.003
-716.762	-6.127	0.293	0.201
-715.748	-125.847	-0.429	-0.065
-714.733	-32.670	0.085	-0.048
-713.718	458.403	0.160	-0.357
-712.704	-48.893	-0.156	0.075
-711.689	-67.614	0.093	0.037
-710.675	-200.000	-0.003	-0.149
-709.660	-109.103	-0.287	-0.061
-708.645	-178.553	0.261	-0.006
-707.631	-189.634	0.359	-0.004
-706.616	-92.875	0.262	0.074
-705.602	-93.839	0.411	-0.114
-704.587	-62.903	-0.329	-0.137
-703.572	-42.744	-0.133	-0.068
-702.558	155.319	0.124	-0.172
-701.543	-47.815	0.047	0.023
-700.529	45.023	-0.062	0.057
-699.514	-200.000	0.082	-0.382
-698.499	-129.908	0.094	-0.013
-697.485	35.263	0.269	-0.237
-696.470	12.193	-0.097	0.075
-695.456	800.000	0.052	-0.171
-694.441	-135.515	0.051	-0.006
-693.426	-118.804	-0.393	-0.069
-692.412	-49.024	0.290	0.139
-691.397	-67.298	-0.087	0.034
-690.383	-200.000	-0.004	-0.029
-689.368	363.838	-0.017	-0.035
-688.354	88.930	-0.198	-0.222
-687.339	-200.000	-0.027	-0.353
-686.324	477.235	-0.095	0.217
-685.310	-200.000	0.009	0.109
-684.295	36.282	0.085	0.076
-683.281	44.748	-0.320	0.296
-682.266	127.185	-0.144	-0.184
-681.251	-21.644	-0.118	-0.072
-680.237	-22.033	0.149	-0.091
-679.222	67.483	0.273	-0.280
-678.208	-134.573	0.151	0.019
-677.193	800.000	0.072	-0.253
-676.178	-200.000	-0.066	-0.401
-675.164	24.456	-0.444	-0.369
-674.149	800.000	0.078	-0.242
-673.135	311.489	0.146	-0.275
-672.120	-78.488	-0.087	-0.030
-671.105	-200.000	-0.016	0.110
-670.091	-10.221	-0.064	-0.043
-669.076	-200.000	0.011	-0.096
-668.062	-107.490	-0.272	0.060
-667.047	-147.289	-0.344	0.029
-666.032	-200.000	0.011	0.439
-665.018	-200.000	0.019	-0.124
-664.003	-26.930	-0.309	-0.181
-662.989	22.658	0.172	-0.142
-661.974	175.278	-0.134	0.195
-660.959	-10.269	-0.115	-0.077
-659.945	-200.000	0.043	-0.225
-658.930	258.700	-0.012	-0.022
-657.916	93.114	0.044	-0.050
-656.901	-166.920	-0.270	0.011
-655.886	111.904	-0.203	-0.246
-654.872	574.632	0.114	0.280
-653.857	800.000	0.085	0.277
-652.843	620.173	0.063	-0.159
-651.828	54.531	0.204	-0.197
-650.814	-111.818	-0.055	-0.011
-649.799	-61.883	-0.086	-0.036
-648.784	-128.138	-0.205	-0.029
-647.770	364.994	-0.115	0.232
-646.755	3.679	0.207	-0.152
-645.741	-200.000	0.012	0.123
-644.726	800.000	-0.065	-0.277
-643.711	800.000	0.057	0.185
-642.697	-186.271	-0.204	0.003
-641.682	368.695	0.170	-0.344
-640.668	520.116	-0.081	0.191
-639.653	68.637	-0.073	0.076
-638.638	-200.000	-0.010	0.245
-637.624	566.429	0.118	-0.286
-636.609	800.000	-0.057	-0.242
-635.595	-200.000	-0.011	-0.092
-634.580	57.322	0.127	-0.124
-633.565	800.000	-0.062	-0.197
-632.551	-59.095	0.195	0.084
-631.536	-200.000	0.015	0.109
-630.522	-41.472	0.130	0.067
-629.507	15.827	-0.092	0.072
-628.492	206.187	-0.129	-0.202
-627.478	800.000	0.039	-0.121
-626.463	137.328	-0.115	0.151
-625.449	558.479	0.069	-0.167
-624.434	800.000	0.051	0.192
-623.419	-200.000	-0.019	0.086
-622.405	22.785	0.057	0.046
-621.390	-61.451	-0.159	0.067
-620.376	50.579	0.126	0.120
-619.361	-16.397	0.105	-0.067
-618.346	-200.000	0.009	-0.250
-617.332	-46.607	-0.273	0.134
-616.317	96.167	0.238	-0.273
-615.303	-13.198	0.533	0.347
-614.288	-200.000	-0.032	0.371
-613.273	38.144	0.144	-0.128
-612.259	-160.548	-0.474	0.025
-611.244	-42.452	0.228	0.116
-610.230	61.370	-0.208	0.207
-609.215	105.168	0.147	-0.174
-608.201	-200.000	-0.091	-0.469
-607.186	-68.103	0.372	0.145
-606.171	633.489	0.119	-0.302
-605.157	800.000	-0.035	0.152
-604.142	800.000	-0.080	0.227
-603.128	12.941	-0.132	0.102
-602.113	800.000	-0.078	-0.304
-601.098	60.369	0.148	0.147
-600.084	800.000	-0.110	-0.324
-599.069	800.000	-0.077	0.322
-598.055	-146.694	-0.190	0.016
-597.040	-200.000	-0.009	0.107
-596.025	25.374	0.227	0.189
-595.011	147.271	-0.223	-0.300
-593.996	269.773	-0.023	-0.040
-592.982	25.701	0.183	0.152
-591.967	-19.666	0.160	0.099
-590.952	458.860	-0.085	0.189
-589.938	630.732	-0.047	0.118
-588.923	-200.000	-0.062	0.283
-587.909	68.758	0.075	-0.077
-586.894	-136.415	0.238	0.028
-585.879	-96.963	0.193	-0.051
-584.865	-74.138	-0.351	-0.127
-583.850	180.386	0.192	-0.282
-582.836	-31.386	0.215	0.121
-581.821	24.372	-0.221	0.183
-580.806	-0.375	-0.224	0.159
-579.792	-25.502	-0.201	-0.119
-578.777	64.387	0.164	-0.166
-577.763	-95.538	0.045	-0.012
-576.748	-143.793	-0.253	0.024
-575.733	-200.000	-0.005	0.295
-574.719	55.443	-0.256	-0.248
-573.704	-44.124	0.068	-0.034
-572.690	142.407	-0.200	0.265
-571.675	662.497	-0.094	0.242
-570.661	-115.823	0.162	-0.030
-569.646	120.752	-0.185	-0.230
-568.631	-200.000	0.025	0.154
-567.617	-29.923	-0.086	-0.049
-566.602	-144.368	-0.053	0.005
-565.588	-200.000	-0.305	0.000
-564.573	133.510	-0.259	-0.335
-563.558	-200.000	-0.008	0.177
-562.544	-200.000	0.007	-0.270
-561.529	181.324	0.223	0.328
-560.515	-47.534	-0.189	0.092
-559.500	-70.983	-0.227	0.085
-558.485	308.186	-0.088	0.164
-557.471	30.653	0.144	0.123
-556.456	133.942	-0.107	0.138
-555.442	-16.910	0.273	0.172
-554.427	293.917	0.088	0.160
-553.412	-178.929	-0.217	-0.005
-552.398	-200.000	-0.039	-0.218
-551.383	-132.472	0.309	-0.040
-550.369	-122.675	-0.139	-0.023
-549.354	0.156	-0.296	0.211
-548.339	-52.081	0.356	0.165
-547.325	19.519	0.235	-0.189
-546.310	-200.000	0.064	-0.567
-545.296	-53.064	0.339	-0.156
-544.281	-200.000	0.018	-0.216
-543.266	-88.752	-0.043	-0.013
-542.252	-200.000	-0.050	-0.222
-541.237	-200.000	0.021	0.126
-540.223	-12.104	-0.159	-0.104
-539.208	48.399	0.143	0.133
-538.193	159.714	0.020	0.027
-537.179	24.442	-0.003	-0.003
-536.164	143.882	0.085	0.114
-535.150	-27.404	-0.087	0.051
-534.135	-116.675	-0.313	0.057
-533.121	150.141	-0.177	-0.240
-532.106	-200.000	-0.022	-0.284
-531.091	-71.318	-0.064	-0.024
-530.077	-92.599	-0.187	-0.052
-529.062	-85.897	-0.159	0.049
-528.048	-33.628	0.311	0.171
-527.033	469.515	0.084	-0.189
-526.018	-119.693	0.106	-0.018
-525.004	29.916	0.132	0.113
-523.989	800.000	-0.049	0.176
-522.975	800.000	0.049	-0.188
-521.960	-181.698	0.117	0.002
-520.945	-132.249	-0.186	-0.024
-519.931	-200.000	0.020	-0.165
-518.916	-137.814	-0.131	-0.015
-517.902	-82.192	0.065	0.021
-516.887	-200.000	-0.027	0.288
-515.872	-200.000	-0.033	-0.179
-514.858	-35.880	-0.161	-0.087
-513.843	-200.000	0.003	-0.045
-512.829	-16.468	-0.226	-0.143
-511.814	-200.000	-0.048	-0.302
-510.799	-200.000	-0.022	0.356
-509.785	-33.442	0.177	0.098
-508.770	25.449	0.180	0.149
-507.756	-39.953	0.296	0.154
-506.741	-200.000	0.030	0.166
-505.726	-200.000	-0.004	-0.020
-504.712	800.000	-0.025	-0.098
-503.697	-174.198	-0.275	-0.008
-502.683	-88.838	-0.321	0.095
-501.668	-3.319	0.095	0.066
-500.653	-107.975	0.053	0.011
-499.639	-200.000	-0.016	-0.149
-498.624	800.000	0.093	-0.346
-497.610	287.547	-0.178	-0.321
-496.595	-200.000	-0.013	-0.074
-495.581	-24.772	0.041	-0.024
-494.566	-160.378	0.459	0.025
-493.551	-123.257	-0.137	0.022
-492.537	-75.092	-0.140	0.050
-491.522	2.185	0.068	-0.049
-490.508	800.000	-0.038	-0.147
-489.493	-200.000	-0.013	-0.129
-488.478	32.410	0.287	-0.247
-487.464	-200.000	0.028	0.199
-486.449	800.000	-0.085	-0.292
-485.435	-37.754	-0.154	0.082
-484.420	-106.094	0.365	0.082
-483.405	-98.214	-0.174	-0.045
-482.391	32.489	0.019	0.017
-481.376	-151.165	-0.197	0.015
-480.362	108.356	-0.112	0.133
-479.347	743.840	-0.121	-0.324
-478.332	-200.000	-0.037	-0.180
-477.318	-200.000	-0.048	0.310
-476.303	326.707	0.133	0.254
-475.289	-128.373	0.231	0.033
-474.274	379.213	0.050	-0.103
-473.259	48.580	0.230	0.215
-472.245	632.582	0.081	-0.204
-471.230	15.750	0.172	-0.135
-470.216	197.284	-0.163	0.247
-469.201	80.372	0.162	0.173
-468.186	-168.459	0.237	-0.009
-467.172	-138.995	0.046	-0.005
-466.157	-200.000	-0.008	0.052
-465.143	-1.727	-0.426	-0.298
-464.128	65.320	-0.204	-0.206
-463.113	90.529	0.132	-0.148
-462.099	-42.326	-0.266	-0.135
-461.084	-21.642	0.359	-0.218
-460.070	-200.000	0.024	-0.165
-459.055	-168.964	-0.064	0.002
-458.040	-117.886	0.265	0.047
-457.026	1.693	-0.282	0.202
-456.011	286.897	0.100	-0.179
-454.997	-200.000	-0.230	0.001
-453.982	71.776	0.063	-0.065
-452.968	800.000	0.070	0.240
-451.953	435.863	-0.089	-0.192
-450.938	-72.215	0.104	0.038
-449.924	-200.000	0.033	-0.154
-448.909	661.147	0.012	0.032
-447.895	800.000	-0.079	-0.331
-446.880	-200.000	-0.032	0.235
-445.865	-22.585	0.121	-0.073
-444.851	-83.563	-0.400	0.127
-443.836	751.083	-0.111	0.298
-442.822	25.981	-0.184	0.153
-441.807	-200.000	0.024	-0.189
-440.792	-92.389	-0.297	-0.083
-439.778	-43.844	-0.203	-0.102
-438.763	132.075	0.072	0.093
-437.749	-51.099	-0.170	-0.079
-436.734	-51.911	-0.037	0.017
-435.719	-6.063	0.109	0.074
-434.705	-139.570	-0.209	-0.022
-433.690	204.100	0.031	0.048
-432.676	-80.328	-0.303	0.101
-431.661	-68.821	-0.064	0.025
-430.646	-78.887	-0.239	-0.081
-429.632	663.008	0.062	0.158
-428.617	-162.280	0.524	0.026
-427.603	744.942	-0.147	0.394
-426.588	-78.380	0.163	0.055
-425.573	-200.000	-0.025	-0.136
-424.559	549.986	0.075	0.178
-423.544	-200.000	0.006	-0.041
-422.530	-6.821	0.048	-0.033
-421.515	280.757	-0.084	0.149
-420.500	-9.389	-0.149	0.099
-419.486	-200.000	-0.488	-0.001
-418.471	282.894	-0.096	-0.172
-417.457	182.789	0.166	0.243
-416.442	175.682	-0.111	0.161
-415.428	124.952	0.123	0.154
-414.413	195.841	-0.105	-0.159
-413.398	800.000	0.017	-0.051
-412.384	-200.000	0.028	-0.171
-411.369	-100.708	-0.293	0.072
-410.355	800.000	0.074	-0.268
-409.340	73.129	0.098	-0.102
-408.325	-200.000	-0.014	0.233
-407.311	116.797	0.103	0.126
-406.296	-55.210	0.078	0.035
-405.282	313.290	0.085	-0.158
-404.267	-125.799	-0.155	-0.023
-403.252	-200.000	-0.013	-0.081
-402.238	-200.000	-0.012	0.171
-401.223	-191.672	0.166	-0.002
-400.209	-27.762	-0.054	-0.031
-399.194	26.464	-0.205	0.170
-398.179	44.086	0.164	-0.149
-397.165	800.000	-0.064	0.251
-396.150	61.649	-0.114	0.113
-395.136	-24.997	0.195	0.115
-394.121	-16.138	0.121	-0.076
-393.106	209.725	-0.157	0.244
-392.092	35.773	-0.127	0.111
-391.077	116.658	-0.144	0.175
-390.063	789.512	0.058	-0.157
-389.048	-200.000	0.015	-0.286
-388.033	800.000	-0.017	-0.070
-387.019	305.487	-0.125	0.230
-386.004	800.000	-0.045	-0.142
-384.990	115.434	-0.150	-0.182
-383.975	-48.711	-0.356	-0.170
-382.960	-92.426	-0.205	0.057
-381.946	-106.203	0.234	0.052
-380.931	79.862	0.062	0.066
-379.917	-117.640	-0.153	0.027
-378.902	-200.000	0.001	-0.152
-377.888	-149.229	0.460	-0.036
-376.873	-18.904	-0.188	-0.116
-375.858	-5.428	0.111	-0.076
-374.844	27.364	-0.043	0.036
-373.829	-15.314	-0.207	-0.132
-372.815	-37.036	0.243	0.129
-371.800	97.751	0.026	-0.030
-370.785	-36.967	0.383	-0.204
-369.771	150.982	0.170	-0.230
-368.756	-43.848	-0.095	-0.047
-367.742	527.669	0.036	-0.083
-366.727	50.712	-0.088	0.082
-365.712	-200.000	0.075	0.385
-364.698	-122.287	0.064	-0.010
-363.683	-38.834	-0.383	-0.200
-362.669	800.000	-0.056	-0.209
-361.654	157.608	0.065	-0.089
-360.639	303.536	0.162	-0.297
-359.625	-200.000	-0.088	0.395
-358.610	-200.000	-0.043	0.187
-357.596	-200.000	-0.023	-0.105
-356.581	-85.808	0.309	-0.095
-355.566	-200.000	0.076	0.421
-354.552	-46.667	0.111	-0.054
-353.537	-17.486	-0.162	-0.101
-352.523	-200.000	-0.121	0.651
-351.508	-53.491	-0.279	0.127
-350.493	35.060	-0.263	0.228
-349.479	800.000	-0.134	-0.371
-348.464	-67.154	0.257	-0.100
-347.450	-200.000	0.021	-0.488
-346.435	-139.421	-0.141	-0.015
-345.420	124.111	0.206	0.257
-344.406	8.782	-0.333	-0.249
-343.391	-122.452	-0.149	-0.024
-342.377	-15.204	-0.245	0.155
-341.362	134.449	-0.120	0.154
-340.348	-200.000	0.011	-0.207
-339.333	98.551	-0.109	0.125
-338.318	-121.365	-0.152	0.025
-337.304	44.423	0.187	-0.170
-336.289	116.013	0.111	0.135
-335.275	-152.314	-0.083	0.006
-334.260	737.518	-0.059	0.156
-333.245	182.226	-0.153	-0.223
-332.231	-196.099	0.194	-0.001
-331.216	-64.887	0.232	-0.093
-330.202	-96.589	0.270	-0.071
-329.187	151.412	0.220	-0.297
-328.172	118.770	-0.295	-0.361
-327.158	-155.564	-0.188	-0.012
-326.143	800.000	0.086	0.346
-325.129	111.733	0.130	0.156
-324.114	16.008	0.247	-0.193
-323.099	-72.372	0.081	-0.030
-322.085	43.962	-0.027	0.025
-321.070	-167.240	-0.192	-0.008
-320.056	-182.272	-0.265	0.005
-319.041	-116.076	-0.166	0.031
-318.026	-200.000	0.048	-0.281
-317.012	81.341	0.218	0.233
-315.997	-49.445	-0.380	0.179
-314.983	-200.000	-0.055	0.376
-313.968	-14.312	0.168	0.107
-312.953	-137.428	0.211	-0.024
-311.939	97.789	-0.145	-0.165
-310.924	-200.000	-0.001	-0.128
-309.910	-100.937	0.141	-0.034
-308.895	-200.000	-0.029	-0.170
-307.880	339.796	-0.138	-0.266
-306.866	-200.000	0.004	-0.045
-305.851	800.000	-0.021	-0.077
-304.837	313.413	-0.158	-0.294
-303.822	39.280	0.476	0.422
-302.807	-106.346	-0.248	0.055
-301.793	-100.411	0.241	-0.059
-300.778	96.782	0.090	-0.103
-299.764	-93.648	-0.104	-0.028
-298.749	190.870	-0.233	-0.346
-297.735	58.407	-0.283	-0.275
-296.720	-200.000	-0.020	-0.209
-295.705	-136.452	0.378	-0.043
-294.691	93.162	-0.119	-0.133
-293.676	-93.211	0.148	0.041
-292.662	-100.344	-0.013	-0.003
-291.647	-69.322	-0.135	-0.051
-290.632	-75.652	-0.350	0.123
-289.618	27.950	-0.228	-0.190
-288.603	127.857	0.072	-0.091
-287.589	2.547	0.128	-0.092
-286.574	12.821	-0.214	0.164
-285.559	-152.976	0.187	-0.013
-284.545	20.581	0.511	-0.409
-283.530	451.113	0.016	-0.035
-282.516	-200.000	-0.012	0.201
-281.501	-69.902	0.173	-0.065
-280.486	403.787	0.121	-0.251
-279.472	-200.000	0.004	-0.353
-278.457	248.651	0.195	0.327
-277.443	194.190	-0.160	0.240
-276.428	603.924	-0.063	-0.155
-275.413	-20.778	0.077	-0.047
-274.399	-73.178	-0.093	0.034
-273.384	-37.869	-0.332	0.175
-272.370	-200.000	0.011	0.184
-271.355	-87.180	-0.152	-0.046
-270.340	213.885	-0.123	0.193
-269.326	800.000	0.059	-0.217
-268.311	28.798	0.109	0.092
-267.297	118.280	-0.081	-0.099
-266.282	109.393	0.094	0.111
-265.267	797.136	-0.054	-0.147
-264.253	-1.904	0.295	-0.205
-263.238	-25.920	-0.188	0.109
-262.224	641.132	-0.060	-0.152
-261.209	800.000	0.071	0.305
-260.195	-0.845	0.298	0.209
-259.180	88.439	0.178	0.195
-258.165	9.431	-0.055	-0.041
-257.151	-4.742	-0.207	0.141
-256.136	800.000	-0.088	0.375
-255.122	173.290	0.239	0.340
-254.107	49.183	-0.066	-0.062
-253.092	670.567	0.058	-0.147
-252.078	641.522	0.166	0.419
-251.063	89.951	-0.111	-0.122
-250.049	136.442	-0.024	0.031
-249.034	-164.291	0.268	0.012
-248.019	-134.529	-0.306	0.037
-247.005	41.784	0.136	0.122
-245.990	800.000	-0.113	0.328
-244.976	-84.303	-0.188	-0.059
-243.961	-36.730	0.186	0.098
-242.946	436.804	0.067	-0.143
-241.932	-200.000	0.011	-0.337
-240.917	-62.631	0.124	0.051
-239.903	800.000	0.084	-0.259
-238.888	9.233	0.153	-0.114
-237.873	-3.887	0.124	-0.085
-236.859	173.479	-0.135	0.193
-235.844	238.855	-0.044	-0.072
-234.830	778.436	-0.012	-0.031
-233.815	-46.713	-0.210	-0.102
-232.800	-142.761	-0.259	0.025
-231.786	-181.719	0.397	-0.008
-230.771	690.717	-0.074	-0.190
-229.757	108.775	0.301	0.355
-228.742	110.256	0.141	0.168
-227.727	81.089	-0.189	0.201
-226.713	205.378	0.105	0.160
-225.698	-47.409	-0.219	-0.105
-224.684	-74.815	-0.097	0.034
-223.669	234.436	0.037	-0.060
-222.655	-129.859	-0.162	-0.022
-221.640	548.642	-0.206	-0.486
-220.625	800.000	-0.016	-0.050
-219.611	181.748	0.027	-0.040
-218.596	-25.622	-0.085	0.049
-217.582	-63.718	0.341	0.138
-216.567	-79.523	0.109	0.036
-215.552	800.000	-0.039	0.129
-214.538	-3.459	-0.171	0.117
-213.523	24.131	0.099	0.081
-212.509	-152.570	0.160	-0.011
-211.494	-200.000	0.021	-0.184
-210.479	-124.526	-0.309	0.047
-209.465	796.773	-0.044	0.120
-208.450	-98.518	-0.323	0.081
-207.436	-69.470	0.138	-0.052
-206.421	-179.340	-0.129	0.003
-205.406	800.000	0.154	0.502
-204.392	132.126	0.036	0.045
-203.377	792.688	0.097	-0.262
-202.363	-5.822	0.135	-0.091
-201.348	232.901	0.070	-0.114
-200.333	195.580	-0.081	0.122
-199.319	695.061	0.055	0.142
-198.304	-99.041	0.275	0.069
-197.290	-62.462	0.194	0.079
-196.275	82.092	-0.165	-0.177
-195.260	90.837	0.290	0.321
-194.246	-62.691	0.111	0.046
-193.231	-38.846	0.254	-0.132
-192.217	103.902	0.155	-0.179
-191.202	-73.070	-0.082	0.030
-190.187	-1.034	0.284	0.198
-189.173	223.108	-0.100	-0.159
-188.158	-160.737	-0.201	0.011
-187.144	-200.000	0.001	0.113
-186.129	-200.000	0.044	-0.299
-185.114	11.182	-0.234	-0.176
-184.100	-200.000	0.007	0.159
-183.085	13.734	-0.319	0.244
-182.071	-46.486	0.131	0.063
-181.056	-5.228	0.333	-0.226
-180.042	641.863	0.090	-0.226
-179.027	200.533	0.165	0.249
-178.012	-200.000	-0.017	0.170
-176.998	-3.363	0.186	-0.128
-175.983	11.667	0.128	-0.096
-174.969	-41.702	0.120	0.061
-173.954	-131.946	0.103	-0.013
-172.939	6.084	0.233	-0.170
-171.925	-200.000	0.043	-0.416
-170.910	13.483	-0.251	-0.192
-169.896	206.287	0.090	0.138
-168.881	-127.487	-0.168	0.024
-167.866	635.568	0.099	-0.246
-166.852	505.570	-0.123	0.281
-165.837	151.323	0.126	0.169
-164.823	-80.538	0.353	0.116
-163.808	5.271	0.024	0.017
-162.793	796.829	0.148	0.402
-161.779	299.572	0.232	0.420
-160.764	800.000	-0.057	-0.232
-159.750	95.523	0.192	0.216
-158.735	800.000	-0.037	0.145
-157.720	-98.612	0.064	-0.016
-156.706	-200.000	0.006	0.072
-155.691	-94.759	-0.131	-0.035
-154.677	196.332	0.124	-0.186
-153.662	-101.120	0.291	-0.070
-152.647	57.246	-0.044	0.042
-151.633	-200.000	0.056	0.468
-150.618	-84.670	0.223	0.069
-149.604	-103.843	0.274	-0.063
-148.589	-200.000	-0.007	-0.132
-147.574	-186.895	0.151	0.002
-146.560	33.508	-0.236	-0.201
-145.545	234.466	0.161	0.261
-144.531	60.141	-0.219	0.213
-143.516	-134.607	0.124	-0.015
-142.502	-200.000	0.051	0.257
-141.487	163.706	0.020	-0.028
-140.472	-200.000	0.075	0.354
-139.458	-6.544	-0.096	-0.064
-138.443	348.496	-0.091	-0.176
-137.429	-200.000	-0.005	0.065
-136.414	4.258	0.057	-0.041
-135.399	348.498	0.116	-0.224
-134.385	430.260	-0.122	0.260
-133.370	13.379	-0.314	-0.239
-132.356	-36.906	-0.358	-0.189
-131.341	-89.163	0.343	0.100
-130.326	140.815	0.217	0.281
-129.312	45.997	0.143	-0.130
-128.297	304.942	-0.082	0.150
-127.283	590.660	-0.051	0.123
-126.268	125.250	-0.203	0.252
-125.253	154.086	0.112	-0.151
-124.239	27.696	-0.229	0.189
-123.224	-58.444	-0.394	0.168
-122.210	-68.109	-0.211	0.081
-121.195	-111.349	0.263	0.053
-120.180	-98.621	0.315	0.079
-119.166	-172.137	-0.173	-0.005
-118.151	-200.000	0.035	0.167
-117.137	526.116	-0.070	0.161
-116.122	-200.000	-0.011	0.158
-115.107	153.236	0.069	-0.093
-114.093	-122.412	0.363	0.058
-113.078	3.523	0.099	0.071
-112.064	-74.458	-0.132	0.047
-111.049	684.387	0.051	0.132
-110.034	190.618	-0.177	0.261
-109.020	51.103	0.209	-0.194
-108.005	-200.000	-0.071	-0.525
-106.991	-30.748	0.152	0.084
-105.976	-41.705	0.164	-0.083
-104.962	-75.951	0.129	-0.045
-103.947	660.735	-0.093	0.236
-102.932	-160.769	-0.114	-0.006
-101.918	-73.895	-0.320	0.114
-100.903	4.526	0.085	0.061
-99.889	2.135	-0.186	0.132
-98.874	-115.094	0.169	-0.031
-97.859	184.073	0.171	0.249
-96.845	-144.117	0.266	0.024
-95.830	-91.332	-0.073	-0.020
-94.816	21.903	-0.154	0.123
-93.801	-65.478	-0.194	0.077
-92.786	800.000	-0.032	0.108
-91.772	-34.482	-0.209	0.112
-90.757	800.000	-0.099	0.320
-89.743	800.000	0.086	-0.283
-88.728	-200.000	-0.012	-0.202
-87.713	-200.000	-0.014	0.119
-86.699	-200.000	-0.008	0.172
-85.684	800.000	0.062	-0.194
-84.670	-200.000	0.045	0.224
-83.655	-51.637	0.363	-0.166
-82.640	-13.526	-0.117	0.074
-81.626	800.000	0.072	0.218
-80.611	-53.706	-0.041	-0.018
-79.597	-160.063	0.174	-0.009
-78.582	-120.648	-0.181	-0.030
-77.567	233.032	0.235	0.379
-76.553	181.366	-0.137	0.197
-75.538	176.325	-0.040	0.057
-74.524	7.888	-0.115	0.085
-73.509	-137.770	0.202	0.022
-72.494	287.839	-0.191	0.339
-71.480	-12.210	-0.078	-0.050
-70.465	-32.083	-0.023	-0.013
-69.451	-92.237	-0.259	0.072
-68.436	156.486	-0.035	0.047
-67.422	-200.000	-0.034	0.215
-66.407	-175.846	-0.124	0.003
-65.392	-146.895	-0.119	-0.010
-64.378	800.000	0.046	0.178
-63.363	-49.594	0.151	0.071
-62.349	-105.908	-0.142	0.031
-61.334	27.343	-1.018	-0.839
-60.319	97.212	0.563	0.634
-59.305	800.000	-0.381	-1.290
-58.290	463.378	0.587	1.286
-57.276	800.000	0.510	1.656
-56.261	-200.000	99.895	618.131
-55.246	559.036	1433.585	3391.717
-54.232	186.336	2636.516	3845.547
-53.217	109.960	2277.318	2678.137
-52.203	40.314	1892.650	1669.097
-51.188	34.133	1680.417	1435.433
-50.173	31.499	1636.495	1378.472
-49.159	50.378	1686.714	1562.381
-48.144	51.173	1702.638	1583.009
-47.130	33.815	1661.504	1416.674
-46.115	30.988	1647.650	1383.856
-45.100	30.809	1642.882	1378.471
-44.086	30.784	1640.178	1375.964
-43.071	30.800	1637.468	1373.752
-42.057	30.791	1634.678	1371.295
-41.042	30.792	1633.233	1370.035
-40.027	30.856	1630.895	1368.486
-39.013	30.750	1629.303	1366.323
-37.998	30.739	1627.654	1364.804
-36.984	30.842	1626.396	1364.448
-35.969	30.899	1625.050	1363.680
-34.954	30.959	1622.689	1362.085
-33.940	30.933	1621.123	1360.523
-32.925	30.908	1619.469	1358.901
-31.911	30.887	1618.361	1357.763
-30.896	30.915	1616.238	1356.137
-29.881	30.923	1614.477	1354.662
-28.867	30.872	1612.679	1352.731
-27.852	30.859	1611.367	1351.481
-26.838	30.866	1609.640	1350.029
-25.823	30.902	1608.509	1349.286
-24.809	31.054	1607.235	1349.263
-23.794	30.969	1605.682	1347.292
-22.779	30.982	1604.054	1345.964
-21.765	30.956	1602.260	1344.221
-20.750	30.823	1601.125	1342.258
-19.736	30.973	1599.511	1341.933
-18.721	30.890	1598.115	1340.107
-17.706	30.902	1596.421	1338.720
-16.692	30.928	1594.758	1337.461
-15.677	30.877	1594.243	1336.612
-14.663	30.965	1592.373	1335.621
-13.648	30.932	1591.360	1334.477
-12.633	30.914	1589.680	1332.888
-11.619	30.868	1588.071	1331.157
-10.604	30.912	1586.152	1329.812
-9.590	30.996	1584.711	1329.149
-8.575	30.919	1584.289	1328.193
-7.560	31.061	1582.114	1327.331
-6.546	30.998	1581.529	1326.341
-5.531	30.883	1580.831	1324.885
-4.517	30.956	1579.543	1324.266
-3.502	30.796	1578.978	1322.605
-2.487	30.984	1576.407	1321.730
-1.473	30.682	1564.661	1309.707
-0.458	27.661	1545.441	1272.524
0.556	21.811	1544.915	1239.460
1.571	19.455	1569.206	1241.896
2.586	19.056	1582.943	1249.759
3.600	17.392	1530.380	1196.465
4.615	9.281	1421.064	1057.728
5.629	1.284	1357.070	959.594
6.644	-0.194	1348.723	944.321
7.659	-0.310	1347.138	942.394
8.673	-0.380	1346.002	941.077
9.688	-0.325	1344.188	940.072
10.702	-0.561	1341.209	936.434
11.717	2.463	1347.274	959.556
12.731	11.747	1364.430	1030.406
13.746	18.902	1376.221	1084.524
14.761	20.280	1377.458	1094.097
15.775	20.451	1377.609	1095.196
16.790	20.532	1376.806	1094.975
17.804	20.498	1376.345	1094.295
18.819	20.731	1375.976	1095.369
19.834	20.977	1375.079	1096.106
20.848	20.775	1375.072	1094.735
21.863	20.859	1373.789	1094.144
22.877	20.872	1372.859	1093.391
23.892	20.850	1371.887	1092.377
24.907	20.782	1371.549	1091.585
25.921	20.851	1370.341	1090.958
26.936	20.849	1369.255	1089.986
27.950	20.887	1368.235	1089.318
28.965	20.816	1367.219	1087.967
29.980	20.853	1366.113	1087.222
30.994	20.874	1364.511	1085.982
32.009	20.815	1363.770	1084.930
33.023	20.811	1362.636	1083.904
34.038	20.877	1361.142	1083.034
35.053	20.867	1359.981	1081.950
36.067	20.893	1358.807	1081.080
37.082	20.841	1358.339	1080.291
38.096	20.930	1356.978	1079.662
39.111	20.778	1356.936	1078.596
40.126	20.695	1356.154	1077.364
41.140	20.845	1355.466	1077.649
42.155	20.852	1355.057	1077.269
43.169	20.708	1355.217	1076.416
44.184	20.866	1354.368	1076.621
45.199	20.759	1354.123	1075.667
46.213	20.879	1353.270	1075.637
47.228	20.845	1352.967	1075.091
48.242	20.830	1351.133	1073.448
49.257	20.907	1350.067	1072.977
50.271	20.855	1348.873	1071.618
51.286	20.901	1347.504	1070.716
52.301	21.058	1345.437	1069.940
53.315	20.806	1345.250	1068.154
54.330	20.854	1344.576	1067.819
55.344	20.928	1343.170	1067.061
56.359	20.829	1342.170	1065.562
57.374	20.771	1341.813	1064.831
58.388	20.933	1341.052	1065.126
59.403	20.844	1340.614	1064.135
60.417	20.825	1340.018	1063.453
61.432	20.822	1338.985	1062.524
62.447	20.876	1338.173	1062.114
63.461	20.828	1336.902	1060.717
64.476	20.845	1336.332	1060.273
65.490	20.907	1334.174	1058.845
66.505	20.864	1333.556	1058.002
67.520	20.820	1331.991	1056.399
68.534	20.803	1330.999	1055.416
69.549	20.786	1330.250	1054.625
70.563	20.842	1328.903	1053.805
71.578	20.905	1327.970	1053.352
72.593	20.900	1326.776	1052.282
73.607	20.918	1326.353	1051.962
74.622	20.849	1325.749	1050.970
75.636	20.909	1324.538	1050.278
76.651	20.926	1323.960	1049.832
77.666	20.878	1323.558	1049.133
78.680	20.918	1323.145	1048.952
79.695	20.844	1322.154	1047.628
80.709	20.923	1321.575	1047.549
81.724	20.871	1320.358	1046.182
82.739	20.872	1319.458	1045.380
83.753	20.829	1318.648	1044.390
84.768	20.826	1317.555	1043.412
85.782	20.895	1316.307	1042.747
86.797	20.902	1314.845	1041.540
87.812	21.014	1313.703	1041.213
88.826	20.957	1312.800	1040.063
89.841	20.827	1311.942	1038.516
90.855	20.847	1311.362	1038.083
91.870	20.888	1310.004	1037.163
92.884	20.925	1309.406	1036.817
93.899	20.830	1308.787	1035.671
94.914	20.978	1307.634	1035.541
95.928	20.924	1306.448	1034.190
96.943	21.018	1305.906	1034.228
97.957	20.930	1305.314	1033.148
98.972	20.958	1304.648	1032.693
99.987	20.981	1303.534	1031.859
101.001	20.985	1302.192	1030.730
102.016	20.948	1301.761	1030.076
103.030	21.001	1300.499	1029.299
104.045	21.023	1299.867	1028.837
105.060	20.937	1298.662	1027.285
106.074	20.955	1297.836	1026.646
107.089	21.025	1296.250	1025.715
108.103	20.865	1295.657	1024.216
109.118	21.023	1294.270	1023.957
110.133	20.986	1292.821	1022.500
111.147	21.038	1291.894	1021.980
112.162	20.932	1290.574	1020.228
113.176	20.984	1289.520	1019.606
114.191	20.951	1288.760	1018.726
115.206	21.041	1287.292	1017.997
116.220	21.007	1286.523	1017.104
117.235	21.011	1285.670	1016.360
118.249	20.821	1285.458	1014.996
119.264	21.000	1284.236	1014.982
120.279	21.047	1282.871	1014.090
121.293	21.040	1282.371	1013.566
122.308	21.072	1281.114	1012.666
123.322	21.046	1280.414	1011.871
124.337	21.005	1279.310	1010.674
125.352	21.034	1278.496	1010.109
126.366	21.046	1277.517	1009.317
127.381	21.103	1276.466	1008.722
128.395	21.094	1275.726	1008.001
129.410	21.049	1275.123	1007.172
130.424	21.057	1274.005	1006.247
131.439	21.083	1272.657	1005.243
132.454	20.975	1272.318	1004.266
133.468	21.036	1272.034	1004.303
134.483	21.136	1271.045	1004.009
135.497	21.035	1269.996	1002.510
136.512	21.102	1268.995	1002.015
137.527	21.083	1268.094	1001.108
138.541	21.089	1266.068	999.455
139.556	21.021	1265.116	998.225
140.570	21.010	1264.397	997.508
141.585	21.000	1263.013	996.266
142.600	21.009	1261.777	995.256
143.614	20.992	1261.127	994.559
144.629	21.008	1260.304	993.913
145.643	20.946	1259.136	992.551
146.658	20.914	1257.867	991.282
147.673	20.995	1256.825	990.830
148.687	21.000	1256.154	990.244
149.702	20.905	1254.622	988.411
150.716	21.055	1253.664	988.415
151.731	21.017	1252.506	987.204
152.746	20.984	1251.970	986.503
153.760	21.154	1250.515	986.234
154.775	21.065	1249.732	985.024
155.789	21.118	1248.469	984.239
156.804	21.128	1247.430	983.390
157.819	20.999	1247.051	982.280
158.833	21.132	1245.997	982.112
159.848	21.153	1244.971	981.333
160.862	21.128	1244.570	980.787
161.877	21.121	1243.544	979.856
162.892	21.193	1242.550	979.388
163.906	21.137	1242.220	978.728
164.921	21.115	1241.559	977.997
165.935	21.256	1240.546	977.900
166.950	21.132	1240.224	976.868
167.964	21.143	1239.687	976.421
168.979	21.139	1239.247	975.962
169.994	21.174	1238.110	975.177
171.008	21.226	1237.428	974.847
172.023	21.162	1236.933	974.009
173.037	21.173	1236.212	973.420
174.052	21.198	1235.462	972.880
175.067	21.136	1235.025	972.109
176.081	21.113	1233.892	971.000
177.096	21.217	1232.712	970.565
178.110	21.162	1232.034	969.641
179.125	21.297	1230.747	969.287
180.140	21.210	1229.654	967.859
181.154	21.165	1229.010	967.016
182.169	21.123	1227.976	965.887
183.183	21.265	1226.665	965.556
184.198	21.347	1225.591	965.075
185.213	21.297	1224.874	964.149
186.227	21.238	1223.876	962.957
187.242	21.245	1223.011	962.228
188.256	21.256	1222.214	961.576
189.271	21.248	1221.254	960.694
190.286	21.432	1220.350	960.907
191.300	21.247	1220.141	959.642
192.315	21.316	1219.510	959.439
193.329	21.240	1219.363	958.821
194.344	21.171	1219.059	958.120
195.359	21.280	1218.531	958.219
196.373	21.187	1217.911	957.133
197.388	21.163	1217.754	956.794
198.402	21.204	1217.185	956.488
199.417	21.302	1216.534	956.431
200.432	21.307	1215.690	955.705
201.446	21.231	1215.402	954.983
202.461	21.300	1214.189	954.320
203.475	21.247	1213.666	953.534
204.490	21.228	1212.680	952.571
205.504	21.197	1211.778	951.609
206.519	21.379	1210.645	951.629
207.534	21.452	1209.353	950.924
208.548	21.281	1209.095	949.706
209.563	21.426	1207.735	949.342
210.577	21.296	1207.380	948.274
211.592	21.341	1206.505	947.748
212.607	21.373	1205.836	947.311
213.621	21.407	1204.897	946.675
214.636	21.370	1204.307	945.929
215.650	21.402	1203.552	945.420
216.665	21.357	1202.569	944.322
217.680	21.348	1201.412	943.285
218.694	21.299	1200.840	942.484
219.709	21.367	1200.042	942.140
220.723	21.453	1199.408	942.023
221.738	21.322	1198.515	940.536
222.753	21.280	1198.003	939.822
223.767	21.339	1197.401	939.589
224.782	21.393	1196.811	939.331
225.796	21.441	1196.260	939.070
226.811	21.544	1195.666	939.078
227.826	21.529	1194.753	938.193
228.840	21.532	1194.131	937.638
229.855	21.388	1193.937	936.631
230.869	21.531	1192.734	936.372
231.884	21.460	1191.947	935.292
232.899	21.496	1191.364	934.942
233.913	21.421	1191.371	934.467
234.928	21.617	1190.637	934.855
235.942	21.495	1189.831	933.486
236.957	21.677	1188.595	933.404
237.972	21.599	1188.404	932.756
238.986	21.540	1187.797	931.883
240.001	21.531	1187.597	931.597
241.015	21.618	1186.534	931.144
242.030	21.598	1185.886	930.444
243.045	21.652	1184.962	929.922
244.059	21.681	1183.663	928.977
245.074	21.635	1183.477	928.504
246.088	21.635	1182.754	927.855
247.103	21.665	1181.934	927.289
248.117	21.696	1180.970	926.616
249.132	21.725	1179.774	925.747
250.147	21.733	1180.101	925.964
251.161	21.723	1178.881	924.872
252.176	21.715	1178.506	924.453
253.190	21.755	1177.427	923.739
254.205	21.664	1176.983	922.825
255.220	21.696	1176.498	922.535
256.234	21.726	1176.004	922.221
257.249	21.719	1175.767	921.918
258.263	21.741	1174.778	921.177
259.278	21.735	1174.345	920.722
260.293	21.791	1173.544	920.311
261.307	21.786	1173.097	919.852
262.322	21.859	1172.451	919.643
263.336	21.721	1171.533	918.121
264.351	21.829	1171.443	918.534
265.366	21.756	1170.474	917.314
266.380	21.777	1170.061	917.016
267.395	21.887	1169.121	916.773
268.409	21.698	1168.976	915.593
269.424	21.845	1168.297	915.745
270.439	21.871	1167.520	915.192
271.453	21.894	1166.348	914.313
272.468	21.811	1165.773	913.346
273.482	21.928	1165.262	913.474
274.497	21.789	1165.073	912.523
275.512	21.928	1164.118	912.415
276.526	21.931	1163.552	911.909
277.541	21.693	1163.251	910.354
278.555	21.915	1162.626	910.941
279.570	21.893	1161.985	910.244
280.585	22.058	1160.492	909.847
281.599	22.054	1159.754	909.166
282.614	21.871	1159.125	907.647
283.628	21.835	1158.446	906.848
284.643	21.950	1157.375	906.526
285.657	22.038	1156.373	906.112
286.672	21.957	1155.496	904.927
287.687	21.999	1154.917	904.611
288.701	22.031	1154.351	904.251
289.716	22.094	1153.776	904.048
290.730	22.010	1153.052	902.967
291.745	22.019	1152.673	902.636
292.760	22.026	1151.787	901.899
293.774	22.030	1151.332	901.481
294.789	22.074	1150.607	901.062
295.803	22.118	1150.133	900.833
296.818	21.967	1149.706	899.646
297.833	22.105	1148.715	899.501
298.847	22.287	1147.829	899.656
299.862	22.058	1147.725	898.322
300.876	22.157	1146.540	897.821
301.891	22.130	1146.444	897.531
302.906	22.119	1145.854	896.935
303.920	22.229	1144.992	896.738
304.935	22.188	1144.084	895.739
305.949	22.164	1143.352	894.967
306.964	22.239	1142.818	894.850
307.979	22.169	1142.743	894.358
308.993	22.322	1141.933	894.422
310.008	22.271	1140.776	893.176
311.022	22.205	1140.662	892.673
312.037	22.249	1139.581	891.974
313.052	22.184	1138.510	890.725
314.066	22.247	1138.256	890.767
315.081	22.187	1136.955	889.369
316.095	22.199	1136.505	888.995
317.110	22.293	1136.005	889.003
318.125	22.299	1135.464	888.530
319.139	22.190	1134.771	887.357
320.154	22.398	1133.650	887.450
321.168	22.308	1133.379	886.710
322.183	22.392	1132.759	886.570
323.197	22.203	1132.436	885.286
324.212	22.307	1131.678	885.135
325.227	22.347	1131.060	884.776
326.241	22.462	1130.435	884.788
327.256	22.396	1129.861	883.929
328.270	22.364	1128.797	882.857
329.285	22.365	1128.361	882.441
330.300	22.481	1127.489	882.262
331.314	22.394	1126.546	881.012
332.329	22.312	1125.700	879.862
333.343	22.423	1124.991	879.787
334.358	22.398	1124.349	879.084
335.373	22.506	1123.647	878.992
336.387	22.474	1122.970	878.227
337.402	22.536	1122.317	877.944
338.416	22.426	1121.977	877.057
339.431	22.542	1121.133	876.893
340.446	22.419	1120.548	875.750
341.460	22.571	1119.760	875.810
342.475	22.714	1118.772	875.671
343.489	22.545	1117.830	874.015
344.504	22.581	1117.139	873.577
345.519	22.518	1116.433	872.639
346.533	22.731	1115.597	872.960
347.548	22.612	1115.001	871.828
348.562	22.609	1114.347	871.223
349.577	22.602	1113.978	870.823
350.592	22.594	1112.676	869.689
351.606	22.544	1112.233	869.022
352.621	22.630	1111.834	869.057
353.635	22.673	1111.052	868.578
354.650	22.612	1110.637	867.880
355.665	22.580	1110.186	867.291
356.679	22.611	1109.463	866.802
357.694	22.703	1108.513	866.434
358.708	22.695	1107.917	865.852
359.723	22.660	1107.338	865.152
360.738	22.597	1106.868	864.397
361.752	22.742	1105.976	864.338
362.767	22.766	1105.532	864.032
363.781	22.800	1105.123	863.802
364.796	22.774	1104.871	863.402
365.810	23.020	1103.858	863.733
366.825	22.738	1103.635	862.107
367.840	22.848	1103.055	862.113
368.854	22.817	1102.743	861.644
369.869	22.828	1101.668	860.778
370.883	22.985	1100.825	860.810
371.898	22.882	1100.487	859.966
372.913	22.880	1099.603	859.191
373.927	23.078	1098.740	859.402
374.942	22.915	1098.835	858.609
375.956	22.999	1098.064	858.338
376.971	22.817	1097.635	857.045
377.986	22.927	1096.922	856.945
379.000	23.047	1096.053	856.774
380.015	23.000	1095.647	856.152
381.029	22.885	1095.522	855.421
382.044	23.035	1094.324	855.135
383.059	23.005	1093.822	854.521
384.073	23.033	1093.437	854.280
385.088	23.014	1092.358	853.272
386.102	22.918	1091.752	852.259
387.117	23.034	1090.565	851.816
388.132	22.979	1089.627	850.743
389.146	23.062	1089.206	850.737
390.161	23.135	1088.403	850.388
391.175	23.125	1087.791	849.785
392.190	23.070	1087.646	849.331
393.205	23.082	1086.338	848.293
394.219	23.047	1086.200	847.942
395.234	23.142	1084.907	847.315
396.248	23.252	1083.733	846.848
397.263	23.157	1083.384	846.044
398.278	23.083	1082.910	845.245
399.292	23.256	1082.222	845.462
400.307	23.200	1081.427	844.498
401.321	23.230	1080.729	844.022
402.336	23.236	1080.283	843.628
403.350	23.165	1079.496	842.599
404.365	23.109	1079.072	841.929
405.380	23.228	1077.939	841.533
406.394	23.257	1077.556	841.298
407.409	23.298	1076.876	840.890
408.423	23.307	1075.736	839.966
409.438	23.364	1075.487	839.967
410.453	23.378	1074.757	839.393
411.467	23.298	1073.955	838.310
412.482	23.321	1073.616	838.083
413.496	23.410	1072.344	837.436
414.511	23.369	1072.256	837.098
415.526	23.343	1072.003	836.702
416.540	23.427	1071.377	836.537
417.555	23.390	1070.853	835.880
418.569	23.404	1069.971	835.183
419.584	23.500	1069.513	835.203
420.599	23.554	1069.184	835.128
421.613	149.421	1399.291	1798.516
422.628	137.646	1447.388	1798.601
