DTS Sentinel unit serial number:	SN413079Multiplexer serial number:	ORYXHardware model number:	OX4-SRSoftware version number:	ORYX F/W v4.00 Oryx Data Collector v3.7.2.0data status	okinstallation	princeton_trtdifferential loss correction	single-endedforward channel	channel 2reverse channel	N/Adate	2019/09/13time	20:27:34forward acquisition time	60.00reverse acquisition time	0.00gamma	496.2192k internal	0.2334k external	0.2334temperature offset calibration	1.0136default loss term (dB/km)	0.3790temperature slope calibration	1.0000multiplexer offset coefficient	1.0000multiplexer slope coefficient	1.0000fibre end	0.00T internal ref (°C)	29.16T ext. ref 1 (°C)	3.26T ext. ref 2 (°C)	23.65length (m)	temperature (°C)	Stokes	anti-Stokes-747.200	65.609	-0.104	0.106
-746.185	-200.000	-0.028	0.155
-745.171	-200.000	0.007	0.348
-744.156	-19.394	-0.294	-0.183
-743.142	-33.191	-0.036	-0.020
-742.127	-94.688	0.326	0.089
-741.112	-200.000	0.005	-0.261
-740.098	317.642	-0.244	0.463
-739.083	255.834	0.180	0.311
-738.069	28.922	-0.215	0.183
-737.054	-103.627	0.458	0.108
-736.039	72.506	-0.332	-0.348
-735.025	14.044	0.254	0.199
-734.010	-118.246	0.153	-0.027
-732.996	-70.286	-0.077	0.029
-731.981	196.211	-0.154	0.235
-730.966	-29.972	0.051	0.029
-729.952	-200.000	-0.022	-0.409
-728.937	114.602	-0.189	-0.232
-727.923	164.826	-0.073	0.103
-726.908	241.355	0.117	-0.197
-725.894	188.019	-0.135	-0.203
-724.879	84.637	-0.099	-0.109
-723.864	515.361	-0.018	0.043
-722.850	209.957	-0.217	0.342
-721.835	-6.817	-0.140	-0.096
-720.821	-150.871	0.144	0.011
-719.806	38.196	0.116	-0.104
-718.791	-142.814	0.248	0.024
-717.777	-143.642	-0.198	-0.019
-716.762	-102.118	-0.086	0.021
-715.748	269.523	0.179	-0.316
-714.733	147.339	0.069	-0.093
-713.718	-111.958	0.550	0.111
-712.704	604.828	-0.063	-0.157
-711.689	-50.606	-0.122	0.058
-710.675	-200.000	-0.014	0.106
-709.660	333.488	0.033	0.064
-708.645	-200.000	-0.005	0.061
-707.631	-129.455	-0.164	-0.023
-706.616	-15.328	0.195	-0.125
-705.602	-98.837	-0.209	0.053
-704.587	-200.000	-0.052	-0.233
-703.572	30.786	-0.222	-0.191
-702.558	-140.683	-0.105	-0.011
-701.543	66.366	-0.326	0.333
-700.529	-200.000	-0.006	-0.155
-699.514	17.437	-0.401	0.320
-698.499	273.379	-0.028	-0.049
-697.485	176.859	-0.209	0.305
-696.470	800.000	-0.027	-0.098
-695.456	1.957	-0.107	0.077
-694.441	800.000	0.112	0.370
-693.426	-57.126	0.156	0.069
-692.412	194.422	-0.129	0.196
-691.397	800.000	0.035	0.124
-690.383	26.830	-0.104	0.087
-689.368	-141.504	-0.175	0.018
-688.354	57.695	-0.183	-0.179
-687.339	-83.156	0.249	-0.080
-686.324	-85.289	0.137	0.043
-685.310	570.572	0.107	0.261
-684.295	-200.000	0.010	0.158
-683.281	46.702	0.217	0.202
-682.266	-54.274	0.120	0.055
-681.251	244.042	0.094	0.158
-680.237	-87.697	-0.159	-0.048
-679.222	-200.000	0.002	-0.124
-678.208	-18.143	-0.125	-0.079
-677.193	22.341	-0.114	0.093
-676.178	-174.134	0.255	-0.007
-675.164	-200.000	0.009	0.231
-674.149	-73.131	-0.324	-0.119
-673.135	-200.000	0.027	-0.195
-672.120	48.053	0.162	-0.152
-671.105	-57.818	-0.371	-0.163
-670.091	110.700	-0.157	-0.189
-669.076	-85.843	0.339	0.105
-668.062	-94.489	-0.113	-0.031
-667.047	13.861	0.145	0.113
-666.032	-20.602	-0.112	0.069
-665.018	-200.000	0.001	0.098
-664.003	-200.000	-0.009	-0.080
-662.989	-90.677	0.153	0.044
-661.974	-86.098	-0.115	0.036
-660.959	-109.267	0.030	0.006
-659.945	-200.000	-0.020	0.214
-658.930	-173.680	-0.285	-0.009
-657.916	-9.372	0.350	-0.234
-656.901	-200.000	-0.025	0.243
-655.886	-135.051	-0.273	-0.033
-654.872	76.187	0.228	-0.241
-653.857	800.000	0.013	0.053
-652.843	154.540	-0.084	-0.115
-651.828	-78.356	-0.286	0.098
-650.814	38.811	-0.163	0.145
-649.799	294.113	-0.074	-0.135
-648.784	-58.389	0.141	0.061
-647.770	134.419	-0.025	-0.033
-646.755	-85.240	0.107	0.034
-645.741	-10.782	0.074	0.049
-644.726	92.123	-0.062	0.070
-643.711	7.684	-0.149	-0.112
-642.697	-43.924	0.317	0.159
-641.682	-71.237	0.351	0.132
-640.668	131.241	-0.263	-0.338
-639.653	800.000	0.030	-0.111
-638.638	-200.000	0.009	-0.283
-637.624	-26.509	-0.280	0.164
-636.609	-46.353	-0.168	0.083
-635.595	9.833	0.077	0.058
-634.580	143.045	-0.132	0.176
-633.565	30.058	-0.132	0.113
-632.551	-200.000	0.011	0.202
-631.536	-100.427	-0.038	0.009
-630.522	-76.123	-0.354	0.125
-629.507	190.756	-0.122	0.184
-628.492	58.420	-0.291	0.285
-627.478	-86.929	0.109	-0.033
-626.463	33.425	0.099	0.086
-625.449	-200.000	-0.015	0.257
-624.434	-62.374	-0.215	-0.089
-623.419	-97.807	-0.154	-0.040
-622.405	37.064	0.179	0.158
-621.390	-84.253	0.129	0.041
-620.376	292.284	-0.124	0.225
-619.361	-200.000	-0.032	-0.173
-618.346	-122.812	0.094	-0.015
-617.332	-76.241	-0.320	-0.113
-616.317	-200.000	0.002	-0.171
-615.303	-109.117	-0.324	0.069
-614.288	348.678	-0.017	0.033
-613.273	-57.936	0.189	0.082
-612.259	108.535	-0.181	-0.216
-611.244	29.761	-0.154	0.131
-610.230	-200.000	0.012	0.090
-609.215	-26.690	0.226	0.132
-608.201	800.000	0.045	0.169
-607.186	129.461	0.138	-0.176
-606.171	-53.999	0.170	-0.077
-605.157	-195.532	-0.370	-0.003
-604.142	-72.788	0.351	-0.129
-603.128	-153.248	-0.256	0.018
-602.113	-57.675	-0.118	-0.052
-601.098	-27.774	0.321	0.186
-600.084	-89.248	-0.182	0.054
-599.069	800.000	-0.055	-0.234
-598.055	-200.000	-0.025	-0.204
-597.040	374.734	0.089	0.181
-596.025	-200.000	0.001	0.057
-595.011	-77.829	-0.242	-0.084
-593.996	298.318	0.110	-0.203
-592.982	84.584	-0.148	0.162
-591.967	-114.294	0.149	-0.029
-590.952	-176.466	0.343	0.009
-589.938	362.742	0.049	-0.098
-588.923	75.784	-0.234	-0.247
-587.909	133.212	-0.102	-0.132
-586.894	-136.939	-0.099	-0.011
-585.879	257.214	0.099	-0.170
-584.865	-91.599	0.185	-0.053
-583.850	-187.389	-0.060	0.001
-582.836	-24.562	-0.112	0.067
-581.821	97.239	0.090	-0.103
-580.806	-153.605	0.281	0.019
-579.792	-2.882	0.094	-0.065
-578.777	114.394	0.325	-0.396
-577.763	274.277	0.046	-0.081
-576.748	-118.248	0.149	-0.026
-575.733	56.944	0.167	0.163
-574.719	37.993	-0.096	0.085
-573.704	470.171	-0.121	0.272
-572.690	154.385	-0.081	-0.111
-571.675	374.812	0.130	0.264
-570.661	119.403	0.071	-0.088
-569.646	-200.000	-0.002	-0.387
-568.631	-0.082	0.111	0.079
-567.617	-200.000	0.030	0.207
-566.602	435.711	-0.085	-0.184
-565.588	-41.803	0.210	0.107
-564.573	-200.000	0.036	-0.236
-563.558	107.563	0.049	0.059
-562.544	93.261	-0.136	-0.154
-561.529	-59.964	-0.256	-0.109
-560.515	-25.890	-0.222	0.130
-559.500	-111.239	-0.171	-0.035
-558.485	800.000	0.076	-0.213
-557.471	-106.936	0.231	-0.051
-556.456	-21.091	-0.058	0.035
-555.442	14.649	0.026	0.020
-554.427	-126.913	-0.188	0.028
-553.412	126.228	-0.095	-0.120
-552.398	-200.000	-0.045	-0.256
-551.383	-188.168	-0.309	-0.004
-550.369	-59.159	-0.255	0.110
-549.354	-102.463	0.359	-0.086
-548.339	-119.943	0.242	0.041
-547.325	66.726	0.096	0.097
-546.310	5.006	-0.051	-0.037
-545.296	194.542	0.075	-0.114
-544.281	194.522	0.131	0.199
-543.266	-200.000	-0.022	-0.243
-542.252	25.264	0.028	-0.023
-541.237	36.394	0.210	0.184
-540.223	161.475	0.102	0.143
-539.208	800.000	-0.091	0.310
-538.193	47.139	0.139	0.129
-537.179	-86.482	0.344	-0.105
-536.164	-144.546	-0.167	0.015
-535.150	16.697	-0.206	-0.162
-534.135	-143.820	-0.092	-0.009
-533.121	-200.000	-0.011	0.126
-532.106	111.331	0.055	-0.066
-531.091	-4.690	0.025	0.017
-530.077	377.114	-0.032	0.065
-529.062	-38.157	-0.307	-0.162
-528.048	-200.000	0.018	0.154
-527.033	191.441	0.214	0.321
-526.018	-9.389	-0.119	0.079
-525.004	-65.480	0.147	0.059
-523.989	307.861	0.222	-0.412
-522.975	-47.936	-0.022	0.011
-521.960	-200.000	0.068	0.381
-520.945	-75.936	-0.445	0.157
-519.931	-60.565	0.051	0.021
-518.916	-200.000	0.025	-0.319
-517.902	-64.992	0.064	0.026
-516.887	800.000	0.025	-0.087
-515.872	14.153	-0.089	-0.069
-514.858	13.488	-0.265	-0.205
-513.843	23.009	0.278	-0.227
-512.829	322.555	0.016	0.030
-511.814	435.010	0.033	-0.072
-510.799	-200.000	0.037	-0.403
-509.785	-74.320	0.062	0.022
-508.770	800.000	-0.041	0.139
-507.756	-12.212	0.132	-0.086
-506.741	293.042	-0.093	0.169
-505.726	-200.000	0.009	0.159
-504.712	195.516	-0.149	-0.225
-503.697	256.900	0.262	-0.448
-502.683	-97.710	0.397	-0.102
-501.668	275.081	-0.061	0.107
-500.653	-47.779	-0.235	0.114
-499.639	800.000	0.035	0.112
-498.624	800.000	-0.034	-0.095
-497.610	-200.000	-0.000	0.034
-496.595	1.066	-0.100	-0.071
-495.581	800.000	0.032	-0.109
-494.566	39.213	0.144	0.128
-493.551	218.777	-0.149	-0.237
-492.537	-100.208	-0.211	0.052
-491.522	-28.053	0.113	-0.065
-490.508	34.156	-0.092	-0.079
-489.493	-200.000	-0.012	-0.310
-488.478	-90.901	0.659	0.189
-487.464	-200.000	-0.045	0.330
-486.449	-29.062	-0.400	-0.228
-485.435	-137.323	-0.481	-0.054
-484.420	-84.607	-0.188	0.059
-483.405	-23.669	-0.133	-0.079
-482.391	26.274	-0.077	0.064
-481.376	225.263	0.082	-0.132
-480.362	322.869	0.097	-0.184
-479.347	-200.000	-0.021	-0.181
-478.332	-167.363	-0.098	-0.004
-477.318	131.215	0.104	-0.133
-476.303	366.619	0.132	-0.264
-475.289	-200.000	-0.044	-0.195
-474.274	-81.513	0.163	0.053
-473.259	-114.298	-0.267	0.051
-472.245	-125.687	-0.065	0.010
-471.230	17.362	-0.162	-0.128
-470.216	234.852	0.058	0.095
-469.201	87.007	-0.263	0.289
-468.186	32.508	-0.190	0.163
-467.172	313.040	0.082	0.153
-466.157	384.227	0.117	0.240
-465.143	-200.000	-0.014	0.060
-464.128	739.559	0.162	-0.431
-463.113	-75.977	-0.248	-0.087
-462.099	-174.491	-0.185	-0.005
-461.084	-75.350	0.271	-0.096
-460.070	800.000	-0.010	0.042
-459.055	132.041	0.176	0.226
-458.040	211.005	-0.091	0.142
-457.026	6.154	0.323	0.238
-456.011	-78.658	0.163	0.055
-454.997	52.728	-0.183	-0.173
-453.982	-46.503	0.173	-0.084
-452.968	-181.529	0.189	0.004
-451.953	-124.483	0.162	0.025
-450.938	-24.965	-0.084	-0.050
-449.924	420.220	-0.032	0.069
-448.909	-200.000	-0.006	-0.219
-447.895	398.258	0.024	0.050
-446.880	101.945	-0.226	0.263
-445.865	-11.817	0.386	0.252
-444.851	171.743	-0.153	-0.218
-443.836	-200.000	0.099	0.530
-442.822	-199.453	0.449	0.002
-441.807	69.509	-0.176	-0.180
-440.792	15.899	0.212	0.166
-439.778	-117.467	-0.355	-0.064
-438.763	514.104	0.100	-0.232
-437.749	33.416	-0.109	-0.094
-436.734	-200.000	-0.036	-0.277
-435.719	100.725	0.266	-0.307
-434.705	56.658	0.077	0.074
-433.690	47.303	0.162	-0.150
-432.676	231.454	0.194	0.315
-431.661	73.243	-0.281	0.292
-430.646	147.587	-0.125	-0.167
-429.632	41.018	-0.122	0.109
-428.617	-183.637	0.508	-0.009
-427.603	-94.324	0.105	-0.029
-426.588	-6.020	-0.188	0.127
-425.573	64.255	-0.235	0.235
-424.559	-37.870	-0.132	-0.070
-423.544	-113.499	-0.113	-0.022
-422.530	-35.737	0.181	-0.097
-421.515	-98.382	0.320	0.081
-420.500	800.000	-0.030	-0.097
-419.486	-176.714	-0.237	-0.006
-418.471	-118.746	0.179	0.031
-417.457	360.984	0.026	0.052
-416.442	-127.315	-0.114	-0.017
-415.428	-100.173	-0.194	0.048
-414.413	-200.000	-0.005	0.185
-413.398	-114.441	-0.175	-0.033
-412.384	800.000	0.077	0.237
-411.369	-128.331	-0.055	0.008
-410.355	225.774	-0.166	-0.267
-409.340	-163.660	0.211	-0.010
-408.325	-200.000	0.017	0.221
-407.311	-15.932	-0.132	-0.083
-406.296	800.000	-0.044	-0.190
-405.282	184.807	0.179	-0.263
-404.267	115.751	-0.055	-0.067
-403.252	-200.000	0.032	0.161
-402.238	-24.717	-0.364	-0.215
-401.223	-200.000	-0.029	0.195
-400.209	-5.275	-0.156	0.106
-399.194	-200.000	-0.044	0.255
-398.179	36.935	0.295	0.259
-397.165	445.817	-0.035	0.076
-396.150	800.000	0.078	0.281
-395.136	45.722	0.141	0.129
-394.121	800.000	-0.088	-0.260
-393.106	105.954	0.103	0.121
-392.092	-200.000	-0.013	0.116
-391.077	570.441	-0.046	0.111
-390.063	97.946	-0.123	0.140
-389.048	-200.000	0.032	-0.320
-388.033	-200.000	-0.024	-0.204
-387.019	181.020	-0.131	-0.191
-386.004	137.499	0.287	-0.372
-384.990	449.312	0.066	0.145
-383.975	745.566	0.042	-0.111
-382.960	128.044	0.385	0.485
-381.946	60.236	0.231	-0.226
-380.931	-48.188	0.393	-0.188
-379.917	-186.134	-0.238	-0.003
-378.902	-200.000	-0.013	0.077
-377.888	-200.000	0.004	0.257
-376.873	32.495	0.153	-0.131
-375.858	7.564	0.065	0.048
-374.844	781.943	-0.082	0.223
-373.829	-92.252	-0.152	0.043
-372.815	-90.799	-0.155	-0.044
-371.800	-102.651	-0.212	-0.050
-370.785	-43.539	0.414	0.207
-369.771	82.458	-0.007	0.008
-368.756	-103.082	0.079	0.019
-367.742	235.789	0.122	0.200
-366.727	308.405	-0.052	0.096
-365.712	-159.022	0.137	0.008
-364.698	103.345	0.257	0.298
-363.683	800.000	-0.018	-0.076
-362.669	-110.690	-0.110	0.022
-361.654	487.205	-0.105	0.236
-360.639	-200.000	-0.016	0.204
-359.625	-49.511	0.172	-0.081
-358.610	-99.927	0.271	-0.067
-357.596	-136.076	-0.173	0.020
-356.581	-103.862	-0.420	-0.097
-355.566	63.012	-0.107	0.106
-354.552	-200.000	0.038	-0.317
-353.537	-159.216	-0.343	0.019
-352.523	440.334	0.110	0.237
-351.508	800.000	0.034	-0.128
-350.493	16.938	-0.115	0.090
-349.479	-36.681	-0.254	0.135
-348.464	-200.000	0.002	0.264
-347.450	-200.000	0.002	-0.360
-346.435	3.865	-0.146	-0.105
-345.420	-8.326	0.072	-0.048
-344.406	-30.670	0.082	-0.046
-343.391	800.000	-0.046	0.169
-342.377	12.744	-0.036	0.028
-341.362	24.410	0.066	-0.054
-340.348	-175.021	-0.201	0.006
-339.333	-200.000	-0.041	0.348
-338.318	-142.893	0.087	0.008
-337.304	-200.000	-0.002	-0.191
-336.289	-67.946	-0.211	0.081
-335.275	800.000	0.046	0.126
-334.260	173.815	-0.045	-0.064
-333.245	-194.515	-0.100	-0.001
-332.231	800.000	0.056	-0.208
-331.216	-38.150	-0.330	-0.173
-330.202	800.000	-0.123	-0.347
-329.187	-61.170	0.238	0.099
-328.172	-53.527	-0.275	-0.124
-327.158	-127.392	0.185	0.027
-326.143	-200.000	0.003	0.175
-325.129	-200.000	-0.009	-0.303
-324.114	-200.000	-0.067	-0.299
-323.099	-200.000	0.018	-0.181
-322.085	25.129	-0.281	0.231
-321.070	-200.000	-0.052	0.264
-320.056	800.000	0.095	-0.379
-319.041	494.527	0.074	0.168
-318.026	-126.611	-0.280	0.041
-317.012	54.900	0.160	0.153
-315.997	800.000	0.013	0.050
-314.983	800.000	-0.139	-0.559
-313.968	203.794	0.063	-0.097
-312.953	5.597	0.259	-0.189
-311.939	141.005	-0.096	0.126
-310.924	-78.369	0.220	0.075
-309.910	104.099	0.193	-0.224
-308.895	-152.307	-0.284	0.020
-307.880	-99.138	0.256	-0.064
-306.866	-134.544	-0.229	0.028
-305.851	-55.967	0.299	-0.132
-304.837	82.593	-0.094	-0.101
-303.822	800.000	0.026	0.091
-302.807	-48.083	-0.146	0.070
-301.793	-28.612	-0.199	0.114
-300.778	-200.000	0.021	0.161
-299.764	328.654	0.210	-0.399
-298.749	119.698	-0.208	0.254
-297.735	-74.326	-0.394	0.141
-296.720	65.443	0.140	0.140
-295.705	-90.500	0.088	-0.025
-294.691	-200.000	-0.011	-0.206
-293.676	-69.038	0.135	0.051
-292.662	-93.038	-0.291	-0.080
-291.647	-78.942	-0.229	0.077
-290.632	800.000	0.045	0.146
-289.618	-50.976	0.379	-0.176
-288.603	800.000	-0.073	-0.246
-287.589	132.636	0.227	-0.290
-286.574	800.000	-0.093	-0.277
-285.559	-200.000	0.020	0.118
-284.545	-16.744	-0.062	-0.039
-283.530	-120.442	0.171	0.029
-282.516	-39.274	-0.124	-0.064
-281.501	20.575	-0.103	0.082
-280.486	-139.817	0.430	0.045
-279.472	80.143	-0.197	0.210
-278.457	800.000	0.027	-0.100
-277.443	-90.927	0.145	-0.041
-276.428	70.359	-0.247	-0.252
-275.413	314.058	0.056	-0.104
-274.399	-200.000	0.004	0.168
-273.384	-200.000	-0.017	0.176
-272.370	-44.423	0.104	-0.051
-271.355	190.783	0.070	0.104
-270.340	66.759	0.078	-0.078
-269.326	-39.458	0.221	-0.114
-268.311	-20.535	0.291	0.176
-267.297	-53.724	0.142	-0.064
-266.282	91.555	0.117	-0.130
-265.267	-56.881	-0.105	-0.046
-264.253	241.232	0.167	0.275
-263.238	-25.064	-0.238	0.139
-262.224	-101.592	0.112	0.027
-261.209	-9.057	-0.078	0.051
-260.195	290.925	0.005	0.008
-259.180	-200.000	0.019	-0.108
-258.165	-200.000	0.018	-0.400
-257.151	-115.956	0.111	-0.020
-256.136	-200.000	0.014	-0.209
-255.122	110.471	-0.149	-0.177
-254.107	800.000	0.048	-0.158
-253.092	-113.962	0.086	-0.016
-252.078	-135.761	0.215	-0.025
-251.063	-200.000	-0.014	-0.091
-250.049	509.355	-0.011	-0.026
-249.034	-153.595	-0.075	0.005
-248.019	800.000	0.049	0.198
-247.005	-106.707	0.200	-0.044
-245.990	724.696	0.128	0.336
-244.976	-24.348	-0.060	0.035
-243.961	129.118	-0.329	0.414
-242.946	-200.000	-0.060	0.313
-241.932	85.104	0.075	-0.082
-240.917	800.000	-0.038	-0.154
-239.903	800.000	0.038	-0.119
-238.888	-200.000	0.025	-0.124
-237.873	-200.000	-0.048	-0.217
-236.859	800.000	0.076	-0.295
-235.844	-193.750	-0.226	0.002
-234.830	313.179	-0.087	0.162
-233.815	-200.000	0.008	-0.150
-232.800	-61.384	-0.126	0.052
-231.786	-26.892	-0.315	0.181
-230.771	-183.546	-0.257	0.004
-229.757	-124.408	-0.208	-0.032
-228.742	43.981	-0.100	-0.091
-227.727	-54.785	-0.333	0.148
-226.713	-167.844	-0.048	0.002
-225.698	-78.229	-0.231	-0.078
-224.684	284.604	0.003	0.005
-223.669	227.759	-0.079	-0.126
-222.655	79.414	-0.156	0.165
-221.640	-200.000	-0.106	-0.464
-220.625	-92.077	0.067	-0.019
-219.611	103.918	-0.150	0.173
-218.596	243.293	0.059	-0.098
-217.582	260.560	0.031	0.053
-216.567	31.881	-0.113	0.096
-215.552	-68.016	0.183	-0.070
-214.538	376.224	0.145	-0.290
-213.523	-47.338	0.313	0.150
-212.509	53.202	-0.155	-0.147
-211.494	800.000	-0.089	0.277
-210.479	48.534	0.262	0.242
-209.465	-74.558	-0.089	0.032
-208.450	13.226	-0.165	0.126
-207.436	231.556	0.148	0.239
-206.421	683.492	0.075	0.193
-205.406	440.077	0.107	0.230
-204.392	800.000	0.128	0.446
-203.377	-82.365	0.115	0.037
-202.363	-200.000	-0.015	-0.256
-201.348	-39.790	0.226	-0.116
-200.333	-30.284	-0.304	-0.170
-199.319	11.640	0.168	0.127
-198.304	-64.463	0.381	0.152
-197.290	128.471	-0.151	0.189
-196.275	-170.708	0.146	-0.005
-195.260	800.000	0.068	0.197
-194.246	-89.670	0.331	-0.096
-193.231	800.000	0.036	0.109
-192.217	151.015	0.155	-0.207
-191.202	-5.953	0.069	-0.047
-190.187	-200.000	-0.006	0.065
-189.173	27.010	0.349	0.288
-188.158	-156.032	-0.242	-0.015
-187.144	636.185	0.124	-0.309
-186.129	115.019	-0.211	-0.253
-185.114	-30.010	0.125	-0.070
-184.100	-143.299	0.208	-0.020
-183.085	392.442	0.185	0.378
-182.071	96.399	-0.211	0.238
-181.056	-118.334	-0.242	-0.042
-180.042	229.510	0.119	-0.191
-179.027	279.612	-0.096	-0.169
-178.012	-77.343	-0.261	-0.089
-176.998	-29.850	0.308	0.173
-175.983	800.000	0.037	0.120
-174.969	-31.174	-0.251	0.139
-173.954	-200.000	0.013	0.178
-172.939	-200.000	-0.037	0.338
-171.925	431.673	0.063	-0.134
-170.910	50.104	-0.237	0.220
-169.896	15.000	-0.239	-0.184
-168.881	-95.066	-0.149	-0.040
-167.866	508.751	0.016	-0.037
-166.852	-81.206	0.267	-0.087
-165.837	441.012	0.036	0.077
-164.823	-200.000	0.035	0.176
-163.808	800.000	-0.116	0.315
-162.793	287.679	0.082	-0.147
-161.779	-200.000	0.007	-0.517
-160.764	-52.846	0.241	0.109
-159.750	800.000	-0.052	-0.217
-158.735	3.957	0.149	-0.107
-157.720	-96.661	-0.195	-0.050
-156.706	-200.000	0.049	0.225
-155.691	194.015	0.082	0.122
-154.677	-44.386	-0.133	0.065
-153.662	-200.000	0.030	-0.184
-152.647	-145.215	0.038	0.003
-151.633	-200.000	-0.073	0.472
-150.618	90.375	0.085	0.093
-149.604	584.515	-0.068	-0.165
-148.589	693.998	0.050	-0.129
-147.574	28.695	-0.275	0.229
-146.560	-200.000	-0.009	-0.253
-145.545	-200.000	0.069	0.464
-144.531	-35.672	-0.043	-0.023
-143.516	-65.126	0.133	-0.053
-142.502	-200.000	-0.020	-0.109
-141.487	1.208	-0.299	-0.211
-140.472	180.892	-0.057	0.082
-139.458	547.556	-0.056	0.130
-138.443	-200.000	-0.102	-0.000
-137.429	-5.997	-0.203	-0.137
-136.414	-200.000	-0.039	-0.167
-135.399	-200.000	0.015	0.144
-134.385	472.302	-0.041	0.090
-133.370	-109.023	-0.363	0.076
-132.356	800.000	-0.067	0.269
-131.341	-200.000	-0.004	0.086
-130.326	-156.555	0.315	0.019
-129.312	-116.965	-0.209	-0.037
-128.297	322.819	0.131	0.244
-127.283	-174.089	-0.246	-0.007
-126.268	59.954	-0.119	-0.115
-125.253	62.317	-0.041	-0.040
-124.239	417.066	-0.076	0.160
-123.224	-66.311	0.428	0.167
-122.210	-124.847	0.061	0.009
-121.195	0.282	-0.203	-0.142
-120.180	-122.229	-0.164	-0.026
-119.166	-77.446	-0.353	0.120
-118.151	-23.795	0.130	0.076
-117.137	-98.755	0.294	0.073
-116.122	-93.080	0.134	0.037
-115.107	204.209	-0.069	-0.105
-114.093	800.000	-0.038	0.104
-113.078	-120.495	-0.173	-0.029
-112.064	-87.706	0.404	-0.119
-111.049	33.452	0.136	0.116
-110.034	36.330	-0.073	-0.063
-109.020	800.000	0.117	0.318
-108.005	-96.299	-0.191	-0.050
-106.991	800.000	-0.124	-0.340
-105.976	53.257	0.105	-0.098
-104.962	-95.466	-0.256	0.067
-103.947	39.160	0.271	-0.238
-102.932	-123.879	0.256	-0.040
-101.918	-85.239	-0.146	-0.045
-100.903	506.217	-0.045	-0.102
-99.889	482.691	0.067	0.150
-98.874	-143.385	-0.138	-0.013
-97.859	-16.384	-0.076	-0.047
-96.845	800.000	0.058	-0.163
-95.830	800.000	0.095	-0.393
-94.816	425.629	-0.144	0.305
-93.801	172.721	0.073	0.103
-92.786	-139.718	0.216	-0.022
-91.772	-200.000	0.009	-0.280
-90.757	-200.000	-0.053	-0.267
-89.743	800.000	0.064	-0.274
-88.728	46.727	0.109	0.099
-87.713	-22.328	-0.241	0.143
-86.699	-4.368	0.086	0.058
-85.684	-200.000	-0.017	0.118
-84.670	800.000	-0.032	-0.113
-83.655	65.551	0.259	0.257
-82.640	-200.000	-0.023	-0.195
-81.626	255.500	-0.127	-0.214
-80.611	-200.000	-0.019	-0.127
-79.597	-101.438	0.053	0.013
-78.582	800.000	-0.005	0.016
-77.567	-163.338	-0.166	-0.008
-76.553	-200.000	-0.046	0.353
-75.538	800.000	-0.061	-0.201
-74.524	20.426	0.046	-0.037
-73.509	-200.000	0.009	-0.052
-72.494	175.462	-0.216	0.307
-71.480	332.421	0.234	-0.443
-70.465	-78.987	0.213	-0.071
-69.451	-22.853	0.280	0.165
-68.436	-200.000	-0.056	0.240
-67.422	-59.002	0.259	0.109
-66.407	9.868	-0.176	-0.131
-65.392	-64.306	-0.252	-0.101
-64.378	154.539	0.065	0.088
-63.363	-105.508	0.133	0.029
-62.349	70.662	-0.143	-0.145
-61.334	76.196	-0.748	-0.775
-60.319	220.070	0.292	0.458
-59.305	800.000	-0.339	-1.179
-58.290	518.347	0.549	1.257
-57.276	385.105	0.669	1.349
-56.261	-200.000	111.823	642.212
-55.246	533.044	1515.122	3510.233
-54.232	177.049	2700.024	3844.695
-53.217	106.624	2282.813	2649.595
-52.203	38.585	1891.291	1650.437
-51.188	32.554	1681.462	1421.910
-50.173	29.860	1638.904	1366.004
-49.159	49.920	1694.861	1563.780
-48.144	49.753	1709.600	1576.069
-47.130	31.903	1666.949	1404.533
-46.115	29.197	1651.879	1371.665
-45.100	29.070	1646.801	1366.456
-44.086	29.099	1644.111	1364.385
-43.071	28.947	1641.591	1361.109
-42.057	28.926	1639.500	1359.168
-41.042	29.028	1637.078	1357.862
-40.027	28.944	1635.436	1355.824
-39.013	29.015	1633.519	1354.705
-37.998	29.015	1631.542	1353.013
-36.984	29.058	1630.536	1352.438
-35.969	29.117	1629.296	1351.794
-34.954	29.177	1627.315	1350.535
-33.940	29.078	1625.671	1348.388
-32.925	29.156	1623.865	1347.410
-31.911	29.169	1622.650	1346.441
-30.896	29.180	1620.680	1344.836
-29.881	29.131	1619.121	1343.133
-28.867	29.081	1618.345	1342.069
-27.852	29.118	1616.457	1340.718
-26.838	29.161	1614.564	1339.407
-25.823	29.203	1613.326	1338.631
-24.809	29.172	1612.305	1337.507
-23.794	29.135	1610.637	1335.804
-22.779	29.180	1609.308	1334.978
-21.765	29.121	1607.628	1333.098
-20.750	29.167	1605.641	1331.736
-19.736	29.304	1604.102	1331.394
-18.721	29.205	1603.379	1330.028
-17.706	29.174	1602.356	1328.901
-16.692	29.181	1600.343	1327.232
-15.677	29.261	1598.393	1326.134
-14.663	29.256	1597.476	1325.282
-13.648	29.210	1596.168	1323.817
-12.633	29.138	1594.412	1321.793
-11.619	29.240	1592.594	1320.965
-10.604	29.198	1591.357	1319.587
-9.590	29.204	1590.565	1318.919
-8.575	29.235	1589.275	1318.019
-7.560	29.149	1588.063	1316.345
-6.546	29.172	1587.018	1315.589
-5.531	29.193	1585.305	1314.267
-4.517	29.068	1585.049	1313.112
-3.502	29.139	1583.717	1312.463
-2.487	29.311	1581.414	1311.723
-1.473	28.801	1570.705	1299.186
-0.458	25.707	1550.663	1260.923
0.556	23.007	1551.484	1227.785
1.571	20.418	1575.815	1228.635
2.586	20.023	1587.808	1235.065
3.600	17.531	1533.648	1175.645
4.615	10.339	1426.162	1046.822
5.629	4.286	1366.015	965.017
6.644	3.260	1358.500	953.272
7.659	3.250	1357.308	952.289
8.673	3.263	1356.839	951.959
9.688	3.278	1355.200	950.817
10.702	3.340	1352.054	948.911
11.717	5.983	1357.149	968.725
12.731	13.702	1370.693	1026.243
13.746	19.771	1380.464	1071.179
14.761	20.882	1381.706	1078.930
15.775	20.024	1379.661	1071.932
16.790	19.091	1376.735	1063.797
17.804	18.393	1374.256	1057.484
18.819	18.060	1373.045	1054.403
19.834	17.881	1371.942	1052.358
20.848	17.629	1371.236	1050.171
21.863	17.580	1369.788	1048.664
22.877	17.361	1369.109	1046.706
23.892	17.298	1368.197	1045.530
24.907	17.273	1367.211	1044.531
25.921	17.351	1366.005	1043.996
26.936	17.397	1365.048	1043.450
27.950	17.379	1364.652	1042.946
28.965	17.591	1363.328	1043.142
29.980	17.612	1362.194	1042.309
30.994	17.682	1361.246	1041.920
32.009	17.781	1359.629	1041.196
33.023	17.656	1358.779	1039.688
34.038	17.542	1357.803	1038.155
35.053	17.523	1356.175	1036.706
36.067	17.496	1355.201	1035.706
37.082	17.481	1354.311	1034.840
38.096	17.695	1352.897	1034.969
39.111	17.726	1352.723	1034.932
40.126	17.566	1351.317	1032.794
41.140	17.392	1350.521	1031.040
42.155	17.245	1349.314	1029.137
43.169	17.144	1349.479	1028.560
44.184	17.109	1349.303	1028.120
45.199	17.232	1348.686	1028.305
46.213	17.258	1348.426	1028.173
47.228	17.437	1347.912	1028.771
48.242	17.504	1346.481	1027.992
49.257	17.413	1344.985	1026.213
50.271	17.519	1343.388	1025.541
51.286	17.521	1342.086	1024.465
52.301	17.463	1340.934	1023.147
53.315	17.220	1340.294	1021.108
54.330	17.385	1338.299	1020.488
55.344	17.254	1337.643	1019.114
56.359	17.291	1336.662	1018.500
57.374	17.199	1335.528	1016.993
58.388	17.064	1335.278	1015.905
59.403	17.058	1334.709	1015.349
60.417	17.018	1333.725	1014.267
61.432	17.117	1332.621	1013.931
62.447	16.933	1331.757	1012.084
63.461	16.978	1330.537	1011.339
64.476	16.948	1329.342	1010.163
65.490	16.988	1327.890	1009.208
66.505	16.927	1326.845	1007.960
67.520	16.874	1325.405	1006.465
68.534	17.003	1324.526	1006.471
69.549	17.019	1323.589	1005.767
70.563	17.023	1322.063	1004.543
71.578	16.887	1321.125	1002.932
72.593	16.667	1320.706	1001.228
73.607	16.810	1319.504	1001.073
74.622	16.933	1318.801	1001.174
75.636	16.862	1318.539	1000.471
76.651	16.817	1317.758	999.522
77.666	16.839	1317.313	999.228
78.680	16.995	1316.638	999.546
79.695	16.963	1316.164	998.911
80.709	17.140	1315.334	999.230
81.724	17.095	1314.738	998.428
82.739	17.187	1313.702	998.090
83.753	17.449	1312.454	998.589
84.768	17.495	1312.294	998.652
85.782	17.649	1310.729	998.276
86.797	17.561	1309.715	996.898
87.812	17.474	1308.705	995.533
88.826	17.507	1306.829	994.212
89.841	17.532	1306.082	993.698
90.855	17.637	1305.502	993.781
91.870	17.673	1304.427	993.089
92.884	17.659	1303.869	992.492
93.899	17.770	1302.723	992.180
94.914	17.714	1302.114	991.299
95.928	17.698	1301.563	990.703
96.943	17.571	1300.678	989.205
97.957	17.641	1299.236	988.425
98.972	17.572	1298.714	987.540
99.987	17.563	1297.638	986.583
101.001	17.571	1296.458	985.645
102.016	17.635	1295.435	985.148
103.030	17.652	1294.538	984.476
104.045	17.542	1293.840	983.225
105.060	17.385	1292.583	981.275
106.074	17.229	1290.852	978.980
107.089	16.986	1289.451	976.428
108.103	16.964	1288.166	975.242
109.118	17.046	1286.743	974.553
110.133	16.958	1285.826	973.263
111.147	16.980	1284.401	972.227
112.162	16.985	1283.358	971.380
113.176	17.052	1281.976	970.632
114.191	17.098	1281.332	970.323
115.206	17.131	1279.692	969.184
116.220	17.128	1278.537	968.205
117.235	17.116	1277.401	967.192
118.249	17.071	1276.760	966.362
119.264	17.074	1275.553	965.380
120.279	16.991	1274.442	963.982
121.293	17.060	1273.146	963.311
122.308	16.927	1272.245	961.786
123.322	16.879	1271.160	960.609
124.337	16.965	1270.175	960.270
125.352	16.795	1269.151	958.449
126.366	16.767	1268.141	957.442
127.381	16.848	1267.086	957.020
128.395	16.741	1266.292	955.730
129.410	16.897	1265.290	955.766
130.424	17.124	1263.958	955.956
131.439	17.024	1263.742	955.145
132.454	17.090	1262.622	954.587
133.468	17.128	1261.694	954.014
134.483	17.056	1261.337	953.255
135.497	17.235	1259.834	953.040
136.512	17.163	1258.867	951.820
137.527	17.201	1257.706	951.068
138.541	17.237	1256.013	949.905
139.556	17.241	1254.899	949.002
140.570	17.393	1254.330	949.333
141.585	17.327	1253.463	948.226
142.600	17.493	1251.785	947.795
143.614	17.646	1250.765	947.794
144.629	17.664	1249.739	947.029
145.643	17.737	1248.437	946.364
146.658	17.416	1247.678	943.926
147.673	17.296	1246.455	942.254
148.687	17.205	1244.949	940.529
149.702	17.240	1243.514	939.553
150.716	17.219	1242.281	938.424
151.731	17.292	1241.074	937.833
152.746	17.301	1239.914	936.918
153.760	17.304	1239.140	936.268
154.775	17.316	1238.134	935.493
155.789	17.660	1236.399	935.991
156.804	17.377	1236.348	934.311
157.819	17.438	1235.313	933.783
158.833	17.579	1234.455	933.825
159.848	17.750	1233.313	933.817
160.862	17.740	1232.294	932.906
161.877	17.444	1231.291	930.445
162.892	17.258	1230.009	928.377
163.906	17.285	1228.747	927.490
164.921	17.247	1228.529	927.036
165.935	17.432	1227.365	927.088
166.950	17.416	1226.812	926.497
167.964	17.513	1225.958	926.299
168.979	17.425	1225.364	925.287
169.994	17.392	1224.989	924.747
171.008	17.399	1223.991	923.949
172.023	17.615	1222.799	924.140
173.037	17.759	1222.105	924.312
174.052	17.638	1221.366	923.018
175.067	17.439	1219.924	920.766
176.081	17.268	1219.160	919.187
177.096	17.241	1218.369	918.365
178.110	17.335	1217.376	918.038
179.125	17.417	1215.869	917.267
180.140	17.380	1215.189	916.473
181.154	17.512	1214.044	916.237
182.169	17.652	1212.573	915.797
183.183	17.692	1211.721	915.288
184.198	17.718	1211.022	914.818
185.213	17.762	1209.398	913.744
186.227	17.792	1208.260	912.969
187.242	17.807	1207.246	912.201
188.256	17.882	1206.788	912.174
189.271	17.876	1205.311	910.947
190.286	17.758	1204.188	909.385
191.300	17.290	1203.715	906.456
192.315	17.187	1202.679	905.045
193.329	17.353	1201.938	905.288
194.344	17.370	1201.499	904.971
195.359	17.623	1200.715	905.647
196.373	17.622	1200.342	905.279
197.388	17.735	1199.970	905.519
198.402	17.876	1199.875	906.117
199.417	17.998	1198.772	905.845
200.432	17.988	1198.227	905.304
201.446	18.179	1197.603	905.765
202.461	18.272	1196.569	905.395
203.475	18.216	1195.869	904.488
204.490	18.098	1194.298	902.596
205.504	17.859	1193.231	900.447
206.519	17.862	1191.779	899.289
207.534	17.681	1190.885	897.584
208.548	17.830	1189.774	897.450
209.563	17.782	1188.999	896.532
210.577	17.911	1188.082	896.441
211.592	18.061	1187.418	896.645
212.607	18.112	1186.382	896.053
213.621	18.090	1185.339	895.069
214.636	17.998	1185.008	894.260
215.650	18.018	1184.510	893.911
216.665	18.061	1183.376	893.197
217.680	18.393	1182.014	893.826
218.694	18.362	1181.141	892.922
219.709	18.174	1181.050	891.798
220.723	18.129	1180.035	890.715
221.738	18.284	1179.282	890.876
222.753	18.172	1178.596	889.694
223.767	18.150	1178.170	889.183
224.782	18.273	1177.444	889.192
225.796	18.406	1176.951	889.432
226.811	18.375	1176.159	888.595
227.826	18.169	1175.606	887.032
228.840	18.213	1174.441	886.299
229.855	18.107	1174.236	885.517
230.869	18.241	1172.899	885.127
231.884	18.114	1171.828	883.580
232.899	18.138	1171.191	883.148
233.913	17.968	1170.719	881.835
234.928	18.059	1169.492	881.303
235.942	17.984	1169.065	880.517
236.957	18.148	1168.039	880.508
237.972	18.102	1167.446	879.747
238.986	18.031	1166.706	878.750
240.001	18.093	1166.356	878.723
241.015	18.271	1164.889	878.454
242.030	18.122	1164.751	877.512
243.045	18.180	1164.005	877.165
244.059	18.284	1162.896	876.789
245.074	18.314	1162.277	876.397
246.088	18.223	1161.618	875.356
247.103	18.413	1160.729	875.580
248.117	18.452	1160.560	875.572
249.132	18.717	1159.596	876.120
250.147	18.869	1159.259	876.564
251.161	19.037	1158.190	876.535
252.176	18.964	1157.524	875.583
253.190	19.065	1156.883	875.532
254.205	19.054	1157.022	875.505
255.220	19.094	1156.186	875.001
256.234	18.968	1155.800	873.991
257.249	19.119	1154.329	873.568
258.263	19.050	1153.957	872.858
259.278	18.974	1153.438	872.004
260.293	18.930	1152.951	871.332
261.307	19.085	1152.295	871.544
262.322	19.166	1151.498	871.276
263.336	19.098	1150.986	870.469
264.351	19.189	1150.254	870.297
265.366	19.256	1149.298	869.834
266.380	19.216	1148.929	869.277
267.395	19.120	1147.718	867.798
268.409	19.133	1146.786	867.081
269.424	19.026	1146.258	866.067
270.439	18.991	1145.754	865.434
271.453	19.002	1144.943	864.802
272.468	18.898	1143.936	863.443
273.482	18.862	1143.328	862.726
274.497	18.913	1142.854	862.546
275.512	18.842	1142.064	861.517
276.526	18.953	1141.242	861.380
277.541	19.110	1139.826	861.017
278.555	19.003	1139.999	860.539
279.570	19.134	1139.143	860.469
280.585	19.274	1138.480	860.594
281.599	19.247	1137.753	859.834
282.614	19.227	1136.390	858.625
283.628	19.000	1135.787	856.966
284.643	19.220	1134.270	856.840
285.657	19.127	1133.723	855.889
286.672	19.116	1132.853	855.101
287.687	19.172	1131.588	854.347
288.701	19.028	1131.525	853.512
289.716	19.175	1130.753	853.579
290.730	19.153	1129.817	852.691
291.745	19.308	1128.882	852.674
292.760	19.196	1128.628	851.854
293.774	19.274	1128.066	851.742
294.789	19.365	1127.631	851.783
295.803	19.479	1126.974	851.775
296.818	19.256	1125.837	849.741
297.833	19.198	1125.304	848.978
298.847	19.181	1124.221	848.002
299.862	19.159	1123.851	847.539
300.876	19.336	1122.993	847.690
301.891	19.328	1122.300	847.049
302.906	19.402	1122.001	847.115
303.920	19.560	1120.742	846.863
304.935	19.613	1120.800	847.095
305.949	19.759	1119.905	847.058
306.964	19.810	1119.046	846.579
307.979	19.700	1118.496	845.552
308.993	19.551	1117.653	844.110
310.008	19.668	1117.014	844.124
311.022	19.708	1116.213	843.640
312.037	19.704	1115.402	842.933
313.052	19.515	1114.440	841.212
314.066	19.409	1113.240	839.717
315.081	19.307	1112.670	838.714
316.095	19.279	1112.107	838.082
317.110	19.321	1111.174	837.509
318.125	19.369	1110.524	837.177
319.139	19.322	1109.694	836.250
320.154	19.256	1109.440	835.661
321.168	19.311	1108.887	835.440
322.183	19.306	1108.359	834.942
323.197	19.362	1107.892	834.787
324.212	19.554	1106.655	834.710
325.227	19.583	1106.163	834.407
326.241	19.405	1105.945	833.306
327.256	19.522	1104.762	832.905
328.270	19.476	1103.378	831.567
329.285	19.507	1102.679	831.118
330.300	19.530	1101.945	830.604
331.314	19.342	1101.298	829.137
332.329	19.528	1099.640	828.705
333.343	19.528	1099.289	828.371
334.358	19.757	1098.534	828.824
335.373	19.657	1098.237	828.050
336.387	19.706	1097.373	827.558
337.402	19.664	1096.478	826.608
338.416	19.785	1096.089	826.819
339.431	19.852	1095.391	826.542
340.446	19.969	1094.814	826.591
341.460	20.147	1094.152	826.868
342.475	20.088	1093.730	826.196
343.489	20.055	1092.931	825.361
344.504	20.216	1091.834	825.228
345.519	20.113	1090.992	824.026
346.533	20.218	1089.743	823.510
347.548	20.327	1089.354	823.660
348.562	20.234	1088.579	822.561
349.577	20.146	1087.486	821.245
350.592	19.943	1087.065	819.894
351.606	19.917	1085.833	818.768
352.621	19.810	1085.514	817.946
353.635	19.808	1084.498	817.103
354.650	19.766	1083.987	816.444
355.665	19.834	1083.443	816.286
356.679	19.973	1082.726	816.329
357.694	20.075	1082.241	816.371
358.708	20.180	1081.688	816.376
359.723	20.067	1081.059	815.297
360.738	20.125	1080.367	814.976
361.752	20.068	1079.989	814.351
362.767	20.185	1079.434	814.410
363.781	20.147	1078.516	813.467
364.796	20.202	1078.182	813.402
365.810	20.400	1077.821	813.985
366.825	20.524	1076.902	813.799
367.840	20.485	1077.213	813.779
368.854	20.572	1076.084	813.260
369.869	20.541	1075.222	812.391
370.883	20.495	1074.569	811.612
371.898	20.340	1073.854	810.279
372.913	20.311	1073.519	809.815
373.927	20.455	1072.508	809.657
374.942	20.627	1072.340	810.258
375.956	20.504	1071.465	808.951
376.971	20.581	1070.805	808.738
377.986	20.642	1070.228	808.515
379.000	20.787	1069.816	808.808
380.015	20.795	1069.418	808.471
381.029	20.882	1068.514	808.118
382.044	20.770	1068.377	807.426
383.059	20.751	1066.849	806.110
384.073	20.753	1066.262	805.607
385.088	20.715	1065.708	804.941
386.102	20.763	1064.748	804.364
387.117	20.729	1063.423	803.138
388.132	20.518	1062.738	801.573
389.146	20.591	1061.749	801.094
390.161	20.427	1061.266	799.903
391.175	20.509	1060.612	799.716
392.190	20.611	1059.797	799.501
393.205	20.799	1059.321	799.935
394.219	20.722	1058.417	798.829
395.234	20.581	1057.312	797.278
396.248	20.663	1056.166	796.718
397.263	20.693	1055.053	795.944
398.278	20.509	1054.649	794.728
399.292	20.516	1053.933	794.151
400.307	20.382	1052.963	792.741
401.321	20.399	1052.556	792.439
402.336	20.464	1051.701	792.021
403.350	20.445	1051.558	791.756
404.365	20.474	1050.228	790.820
405.380	20.606	1049.674	790.930
406.394	20.712	1049.122	790.927
407.409	20.749	1048.534	790.579
408.423	20.901	1047.784	790.638
409.438	20.946	1047.317	790.417
410.453	21.019	1046.699	790.212
411.467	21.049	1046.107	789.832
412.482	20.948	1045.905	789.152
413.496	21.140	1044.681	789.027
414.511	21.137	1044.264	788.628
415.526	21.247	1044.215	789.019
416.540	21.352	1043.440	788.837
417.555	21.285	1042.722	787.923
418.569	21.191	1042.141	786.990
419.584	21.244	1041.827	786.922
420.599	21.267	1041.122	786.421
421.613	155.709	1403.266	1797.713
422.628	142.507	1456.008	1797.817
