DTS Sentinel unit serial number:	SN413079Multiplexer serial number:	ORYXHardware model number:	OX4-SRSoftware version number:	ORYX F/W v4.00 Oryx Data Collector v3.7.2.0data status	okinstallation	princeton_trtdifferential loss correction	single-endedforward channel	channel 2reverse channel	N/Adate	2019/09/11time	02:29:10forward acquisition time	60.00reverse acquisition time	0.00gamma	496.2192k internal	0.2331k external	0.2331temperature offset calibration	0.9941default loss term (dB/km)	0.3790temperature slope calibration	1.0000multiplexer offset coefficient	1.0000multiplexer slope coefficient	1.0000fibre end	0.00T internal ref (°C)	29.25T ext. ref 1 (°C)	-0.31T ext. ref 2 (°C)	23.39length (m)	temperature (°C)	Stokes	anti-Stokes-747.200	800.000	0.034	0.103
-746.185	800.000	-0.093	0.307
-745.171	-14.589	-0.157	0.101
-744.156	-27.137	-0.132	0.077
-743.142	-200.000	0.008	-0.063
-742.127	-200.000	-0.019	0.151
-741.112	-45.315	-0.069	0.034
-740.098	-73.547	-0.227	-0.083
-739.083	-200.000	-0.013	0.591
-738.069	-95.428	-0.225	0.061
-737.054	158.492	0.247	-0.345
-736.039	-142.296	-0.229	0.023
-735.025	8.418	-0.243	0.184
-734.010	-1.140	-0.069	-0.049
-732.996	-78.350	-0.213	-0.074
-731.981	-9.396	-0.419	-0.281
-730.966	-111.679	-0.377	0.077
-729.952	130.818	-0.182	-0.235
-728.937	-166.363	-0.262	-0.011
-727.923	-200.000	0.013	-0.288
-726.908	-200.000	-0.022	-0.334
-725.894	-110.284	0.265	-0.055
-724.879	-64.827	0.114	0.047
-723.864	6.160	-0.230	-0.171
-722.850	-95.193	0.331	0.090
-721.835	800.000	-0.089	-0.284
-720.821	-200.000	0.043	-0.264
-719.806	-100.116	-0.386	-0.097
-718.791	-37.136	0.073	-0.039
-717.777	-200.000	-0.036	-0.181
-716.762	-200.000	-0.019	-0.175
-715.748	63.681	0.078	-0.079
-714.733	-140.352	-0.117	-0.012
-713.718	55.060	-0.068	-0.066
-712.704	729.510	0.105	0.283
-711.689	22.831	-0.019	-0.015
-710.675	800.000	-0.079	-0.255
-709.660	60.234	-0.201	-0.200
-708.645	17.545	-0.183	-0.146
-707.631	-200.000	0.002	-0.267
-706.616	539.152	0.088	0.211
-705.602	-200.000	0.010	-0.072
-704.587	-200.000	-0.015	-0.093
-703.572	494.564	-0.055	-0.128
-702.558	132.306	0.062	0.080
-701.543	325.517	-0.085	0.164
-700.529	-51.983	0.088	-0.041
-699.514	-200.000	-0.022	-0.309
-698.499	800.000	-0.092	-0.293
-697.485	-200.000	0.019	0.323
-696.470	48.990	-0.079	-0.074
-695.456	-70.081	-0.271	0.103
-694.441	479.475	-0.124	-0.281
-693.426	13.831	-0.058	0.045
-692.412	-59.503	-0.182	0.078
-691.397	-200.000	-0.019	-0.214
-690.383	365.856	-0.217	-0.438
-689.368	676.161	-0.157	0.409
-688.354	588.861	0.113	-0.279
-687.339	256.981	0.069	-0.119
-686.324	-40.875	0.123	0.064
-685.310	182.239	-0.114	-0.169
-684.295	16.948	-0.171	-0.136
-683.281	531.199	-0.094	0.224
-682.266	90.299	0.079	-0.089
-681.251	99.444	-0.021	0.025
-680.237	7.080	-0.238	0.178
-679.222	-96.099	-0.242	-0.065
-678.208	280.072	-0.129	-0.232
-677.193	-145.692	-0.245	0.022
-676.178	151.920	0.126	-0.172
-675.164	58.855	0.052	0.051
-674.149	800.000	0.084	-0.277
-673.135	1.430	0.196	0.141
-672.120	521.542	0.030	-0.072
-671.105	-110.807	0.194	0.040
-670.091	3.039	0.150	0.109
-669.076	800.000	-0.045	0.178
-668.062	-200.000	0.005	0.095
-667.047	403.030	0.111	0.234
-666.032	198.064	0.138	-0.212
-665.018	316.876	-0.055	0.105
-664.003	-200.000	0.065	-0.290
-662.989	7.656	-0.250	0.188
-661.974	452.376	-0.144	0.319
-660.959	-140.030	-0.196	-0.021
-659.945	-120.754	-0.256	-0.043
-658.930	-16.492	-0.079	0.050
-657.916	-93.269	-0.065	-0.018
-656.901	102.555	-0.085	-0.099
-655.886	12.584	-0.201	-0.156
-654.872	-35.326	0.158	-0.086
-653.857	-128.041	-0.293	-0.042
-652.843	-200.000	-0.051	0.437
-651.828	-3.803	0.210	-0.146
-650.814	800.000	-0.140	-0.389
-649.799	-154.015	0.091	-0.006
-648.784	320.358	-0.034	0.065
-647.770	-200.000	0.024	-0.115
-646.755	121.418	0.128	0.160
-645.741	-9.033	0.061	-0.041
-644.726	1.133	-0.322	-0.232
-643.711	-134.784	-0.175	0.021
-642.697	-47.163	-0.162	0.079
-641.682	-86.220	0.160	0.050
-640.668	-200.000	0.007	0.253
-639.653	0.223	0.318	-0.227
-638.638	-128.481	-0.163	0.023
-637.624	130.979	0.256	0.329
-636.609	306.912	0.135	-0.253
-635.595	34.073	0.246	0.215
-634.580	-200.000	0.041	0.211
-633.565	-143.449	0.107	-0.010
-632.551	-200.000	-0.013	-0.138
-631.536	-114.766	-0.109	-0.021
-630.522	-101.685	-0.140	0.034
-629.507	83.856	0.313	0.342
-628.492	362.992	0.066	0.133
-627.478	-200.000	-0.021	-0.181
-626.463	-108.226	-0.245	-0.053
-625.449	-119.408	-0.232	-0.040
-624.434	-168.659	0.113	-0.004
-623.419	-200.000	-0.023	0.253
-622.405	594.590	0.022	-0.055
-621.390	-128.819	-0.288	0.041
-620.376	-200.000	0.034	-0.220
-619.361	-200.000	-0.036	0.192
-618.346	26.165	-0.189	-0.158
-617.332	-70.253	-0.087	0.033
-616.317	-80.561	-0.077	0.026
-615.303	-200.000	0.026	-0.283
-614.288	282.451	0.046	0.082
-613.273	-134.689	0.120	0.015
-612.259	-0.903	-0.299	0.212
-611.244	287.750	0.218	-0.395
-610.230	-144.726	-0.161	0.015
-609.215	-200.000	0.002	0.098
-608.201	-3.255	0.257	-0.180
-607.186	141.199	-0.072	-0.095
-606.171	-200.000	-0.014	-0.197
-605.157	-126.678	0.113	0.017
-604.142	467.146	0.112	0.251
-603.128	787.792	-0.074	-0.203
-602.113	-16.712	0.323	-0.204
-601.098	136.770	0.221	-0.289
-600.084	192.691	-0.284	-0.429
-599.069	-124.347	0.148	0.023
-598.055	120.070	-0.121	0.150
-597.040	-143.972	-0.229	0.022
-596.025	800.000	0.014	0.038
-595.011	-200.000	0.043	-0.372
-593.996	207.192	0.032	0.049
-592.982	-200.000	0.033	0.194
-591.967	-54.307	0.305	-0.138
-590.952	21.948	-0.215	0.176
-589.938	-24.295	0.286	0.170
-588.923	800.000	-0.085	0.244
-587.909	27.797	0.076	-0.064
-586.894	800.000	0.067	0.219
-585.879	-39.453	-0.319	0.167
-584.865	-115.628	-0.005	-0.001
-583.850	135.590	0.142	-0.185
-582.836	-135.417	0.249	-0.030
-581.821	724.966	0.078	0.208
-580.806	-44.313	-0.198	-0.099
-579.792	-200.000	0.023	0.234
-578.777	-116.026	0.172	-0.032
-577.763	11.850	-0.065	0.050
-576.748	-200.000	-0.062	-0.617
-575.733	800.000	-0.061	0.171
-574.719	383.490	-0.073	0.151
-573.704	-17.979	-0.173	0.108
-572.690	-82.448	-0.343	0.111
-571.675	-122.347	-0.344	-0.056
-570.661	173.880	-0.186	-0.268
-569.646	15.298	0.377	-0.295
-568.631	800.000	0.092	-0.383
-567.617	-200.000	-0.036	-0.182
-566.602	-17.848	0.070	-0.044
-565.588	-200.000	-0.037	0.191
-564.573	93.480	-0.182	-0.206
-563.558	65.724	-0.073	0.074
-562.544	-69.051	0.124	-0.048
-561.529	-200.000	-0.029	-0.273
-560.515	-200.000	0.025	-0.423
-559.500	-193.981	0.128	0.001
-558.485	-30.843	-0.112	0.063
-557.471	-200.000	0.007	0.185
-556.456	112.484	-0.102	0.124
-555.442	533.664	-0.021	-0.050
-554.427	-64.848	0.143	-0.058
-553.412	-30.460	0.184	0.104
-552.398	183.593	-0.124	-0.184
-551.383	-20.928	0.269	-0.165
-550.369	281.389	-0.015	0.026
-549.354	-200.000	0.011	-0.340
-548.339	-83.596	-0.047	0.015
-547.325	645.230	0.035	-0.090
-546.310	-200.000	0.032	-0.149
-545.296	-200.000	0.021	-0.325
-544.281	-144.784	0.181	-0.017
-543.266	220.780	-0.158	0.253
-542.252	17.899	-0.315	0.250
-541.237	50.302	-0.108	-0.102
-540.223	231.559	0.084	0.138
-539.208	-200.000	-0.017	-0.119
-538.193	474.002	-0.155	0.350
-537.179	-45.531	0.385	-0.190
-536.164	-8.747	-0.098	0.066
-535.150	-147.026	-0.062	-0.005
-534.135	328.230	0.136	0.261
-533.121	78.969	-0.069	-0.074
-532.106	-200.000	-0.088	-0.548
-531.091	511.001	-0.156	-0.363
-530.077	24.110	0.312	-0.257
-529.062	-52.698	-0.016	-0.007
-528.048	120.487	-0.170	-0.210
-527.033	-200.000	0.008	0.052
-526.018	-152.741	-0.287	0.020
-525.004	-200.000	-0.014	0.259
-523.989	-72.469	-0.203	-0.075
-522.975	142.179	-0.070	0.092
-521.960	-162.022	0.101	0.005
-520.945	186.772	-0.105	0.156
-519.931	-200.000	-0.015	0.198
-518.916	-82.489	0.131	-0.042
-517.902	43.604	-0.068	-0.062
-516.887	-154.212	-0.187	-0.013
-515.872	-38.268	-0.111	-0.059
-514.858	-58.425	0.438	0.190
-513.843	118.218	0.126	-0.155
-512.829	800.000	-0.016	0.066
-511.814	-132.188	0.157	0.020
-510.799	157.419	-0.029	-0.040
-509.785	3.404	-0.150	-0.109
-508.770	-117.173	-0.169	-0.031
-507.756	37.955	0.209	0.185
-506.741	800.000	0.099	0.333
-505.726	64.657	0.103	-0.104
-504.712	60.309	-0.068	-0.067
-503.697	-38.534	-0.026	0.014
-502.683	-112.721	-0.274	0.054
-501.668	800.000	-0.099	-0.383
-500.653	68.463	0.376	0.384
-499.639	-25.952	-0.443	-0.260
-498.624	-200.000	-0.039	-0.351
-497.610	657.312	0.063	0.160
-496.595	469.621	-0.163	-0.365
-495.581	95.626	-0.065	-0.074
-494.566	183.374	0.068	0.101
-493.551	-52.258	-0.145	0.067
-492.537	327.781	-0.118	-0.226
-491.522	2.619	-0.069	0.050
-490.508	800.000	0.123	0.401
-489.493	533.536	0.025	-0.058
-488.478	31.086	0.197	-0.168
-487.464	-2.328	0.511	0.357
-486.449	382.582	-0.065	0.133
-485.435	-46.241	0.332	0.163
-484.420	191.293	-0.078	-0.117
-483.405	-200.000	-0.015	0.230
-482.391	-126.633	-0.287	0.042
-481.376	34.838	-0.141	0.123
-480.362	-200.000	0.001	-0.057
-479.347	-200.000	0.035	-0.375
-478.332	0.703	-0.166	-0.118
-477.318	-37.653	0.286	-0.152
-476.303	673.229	0.128	-0.331
-475.289	-113.633	0.155	-0.030
-474.274	90.864	-0.163	0.182
-473.259	280.880	0.048	-0.086
-472.245	-65.176	0.264	0.106
-471.230	800.000	0.055	-0.233
-470.216	-20.782	0.340	-0.207
-469.201	270.355	-0.106	-0.186
-468.186	-87.823	0.382	-0.115
-467.172	-200.000	-0.009	-0.041
-466.157	451.174	0.159	-0.350
-465.143	618.208	-0.056	0.140
-464.128	-176.403	-0.305	0.008
-463.113	248.081	-0.053	0.090
-462.099	177.028	0.185	-0.268
-461.084	-45.016	0.408	0.202
-460.070	353.903	-0.088	0.173
-459.055	194.679	-0.035	0.052
-458.040	48.146	-0.090	0.083
-457.026	154.591	0.106	0.145
-456.011	189.130	0.084	-0.126
-454.997	-169.029	-0.247	-0.009
-453.982	211.143	0.139	-0.217
-452.968	-60.913	0.239	-0.101
-451.953	-86.036	-0.151	-0.047
-450.938	-38.434	-0.221	0.116
-449.924	242.308	0.066	-0.110
-448.909	-15.407	0.062	-0.039
-447.895	62.497	-0.053	-0.053
-446.880	723.677	-0.153	0.405
-445.865	800.000	0.066	-0.206
-444.851	-20.484	-0.216	-0.132
-443.836	-99.679	-0.288	0.072
-442.822	-200.000	-0.066	-0.406
-441.807	-110.506	-0.415	-0.086
-440.792	-37.727	-0.153	-0.081
-439.778	-200.000	0.005	-0.110
-438.763	300.086	0.123	-0.225
-437.749	-200.000	0.003	0.038
-436.734	-24.307	-0.303	0.180
-435.719	-200.000	0.005	0.065
-434.705	-63.314	-0.089	-0.037
-433.690	65.107	0.204	0.205
-432.676	132.075	-0.094	-0.121
-431.661	800.000	0.048	-0.149
-430.646	800.000	0.017	0.049
-429.632	36.018	-0.261	0.228
-428.617	59.500	0.325	-0.318
-427.603	800.000	0.168	-0.504
-426.588	107.951	-0.024	0.029
-425.573	-30.960	0.190	-0.107
-424.559	-75.859	-0.152	0.054
-423.544	261.799	0.071	0.123
-422.530	290.716	-0.062	0.111
-421.515	187.157	-0.168	0.249
-420.500	139.418	0.034	-0.045
-419.486	-11.047	0.327	0.214
-418.471	-50.281	0.166	0.078
-417.457	-56.235	0.039	-0.017
-416.442	3.298	0.532	-0.384
-415.428	-18.026	-0.238	-0.148
-414.413	122.949	-0.087	0.108
-413.398	167.424	-0.114	0.161
-412.384	128.406	0.151	0.191
-411.369	13.626	-0.122	-0.094
-410.355	135.154	0.035	-0.045
-409.340	-100.722	0.081	0.020
-408.325	327.962	-0.063	0.120
-407.311	-94.268	-0.300	0.081
-406.296	41.479	-0.129	-0.116
-405.282	-200.000	-0.003	-0.185
-404.267	335.845	-0.016	-0.031
-403.252	-72.111	0.134	-0.049
-402.238	64.501	-0.049	0.049
-401.223	80.361	0.060	-0.064
-400.209	-50.540	-0.120	-0.056
-399.194	578.847	-0.164	0.397
-398.179	682.814	0.009	-0.023
-397.165	-200.000	-0.082	0.535
-396.150	-100.781	0.095	0.023
-395.136	800.000	-0.032	-0.101
-394.121	-200.000	-0.060	-0.313
-393.106	-68.424	-0.302	0.116
-392.092	-165.013	-0.281	-0.012
-391.077	-44.744	-0.090	0.045
-390.063	-138.473	0.237	-0.026
-389.048	-200.000	0.009	-0.083
-388.033	38.047	0.177	-0.156
-387.019	566.680	-0.079	0.191
-386.004	-200.000	-0.048	0.491
-384.990	-200.000	-0.048	0.410
-383.975	41.009	-0.245	0.219
-382.960	-39.728	-0.357	0.185
-381.946	-39.617	-0.209	0.109
-380.931	800.000	-0.132	0.368
-379.917	-119.398	0.186	0.032
-378.902	-132.142	-0.158	0.020
-377.888	-178.103	-0.453	-0.011
-376.873	-50.398	0.238	-0.111
-375.858	23.210	-0.088	-0.072
-374.844	-200.000	0.050	-0.254
-373.829	-36.780	0.254	-0.136
-372.815	161.427	0.073	0.102
-371.800	-22.566	0.332	0.199
-370.785	-24.004	0.403	-0.239
-369.771	-160.413	0.031	0.002
-368.756	-155.895	-0.113	0.007
-367.742	230.141	0.041	-0.066
-366.727	800.000	-0.055	-0.173
-365.712	-2.657	0.136	-0.094
-364.698	41.173	0.197	-0.176
-363.683	133.689	0.097	0.124
-362.669	178.005	0.167	0.241
-361.654	800.000	-0.066	-0.220
-360.639	-136.163	-0.108	-0.013
-359.625	800.000	-0.072	0.236
-358.610	7.156	-0.663	0.491
-357.596	39.797	0.081	-0.072
-356.581	-98.279	-0.174	-0.044
-355.566	112.451	-0.063	0.075
-354.552	800.000	0.051	0.220
-353.537	647.239	-0.141	-0.356
-352.523	-200.000	-0.001	-0.307
-351.508	198.737	0.049	0.074
-350.493	22.353	0.252	0.204
-349.479	403.390	-0.069	0.143
-348.464	265.094	-0.154	-0.266
-347.450	-99.807	-0.131	0.033
-346.435	-62.223	-0.585	-0.241
-345.420	-192.216	0.317	0.003
-344.406	-6.368	-0.149	0.101
-343.391	-36.936	0.241	0.128
-342.377	273.471	0.050	0.087
-341.362	40.566	0.278	0.248
-340.348	123.080	-0.081	0.101
-339.333	-159.986	0.206	0.011
-338.318	11.527	0.238	0.181
-337.304	22.095	0.152	-0.123
-336.289	-200.000	0.013	-0.093
-335.275	72.792	-0.105	-0.108
-334.260	-15.017	-0.283	-0.180
-333.245	636.506	0.088	0.220
-332.231	-200.000	-0.065	-0.412
-331.216	42.385	0.188	-0.169
-330.202	-180.957	0.185	-0.004
-329.187	-28.505	0.432	0.247
-328.172	800.000	0.149	-0.488
-327.158	194.653	-0.150	0.226
-326.143	-32.094	0.106	0.058
-325.129	-78.105	0.159	0.054
-324.114	-200.000	0.042	0.248
-323.099	-161.876	-0.033	0.002
-322.085	-38.427	0.227	0.119
-321.070	-200.000	0.019	0.130
-320.056	-58.178	0.229	-0.099
-319.041	12.616	-0.175	-0.134
-318.026	157.473	0.120	0.165
-317.012	70.105	-0.242	0.248
-315.997	-200.000	0.028	0.151
-314.983	83.067	0.128	0.138
-313.968	-27.970	-0.300	0.172
-312.953	291.049	-0.057	0.103
-311.939	257.856	-0.079	0.135
-310.924	244.605	-0.145	0.241
-309.910	-103.233	0.265	-0.062
-308.895	-3.860	0.133	-0.091
-307.880	99.120	-0.054	0.062
-306.866	233.323	0.150	-0.243
-305.851	-9.309	-0.252	-0.167
-304.837	227.391	0.061	-0.098
-303.822	508.743	-0.144	0.330
-302.807	-200.000	-0.023	0.184
-301.793	800.000	0.070	-0.214
-300.778	-200.000	0.004	-0.083
-299.764	-29.195	-0.203	-0.115
-298.749	-72.589	0.179	-0.065
-297.735	473.450	-0.122	0.273
-296.720	-119.440	-0.233	0.040
-295.705	27.888	-0.160	0.133
-294.691	6.208	-0.117	-0.086
-293.676	-200.000	-0.028	0.142
-292.662	-200.000	0.029	0.226
-291.647	-28.069	-0.116	0.066
-290.632	-124.520	-0.208	0.032
-289.618	-132.209	0.297	-0.038
-288.603	-123.174	-0.271	-0.043
-287.589	136.965	-0.073	0.095
-286.574	136.484	-0.107	-0.138
-285.559	-200.000	-0.024	0.131
-284.545	-200.000	0.016	-0.215
-283.530	-158.527	-0.376	-0.021
-282.516	400.116	-0.056	0.116
-281.501	87.810	0.056	-0.061
-280.486	-61.267	-0.328	0.137
-279.472	-148.034	0.141	-0.012
-278.457	26.275	-0.377	-0.312
-277.443	-84.449	-0.296	0.092
-276.428	17.479	0.266	-0.209
-275.413	-155.240	0.311	-0.020
-274.399	233.722	-0.100	0.162
-273.384	175.635	0.143	-0.205
-272.370	79.259	-0.156	-0.165
-271.355	155.859	0.074	-0.101
-270.340	-16.190	-0.381	0.239
-269.326	-68.335	-0.403	0.155
-268.311	800.000	0.023	0.082
-267.297	47.209	0.070	0.064
-266.282	-171.461	0.139	-0.005
-265.267	-54.940	0.367	-0.164
-264.253	-200.000	-0.022	0.176
-263.238	-200.000	-0.015	0.126
-262.224	106.689	0.147	-0.172
-261.209	309.263	0.087	0.161
-260.195	131.708	-0.064	-0.081
-259.180	132.791	-0.124	0.159
-258.165	561.691	0.118	0.281
-257.151	-200.000	0.117	-0.597
-256.136	90.223	-0.133	0.147
-255.122	-200.000	-0.015	0.252
-254.107	-200.000	0.010	0.316
-253.092	-200.000	0.011	0.099
-252.078	800.000	-0.106	-0.301
-251.063	462.241	-0.173	0.381
-250.049	0.026	0.195	-0.137
-249.034	-121.418	-0.198	-0.033
-248.019	286.166	-0.094	0.167
-247.005	223.538	0.048	0.076
-245.990	-17.174	-0.343	0.214
-244.976	-136.269	0.022	0.003
-243.961	800.000	-0.035	0.127
-242.946	-72.874	-0.196	0.071
-241.932	-117.765	-0.291	0.052
-240.917	-38.858	0.151	-0.079
-239.903	89.569	0.058	0.063
-238.888	-200.000	-0.044	0.341
-237.873	-200.000	-0.031	-0.284
-236.859	566.344	-0.038	0.090
-235.844	-61.180	0.307	0.128
-234.830	-144.046	-0.127	0.012
-233.815	170.897	-0.102	-0.145
-232.800	73.090	0.293	0.302
-231.786	466.547	-0.023	0.050
-230.771	-141.050	0.129	-0.013
-229.757	-126.003	0.128	-0.019
-228.742	-190.925	0.270	-0.003
-227.727	235.165	0.091	-0.149
-226.713	-188.427	0.590	0.007
-225.698	800.000	0.021	-0.077
-224.684	-116.009	0.362	-0.066
-223.669	-132.873	-0.098	0.012
-222.655	800.000	0.026	-0.073
-221.640	85.096	0.013	0.014
-220.625	182.452	-0.087	-0.127
-219.611	-29.650	-0.238	-0.134
-218.596	11.074	0.247	-0.187
-217.582	-200.000	-0.040	0.264
-216.567	-200.000	-0.041	0.291
-215.552	49.704	-0.106	0.098
-214.538	-200.000	-0.001	-0.046
-213.523	-95.099	-0.212	0.056
-212.509	16.045	0.173	-0.134
-211.494	170.564	-0.077	-0.109
-210.479	-3.561	-0.117	0.080
-209.465	800.000	0.044	-0.129
-208.450	800.000	-0.016	-0.054
-207.436	-147.701	0.174	-0.014
-206.421	-27.917	-0.228	-0.130
-205.406	433.052	-0.048	-0.103
-204.392	355.079	-0.096	-0.189
-203.377	130.856	0.073	0.092
-202.363	-94.569	-0.146	0.039
-201.348	-89.720	-0.299	0.086
-200.333	-96.773	0.259	0.067
-199.319	-19.150	0.222	0.136
-198.304	2.709	0.410	0.293
-197.290	-200.000	-0.047	0.269
-196.275	-60.972	0.220	-0.091
-195.260	-129.115	0.030	-0.004
-194.246	-52.337	0.059	-0.027
-193.231	99.372	0.155	0.177
-192.217	-137.261	0.203	0.023
-191.202	-200.000	0.001	0.106
-190.187	-200.000	0.022	0.195
-189.173	70.088	-0.138	0.140
-188.158	1.973	-0.053	0.038
-187.144	197.489	-0.108	0.162
-186.129	83.826	-0.133	-0.143
-185.114	-189.410	0.311	0.004
-184.100	80.717	0.076	0.080
-183.085	224.892	0.105	-0.168
-182.071	800.000	-0.068	-0.200
-181.056	-200.000	-0.016	-0.136
-180.042	-52.095	0.195	-0.089
-179.027	371.257	-0.125	0.249
-178.012	33.325	-0.213	-0.182
-176.998	282.166	-0.041	0.072
-175.983	27.002	0.295	0.243
-174.969	-118.781	-0.072	0.012
-173.954	-153.931	-0.033	-0.002
-172.939	175.949	-0.123	0.176
-171.925	-31.687	-0.228	-0.126
-170.910	630.697	0.055	-0.138
-169.896	-200.000	-0.006	-0.266
-168.881	-43.851	0.067	-0.033
-167.866	-91.891	-0.209	0.058
-166.852	189.647	-0.070	-0.103
-165.837	420.565	0.146	-0.307
-164.823	-200.000	-0.123	-0.596
-163.808	-179.957	-0.164	0.003
-162.793	130.813	0.250	0.315
-161.779	-1.327	0.261	0.181
-160.764	-200.000	0.022	0.127
-159.750	-103.527	0.182	0.042
-158.735	13.225	0.213	-0.162
-157.720	529.825	-0.015	-0.034
-156.706	646.335	0.120	0.302
-155.691	800.000	-0.067	-0.280
-154.677	2.750	-0.071	0.050
-153.662	5.926	0.100	-0.073
-152.647	-70.489	0.295	0.110
-151.633	-112.808	0.116	0.023
-150.618	274.026	0.156	0.272
-149.604	-22.213	0.047	0.028
-148.589	-44.532	0.410	0.202
-147.574	74.596	-0.169	-0.175
-146.560	94.582	0.103	0.115
-145.545	-33.275	0.334	0.182
-144.531	-200.000	0.041	-0.287
-143.516	-200.000	0.020	-0.233
-142.502	-8.791	-0.133	-0.088
-141.487	-5.283	0.241	-0.163
-140.472	95.103	0.148	-0.165
-139.458	-127.273	-0.138	0.020
-138.443	-120.906	0.271	0.045
-137.429	136.450	0.157	-0.202
-136.414	-70.396	-0.367	-0.137
-135.399	-123.360	0.047	0.007
-134.385	23.254	0.025	-0.020
-133.370	186.143	0.015	-0.023
-132.356	42.551	-0.184	0.165
-131.341	256.480	0.150	0.254
-130.326	-164.896	-0.219	-0.010
-129.312	-200.000	-0.019	-0.244
-128.297	800.000	0.101	-0.375
-127.283	800.000	-0.037	0.103
-126.268	-148.164	0.124	-0.010
-125.253	-50.303	0.073	-0.034
-124.239	-166.430	-0.188	0.008
-123.224	-62.517	-0.102	0.042
-122.210	288.213	0.069	0.122
-121.195	-200.000	0.355	-0.001
-120.180	-12.494	0.081	-0.052
-119.166	-200.000	-0.004	-0.431
-118.151	-200.000	0.015	0.343
-117.137	-107.321	-0.299	0.065
-116.122	82.287	-0.210	0.224
-115.107	422.592	-0.046	-0.097
-114.093	369.260	0.094	-0.186
-113.078	-48.859	0.019	0.009
-112.064	-33.086	0.193	-0.105
-111.049	800.000	-0.036	0.121
-110.034	-200.000	-0.048	0.356
-109.020	151.310	-0.091	0.121
-108.005	221.751	0.127	0.200
-106.991	-200.000	-0.010	0.239
-105.976	540.748	-0.120	-0.279
-104.962	-179.817	0.240	0.005
-103.947	-80.693	0.103	0.034
-102.932	74.086	-0.213	0.220
-101.918	-2.245	-0.225	-0.155
-100.903	-200.000	-0.012	-0.079
-99.889	-120.898	0.301	-0.050
-98.874	52.422	-0.149	0.140
-97.859	590.916	-0.116	-0.281
-96.845	800.000	0.063	-0.190
-95.830	131.411	0.060	0.076
-94.816	-71.380	0.245	0.090
-93.801	-200.000	-0.018	0.276
-92.786	94.550	0.069	0.077
-91.772	-125.086	-0.519	0.078
-90.757	-200.000	0.005	-0.064
-89.743	61.392	-0.191	-0.187
-88.728	800.000	-0.062	0.210
-87.713	134.808	0.167	-0.213
-86.699	270.107	0.027	-0.046
-85.684	800.000	-0.071	0.262
-84.670	-128.124	-0.245	-0.034
-83.655	-54.401	0.064	0.028
-82.640	94.254	-0.012	0.013
-81.626	-122.831	0.207	-0.033
-80.611	-132.204	-0.171	0.022
-79.597	-63.031	-0.150	-0.061
-78.582	798.186	0.119	-0.323
-77.567	729.889	0.049	-0.128
-76.553	39.060	0.030	-0.026
-75.538	-60.273	0.190	-0.079
-74.524	-84.888	0.262	-0.081
-73.509	-99.111	-0.243	0.060
-72.494	-64.996	0.077	-0.031
-71.480	-57.501	0.181	0.078
-70.465	284.486	0.081	-0.143
-69.451	-200.000	0.029	-0.271
-68.436	-109.749	0.232	-0.048
-67.422	98.167	0.240	-0.271
-66.407	-90.905	-0.030	0.008
-65.392	161.145	-0.155	0.212
-64.378	-200.000	-0.008	-0.500
-63.363	76.301	-0.024	0.025
-62.349	-200.000	0.001	0.329
-61.334	76.544	-0.912	-0.947
-60.319	309.062	0.434	0.794
-59.305	296.172	-0.588	-1.056
-58.290	261.380	0.735	1.247
-57.276	736.857	0.585	1.537
-56.261	-200.000	106.700	621.228
-55.246	515.748	1512.192	3460.000
-54.232	174.942	2712.189	3845.960
-53.217	104.414	2298.564	2650.242
-52.203	38.501	1903.013	1661.633
-51.188	32.532	1689.029	1429.590
-50.173	29.861	1646.217	1373.503
-49.159	48.969	1700.028	1563.044
-48.144	49.078	1715.445	1577.975
-47.130	31.974	1672.301	1411.011
-46.115	29.349	1657.757	1379.085
-45.100	29.169	1652.621	1373.417
-44.086	29.218	1649.989	1371.540
-43.071	29.170	1647.352	1368.936
-42.057	29.064	1645.064	1366.191
-41.042	29.123	1643.293	1365.101
-40.027	29.104	1641.587	1363.496
-39.013	29.093	1639.332	1361.487
-37.998	29.049	1638.229	1360.188
-36.984	29.109	1636.703	1359.312
-35.969	29.242	1634.570	1358.465
-34.954	29.343	1633.563	1358.322
-33.940	29.205	1631.924	1355.888
-32.925	29.204	1629.881	1354.132
-31.911	29.330	1627.649	1353.146
-30.896	29.241	1626.359	1351.364
-29.881	29.230	1624.457	1349.649
-28.867	29.214	1623.154	1348.398
-27.852	29.227	1621.912	1347.410
-26.838	29.198	1620.219	1345.739
-25.823	29.179	1618.952	1344.495
-24.809	29.269	1617.476	1343.868
-23.794	29.224	1616.504	1342.679
-22.779	29.309	1614.494	1341.579
-21.765	29.277	1612.826	1339.903
-20.750	29.232	1611.489	1338.411
-19.736	29.275	1609.991	1337.431
-18.721	29.317	1608.577	1336.505
-17.706	29.200	1607.193	1334.457
-16.692	29.324	1605.662	1334.026
-15.677	29.325	1604.519	1333.030
-14.663	29.394	1602.704	1331.968
-13.648	29.414	1601.382	1330.965
-12.633	29.195	1600.299	1328.433
-11.619	29.313	1598.886	1328.053
-10.604	29.248	1597.216	1326.146
-9.590	29.230	1595.920	1324.891
-8.575	29.382	1594.467	1324.723
-7.560	29.299	1593.706	1323.441
-6.546	29.307	1592.270	1322.256
-5.531	29.355	1591.250	1321.697
-4.517	29.324	1590.003	1320.388
-3.502	29.327	1588.806	1319.365
-2.487	29.427	1587.189	1318.687
-1.473	29.064	1575.583	1306.411
-0.458	26.433	1555.889	1271.564
0.556	20.782	1557.416	1242.109
1.571	18.658	1582.201	1246.356
2.586	18.439	1595.972	1255.488
3.600	16.693	1543.263	1201.532
4.615	8.808	1433.931	1064.124
5.629	1.110	1370.260	967.779
6.644	-0.155	1362.123	953.917
7.659	-0.368	1360.903	951.627
8.673	-0.338	1359.479	950.734
9.688	-0.369	1357.783	949.267
10.702	-0.566	1354.653	945.750
11.717	2.623	1360.778	970.156
12.731	11.758	1378.245	1040.875
13.746	19.360	1391.469	1099.421
14.761	21.338	1394.548	1114.379
15.775	21.568	1394.590	1115.785
16.790	21.754	1393.754	1116.202
17.804	21.802	1392.889	1115.715
18.819	21.998	1392.712	1116.723
19.834	22.105	1391.868	1116.626
20.848	22.100	1391.529	1116.224
21.863	22.221	1390.018	1115.676
22.877	22.106	1389.537	1114.462
23.892	22.110	1388.587	1113.627
24.907	22.235	1387.387	1113.361
25.921	22.278	1386.450	1112.780
26.936	22.146	1385.776	1111.311
27.950	22.100	1384.943	1110.254
28.965	22.226	1383.703	1109.953
29.980	22.219	1381.931	1108.390
30.994	22.154	1380.947	1107.096
32.009	22.210	1379.798	1106.430
33.023	22.107	1379.068	1105.097
34.038	22.097	1378.026	1104.102
35.053	22.189	1376.536	1103.384
36.067	22.197	1375.810	1102.754
37.082	22.199	1374.657	1101.750
38.096	22.158	1374.372	1101.165
39.111	22.159	1373.416	1100.311
40.126	22.235	1372.089	1099.620
41.140	22.127	1372.136	1098.889
42.155	22.198	1371.565	1098.778
43.169	22.128	1371.884	1098.497
44.184	22.112	1371.817	1098.245
45.199	22.245	1371.070	1098.385
46.213	22.157	1370.413	1097.210
47.228	22.141	1369.583	1096.345
48.242	22.154	1368.196	1095.219
49.257	22.168	1366.857	1094.141
50.271	22.307	1364.770	1093.237
51.286	22.135	1363.947	1091.412
52.301	22.171	1362.660	1090.510
53.315	22.143	1361.736	1089.501
54.330	22.079	1360.917	1088.349
55.344	22.122	1359.599	1087.468
56.359	22.121	1359.098	1086.966
57.374	22.160	1357.733	1086.020
58.388	22.170	1357.495	1085.793
59.403	22.220	1356.904	1085.531
60.417	22.245	1356.043	1084.900
61.432	22.102	1355.622	1083.588
62.447	22.201	1354.981	1083.586
63.461	22.120	1353.349	1081.688
64.476	22.193	1352.558	1081.411
65.490	22.205	1351.527	1080.564
66.505	22.203	1349.949	1079.193
67.520	22.237	1348.728	1078.333
68.534	22.250	1347.438	1077.283
69.549	22.254	1346.843	1076.737
70.563	22.187	1345.646	1075.276
71.578	22.107	1345.238	1074.369
72.593	22.257	1343.422	1073.735
73.607	22.247	1343.477	1073.627
74.622	22.170	1342.713	1072.452
75.636	22.269	1341.871	1072.282
76.651	22.246	1340.921	1071.294
77.666	22.381	1339.950	1071.244
78.680	22.231	1339.834	1070.140
79.695	22.227	1339.653	1069.877
80.709	22.179	1338.548	1068.607
81.724	22.128	1337.669	1067.504
82.739	22.208	1336.397	1066.877
83.753	22.064	1335.711	1065.361
84.768	22.139	1334.602	1064.841
85.782	22.251	1332.937	1064.092
86.797	22.273	1332.067	1063.440
87.812	22.309	1330.761	1062.517
88.826	22.259	1329.788	1061.349
89.841	22.268	1328.818	1060.534
90.855	22.266	1328.362	1060.063
91.870	22.296	1327.157	1059.188
92.884	22.167	1326.814	1058.046
93.899	22.219	1326.228	1057.795
94.914	22.238	1325.010	1056.844
95.928	22.168	1324.297	1055.765
96.943	22.309	1323.111	1055.569
97.957	22.293	1321.996	1054.491
98.972	22.337	1321.477	1054.249
99.987	22.301	1320.315	1053.010
101.001	22.264	1319.328	1051.912
102.016	22.291	1318.602	1051.401
103.030	22.352	1317.504	1050.793
104.045	22.284	1316.657	1049.620
105.060	22.238	1316.086	1048.801
106.074	22.354	1314.578	1048.195
107.089	22.215	1314.005	1046.815
108.103	22.176	1313.037	1045.722
109.118	22.418	1311.312	1045.691
110.133	22.260	1310.402	1043.939
111.147	22.307	1309.411	1043.335
112.162	22.361	1308.091	1042.511
113.176	22.339	1307.317	1041.671
114.191	22.267	1306.212	1040.273
115.206	22.330	1305.269	1039.799
116.220	22.313	1303.971	1038.574
117.235	22.329	1303.235	1037.992
118.249	22.365	1302.260	1037.337
119.264	22.358	1301.038	1036.232
120.279	22.381	1300.301	1035.688
121.293	22.338	1299.672	1034.841
122.308	22.374	1298.697	1034.184
123.322	22.411	1297.619	1033.451
124.337	22.386	1297.021	1032.736
125.352	22.344	1296.270	1031.800
126.366	22.394	1295.025	1031.009
127.381	22.379	1294.040	1030.050
128.395	22.477	1293.034	1029.731
129.410	22.377	1292.313	1028.481
130.424	22.376	1291.745	1027.931
131.439	22.393	1290.472	1026.925
132.454	22.399	1289.492	1026.091
133.468	22.308	1289.455	1025.442
134.483	22.356	1289.219	1025.441
135.497	22.294	1287.657	1023.748
136.512	22.298	1287.049	1023.198
137.527	22.414	1285.976	1022.929
138.541	22.371	1284.442	1021.365
139.556	22.231	1283.150	1019.438
140.570	22.225	1282.287	1018.625
141.585	22.277	1281.085	1017.882
142.600	22.329	1279.530	1016.857
143.614	22.443	1279.052	1017.048
144.629	22.316	1278.014	1015.397
145.643	22.295	1277.222	1014.558
146.658	22.257	1276.239	1013.470
147.673	22.360	1274.823	1012.846
148.687	22.347	1273.876	1011.930
149.702	22.235	1273.362	1010.787
150.716	22.382	1271.705	1010.229
151.731	22.497	1270.493	1009.835
152.746	22.475	1269.632	1008.936
153.760	22.485	1268.448	1007.960
154.775	22.424	1267.386	1006.683
155.789	22.374	1266.429	1005.547
156.804	22.366	1265.645	1004.791
157.819	22.349	1265.077	1004.149
158.833	22.423	1264.261	1003.836
159.848	22.399	1263.408	1002.937
160.862	22.399	1262.717	1002.295
161.877	22.456	1261.491	1001.559
162.892	22.395	1260.855	1000.621
163.906	22.460	1260.432	1000.563
164.921	22.452	1259.382	999.597
165.935	22.448	1258.960	999.153
166.950	22.554	1258.227	999.079
167.964	22.476	1257.815	998.223
168.979	22.525	1256.977	997.748
169.994	22.521	1256.209	997.026
171.008	22.496	1255.422	996.173
172.023	22.630	1254.667	996.243
173.037	22.545	1254.237	995.331
174.052	22.508	1253.192	994.204
175.067	22.457	1252.755	993.485
176.081	22.508	1252.073	993.146
177.096	22.391	1251.319	991.800
178.110	22.534	1249.690	991.223
179.125	22.554	1248.998	990.699
180.140	22.625	1247.517	989.835
181.154	22.460	1247.239	988.604
182.169	22.558	1245.564	987.735
183.183	22.531	1244.578	986.715
184.198	22.616	1243.294	986.083
185.213	22.658	1242.284	985.430
186.227	22.690	1241.548	984.940
187.242	22.554	1241.101	983.740
188.256	22.532	1240.414	982.982
189.271	22.588	1239.561	982.535
190.286	22.496	1238.901	981.409
191.300	22.573	1238.496	981.434
192.315	22.503	1237.816	980.420
193.329	22.515	1237.430	980.091
194.344	22.676	1236.927	980.500
195.359	22.594	1236.208	979.389
196.373	22.609	1235.586	978.893
197.388	22.513	1235.359	978.095
198.402	22.489	1235.548	978.022
199.417	22.524	1234.480	977.287
200.432	22.565	1233.781	976.874
201.446	22.621	1233.062	976.527
202.461	22.656	1232.263	976.004
203.475	22.624	1231.604	975.217
204.490	22.637	1230.389	974.242
205.504	22.560	1229.748	973.222
206.519	22.573	1228.794	972.451
207.534	22.727	1228.009	972.594
208.548	22.650	1226.438	970.838
209.563	22.666	1226.015	970.506
210.577	22.716	1225.401	970.211
211.592	22.706	1224.354	969.240
212.607	22.746	1223.598	968.776
213.621	22.664	1223.050	967.808
214.636	22.711	1221.988	967.139
215.650	22.772	1221.072	966.659
216.665	22.817	1220.014	965.983
217.680	22.679	1219.434	964.686
218.694	22.782	1218.355	964.311
219.709	22.738	1218.093	963.778
220.723	22.648	1217.571	962.784
221.738	22.816	1216.204	962.537
222.753	22.738	1215.626	961.567
223.767	22.680	1215.637	961.173
224.782	22.754	1214.857	960.877
225.796	22.806	1214.503	960.794
226.811	22.802	1213.429	959.841
227.826	22.782	1212.907	959.232
228.840	22.833	1212.369	959.000
229.855	22.802	1211.561	958.104
230.869	22.819	1210.625	957.372
231.884	22.831	1209.995	956.857
232.899	22.838	1209.483	956.405
233.913	22.791	1208.994	955.678
234.928	22.868	1208.773	955.836
235.942	22.812	1208.387	955.144
236.957	22.972	1206.731	954.615
237.972	22.843	1206.527	953.671
238.986	22.943	1205.836	953.582
240.001	22.955	1204.902	952.821
241.015	23.007	1204.420	952.637
242.030	22.967	1203.456	951.577
243.045	22.995	1202.672	951.022
244.059	22.941	1202.204	950.279
245.074	23.046	1201.178	949.944
246.088	22.949	1200.858	949.085
247.103	22.915	1200.299	948.379
248.117	22.944	1198.820	947.283
249.132	22.984	1198.140	946.876
250.147	23.060	1197.481	946.679
251.161	23.054	1196.872	946.083
252.176	22.957	1196.479	945.170
253.190	23.043	1195.736	944.957
254.205	23.044	1194.947	944.252
255.220	23.017	1194.482	943.657
256.234	23.054	1194.063	943.443
257.249	23.146	1193.134	943.117
258.263	23.069	1192.521	942.137
259.278	23.086	1191.971	941.709
260.293	23.077	1191.716	941.380
261.307	22.976	1191.351	940.469
262.322	23.137	1190.411	940.498
263.336	23.100	1189.740	939.688
264.351	23.116	1189.405	939.428
265.366	23.045	1188.523	938.268
266.380	23.103	1187.965	938.054
267.395	23.069	1187.085	937.096
268.409	23.115	1186.269	936.612
269.424	23.104	1185.851	936.140
270.439	23.066	1185.940	935.928
271.453	23.169	1184.869	935.545
272.468	23.174	1183.676	934.546
273.482	23.175	1183.081	933.997
274.497	23.148	1182.896	933.626
275.512	23.208	1182.511	933.558
276.526	23.159	1181.760	932.623
277.541	23.174	1180.896	931.938
278.555	23.450	1179.921	932.538
279.570	23.301	1179.118	931.039
280.585	23.239	1178.724	930.321
281.599	23.230	1178.050	929.655
282.614	23.252	1176.988	928.854
283.628	23.247	1176.265	928.174
284.643	23.265	1175.511	927.590
285.657	23.370	1174.585	927.326
286.672	23.187	1173.869	925.722
287.687	23.259	1172.648	925.051
288.701	23.409	1172.031	925.266
289.716	23.406	1171.719	924.923
290.730	23.492	1170.943	924.678
291.745	23.351	1170.364	923.406
292.760	23.301	1170.041	922.808
293.774	23.428	1168.981	922.550
294.789	23.343	1168.812	921.892
295.803	23.458	1167.953	921.730
296.818	23.378	1167.602	920.956
297.833	23.360	1166.769	920.124
298.847	23.396	1166.288	919.852
299.862	23.464	1165.156	919.229
300.876	23.442	1164.217	918.295
301.891	23.394	1163.886	917.703
302.906	23.625	1163.689	918.665
303.920	23.583	1162.508	917.431
304.935	23.507	1162.063	916.609
305.949	23.501	1161.546	916.087
306.964	23.501	1160.487	915.173
307.979	23.479	1160.443	914.941
308.993	23.555	1159.662	914.638
310.008	23.652	1158.421	914.076
311.022	23.590	1157.746	913.144
312.037	23.442	1157.481	912.094
313.052	23.640	1156.230	912.043
314.066	23.521	1155.296	910.614
315.081	23.525	1154.699	910.083
316.095	23.609	1154.322	910.139
317.110	23.677	1153.643	909.868
318.125	23.536	1153.123	908.658
319.139	23.726	1152.266	908.873
320.154	23.551	1151.908	907.618
321.168	23.663	1151.204	907.553
322.183	23.537	1150.832	906.535
323.197	23.633	1149.824	906.152
324.212	23.600	1149.275	905.471
325.227	23.618	1148.681	905.015
326.241	23.746	1148.381	905.349
327.256	23.720	1147.276	904.268
328.270	23.802	1146.475	903.972
329.285	23.539	1146.140	902.291
330.300	23.774	1145.002	902.510
331.314	23.655	1144.355	901.316
332.329	23.847	1143.356	901.423
333.343	23.799	1142.900	900.741
334.358	23.839	1141.800	899.994
335.373	23.891	1141.613	900.029
336.387	23.811	1140.840	898.940
337.402	23.744	1140.070	897.915
338.416	23.889	1139.536	898.146
339.431	23.801	1139.472	897.571
340.446	23.841	1138.444	896.882
341.460	23.970	1137.351	896.593
342.475	24.043	1136.466	896.186
343.489	23.925	1135.790	894.978
344.504	23.979	1134.519	894.170
345.519	23.931	1134.060	893.485
346.533	23.929	1133.417	892.889
347.548	23.795	1133.135	891.916
348.562	24.013	1131.742	891.835
349.577	23.953	1131.253	891.068
350.592	23.794	1130.576	889.662
351.606	23.921	1130.004	889.767
352.621	24.005	1129.428	889.658
353.635	24.047	1128.910	889.377
354.650	24.027	1128.302	888.723
355.665	24.114	1127.562	888.496
356.679	24.113	1126.611	887.664
357.694	24.121	1126.429	887.481
358.708	24.080	1125.748	886.658
359.723	24.054	1124.985	885.853
360.738	24.003	1124.357	885.024
361.752	24.078	1124.105	885.123
362.767	24.037	1123.479	884.347
363.781	24.106	1122.978	884.216
364.796	24.039	1122.585	883.495
365.810	24.111	1121.878	883.217
366.825	24.159	1121.018	882.699
367.840	24.158	1120.497	882.208
368.854	24.258	1120.210	882.400
369.869	24.164	1119.350	881.176
370.883	24.167	1118.064	880.105
371.898	24.171	1117.449	879.560
372.913	24.280	1116.808	879.514
373.927	24.319	1116.910	879.709
374.942	24.334	1115.941	878.942
375.956	24.332	1115.154	878.236
376.971	24.397	1115.002	878.358
377.986	24.196	1114.986	877.277
379.000	24.294	1114.042	876.941
380.015	24.271	1113.528	876.346
381.029	24.391	1112.692	876.200
382.044	24.240	1112.099	874.913
383.059	24.377	1111.363	874.928
384.073	24.379	1110.797	874.413
385.088	24.395	1109.869	873.686
386.102	24.464	1108.902	873.184
387.117	24.494	1107.711	872.315
388.132	24.223	1107.184	870.501
389.146	24.386	1106.884	870.984
390.161	24.354	1106.296	870.289
391.175	24.443	1105.464	869.989
392.190	24.465	1104.425	869.201
393.205	24.491	1103.816	868.774
394.219	24.516	1103.131	868.279
395.234	24.478	1102.671	867.653
396.248	24.514	1101.714	866.999
397.263	24.447	1101.012	866.048
398.278	24.533	1100.368	865.878
399.292	24.639	1099.632	865.735
400.307	24.581	1099.118	864.973
401.321	24.496	1098.685	864.146
402.336	24.520	1097.933	863.596
403.350	24.599	1096.933	863.112
404.365	24.447	1096.807	862.206
405.380	24.558	1096.030	862.052
406.394	24.668	1095.054	861.739
407.409	24.529	1094.585	860.623
408.423	24.782	1093.604	860.994
409.438	24.882	1092.731	860.710
410.453	24.800	1092.223	859.840
411.467	24.680	1091.708	858.783
412.482	24.649	1091.018	858.015
413.496	24.755	1090.479	858.024
414.511	24.811	1089.800	857.682
415.526	24.805	1089.163	857.075
416.540	24.703	1088.885	856.295
417.555	24.830	1087.730	855.916
418.569	24.789	1087.499	855.462
419.584	24.737	1087.673	855.275
420.599	24.808	1087.027	855.033
421.613	148.889	1402.195	1799.522
422.628	137.684	1448.098	1799.625
