DTS Sentinel unit serial number:	SN413079Multiplexer serial number:	ORYXHardware model number:	OX4-SRSoftware version number:	ORYX F/W v4.00 Oryx Data Collector v3.7.2.0data status	okinstallation	princeton_trtdifferential loss correction	single-endedforward channel	channel 2reverse channel	N/Adate	2019/09/13time	07:47:35forward acquisition time	60.00reverse acquisition time	0.00gamma	496.2192k internal	0.2335k external	0.2335temperature offset calibration	1.0193default loss term (dB/km)	0.3790temperature slope calibration	1.0000multiplexer offset coefficient	1.0000multiplexer slope coefficient	1.0000fibre end	0.00T internal ref (°C)	26.52T ext. ref 1 (°C)	4.21T ext. ref 2 (°C)	22.94length (m)	temperature (°C)	Stokes	anti-Stokes-747.200	-1.271	-0.114	-0.081
-746.185	101.374	-0.118	0.139
-745.171	-200.000	0.007	0.114
-744.156	800.000	0.079	0.230
-743.142	-141.028	-0.073	0.008
-742.127	-76.811	-0.151	0.053
-741.112	-200.000	-0.002	0.297
-740.098	-106.950	-0.167	0.037
-739.083	119.951	0.156	-0.194
-738.069	64.697	0.169	0.172
-737.054	-55.119	-0.263	-0.119
-736.039	-107.745	0.121	-0.026
-735.025	-15.122	-0.191	0.123
-734.010	-121.263	-0.148	-0.025
-732.996	569.686	0.038	-0.093
-731.981	-11.140	0.110	0.073
-730.966	162.049	-0.307	-0.433
-729.952	800.000	-0.091	-0.265
-728.937	-34.023	-0.331	-0.183
-727.923	800.000	-0.137	-0.522
-726.908	-200.000	0.028	0.203
-725.894	110.545	-0.041	-0.049
-724.879	275.179	-0.116	0.207
-723.864	3.579	0.338	0.248
-722.850	-80.073	-0.291	-0.098
-721.835	22.788	-0.252	-0.207
-720.821	-160.978	-0.228	0.012
-719.806	65.382	-0.191	-0.194
-718.791	800.000	-0.068	0.198
-717.777	-200.000	-0.027	0.205
-716.762	-80.078	-0.316	-0.106
-715.748	-123.163	-0.185	-0.030
-714.733	-17.711	-0.143	0.090
-713.718	-23.886	0.094	0.057
-712.704	52.793	-0.051	0.049
-711.689	-200.000	0.000	0.017
-710.675	90.481	-0.135	0.152
-709.660	92.307	-0.063	0.072
-708.645	106.614	-0.228	-0.272
-707.631	-200.000	0.084	-0.388
-706.616	-85.867	-0.249	-0.077
-705.602	-200.000	0.000	-0.005
-704.587	-111.012	-0.192	0.040
-703.572	3.315	0.216	0.158
-702.558	-200.000	0.026	-0.170
-701.543	-200.000	-0.033	-0.192
-700.529	-188.277	-0.059	-0.001
-699.514	-5.352	0.321	-0.221
-698.499	-77.503	-0.172	-0.060
-697.485	800.000	-0.088	-0.299
-696.470	-77.661	-0.129	0.045
-695.456	136.279	-0.214	0.280
-694.441	-31.304	-0.121	0.068
-693.426	-34.824	-0.297	0.162
-692.412	115.569	-0.138	-0.169
-691.397	13.562	-0.094	-0.074
-690.383	1.089	-0.123	0.089
-689.368	128.545	-0.260	-0.333
-688.354	-200.000	0.039	-0.200
-687.339	299.382	-0.139	-0.257
-686.324	183.051	-0.069	-0.102
-685.310	800.000	0.040	-0.169
-684.295	-82.033	0.141	-0.046
-683.281	-162.022	0.279	0.014
-682.266	-200.000	0.001	0.188
-681.251	-104.674	-0.326	0.075
-680.237	-45.564	-0.171	-0.085
-679.222	29.561	-0.235	-0.200
-678.208	12.080	-0.152	-0.117
-677.193	-200.000	-0.045	0.330
-676.178	-200.000	0.027	-0.135
-675.164	-50.865	-0.189	-0.089
-674.149	-77.742	0.178	-0.062
-673.135	-125.094	-0.180	-0.028
-672.120	800.000	0.096	-0.387
-671.105	99.962	0.113	0.131
-670.091	-87.818	-0.085	0.026
-669.076	274.287	-0.062	-0.109
-668.062	155.994	-0.025	0.035
-667.047	-76.194	-0.279	0.098
-666.032	27.524	-0.106	0.089
-665.018	212.786	0.104	-0.164
-664.003	-133.828	-0.108	0.014
-662.989	-200.000	0.030	-0.303
-661.974	-200.000	-0.013	-0.161
-660.959	-73.982	-0.211	0.077
-659.945	-200.000	-0.042	-0.401
-658.930	250.628	0.151	-0.258
-657.916	-69.687	0.258	-0.099
-656.901	-89.660	-0.054	0.016
-655.886	46.235	-0.201	0.187
-654.872	94.290	-0.231	0.263
-653.857	-85.576	-0.106	0.033
-652.843	-67.386	-0.227	-0.089
-651.828	-106.822	0.348	-0.077
-650.814	17.575	0.199	-0.158
-649.799	-60.810	0.138	0.058
-648.784	-81.221	0.258	-0.085
-647.770	58.780	-0.143	0.141
-646.755	-63.368	-0.136	0.056
-645.741	-200.000	0.026	-0.329
-644.726	184.337	-0.156	-0.231
-643.711	-2.576	-0.018	-0.013
-642.697	37.388	-0.040	-0.035
-641.682	262.167	-0.183	-0.317
-640.668	144.274	-0.154	-0.205
-639.653	142.855	-0.038	0.051
-638.638	-71.593	0.060	-0.023
-637.624	800.000	-0.125	0.359
-636.609	-53.824	-0.185	-0.085
-635.595	-121.753	-0.098	0.016
-634.580	24.261	0.488	0.403
-633.565	15.097	-0.038	0.030
-632.551	-6.374	-0.226	0.154
-631.536	0.687	0.165	-0.118
-630.522	-200.000	-0.048	0.365
-629.507	147.784	-0.192	-0.259
-628.492	203.825	0.079	-0.123
-627.478	-44.048	-0.094	0.047
-626.463	101.337	-0.120	0.139
-625.449	-125.039	0.154	0.024
-624.434	320.470	-0.086	-0.163
-623.419	-101.217	0.421	-0.103
-622.405	55.191	-0.446	0.431
-621.390	-200.000	0.027	-0.387
-620.376	-134.906	0.365	-0.044
-619.361	30.958	-0.117	-0.100
-618.346	21.956	-0.207	0.169
-617.332	-88.341	-0.100	-0.030
-616.317	-27.240	-0.225	-0.131
-615.303	240.905	-0.144	0.241
-614.288	-67.382	-0.267	-0.105
-613.273	-43.425	0.113	0.057
-612.259	-193.143	-0.333	0.003
-611.244	-141.370	-0.072	-0.007
-610.230	-200.000	0.031	-0.256
-609.215	-184.943	0.161	-0.003
-608.201	743.878	0.119	0.320
-607.186	290.472	0.235	0.426
-606.171	366.174	0.062	0.124
-605.157	53.198	-0.155	-0.148
-604.142	-102.670	0.081	-0.019
-603.128	-145.725	0.113	0.010
-602.113	-83.060	-0.188	-0.060
-601.098	-200.000	-0.047	-0.584
-600.084	-142.381	0.201	-0.020
-599.069	-69.107	0.064	-0.025
-598.055	-200.000	-0.001	0.079
-597.040	-91.468	-0.217	-0.062
-596.025	-107.815	0.412	-0.090
-595.011	-2.025	0.198	-0.139
-593.996	-89.764	0.157	0.046
-592.982	748.271	-0.087	0.235
-591.967	131.377	-0.109	0.140
-590.952	-46.265	-0.115	-0.057
-589.938	-99.857	0.199	-0.050
-588.923	-66.838	-0.273	0.108
-587.909	57.702	-0.027	0.026
-586.894	-14.416	-0.142	-0.091
-585.879	-52.064	0.218	-0.101
-584.865	137.737	-0.167	0.218
-583.850	800.000	-0.098	0.306
-582.836	478.802	0.039	-0.088
-581.821	61.824	-0.219	0.218
-580.806	800.000	-0.067	-0.274
-579.792	-60.511	-0.149	-0.063
-578.777	8.480	0.351	-0.263
-577.763	-114.846	0.361	-0.069
-576.748	-30.314	-0.058	0.033
-575.733	681.743	-0.053	0.138
-574.719	50.769	-0.181	-0.171
-573.704	-200.000	-0.051	-0.272
-572.690	166.586	0.091	-0.129
-571.675	3.167	0.379	0.275
-570.661	-129.572	-0.236	-0.033
-569.646	-97.540	-0.151	-0.039
-568.631	99.409	-0.113	0.130
-567.617	-200.000	0.014	-0.278
-566.602	-200.000	0.105	-0.514
-565.588	-200.000	0.040	0.223
-564.573	29.863	0.135	0.115
-563.558	-83.625	-0.023	-0.007
-562.544	197.586	0.177	-0.270
-561.529	-200.000	0.001	0.025
-560.515	20.316	-0.216	-0.174
-559.500	48.515	0.090	-0.084
-558.485	-113.755	-0.232	-0.045
-557.471	800.000	-0.086	0.347
-556.456	75.595	0.128	0.134
-555.442	91.263	0.286	-0.320
-554.427	-200.000	-0.026	0.292
-553.412	54.961	-0.089	0.086
-552.398	-119.285	0.156	0.027
-551.383	-200.000	-0.015	-0.208
-550.369	-200.000	0.045	-0.346
-549.354	135.503	0.118	-0.153
-548.339	-200.000	0.068	0.309
-547.325	-60.305	-0.323	-0.137
-546.310	800.000	0.092	0.372
-545.296	-127.566	-0.095	-0.014
-544.281	-200.000	0.099	0.543
-543.266	83.100	0.130	-0.141
-542.252	118.261	-0.306	0.376
-541.237	-33.577	-0.063	0.035
-540.223	739.208	0.111	-0.298
-539.208	-162.532	-0.486	0.024
-538.193	-30.739	0.202	0.114
-537.179	184.211	-0.205	-0.302
-536.164	278.329	-0.077	-0.137
-535.150	-3.812	-0.305	-0.211
-534.135	-200.000	0.007	-0.062
-533.121	-200.000	-0.011	0.367
-532.106	-150.463	0.264	-0.020
-531.091	800.000	-0.103	-0.286
-530.077	571.948	-0.057	-0.138
-529.062	-200.000	-0.031	0.161
-528.048	800.000	-0.015	-0.067
-527.033	1.943	0.024	0.017
-526.018	142.825	-0.102	-0.135
-525.004	-200.000	-0.054	-0.371
-523.989	-200.000	-0.022	0.158
-522.975	781.357	0.069	-0.187
-521.960	-200.000	0.067	0.303
-520.945	800.000	0.073	0.234
-519.931	-200.000	0.015	-0.119
-518.916	79.281	-0.110	-0.117
-517.902	-23.153	-0.296	0.178
-516.887	607.017	-0.052	0.129
-515.872	-104.450	0.165	0.038
-514.858	77.020	0.250	0.264
-513.843	3.615	-0.209	0.152
-512.829	283.681	0.018	0.031
-511.814	50.517	-0.221	-0.208
-510.799	-110.075	0.231	-0.048
-509.785	46.463	-0.176	0.163
-508.770	72.345	0.155	0.161
-507.756	59.072	0.124	0.122
-506.741	575.531	-0.129	-0.313
-505.726	-4.025	0.236	0.163
-504.712	-118.895	-0.093	-0.016
-503.697	384.357	-0.084	-0.172
-502.683	-200.000	0.057	-0.250
-501.668	112.394	-0.139	-0.168
-500.653	-114.494	-0.099	-0.019
-499.639	400.734	0.055	-0.115
-498.624	5.427	0.088	0.064
-497.610	800.000	0.013	-0.040
-496.595	106.076	-0.077	0.090
-495.581	-156.680	-0.191	-0.012
-494.566	-200.000	0.016	0.324
-493.551	46.436	0.258	-0.238
-492.537	573.877	-0.051	0.125
-491.522	-200.000	-0.032	0.154
-490.508	358.830	-0.053	0.106
-489.493	-200.000	-0.032	0.456
-488.478	68.988	-0.229	-0.234
-487.464	800.000	0.076	-0.261
-486.449	112.175	-0.073	-0.087
-485.435	78.700	0.077	-0.082
-484.420	25.781	0.296	-0.245
-483.405	54.792	-0.179	-0.172
-482.391	800.000	0.016	-0.046
-481.376	-179.360	0.088	-0.002
-480.362	-200.000	-0.049	0.331
-479.347	553.463	-0.115	0.276
-478.332	218.869	-0.146	-0.233
-477.318	-100.530	0.107	-0.026
-476.303	85.045	-0.133	-0.145
-475.289	149.939	-0.123	-0.166
-474.274	-106.285	-0.343	-0.076
-473.259	800.000	-0.030	-0.126
-472.245	116.861	0.076	-0.093
-471.230	502.299	-0.040	-0.092
-470.216	8.206	0.272	-0.203
-469.201	-15.193	0.029	-0.019
-468.186	22.116	0.053	-0.043
-467.172	-58.097	0.221	0.096
-466.157	32.982	-0.147	0.126
-465.143	-200.000	-0.010	0.114
-464.128	-18.279	-0.103	-0.064
-463.113	-200.000	0.045	-0.250
-462.099	71.103	-0.354	0.365
-461.084	-66.403	0.354	0.140
-460.070	77.205	-0.053	-0.056
-459.055	-38.846	0.238	-0.125
-458.040	-200.000	0.012	0.155
-457.026	-10.120	-0.204	0.135
-456.011	2.417	0.150	-0.108
-454.997	633.779	-0.040	-0.101
-453.982	27.776	-0.100	-0.084
-452.968	-117.299	0.226	-0.041
-451.953	-25.008	0.310	0.183
-450.938	800.000	-0.016	-0.059
-449.924	-172.998	-0.174	0.005
-448.909	-157.011	-0.428	-0.026
-447.895	-200.000	0.005	-0.210
-446.880	364.886	0.049	-0.099
-445.865	95.537	0.084	0.095
-444.851	-76.308	0.277	-0.097
-443.836	-87.056	0.437	0.132
-442.822	-8.842	0.069	0.046
-441.807	283.810	-0.074	0.132
-440.792	-111.740	0.179	0.036
-439.778	800.000	0.006	0.022
-438.763	-45.032	-0.134	-0.066
-437.749	-164.556	0.389	-0.018
-436.734	800.000	-0.057	0.181
-435.719	662.261	0.065	-0.168
-434.705	-96.627	0.236	0.062
-433.690	9.032	-0.176	-0.132
-432.676	-200.000	0.021	-0.222
-431.661	-43.323	-0.288	0.145
-430.646	800.000	0.017	-0.062
-429.632	-200.000	0.027	-0.239
-428.617	-170.165	0.228	0.008
-427.603	-12.241	-0.124	-0.081
-426.588	-200.000	0.016	-0.130
-425.573	-64.479	0.026	-0.010
-424.559	67.874	0.111	-0.112
-423.544	-107.790	-0.419	-0.091
-422.530	-117.140	-0.132	0.024
-421.515	207.825	0.174	-0.270
-420.500	-42.767	0.199	0.100
-419.486	-200.000	0.017	0.358
-418.471	438.421	-0.071	0.153
-417.457	175.189	0.020	-0.029
-416.442	-85.728	-0.482	-0.148
-415.428	800.000	0.093	-0.336
-414.413	-200.000	-0.058	0.261
-413.398	336.543	0.154	0.296
-412.384	-74.638	-0.454	-0.162
-411.369	74.537	-0.132	-0.137
-410.355	1.263	-0.168	0.120
-409.340	79.450	0.518	0.551
-408.325	-200.000	-0.049	0.271
-407.311	-123.465	0.066	0.010
-406.296	49.887	0.105	-0.098
-405.282	-89.078	0.411	-0.121
-404.267	-63.670	-0.351	-0.143
-403.252	-163.628	-0.250	0.012
-402.238	-156.226	-0.050	0.003
-401.223	-134.256	0.120	0.015
-400.209	-193.149	0.086	-0.001
-399.194	-55.179	0.227	-0.101
-398.179	800.000	-0.039	-0.144
-397.165	28.344	-0.385	-0.322
-396.150	-29.729	-0.190	-0.107
-395.136	714.223	-0.028	0.074
-394.121	80.846	-0.278	-0.298
-393.106	346.628	0.017	0.034
-392.092	-200.000	-0.029	0.247
-391.077	-146.220	0.091	-0.008
-390.063	286.804	0.115	0.207
-389.048	99.353	0.307	0.351
-388.033	-87.903	0.305	0.091
-387.019	800.000	0.117	-0.387
-386.004	-69.951	-0.451	0.170
-384.990	6.477	-0.133	-0.098
-383.975	-200.000	0.010	0.203
-382.960	34.965	0.144	0.125
-381.946	313.189	0.054	-0.101
-380.931	48.603	-0.112	0.104
-379.917	-111.810	0.277	-0.056
-378.902	-60.533	0.320	-0.134
-377.888	800.000	-0.219	-0.637
-376.873	26.073	0.079	0.065
-375.858	-200.000	0.002	0.100
-374.844	-135.963	0.186	0.022
-373.829	-165.204	-0.231	-0.010
-372.815	209.038	-0.115	-0.178
-371.800	354.873	0.106	-0.209
-370.785	-105.212	-0.288	0.065
-369.771	800.000	-0.080	-0.231
-368.756	-54.279	0.170	-0.076
-367.742	167.341	0.136	-0.191
-366.727	8.484	0.030	-0.022
-365.712	674.296	-0.189	0.485
-364.698	244.643	-0.258	-0.429
-363.683	-197.848	0.076	-0.000
-362.669	187.171	0.085	0.126
-361.654	800.000	0.024	0.085
-360.639	-13.255	-0.209	0.134
-359.625	800.000	0.073	-0.213
-358.610	41.575	0.091	0.082
-357.596	-33.536	-0.126	0.069
-356.581	-29.025	-0.067	-0.038
-355.566	408.695	0.069	0.144
-354.552	-123.634	0.230	0.036
-353.537	15.600	0.150	-0.116
-352.523	-120.717	0.026	0.004
-351.508	800.000	0.068	-0.237
-350.493	24.490	0.178	0.146
-349.479	186.041	-0.258	-0.380
-348.464	-47.146	-0.228	-0.110
-347.450	-22.585	0.080	0.048
-346.435	-87.303	-0.268	0.080
-345.420	189.769	-0.149	0.221
-344.406	-45.805	-0.208	-0.102
-343.391	-114.908	-0.114	-0.021
-342.377	239.305	0.149	0.245
-341.362	-200.000	0.017	0.094
-340.348	715.701	-0.015	-0.039
-339.333	-47.600	0.337	0.162
-338.318	800.000	-0.054	0.222
-337.304	-156.115	-0.245	0.015
-336.289	-34.466	-0.181	-0.098
-335.275	5.920	-0.082	0.060
-334.260	757.418	0.027	-0.072
-333.245	95.212	0.271	0.306
-332.231	16.617	0.022	0.018
-331.216	-200.000	-0.036	0.191
-330.202	-9.080	-0.164	-0.108
-329.187	-87.013	-0.185	0.056
-328.172	27.702	-0.153	0.128
-327.158	483.096	-0.029	-0.065
-326.143	309.990	-0.133	-0.246
-325.129	69.918	0.152	-0.155
-324.114	-200.000	-0.003	-0.115
-323.099	-85.023	0.204	0.063
-322.085	-13.024	0.288	0.185
-321.070	-75.901	0.095	0.033
-320.056	309.145	0.030	0.055
-319.041	36.062	-0.094	0.081
-318.026	-134.109	-0.137	0.017
-317.012	330.945	0.079	-0.151
-315.997	800.000	0.043	-0.131
-314.983	-200.000	0.032	-0.166
-313.968	-200.000	-0.144	0.000
-312.953	-7.654	0.171	-0.114
-311.939	-90.078	0.482	0.139
-310.924	589.612	-0.062	0.151
-309.910	-200.000	-0.105	0.000
-308.895	-56.590	-0.119	-0.052
-307.880	-105.297	-0.222	-0.050
-306.866	39.726	-0.030	-0.026
-305.851	-200.000	0.035	-0.363
-304.837	-98.267	-0.101	-0.026
-303.822	-44.478	-0.167	0.082
-302.807	-4.372	-0.169	-0.115
-301.793	-200.000	0.029	-0.216
-300.778	564.361	-0.133	0.319
-299.764	193.248	-0.049	0.073
-298.749	167.293	0.128	0.180
-297.735	-57.401	0.349	0.151
-296.720	3.393	0.241	0.173
-295.705	98.034	0.164	-0.186
-294.691	800.000	-0.065	0.276
-293.676	-139.514	0.062	-0.007
-292.662	335.289	0.059	0.113
-291.647	443.860	0.021	-0.046
-290.632	-200.000	0.024	-0.154
-289.618	118.231	0.239	0.291
-288.603	-44.104	0.116	-0.058
-287.589	-76.534	0.234	0.081
-286.574	144.104	-0.094	-0.124
-285.559	-22.921	-0.326	-0.194
-284.545	321.186	-0.227	-0.427
-283.530	-57.047	-0.244	-0.106
-282.516	314.019	0.195	0.361
-281.501	-73.453	0.345	0.124
-280.486	-71.881	-0.073	0.027
-279.472	-200.000	0.014	-0.137
-278.457	-20.422	0.060	-0.037
-277.443	-120.180	0.524	0.088
-276.428	193.344	0.172	0.257
-275.413	240.270	0.113	-0.185
-274.399	-200.000	0.002	0.146
-273.384	-54.282	0.058	0.026
-272.370	777.187	-0.093	0.250
-271.355	18.126	0.195	-0.154
-270.340	-67.111	0.122	-0.047
-269.326	-200.000	0.011	-0.109
-268.311	-109.890	0.188	-0.039
-267.297	-86.844	-0.206	-0.062
-266.282	-200.000	-0.033	-0.301
-265.267	249.616	0.062	-0.104
-264.253	-149.287	0.279	0.022
-263.238	-76.740	-0.122	0.042
-262.224	-200.000	-0.001	0.028
-261.209	128.937	0.110	-0.138
-260.195	-144.707	-0.139	-0.013
-259.180	800.000	0.011	0.032
-258.165	-122.118	-0.332	-0.054
-257.151	97.904	-0.078	0.089
-256.136	-130.364	-0.232	0.031
-255.122	172.581	0.108	0.153
-254.107	800.000	0.050	0.182
-253.092	410.216	-0.164	0.343
-252.078	101.267	0.126	0.144
-251.063	53.551	-0.177	-0.168
-250.049	-192.951	0.168	-0.001
-249.034	649.625	-0.085	0.215
-248.019	-129.066	-0.348	-0.048
-247.005	-48.713	0.285	0.135
-245.990	1.159	0.185	-0.131
-244.976	800.000	0.053	0.156
-243.961	73.935	-0.125	-0.130
-242.946	651.137	-0.054	0.136
-241.932	123.993	-0.060	0.074
-240.917	-89.516	-0.154	0.045
-239.903	-200.000	-0.008	-0.187
-238.888	14.328	-0.139	-0.107
-237.873	253.073	0.106	-0.178
-236.859	800.000	-0.061	-0.249
-235.844	-104.310	0.274	0.063
-234.830	280.923	0.141	0.249
-233.815	-101.878	0.176	0.042
-232.800	-200.000	-0.004	-0.084
-231.786	-37.903	0.253	-0.132
-230.771	-1.830	0.109	-0.075
-229.757	16.512	0.343	0.267
-228.742	-183.579	-0.448	-0.008
-227.727	-56.386	-0.164	0.072
-226.713	242.702	-0.089	-0.146
-225.698	-116.998	0.306	0.055
-224.684	-27.614	-0.179	-0.102
-223.669	-200.000	0.069	-0.299
-222.655	-97.746	-0.104	0.027
-221.640	-200.000	0.026	0.156
-220.625	705.634	0.115	-0.300
-219.611	-14.850	-0.105	-0.066
-218.596	-200.000	-0.001	-0.047
-217.582	22.719	-0.110	0.089
-216.567	-109.413	0.172	-0.036
-215.552	-125.794	0.261	0.039
-214.538	206.958	-0.070	-0.107
-213.523	25.097	-0.171	0.140
-212.509	-200.000	-0.031	0.147
-211.494	800.000	-0.065	-0.198
-210.479	-46.631	-0.175	-0.084
-209.465	-12.643	-0.262	0.168
-208.450	-200.000	0.057	0.406
-207.436	157.021	-0.057	-0.078
-206.421	124.248	0.138	0.171
-205.406	800.000	-0.037	-0.113
-204.392	391.697	0.185	0.379
-203.377	-140.532	0.183	0.019
-202.363	-4.294	-0.202	-0.138
-201.348	-147.199	-0.182	0.015
-200.333	29.865	0.183	-0.153
-199.319	279.294	0.198	0.348
-198.304	-65.567	-0.049	0.019
-197.290	-46.488	-0.342	0.165
-196.275	-8.842	-0.130	0.085
-195.260	115.467	-0.109	-0.131
-194.246	-149.960	-0.199	0.015
-193.231	184.381	0.204	0.297
-192.217	-200.000	0.024	-0.128
-191.202	-101.596	-0.140	0.033
-190.187	-60.658	0.114	0.047
-189.173	370.596	0.047	-0.094
-188.158	800.000	-0.091	0.259
-187.144	-200.000	-0.015	0.199
-186.129	5.627	-0.149	-0.108
-185.114	-87.366	0.325	0.097
-184.100	585.609	-0.066	0.159
-183.085	-62.186	-0.272	0.111
-182.071	-200.000	0.020	-0.139
-181.056	-27.418	-0.129	0.074
-180.042	-40.160	-0.061	0.031
-179.027	-1.570	0.156	-0.108
-178.012	163.344	-0.171	-0.236
-176.998	-168.468	0.044	-0.002
-175.983	-11.872	0.078	0.050
-174.969	34.267	-0.233	-0.200
-173.954	-200.000	-0.033	-0.256
-172.939	13.047	0.379	-0.288
-171.925	302.394	-0.127	0.230
-170.910	-41.671	0.464	0.234
-169.896	-200.000	-0.004	0.073
-168.881	800.000	-0.083	-0.252
-167.866	24.711	-0.079	-0.064
-166.852	-34.881	0.196	-0.105
-165.837	168.338	0.188	0.263
-164.823	-148.014	0.384	0.031
-163.808	-112.133	0.223	0.044
-162.793	-166.801	-0.235	0.009
-161.779	-29.812	0.341	0.191
-160.764	190.906	0.118	0.174
-159.750	104.091	0.287	0.332
-158.735	-200.000	0.054	0.471
-157.720	-41.251	0.106	0.053
-156.706	-174.255	-0.099	0.003
-155.691	-9.125	-0.191	-0.125
-154.677	-56.418	-0.266	-0.116
-153.662	800.000	0.016	0.068
-152.647	800.000	-0.062	0.211
-151.633	176.406	0.095	-0.136
-150.618	800.000	-0.099	0.339
-149.604	-44.861	0.143	-0.070
-148.589	-164.170	0.154	0.007
-147.574	-36.569	0.223	0.118
-146.560	-161.825	-0.230	-0.011
-145.545	591.881	0.143	-0.347
-144.531	-103.355	0.085	-0.020
-143.516	198.674	0.180	0.270
-142.502	705.841	0.082	0.214
-141.487	-135.715	0.113	-0.013
-140.472	-106.062	-0.125	-0.027
-139.458	800.000	-0.022	0.091
-138.443	-200.000	0.017	0.240
-137.429	91.061	-0.186	-0.205
-136.414	183.082	-0.056	0.081
-135.399	800.000	0.051	0.159
-134.385	-38.505	-0.121	-0.063
-133.370	-133.955	0.142	0.017
-132.356	162.581	-0.094	0.129
-131.341	-200.000	-0.025	-0.408
-130.326	475.631	-0.053	0.118
-129.312	85.572	-0.053	-0.058
-128.297	140.033	0.040	0.052
-127.283	551.354	0.082	-0.193
-126.268	204.566	0.027	-0.042
-125.253	-200.000	0.007	-0.142
-124.239	293.452	0.092	0.165
-123.224	-200.000	0.007	-0.167
-122.210	529.826	-0.128	0.296
-121.195	-93.208	0.271	-0.074
-120.180	-183.526	0.238	-0.004
-119.166	146.031	0.151	0.198
-118.151	-46.318	0.136	-0.065
-117.137	800.000	0.042	-0.126
-116.122	82.239	-0.038	-0.041
-115.107	-173.984	-0.021	-0.001
-114.093	71.526	-0.224	0.228
-113.078	11.465	0.055	-0.042
-112.064	156.105	0.198	-0.268
-111.049	4.774	0.104	-0.075
-110.034	800.000	-0.123	0.342
-109.020	97.345	0.252	-0.283
-108.005	89.366	0.083	0.091
-106.991	-53.419	-0.292	0.131
-105.976	-200.000	-0.077	0.357
-104.962	29.586	0.110	0.091
-103.947	-141.190	0.312	-0.031
-102.932	-200.000	0.002	-0.231
-101.918	-200.000	0.001	-0.274
-100.903	-55.861	0.150	-0.066
-99.889	-163.514	-0.125	-0.006
-98.874	-125.235	0.492	-0.074
-97.859	800.000	-0.034	-0.128
-96.845	-126.396	-0.457	-0.067
-95.830	231.015	-0.222	0.357
-94.816	146.348	0.156	0.205
-93.801	119.047	-0.271	-0.328
-92.786	-200.000	0.009	-0.072
-91.772	-200.000	0.025	-0.233
-90.757	-16.246	-0.274	-0.171
-89.743	67.414	-0.211	-0.211
-88.728	-144.275	-0.254	0.023
-87.713	800.000	0.053	0.164
-86.699	524.591	0.144	0.332
-85.684	-3.120	0.205	0.140
-84.670	-26.919	-0.119	-0.068
-83.655	-102.525	0.403	0.094
-82.640	800.000	0.038	-0.126
-81.626	238.264	0.217	-0.352
-80.611	-200.000	0.042	-0.350
-79.597	-32.355	-0.111	-0.061
-78.582	-62.383	0.232	-0.094
-77.567	189.084	0.049	0.072
-76.553	-128.187	0.157	-0.022
-75.538	274.960	-0.091	-0.159
-74.524	-89.494	-0.153	0.044
-73.509	-23.709	-0.208	0.122
-72.494	106.266	-0.088	0.102
-71.480	149.336	0.197	0.260
-70.465	357.995	-0.023	0.046
-69.451	35.466	0.219	-0.188
-68.436	149.443	-0.109	-0.145
-67.422	-45.759	0.127	-0.061
-66.407	4.677	0.071	-0.051
-65.392	-43.901	0.123	-0.061
-64.378	227.438	-0.180	-0.286
-63.363	289.279	0.034	-0.061
-62.349	-200.000	-0.022	0.110
-61.334	16.133	-1.306	-1.007
-60.319	163.013	0.379	0.520
-59.305	290.634	-0.614	-1.092
-58.290	231.776	0.646	1.037
-57.276	323.669	0.641	1.196
-56.261	-200.000	116.504	659.748
-55.246	522.025	1541.950	3540.135
-54.232	173.350	2724.015	3841.525
-53.217	100.692	2301.000	2614.492
-52.203	35.804	1903.542	1636.604
-51.188	29.587	1693.081	1408.377
-50.173	27.123	1651.353	1355.254
-49.159	49.221	1707.827	1569.660
-48.144	47.366	1721.698	1568.308
-47.130	29.300	1678.852	1394.145
-46.115	26.542	1664.680	1361.610
-45.100	26.375	1659.425	1356.003
-44.086	26.354	1657.074	1353.871
-43.071	26.398	1654.316	1351.890
-42.057	26.324	1651.675	1349.126
-41.042	26.309	1650.083	1347.661
-40.027	26.397	1647.884	1346.472
-39.013	26.366	1645.838	1344.512
-37.998	26.300	1644.223	1342.646
-36.984	26.426	1642.575	1342.190
-35.969	26.453	1641.645	1341.575
-34.954	26.440	1640.153	1340.203
-33.940	26.513	1637.895	1338.847
-32.925	26.451	1636.615	1337.286
-31.911	26.441	1634.820	1335.692
-30.896	26.588	1632.774	1335.057
-29.881	26.523	1631.560	1333.530
-28.867	26.512	1629.738	1331.906
-27.852	26.543	1628.143	1330.781
-26.838	26.501	1626.836	1329.347
-25.823	26.504	1625.628	1328.332
-24.809	26.598	1623.700	1327.392
-23.794	26.489	1622.556	1325.606
-22.779	26.515	1621.206	1324.644
-21.765	26.500	1619.494	1323.081
-20.750	26.470	1617.816	1321.440
-19.736	26.495	1616.845	1320.771
-18.721	26.572	1615.293	1320.014
-17.706	26.546	1613.579	1318.377
-16.692	26.518	1611.942	1316.782
-15.677	26.630	1611.034	1316.799
-14.663	26.580	1609.317	1314.983
-13.648	26.628	1607.823	1314.058
-12.633	26.594	1606.292	1312.505
-11.619	26.652	1604.486	1311.398
-10.604	26.571	1603.648	1310.073
-9.590	26.491	1602.212	1308.269
-8.575	26.551	1600.762	1307.469
-7.560	26.636	1599.154	1306.714
-6.546	26.630	1598.030	1305.701
-5.531	26.551	1597.120	1304.341
-4.517	26.678	1595.626	1303.980
-3.502	26.556	1595.163	1302.670
-2.487	26.653	1593.424	1301.897
-1.473	26.399	1582.299	1290.947
-0.458	23.864	1563.020	1257.261
0.556	22.687	1565.674	1229.146
1.571	20.527	1590.422	1233.156
2.586	20.039	1602.939	1239.266
3.600	17.984	1548.489	1182.847
4.615	11.212	1441.206	1057.009
5.629	5.265	1381.278	975.907
6.644	4.185	1374.031	963.987
7.659	4.149	1373.245	963.124
8.673	4.239	1372.471	963.056
9.688	4.267	1370.433	961.716
10.702	4.185	1367.446	959.026
11.717	7.049	1372.551	980.284
12.731	14.590	1386.286	1037.041
13.746	20.872	1396.600	1083.875
14.761	22.530	1398.131	1095.280
15.775	21.968	1396.775	1090.629
16.790	21.080	1393.931	1082.803
17.804	20.411	1391.635	1076.782
18.819	19.952	1390.907	1073.275
19.834	19.914	1389.686	1072.006
20.848	19.875	1388.600	1070.832
21.863	19.755	1387.603	1069.227
22.877	19.609	1386.547	1067.411
23.892	19.443	1385.780	1065.703
24.907	19.498	1384.341	1064.844
25.921	19.455	1383.914	1064.152
26.936	19.482	1383.089	1063.594
27.950	19.607	1381.912	1063.363
28.965	19.724	1380.962	1063.256
29.980	19.862	1379.467	1062.863
30.994	19.807	1379.386	1062.366
32.009	19.950	1377.996	1062.078
33.023	19.841	1377.107	1060.631
34.038	19.823	1375.381	1059.100
35.053	19.656	1374.275	1057.128
36.067	19.661	1373.393	1056.391
37.082	19.786	1372.037	1056.013
38.096	19.799	1371.484	1055.576
39.111	19.698	1371.116	1054.580
40.126	19.687	1369.709	1053.343
41.140	19.411	1368.630	1050.739
42.155	19.114	1368.257	1048.548
43.169	19.139	1367.912	1048.345
44.184	19.140	1367.212	1047.720
45.199	19.231	1367.401	1048.326
46.213	19.342	1367.217	1048.769
47.228	19.614	1365.838	1049.268
48.242	19.679	1364.697	1048.697
49.257	19.556	1363.689	1047.083
50.271	19.601	1361.959	1045.932
51.286	19.568	1360.985	1044.893
52.301	19.564	1359.612	1043.720
53.315	19.506	1357.735	1041.842
54.330	19.389	1357.062	1040.527
55.344	19.234	1356.068	1038.736
56.359	19.193	1355.263	1037.777
57.374	19.249	1354.338	1037.317
58.388	19.210	1353.211	1036.126
59.403	19.192	1352.705	1035.538
60.417	19.097	1351.751	1034.147
61.432	18.975	1351.574	1033.188
62.447	18.972	1350.017	1031.887
63.461	18.980	1348.629	1030.785
64.476	18.822	1348.261	1029.462
65.490	18.896	1346.510	1028.478
66.505	18.958	1345.070	1027.658
67.520	18.913	1343.942	1026.439
68.534	19.089	1342.653	1026.414
69.549	18.899	1342.168	1024.818
70.563	18.761	1340.915	1022.946
71.578	18.870	1339.192	1022.194
72.593	18.685	1338.236	1020.273
73.607	18.617	1338.068	1019.649
74.622	18.812	1337.283	1020.120
75.636	18.816	1336.812	1019.692
76.651	18.767	1336.105	1018.772
77.666	18.840	1335.549	1018.692
78.680	18.890	1335.579	1018.921
79.695	19.030	1334.790	1019.061
80.709	18.997	1334.020	1018.187
81.724	19.187	1333.020	1018.453
82.739	19.339	1332.238	1018.665
83.753	19.472	1331.698	1018.945
84.768	19.605	1330.784	1018.941
85.782	19.850	1329.710	1019.473
86.797	19.707	1328.570	1017.667
87.812	19.532	1327.137	1015.454
88.826	19.590	1326.441	1015.169
89.841	19.775	1324.895	1014.984
90.855	19.749	1324.209	1014.218
91.870	19.805	1323.336	1013.785
92.884	19.866	1322.638	1013.521
93.899	19.958	1322.172	1013.612
94.914	19.935	1321.348	1012.753
95.928	19.846	1320.471	1011.473
96.943	19.817	1319.862	1010.747
97.957	19.758	1318.802	1009.500
98.972	19.652	1317.393	1007.715
99.987	19.807	1316.288	1007.687
101.001	19.716	1315.285	1006.297
102.016	19.770	1314.395	1005.843
103.030	19.755	1313.382	1004.891
104.045	19.751	1312.797	1004.331
105.060	19.600	1311.575	1002.429
106.074	19.230	1309.715	998.777
107.089	19.058	1307.618	996.092
108.103	18.837	1306.653	993.989
109.118	18.930	1304.944	993.142
110.133	18.980	1303.992	992.617
111.147	18.979	1302.840	991.644
112.162	19.055	1301.373	990.881
113.176	19.106	1300.491	990.415
114.191	19.081	1300.174	989.937
115.206	19.140	1298.468	988.894
116.220	19.050	1297.587	987.616
117.235	19.171	1296.067	987.069
118.249	19.129	1295.057	985.970
119.264	18.935	1294.060	984.012
120.279	18.838	1292.589	982.256
121.293	18.864	1292.156	981.984
122.308	18.689	1291.059	980.064
123.322	18.775	1289.673	979.416
124.337	18.729	1288.945	978.515
125.352	18.670	1287.895	977.296
126.366	18.649	1286.541	976.065
127.381	18.700	1285.617	975.565
128.395	18.600	1285.138	974.545
129.410	18.695	1284.366	974.417
130.424	18.912	1283.153	974.640
131.439	18.881	1282.125	973.599
132.454	19.011	1281.516	973.783
133.468	19.106	1280.710	973.626
134.483	19.218	1279.321	973.114
135.497	19.028	1279.155	971.829
136.512	19.182	1277.496	971.352
137.527	19.237	1276.115	970.526
138.541	19.136	1274.777	968.851
139.556	19.291	1274.194	969.196
140.570	19.252	1273.779	968.576
141.585	19.477	1271.977	968.384
142.600	19.582	1271.058	968.187
143.614	19.768	1270.468	968.693
144.629	19.748	1269.221	967.541
145.643	19.721	1268.014	966.385
146.658	19.528	1266.717	964.233
147.673	19.385	1265.302	962.272
148.687	19.192	1264.524	960.521
149.702	19.170	1262.932	959.103
150.716	19.114	1261.307	957.474
151.731	19.177	1259.982	956.733
152.746	19.175	1259.097	955.968
153.760	19.139	1258.390	955.144
154.775	19.382	1257.231	955.528
155.789	19.421	1256.249	954.912
156.804	19.418	1255.608	954.326
157.819	19.581	1254.280	954.132
158.833	19.703	1253.484	954.114
159.848	19.791	1252.948	954.110
160.862	19.725	1251.780	952.769
161.877	19.416	1250.340	949.888
162.892	19.191	1248.996	947.546
163.906	19.240	1247.610	946.680
164.921	19.176	1247.202	945.937
165.935	19.288	1246.469	945.912
166.950	19.355	1245.864	945.732
167.964	19.367	1245.210	945.220
168.979	19.224	1244.369	943.713
169.994	19.325	1243.242	943.329
171.008	19.318	1242.650	942.757
172.023	19.410	1242.409	942.994
173.037	19.657	1241.606	943.654
174.052	19.659	1240.112	942.441
175.067	19.375	1238.895	939.888
176.081	19.160	1237.941	937.912
177.096	19.181	1237.459	937.573
178.110	19.228	1236.256	936.838
179.125	19.371	1235.256	936.772
180.140	19.330	1234.329	935.763
181.154	19.493	1233.236	935.738
182.169	19.649	1231.730	935.359
183.183	19.691	1230.791	934.790
184.198	19.748	1229.562	934.078
185.213	19.737	1228.890	933.430
186.227	19.786	1227.757	932.749
187.242	19.791	1227.319	932.359
188.256	19.852	1226.220	931.770
189.271	19.939	1225.059	931.275
190.286	19.743	1223.442	928.909
191.300	19.263	1222.510	925.544
192.315	19.078	1222.292	924.304
193.329	19.197	1221.267	924.083
194.344	19.392	1220.592	924.535
195.359	19.449	1220.103	924.392
196.373	19.521	1219.277	924.067
197.388	19.534	1219.662	924.348
198.402	19.837	1219.580	925.825
199.417	19.964	1218.643	925.711
200.432	20.145	1217.992	926.104
201.446	20.171	1218.044	926.195
202.461	20.286	1216.957	925.905
203.475	20.281	1215.796	924.912
204.490	19.973	1214.392	922.121
205.504	19.868	1212.908	920.353
206.519	19.757	1211.890	918.910
207.534	19.743	1210.756	917.896
208.548	19.774	1209.480	917.011
209.563	19.854	1208.830	916.862
210.577	19.787	1207.843	915.679
211.592	19.930	1207.321	915.956
212.607	20.016	1206.919	916.023
213.621	20.128	1205.901	915.761
214.636	20.042	1204.445	914.123
215.650	20.086	1204.089	914.005
216.665	20.087	1203.115	913.189
217.680	20.194	1202.940	913.540
218.694	20.336	1201.821	913.356
219.709	20.125	1201.076	911.599
220.723	20.224	1199.907	911.149
221.738	20.227	1199.322	910.641
222.753	20.112	1198.816	909.572
223.767	20.137	1198.367	909.284
224.782	20.294	1197.745	909.555
225.796	20.418	1197.277	909.771
226.811	20.409	1196.466	909.022
227.826	20.232	1195.351	907.174
228.840	20.135	1194.605	906.016
229.855	20.004	1193.925	904.739
230.869	20.146	1192.628	904.414
231.884	20.097	1191.677	903.360
232.899	19.989	1190.923	902.147
233.913	19.928	1190.314	901.288
234.928	19.840	1189.706	900.288
235.942	19.850	1188.465	899.322
236.957	19.828	1187.961	898.747
237.972	19.700	1187.739	897.833
238.986	19.799	1186.696	897.478
240.001	19.817	1185.822	896.833
241.015	19.923	1185.127	896.779
242.030	19.925	1184.705	896.388
243.045	20.123	1183.900	896.725
244.059	20.108	1183.298	896.111
245.074	20.160	1181.865	895.215
246.088	20.191	1181.645	895.128
247.103	20.400	1180.811	895.494
248.117	20.600	1180.277	896.042
249.132	20.692	1179.722	896.017
250.147	21.004	1179.385	897.286
251.161	21.008	1179.215	897.099
252.176	21.012	1178.777	896.707
253.190	21.122	1177.656	896.339
254.205	21.258	1177.002	896.462
255.220	21.280	1176.647	896.224
256.234	21.129	1175.851	894.761
257.249	21.205	1174.769	894.253
258.263	21.133	1174.516	893.609
259.278	21.165	1173.856	893.191
260.293	21.283	1172.929	893.010
261.307	21.277	1172.473	892.554
262.322	21.275	1171.926	892.050
263.336	21.234	1171.289	891.275
264.351	21.360	1170.904	891.547
265.366	21.316	1170.104	890.635
266.380	21.368	1169.008	889.985
267.395	21.145	1168.680	888.524
268.409	21.072	1167.509	887.184
269.424	20.877	1166.958	885.692
270.439	21.072	1166.203	886.035
271.453	21.058	1165.112	885.057
272.468	20.827	1164.347	883.225
273.482	20.842	1163.435	882.530
274.497	20.752	1163.215	881.830
275.512	20.861	1162.383	881.673
276.526	20.867	1161.499	880.956
277.541	20.793	1160.877	880.032
278.555	20.933	1160.508	880.379
279.570	21.073	1159.897	880.547
280.585	21.272	1158.958	880.757
281.599	21.340	1157.927	880.238
282.614	21.107	1156.804	878.133
283.628	21.004	1155.553	876.591
284.643	20.960	1154.844	875.755
285.657	20.961	1154.196	875.188
286.672	21.033	1152.999	874.567
287.687	21.016	1152.113	873.732
288.701	21.077	1151.502	873.496
289.716	21.143	1150.352	872.875
290.730	21.118	1149.432	871.977
291.745	21.219	1148.879	871.983
292.760	21.269	1148.679	872.003
293.774	21.386	1147.959	871.966
294.789	21.403	1148.153	872.118
295.803	21.324	1147.368	871.052
296.818	21.113	1146.063	868.935
297.833	21.152	1145.276	868.456
298.847	21.062	1144.666	867.467
299.862	21.121	1143.709	866.957
300.876	21.231	1142.800	866.739
301.891	21.243	1142.662	866.619
302.906	21.485	1141.941	867.194
303.920	21.569	1141.516	867.209
304.935	21.642	1140.958	867.071
305.949	21.811	1140.324	867.347
306.964	21.693	1139.603	866.138
307.979	21.513	1138.570	864.390
308.993	21.510	1138.211	864.026
310.008	21.643	1137.184	863.824
311.022	21.627	1136.551	863.187
312.037	21.748	1135.622	863.001
313.052	21.513	1134.439	860.870
314.066	21.307	1133.231	858.867
315.081	21.120	1132.121	857.032
316.095	21.118	1131.640	856.580
317.110	21.199	1130.846	856.300
318.125	21.199	1129.805	855.439
319.139	21.153	1129.208	854.683
320.154	21.145	1128.739	854.216
321.168	21.173	1127.943	853.673
322.183	21.295	1127.325	853.728
323.197	21.306	1127.196	853.607
324.212	21.280	1126.484	852.867
325.227	21.297	1125.846	852.388
326.241	21.358	1125.005	851.974
327.256	21.268	1124.710	851.240
328.270	21.139	1123.279	849.454
329.285	21.347	1122.224	849.589
330.300	21.239	1121.890	848.737
331.314	21.220	1120.664	847.645
332.329	21.262	1119.814	847.129
333.343	21.343	1119.149	846.941
334.358	21.510	1118.267	847.008
335.373	21.327	1118.396	846.145
336.387	21.562	1116.858	846.044
337.402	21.666	1115.950	845.781
338.416	21.742	1115.342	845.615
339.431	21.731	1115.470	845.582
340.446	21.811	1114.950	845.501
341.460	22.149	1114.072	846.385
342.475	22.115	1113.350	845.602
343.489	22.173	1112.470	845.133
344.504	22.167	1111.837	844.551
345.519	22.161	1111.103	843.891
346.533	22.204	1109.930	843.131
347.548	22.288	1109.579	843.192
348.562	22.228	1108.670	842.140
349.577	22.031	1107.356	840.125
350.592	21.925	1106.284	838.728
351.606	21.687	1105.514	836.934
352.621	21.603	1105.322	836.315
353.635	21.385	1104.648	834.689
354.650	21.637	1103.366	834.847
355.665	21.673	1103.023	834.685
356.679	21.800	1102.388	834.738
357.694	21.896	1101.747	834.635
358.708	21.971	1100.971	834.332
359.723	21.982	1100.710	834.112
360.738	21.953	1099.923	833.302
361.752	22.003	1099.087	832.834
362.767	21.989	1098.774	832.457
363.781	21.946	1098.450	831.934
364.796	22.121	1098.011	832.353
365.810	22.326	1097.545	832.899
366.825	22.519	1096.957	833.290
367.840	22.535	1096.429	832.893
368.854	22.736	1095.711	833.224
369.869	22.676	1094.999	832.323
370.883	22.385	1093.946	830.079
371.898	22.230	1093.439	828.889
372.913	22.315	1092.716	828.669
373.927	22.356	1092.287	828.464
374.942	22.632	1091.537	829.117
375.956	22.519	1091.159	828.227
376.971	22.525	1089.973	827.282
377.986	22.536	1089.995	827.277
379.000	22.638	1089.940	827.641
380.015	22.648	1089.528	827.302
381.029	22.794	1088.674	827.264
382.044	22.762	1087.420	826.087
383.059	22.562	1086.793	824.606
384.073	22.752	1085.436	824.387
385.088	22.787	1084.674	823.900
386.102	22.750	1083.868	823.041
387.117	22.541	1082.986	821.324
388.132	22.325	1082.186	819.638
389.146	22.350	1080.943	818.742
390.161	22.298	1080.443	818.048
391.175	22.443	1079.714	818.102
392.190	22.479	1079.183	817.793
393.205	22.708	1078.594	818.335
394.219	22.500	1078.330	817.098
395.234	22.382	1077.178	815.604
396.248	22.391	1075.979	814.666
397.263	22.277	1075.168	813.454
398.278	22.130	1074.380	812.108
399.292	22.115	1073.411	811.234
400.307	22.052	1072.839	810.437
401.321	22.074	1071.920	809.774
402.336	22.246	1071.062	809.847
403.350	22.077	1070.766	808.774
404.365	22.283	1069.865	808.967
405.380	22.388	1069.319	808.968
406.394	22.475	1068.726	808.846
407.409	22.635	1068.101	809.038
408.423	22.807	1067.330	809.170
409.438	22.818	1066.941	808.852
410.453	22.926	1065.995	808.559
411.467	22.983	1065.624	808.467
412.482	22.998	1064.826	807.859
413.496	23.052	1064.322	807.651
414.511	23.234	1063.676	807.921
415.526	23.404	1063.178	808.247
416.540	23.330	1063.285	807.916
417.555	23.217	1062.681	806.872
418.569	23.130	1062.180	806.025
419.584	23.083	1061.689	805.366
420.599	23.113	1061.158	805.030
421.613	157.579	1403.121	1795.446
422.628	144.968	1452.931	1795.536
