DTS Sentinel unit serial number:	SN413079Multiplexer serial number:	ORYXHardware model number:	OX4-SRSoftware version number:	ORYX F/W v4.00 Oryx Data Collector v3.7.2.0data status	okinstallation	princeton_trtdifferential loss correction	single-endedforward channel	channel 2reverse channel	N/Adate	2019/09/19time	06:31:35forward acquisition time	60.00reverse acquisition time	0.00gamma	496.2192k internal	0.2350k external	0.2350temperature offset calibration	1.0010default loss term (dB/km)	0.3790temperature slope calibration	1.0000multiplexer offset coefficient	1.0000multiplexer slope coefficient	1.0000fibre end	0.00T internal ref (°C)	19.05T ext. ref 1 (°C)	0.57T ext. ref 2 (°C)	12.81length (m)	temperature (°C)	Stokes	anti-Stokes-747.200	-6.134	0.265	-0.180
-746.185	-88.243	0.055	-0.016
-745.171	146.372	0.160	0.214
-744.156	147.744	-0.170	0.228
-743.142	144.492	0.187	-0.249
-742.127	18.701	-0.206	0.164
-741.112	57.426	0.141	-0.138
-740.098	121.042	-0.103	0.128
-739.083	76.777	0.158	-0.167
-738.069	70.512	0.139	0.144
-737.054	76.096	-0.138	-0.146
-736.039	-120.788	-0.308	0.052
-735.025	50.382	-0.130	-0.122
-734.010	-200.000	0.007	-0.096
-732.996	373.702	-0.234	-0.476
-731.981	800.000	-0.024	0.079
-730.966	-126.569	-0.183	0.027
-729.952	-42.296	-0.266	0.135
-728.937	-34.637	-0.152	-0.083
-727.923	32.181	0.212	0.182
-726.908	800.000	-0.021	-0.084
-725.894	-66.968	-0.170	-0.067
-724.879	82.550	0.054	-0.058
-723.864	102.935	0.317	0.371
-722.850	-59.852	-0.293	0.125
-721.835	-200.000	-0.014	0.089
-720.821	47.334	-0.235	0.218
-719.806	84.284	0.040	0.043
-718.791	491.625	0.039	-0.090
-717.777	-179.029	0.087	0.002
-716.762	-103.986	-0.230	-0.054
-715.748	59.927	0.030	-0.030
-714.733	-200.000	-0.046	0.284
-713.718	-0.749	-0.072	0.051
-712.704	-17.071	-0.127	-0.080
-711.689	85.946	0.019	0.020
-710.675	-200.000	-0.002	0.298
-709.660	-16.454	0.185	-0.117
-708.645	40.891	-0.144	0.129
-707.631	485.851	0.051	0.117
-706.616	216.685	0.202	-0.320
-705.602	-65.888	-0.206	-0.082
-704.587	-120.003	0.289	-0.049
-703.572	120.049	-0.177	-0.219
-702.558	-131.433	-0.170	0.022
-701.543	311.953	0.054	-0.100
-700.529	125.662	0.360	0.452
-699.514	-79.672	-0.065	-0.022
-698.499	-80.490	-0.033	0.011
-697.485	620.205	0.023	0.057
-696.470	800.000	-0.054	-0.231
-695.456	219.932	0.106	-0.169
-694.441	-128.327	0.231	-0.033
-693.426	-100.273	0.211	-0.052
-692.412	17.514	0.235	-0.186
-691.397	594.316	-0.122	-0.301
-690.383	-72.686	0.144	0.053
-689.368	-19.358	0.074	-0.046
-688.354	210.444	0.111	-0.174
-687.339	5.410	0.507	0.373
-686.324	-62.978	0.086	0.035
-685.310	241.711	0.080	-0.133
-684.295	550.759	-0.094	-0.224
-683.281	11.117	0.208	-0.158
-682.266	-200.000	-0.055	0.266
-681.251	137.402	-0.130	-0.169
-680.237	-98.595	-0.380	0.097
-679.222	-200.000	-0.031	0.396
-678.208	-47.409	0.143	0.069
-677.193	152.480	-0.041	0.056
-676.178	-72.123	0.238	0.088
-675.164	-200.000	-0.058	-0.341
-674.149	-117.662	-0.183	0.033
-673.135	-200.000	0.032	0.231
-672.120	131.228	0.120	-0.153
-671.105	-200.000	-0.013	-0.287
-670.091	229.621	0.062	0.101
-669.076	-54.125	0.176	-0.079
-668.062	336.170	0.035	0.068
-667.047	332.688	0.120	0.231
-666.032	-200.000	0.018	-0.383
-665.018	-15.505	-0.119	-0.075
-664.003	800.000	0.045	0.142
-662.989	-200.000	0.017	0.105
-661.974	87.097	-0.134	0.147
-660.959	800.000	-0.081	-0.290
-659.945	27.753	-0.148	0.124
-658.930	-200.000	-0.051	0.263
-657.916	-63.379	0.163	-0.067
-656.901	95.891	-0.309	0.351
-655.886	170.725	-0.165	0.234
-654.872	-15.896	-0.291	-0.184
-653.857	138.047	0.108	0.141
-652.843	800.000	0.029	-0.125
-651.828	539.003	-0.042	-0.100
-650.814	-86.617	-0.247	0.075
-649.799	800.000	-0.040	0.116
-648.784	-80.415	0.239	-0.079
-647.770	-125.026	0.160	0.025
-646.755	-53.768	0.308	0.140
-645.741	416.650	-0.035	-0.075
-644.726	-14.455	-0.250	0.160
-643.711	528.240	-0.060	0.140
-642.697	800.000	-0.040	0.147
-641.682	-81.584	-0.208	0.068
-640.668	-200.000	-0.051	-0.239
-639.653	-143.324	0.158	-0.015
-638.638	-200.000	0.024	-0.258
-637.624	-200.000	0.036	-0.311
-636.609	-99.940	0.268	-0.066
-635.595	34.415	-0.150	0.131
-634.580	37.835	-0.210	0.185
-633.565	64.689	-0.189	-0.190
-632.551	-200.000	0.016	-0.105
-631.536	-200.000	0.017	-0.126
-630.522	-200.000	-0.058	0.261
-629.507	114.603	-0.188	-0.227
-628.492	800.000	-0.019	-0.052
-627.478	800.000	-0.192	-0.566
-626.463	-200.000	0.075	0.457
-625.449	800.000	-0.088	0.261
-624.434	800.000	-0.044	-0.164
-623.419	-7.122	-0.083	-0.056
-622.405	-200.000	0.006	0.215
-621.390	232.307	-0.170	0.277
-620.376	-200.000	0.001	-0.331
-619.361	-123.455	-0.200	-0.032
-618.346	-111.930	0.110	0.022
-617.332	-200.000	-0.084	0.369
-616.317	-137.701	-0.137	0.015
-615.303	390.163	-0.296	0.609
-614.288	-23.895	-0.037	-0.022
-613.273	-200.000	0.018	-0.152
-612.259	800.000	-0.043	0.148
-611.244	597.696	0.092	0.227
-610.230	-83.076	-0.170	0.054
-609.215	28.018	0.190	-0.159
-608.201	367.661	0.125	-0.251
-607.186	162.674	0.128	-0.178
-606.171	268.790	-0.149	0.260
-605.157	-82.273	0.222	-0.072
-604.142	-21.131	0.139	-0.085
-603.128	264.377	-0.156	-0.270
-602.113	-200.000	-0.034	-0.199
-601.098	671.822	0.025	0.063
-600.084	94.495	0.105	0.118
-599.069	-50.101	-0.176	-0.083
-598.055	-200.000	-0.001	-0.061
-597.040	209.065	0.219	0.341
-596.025	-132.028	0.221	0.028
-595.011	-185.226	-0.108	0.002
-593.996	20.366	-0.365	0.293
-592.982	283.311	-0.045	0.080
-591.967	50.203	0.185	-0.173
-590.952	-84.084	-0.257	0.081
-589.938	-200.000	0.002	-0.033
-588.923	-121.403	0.279	-0.046
-587.909	-126.417	-0.207	-0.031
-586.894	141.551	-0.217	0.285
-585.879	273.775	0.048	0.085
-584.865	800.000	-0.081	-0.260
-583.850	-200.000	-0.058	-0.289
-582.836	507.452	-0.117	0.268
-581.821	-19.202	0.192	-0.118
-580.806	-200.000	-0.002	-0.073
-579.792	35.571	0.027	-0.023
-578.777	0.189	0.068	-0.048
-577.763	-71.812	0.216	-0.080
-576.748	301.170	-0.109	-0.200
-575.733	-2.269	-0.217	0.151
-574.719	-200.000	0.003	-0.169
-573.704	186.297	-0.180	0.265
-572.690	800.000	-0.171	-0.495
-571.675	-200.000	-0.042	0.200
-570.661	800.000	-0.073	0.248
-569.646	303.740	-0.212	-0.390
-568.631	27.478	0.291	-0.243
-567.617	174.037	0.154	-0.221
-566.602	800.000	0.070	-0.225
-565.588	-18.402	-0.086	0.054
-564.573	357.678	0.082	0.162
-563.558	-200.000	0.012	-0.119
-562.544	296.981	0.110	-0.201
-561.529	-55.960	0.296	-0.131
-560.515	-7.960	0.204	-0.137
-559.500	-43.381	-0.228	0.114
-558.485	-200.000	-0.032	-0.220
-557.471	-17.082	0.159	0.099
-556.456	-76.912	-0.193	-0.067
-555.442	-84.509	0.047	0.015
-554.427	-153.053	-0.287	-0.020
-553.412	800.000	-0.069	0.289
-552.398	24.149	0.187	-0.153
-551.383	-4.879	-0.181	-0.124
-550.369	800.000	-0.133	0.384
-549.354	-60.530	0.143	-0.060
-548.339	64.483	-0.055	-0.055
-547.325	232.289	-0.214	-0.349
-546.310	800.000	0.045	-0.153
-545.296	-82.276	0.079	-0.025
-544.281	-33.193	0.270	0.148
-543.266	-186.340	0.071	-0.001
-542.252	158.738	0.153	0.210
-541.237	-46.183	0.093	0.045
-540.223	324.508	-0.078	-0.148
-539.208	50.615	-0.182	0.170
-538.193	107.267	-0.099	0.116
-537.179	403.498	-0.033	-0.069
-536.164	-200.000	0.029	-0.186
-535.150	279.630	-0.204	-0.360
-534.135	-126.651	0.150	0.022
-533.121	483.788	-0.073	-0.164
-532.106	-171.323	-0.106	-0.004
-531.091	-114.417	-0.200	-0.038
-530.077	47.469	-0.232	-0.214
-529.062	800.000	-0.087	-0.369
-528.048	-8.293	-0.207	0.138
-527.033	790.632	-0.018	0.049
-526.018	110.503	0.187	0.223
-525.004	-25.946	0.021	-0.012
-523.989	-200.000	0.004	0.339
-522.975	-200.000	-0.028	-0.255
-521.960	150.121	0.155	-0.208
-520.945	-73.559	0.085	-0.031
-519.931	-200.000	0.027	0.263
-518.916	-73.893	-0.158	-0.057
-517.902	15.476	0.207	-0.161
-516.887	-200.000	0.004	0.026
-515.872	125.321	-0.088	-0.109
-514.858	397.508	-0.022	0.045
-513.843	37.255	-0.046	-0.041
-512.829	-16.904	0.403	0.252
-511.814	800.000	-0.033	0.128
-510.799	205.432	0.220	0.338
-509.785	-151.727	0.450	-0.033
-508.770	303.154	-0.042	-0.077
-507.756	51.228	0.145	-0.136
-506.741	-75.461	-0.221	0.078
-505.726	-49.661	-0.420	0.198
-504.712	22.945	0.286	-0.232
-503.697	-7.318	-0.185	0.124
-502.683	587.129	0.118	0.288
-501.668	-7.598	-0.094	0.063
-500.653	144.218	0.059	0.077
-499.639	-200.000	-0.054	-0.281
-498.624	-8.099	0.059	0.040
-497.610	-17.326	-0.224	-0.139
-496.595	-176.641	-0.106	0.003
-495.581	800.000	-0.012	0.033
-494.566	-79.421	-0.061	0.020
-493.551	-12.346	-0.171	0.111
-492.537	5.440	-0.200	0.146
-491.522	521.038	-0.055	-0.128
-490.508	374.863	-0.211	0.426
-489.493	-166.924	-0.180	0.007
-488.478	-30.790	0.153	0.085
-487.464	-113.519	0.039	0.007
-486.449	131.461	-0.049	0.063
-485.435	685.716	-0.109	-0.281
-484.420	-23.179	0.167	0.099
-483.405	-40.430	0.131	0.068
-482.391	-113.384	0.198	-0.038
-481.376	-31.840	-0.153	0.085
-480.362	0.705	0.147	-0.104
-479.347	478.588	-0.098	0.220
-478.332	-105.402	-0.312	0.070
-477.318	76.570	0.276	0.289
-476.303	-108.371	-0.116	-0.025
-475.289	77.094	0.176	-0.185
-474.274	-60.717	-0.146	-0.061
-473.259	436.343	-0.036	0.077
-472.245	800.000	-0.111	0.346
-471.230	9.795	0.199	-0.149
-470.216	190.846	-0.116	0.172
-469.201	192.714	0.084	-0.125
-468.186	-200.000	0.046	-0.227
-467.172	-78.506	0.042	0.014
-466.157	-93.141	-0.490	0.135
-465.143	-146.351	-0.234	0.020
-464.128	250.541	0.178	-0.298
-463.113	4.517	-0.166	0.120
-462.099	69.297	0.317	-0.323
-461.084	-74.783	-0.131	0.046
-460.070	89.918	-0.110	0.121
-459.055	-200.000	0.040	-0.193
-458.040	-200.000	-0.012	-0.098
-457.026	-92.377	0.165	0.046
-456.011	426.281	-0.166	0.353
-454.997	-76.274	-0.103	0.036
-453.982	-25.358	0.151	0.088
-452.968	-200.000	-0.041	0.181
-451.953	-200.000	-0.014	0.075
-450.938	-151.881	-0.434	0.031
-449.924	-200.000	-0.081	-0.349
-448.909	-2.888	-0.194	-0.134
-447.895	555.640	0.076	0.181
-446.880	263.774	-0.030	0.051
-445.865	800.000	0.033	0.096
-444.851	36.310	0.099	-0.086
-443.836	-37.651	-0.177	0.093
-442.822	800.000	-0.023	0.082
-441.807	-200.000	0.024	-0.199
-440.792	-94.564	-0.167	0.045
-439.778	-11.325	0.021	0.014
-438.763	709.024	-0.125	-0.327
-437.749	-200.000	0.040	0.210
-436.734	-60.043	-0.170	0.072
-435.719	800.000	-0.136	0.443
-434.705	-153.402	0.083	0.006
-433.690	152.171	0.230	-0.310
-432.676	460.678	-0.180	-0.396
-431.661	-49.295	0.235	-0.111
-430.646	215.060	0.199	0.312
-429.632	-142.253	0.123	-0.012
-428.617	-123.703	-0.441	-0.069
-427.603	-68.474	0.311	-0.119
-426.588	267.577	-0.093	0.160
-425.573	-200.000	-0.052	0.233
-424.559	-200.000	-0.052	-0.322
-423.544	-19.369	-0.047	-0.029
-422.530	-158.928	0.132	-0.007
-421.515	-144.853	0.167	-0.015
-420.500	800.000	-0.096	0.409
-419.486	-200.000	-0.068	-0.544
-418.471	-26.691	0.203	0.117
-417.457	-200.000	-0.001	0.069
-416.442	-79.600	0.270	0.090
-415.428	800.000	-0.083	-0.349
-414.413	134.240	-0.076	-0.097
-413.398	383.230	-0.095	-0.192
-412.384	23.313	0.071	0.058
-411.369	-10.043	-0.234	-0.153
-410.355	53.276	0.235	0.222
-409.340	411.779	-0.193	0.404
-408.325	306.281	-0.149	0.274
-407.311	-200.000	0.019	0.137
-406.296	560.691	-0.046	-0.109
-405.282	140.280	0.050	-0.066
-404.267	-200.000	-0.027	0.206
-403.252	-8.718	-0.205	0.136
-402.238	30.547	0.061	-0.051
-401.223	-100.695	-0.170	0.041
-400.209	800.000	0.057	-0.163
-399.194	800.000	-0.102	-0.317
-398.179	409.995	0.126	-0.264
-397.165	-131.443	0.310	0.040
-396.150	67.604	-0.221	0.222
-395.136	163.244	0.082	0.113
-394.121	800.000	-0.020	0.082
-393.106	-51.978	-0.222	-0.101
-392.092	330.963	-0.098	0.186
-391.077	-77.262	0.280	0.096
-390.063	-200.000	0.042	-0.252
-389.048	-142.771	0.133	0.013
-388.033	800.000	0.081	-0.259
-387.019	-200.000	0.001	-0.290
-386.004	47.381	-0.048	-0.044
-384.990	20.403	-0.281	0.224
-383.975	-200.000	-0.041	0.319
-382.960	121.427	0.204	-0.251
-381.946	573.686	0.149	0.357
-380.931	-200.000	0.034	0.266
-379.917	-100.349	-0.110	0.027
-378.902	-161.844	0.288	-0.014
-377.888	-43.147	0.063	0.031
-376.873	198.107	-0.123	-0.185
-375.858	-1.446	0.124	0.086
-374.844	355.576	0.146	-0.286
-373.829	-200.000	-0.071	-0.449
-372.815	-200.000	0.031	0.148
-371.800	102.071	0.216	-0.249
-370.785	0.844	0.155	0.109
-369.771	-32.646	-0.106	-0.058
-368.756	78.968	0.120	0.127
-367.742	-155.711	0.385	-0.024
-366.727	-32.365	0.342	-0.188
-365.712	167.295	0.098	-0.136
-364.698	-127.398	0.325	0.047
-363.683	800.000	0.087	0.365
-362.669	800.000	0.010	0.027
-361.654	-20.167	0.130	-0.079
-360.639	-200.000	0.001	-0.167
-359.625	800.000	0.003	-0.009
-358.610	179.175	-0.028	0.040
-357.596	144.241	-0.103	0.135
-356.581	138.941	0.028	-0.036
-355.566	53.728	-0.148	-0.139
-354.552	152.161	0.138	-0.185
-353.537	-110.301	0.363	0.074
-352.523	800.000	0.023	-0.093
-351.508	-36.012	0.259	-0.138
-350.493	744.691	-0.007	-0.019
-349.479	-98.198	-0.239	-0.060
-348.464	96.021	0.186	0.209
-347.450	-37.315	0.264	-0.138
-346.435	-112.728	0.029	-0.006
-345.420	295.103	0.135	0.242
-344.406	-200.000	-0.038	-0.268
-343.391	62.772	0.253	-0.249
-342.377	-200.000	-0.013	-0.103
-341.362	427.888	0.144	-0.306
-340.348	212.269	-0.129	-0.199
-339.333	-200.000	-0.011	0.131
-338.318	-109.221	0.233	0.049
-337.304	800.000	-0.017	-0.064
-336.289	-75.630	-0.170	0.059
-335.275	-139.529	0.233	0.025
-334.260	-200.000	-0.056	-0.313
-333.245	101.834	0.163	0.187
-332.231	-82.576	0.324	-0.103
-331.216	-132.181	0.359	-0.046
-330.202	-85.219	0.236	0.072
-329.187	158.229	0.168	-0.229
-328.172	793.095	0.067	0.180
-327.158	-84.704	0.055	0.017
-326.143	-104.294	-0.323	-0.074
-325.129	-200.000	0.025	-0.168
-324.114	-200.000	0.002	0.317
-323.099	-7.240	-0.190	-0.126
-322.085	1.528	0.090	-0.064
-321.070	800.000	0.049	-0.166
-320.056	380.160	0.094	0.190
-319.041	7.552	-0.277	-0.203
-318.026	57.065	-0.178	-0.171
-317.012	-167.967	0.177	-0.007
-315.997	154.469	0.158	-0.213
-314.983	579.301	0.080	0.193
-313.968	-152.251	-0.165	-0.012
-312.953	-148.423	-0.238	0.019
-311.939	-14.973	0.164	-0.103
-310.924	800.000	-0.012	-0.048
-309.910	-76.032	-0.303	-0.105
-308.895	-200.000	0.026	0.238
-307.880	1.102	-0.153	0.108
-306.866	-200.000	-0.001	-0.154
-305.851	64.815	-0.154	0.153
-304.837	-22.521	0.257	-0.153
-303.822	-45.907	-0.257	-0.124
-302.807	168.388	0.100	0.140
-301.793	-120.872	0.197	0.032
-300.778	-91.586	0.130	0.036
-299.764	-129.998	0.451	0.061
-298.749	-200.000	0.008	-0.273
-297.735	11.946	-0.226	-0.171
-296.720	469.130	0.131	0.290
-295.705	-132.881	-0.106	0.013
-294.691	581.717	-0.167	0.403
-293.676	-28.623	-0.332	0.187
-292.662	-77.215	-0.103	-0.035
-291.647	-133.785	0.189	-0.023
-290.632	-199.636	-0.331	0.002
-289.618	222.144	0.074	-0.117
-288.603	-200.000	-0.036	0.251
-287.589	-7.417	0.139	0.092
-286.574	-71.657	0.250	-0.091
-285.559	178.779	-0.164	-0.234
-284.545	174.053	-0.299	0.424
-283.530	-200.000	-0.080	0.412
-282.516	-200.000	0.030	-0.187
-281.501	-84.316	-0.257	0.080
-280.486	166.745	-0.082	0.113
-279.472	124.018	-0.280	-0.345
-278.457	545.173	0.055	0.129
-277.443	800.000	0.040	0.167
-276.428	392.036	0.056	0.113
-275.413	-89.639	0.253	-0.073
-274.399	800.000	-0.066	-0.215
-273.384	-50.502	-0.177	0.082
-272.370	146.305	0.090	-0.119
-271.355	-114.688	-0.252	0.047
-270.340	742.110	0.133	-0.350
-269.326	-104.550	-0.276	0.062
-268.311	-44.486	0.137	-0.067
-267.297	-200.000	0.011	-0.110
-266.282	29.762	-0.209	-0.175
-265.267	-119.955	0.262	-0.044
-264.253	-37.421	-0.132	-0.069
-263.238	800.000	-0.084	-0.264
-262.224	-2.380	0.281	0.193
-261.209	220.643	-0.129	-0.203
-260.195	184.531	0.086	-0.125
-259.180	-200.000	0.044	-0.227
-258.165	677.904	-0.094	0.238
-257.151	96.487	-0.263	0.295
-256.136	-166.424	0.236	0.010
-255.122	-43.648	-0.137	-0.068
-254.107	-120.310	0.427	-0.071
-253.092	-83.793	0.179	-0.056
-252.078	-200.000	-0.053	0.392
-251.063	-200.000	0.028	-0.268
-250.049	98.173	0.070	0.079
-249.034	32.956	0.266	0.226
-248.019	-200.000	-0.013	-0.145
-247.005	-3.030	-0.166	0.114
-245.990	16.031	0.155	0.119
-244.976	-85.287	0.101	-0.031
-243.961	-97.824	-0.259	0.066
-242.946	293.130	-0.055	0.098
-241.932	256.845	-0.100	-0.168
-240.917	-200.000	0.051	0.243
-239.903	-200.000	-0.071	-0.370
-238.888	1.026	0.142	-0.100
-237.873	35.810	0.070	-0.060
-236.859	89.998	-0.155	-0.169
-235.844	-60.073	0.255	-0.107
-234.830	179.628	-0.019	0.027
-233.815	-200.000	0.035	-0.151
-232.800	800.000	0.014	0.048
-231.786	247.706	0.140	0.232
-230.771	-200.000	0.038	0.316
-229.757	800.000	0.048	0.174
-228.742	-52.538	0.246	0.111
-227.727	-200.000	-0.036	-0.194
-226.713	104.107	0.157	-0.180
-225.698	-4.787	-0.115	-0.078
-224.684	-2.800	0.117	0.080
-223.669	800.000	0.016	-0.044
-222.655	-200.000	0.024	-0.175
-221.640	420.090	-0.080	0.168
-220.625	-159.765	-0.077	-0.004
-219.611	800.000	0.032	0.133
-218.596	24.402	-0.344	-0.278
-217.582	54.510	0.176	0.166
-216.567	800.000	-0.109	0.417
-215.552	3.672	-0.189	0.135
-214.538	146.721	-0.245	0.323
-213.523	-200.000	0.055	-0.375
-212.509	69.199	-0.055	0.055
-211.494	40.300	-0.228	0.201
-210.479	-200.000	-0.045	0.220
-209.465	800.000	0.063	0.209
-208.450	-66.462	-0.085	0.033
-207.436	-86.466	0.196	-0.059
-206.421	486.973	0.132	-0.295
-205.406	21.608	0.063	0.050
-204.392	-16.919	0.106	0.066
-203.377	28.645	0.257	-0.212
-202.363	800.000	0.101	0.324
-201.348	596.045	-0.033	-0.079
-200.333	74.444	-0.158	0.162
-199.319	-131.038	-0.370	0.048
-198.304	-86.918	0.051	0.015
-197.290	169.624	-0.180	-0.252
-196.275	-200.000	0.237	0.001
-195.260	318.951	-0.111	0.205
-194.246	107.916	-0.142	0.165
-193.231	231.484	0.054	-0.086
-192.217	-200.000	-0.062	0.285
-191.202	358.694	0.151	0.295
-190.187	26.032	0.216	0.176
-189.173	75.349	0.054	-0.055
-188.158	70.142	0.068	-0.068
-187.144	141.842	0.115	0.149
-186.129	800.000	-0.009	-0.026
-185.114	-78.133	0.251	-0.084
-184.100	263.279	0.206	-0.349
-183.085	-127.128	-0.300	-0.043
-182.071	195.277	0.192	0.285
-181.056	192.698	-0.188	0.277
-180.042	8.967	-0.028	0.020
-179.027	-96.771	-0.234	0.060
-178.012	800.000	0.017	-0.063
-176.998	-166.830	0.357	-0.014
-175.983	282.342	0.130	-0.227
-174.969	-40.195	-0.063	0.032
-173.954	-100.970	0.163	-0.039
-172.939	254.950	0.262	0.437
-171.925	101.265	0.186	-0.211
-170.910	28.660	0.081	0.067
-169.896	800.000	0.054	0.198
-168.881	62.502	0.251	-0.245
-167.866	209.951	-0.067	-0.103
-166.852	-126.998	-0.123	0.018
-165.837	-137.627	-0.475	-0.052
-164.823	-135.617	0.300	0.035
-163.808	-53.818	-0.078	-0.035
-162.793	-156.959	-0.194	0.012
-161.779	-200.000	0.027	0.214
-160.764	68.591	-0.225	-0.225
-159.750	174.551	0.141	-0.198
-158.735	-9.198	-0.171	-0.112
-157.720	175.957	-0.176	-0.249
-156.706	-46.345	-0.108	0.052
-155.691	800.000	-0.055	0.195
-154.677	90.164	-0.228	0.249
-153.662	530.701	-0.102	0.236
-152.647	-94.133	-0.121	-0.032
-151.633	584.612	-0.085	0.203
-150.618	415.024	0.075	-0.156
-149.604	-62.105	0.284	0.116
-148.589	-47.775	0.212	-0.100
-147.574	800.000	0.027	0.101
-146.560	128.997	-0.152	0.190
-145.545	309.356	-0.127	-0.231
-144.531	106.802	0.297	0.344
-143.516	-12.777	-0.140	0.089
-142.502	800.000	-0.043	0.160
-141.487	-200.000	-0.036	0.442
-140.472	-133.380	0.012	-0.001
-139.458	-60.122	0.224	-0.093
-138.443	-73.737	0.078	-0.028
-137.429	132.441	-0.011	-0.014
-136.414	-95.676	-0.219	-0.057
-135.399	-62.568	0.279	0.113
-134.385	72.043	-0.310	-0.315
-133.370	353.360	0.113	0.218
-132.356	-200.000	-0.146	0.000
-131.341	-179.614	0.434	0.009
-130.326	-200.000	0.045	0.331
-129.312	26.910	0.220	0.180
-128.297	261.045	-0.106	0.178
-127.283	-200.000	-0.094	-0.439
-126.268	613.244	0.155	-0.379
-125.253	-56.944	-0.180	0.078
-124.239	113.676	0.176	0.208
-123.224	-124.458	-0.241	-0.037
-122.210	-200.000	-0.011	0.187
-121.195	6.156	-0.114	-0.082
-120.180	-10.512	-0.243	0.157
-119.166	-23.550	0.281	0.164
-118.151	800.000	0.016	0.061
-117.137	-9.080	0.155	0.101
-116.122	-2.410	0.087	0.060
-115.107	-200.000	-0.040	-0.451
-114.093	7.100	0.319	0.232
-113.078	800.000	0.098	-0.307
-112.064	323.913	0.159	-0.296
-111.049	159.717	-0.314	-0.426
-110.034	-200.000	-0.007	0.071
-109.020	89.755	0.328	-0.357
-108.005	-42.398	-0.254	0.126
-106.991	-109.457	-0.190	0.039
-105.976	-47.477	0.045	-0.021
-104.962	-94.983	-0.241	0.063
-103.947	-115.892	0.277	0.050
-102.932	-200.000	-0.011	0.138
-101.918	26.630	0.102	0.083
-100.903	-82.460	0.202	-0.064
-99.889	-124.418	-0.106	0.016
-98.874	-70.488	0.145	-0.054
-97.859	264.487	-0.196	-0.333
-96.845	-61.932	0.328	0.134
-95.830	1.116	-0.208	0.145
-94.816	9.365	0.088	-0.065
-93.801	-108.595	0.139	0.029
-92.786	-69.502	-0.120	-0.045
-91.772	-26.232	-0.160	-0.091
-90.757	112.563	-0.188	-0.222
-89.743	800.000	0.082	0.313
-88.728	132.674	0.048	-0.060
-87.713	260.488	-0.068	-0.114
-86.699	191.973	-0.186	0.273
-85.684	-43.212	0.414	0.204
-84.670	-200.000	-0.010	-0.133
-83.655	281.152	-0.137	0.239
-82.640	101.200	-0.160	-0.181
-81.626	-136.388	-0.350	0.040
-80.611	234.589	-0.066	0.106
-79.597	-200.000	0.061	-0.292
-78.582	-15.484	0.455	-0.283
-77.567	5.303	0.196	0.140
-76.553	93.097	0.123	0.135
-75.538	-89.897	-0.166	0.047
-74.524	-103.429	-0.160	-0.037
-73.509	800.000	-0.057	0.189
-72.494	108.648	0.076	0.089
-71.480	152.976	-0.277	-0.368
-70.465	-24.070	0.119	-0.069
-69.451	-80.250	-0.398	0.129
-68.436	-37.566	-0.264	-0.137
-67.422	53.978	0.243	-0.227
-66.407	101.972	-0.112	0.127
-65.392	-170.562	0.082	-0.003
-64.378	-132.137	-0.164	-0.021
-63.363	-51.901	0.073	-0.033
-62.349	506.579	0.113	0.256
-61.334	79.441	-1.233	-1.286
-60.319	99.962	0.853	0.961
-59.305	299.737	-0.777	-1.392
-58.290	371.088	0.718	1.415
-57.276	310.462	0.701	1.275
-56.261	-200.000	135.376	626.418
-55.246	347.393	1630.986	3121.687
-54.232	137.875	2778.805	3537.968
-53.217	76.108	2298.764	2363.995
-52.203	27.406	1905.973	1556.920
-51.188	21.879	1702.863	1348.592
-50.173	20.188	1665.959	1306.582
-49.159	41.194	1739.637	1527.596
-48.144	37.285	1749.422	1505.891
-47.130	21.321	1701.296	1342.852
-46.115	19.165	1685.872	1314.188
-45.100	18.995	1680.499	1308.650
-44.086	19.061	1677.202	1306.535
-43.071	18.941	1674.961	1303.826
-42.057	18.876	1673.544	1302.183
-41.042	19.026	1670.777	1301.108
-40.027	18.989	1668.922	1299.335
-39.013	18.825	1667.825	1297.191
-37.998	18.856	1665.989	1295.945
-36.984	18.927	1664.558	1295.319
-35.969	19.041	1663.329	1295.167
-34.954	19.045	1661.857	1294.000
-33.940	18.933	1659.868	1291.557
-32.925	18.962	1657.777	1290.100
-31.911	18.972	1656.730	1289.306
-30.896	19.017	1654.712	1288.019
-29.881	19.056	1653.222	1287.103
-28.867	19.058	1652.158	1286.240
-27.852	19.053	1650.441	1284.815
-26.838	19.085	1649.302	1284.115
-25.823	19.001	1647.819	1282.281
-24.809	19.077	1646.508	1281.778
-23.794	19.052	1644.988	1280.355
-22.779	19.036	1643.864	1279.309
-21.765	19.128	1641.827	1278.360
-20.750	18.998	1640.464	1276.284
-19.736	19.120	1639.010	1276.001
-18.721	19.199	1637.182	1275.114
-17.706	19.152	1636.195	1273.948
-16.692	19.130	1634.217	1272.199
-15.677	19.080	1633.624	1271.313
-14.663	19.063	1631.726	1269.663
-13.648	19.132	1630.585	1269.233
-12.633	19.175	1628.777	1268.093
-11.619	19.065	1627.402	1266.157
-10.604	18.981	1626.203	1264.558
-9.590	19.174	1624.334	1264.471
-8.575	19.111	1623.659	1263.432
-7.560	19.109	1622.006	1262.086
-6.546	19.104	1621.202	1261.374
-5.531	19.100	1620.302	1260.595
-4.517	19.032	1619.619	1259.510
-3.502	19.157	1617.750	1258.921
-2.487	19.055	1616.581	1257.219
-1.473	18.672	1604.368	1244.895
-0.458	15.735	1585.218	1208.902
0.556	11.282	1587.091	1178.765
1.571	9.152	1611.750	1181.324
2.586	8.961	1623.174	1188.171
3.600	8.489	1568.290	1144.515
4.615	4.798	1464.301	1043.822
5.629	1.214	1409.752	981.684
6.644	0.627	1403.226	973.275
7.659	0.511	1402.960	972.256
8.673	0.553	1401.865	971.683
9.688	0.579	1399.348	970.017
10.702	0.447	1395.779	966.615
11.717	2.321	1396.851	979.277
12.731	7.708	1405.347	1019.780
13.746	14.023	1415.638	1067.847
14.761	16.874	1419.175	1088.762
15.775	16.530	1417.636	1085.277
16.790	15.571	1415.156	1077.132
17.804	14.768	1413.113	1070.339
18.819	14.395	1411.519	1066.656
19.834	14.170	1410.219	1064.138
20.848	13.871	1409.488	1061.579
21.863	13.668	1407.906	1058.996
22.877	13.498	1406.304	1056.616
23.892	13.554	1405.626	1056.367
24.907	13.501	1404.852	1055.356
25.921	13.483	1403.881	1054.418
26.936	13.562	1402.817	1054.029
27.950	13.600	1401.950	1053.524
28.965	13.617	1400.671	1052.580
29.980	13.768	1399.262	1052.385
30.994	13.657	1399.238	1051.569
32.009	13.783	1397.517	1050.979
33.023	13.727	1396.679	1049.901
34.038	13.720	1395.701	1049.030
35.053	13.711	1394.615	1048.062
36.067	13.689	1393.651	1047.111
37.082	13.610	1392.813	1045.887
38.096	13.710	1391.371	1045.342
39.111	13.667	1390.692	1044.468
40.126	13.584	1389.781	1043.171
41.140	13.505	1389.405	1042.296
42.155	13.550	1388.630	1041.905
43.169	13.557	1388.322	1041.627
44.184	13.464	1388.034	1040.734
45.199	13.500	1387.970	1040.824
46.213	13.555	1387.071	1040.403
47.228	13.576	1386.007	1039.644
48.242	13.638	1384.646	1038.919
49.257	13.667	1382.717	1037.561
50.271	13.579	1381.650	1036.120
51.286	13.668	1379.851	1035.236
52.301	13.672	1379.054	1034.570
53.315	13.585	1377.874	1033.049
54.330	13.562	1377.311	1032.395
55.344	13.581	1375.993	1031.434
56.359	13.614	1374.367	1030.327
57.374	13.494	1374.144	1029.324
58.388	13.527	1373.111	1028.660
59.403	13.468	1372.851	1028.009
60.417	13.506	1372.070	1027.571
61.432	13.499	1370.861	1026.531
62.447	13.524	1370.058	1025.995
63.461	13.408	1368.872	1024.299
64.476	13.486	1367.697	1023.810
65.490	13.404	1366.208	1022.099
66.505	13.484	1364.763	1021.417
67.520	13.490	1363.541	1020.450
68.534	13.478	1362.547	1019.540
69.549	13.500	1361.288	1018.649
70.563	13.552	1360.018	1017.924
71.578	13.416	1359.427	1016.560
72.593	13.391	1358.210	1015.405
73.607	13.432	1357.109	1014.741
74.622	13.306	1356.865	1013.697
75.636	13.448	1355.575	1013.517
76.651	13.424	1355.075	1012.903
77.666	13.504	1354.280	1012.711
78.680	13.421	1353.588	1011.595
79.695	13.497	1352.573	1011.212
80.709	13.419	1352.533	1010.612
81.724	13.460	1351.149	1009.741
82.739	13.509	1349.956	1009.059
83.753	13.684	1349.216	1009.485
84.768	13.661	1347.887	1008.261
85.782	13.693	1346.666	1007.450
86.797	13.568	1345.574	1005.788
87.812	13.573	1344.493	1004.920
88.826	13.618	1342.902	1003.912
89.841	13.617	1341.971	1003.124
90.855	13.624	1341.061	1002.395
91.870	13.646	1340.068	1001.698
92.884	13.589	1339.375	1000.747
93.899	13.708	1338.475	1000.707
94.914	13.728	1337.865	1000.282
95.928	13.709	1336.899	999.354
96.943	13.752	1335.991	998.847
97.957	13.680	1335.271	997.790
98.972	13.702	1334.032	996.904
99.987	13.670	1332.572	995.532
101.001	13.730	1331.491	994.998
102.016	13.535	1330.601	993.078
103.030	13.613	1329.911	992.943
104.045	13.648	1328.693	992.152
105.060	13.604	1327.892	991.203
106.074	13.595	1326.124	989.744
107.089	13.582	1324.705	988.521
108.103	13.509	1323.561	987.145
109.118	13.623	1322.141	986.674
110.133	13.574	1320.485	985.062
111.147	13.541	1319.391	983.959
112.162	13.629	1317.979	983.344
113.176	13.712	1316.823	982.888
114.191	13.615	1316.246	981.792
115.206	13.600	1314.925	980.635
116.220	13.561	1313.921	979.568
117.235	13.520	1313.056	978.594
118.249	13.662	1311.740	978.363
119.264	13.542	1310.870	976.918
120.279	13.613	1309.319	976.093
121.293	13.587	1308.001	974.872
122.308	13.577	1306.965	973.954
123.322	13.561	1306.112	973.141
124.337	13.534	1305.297	972.290
125.352	13.485	1303.704	970.729
126.366	13.506	1302.517	969.882
127.381	13.572	1301.324	969.296
128.395	13.497	1300.604	968.232
129.410	13.486	1300.014	967.647
130.424	13.613	1298.470	967.151
131.439	13.585	1297.656	966.298
132.454	13.545	1296.319	964.980
133.468	13.550	1295.803	964.540
134.483	13.646	1294.477	964.029
135.497	13.597	1293.206	962.710
136.512	13.499	1292.394	961.450
137.527	13.617	1290.813	960.877
138.541	13.616	1289.292	959.652
139.556	13.685	1287.959	958.976
140.570	13.609	1287.076	957.792
141.585	13.740	1285.501	957.290
142.600	13.704	1284.860	956.522
143.614	13.904	1283.508	956.582
144.629	13.839	1282.808	955.602
145.643	13.832	1281.109	954.213
146.658	13.773	1280.712	953.494
147.673	13.789	1278.804	952.083
148.687	13.746	1277.861	951.048
149.702	13.808	1276.077	949.990
150.716	13.701	1275.141	948.599
151.731	13.714	1274.148	947.852
152.746	13.800	1272.558	947.073
153.760	13.891	1271.246	946.535
154.775	13.816	1270.307	945.321
155.789	13.759	1269.450	944.279
156.804	13.862	1268.400	943.999
157.819	13.900	1267.032	943.114
158.833	13.961	1265.802	942.457
159.848	13.985	1264.885	941.830
160.862	13.944	1264.051	940.896
161.877	13.827	1263.535	939.765
162.892	13.854	1262.426	939.006
163.906	13.932	1260.872	938.212
164.921	13.922	1260.309	937.650
165.935	13.862	1259.632	936.726
166.950	13.865	1258.917	936.127
167.964	13.946	1257.846	935.703
168.979	13.984	1257.103	935.285
169.994	14.038	1256.469	935.034
171.008	13.965	1255.471	933.796
172.023	13.990	1254.651	933.242
173.037	14.057	1253.310	932.543
174.052	14.058	1252.826	932.102
175.067	14.090	1251.398	931.138
176.081	14.054	1250.680	930.322
177.096	13.954	1250.533	929.571
178.110	14.046	1249.003	928.862
179.125	14.079	1247.311	927.710
180.140	13.994	1246.672	926.677
181.154	13.965	1245.536	925.589
182.169	14.015	1243.887	924.559
183.183	13.963	1242.853	923.417
184.198	14.236	1240.856	923.366
185.213	14.082	1240.425	922.113
186.227	14.247	1238.990	921.878
187.242	14.234	1238.104	921.064
188.256	14.285	1236.772	920.276
189.271	14.247	1236.194	919.555
190.286	14.336	1234.912	919.010
191.300	14.105	1234.400	917.274
192.315	14.076	1233.448	916.324
193.329	14.043	1233.359	915.993
194.344	14.128	1232.197	915.521
195.359	14.157	1231.857	915.347
196.373	14.211	1231.373	915.199
197.388	14.317	1230.430	915.004
198.402	14.323	1230.083	914.694
199.417	14.395	1229.121	914.293
200.432	14.396	1228.798	913.979
201.446	14.407	1227.881	913.276
202.461	14.488	1226.710	912.768
203.475	14.499	1225.565	911.893
204.490	14.386	1224.134	910.134
205.504	14.474	1223.048	909.725
206.519	14.487	1222.009	908.941
207.534	14.465	1220.750	907.804
208.548	14.438	1219.717	906.812
209.563	14.419	1219.049	906.128
210.577	14.582	1218.095	906.224
211.592	14.623	1216.695	905.329
212.607	14.661	1216.325	905.176
213.621	14.558	1215.480	903.911
214.636	14.466	1214.751	902.792
215.650	14.631	1213.781	902.884
216.665	14.674	1212.670	902.209
217.680	14.592	1211.937	901.143
218.694	14.744	1210.758	901.003
219.709	14.720	1209.802	900.081
220.723	14.684	1209.426	899.528
221.738	14.686	1208.767	898.972
222.753	14.673	1208.354	898.515
223.767	14.790	1207.082	898.119
224.782	14.796	1206.457	897.604
225.796	14.863	1205.532	897.197
226.811	14.796	1205.053	896.400
227.826	14.815	1204.180	895.779
228.840	14.767	1203.860	895.201
229.855	14.778	1203.023	894.559
230.869	14.742	1202.590	893.964
231.884	14.821	1200.812	892.988
232.899	14.783	1200.143	892.206
233.913	14.809	1199.728	891.961
234.928	14.672	1199.426	890.923
235.942	14.772	1198.680	890.823
236.957	14.809	1197.443	890.023
237.972	14.809	1196.555	889.284
238.986	14.715	1196.176	888.425
240.001	14.854	1195.454	888.546
241.015	14.942	1194.513	888.237
242.030	15.015	1193.338	887.671
243.045	15.024	1193.002	887.389
244.059	14.986	1192.206	886.517
245.074	15.031	1191.005	885.788
246.088	15.002	1190.203	884.959
247.103	15.106	1189.426	884.849
248.117	14.990	1189.181	883.980
249.132	15.174	1188.340	884.244
250.147	15.093	1187.796	883.336
251.161	15.163	1187.152	883.146
252.176	15.141	1185.981	882.085
253.190	15.275	1185.379	882.261
254.205	15.230	1184.983	881.649
255.220	15.335	1183.688	881.162
256.234	15.340	1183.451	880.933
257.249	15.341	1182.655	880.267
258.263	15.319	1182.167	879.713
259.278	15.289	1181.887	879.269
260.293	15.397	1181.180	879.230
261.307	15.457	1180.196	878.735
262.322	15.464	1179.534	878.199
263.336	15.445	1178.993	877.619
264.351	15.363	1178.597	876.822
265.366	15.466	1177.541	876.497
266.380	15.453	1176.878	875.856
267.395	15.363	1176.426	874.973
268.409	15.463	1175.329	874.602
269.424	15.487	1174.895	874.323
270.439	15.521	1174.125	873.853
271.453	15.613	1173.247	873.598
272.468	15.439	1172.452	872.023
273.482	15.532	1171.914	872.030
274.497	15.476	1171.232	871.157
275.512	15.471	1171.053	870.919
276.526	15.561	1169.841	870.408
277.541	15.463	1169.260	869.392
278.555	15.579	1168.194	869.120
279.570	15.639	1167.581	868.901
280.585	15.660	1167.045	868.533
281.599	15.671	1165.698	867.510
282.614	15.680	1164.626	866.681
283.628	15.658	1163.673	865.783
284.643	15.589	1162.765	864.674
285.657	15.773	1161.609	864.682
286.672	15.667	1160.715	863.397
287.687	15.760	1159.601	862.971
288.701	15.760	1159.055	862.486
289.716	15.739	1158.445	861.850
290.730	15.800	1157.467	861.359
291.745	15.696	1157.149	860.514
292.760	15.802	1156.655	860.609
293.774	15.915	1155.725	860.423
294.789	15.895	1155.062	859.747
295.803	15.898	1154.624	859.360
296.818	15.905	1153.853	858.747
297.833	15.823	1153.238	857.796
298.847	15.905	1152.227	857.386
299.862	15.778	1151.823	856.363
300.876	15.879	1150.953	856.152
301.891	15.989	1149.955	855.896
302.906	15.941	1149.617	855.324
303.920	16.000	1148.778	854.921
304.935	15.999	1148.171	854.391
305.949	16.113	1147.288	854.237
306.964	16.118	1146.740	853.778
307.979	16.073	1145.821	852.789
308.993	15.993	1145.036	851.727
310.008	16.192	1144.259	852.075
311.022	16.183	1143.675	851.521
312.037	16.189	1142.934	850.927
313.052	16.156	1141.488	849.606
314.066	16.124	1140.218	848.424
315.081	16.195	1139.549	848.210
316.095	16.102	1139.061	847.305
317.110	16.111	1138.513	846.868
318.125	16.102	1138.071	846.415
319.139	16.064	1137.135	845.457
320.154	16.214	1136.299	845.511
321.168	16.152	1136.053	844.941
322.183	16.021	1135.462	843.773
323.197	16.063	1134.813	843.428
324.212	16.187	1133.906	843.298
325.227	16.323	1133.343	843.483
326.241	16.228	1132.441	842.263
327.256	16.264	1131.641	841.772
328.270	16.270	1130.656	840.998
329.285	16.183	1129.947	839.961
330.300	16.178	1129.188	839.297
331.314	16.232	1128.251	838.796
332.329	16.292	1127.025	838.109
333.343	16.339	1125.761	837.324
334.358	16.299	1125.100	836.565
335.373	16.217	1124.920	835.947
336.387	16.443	1123.558	835.979
337.402	16.337	1123.217	835.129
338.416	16.492	1122.484	835.276
339.431	16.410	1121.906	834.367
340.446	16.532	1121.322	834.460
341.460	16.438	1120.537	833.337
342.475	16.484	1119.685	832.857
343.489	16.568	1118.336	832.193
344.504	16.648	1117.222	831.686
345.519	16.646	1116.671	831.193
346.533	16.581	1115.997	830.295
347.548	16.680	1115.208	830.123
348.562	16.644	1114.214	829.132
349.577	16.537	1114.080	828.435
350.592	16.569	1113.347	827.973
351.606	16.637	1112.277	827.437
352.621	16.654	1111.719	827.033
353.635	16.730	1110.842	826.677
354.650	16.551	1110.317	825.341
355.665	16.639	1109.290	824.934
356.679	16.679	1108.837	824.715
357.694	16.720	1108.428	824.537
358.708	16.740	1108.145	824.354
359.723	16.829	1106.860	823.759
360.738	16.757	1106.522	823.083
361.752	16.759	1105.661	822.378
362.767	16.792	1105.113	822.058
363.781	16.964	1104.126	822.086
364.796	16.861	1103.898	821.346
365.810	16.984	1103.580	821.628
366.825	16.957	1102.639	820.727
367.840	16.967	1102.138	820.331
368.854	17.139	1101.301	820.464
369.869	17.009	1100.487	819.158
370.883	17.005	1099.873	818.610
371.898	17.083	1098.961	818.234
372.913	17.053	1098.479	817.657
373.927	17.113	1098.205	817.670
374.942	17.067	1097.629	816.949
375.956	17.057	1097.041	816.393
376.971	17.184	1096.060	816.199
377.986	17.054	1096.162	815.578
379.000	17.081	1095.362	815.041
380.015	17.122	1094.879	814.808
381.029	17.152	1093.939	814.176
382.044	17.205	1093.274	813.866
383.059	17.346	1092.484	813.879
384.073	17.186	1091.710	812.467
385.088	17.317	1090.445	812.076
386.102	17.268	1089.957	811.409
387.117	17.223	1088.761	810.234
388.132	17.353	1087.691	809.984
389.146	17.342	1086.665	809.095
390.161	17.270	1086.666	808.684
391.175	17.411	1085.640	808.517
392.190	17.242	1084.960	807.134
393.205	17.314	1084.416	807.000
394.219	17.357	1083.458	806.422
395.234	17.376	1082.501	805.726
396.248	17.458	1081.060	804.973
397.263	17.302	1080.596	803.817
398.278	17.320	1079.805	803.245
399.292	17.380	1079.206	803.012
400.307	17.327	1078.388	802.080
401.321	17.332	1077.779	801.579
402.336	17.548	1076.868	801.847
403.350	17.264	1076.632	800.263
404.365	17.389	1075.931	800.261
405.380	17.455	1074.866	799.710
406.394	17.487	1073.909	799.077
407.409	17.536	1073.421	798.873
408.423	17.605	1072.720	798.604
409.438	17.542	1072.375	797.982
410.453	17.517	1071.459	797.109
411.467	17.680	1070.485	797.078
412.482	17.624	1069.915	796.320
413.496	17.739	1069.073	796.159
414.511	17.720	1068.401	795.500
415.526	17.697	1068.019	795.037
416.540	17.688	1067.629	794.635
417.555	17.674	1067.265	794.233
418.569	17.675	1067.021	793.983
419.584	17.785	1066.394	793.958
420.599	17.806	1065.749	793.508
421.613	109.766	1333.292	1495.069
422.628	101.486	1372.209	1495.131
