DTS Sentinel unit serial number:	SN413079Multiplexer serial number:	ORYXHardware model number:	OX4-SRSoftware version number:	ORYX F/W v4.00 Oryx Data Collector v3.7.2.0data status	okinstallation	princeton_trtdifferential loss correction	single-endedforward channel	channel 2reverse channel	N/Adate	2019/09/17time	03:31:35forward acquisition time	60.00reverse acquisition time	0.00gamma	496.2192k internal	0.2326k external	0.2326temperature offset calibration	0.9975default loss term (dB/km)	0.3790temperature slope calibration	1.0000multiplexer offset coefficient	1.0000multiplexer slope coefficient	1.0000fibre end	0.00T internal ref (°C)	30.00T ext. ref 1 (°C)	0.14T ext. ref 2 (°C)	24.64length (m)	temperature (°C)	Stokes	anti-Stokes-747.200	518.069	0.224	0.528
-746.185	-4.013	-0.253	0.177
-745.171	-95.608	0.432	0.117
-744.156	-200.000	-0.022	0.166
-743.142	-25.550	0.240	0.143
-742.127	-200.000	0.018	0.149
-741.112	-200.000	0.066	-0.355
-740.098	4.279	-0.152	-0.112
-739.083	-112.018	-0.370	-0.075
-738.069	243.237	0.028	0.048
-737.054	800.000	-0.073	-0.256
-736.039	132.577	-0.171	-0.222
-735.025	-200.000	0.041	0.546
-734.010	16.344	-0.288	0.229
-732.996	-59.553	-0.107	-0.046
-731.981	546.754	-0.108	0.261
-730.966	135.675	0.138	-0.181
-729.952	-200.000	0.029	-0.170
-728.937	113.059	-0.090	0.110
-727.923	-47.846	0.344	-0.168
-726.908	38.818	0.118	-0.107
-725.894	86.788	0.187	0.208
-724.879	167.908	-0.099	-0.141
-723.864	114.179	-0.135	-0.165
-722.850	351.738	-0.078	-0.156
-721.835	-140.524	0.497	-0.052
-720.821	-200.000	0.003	-0.297
-719.806	-87.593	0.401	0.122
-718.791	589.324	-0.087	-0.217
-717.777	-163.224	-0.463	0.022
-716.762	677.908	-0.038	0.101
-715.748	274.428	0.117	-0.208
-714.733	800.000	-0.031	0.094
-713.718	103.556	-0.121	-0.143
-712.704	-33.514	0.191	0.106
-711.689	104.139	0.229	-0.271
-710.675	311.463	0.041	0.077
-709.660	-47.562	-0.041	0.020
-708.645	-200.000	-0.041	-0.278
-707.631	237.931	-0.191	-0.320
-706.616	276.235	0.092	-0.164
-705.602	-107.730	0.306	-0.067
-704.587	-200.000	0.016	-0.282
-703.572	170.761	0.137	0.198
-702.558	61.874	0.193	0.194
-701.543	193.079	-0.254	-0.387
-700.529	71.290	0.168	-0.175
-699.514	-178.325	-0.210	-0.005
-698.499	-86.738	0.105	-0.032
-697.485	-200.000	-0.010	-0.103
-696.470	26.769	0.177	-0.149
-695.456	51.616	0.195	-0.186
-694.441	626.254	0.016	0.041
-693.426	-146.170	-0.152	-0.013
-692.412	-200.000	-0.039	-0.229
-691.397	-102.977	0.206	0.049
-690.383	-104.653	0.216	0.050
-689.368	-109.678	-0.172	0.036
-688.354	-200.000	0.041	0.391
-687.339	-180.804	-0.404	0.008
-686.324	-200.000	-0.012	-0.073
-685.310	-200.000	0.006	0.117
-684.295	-87.229	0.164	-0.050
-683.281	-200.000	-0.043	-0.220
-682.266	-182.702	0.227	0.004
-681.251	-200.000	0.022	-0.316
-680.237	800.000	-0.167	0.484
-679.222	104.167	-0.136	0.160
-678.208	238.989	0.074	-0.123
-677.193	800.000	-0.052	-0.222
-676.178	-200.000	-0.027	0.235
-675.164	-35.941	-0.280	0.152
-674.149	393.183	0.133	-0.279
-673.135	800.000	0.081	0.298
-672.120	-78.134	-0.282	-0.098
-671.105	-66.213	-0.082	0.033
-670.091	-140.528	-0.107	0.011
-669.076	295.776	-0.028	0.052
-668.062	579.050	-0.089	-0.220
-667.047	38.865	0.030	-0.027
-666.032	-200.000	-0.071	0.596
-665.018	-200.000	0.004	-0.020
-664.003	-117.902	-0.494	0.089
-662.989	-98.167	0.285	-0.074
-661.974	-45.849	-0.109	0.054
-660.959	195.491	0.048	0.074
-659.945	-90.015	0.124	-0.036
-658.930	-200.000	0.010	-0.126
-657.916	-2.214	0.292	-0.206
-656.901	99.050	-0.209	-0.243
-655.886	90.895	-0.083	0.093
-654.872	120.746	0.188	0.234
-653.857	-200.000	-0.053	0.233
-652.843	-132.261	0.378	-0.049
-651.828	-45.695	-0.369	0.184
-650.814	155.445	-0.029	-0.040
-649.799	-200.000	0.013	0.177
-648.784	189.688	0.167	-0.252
-647.770	-34.879	-0.280	-0.153
-646.755	-200.000	-0.002	-0.190
-645.741	-97.719	-0.095	-0.025
-644.726	-62.834	0.332	-0.138
-643.711	30.481	-0.049	0.042
-642.697	563.974	-0.096	0.233
-641.682	-27.192	-0.357	-0.209
-640.668	218.093	-0.095	0.152
-639.653	-82.114	0.114	0.037
-638.638	-13.994	0.105	-0.068
-637.624	800.000	0.058	-0.220
-636.609	800.000	0.019	-0.054
-635.595	36.708	0.162	0.143
-634.580	-85.548	-0.138	0.043
-633.565	800.000	0.071	-0.262
-632.551	-131.901	0.040	-0.005
-631.536	-39.070	0.032	0.017
-630.522	72.989	0.130	0.136
-629.507	16.274	-0.291	-0.230
-628.492	-12.418	-0.126	-0.083
-627.478	147.501	-0.212	-0.286
-626.463	-0.992	-0.091	-0.065
-625.449	800.000	0.008	0.023
-624.434	221.314	0.064	0.102
-623.419	-105.661	-0.124	-0.028
-622.405	800.000	0.041	0.149
-621.390	-61.336	0.143	-0.061
-620.376	-68.088	-0.133	-0.052
-619.361	-200.000	-0.067	-0.300
-618.346	-68.487	-0.200	0.078
-617.332	-66.812	0.166	0.066
-616.317	-34.514	0.218	0.120
-615.303	175.757	-0.153	-0.223
-614.288	119.232	-0.206	0.255
-613.273	416.544	0.136	-0.292
-612.259	513.550	0.124	0.291
-611.244	-96.107	0.272	-0.072
-610.230	800.000	0.034	0.138
-609.215	-115.684	-0.186	0.035
-608.201	800.000	0.059	0.183
-607.186	70.904	0.027	-0.029
-606.171	-28.914	-0.178	-0.102
-605.157	-132.070	-0.127	0.017
-604.142	23.029	-0.088	-0.072
-603.128	391.117	-0.197	-0.409
-602.113	92.619	-0.134	-0.152
-601.098	-89.598	0.300	-0.088
-600.084	-7.059	-0.071	0.049
-599.069	-59.099	-0.206	-0.089
-598.055	-200.000	-0.000	0.052
-597.040	344.683	-0.043	-0.085
-596.025	-200.000	0.037	0.378
-595.011	231.294	-0.062	0.102
-593.996	-3.440	0.341	0.238
-592.982	-57.672	0.062	0.027
-591.967	-120.972	0.122	0.021
-590.952	37.669	0.240	-0.214
-589.938	-94.773	0.282	0.077
-588.923	377.967	-0.062	0.126
-587.909	278.178	-0.244	0.437
-586.894	-49.273	0.215	-0.103
-585.879	-132.791	-0.294	-0.038
-584.865	113.979	0.126	0.153
-583.850	-101.371	-0.170	0.042
-582.836	16.751	-0.434	0.344
-581.821	170.268	-0.050	-0.071
-580.806	-125.805	-0.076	-0.011
-579.792	36.845	-0.094	0.084
-578.777	-145.865	-0.218	0.019
-577.763	343.548	0.184	-0.361
-576.748	800.000	-0.040	-0.134
-575.733	442.327	0.147	-0.322
-574.719	-200.000	0.002	-0.132
-573.704	-120.702	0.336	-0.057
-572.690	93.648	-0.117	-0.132
-571.675	197.296	0.081	0.123
-570.661	471.934	0.083	0.188
-569.646	-200.000	0.057	0.287
-568.631	800.000	0.094	-0.333
-567.617	1.298	-0.208	-0.150
-566.602	-11.947	-0.252	0.165
-565.588	-200.000	-0.073	0.423
-564.573	-108.029	-0.192	-0.042
-563.558	-200.000	-0.009	0.265
-562.544	352.778	-0.067	0.133
-561.529	-180.314	0.168	0.004
-560.515	-73.096	0.146	-0.054
-559.500	-200.000	-0.031	0.557
-558.485	-45.503	0.186	0.092
-557.471	-200.000	-0.078	-0.589
-556.456	-91.984	-0.048	-0.014
-555.442	735.975	0.079	-0.211
-554.427	-118.027	-0.085	-0.015
-553.412	800.000	0.117	-0.409
-552.398	38.635	0.102	-0.091
-551.383	-200.000	-0.028	0.158
-550.369	-65.651	0.083	-0.033
-549.354	14.360	-0.197	-0.154
-548.339	92.074	0.274	0.308
-547.325	-200.000	0.071	0.346
-546.310	-94.769	-0.104	0.028
-545.296	-200.000	0.011	-0.286
-544.281	-113.393	-0.193	-0.038
-543.266	-175.239	-0.206	-0.006
-542.252	94.244	0.231	-0.262
-541.237	-200.000	0.026	-0.123
-540.223	-200.000	0.061	0.272
-539.208	-101.457	-0.265	-0.065
-538.193	-58.464	-0.278	-0.121
-537.179	711.324	-0.027	-0.071
-536.164	-55.648	0.133	-0.060
-535.150	800.000	-0.046	0.196
-534.135	800.000	-0.036	0.142
-533.121	580.241	-0.024	0.059
-532.106	800.000	0.105	-0.438
-531.091	-200.000	0.048	-0.418
-530.077	-18.534	-0.116	0.072
-529.062	800.000	-0.016	-0.055
-528.048	221.176	-0.066	-0.107
-527.033	-38.919	0.282	0.149
-526.018	800.000	0.079	0.255
-525.004	800.000	-0.054	-0.204
-523.989	293.505	-0.127	-0.231
-522.975	62.804	-0.235	0.235
-521.960	-40.808	0.274	0.142
-520.945	11.080	0.238	-0.182
-519.931	-200.000	0.072	0.379
-518.916	-200.000	-0.036	0.201
-517.902	-11.486	-0.324	-0.213
-516.887	-117.548	-0.346	0.062
-515.872	24.277	-0.290	0.240
-514.858	763.845	0.021	0.057
-513.843	-200.000	-0.034	-0.185
-512.829	-114.570	-0.072	-0.014
-511.814	452.345	-0.090	-0.200
-510.799	7.799	-0.292	-0.219
-509.785	-200.000	-0.001	0.097
-508.770	-0.885	-0.120	-0.085
-507.756	4.199	0.460	0.337
-506.741	-198.756	-0.197	-0.001
-505.726	52.254	-0.066	-0.063
-504.712	128.331	-0.145	0.185
-503.697	-17.699	0.180	-0.113
-502.683	-146.288	0.293	0.026
-501.668	200.060	-0.080	0.122
-500.653	-200.000	-0.013	-0.391
-499.639	-84.600	0.282	-0.089
-498.624	109.616	0.169	-0.203
-497.610	417.373	0.142	0.303
-496.595	120.766	-0.261	0.324
-495.581	393.832	-0.107	0.223
-494.566	752.440	-0.011	-0.030
-493.551	-200.000	0.035	0.286
-492.537	242.152	-0.019	0.032
-491.522	-95.005	-0.157	0.042
-490.508	800.000	-0.116	0.390
-489.493	-142.558	-0.352	0.034
-488.478	-115.091	0.155	-0.029
-487.464	-92.871	0.274	0.076
-486.449	-90.948	-0.303	-0.087
-485.435	-127.060	0.138	-0.020
-484.420	-200.000	-0.005	0.254
-483.405	-60.052	0.197	-0.084
-482.391	-200.000	-0.051	0.250
-481.376	-200.000	-0.073	-0.336
-480.362	-49.315	-0.207	-0.099
-479.347	-200.000	0.005	0.366
-478.332	-200.000	-0.022	-0.153
-477.318	-132.287	0.266	-0.034
-476.303	291.281	0.165	-0.299
-475.289	-200.000	-0.011	0.719
-474.274	171.248	0.116	0.166
-473.259	160.262	0.078	0.108
-472.245	70.087	-0.170	0.175
-471.230	376.239	0.165	-0.337
-470.216	-159.505	-0.111	-0.006
-469.201	-179.356	-0.371	-0.008
-468.186	-3.304	0.406	-0.282
-467.172	199.194	-0.068	-0.105
-466.157	-200.000	-0.245	0.001
-465.143	257.052	0.037	-0.064
-464.128	-200.000	0.003	-0.164
-463.113	800.000	-0.105	-0.378
-462.099	-200.000	0.011	-0.173
-461.084	-101.166	-0.158	0.039
-460.070	1.468	0.423	0.304
-459.055	-128.979	0.122	0.017
-458.040	-155.554	-0.200	-0.013
-457.026	-78.945	0.335	-0.114
-456.011	-77.570	0.211	0.073
-454.997	523.005	-0.051	0.119
-453.982	-126.327	-0.319	-0.047
-452.968	346.996	0.150	-0.295
-451.953	-29.055	0.298	-0.170
-450.938	-39.722	0.056	0.029
-449.924	38.011	-0.136	0.120
-448.909	282.339	0.248	0.444
-447.895	86.663	0.191	-0.210
-446.880	495.595	-0.162	0.372
-445.865	-26.643	-0.229	0.134
-444.851	-3.216	0.150	-0.104
-443.836	-124.681	-0.112	0.017
-442.822	433.593	-0.178	0.385
-441.807	-21.383	-0.011	-0.006
-440.792	-118.929	-0.331	-0.058
-439.778	447.868	-0.182	0.400
-438.763	237.050	-0.075	-0.123
-437.749	-124.442	0.228	-0.035
-436.734	-101.120	0.242	0.059
-435.719	-200.000	-0.039	0.221
-434.705	47.031	0.207	-0.191
-433.690	-181.012	-0.190	0.004
-432.676	-200.000	-0.000	-0.024
-431.661	-138.495	0.211	0.023
-430.646	-200.000	-0.040	0.550
-429.632	60.868	-0.024	-0.024
-428.617	-16.748	0.051	0.032
-427.603	800.000	-0.054	-0.176
-426.588	-138.699	-0.132	-0.014
-425.573	105.959	0.148	0.174
-424.559	778.142	0.018	0.049
-423.544	9.300	0.180	-0.135
-422.530	-200.000	0.024	0.216
-421.515	48.111	0.205	0.191
-420.500	120.656	0.192	-0.238
-419.486	1.034	-0.208	-0.148
-418.471	-4.208	-0.349	0.241
-417.457	-42.572	0.260	-0.132
-416.442	6.038	0.079	-0.058
-415.428	107.185	0.049	0.057
-414.413	800.000	-0.077	0.232
-413.398	367.242	0.018	0.036
-412.384	721.258	0.104	-0.276
-411.369	1.643	-0.149	0.107
-410.355	-88.217	-0.216	-0.064
-409.340	-109.595	-0.462	0.097
-408.325	78.268	0.216	-0.230
-407.311	-30.738	0.052	-0.029
-406.296	800.000	-0.101	-0.296
-405.282	-200.000	-0.003	0.301
-404.267	82.123	0.053	-0.057
-403.252	-73.208	-0.169	0.062
-402.238	60.217	0.083	0.082
-401.223	379.218	0.197	0.402
-400.209	70.455	0.234	-0.241
-399.194	158.301	0.116	0.160
-398.179	268.799	0.127	0.222
-397.165	-54.863	0.275	0.124
-396.150	646.379	0.100	0.255
-395.136	-186.750	-0.429	-0.006
-394.121	-200.000	0.013	0.067
-393.106	552.032	-0.210	-0.502
-392.092	254.977	-0.116	0.198
-391.077	90.483	0.126	-0.141
-390.063	-17.900	0.116	-0.072
-389.048	397.307	-0.131	-0.273
-388.033	10.191	-0.140	-0.106
-387.019	-120.343	-0.126	-0.021
-386.004	-40.373	-0.285	-0.147
-384.990	30.133	-0.194	-0.165
-383.975	365.209	0.125	0.250
-382.960	339.440	0.103	-0.201
-381.946	699.296	0.010	-0.027
-380.931	-81.688	0.356	0.116
-379.917	-45.442	-0.250	-0.123
-378.902	3.790	-0.219	-0.159
-377.888	-200.000	0.020	0.154
-376.873	-55.322	0.270	-0.121
-375.858	-68.765	-0.124	0.048
-374.844	153.319	0.180	-0.245
-373.829	-200.000	-0.035	0.308
-372.815	34.515	-0.258	-0.224
-371.800	-200.000	0.004	-0.543
-370.785	-200.000	0.010	-0.143
-369.771	-47.272	0.115	-0.056
-368.756	-58.166	-0.179	0.077
-367.742	32.181	0.212	-0.182
-366.727	-200.000	0.019	0.243
-365.712	-200.000	0.028	0.174
-364.698	-8.437	-0.208	-0.139
-363.683	-45.496	-0.241	-0.119
-362.669	-200.000	-0.008	-0.075
-361.654	-131.913	0.420	0.054
-360.639	-23.158	0.098	-0.058
-359.625	614.528	-0.038	-0.095
-358.610	228.371	-0.220	-0.355
-357.596	221.890	-0.041	0.066
-356.581	-200.000	-0.017	-0.132
-355.566	7.839	-0.287	0.213
-354.552	128.637	-0.135	0.171
-353.537	-31.366	0.235	-0.131
-352.523	98.696	0.192	-0.220
-351.508	316.615	0.069	0.130
-350.493	713.319	-0.159	0.418
-349.479	52.515	0.077	0.073
-348.464	-46.486	0.182	-0.089
-347.450	-200.000	-0.032	0.175
-346.435	55.642	-0.210	-0.202
-345.420	-116.562	-0.076	-0.014
-344.406	-106.705	-0.196	-0.043
-343.391	-159.416	-0.257	-0.014
-342.377	302.080	-0.106	-0.195
-341.362	-200.000	0.030	-0.210
-340.348	-20.444	0.161	-0.098
-339.333	125.234	-0.087	0.109
-338.318	800.000	-0.024	-0.067
-337.304	-97.633	-0.063	0.016
-336.289	-200.000	0.041	0.188
-335.275	-37.794	-0.063	-0.033
-334.260	-200.000	0.060	0.331
-333.245	-161.206	-0.147	-0.008
-332.231	-80.845	-0.055	0.018
-331.216	-93.506	0.441	0.121
-330.202	-200.000	-0.053	0.287
-329.187	-200.000	-0.055	-0.352
-328.172	-14.623	0.354	-0.226
-327.158	-179.040	0.153	0.003
-326.143	736.442	0.071	-0.190
-325.129	-33.113	-0.151	0.083
-324.114	6.986	-0.247	-0.183
-323.099	-155.448	-0.060	-0.004
-322.085	143.254	-0.218	0.288
-321.070	-200.000	-0.040	0.322
-320.056	696.716	0.046	0.120
-319.041	-200.000	0.007	-0.057
-318.026	30.434	-0.250	-0.212
-317.012	-200.000	-0.078	0.364
-315.997	-152.032	0.199	0.014
-314.983	656.797	0.153	-0.389
-313.968	800.000	0.064	-0.182
-312.953	-80.840	-0.228	0.075
-311.939	-200.000	0.018	-0.482
-310.924	-17.826	0.407	-0.253
-309.910	800.000	0.090	0.339
-308.895	-200.000	0.009	-0.162
-307.880	204.974	-0.143	-0.221
-306.866	656.508	-0.123	0.312
-305.851	-46.819	-0.089	0.043
-304.837	37.622	0.163	-0.143
-303.822	800.000	0.032	0.122
-302.807	-200.000	0.335	-0.002
-301.793	-65.440	0.229	-0.091
-300.778	9.955	-0.217	0.164
-299.764	-157.618	-0.289	-0.017
-298.749	-118.831	0.102	-0.018
-297.735	-200.000	-0.036	0.285
-296.720	287.619	0.094	-0.169
-295.705	-200.000	0.014	-0.113
-294.691	-200.000	0.008	0.141
-293.676	-3.513	0.152	-0.105
-292.662	-21.369	-0.414	0.251
-291.647	314.136	0.124	-0.232
-290.632	23.782	0.271	-0.222
-289.618	744.739	-0.203	-0.540
-288.603	16.036	-0.112	-0.087
-287.589	-200.000	0.015	-0.147
-286.574	-200.000	0.015	0.077
-285.559	-89.428	-0.212	-0.062
-284.545	3.541	-0.235	-0.170
-283.530	-131.529	0.231	-0.030
-282.516	52.853	-0.304	-0.288
-281.501	340.877	0.151	-0.293
-280.486	556.649	0.047	0.111
-279.472	-70.579	0.149	0.056
-278.457	-1.988	0.191	-0.133
-277.443	-26.483	-0.145	0.084
-276.428	-33.033	0.122	-0.067
-275.413	-108.670	0.218	-0.046
-274.399	214.697	0.073	0.114
-273.384	-12.954	-0.105	0.068
-272.370	20.850	-0.014	0.012
-271.355	800.000	0.063	-0.191
-270.340	-28.819	0.177	0.101
-269.326	-200.000	-0.025	0.257
-268.311	4.343	-0.187	0.136
-267.297	-158.533	-0.363	0.021
-266.282	35.054	0.077	-0.067
-265.267	298.878	0.205	0.373
-264.253	-200.000	-0.006	-0.243
-263.238	-46.478	-0.342	-0.166
-262.224	-154.764	-0.374	0.024
-261.209	-186.667	-0.177	0.002
-260.195	-44.447	-0.592	-0.293
-259.180	516.217	0.159	-0.367
-258.165	-119.155	0.412	0.071
-257.151	348.225	-0.133	0.259
-256.136	-71.038	-0.138	0.052
-255.122	-200.000	0.223	-0.001
-254.107	-67.428	-0.099	-0.038
-253.092	-200.000	0.223	-0.001
-252.078	-22.233	0.290	0.174
-251.063	-53.244	0.076	0.035
-250.049	228.155	0.063	0.102
-249.034	-200.000	0.051	0.284
-248.019	201.689	-0.195	-0.297
-247.005	-63.930	0.448	0.181
-245.990	-112.968	0.195	-0.038
-244.976	630.039	0.179	-0.449
-243.961	50.735	0.088	-0.083
-242.946	-200.000	-0.013	-0.199
-241.932	-99.669	-0.171	-0.042
-240.917	76.938	-0.158	-0.166
-239.903	-14.130	-0.233	-0.148
-238.888	288.892	-0.155	0.277
-237.873	800.000	-0.088	0.298
-236.859	-174.987	0.138	0.004
-235.844	226.105	0.031	-0.050
-234.830	-88.793	0.653	0.192
-233.815	-200.000	0.026	-0.155
-232.800	-200.000	0.009	0.161
-231.786	-29.456	0.153	-0.086
-230.771	333.267	0.092	-0.175
-229.757	-58.972	-0.301	0.129
-228.742	-68.647	-0.181	-0.069
-227.727	258.228	-0.131	0.224
-226.713	445.967	0.018	-0.039
-225.698	-49.932	0.255	0.120
-224.684	-98.937	-0.262	0.066
-223.669	366.098	0.169	0.336
-222.655	-45.867	0.290	0.141
-221.640	-200.000	-0.022	0.183
-220.625	21.024	-0.037	-0.029
-219.611	344.845	0.178	-0.346
-218.596	-200.000	0.012	0.125
-217.582	104.455	-0.233	0.271
-216.567	-107.444	-0.072	-0.016
-215.552	-142.177	0.218	0.021
-214.538	127.067	-0.138	-0.172
-213.523	-52.453	0.248	-0.113
-212.509	-40.028	0.126	0.065
-211.494	-14.677	-0.252	0.160
-210.479	44.481	0.135	0.122
-209.465	250.285	-0.069	-0.116
-208.450	-115.873	-0.325	-0.060
-207.436	34.701	0.231	-0.200
-206.421	-63.873	0.312	-0.126
-205.406	27.992	-0.475	0.395
-204.392	53.906	-0.116	-0.110
-203.377	-200.000	0.055	-0.273
-202.363	-200.000	0.038	-0.319
-201.348	-160.149	0.100	0.005
-200.333	540.521	0.107	-0.253
-199.319	570.720	0.041	0.098
-198.304	169.780	0.278	0.392
-197.290	-200.000	0.028	0.191
-196.275	122.836	0.028	-0.035
-195.260	-200.000	-0.011	0.163
-194.246	407.138	-0.021	0.044
-193.231	-148.380	0.322	0.026
-192.217	-10.187	0.293	0.192
-191.202	485.325	0.127	0.286
-190.187	-200.000	0.041	-0.428
-189.173	-200.000	0.105	-0.627
-188.158	-173.359	-0.157	0.005
-187.144	57.592	0.262	-0.253
-186.129	-135.625	-0.216	0.025
-185.114	-32.150	-0.263	0.145
-184.100	-200.000	0.003	-0.070
-183.085	-43.400	0.040	-0.020
-182.071	-58.573	0.252	0.108
-181.056	-200.000	-0.031	0.238
-180.042	800.000	-0.094	0.289
-179.027	-100.463	0.167	0.041
-178.012	352.192	-0.119	-0.232
-176.998	38.245	-0.236	-0.207
-175.983	98.898	0.218	-0.248
-174.969	-200.000	-0.002	-0.203
-173.954	800.000	0.107	0.305
-172.939	375.436	0.213	-0.429
-171.925	24.653	-0.124	0.102
-170.910	-200.000	0.091	0.423
-169.896	-116.130	0.163	0.030
-168.881	-10.310	-0.089	0.058
-167.866	-84.502	-0.118	0.037
-166.852	-4.639	0.065	-0.045
-165.837	-84.745	-0.107	-0.033
-164.823	800.000	0.064	0.237
-163.808	-200.000	-0.046	0.361
-162.793	195.627	-0.140	-0.209
-161.779	-46.681	0.093	0.045
-160.764	-55.899	-0.164	0.072
-159.750	-49.147	0.480	0.226
-158.735	-114.343	-0.302	0.057
-157.720	98.500	0.290	0.329
-156.706	-53.354	0.161	0.073
-155.691	57.522	-0.211	0.203
-154.677	-178.843	0.126	0.003
-153.662	800.000	-0.058	-0.225
-152.647	795.041	0.114	0.310
-151.633	-28.815	-0.138	0.078
-150.618	183.052	0.196	0.285
-149.604	114.592	-0.153	0.183
-148.589	-85.623	-0.187	0.057
-147.574	-139.370	0.121	-0.013
-146.560	-22.840	0.306	0.182
-145.545	-13.264	-0.232	0.148
-144.531	-200.000	-0.018	-0.477
-143.516	-26.243	0.152	-0.088
-142.502	-83.711	0.347	-0.109
-141.487	124.963	-0.037	0.045
-140.472	81.776	-0.094	0.100
-139.458	-99.178	0.247	0.061
-138.443	211.191	0.067	-0.104
-137.429	5.895	0.294	-0.215
-136.414	-36.293	-0.268	-0.142
-135.399	452.966	0.095	-0.206
-134.385	-29.027	0.299	-0.169
-133.370	-24.002	0.204	0.120
-132.356	-53.768	-0.194	0.087
-131.341	-60.986	0.290	0.121
-130.326	-200.000	-0.000	-0.031
-129.312	4.244	0.087	0.063
-128.297	5.050	-0.080	-0.058
-127.283	251.720	0.092	0.155
-126.268	-123.044	0.127	-0.020
-125.253	133.109	-0.176	-0.223
-124.239	-111.481	0.074	0.015
-123.224	287.039	0.162	-0.288
-122.210	295.919	-0.117	-0.211
-121.195	-123.738	-0.104	-0.016
-120.180	272.298	-0.059	-0.103
-119.166	-200.000	-0.014	-0.063
-118.151	42.001	0.075	-0.067
-117.137	-200.000	-0.062	0.285
-116.122	-104.866	0.246	0.056
-115.107	-23.965	-0.197	-0.116
-114.093	-31.012	0.184	0.102
-113.078	188.272	0.215	-0.316
-112.064	50.618	-0.143	0.133
-111.049	142.771	0.050	0.065
-110.034	40.341	0.229	-0.203
-109.020	800.000	0.052	-0.162
-108.005	-66.924	0.266	0.103
-106.991	133.295	-0.040	0.051
-105.976	-86.819	-0.248	-0.074
-104.962	-200.000	0.008	-0.189
-103.947	749.677	0.086	-0.228
-102.932	-200.000	-0.019	-0.091
-101.918	-16.189	-0.218	-0.136
-100.903	492.304	0.022	0.049
-99.889	38.696	-0.123	0.108
-98.874	116.516	0.048	-0.058
-97.859	440.330	0.148	0.319
-96.845	-48.175	0.166	0.079
-95.830	-20.284	-0.155	0.094
-94.816	-59.093	0.248	-0.105
-93.801	460.200	-0.033	-0.073
-92.786	-6.769	-0.225	0.150
-91.772	-142.962	0.186	-0.018
-90.757	119.869	0.117	0.143
-89.743	147.465	0.244	0.322
-88.728	-40.578	-0.308	-0.157
-87.713	591.214	-0.046	0.111
-86.699	168.731	0.165	-0.232
-85.684	-200.000	-0.026	-0.237
-84.670	175.316	-0.114	0.163
-83.655	22.434	0.212	0.170
-82.640	-9.479	-0.303	0.199
-81.626	-26.190	0.094	0.054
-80.611	-49.156	0.098	-0.046
-79.597	-200.000	-0.016	-0.177
-78.582	590.108	0.057	-0.138
-77.567	-91.259	-0.101	-0.028
-76.553	-54.265	0.300	0.134
-75.538	-156.179	-0.302	0.019
-74.524	110.945	-0.099	-0.117
-73.509	232.932	-0.044	-0.072
-72.494	65.730	0.163	0.162
-71.480	-29.001	0.232	-0.131
-70.465	348.916	-0.107	-0.206
-69.451	-200.000	-0.001	-0.106
-68.436	-122.785	0.207	-0.033
-67.422	-1.141	-0.090	0.063
-66.407	21.622	0.247	0.198
-65.392	634.401	-0.015	0.038
-64.378	-200.000	-0.037	-0.189
-63.363	112.158	0.090	0.107
-62.349	-200.000	0.017	-0.187
-61.334	57.316	-1.013	-0.971
-60.319	-200.000	0.126	0.606
-59.305	-200.000	-0.215	-1.391
-58.290	68.215	0.841	0.845
-57.276	800.000	0.449	1.605
-56.261	-200.000	105.414	575.217
-55.246	462.962	1454.869	3189.185
-54.232	148.963	2648.669	3516.316
-53.217	101.134	2291.312	2617.502
-52.203	39.233	1904.864	1673.224
-51.188	33.313	1693.197	1442.295
-50.173	30.614	1649.957	1385.334
-49.159	48.428	1701.082	1563.471
-48.144	49.222	1717.758	1584.748
-47.130	32.801	1675.754	1423.347
-46.115	30.130	1661.498	1391.170
-45.100	29.898	1657.183	1385.766
-44.086	29.948	1653.522	1383.025
-43.071	29.887	1651.675	1380.971
-42.057	29.906	1648.677	1378.547
-41.042	29.919	1646.934	1377.130
-40.027	29.901	1645.085	1375.396
-39.013	29.923	1643.091	1373.836
-37.998	29.854	1641.604	1372.032
-36.984	29.993	1640.021	1371.683
-35.969	29.988	1639.133	1370.847
-34.954	30.045	1637.140	1369.549
-33.940	30.014	1635.236	1367.670
-32.925	30.049	1633.744	1366.630
-31.911	29.954	1632.777	1365.061
-30.896	29.928	1630.752	1363.127
-29.881	30.014	1628.565	1361.875
-28.867	29.912	1626.922	1359.699
-27.852	29.987	1625.522	1359.023
-26.838	30.123	1624.009	1358.700
-25.823	30.001	1623.073	1356.972
-24.809	30.003	1621.682	1355.767
-23.794	30.085	1619.821	1354.762
-22.779	29.983	1618.523	1352.878
-21.765	30.058	1616.313	1351.521
-20.750	29.929	1615.436	1349.797
-19.736	29.993	1614.395	1349.338
-18.721	29.910	1613.021	1347.531
-17.706	30.062	1610.938	1346.843
-16.692	30.086	1609.713	1345.937
-15.677	30.045	1608.108	1344.245
-14.663	29.996	1606.974	1342.888
-13.648	30.068	1605.638	1342.244
-12.633	30.172	1603.355	1341.033
-11.619	30.002	1602.329	1338.892
-10.604	29.997	1601.158	1337.822
-9.590	29.965	1600.009	1336.580
-8.575	30.023	1598.815	1335.947
-7.560	30.006	1597.728	1334.863
-6.546	30.003	1596.610	1333.858
-5.531	30.077	1595.077	1333.058
-4.517	29.988	1594.059	1331.507
-3.502	29.993	1592.981	1330.595
-2.487	30.137	1591.018	1329.933
-1.473	29.768	1579.107	1317.298
-0.458	27.003	1560.123	1281.915
0.556	21.768	1561.987	1251.292
1.571	19.561	1585.357	1253.894
2.586	19.252	1598.323	1261.771
3.600	17.695	1545.928	1209.271
4.615	9.932	1436.100	1071.914
5.629	1.879	1370.766	971.872
6.644	0.303	1362.479	955.919
7.659	0.147	1361.568	954.208
8.673	0.126	1360.130	952.982
9.688	0.004	1358.612	951.063
10.702	-0.017	1355.271	948.507
11.717	3.738	1361.287	976.392
12.731	12.349	1374.784	1040.751
13.746	17.514	1381.264	1078.357
14.761	17.250	1380.244	1075.797
15.775	16.407	1376.778	1067.676
16.790	15.327	1374.182	1058.755
17.804	14.516	1372.503	1052.253
18.819	14.137	1371.411	1048.932
19.834	13.862	1369.533	1045.668
20.848	13.644	1368.539	1043.446
21.863	13.431	1366.770	1040.669
22.877	13.253	1365.572	1038.545
23.892	13.261	1364.788	1037.903
24.907	13.158	1364.252	1036.758
25.921	13.134	1363.701	1036.100
26.936	13.284	1362.506	1036.039
27.950	13.310	1361.406	1035.277
28.965	13.377	1360.351	1034.801
29.980	13.383	1359.459	1034.066
30.994	13.488	1358.530	1033.924
32.009	13.386	1358.358	1033.068
33.023	13.482	1356.663	1032.286
34.038	13.490	1355.474	1031.337
35.053	13.330	1354.896	1029.812
36.067	13.339	1353.659	1028.832
37.082	13.422	1352.488	1028.372
38.096	13.419	1351.635	1027.612
39.111	13.412	1350.614	1026.701
40.126	13.316	1350.047	1025.583
41.140	13.187	1349.237	1024.077
42.155	13.184	1348.888	1023.707
43.169	13.164	1348.954	1023.538
44.184	13.105	1348.596	1022.810
45.199	13.246	1347.924	1023.082
46.213	13.246	1347.355	1022.562
47.228	13.266	1346.655	1022.061
48.242	13.332	1345.242	1021.311
49.257	13.255	1343.702	1019.576
50.271	13.316	1342.470	1018.926
51.286	13.270	1341.587	1017.884
52.301	13.367	1339.884	1017.094
53.315	13.329	1338.750	1015.912
54.330	13.247	1337.814	1014.610
55.344	13.220	1336.779	1013.565
56.359	13.232	1335.525	1012.599
57.374	13.184	1334.910	1011.752
58.388	13.202	1333.726	1010.875
59.403	13.222	1333.056	1010.400
60.417	13.039	1332.873	1009.051
61.432	13.097	1331.819	1008.519
62.447	13.077	1330.854	1007.576
63.461	13.025	1329.902	1006.452
64.476	13.077	1328.552	1005.656
65.490	13.025	1327.590	1004.523
66.505	13.155	1325.864	1003.919
67.520	13.162	1324.766	1003.041
68.534	13.190	1323.816	1002.401
69.549	13.015	1322.830	1000.505
70.563	13.123	1321.730	1000.238
71.578	13.064	1320.396	998.785
72.593	13.015	1319.363	997.616
73.607	13.104	1318.513	997.428
74.622	13.126	1317.813	996.939
75.636	13.056	1317.045	995.851
76.651	13.128	1316.258	995.600
77.666	12.991	1315.599	994.185
78.680	13.126	1314.823	994.323
79.695	13.118	1314.305	993.797
80.709	13.061	1313.730	992.930
81.724	13.044	1313.072	992.244
82.739	13.186	1311.435	991.773
83.753	13.207	1310.823	991.350
84.768	13.273	1309.735	990.834
85.782	13.354	1308.369	990.200
86.797	13.304	1307.513	989.164
87.812	13.267	1306.227	987.881
88.826	13.221	1305.086	986.655
89.841	13.254	1303.805	985.795
90.855	13.367	1302.614	985.483
91.870	13.410	1301.795	985.030
92.884	13.466	1300.832	984.551
93.899	13.361	1300.613	983.674
94.914	13.442	1299.656	983.343
95.928	13.501	1298.899	983.035
96.943	13.421	1298.038	981.817
97.957	13.383	1297.197	980.870
98.972	13.308	1296.023	979.451
99.987	13.392	1294.933	979.037
101.001	13.364	1293.805	977.933
102.016	13.422	1292.436	977.154
103.030	13.402	1291.845	976.505
104.045	13.352	1291.736	976.040
105.060	13.314	1289.961	974.390
106.074	13.285	1288.950	973.367
107.089	13.145	1287.600	971.440
108.103	13.308	1285.918	971.041
109.118	13.156	1285.189	969.513
110.133	13.255	1283.477	968.719
111.147	13.247	1282.080	967.528
112.162	13.332	1280.733	966.922
113.176	13.325	1279.826	966.113
114.191	13.286	1279.258	965.369
115.206	13.275	1278.153	964.388
116.220	13.204	1276.795	962.867
117.235	13.290	1275.843	962.561
118.249	13.317	1274.961	961.969
119.264	13.299	1273.953	961.016
120.279	13.268	1272.748	959.842
121.293	13.239	1271.257	958.468
122.308	13.179	1270.574	957.521
123.322	13.311	1269.162	957.133
124.337	13.169	1268.611	955.811
125.352	13.218	1267.085	954.863
126.366	13.200	1266.140	953.958
127.381	13.187	1265.072	952.998
128.395	13.188	1264.183	952.247
129.410	13.282	1263.491	952.182
130.424	13.293	1262.601	951.494
131.439	13.305	1261.597	950.723
132.454	13.279	1260.723	949.827
133.468	13.326	1259.621	949.184
134.483	13.302	1258.762	948.317
135.497	13.238	1258.011	947.301
136.512	13.272	1256.593	946.344
137.527	13.350	1255.214	945.666
138.541	13.316	1253.742	944.277
139.556	13.337	1252.535	943.405
140.570	13.339	1251.850	942.816
141.585	13.472	1250.047	942.136
142.600	13.452	1249.093	941.215
143.614	13.458	1248.478	940.702
144.629	13.396	1247.640	939.638
145.643	13.471	1245.948	938.704
146.658	13.359	1245.112	937.356
147.673	13.408	1244.012	936.724
148.687	13.361	1242.745	935.421
149.702	13.460	1240.830	934.457
150.716	13.324	1239.718	932.769
151.731	13.370	1239.027	932.425
152.746	13.357	1238.047	931.534
153.760	13.432	1236.417	930.647
154.775	13.550	1234.889	930.079
155.789	13.541	1233.931	929.221
156.804	13.570	1233.028	928.621
157.819	13.456	1232.550	927.544
158.833	13.620	1231.116	927.300
159.848	13.631	1230.602	926.889
160.862	13.577	1229.536	925.707
161.877	13.582	1228.183	924.632
162.892	13.533	1227.477	923.746
163.906	13.566	1226.256	922.928
164.921	13.519	1225.574	922.073
165.935	13.519	1224.816	921.420
166.950	13.592	1224.053	921.172
167.964	13.610	1223.221	920.561
168.979	13.578	1222.381	919.670
169.994	13.496	1222.121	918.938
171.008	13.610	1220.946	918.605
172.023	13.537	1220.544	917.820
173.037	13.724	1219.257	917.804
174.052	13.776	1218.078	917.124
175.067	13.665	1217.117	915.707
176.081	13.631	1216.522	914.988
177.096	13.615	1215.601	914.126
178.110	13.599	1214.751	913.318
179.125	13.633	1213.828	912.732
180.140	13.730	1211.509	911.437
181.154	13.678	1210.915	910.624
182.169	13.751	1209.720	910.049
183.183	13.699	1208.682	908.902
184.198	13.814	1207.325	908.432
185.213	13.807	1206.245	907.497
186.227	13.871	1204.973	906.813
187.242	13.828	1204.761	906.336
188.256	13.862	1203.803	905.720
189.271	13.899	1202.393	904.780
190.286	13.715	1201.567	903.078
191.300	13.662	1200.531	901.934
192.315	13.617	1199.778	901.039
193.329	13.677	1199.432	901.027
194.344	13.581	1199.117	900.188
195.359	13.778	1198.070	900.393
196.373	13.895	1197.502	900.519
197.388	13.929	1197.209	900.406
198.402	13.961	1196.583	900.027
199.417	14.025	1195.469	899.455
200.432	14.073	1194.670	899.034
201.446	14.117	1193.911	898.621
202.461	14.072	1193.229	897.789
203.475	14.120	1191.963	897.011
204.490	14.129	1190.801	896.111
205.504	14.024	1189.965	894.837
206.519	14.160	1188.142	894.117
207.534	13.972	1187.760	892.739
208.548	14.079	1186.714	892.447
209.563	14.044	1185.724	891.438
210.577	14.104	1185.089	891.203
211.592	14.107	1183.995	890.319
212.607	14.283	1182.740	890.236
213.621	14.291	1182.019	889.658
214.636	14.236	1180.898	888.443
215.650	14.256	1180.154	887.909
216.665	14.303	1179.240	887.394
217.680	14.219	1178.775	886.517
218.694	14.310	1177.494	885.963
219.709	14.350	1176.965	885.698
220.723	14.282	1176.480	884.893
221.738	14.276	1175.769	884.247
222.753	14.323	1174.902	883.764
223.767	14.243	1174.712	883.120
224.782	14.501	1173.614	883.585
225.796	14.426	1172.810	882.504
226.811	14.472	1172.269	882.264
227.826	14.415	1171.426	881.247
228.840	14.349	1171.012	880.508
229.855	14.490	1170.241	880.594
230.869	14.417	1169.197	879.346
231.884	14.319	1168.420	878.172
232.899	14.324	1167.813	877.662
233.913	14.396	1166.816	877.215
234.928	14.348	1166.308	876.504
235.942	14.311	1165.432	875.571
236.957	14.316	1164.948	875.155
237.972	14.291	1163.764	874.057
238.986	14.390	1163.449	874.266
240.001	14.409	1162.910	873.880
241.015	14.421	1161.654	872.925
242.030	14.477	1161.278	872.854
243.045	14.445	1160.279	871.861
244.059	14.607	1159.272	871.872
245.074	14.527	1158.622	870.891
246.088	14.633	1157.652	870.634
247.103	14.587	1156.908	869.758
248.117	14.676	1156.277	869.672
249.132	14.706	1155.583	869.231
250.147	14.806	1154.925	869.180
251.161	14.883	1154.439	869.134
252.176	14.982	1153.492	868.861
253.190	15.008	1152.703	868.324
254.205	14.914	1152.218	867.395
255.220	14.845	1151.847	866.682
256.234	14.946	1150.712	866.271
257.249	15.031	1149.981	866.086
258.263	14.981	1149.838	865.643
259.278	14.916	1149.225	864.770
260.293	15.039	1148.532	864.808
261.307	15.019	1147.794	864.072
262.322	15.092	1147.127	863.870
263.336	15.062	1146.939	863.495
264.351	15.025	1146.425	862.841
265.366	15.065	1145.501	862.274
266.380	15.054	1144.998	861.763
267.395	14.892	1143.911	860.035
268.409	14.960	1143.192	859.772
269.424	15.175	1142.493	860.270
270.439	15.016	1141.756	858.825
271.453	14.981	1141.541	858.409
272.468	15.040	1140.549	857.890
273.482	15.006	1139.674	856.978
274.497	15.003	1139.239	856.561
275.512	15.237	1137.573	856.429
276.526	15.039	1137.138	855.013
277.541	15.144	1136.606	855.076
278.555	15.240	1135.451	854.622
279.570	15.317	1135.061	854.643
280.585	15.045	1134.803	852.988
281.599	15.321	1133.693	853.480
282.614	15.254	1132.674	852.298
283.628	15.317	1131.243	851.467
284.643	15.266	1130.226	850.366
285.657	15.330	1129.472	850.051
286.672	15.286	1128.796	849.241
287.687	15.262	1127.975	848.425
288.701	15.405	1127.365	848.618
289.716	15.384	1126.311	847.642
290.730	15.400	1125.733	847.211
291.745	15.600	1124.607	847.302
292.760	15.416	1124.600	846.291
293.774	15.464	1123.877	845.915
294.789	15.427	1123.327	845.242
295.803	15.557	1122.733	845.370
296.818	15.453	1121.917	844.162
297.833	15.562	1120.961	843.914
298.847	15.447	1120.326	842.783
299.862	15.557	1119.604	842.717
300.876	15.523	1118.718	841.806
301.891	15.564	1118.292	841.618
302.906	15.556	1117.786	841.119
303.920	15.576	1117.258	840.750
304.935	15.661	1116.087	840.218
305.949	15.621	1115.960	839.847
306.964	15.742	1114.950	839.619
307.979	15.849	1114.215	839.526
308.993	15.764	1113.285	838.325
310.008	15.692	1112.895	837.600
311.022	15.816	1112.065	837.519
312.037	15.854	1110.891	836.749
313.052	15.751	1110.289	835.709
314.066	15.625	1109.460	834.387
315.081	15.672	1108.536	833.850
316.095	15.710	1107.984	833.546
317.110	15.593	1107.351	832.421
318.125	15.761	1106.324	832.405
319.139	15.795	1105.675	832.013
320.154	15.796	1105.006	831.440
321.168	15.730	1104.364	830.556
322.183	15.749	1103.821	830.166
323.197	15.760	1103.167	829.657
324.212	15.792	1102.333	829.114
325.227	15.793	1101.886	828.709
326.241	15.797	1101.632	828.465
327.256	15.825	1100.637	827.781
328.270	15.803	1099.980	827.108
329.285	15.748	1099.083	826.087
330.300	15.739	1098.370	825.437
331.314	15.935	1097.036	825.318
332.329	15.900	1096.086	824.360
333.343	15.770	1095.853	823.474
334.358	15.913	1094.833	823.336
335.373	15.901	1094.064	822.627
336.387	15.852	1093.277	821.722
337.402	15.892	1092.419	821.200
338.416	16.035	1091.775	821.338
339.431	16.020	1091.213	820.772
340.446	16.064	1090.539	820.409
341.460	16.103	1089.699	819.893
342.475	16.169	1088.743	819.420
343.489	16.182	1087.900	818.779
344.504	16.327	1086.723	818.519
345.519	16.168	1086.053	817.173
346.533	16.262	1085.479	817.123
347.548	16.248	1085.059	816.670
348.562	16.261	1084.082	815.926
349.577	16.203	1083.554	815.175
350.592	16.320	1082.379	814.782
351.606	16.139	1081.813	813.409
352.621	16.188	1081.241	813.143
353.635	16.091	1080.494	812.043
354.650	16.268	1079.323	811.943
355.665	16.362	1078.969	812.058
356.679	16.290	1078.519	811.302
357.694	16.302	1077.931	810.848
358.708	16.432	1077.042	810.726
359.723	16.382	1076.598	810.084
360.738	16.375	1075.597	809.226
361.752	16.391	1075.547	809.191
362.767	16.369	1074.829	808.473
363.781	16.446	1074.076	808.202
364.796	16.550	1073.501	808.196
365.810	16.552	1073.136	807.861
366.825	16.590	1072.557	807.536
367.840	16.520	1071.889	806.627
368.854	16.585	1071.605	806.652
369.869	16.642	1070.504	806.024
370.883	16.607	1069.421	804.968
371.898	16.636	1068.853	804.607
372.913	16.593	1068.675	804.201
373.927	16.506	1068.647	803.695
374.942	16.699	1067.515	803.686
375.956	16.763	1066.933	803.481
376.971	16.668	1066.288	802.476
377.986	16.756	1065.501	802.229
379.000	16.681	1065.629	801.900
380.015	16.781	1064.607	801.532
381.029	16.844	1063.995	801.297
382.044	16.792	1063.369	800.508
383.059	16.852	1062.329	799.940
384.073	16.852	1061.249	799.054
385.088	16.844	1060.656	798.501
386.102	16.844	1060.102	798.014
387.117	16.766	1058.977	796.726
388.132	16.809	1058.054	796.166
389.146	16.855	1056.989	795.511
390.161	16.722	1056.853	794.713
391.175	16.866	1055.912	794.611
392.190	16.887	1055.437	794.278
393.205	16.948	1054.744	793.972
394.219	16.874	1053.544	792.653
395.234	17.008	1052.493	792.421
396.248	16.902	1052.246	791.667
397.263	16.798	1050.867	790.078
398.278	16.925	1050.277	790.155
399.292	16.907	1049.820	789.657
400.307	16.928	1049.083	789.131
401.321	16.914	1048.325	788.425
402.336	16.889	1047.819	787.861
403.350	16.929	1046.942	787.317
404.365	17.041	1046.159	787.175
405.380	17.023	1045.651	786.641
406.394	17.105	1045.003	786.463
407.409	17.160	1044.155	786.008
408.423	17.139	1043.634	785.453
409.438	17.337	1042.599	785.517
410.453	17.100	1042.128	784.001
411.467	17.201	1041.529	783.944
412.482	17.196	1040.784	783.292
413.496	17.306	1040.143	783.244
414.511	17.402	1039.355	783.025
415.526	17.332	1038.922	782.309
416.540	17.440	1038.331	782.292
417.555	17.370	1037.947	781.611
418.569	17.371	1037.341	781.089
419.584	17.453	1037.168	781.269
420.599	17.329	1036.684	780.262
421.613	103.100	1321.820	1468.429
422.628	94.520	1363.326	1468.506
