DTS Sentinel unit serial number:	SN413079Multiplexer serial number:	ORYXHardware model number:	OX4-SRSoftware version number:	ORYX F/W v4.00 Oryx Data Collector v3.7.2.0data status	okinstallation	princeton_trtdifferential loss correction	single-endedforward channel	channel 2reverse channel	N/Adate	2019/09/12time	03:01:11forward acquisition time	60.00reverse acquisition time	0.00gamma	496.2192k internal	0.2326k external	0.2326temperature offset calibration	1.0091default loss term (dB/km)	0.3790temperature slope calibration	1.0000multiplexer offset coefficient	1.0000multiplexer slope coefficient	1.0000fibre end	0.00T internal ref (°C)	32.31T ext. ref 1 (°C)	2.10T ext. ref 2 (°C)	27.12length (m)	temperature (°C)	Stokes	anti-Stokes-747.200	4.473	-0.119	-0.088
-746.185	-200.000	0.092	0.410
-745.171	-51.824	-0.213	-0.100
-744.156	-87.779	-0.211	0.064
-743.142	-200.000	0.018	0.374
-742.127	752.484	-0.124	0.339
-741.112	-12.212	-0.209	0.138
-740.098	-85.988	-0.320	0.100
-739.083	-200.000	-0.015	0.353
-738.069	733.376	0.103	0.279
-737.054	-101.259	0.242	0.059
-736.039	800.000	0.021	0.087
-735.025	37.540	0.339	0.303
-734.010	-200.000	0.042	0.219
-732.996	172.845	-0.179	-0.260
-731.981	-166.386	-0.326	0.014
-730.966	-48.301	-0.094	-0.046
-729.952	-4.558	0.138	-0.096
-728.937	-21.382	0.274	0.169
-727.923	-200.000	0.002	0.034
-726.908	724.819	0.092	0.248
-725.894	361.658	0.091	-0.183
-724.879	-92.321	-0.043	0.012
-723.864	129.858	-0.177	0.228
-722.850	-53.187	0.197	0.091
-721.835	210.003	0.200	0.316
-720.821	-57.313	-0.203	0.090
-719.806	-78.429	0.123	-0.042
-718.791	-182.258	0.030	-0.001
-717.777	800.000	0.047	-0.148
-716.762	28.012	-0.071	0.061
-715.748	-27.168	0.057	-0.033
-714.733	13.340	-0.116	0.090
-713.718	673.208	0.124	0.324
-712.704	-200.000	-0.045	0.247
-711.689	-200.000	0.022	-0.128
-710.675	800.000	-0.086	0.286
-709.660	168.690	-0.139	0.199
-708.645	-63.844	-0.323	0.133
-707.631	-14.803	0.339	-0.219
-706.616	-0.751	0.101	-0.072
-705.602	36.041	-0.198	0.176
-704.587	800.000	-0.099	-0.311
-703.572	30.043	0.054	0.046
-702.558	211.525	0.025	0.039
-701.543	-107.521	0.252	-0.056
-700.529	94.740	0.135	0.155
-699.514	800.000	-0.060	0.197
-698.499	-69.045	-0.336	-0.130
-697.485	-200.000	0.019	0.298
-696.470	448.529	0.040	-0.088
-695.456	173.048	-0.154	0.223
-694.441	-141.544	-0.340	-0.035
-693.426	137.307	0.118	0.155
-692.412	701.016	0.085	-0.226
-691.397	-145.330	-0.268	-0.024
-690.383	137.298	-0.124	-0.164
-689.368	-200.000	0.000	0.073
-688.354	-96.989	-0.163	-0.043
-687.339	-156.582	0.216	0.014
-686.324	392.415	-0.086	-0.179
-685.310	-102.906	0.397	-0.095
-684.295	-200.000	-0.030	-0.287
-683.281	85.152	0.157	0.174
-682.266	-19.535	-0.217	0.135
-681.251	207.978	0.177	-0.278
-680.237	-50.048	0.193	0.092
-679.222	-48.017	-0.359	0.174
-678.208	37.128	-0.167	0.149
-677.193	-200.000	0.022	0.248
-676.178	-200.000	0.037	-0.329
-675.164	-46.502	0.221	-0.109
-674.149	-58.383	0.176	-0.077
-673.135	-55.948	-0.302	-0.136
-672.120	-61.593	-0.076	-0.032
-671.105	2.196	-0.132	0.096
-670.091	-153.527	-0.204	-0.014
-669.076	-3.960	-0.136	0.095
-668.062	-169.550	-0.238	-0.009
-667.047	800.000	-0.032	0.107
-666.032	800.000	-0.028	0.082
-665.018	-27.729	-0.087	-0.051
-664.003	274.396	0.062	-0.110
-662.989	-110.926	0.208	-0.043
-661.974	684.068	-0.066	-0.172
-660.959	174.562	-0.204	0.297
-659.945	-77.431	-0.127	-0.044
-658.930	-101.323	0.019	-0.005
-657.916	-200.000	-0.014	0.160
-656.901	-103.014	0.152	0.036
-655.886	-200.000	0.052	-0.349
-654.872	186.100	-0.065	0.097
-653.857	3.636	-0.169	-0.124
-652.843	232.469	-0.234	0.385
-651.828	-17.192	-0.085	0.054
-650.814	-68.800	0.095	-0.037
-649.799	-92.477	0.139	-0.039
-648.784	-13.169	-0.070	0.046
-647.770	198.499	-0.140	-0.216
-646.755	-200.000	0.020	0.190
-645.741	168.396	-0.157	0.225
-644.726	212.260	-0.118	-0.187
-643.711	81.472	0.047	0.051
-642.697	-0.522	0.261	0.186
-641.682	800.000	-0.054	-0.161
-640.668	38.826	-0.191	0.172
-639.653	726.432	0.045	-0.120
-638.638	800.000	-0.083	-0.295
-637.624	-17.597	0.282	0.178
-636.609	-12.392	0.057	0.037
-635.595	-164.465	0.103	-0.005
-634.580	800.000	0.059	0.231
-633.565	-81.847	0.285	-0.094
-632.551	-200.000	0.043	-0.369
-631.536	477.911	-0.117	-0.265
-630.522	-200.000	0.039	-0.515
-629.507	-109.160	0.138	-0.029
-628.492	453.477	-0.035	-0.079
-627.478	4.317	0.384	-0.282
-626.463	-55.169	0.086	-0.039
-625.449	150.343	0.063	-0.086
-624.434	30.878	0.084	0.072
-623.419	-79.667	0.339	-0.115
-622.405	-40.248	-0.056	-0.029
-621.390	382.286	0.042	0.087
-620.376	-32.112	-0.208	0.117
-619.361	-200.000	-0.028	-0.166
-618.346	-200.000	0.023	-0.190
-617.332	-119.119	0.261	0.046
-616.317	9.563	-0.128	-0.097
-615.303	-33.120	-0.306	-0.170
-614.288	-140.858	-0.276	-0.028
-613.273	208.390	-0.103	-0.162
-612.259	120.211	-0.076	-0.095
-611.244	-38.755	-0.358	-0.190
-610.230	-121.649	-0.223	-0.037
-609.215	328.792	0.045	0.088
-608.201	67.216	0.103	0.106
-607.186	102.821	-0.134	-0.157
-606.171	368.492	-0.158	-0.320
-605.157	-59.515	0.233	-0.101
-604.142	-21.022	-0.088	-0.054
-603.128	-112.356	-0.230	-0.046
-602.113	39.304	-0.155	0.139
-601.098	-138.323	0.067	0.007
-600.084	-98.686	-0.235	-0.060
-599.069	593.977	0.053	-0.131
-598.055	-107.684	-0.135	-0.030
-597.040	20.688	-0.045	-0.037
-596.025	-55.331	0.248	-0.112
-595.011	468.077	-0.088	-0.198
-593.996	560.853	0.066	-0.160
-592.982	312.747	-0.108	-0.203
-591.967	-70.966	-0.421	-0.159
-590.952	-200.000	-0.032	0.143
-589.938	-118.525	-0.222	-0.039
-588.923	-185.058	-0.046	-0.001
-587.909	-25.307	0.108	0.064
-586.894	292.108	0.120	0.219
-585.879	10.399	-0.382	0.291
-584.865	-55.941	0.218	-0.097
-583.850	-35.737	0.306	-0.166
-582.836	-85.542	0.322	0.100
-581.821	-138.779	-0.355	0.039
-580.806	688.773	-0.038	0.100
-579.792	424.587	0.039	-0.083
-578.777	-102.319	-0.414	0.100
-577.763	104.847	0.153	0.181
-576.748	-200.000	-0.021	-0.185
-575.733	800.000	0.034	0.103
-574.719	-153.628	-0.078	0.005
-573.704	46.678	0.271	-0.252
-572.690	-200.000	0.014	0.096
-571.675	-116.930	-0.249	-0.046
-570.661	323.795	0.080	-0.152
-569.646	-200.000	0.047	-0.213
-568.631	-200.000	-0.011	-0.391
-567.617	137.707	-0.173	-0.227
-566.602	66.250	0.221	0.225
-565.588	-39.715	0.388	0.203
-564.573	-154.737	0.245	-0.016
-563.558	800.000	0.074	0.275
-562.544	-40.458	-0.141	-0.074
-561.529	-73.276	0.064	0.024
-560.515	-36.071	-0.209	-0.113
-559.500	101.014	-0.088	-0.103
-558.485	124.469	-0.046	-0.058
-557.471	93.692	-0.081	-0.091
-556.456	725.212	0.078	0.209
-555.442	90.795	-0.159	-0.179
-554.427	51.762	-0.094	0.090
-553.412	-200.000	0.000	-0.026
-552.398	-146.987	0.059	0.005
-551.383	-42.452	0.449	0.229
-550.369	144.334	0.067	0.090
-549.354	239.133	-0.149	-0.248
-548.339	-47.436	0.200	-0.097
-547.325	-16.592	0.159	-0.101
-546.310	-105.871	0.215	-0.048
-545.296	-14.741	-0.070	-0.045
-544.281	146.065	-0.149	-0.200
-543.266	312.718	0.017	0.033
-542.252	-200.000	-0.001	-0.129
-541.237	-150.145	-0.019	-0.001
-540.223	26.598	-0.175	-0.146
-539.208	786.116	-0.166	-0.456
-538.193	98.106	-0.108	-0.124
-537.179	-107.335	-0.238	0.052
-536.164	346.172	-0.080	-0.158
-535.150	-88.337	0.198	-0.059
-534.135	-200.000	-0.032	-0.145
-533.121	310.068	-0.114	-0.214
-532.106	-134.842	0.117	-0.014
-531.091	-16.742	-0.277	-0.175
-530.077	207.046	-0.098	0.153
-529.062	14.349	-0.215	-0.168
-528.048	303.742	0.105	-0.195
-527.033	261.758	-0.117	0.203
-526.018	662.494	0.083	0.213
-525.004	34.868	-0.153	0.134
-523.989	800.000	-0.048	-0.150
-522.975	800.000	0.079	0.278
-521.960	293.299	0.144	-0.263
-520.945	18.823	0.246	-0.197
-519.931	-116.268	0.153	0.028
-518.916	-92.925	-0.299	0.083
-517.902	800.000	0.073	-0.202
-516.887	64.197	0.287	-0.289
-515.872	-42.452	0.245	-0.125
-514.858	-45.861	-0.305	0.151
-513.843	-124.335	-0.275	-0.043
-512.829	-33.165	-0.129	-0.072
-511.814	-80.696	0.210	-0.070
-510.799	371.741	-0.063	-0.127
-509.785	58.733	0.159	0.156
-508.770	31.653	0.146	-0.125
-507.756	-78.499	-0.277	-0.095
-506.741	-200.000	0.019	-0.086
-505.726	557.856	0.172	0.413
-504.712	-109.502	-0.372	-0.079
-503.697	-200.000	-0.052	-0.316
-502.683	573.608	-0.124	0.302
-501.668	-28.370	-0.165	-0.095
-500.653	-116.989	0.481	-0.088
-499.639	-99.706	-0.182	-0.046
-498.624	-188.325	0.189	0.002
-497.610	349.131	-0.104	-0.204
-496.595	-200.000	0.028	0.155
-495.581	-65.105	-0.438	-0.177
-494.566	-72.782	0.275	-0.101
-493.551	-200.000	0.011	-0.056
-492.537	800.000	0.085	0.244
-491.522	-200.000	0.024	-0.157
-490.508	-20.661	-0.349	0.214
-489.493	-95.059	0.432	0.117
-488.478	321.367	0.124	-0.235
-487.464	-86.346	0.157	-0.048
-486.449	-39.135	-0.062	-0.033
-485.435	-200.000	-0.018	-0.294
-484.420	-200.000	0.259	-0.000
-483.405	-171.857	-0.278	0.009
-482.391	246.058	-0.107	-0.180
-481.376	356.196	0.069	-0.136
-480.362	6.921	-0.102	0.076
-479.347	222.626	-0.137	-0.220
-478.332	461.230	-0.162	-0.361
-477.318	160.536	0.043	-0.060
-476.303	345.792	-0.161	0.316
-475.289	-7.778	-0.207	0.140
-474.274	-154.241	-0.374	0.025
-473.259	21.775	-0.237	-0.193
-472.245	-200.000	-0.002	0.445
-471.230	287.991	0.076	0.138
-470.216	-58.051	0.098	0.043
-469.201	-16.544	-0.374	0.237
-468.186	800.000	0.031	0.135
-467.172	103.386	0.200	0.234
-466.157	308.499	-0.026	-0.048
-465.143	614.115	-0.051	-0.127
-464.128	-200.000	-0.033	0.332
-463.113	-65.414	-0.281	-0.113
-462.099	-43.953	-0.060	0.030
-461.084	-200.000	-0.046	0.233
-460.070	-111.667	0.085	-0.017
-459.055	3.983	-0.152	0.111
-458.040	14.097	0.120	-0.093
-457.026	-164.561	0.197	0.009
-456.011	-5.418	-0.070	0.048
-454.997	-200.000	-0.025	-0.166
-453.982	-39.714	0.082	-0.043
-452.968	-200.000	0.220	-0.001
-451.953	747.713	-0.024	0.065
-450.938	-164.358	-0.214	-0.010
-449.924	47.733	0.194	0.181
-448.909	-200.000	-0.018	-0.336
-447.895	539.949	-0.074	0.175
-446.880	-200.000	0.000	-0.296
-445.865	-200.000	-0.040	0.323
-444.851	-139.758	0.144	-0.015
-443.836	0.836	-0.328	-0.234
-442.822	-200.000	-0.013	0.294
-441.807	32.682	-0.133	-0.115
-440.792	8.086	-0.099	0.074
-439.778	-101.293	-0.126	0.031
-438.763	-200.000	0.020	-0.118
-437.749	7.757	-0.102	-0.076
-436.734	104.012	0.198	0.232
-435.719	140.511	-0.167	-0.219
-434.705	253.312	0.069	0.117
-433.690	49.786	-0.270	0.254
-432.676	-27.361	-0.274	-0.159
-431.661	-85.716	-0.145	0.045
-430.646	80.802	-0.149	0.160
-429.632	-147.286	0.265	0.022
-428.617	-200.000	0.060	0.280
-427.603	186.526	0.106	-0.157
-426.588	800.000	-0.050	-0.207
-425.573	-200.000	-0.065	-0.448
-424.559	579.689	-0.168	-0.409
-423.544	19.220	0.104	0.083
-422.530	29.544	-0.044	0.037
-421.515	-46.031	0.417	-0.205
-420.500	206.670	-0.120	0.187
-419.486	-105.170	-0.261	0.059
-418.471	105.656	-0.051	-0.060
-417.457	-58.782	0.413	0.178
-416.442	-75.574	-0.314	-0.111
-415.428	521.700	0.110	0.256
-414.413	-103.955	-0.174	-0.040
-413.398	-18.907	0.034	-0.021
-412.384	-19.676	-0.175	0.108
-411.369	422.837	-0.046	-0.099
-410.355	-200.000	0.039	-0.262
-409.340	230.990	0.115	0.187
-408.325	-175.998	-0.426	-0.011
-407.311	60.829	0.105	-0.103
-406.296	237.090	0.047	0.078
-405.282	204.283	-0.212	-0.327
-404.267	800.000	-0.035	0.120
-403.252	283.432	0.106	0.190
-402.238	-38.780	0.302	-0.158
-401.223	-17.221	0.173	0.109
-400.209	-154.879	-0.208	0.014
-399.194	116.509	0.162	-0.198
-398.179	800.000	0.013	0.039
-397.165	-30.114	0.315	0.178
-396.150	-200.000	-0.026	0.133
-395.136	-89.217	0.194	-0.057
-394.121	-160.856	-0.214	-0.011
-393.106	-44.839	-0.369	-0.183
-392.092	7.445	0.084	-0.063
-391.077	-200.000	0.028	0.160
-390.063	13.150	0.293	-0.226
-389.048	-90.767	0.335	-0.096
-388.033	-71.158	-0.348	0.130
-387.019	198.947	0.079	0.121
-386.004	-64.852	-0.156	-0.063
-384.990	335.765	0.088	-0.170
-383.975	328.506	-0.091	0.175
-382.960	-117.370	-0.101	0.018
-381.946	800.000	-0.050	-0.147
-380.931	114.789	-0.127	-0.154
-379.917	-107.919	-0.203	-0.044
-378.902	-175.470	0.154	0.004
-377.888	232.010	0.134	0.218
-376.873	-158.762	0.063	0.004
-375.858	700.614	0.026	-0.067
-374.844	-74.927	-0.154	-0.055
-373.829	-138.287	-0.314	-0.035
-372.815	-1.344	0.258	-0.181
-371.800	-37.207	0.388	0.206
-370.785	20.175	-0.090	0.072
-369.771	-200.000	0.026	0.167
-368.756	-102.426	0.119	-0.028
-367.742	254.404	0.297	-0.505
-366.727	89.960	0.199	-0.221
-365.712	-77.106	0.078	0.027
-364.698	3.071	0.067	0.048
-363.683	800.000	0.060	-0.168
-362.669	800.000	0.031	0.090
-361.654	5.224	-0.325	-0.238
-360.639	-33.838	-0.109	-0.060
-359.625	123.898	-0.135	-0.169
-358.610	326.445	0.060	-0.114
-357.596	-200.000	-0.027	0.172
-356.581	-115.704	-0.321	-0.060
-355.566	134.093	0.303	0.389
-354.552	720.604	-0.156	-0.413
-353.537	-124.613	-0.101	0.016
-352.523	-137.239	0.189	0.021
-351.508	-75.877	0.357	-0.125
-350.493	-105.741	-0.215	-0.048
-349.479	-181.465	0.253	0.005
-348.464	362.851	-0.223	0.445
-347.450	-107.897	-0.080	0.017
-346.435	155.972	0.086	0.118
-345.420	-6.187	-0.207	-0.140
-344.406	563.243	-0.118	-0.283
-343.391	682.641	0.131	0.340
-342.377	800.000	0.073	-0.223
-341.362	800.000	0.085	0.352
-340.348	-200.000	0.040	0.214
-339.333	112.388	-0.190	-0.228
-338.318	-85.149	0.274	-0.085
-337.304	38.624	-0.073	-0.065
-336.289	-25.942	0.130	0.076
-335.275	35.678	0.211	-0.184
-334.260	247.510	0.145	-0.242
-333.245	499.083	0.145	0.331
-332.231	-134.321	0.266	0.032
-331.216	-200.000	0.043	-0.307
-330.202	-67.634	-0.119	-0.046
-329.187	-200.000	0.035	-0.291
-328.172	768.832	0.080	0.215
-327.158	800.000	-0.132	0.427
-326.143	39.666	0.222	-0.198
-325.129	-19.767	0.192	-0.118
-324.114	-166.129	0.240	0.010
-323.099	-47.871	-0.166	0.080
-322.085	-30.039	-0.075	-0.042
-321.070	800.000	0.011	-0.031
-320.056	-9.947	-0.075	0.050
-319.041	-110.772	0.370	-0.076
-318.026	645.646	0.134	-0.338
-317.012	800.000	-0.023	0.087
-315.997	-130.099	0.288	-0.039
-314.983	-200.000	0.015	0.069
-313.968	-124.140	-0.309	-0.048
-312.953	-13.286	-0.145	-0.093
-311.939	-200.000	-0.012	0.071
-310.924	158.143	0.179	0.246
-309.910	-89.386	0.101	-0.029
-308.895	680.136	-0.188	0.486
-307.880	-58.363	0.472	0.204
-306.866	-25.514	-0.142	-0.083
-305.851	-154.498	0.089	-0.006
-304.837	208.909	-0.232	-0.360
-303.822	147.827	0.339	0.452
-302.807	-200.000	0.037	0.198
-301.793	585.832	0.142	-0.345
-300.778	-177.842	0.113	0.003
-299.764	-105.913	-0.174	0.039
-298.749	162.028	0.286	0.398
-297.735	405.849	-0.207	0.433
-296.720	-36.180	-0.127	0.068
-295.705	-89.460	0.213	0.062
-294.691	-23.586	0.115	0.068
-293.676	-152.614	-0.109	0.008
-292.662	800.000	-0.080	0.277
-291.647	-104.987	0.301	-0.068
-290.632	-67.471	-0.203	0.079
-289.618	183.788	-0.184	-0.270
-288.603	-8.923	0.099	0.065
-287.589	800.000	-0.100	0.346
-286.574	-200.000	0.374	0.002
-285.559	54.710	-0.123	0.117
-284.545	800.000	0.091	0.271
-283.530	-3.408	0.040	-0.028
-282.516	-29.658	0.231	0.130
-281.501	-40.206	0.345	-0.178
-280.486	-200.000	0.020	-0.096
-279.472	-200.000	0.002	-0.284
-278.457	-200.000	-0.017	-0.164
-277.443	-200.000	-0.026	0.193
-276.428	-103.464	0.061	0.014
-275.413	-167.303	0.297	0.012
-274.399	-177.332	0.292	0.007
-273.384	309.913	0.100	0.184
-272.370	497.131	0.122	0.277
-271.355	-98.261	0.059	-0.015
-270.340	359.819	-0.096	0.190
-269.326	-54.001	0.272	0.123
-268.311	110.667	-0.237	0.282
-267.297	800.000	-0.058	0.245
-266.282	-120.257	-0.446	-0.075
-265.267	-200.000	-0.036	0.169
-264.253	-200.000	0.017	0.281
-263.238	443.688	-0.159	0.344
-262.224	184.167	0.038	0.055
-261.209	-14.008	0.245	0.156
-260.195	169.216	0.156	0.221
-259.180	-200.000	0.046	0.261
-258.165	-24.682	-0.180	-0.106
-257.151	-78.842	-0.275	-0.093
-256.136	800.000	0.056	-0.163
-255.122	800.000	0.106	0.388
-254.107	418.385	-0.052	0.110
-253.092	53.028	-0.033	0.031
-252.078	-4.913	0.179	0.122
-251.063	-26.914	0.121	-0.070
-250.049	-44.742	0.070	-0.035
-249.034	-141.223	-0.280	0.028
-248.019	-106.290	0.181	0.040
-247.005	150.236	0.120	0.160
-245.990	-96.583	0.188	0.049
-244.976	71.463	0.110	-0.113
-243.961	-200.000	-0.053	0.372
-242.946	-103.995	-0.214	-0.049
-241.932	14.442	0.218	0.168
-240.917	-125.186	-0.262	-0.040
-239.903	-24.642	-0.175	0.103
-238.888	-114.770	0.102	-0.019
-237.873	-34.146	-0.096	0.052
-236.859	800.000	-0.053	0.182
-235.844	-200.000	0.026	-0.227
-234.830	30.233	0.063	0.053
-233.815	32.097	0.099	-0.085
-232.800	-200.000	0.019	0.202
-231.786	-110.416	0.192	0.039
-230.771	800.000	0.058	-0.220
-229.757	-69.515	-0.194	-0.074
-228.742	-42.490	-0.043	0.022
-227.727	135.306	-0.174	0.224
-226.713	-89.443	-0.152	0.044
-225.698	296.064	-0.253	0.458
-224.684	-92.150	-0.208	-0.058
-223.669	800.000	-0.129	0.363
-222.655	261.739	-0.173	0.296
-221.640	155.526	-0.171	-0.233
-220.625	-184.102	0.208	0.003
-219.611	40.054	-0.262	0.233
-218.596	-4.003	0.082	-0.056
-217.582	625.423	0.066	0.164
-216.567	-93.932	0.106	-0.029
-215.552	-141.135	-0.166	-0.017
-214.538	800.000	0.055	0.177
-213.523	-200.000	0.024	-0.220
-212.509	-200.000	-0.011	0.080
-211.494	-5.195	0.315	0.214
-210.479	-200.000	0.006	0.178
-209.465	70.594	0.161	0.164
-208.450	50.949	0.253	0.237
-207.436	-8.734	0.342	-0.226
-206.421	-74.274	0.117	-0.042
-205.406	-200.000	0.040	-0.188
-204.392	-116.491	-0.289	0.053
-203.377	800.000	0.021	0.085
-202.363	179.209	0.154	0.222
-201.348	800.000	-0.101	0.334
-200.333	-119.394	-0.184	-0.032
-199.319	-25.757	-0.159	0.093
-198.304	58.946	-0.106	0.103
-197.290	-125.785	0.237	0.035
-196.275	798.116	-0.085	0.232
-195.260	-150.734	-0.120	-0.009
-194.246	-42.263	-0.105	-0.053
-193.231	275.557	0.046	0.080
-192.217	721.243	0.173	-0.455
-191.202	-200.000	0.010	-0.202
-190.187	69.460	0.037	0.038
-189.173	-100.594	0.400	0.097
-188.158	800.000	-0.034	0.116
-187.144	-185.022	-0.126	0.002
-186.129	549.238	0.042	0.099
-185.114	779.542	-0.050	0.134
-184.100	50.559	0.089	-0.083
-183.085	-200.000	0.017	-0.093
-182.071	-200.000	-0.007	-0.067
-181.056	29.437	0.115	0.097
-180.042	-200.000	0.001	-0.075
-179.027	-50.724	0.232	0.108
-178.012	-28.551	-0.372	-0.211
-176.998	-103.438	-0.287	0.067
-175.983	535.499	0.055	-0.129
-174.969	-200.000	-0.038	0.224
-173.954	117.618	-0.167	0.203
-172.939	242.371	-0.003	-0.005
-171.925	441.064	0.055	-0.120
-170.910	-74.758	-0.095	-0.034
-169.896	-200.000	0.050	0.336
-168.881	86.044	0.055	0.059
-167.866	-87.827	-0.141	0.042
-166.852	-170.142	0.131	-0.005
-165.837	51.882	0.005	-0.005
-164.823	800.000	0.068	-0.249
-163.808	431.975	-0.128	0.273
-162.793	800.000	-0.062	0.210
-161.779	328.640	-0.060	-0.113
-160.764	45.519	-0.143	-0.130
-159.750	800.000	0.085	-0.340
-158.735	-200.000	-0.006	-0.264
-157.720	-126.421	-0.122	0.018
-156.706	-200.000	0.001	-0.075
-155.691	760.212	0.051	-0.136
-154.677	-200.000	0.013	-0.159
-153.662	-200.000	0.018	0.121
-152.647	-200.000	-0.021	0.382
-151.633	136.294	0.040	-0.052
-150.618	-200.000	-0.013	0.205
-149.604	-20.196	-0.141	-0.086
-148.589	-146.473	0.127	-0.011
-147.574	800.000	0.055	-0.161
-146.560	81.724	0.173	0.185
-145.545	334.691	0.173	0.330
-144.531	-200.000	-0.005	-0.106
-143.516	-122.351	-0.155	-0.025
-142.502	241.613	-0.113	0.187
-141.487	-31.801	-0.202	0.111
-140.472	-116.505	-0.136	-0.025
-139.458	800.000	-0.136	-0.495
-138.443	-16.934	0.405	0.252
-137.429	660.476	0.071	0.180
-136.414	-143.150	0.169	0.016
-135.399	204.433	-0.129	0.197
-134.385	-110.731	0.253	0.051
-133.370	800.000	0.020	0.072
-132.356	91.618	0.036	-0.040
-131.341	800.000	0.111	-0.412
-130.326	320.908	-0.109	-0.204
-129.312	51.547	0.206	-0.193
-128.297	800.000	-0.062	0.241
-127.283	678.301	0.067	-0.171
-126.268	125.668	0.168	0.209
-125.253	18.435	-0.049	0.039
-124.239	-134.702	-0.092	0.011
-123.224	-0.764	0.184	0.128
-122.210	-92.113	-0.177	0.049
-121.195	-122.153	0.277	-0.045
-120.180	-85.500	0.094	0.029
-119.166	800.000	0.007	-0.028
-118.151	519.889	0.030	0.069
-117.137	65.084	-0.209	-0.207
-116.122	-137.876	-0.073	-0.008
-115.107	73.114	-0.239	0.246
-114.093	112.011	0.063	-0.075
-113.078	91.201	0.183	-0.202
-112.064	78.624	-0.120	0.126
-111.049	-61.610	-0.022	0.009
-110.034	-110.504	0.188	0.038
-109.020	-116.142	0.111	-0.020
-108.005	-76.211	-0.455	0.158
-106.991	64.868	0.148	0.147
-105.976	-18.006	0.376	0.232
-104.962	278.213	0.092	0.162
-103.947	-22.924	0.119	0.071
-102.932	135.879	0.146	-0.187
-101.918	8.161	0.359	-0.265
-100.903	41.653	-0.197	-0.176
-99.889	-128.958	0.294	0.041
-98.874	60.377	0.078	-0.076
-97.859	7.768	-0.175	0.129
-96.845	-125.229	0.179	0.027
-95.830	80.365	0.203	-0.215
-94.816	-76.574	-0.221	-0.076
-93.801	509.400	-0.221	-0.504
-92.786	-103.990	0.241	0.055
-91.772	165.807	-0.171	0.238
-90.757	-200.000	0.002	-0.026
-89.743	-200.000	-0.013	-0.202
-88.728	800.000	-0.102	0.319
-87.713	761.082	-0.055	0.146
-86.699	-200.000	-0.012	0.070
-85.684	62.513	0.254	-0.249
-84.670	-155.308	0.209	0.013
-83.655	143.742	0.168	-0.220
-82.640	617.926	-0.120	-0.296
-81.626	120.799	0.150	0.183
-80.611	189.035	-0.052	-0.076
-79.597	254.078	-0.216	-0.363
-78.582	-25.837	0.519	0.301
-77.567	138.320	-0.032	-0.041
-76.553	800.000	-0.047	0.143
-75.538	-200.000	0.016	0.228
-74.524	83.613	-0.046	0.049
-73.509	548.509	-0.143	0.335
-72.494	127.833	0.210	0.262
-71.480	263.998	0.167	0.285
-70.465	44.993	0.097	-0.087
-69.451	-86.966	0.305	-0.091
-68.436	175.950	0.220	0.314
-67.422	500.680	0.123	-0.278
-66.407	150.379	-0.212	0.282
-65.392	29.997	-0.156	0.131
-64.378	-94.807	0.234	0.062
-63.363	121.454	-0.086	-0.105
-62.349	-200.000	-0.200	0.000
-61.334	81.060	-0.891	-0.944
-60.319	364.410	0.152	0.301
-59.305	-200.000	-0.245	-1.312
-58.290	356.284	0.512	1.001
-57.276	123.597	1.008	1.242
-56.261	-200.000	96.085	594.711
-55.246	571.920	1367.286	3269.392
-54.232	162.330	2547.623	3506.487
-53.217	106.973	2261.786	2636.958
-52.203	41.651	1890.571	1681.076
-51.188	35.617	1680.874	1449.217
-50.173	32.936	1636.905	1391.531
-49.159	50.197	1683.481	1560.429
-48.144	51.813	1699.234	1587.031
-47.130	35.218	1660.990	1428.876
-46.115	32.396	1646.399	1395.375
-45.100	32.227	1641.524	1389.938
-44.086	32.201	1638.815	1387.394
-43.071	32.187	1636.377	1385.173
-42.057	32.112	1634.388	1382.882
-41.042	32.192	1632.046	1381.435
-40.027	32.280	1630.220	1380.480
-39.013	32.223	1628.282	1378.369
-37.998	32.129	1626.594	1376.194
-36.984	32.149	1625.598	1375.443
-35.969	32.324	1623.815	1375.161
-34.954	32.347	1622.032	1373.760
-33.940	32.306	1620.196	1371.857
-32.925	32.206	1618.771	1369.865
-31.911	32.278	1617.078	1368.900
-30.896	32.323	1614.726	1367.184
-29.881	32.373	1613.387	1366.362
-28.867	32.347	1611.977	1364.920
-27.852	32.376	1610.615	1363.926
-26.838	32.299	1608.752	1361.734
-25.823	32.334	1607.607	1360.965
-24.809	32.251	1606.578	1359.438
-23.794	32.335	1605.013	1358.671
-22.779	32.333	1603.180	1357.050
-21.765	32.270	1601.808	1355.381
-20.750	32.401	1599.652	1354.441
-19.736	32.348	1598.670	1353.179
-18.721	32.351	1597.443	1352.107
-17.706	32.269	1596.290	1350.488
-16.692	32.319	1594.532	1349.304
-15.677	32.302	1592.913	1347.757
-14.663	32.424	1591.277	1347.193
-13.648	32.442	1589.653	1345.894
-12.633	32.358	1588.350	1344.137
-11.619	32.341	1587.551	1343.291
-10.604	32.397	1585.602	1341.984
-9.590	32.351	1584.635	1340.784
-8.575	32.316	1583.400	1339.437
-7.560	32.329	1582.025	1338.313
-6.546	32.395	1580.552	1337.487
-5.531	32.316	1580.068	1336.464
-4.517	32.282	1578.796	1335.090
-3.502	32.382	1577.246	1334.433
-2.487	32.442	1575.403	1333.251
-1.473	32.154	1563.529	1321.119
-0.458	29.487	1545.510	1287.278
0.556	26.555	1545.842	1257.535
1.571	24.212	1569.932	1260.470
2.586	23.733	1583.329	1267.695
3.600	21.453	1530.198	1209.299
4.615	12.367	1419.992	1063.547
5.629	3.742	1354.403	960.879
6.644	2.136	1346.413	945.189
7.659	2.168	1344.715	944.113
8.673	2.077	1343.519	942.626
9.688	2.010	1341.694	940.849
10.702	1.650	1339.280	936.856
11.717	5.320	1345.566	963.836
12.731	15.559	1364.559	1041.118
13.746	23.919	1379.528	1104.599
14.761	26.257	1382.011	1121.016
15.775	26.501	1382.487	1122.818
16.790	26.640	1382.006	1123.189
17.804	26.731	1381.009	1122.845
18.819	26.942	1380.808	1123.892
19.834	26.969	1380.655	1123.831
20.848	27.054	1379.743	1123.515
21.863	27.051	1378.914	1122.725
22.877	27.089	1377.915	1122.045
23.892	27.063	1377.016	1121.055
24.907	27.084	1376.333	1120.526
25.921	27.092	1374.860	1119.280
26.936	27.073	1374.178	1118.510
27.950	27.099	1373.256	1117.820
28.965	27.141	1371.515	1116.561
29.980	27.108	1370.648	1115.552
30.994	26.985	1369.634	1113.877
32.009	27.021	1368.382	1112.980
33.023	27.032	1367.388	1112.138
34.038	27.025	1366.291	1111.105
35.053	27.066	1365.338	1110.484
36.067	27.010	1364.450	1109.321
37.082	27.168	1362.957	1108.971
38.096	27.176	1362.473	1108.528
39.111	27.031	1361.814	1107.012
40.126	27.157	1360.752	1106.819
41.140	27.020	1360.983	1106.070
42.155	27.089	1360.158	1105.725
43.169	27.006	1360.494	1105.391
44.184	27.066	1360.004	1105.263
45.199	27.089	1359.386	1104.800
46.213	27.092	1358.827	1104.270
47.228	27.061	1357.786	1103.139
48.242	27.016	1356.919	1102.064
49.257	27.027	1355.562	1100.927
50.271	26.979	1354.157	1099.403
51.286	27.091	1352.473	1098.614
52.301	27.110	1351.257	1097.646
53.315	27.041	1350.353	1096.396
54.330	27.165	1349.487	1096.344
55.344	27.100	1348.788	1095.287
56.359	27.077	1347.516	1094.016
57.374	27.113	1346.236	1093.096
58.388	27.051	1346.156	1092.563
59.403	27.025	1346.070	1092.241
60.417	27.104	1344.948	1091.710
61.432	27.110	1344.165	1091.014
62.447	27.022	1343.608	1089.935
63.461	27.051	1342.315	1088.966
64.476	27.139	1341.816	1088.993
65.490	27.115	1340.194	1087.433
66.505	27.123	1338.778	1086.238
67.520	27.140	1337.383	1085.113
68.534	26.972	1336.808	1083.546
69.549	27.105	1335.829	1083.450
70.563	27.085	1335.097	1082.640
71.578	27.123	1333.870	1081.775
72.593	27.029	1333.283	1080.643
73.607	27.010	1333.020	1080.222
74.622	27.149	1331.705	1079.884
75.636	26.986	1331.136	1078.362
76.651	27.101	1330.057	1078.076
77.666	27.049	1330.285	1077.855
78.680	27.047	1329.715	1077.286
79.695	27.085	1328.498	1076.428
80.709	27.013	1328.139	1075.616
81.724	27.113	1327.013	1075.206
82.739	27.073	1325.831	1073.916
83.753	27.087	1324.976	1073.207
84.768	27.153	1324.084	1072.782
85.782	27.177	1322.720	1071.724
86.797	27.134	1321.829	1070.650
87.812	27.138	1320.378	1069.404
88.826	27.123	1319.709	1068.684
89.841	27.239	1318.273	1068.108
90.855	27.182	1317.724	1067.230
91.870	27.144	1317.215	1066.501
92.884	27.144	1316.425	1065.767
93.899	27.266	1314.658	1064.958
94.914	27.168	1314.737	1064.351
95.928	27.055	1314.017	1063.017
96.943	27.128	1313.187	1062.675
97.957	27.175	1312.526	1062.319
98.972	27.230	1311.362	1061.608
99.987	27.155	1310.705	1060.543
101.001	27.111	1309.968	1059.595
102.016	27.143	1308.735	1058.690
103.030	27.165	1307.931	1058.076
104.045	27.152	1306.857	1057.040
105.060	27.184	1305.769	1056.249
106.074	27.161	1305.198	1055.563
107.089	27.201	1304.156	1054.857
108.103	27.069	1303.471	1053.444
109.118	27.273	1302.274	1053.565
110.133	27.229	1301.213	1052.359
111.147	27.264	1299.728	1051.266
112.162	27.231	1298.889	1050.303
113.176	27.252	1297.485	1049.200
114.191	27.247	1297.052	1048.725
115.206	27.236	1296.278	1047.947
116.220	27.246	1294.986	1046.862
117.235	27.182	1294.332	1045.878
118.249	27.283	1293.083	1045.352
119.264	27.232	1292.570	1044.557
120.279	27.187	1291.487	1043.327
121.293	27.278	1290.596	1043.037
122.308	27.270	1290.250	1042.620
123.322	27.264	1289.395	1041.804
124.337	27.261	1288.505	1040.973
125.352	27.355	1287.594	1040.682
126.366	27.238	1286.835	1039.311
127.381	27.292	1285.877	1038.750
128.395	27.330	1284.814	1038.019
129.410	27.312	1283.785	1036.990
130.424	27.304	1283.809	1036.875
131.439	27.266	1282.830	1035.777
132.454	27.226	1281.902	1034.706
133.468	27.191	1281.300	1033.928
134.483	27.389	1280.510	1034.329
135.497	27.289	1279.774	1033.075
136.512	27.205	1278.761	1031.686
137.527	27.174	1277.993	1030.801
138.541	27.228	1276.789	1030.042
139.556	27.281	1275.203	1028.971
140.570	27.204	1274.522	1027.900
141.585	27.179	1273.770	1027.057
142.600	27.284	1272.447	1026.493
143.614	27.227	1271.368	1025.211
144.629	27.241	1270.499	1024.495
145.643	27.110	1270.029	1023.293
146.658	27.089	1268.818	1022.105
147.673	27.223	1267.728	1021.892
148.687	27.240	1266.872	1021.207
149.702	27.161	1265.634	1019.675
150.716	27.180	1264.576	1018.838
151.731	27.270	1263.534	1018.414
152.746	27.233	1262.539	1017.315
153.760	27.353	1261.381	1016.963
154.775	27.244	1260.883	1015.859
155.789	27.197	1259.899	1014.718
156.804	27.297	1258.451	1014.017
157.819	27.338	1257.696	1013.549
158.833	27.250	1257.434	1012.757
159.848	27.326	1256.626	1012.441
160.862	27.372	1256.183	1012.249
161.877	27.379	1255.209	1011.414
162.892	27.340	1254.481	1010.520
163.906	27.462	1253.244	1010.110
164.921	27.404	1252.621	1009.201
165.935	27.372	1251.909	1008.356
166.950	27.403	1251.305	1007.953
167.964	27.325	1251.104	1007.270
168.979	27.312	1250.553	1006.667
169.994	27.435	1249.854	1006.693
171.008	27.378	1249.265	1005.817
172.023	27.454	1247.983	1005.118
173.037	27.471	1247.317	1004.582
174.052	27.490	1247.057	1004.390
175.067	27.497	1246.086	1003.560
176.081	27.369	1245.430	1002.235
177.096	27.371	1244.552	1001.451
178.110	27.393	1243.350	1000.514
179.125	27.323	1242.766	999.572
180.140	27.475	1241.341	999.172
181.154	27.381	1240.698	998.053
182.169	27.315	1239.472	996.614
183.183	27.487	1238.107	996.368
184.198	27.578	1237.328	996.151
185.213	27.458	1236.453	994.704
186.227	27.546	1235.227	994.111
187.242	27.488	1234.858	993.407
188.256	27.517	1233.956	992.752
189.271	27.452	1233.313	991.796
190.286	27.416	1232.858	991.145
191.300	27.452	1232.120	990.663
192.315	27.354	1231.937	989.890
193.329	27.466	1231.365	989.952
194.344	27.473	1231.058	989.657
195.359	27.498	1230.048	988.892
196.373	27.435	1229.600	988.105
197.388	27.453	1229.314	987.886
198.402	27.444	1228.745	987.289
199.417	27.462	1227.990	986.696
200.432	27.529	1227.813	986.826
201.446	27.559	1227.345	986.527
202.461	27.455	1226.671	985.336
203.475	27.523	1225.583	984.740
204.490	27.615	1224.394	984.193
205.504	27.488	1223.609	982.791
206.519	27.550	1222.897	982.467
207.534	27.610	1221.881	981.890
208.548	27.578	1220.838	980.793
209.563	27.597	1220.227	980.316
210.577	27.571	1219.492	979.497
211.592	27.592	1218.882	979.035
212.607	27.698	1217.934	978.754
213.621	27.633	1217.427	977.914
214.636	27.648	1216.374	977.062
215.650	27.711	1215.496	976.607
216.665	27.596	1214.711	975.271
217.680	27.607	1213.864	974.568
218.694	27.672	1212.952	974.096
219.709	27.678	1212.291	973.508
220.723	27.762	1211.776	973.458
221.738	27.692	1211.166	972.510
222.753	27.629	1210.124	971.252
223.767	27.629	1209.707	970.830
224.782	27.629	1209.163	970.309
225.796	27.785	1208.647	970.638
226.811	27.732	1208.163	969.882
227.826	27.684	1207.898	969.325
228.840	27.768	1207.029	968.992
229.855	27.814	1206.387	968.632
230.869	27.851	1205.511	968.042
231.884	27.644	1205.143	966.563
232.899	27.670	1204.228	965.879
233.913	27.702	1203.842	965.655
234.928	27.810	1203.339	965.737
235.942	27.791	1202.795	965.115
236.957	27.763	1201.762	964.051
237.972	27.652	1201.654	963.295
238.986	27.786	1200.219	962.767
240.001	27.808	1199.754	962.424
241.015	27.863	1199.178	962.166
242.030	27.898	1198.193	961.475
243.045	27.882	1197.762	960.961
244.059	27.951	1196.456	960.187
245.074	27.824	1196.327	959.335
246.088	27.993	1195.077	959.134
247.103	27.989	1194.478	958.546
248.117	27.901	1193.885	957.524
249.132	27.986	1192.903	957.099
250.147	28.088	1192.457	957.189
251.161	27.999	1191.493	955.864
252.176	27.997	1191.115	955.466
253.190	28.110	1190.521	955.496
254.205	27.968	1189.878	954.154
255.220	28.045	1189.298	954.007
256.234	27.959	1189.169	953.368
257.249	28.044	1188.032	952.814
258.263	28.003	1187.514	952.106
259.278	28.088	1187.217	952.226
260.293	28.075	1186.603	951.577
261.307	28.160	1185.952	951.415
262.322	27.979	1185.361	949.917
263.336	28.084	1184.692	949.840
264.351	28.045	1184.393	949.314
265.366	28.104	1183.559	948.868
266.380	28.073	1182.679	947.917
267.395	28.034	1182.094	947.166
268.409	27.945	1181.853	946.426
269.424	28.096	1180.945	946.398
270.439	28.067	1180.902	946.128
271.453	28.112	1180.026	945.574
272.468	28.033	1178.876	944.161
273.482	27.930	1178.462	943.217
274.497	28.097	1177.960	943.592
275.512	28.152	1177.490	943.415
276.526	28.161	1176.515	942.595
277.541	28.036	1176.141	941.569
278.555	28.105	1175.559	941.375
279.570	28.198	1174.456	940.890
280.585	28.148	1173.489	939.770
281.599	28.185	1172.661	939.217
282.614	28.092	1172.247	938.323
283.628	28.142	1171.327	937.764
284.643	28.139	1170.606	937.084
285.657	28.122	1169.844	936.307
286.672	28.211	1168.633	935.710
287.687	28.116	1168.258	934.842
288.701	28.314	1167.235	934.951
289.716	28.274	1166.651	934.195
290.730	28.227	1166.246	933.549
291.745	28.231	1165.862	933.177
292.760	28.271	1165.198	932.769
293.774	28.248	1164.222	931.787
294.789	28.321	1163.711	931.667
295.803	28.259	1163.561	931.152
296.818	28.382	1162.657	930.970
297.833	28.402	1162.040	930.494
298.847	28.277	1161.305	929.191
299.862	28.348	1160.491	928.815
300.876	28.373	1159.785	928.296
301.891	28.376	1159.382	927.906
302.906	28.331	1158.594	926.967
303.920	28.519	1157.924	927.296
304.935	28.474	1157.356	926.532
305.949	28.453	1156.826	925.920
306.964	28.602	1155.965	925.903
307.979	28.504	1155.414	924.883
308.993	28.519	1154.619	924.243
310.008	28.594	1153.855	923.924
311.022	28.500	1153.330	922.951
312.037	28.503	1152.886	922.529
313.052	28.517	1151.933	921.753
314.066	28.460	1151.512	921.053
315.081	28.495	1150.465	920.305
316.095	28.571	1149.855	920.116
317.110	28.580	1148.954	919.361
318.125	28.541	1148.456	918.688
319.139	28.494	1148.148	918.123
320.154	28.558	1147.042	917.476
321.168	28.547	1147.069	917.362
322.183	28.604	1146.128	916.813
323.197	28.468	1145.697	915.711
324.212	28.633	1144.803	915.737
325.227	28.612	1144.737	915.498
326.241	28.609	1144.013	914.826
327.256	28.598	1143.245	914.072
328.270	28.533	1142.521	913.090
329.285	28.686	1141.331	912.819
330.300	28.655	1140.517	911.933
331.314	28.653	1139.946	911.386
332.329	28.631	1139.147	910.560
333.343	28.668	1138.220	909.919
334.358	28.779	1137.523	909.830
335.373	28.832	1136.894	909.512
336.387	28.723	1136.852	908.854
337.402	28.758	1136.024	908.286
338.416	28.759	1135.215	907.563
339.431	28.729	1134.788	906.995
340.446	28.769	1133.750	906.282
341.460	28.866	1133.204	906.243
342.475	28.870	1132.564	905.674
343.489	28.760	1131.658	904.324
344.504	28.898	1130.538	904.029
345.519	28.921	1129.793	903.468
346.533	28.830	1129.406	902.629
347.548	28.854	1128.394	901.859
348.562	28.735	1128.063	900.931
349.577	28.839	1126.989	900.504
350.592	28.796	1126.412	899.754
351.606	28.832	1125.550	899.159
352.621	28.940	1125.491	899.562
353.635	28.938	1124.548	898.721
354.650	28.981	1123.819	898.266
355.665	28.965	1123.108	897.542
356.679	28.986	1122.753	897.282
357.694	28.964	1122.075	896.553
358.708	28.994	1121.411	896.088
359.723	28.926	1120.836	895.219
360.738	28.907	1120.037	894.406
361.752	28.951	1119.512	894.125
362.767	29.029	1118.814	893.867
363.781	29.016	1118.542	893.507
364.796	29.156	1118.007	893.682
365.810	29.014	1117.555	892.550
366.825	29.032	1116.951	892.077
367.840	29.108	1116.307	891.851
368.854	29.047	1115.995	891.230
369.869	29.234	1115.008	891.266
370.883	29.142	1114.161	890.065
371.898	29.212	1113.482	889.782
372.913	29.171	1112.967	889.093
373.927	29.159	1112.633	888.689
374.942	29.187	1112.084	888.306
375.956	29.189	1111.799	888.011
376.971	29.175	1111.082	887.293
377.986	29.218	1110.648	887.072
379.000	29.306	1110.121	886.997
380.015	29.173	1109.779	886.007
381.029	29.227	1108.808	885.411
382.044	29.252	1108.518	885.220
383.059	29.323	1107.466	884.646
384.073	29.390	1106.832	884.382
385.088	29.340	1106.040	883.431
386.102	29.376	1105.199	882.855
387.117	29.260	1104.181	881.407
388.132	29.219	1103.429	880.532
389.146	29.286	1103.177	880.573
390.161	29.364	1102.331	880.194
391.175	29.418	1101.260	879.517
392.190	29.316	1101.075	878.807
393.205	29.392	1100.422	878.568
394.219	29.513	1099.562	878.382
395.234	29.388	1098.931	877.206
396.248	29.483	1098.217	877.009
397.263	29.391	1097.414	875.853
398.278	29.478	1096.835	875.724
399.292	29.531	1096.403	875.554
400.307	29.521	1095.476	874.690
401.321	29.539	1094.733	874.104
402.336	29.535	1094.355	873.708
403.350	29.565	1093.480	873.073
404.365	29.596	1092.736	872.545
405.380	29.545	1092.076	871.704
406.394	29.611	1091.296	871.316
407.409	29.593	1091.282	871.138
408.423	29.708	1090.342	870.855
409.438	29.677	1089.327	869.822
410.453	29.675	1088.627	869.177
411.467	29.674	1087.944	868.549
412.482	29.679	1087.479	868.122
413.496	29.676	1086.888	867.562
414.511	29.794	1086.291	867.561
415.526	29.723	1085.874	866.820
416.540	29.866	1085.098	866.793
417.555	29.806	1084.621	866.053
418.569	29.643	1084.630	865.223
419.584	29.756	1083.935	865.122
420.599	29.707	1083.663	864.597
421.613	104.533	1321.431	1458.480
422.628	97.292	1356.041	1458.607
