DTS Sentinel unit serial number:	SN413079Multiplexer serial number:	ORYXHardware model number:	OX4-SRSoftware version number:	ORYX F/W v4.00 Oryx Data Collector v3.7.2.0data status	okinstallation	princeton_trtdifferential loss correction	single-endedforward channel	channel 2reverse channel	N/Adate	2019/09/11time	20:41:11forward acquisition time	60.00reverse acquisition time	0.00gamma	496.2192k internal	0.2321k external	0.2321temperature offset calibration	1.0060default loss term (dB/km)	0.3790temperature slope calibration	1.0000multiplexer offset coefficient	1.0000multiplexer slope coefficient	1.0000fibre end	0.00T internal ref (°C)	37.25T ext. ref 1 (°C)	1.55T ext. ref 2 (°C)	30.80length (m)	temperature (°C)	Stokes	anti-Stokes-747.200	-109.751	0.262	-0.056
-746.185	-200.000	0.072	0.454
-745.171	9.453	0.220	-0.168
-744.156	10.541	-0.236	0.182
-743.142	-119.170	0.402	0.071
-742.127	-97.666	-0.216	-0.057
-741.112	16.443	0.119	0.095
-740.098	212.003	-0.194	0.309
-739.083	51.060	-0.117	0.112
-738.069	-200.000	0.019	-0.182
-737.054	344.640	-0.228	-0.453
-736.039	328.428	-0.127	-0.246
-735.025	4.183	-0.082	-0.061
-734.010	-78.017	-0.285	-0.099
-732.996	-200.000	0.021	-0.113
-731.981	-117.330	0.141	-0.026
-730.966	-11.673	-0.119	0.079
-729.952	-38.753	-0.317	-0.169
-728.937	800.000	-0.095	-0.306
-727.923	-99.411	-0.279	-0.071
-726.908	-132.602	0.264	0.034
-725.894	-37.924	-0.054	-0.029
-724.879	-34.596	0.250	0.139
-723.864	574.791	0.035	0.085
-722.850	240.025	-0.159	-0.267
-721.835	139.206	-0.139	-0.184
-720.821	800.000	0.039	-0.120
-719.806	316.677	-0.131	0.251
-718.791	324.396	-0.126	-0.243
-717.777	245.007	-0.023	-0.039
-716.762	307.734	-0.034	-0.063
-715.748	-77.531	-0.178	0.062
-714.733	-89.825	-0.207	-0.061
-713.718	627.185	0.083	-0.212
-712.704	124.663	-0.011	-0.014
-711.689	800.000	-0.033	0.113
-710.675	-35.453	-0.114	0.062
-709.660	752.992	-0.056	-0.152
-708.645	-200.000	-0.041	0.353
-707.631	-200.000	-0.106	0.474
-706.616	26.431	-0.064	0.054
-705.602	-85.736	-0.185	0.058
-704.587	248.426	-0.072	-0.123
-703.572	-58.686	-0.247	-0.108
-702.558	800.000	0.033	-0.093
-701.543	3.748	-0.087	0.064
-700.529	241.605	0.078	-0.131
-699.514	800.000	0.036	0.152
-698.499	776.890	-0.068	-0.188
-697.485	-103.845	0.210	-0.050
-696.470	32.106	-0.322	-0.280
-695.456	-34.169	-0.101	-0.056
-694.441	46.939	-0.272	0.256
-693.426	-200.000	-0.000	0.072
-692.412	-17.996	0.288	-0.182
-691.397	-200.000	0.055	-0.381
-690.383	800.000	-0.071	-0.199
-689.368	-200.000	0.035	-0.189
-688.354	-87.537	-0.168	-0.051
-687.339	-200.000	0.012	-0.055
-686.324	-66.265	-0.173	0.069
-685.310	-200.000	-0.004	0.157
-684.295	-200.000	-0.011	0.311
-683.281	800.000	0.063	-0.261
-682.266	-200.000	0.002	-0.131
-681.251	217.849	-0.200	-0.321
-680.237	-200.000	-0.013	-0.086
-679.222	-16.071	-0.465	-0.298
-678.208	-200.000	-0.012	-0.262
-677.193	-69.585	-0.145	-0.056
-676.178	-118.739	-0.445	0.079
-675.164	-71.303	-0.110	-0.042
-674.149	115.470	-0.153	-0.188
-673.135	-85.855	0.271	-0.085
-672.120	62.443	-0.137	0.138
-671.105	-153.634	-0.016	0.001
-670.091	-17.244	0.194	-0.123
-669.076	95.293	0.026	-0.030
-668.062	-117.387	-0.260	0.047
-667.047	-200.000	0.040	0.223
-666.032	-70.735	-0.149	-0.057
-665.018	800.000	-0.042	0.129
-664.003	-127.542	-0.201	0.029
-662.989	-52.608	-0.161	-0.075
-661.974	800.000	-0.028	0.087
-660.959	-57.761	-0.131	-0.058
-659.945	-200.000	0.035	-0.376
-658.930	-67.433	-0.203	-0.080
-657.916	40.333	0.120	0.108
-656.901	-67.303	0.179	0.071
-655.886	-65.292	-0.367	-0.149
-654.872	81.553	-0.112	-0.122
-653.857	-200.000	0.046	-0.448
-652.843	39.750	0.084	0.076
-651.828	800.000	-0.091	0.347
-650.814	800.000	-0.037	-0.138
-649.799	17.360	0.107	0.085
-648.784	-200.000	0.029	0.268
-647.770	637.078	-0.123	0.314
-646.755	471.228	-0.083	-0.188
-645.741	-33.967	-0.203	-0.112
-644.726	188.528	0.105	-0.159
-643.711	-163.233	-0.181	-0.009
-642.697	-107.151	0.228	-0.051
-641.682	47.492	-0.118	-0.111
-640.668	-200.000	-0.013	0.190
-639.653	-172.309	-0.401	-0.013
-638.638	-160.934	-0.413	0.022
-637.624	634.914	-0.088	-0.225
-636.609	-74.038	-0.120	-0.044
-635.595	166.433	0.090	-0.128
-634.580	-200.000	-0.011	0.055
-633.565	-102.945	0.330	0.079
-632.551	-200.000	-0.003	0.121
-631.536	-200.000	0.021	-0.092
-630.522	-70.295	-0.177	0.068
-629.507	-27.913	0.260	-0.152
-628.492	95.583	-0.288	0.331
-627.478	4.097	-0.103	0.076
-626.463	-200.000	-0.043	0.449
-625.449	7.034	0.117	-0.087
-624.434	800.000	0.105	-0.441
-623.419	-200.000	0.064	0.289
-622.405	-22.123	0.121	0.074
-621.390	324.248	-0.083	0.160
-620.376	-7.548	-0.169	0.115
-619.361	-200.000	-0.005	-0.351
-618.346	-135.554	0.251	0.030
-617.332	56.823	-0.158	0.155
-616.317	-130.384	0.021	0.003
-615.303	93.439	0.169	0.192
-614.288	6.695	-0.218	-0.163
-613.273	249.609	0.067	-0.115
-612.259	-200.000	-0.011	0.142
-611.244	800.000	0.087	-0.250
-610.230	-200.000	0.003	0.072
-609.215	576.940	-0.061	-0.150
-608.201	-136.543	-0.044	-0.005
-607.186	10.469	0.102	-0.078
-606.171	-44.492	-0.075	-0.038
-605.157	382.524	-0.134	-0.277
-604.142	404.393	-0.060	0.127
-603.128	-78.882	0.407	-0.139
-602.113	-94.281	0.046	-0.013
-601.098	-200.000	0.049	0.296
-600.084	82.822	0.038	0.041
-599.069	-83.532	0.404	-0.130
-598.055	-26.425	-0.094	0.055
-597.040	800.000	0.094	0.343
-596.025	-10.964	-0.411	-0.272
-595.011	800.000	0.043	0.156
-593.996	-23.402	0.288	0.174
-592.982	200.736	0.229	0.354
-591.967	800.000	0.112	0.352
-590.952	114.149	0.058	-0.071
-589.938	-2.956	-0.329	0.231
-588.923	-156.698	0.074	0.005
-587.909	-21.429	-0.303	0.186
-586.894	800.000	0.054	-0.165
-585.879	-108.271	-0.325	0.071
-584.865	173.352	0.054	-0.078
-583.850	-112.519	0.093	-0.019
-582.836	-200.000	0.047	0.351
-581.821	-200.000	0.022	0.167
-580.806	94.384	-0.119	0.136
-579.792	-30.177	0.180	-0.103
-578.777	-14.546	-0.158	0.102
-577.763	-200.000	0.019	0.089
-576.748	-141.574	0.192	-0.019
-575.733	800.000	0.031	-0.097
-574.719	-200.000	0.008	0.200
-573.704	435.807	0.096	-0.211
-572.690	-123.362	0.156	-0.025
-571.675	774.214	0.130	-0.355
-570.661	-34.513	0.136	0.075
-569.646	592.286	0.128	-0.318
-568.631	36.173	-0.278	-0.246
-567.617	139.992	-0.169	0.224
-566.602	800.000	0.110	0.426
-565.588	800.000	0.127	0.472
-564.573	34.700	-0.118	-0.104
-563.558	126.607	0.133	0.169
-562.544	-24.612	-0.217	0.130
-561.529	-79.202	0.127	0.043
-560.515	6.902	-0.110	0.082
-559.500	-47.291	-0.243	0.119
-558.485	49.946	-0.121	0.115
-557.471	-119.725	-0.106	-0.018
-556.456	174.086	-0.086	-0.125
-555.442	297.483	0.015	0.027
-554.427	19.333	-0.137	-0.111
-553.412	-200.000	0.016	-0.092
-552.398	555.941	0.093	0.224
-551.383	-116.743	0.316	0.058
-550.369	128.037	0.181	0.231
-549.354	587.305	0.071	0.175
-548.339	800.000	0.041	0.136
-547.325	-10.138	-0.059	-0.039
-546.310	428.257	-0.095	-0.206
-545.296	274.487	0.051	-0.090
-544.281	465.987	0.117	0.263
-543.266	-14.997	-0.155	-0.100
-542.252	170.381	-0.067	-0.096
-541.237	-51.268	-0.119	-0.056
-540.223	61.984	0.118	0.118
-539.208	677.912	-0.026	-0.067
-538.193	-159.139	0.099	-0.006
-537.179	-110.117	0.153	-0.032
-536.164	81.499	-0.118	-0.128
-535.150	452.820	-0.095	0.210
-534.135	-5.483	-0.160	-0.110
-533.121	614.084	0.038	-0.096
-532.106	-36.075	-0.230	-0.124
-531.091	157.925	0.052	0.073
-530.077	-150.263	0.228	0.018
-529.062	11.674	0.198	0.152
-528.048	399.822	-0.056	-0.119
-527.033	-200.000	0.069	-0.306
-526.018	-200.000	0.024	-0.226
-525.004	-158.450	-0.331	0.019
-523.989	-58.039	0.231	-0.101
-522.975	115.818	0.058	-0.071
-521.960	-200.000	-0.056	-0.311
-520.945	-21.215	-0.260	0.159
-519.931	151.473	-0.170	-0.232
-518.916	-164.153	-0.261	-0.012
-517.902	-116.243	0.231	-0.043
-516.887	-200.000	-0.012	0.110
-515.872	-200.000	0.008	-0.093
-514.858	-21.654	-0.262	-0.160
-513.843	-200.000	0.033	-0.338
-512.829	558.536	0.143	0.345
-511.814	-200.000	-0.016	0.154
-510.799	43.365	0.346	-0.316
-509.785	800.000	0.008	-0.024
-508.770	193.842	-0.227	-0.344
-507.756	800.000	-0.027	-0.084
-506.741	-118.532	0.164	-0.029
-505.726	-70.560	0.232	-0.088
-504.712	-27.747	-0.170	-0.099
-503.697	139.470	-0.164	-0.216
-502.683	-88.107	0.196	-0.059
-501.668	9.093	-0.317	0.240
-500.653	150.636	-0.123	0.167
-499.639	69.078	-0.346	-0.356
-498.624	-27.886	0.059	-0.034
-497.610	61.911	-0.105	0.105
-496.595	36.816	-0.030	0.027
-495.581	-111.881	0.097	-0.020
-494.566	800.000	0.028	0.079
-493.551	56.402	-0.093	-0.090
-492.537	-73.110	-0.197	0.072
-491.522	-53.390	-0.223	0.102
-490.508	-200.000	0.000	0.041
-489.493	-200.000	0.040	0.422
-488.478	-200.000	0.015	-0.148
-487.464	-200.000	-0.004	0.206
-486.449	-78.137	-0.192	-0.066
-485.435	-152.180	0.382	0.028
-484.420	-109.743	0.067	-0.014
-483.405	-15.302	0.279	0.178
-482.391	-92.212	-0.189	0.053
-481.376	384.964	-0.141	0.291
-480.362	800.000	0.042	-0.139
-479.347	-200.000	0.013	0.113
-478.332	800.000	-0.039	0.140
-477.318	61.189	-0.065	-0.065
-476.303	-114.572	-0.153	0.029
-475.289	-200.000	0.030	-0.179
-474.274	-200.000	0.002	-0.114
-473.259	-54.839	0.100	0.045
-472.245	504.219	-0.038	-0.089
-471.230	800.000	-0.099	-0.347
-470.216	-18.142	0.392	-0.245
-469.201	29.801	-0.210	-0.179
-468.186	20.152	-0.290	-0.234
-467.172	162.760	0.075	-0.105
-466.157	-115.030	-0.369	0.070
-465.143	800.000	-0.079	-0.325
-464.128	444.598	-0.101	0.222
-463.113	-200.000	-0.046	0.349
-462.099	140.543	-0.224	-0.296
-461.084	81.669	0.070	-0.076
-460.070	-68.987	0.164	0.063
-459.055	-200.000	0.039	-0.190
-458.040	-200.000	-0.052	-0.384
-457.026	242.497	0.199	0.334
-456.011	-198.865	0.283	-0.002
-454.997	377.336	0.182	-0.373
-453.982	59.109	-0.186	0.183
-452.968	-200.000	-0.024	0.177
-451.953	-41.062	0.237	0.122
-450.938	245.268	-0.111	-0.187
-449.924	-200.000	-0.008	-0.117
-448.909	120.130	-0.157	-0.195
-447.895	-200.000	0.035	-0.156
-446.880	800.000	0.107	0.321
-445.865	222.196	0.050	0.081
-444.851	-200.000	-0.058	-0.374
-443.836	-128.632	-0.073	0.010
-442.822	578.355	-0.160	0.392
-441.807	-164.297	-0.480	0.022
-440.792	-200.000	-0.015	-0.210
-439.778	-159.720	-0.114	-0.006
-438.763	800.000	0.053	-0.172
-437.749	2.674	-0.281	0.204
-436.734	-154.333	-0.155	0.010
-435.719	-200.000	0.009	0.143
-434.705	228.281	-0.067	0.109
-433.690	-49.301	0.131	-0.063
-432.676	13.708	-0.237	-0.184
-431.661	144.179	-0.147	-0.196
-430.646	-32.946	0.164	0.091
-429.632	800.000	0.024	0.095
-428.617	-200.000	0.042	0.231
-427.603	-200.000	0.018	0.138
-426.588	800.000	0.036	0.109
-425.573	532.151	0.125	-0.294
-424.559	-200.000	0.014	0.277
-423.544	341.477	0.123	0.240
-422.530	632.052	0.124	0.315
-421.515	-17.311	0.177	-0.111
-420.500	50.814	-0.105	0.099
-419.486	-94.646	-0.075	-0.020
-418.471	102.131	-0.320	-0.373
-417.457	330.092	-0.123	-0.237
-416.442	-200.000	0.045	0.300
-415.428	90.721	-0.046	0.051
-414.413	-43.029	0.094	0.048
-413.398	340.639	0.022	0.042
-412.384	644.994	0.064	0.163
-411.369	122.808	-0.110	0.137
-410.355	800.000	0.178	0.540
-409.340	-200.000	-0.003	0.095
-408.325	-183.281	-0.289	0.005
-407.311	-83.268	-0.155	0.050
-406.296	-36.931	-0.166	-0.089
-405.282	7.439	0.078	0.058
-404.267	800.000	0.138	-0.572
-403.252	100.172	-0.150	0.173
-402.238	-38.593	0.192	0.101
-401.223	-69.216	0.369	-0.141
-400.209	-200.000	0.017	-0.177
-399.194	162.205	-0.137	0.192
-398.179	208.735	0.080	0.125
-397.165	401.014	0.098	0.205
-396.150	800.000	-0.036	0.131
-395.136	-45.306	-0.266	0.132
-394.121	-101.254	-0.052	-0.013
-393.106	241.214	-0.231	-0.385
-392.092	-126.689	0.518	-0.077
-391.077	800.000	-0.078	-0.230
-390.063	86.756	-0.241	-0.265
-389.048	-200.000	-0.023	0.181
-388.033	655.745	-0.118	-0.302
-387.019	-92.081	0.087	-0.025
-386.004	11.865	0.206	0.158
-384.990	270.044	0.162	0.284
-383.975	118.861	-0.119	-0.147
-382.960	-200.000	-0.010	0.216
-381.946	141.268	-0.198	-0.261
-380.931	-83.658	-0.229	0.073
-379.917	-11.715	0.293	0.192
-378.902	-200.000	0.030	0.231
-377.888	125.061	-0.226	-0.284
-376.873	78.022	0.070	-0.074
-375.858	-113.406	-0.231	0.045
-374.844	800.000	0.114	-0.477
-373.829	24.173	0.229	-0.188
-372.815	-58.432	0.085	0.037
-371.800	176.740	0.195	0.283
-370.785	192.087	0.175	-0.262
-369.771	-200.000	0.006	0.160
-368.756	-200.000	-0.013	-0.057
-367.742	-65.650	-0.184	-0.074
-366.727	-23.054	0.420	-0.252
-365.712	0.223	-0.328	-0.233
-364.698	119.671	-0.292	0.360
-363.683	-93.660	-0.138	0.038
-362.669	-9.034	0.383	0.255
-361.654	-70.384	-0.421	0.159
-360.639	-20.979	-0.148	-0.091
-359.625	-72.558	-0.027	0.010
-358.610	-200.000	-0.065	-0.482
-357.596	51.817	0.188	0.178
-356.581	-8.083	0.128	-0.086
-355.566	14.024	-0.149	-0.115
-354.552	-200.000	-0.003	-0.109
-353.537	-200.000	-0.064	-0.405
-352.523	-200.000	-0.020	0.161
-351.508	-187.871	0.217	-0.003
-350.493	39.931	0.177	-0.158
-349.479	-0.907	0.202	0.142
-348.464	-102.964	0.297	-0.070
-347.450	-200.000	-0.033	0.312
-346.435	800.000	-0.093	0.270
-345.420	-4.164	0.156	0.108
-344.406	301.855	0.123	-0.226
-343.391	-200.000	0.029	-0.246
-342.377	-38.687	0.053	-0.028
-341.362	-68.377	-0.162	0.063
-340.348	186.265	-0.087	-0.130
-339.333	-186.924	0.354	-0.005
-338.318	-70.907	0.190	-0.071
-337.304	-97.494	0.099	0.026
-336.289	-166.636	-0.325	-0.013
-335.275	282.799	-0.045	-0.080
-334.260	83.824	-0.247	-0.268
-333.245	-125.860	-0.173	0.026
-332.231	200.972	0.131	0.200
-331.216	9.347	0.012	-0.009
-330.202	53.801	-0.274	0.262
-329.187	-200.000	0.002	0.252
-328.172	-200.000	-0.014	-0.362
-327.158	8.471	-0.124	0.093
-326.143	521.278	0.100	-0.234
-325.129	-200.000	0.002	-0.091
-324.114	54.786	0.090	-0.086
-323.099	800.000	0.073	-0.200
-322.085	60.776	0.069	0.068
-321.070	800.000	0.058	-0.176
-320.056	-83.281	-0.251	0.080
-319.041	85.029	-0.055	-0.060
-318.026	-128.176	0.726	-0.103
-317.012	-200.000	0.015	-0.096
-315.997	290.920	0.057	0.104
-314.983	117.437	0.061	-0.075
-313.968	-141.275	0.092	0.009
-312.953	-185.392	-0.252	-0.004
-311.939	-45.454	0.152	-0.075
-310.924	331.495	-0.106	0.203
-309.910	-88.183	-0.080	-0.024
-308.895	-200.000	0.006	0.207
-307.880	-85.590	0.324	-0.100
-306.866	-138.232	0.078	-0.009
-305.851	563.651	-0.094	-0.227
-304.837	-30.876	0.165	0.093
-303.822	-200.000	0.042	0.368
-302.807	463.461	0.160	0.356
-301.793	-56.581	0.370	-0.163
-300.778	669.583	0.146	0.376
-299.764	-200.000	0.015	0.098
-298.749	120.704	-0.099	0.122
-297.735	-200.000	0.049	-0.245
-296.720	35.165	-0.244	-0.212
-295.705	64.081	0.120	-0.119
-294.691	76.211	-0.282	0.297
-293.676	-99.669	0.178	0.044
-292.662	-200.000	-0.047	-0.332
-291.647	33.950	-0.290	0.251
-290.632	-200.000	0.075	0.369
-289.618	4.609	0.091	-0.066
-288.603	720.494	-0.041	0.108
-287.589	516.027	-0.126	0.293
-286.574	132.671	0.047	-0.060
-285.559	-46.503	0.175	-0.085
-284.545	-88.143	0.276	-0.082
-283.530	800.000	0.027	0.086
-282.516	88.001	-0.190	-0.209
-281.501	49.874	-0.217	-0.203
-280.486	-200.000	-0.025	-0.264
-279.472	-200.000	-0.005	0.055
-278.457	54.290	0.202	-0.193
-277.443	600.868	-0.130	0.321
-276.428	470.847	-0.113	-0.251
-275.413	-114.265	0.265	0.051
-274.399	-9.471	0.383	0.254
-273.384	14.144	-0.157	0.122
-272.370	152.614	0.063	-0.085
-271.355	-200.000	-0.008	0.180
-270.340	-200.000	-0.027	-0.212
-269.326	-131.607	0.317	0.041
-268.311	11.065	-0.142	0.108
-267.297	-8.124	0.143	-0.096
-266.282	221.405	-0.069	-0.110
-265.267	800.000	-0.085	-0.241
-264.253	429.892	0.092	0.197
-263.238	-141.825	0.277	0.028
-262.224	-20.875	-0.293	-0.178
-261.209	69.157	-0.219	0.223
-260.195	-116.116	-0.139	-0.026
-259.180	-57.355	-0.190	-0.083
-258.165	-28.903	0.245	0.140
-257.151	-130.158	-0.563	-0.076
-256.136	-200.000	-0.002	0.069
-255.122	1.308	0.200	-0.143
-254.107	8.642	0.305	-0.228
-253.092	-84.917	0.266	0.083
-252.078	592.440	-0.059	0.144
-251.063	380.743	-0.179	0.365
-250.049	-80.385	0.034	-0.011
-249.034	22.638	-0.233	-0.189
-248.019	-200.000	-0.012	-0.298
-247.005	85.923	0.138	0.150
-245.990	-66.347	-0.217	-0.086
-244.976	32.870	-0.080	-0.069
-243.961	-32.806	-0.128	0.071
-242.946	179.240	0.169	0.245
-241.932	235.223	-0.096	0.156
-240.917	800.000	-0.022	-0.085
-239.903	5.934	-0.061	-0.044
-238.888	-80.002	0.118	-0.039
-237.873	395.499	-0.025	-0.052
-236.859	-45.107	-0.208	0.102
-235.844	-191.502	-0.090	0.001
-234.830	-200.000	0.048	-0.301
-233.815	37.078	0.216	-0.190
-232.800	-38.610	-0.130	-0.068
-231.786	3.791	0.182	-0.131
-230.771	-74.518	0.199	0.071
-229.757	47.912	-0.237	-0.219
-228.742	142.819	0.137	-0.180
-227.727	-200.000	0.034	0.235
-226.713	176.147	0.098	0.141
-225.698	-200.000	-0.002	-0.060
-224.684	-37.856	0.052	0.028
-223.669	-111.799	-0.197	0.039
-222.655	-21.446	0.171	0.103
-221.640	-76.277	0.119	0.042
-220.625	-200.000	-0.018	0.245
-219.611	487.316	0.096	0.217
-218.596	-144.642	0.329	0.030
-217.582	-198.768	-0.434	0.002
-216.567	393.032	-0.058	-0.119
-215.552	-200.000	0.033	-0.319
-214.538	-128.840	-0.237	-0.033
-213.523	397.307	0.124	-0.256
-212.509	123.157	-0.065	-0.081
-211.494	-4.421	-0.138	0.094
-210.479	-22.895	-0.200	-0.119
-209.465	71.682	-0.213	0.219
-208.450	-82.682	0.256	0.082
-207.436	800.000	-0.026	0.107
-206.421	122.039	-0.148	-0.182
-205.406	-20.103	0.062	-0.038
-204.392	-39.741	0.182	0.094
-203.377	15.596	-0.256	-0.199
-202.363	32.618	-0.210	-0.180
-201.348	-51.059	0.227	0.105
-200.333	-140.641	0.271	0.028
-199.319	469.348	-0.252	0.561
-198.304	201.698	-0.161	-0.245
-197.290	-127.651	0.260	0.037
-196.275	5.887	-0.139	0.102
-195.260	429.778	-0.072	-0.155
-194.246	103.379	0.172	-0.200
-193.231	-81.354	0.134	-0.044
-192.217	-20.817	0.180	0.109
-191.202	-126.803	0.450	-0.066
-190.187	800.000	-0.033	-0.099
-189.173	800.000	0.085	0.256
-188.158	-200.000	-0.059	0.286
-187.144	7.128	-0.093	-0.069
-186.129	-200.000	0.020	0.296
-185.114	800.000	-0.102	0.280
-184.100	306.369	0.059	0.109
-183.085	-131.990	0.197	-0.025
-182.071	-93.077	0.036	-0.010
-181.056	217.957	0.045	0.071
-180.042	-36.196	0.242	0.129
-179.027	156.007	0.143	0.195
-178.012	-120.561	0.174	0.029
-176.998	105.375	-0.054	-0.063
-175.983	298.357	-0.044	-0.079
-174.969	-31.071	0.138	-0.077
-173.954	-8.261	0.227	-0.151
-172.939	-67.405	0.209	-0.081
-171.925	164.906	0.056	-0.078
-170.910	800.000	-0.064	0.249
-169.896	96.589	-0.140	-0.159
-168.881	-65.593	0.097	0.038
-167.866	-185.684	0.174	0.003
-166.852	-25.090	0.253	-0.148
-165.837	38.886	0.211	-0.186
-164.823	-31.277	-0.082	0.046
-163.808	69.227	0.140	0.142
-162.793	161.631	-0.147	-0.204
-161.779	-200.000	-0.046	-0.378
-160.764	-200.000	-0.001	-0.185
-159.750	-38.076	-0.373	0.196
-158.735	-95.198	-0.469	0.125
-157.720	-148.092	0.213	-0.017
-156.706	-41.907	0.127	0.064
-155.691	81.700	-0.222	0.237
-154.677	95.443	0.168	-0.190
-153.662	800.000	-0.083	-0.357
-152.647	1.121	-0.141	0.100
-151.633	-200.000	-0.015	-0.083
-150.618	64.255	-0.043	0.043
-149.604	-200.000	-0.001	0.049
-148.589	53.881	0.117	-0.111
-147.574	-200.000	0.004	-0.030
-146.560	-129.262	-0.257	0.035
-145.545	-123.072	-0.202	0.032
-144.531	800.000	0.043	-0.162
-143.516	284.123	-0.191	0.339
-142.502	534.844	0.126	0.296
-141.487	800.000	0.044	-0.186
-140.472	231.485	-0.157	-0.254
-139.458	212.306	0.048	-0.075
-138.443	25.763	0.198	0.163
-137.429	-146.201	0.146	-0.013
-136.414	800.000	0.054	-0.153
-135.399	138.010	-0.069	-0.090
-134.385	258.884	0.093	0.159
-133.370	-200.000	0.031	0.158
-132.356	92.919	0.119	-0.133
-131.341	251.291	0.162	0.273
-130.326	-200.000	-0.033	-0.295
-129.312	-41.717	0.132	-0.067
-128.297	-157.479	-0.197	-0.012
-127.283	45.472	-0.264	-0.241
-126.268	-35.141	-0.174	-0.094
-125.253	251.092	0.089	-0.150
-124.239	376.894	0.082	0.166
-123.224	-200.000	0.034	-0.193
-122.210	-54.687	0.106	-0.047
-121.195	-118.293	0.236	-0.041
-120.180	-130.408	0.133	0.018
-119.166	800.000	-0.035	0.104
-118.151	303.788	-0.142	-0.259
-117.137	-89.937	0.140	0.040
-116.122	319.754	-0.049	0.092
-115.107	-181.521	0.228	0.004
-114.093	22.216	-0.222	-0.179
-113.078	70.808	0.024	0.025
-112.064	120.760	-0.042	0.052
-111.049	-200.000	0.030	-0.271
-110.034	-65.897	0.191	-0.075
-109.020	-8.931	0.176	-0.116
-108.005	-93.476	0.202	0.055
-106.991	425.925	-0.252	0.535
-105.976	-200.000	0.050	0.254
-104.962	176.756	-0.091	-0.130
-103.947	-200.000	-0.060	0.275
-102.932	-25.108	0.234	-0.137
-101.918	-42.223	0.128	-0.065
-100.903	-87.416	-0.175	-0.052
-99.889	-31.084	0.246	0.137
-98.874	-200.000	0.011	-0.119
-97.859	-200.000	-0.021	0.451
-96.845	16.283	0.277	-0.216
-95.830	-23.654	-0.174	0.103
-94.816	166.645	0.066	-0.092
-93.801	800.000	0.069	0.218
-92.786	182.522	-0.202	0.293
-91.772	-200.000	0.006	0.031
-90.757	-119.369	-0.026	-0.005
-89.743	-43.309	-0.170	0.085
-88.728	-200.000	0.007	0.076
-87.713	76.898	-0.059	0.062
-86.699	2.139	-0.123	0.088
-85.684	-13.639	0.079	-0.050
-84.670	2.706	-0.285	-0.204
-83.655	-129.146	0.302	-0.042
-82.640	800.000	0.051	0.213
-81.626	362.960	0.004	0.007
-80.611	-85.449	-0.203	-0.062
-79.597	-134.599	0.620	0.074
-78.582	35.636	-0.320	0.277
-77.567	-96.472	0.247	0.064
-76.553	-50.853	-0.286	0.133
-75.538	671.351	-0.055	-0.140
-74.524	102.888	-0.088	0.101
-73.509	226.888	0.075	0.121
-72.494	413.362	-0.138	-0.288
-71.480	-155.822	0.052	0.003
-70.465	477.484	0.012	-0.027
-69.451	-176.905	-0.233	0.006
-68.436	-200.000	-0.047	0.303
-67.422	-200.000	-0.013	-0.068
-66.407	-200.000	0.003	0.165
-65.392	419.346	-0.058	-0.121
-64.378	11.276	0.319	0.240
-63.363	24.838	0.173	0.141
-62.349	-114.484	0.150	0.028
-61.334	165.804	-0.657	-0.914
-60.319	-37.695	0.457	0.239
-59.305	-200.000	0.033	-0.717
-58.290	311.535	0.475	0.877
-57.276	346.815	0.769	1.490
-56.261	-200.000	88.988	507.479
-55.246	501.865	1363.109	3098.374
-54.232	153.053	2580.346	3472.876
-53.217	109.773	2298.955	2712.535
-52.203	46.643	1919.695	1753.713
-51.188	40.539	1711.264	1516.753
-50.173	37.762	1666.879	1456.624
-49.159	53.414	1711.959	1614.882
-48.144	56.897	1730.313	1658.516
-47.130	40.299	1688.251	1494.302
-46.115	37.240	1673.834	1458.553
-45.100	37.170	1668.682	1453.476
-44.086	37.119	1665.807	1450.536
-43.071	37.017	1663.478	1447.687
-42.057	37.096	1660.893	1445.971
-41.042	37.097	1659.356	1444.579
-40.027	37.071	1657.195	1442.451
-39.013	37.060	1655.499	1440.838
-37.998	37.143	1653.280	1439.466
-36.984	37.191	1652.178	1438.801
-35.969	37.307	1650.275	1437.948
-34.954	37.199	1648.864	1435.859
-33.940	37.225	1647.295	1434.629
-32.925	37.279	1645.563	1433.463
-31.911	37.229	1643.662	1431.380
-30.896	37.237	1642.170	1430.082
-29.881	37.337	1640.004	1428.879
-28.867	37.250	1638.712	1427.053
-27.852	37.220	1637.386	1425.626
-26.838	37.285	1635.670	1424.549
-25.823	37.278	1634.180	1423.141
-24.809	37.251	1633.369	1422.186
-23.794	37.220	1631.785	1420.519
-22.779	37.303	1629.638	1419.199
-21.765	37.298	1628.321	1417.962
-20.750	37.200	1627.314	1416.316
-19.736	37.331	1625.593	1415.712
-18.721	37.315	1624.474	1414.566
-17.706	37.223	1623.069	1412.616
-16.692	37.294	1621.279	1411.520
-15.677	37.265	1619.695	1409.875
-14.663	37.302	1618.434	1408.992
-13.648	37.308	1617.692	1408.332
-12.633	37.305	1615.656	1406.484
-11.619	37.300	1613.863	1404.826
-10.604	37.296	1612.217	1403.310
-9.590	37.301	1611.123	1402.338
-8.575	37.215	1610.029	1400.711
-7.560	37.264	1609.138	1400.235
-6.546	37.269	1608.141	1399.350
-5.531	37.262	1606.431	1397.750
-4.517	37.293	1605.026	1396.697
-3.502	37.240	1604.381	1395.702
-2.487	37.249	1602.981	1394.489
-1.473	36.945	1591.098	1381.932
-0.458	33.775	1570.453	1341.592
0.556	29.710	1569.453	1306.056
1.571	27.167	1593.524	1307.703
2.586	26.566	1607.470	1314.668
3.600	23.374	1553.746	1248.170
4.615	13.007	1440.292	1088.870
5.629	3.487	1370.596	976.067
6.644	1.626	1361.420	957.740
7.659	1.574	1359.837	956.213
8.673	1.525	1358.356	954.781
9.688	1.485	1356.420	953.088
10.702	1.201	1353.723	949.331
11.717	4.791	1361.394	977.187
12.731	15.305	1381.018	1057.830
13.746	23.530	1395.459	1121.006
14.761	25.421	1397.022	1134.115
15.775	25.671	1397.158	1135.700
16.790	25.816	1396.732	1136.168
17.804	25.802	1396.156	1135.514
18.819	26.060	1395.690	1136.657
19.834	26.129	1395.446	1136.793
20.848	26.110	1394.180	1135.544
21.863	26.160	1393.318	1135.052
22.877	26.052	1393.020	1134.032
23.892	26.114	1392.035	1133.520
24.907	26.193	1390.827	1132.934
25.921	26.098	1389.865	1131.452
26.936	26.078	1389.394	1130.840
27.950	26.096	1387.997	1129.716
28.965	26.153	1386.943	1129.114
29.980	26.004	1385.813	1127.165
30.994	26.118	1384.434	1126.655
32.009	26.092	1383.477	1125.613
33.023	26.144	1381.764	1124.447
34.038	26.085	1380.956	1123.320
35.053	26.128	1379.808	1122.554
36.067	26.108	1378.806	1121.516
37.082	26.071	1377.709	1120.299
38.096	26.108	1377.125	1119.952
39.111	26.096	1376.510	1119.278
40.126	26.140	1375.519	1118.647
41.140	26.138	1375.144	1118.231
42.155	26.103	1374.621	1117.487
43.169	26.137	1374.177	1117.239
44.184	26.058	1374.345	1116.790
45.199	26.095	1373.816	1116.486
46.213	26.087	1373.390	1115.996
47.228	26.101	1372.605	1115.340
48.242	26.016	1371.348	1113.696
49.257	26.143	1370.036	1113.315
50.271	26.101	1367.890	1111.216
51.286	26.258	1366.606	1111.043
52.301	26.118	1365.891	1109.499
53.315	26.104	1365.258	1108.803
54.330	26.069	1364.334	1107.739
55.344	26.070	1363.105	1106.650
56.359	26.164	1361.565	1105.878
57.374	26.016	1361.395	1104.736
58.388	26.078	1360.788	1104.524
59.403	26.088	1360.537	1104.284
60.417	26.045	1359.354	1102.961
61.432	26.063	1358.352	1102.164
62.447	25.930	1358.421	1101.308
63.461	26.051	1356.592	1100.466
64.476	26.124	1356.103	1100.416
65.490	26.162	1354.371	1099.147
66.505	26.103	1353.128	1097.682
67.520	26.119	1352.224	1096.947
68.534	26.063	1350.777	1095.338
69.549	26.123	1349.719	1094.747
70.563	26.095	1349.069	1093.953
71.578	26.197	1347.908	1093.533
72.593	26.126	1347.262	1092.478
73.607	26.120	1346.774	1091.952
74.622	26.068	1345.966	1090.886
75.636	26.134	1345.015	1090.419
76.651	26.034	1344.451	1089.259
77.666	25.941	1344.138	1088.350
78.680	26.105	1343.298	1088.562
79.695	26.093	1342.344	1087.622
80.709	26.169	1341.973	1087.681
81.724	26.137	1340.770	1086.415
82.739	26.167	1339.875	1085.773
83.753	26.106	1338.956	1084.568
84.768	26.146	1337.946	1083.895
85.782	26.239	1336.600	1083.268
86.797	26.127	1335.425	1081.550
87.812	26.184	1334.451	1081.003
88.826	26.120	1333.453	1079.714
89.841	26.264	1331.799	1079.145
90.855	26.113	1331.379	1077.807
91.870	26.089	1330.780	1077.080
92.884	26.175	1329.912	1076.796
93.899	26.116	1329.003	1075.615
94.914	26.185	1328.342	1075.397
95.928	26.044	1328.103	1074.267
96.943	26.240	1326.547	1074.079
97.957	26.163	1325.965	1073.055
98.972	26.164	1325.061	1072.235
99.987	26.169	1324.298	1071.548
101.001	26.144	1322.900	1070.175
102.016	26.059	1322.687	1069.404
103.030	26.142	1321.421	1068.777
104.045	26.238	1320.480	1068.489
105.060	26.106	1319.677	1066.969
106.074	26.182	1318.638	1066.483
107.089	26.155	1317.669	1065.443
108.103	26.250	1316.438	1064.917
109.118	26.118	1315.675	1063.427
110.133	26.161	1314.693	1062.788
111.147	26.235	1313.494	1062.162
112.162	26.249	1312.092	1061.014
113.176	26.295	1310.938	1060.258
114.191	26.220	1310.290	1059.202
115.206	26.145	1309.607	1058.119
116.220	26.224	1308.467	1057.564
117.235	26.293	1307.427	1057.031
118.249	26.237	1306.729	1056.048
119.264	26.175	1305.592	1054.676
120.279	26.308	1304.418	1054.411
121.293	26.219	1304.269	1053.676
122.308	26.292	1302.996	1052.978
123.322	26.221	1302.744	1052.268
124.337	26.417	1301.478	1052.295
125.352	26.318	1300.725	1051.014
126.366	26.263	1300.112	1050.109
127.381	26.290	1299.050	1049.315
128.395	26.289	1298.132	1048.472
129.410	26.321	1297.180	1047.799
130.424	26.265	1296.743	1047.027
131.439	26.257	1295.759	1046.094
132.454	26.345	1294.417	1045.428
133.468	26.237	1294.352	1044.657
134.483	26.273	1294.109	1044.575
135.497	26.336	1292.819	1043.808
136.512	26.225	1292.285	1042.641
137.527	26.307	1290.971	1041.961
138.541	26.359	1289.145	1040.698
139.556	26.248	1288.631	1039.552
140.570	26.182	1287.731	1038.355
141.585	26.272	1286.657	1037.915
142.600	26.233	1285.473	1036.644
143.614	26.258	1284.647	1036.028
144.629	26.341	1283.985	1035.880
145.643	26.226	1282.582	1033.994
146.658	26.228	1281.086	1032.710
147.673	26.076	1281.060	1031.731
148.687	26.156	1279.857	1031.124
149.702	26.139	1278.464	1029.813
150.716	26.297	1276.863	1029.334
151.731	26.220	1276.556	1028.555
152.746	26.179	1275.587	1027.454
153.760	26.303	1273.961	1026.754
154.775	26.258	1273.438	1025.986
155.789	26.308	1272.525	1025.449
156.804	26.300	1271.488	1024.475
157.819	26.305	1270.647	1023.735
158.833	26.258	1269.809	1022.700
159.848	26.342	1269.259	1022.646
160.862	26.271	1268.556	1021.587
161.877	26.295	1267.741	1020.977
162.892	26.280	1266.934	1020.152
163.906	26.405	1265.906	1019.936
164.921	26.296	1265.586	1018.973
165.935	26.398	1264.707	1018.749
166.950	26.322	1263.961	1017.630
167.964	26.329	1263.525	1017.228
168.979	26.320	1263.090	1016.742
169.994	26.421	1262.207	1016.506
171.008	26.488	1261.482	1016.209
172.023	26.401	1260.638	1014.949
173.037	26.317	1260.208	1014.041
174.052	26.439	1259.075	1013.727
175.067	26.369	1258.663	1012.911
176.081	26.495	1258.013	1013.003
177.096	26.438	1257.303	1012.023
178.110	26.441	1256.495	1011.303
179.125	26.357	1255.401	1009.863
180.140	26.503	1254.160	1009.588
181.154	26.375	1253.268	1008.068
182.169	26.347	1252.327	1007.064
183.183	26.504	1250.652	1006.505
184.198	26.501	1250.249	1006.072
185.213	26.397	1249.203	1004.566
186.227	26.517	1248.372	1004.476
187.242	26.503	1247.299	1003.443
188.256	26.489	1246.630	1002.741
189.271	26.514	1245.755	1002.083
190.286	26.488	1244.892	1001.157
191.300	26.434	1244.562	1000.508
192.315	26.441	1244.208	1000.170
193.329	26.411	1243.955	999.712
194.344	26.539	1242.874	999.464
195.359	26.516	1242.680	999.093
196.373	26.481	1242.392	998.579
197.388	26.351	1242.030	997.484
198.402	26.395	1241.575	997.272
199.417	26.462	1240.884	996.998
200.432	26.502	1240.591	996.893
201.446	26.495	1239.613	995.982
202.461	26.527	1238.873	995.474
203.475	26.422	1238.085	994.175
204.490	26.416	1237.261	993.392
205.504	26.448	1236.456	992.837
206.519	26.556	1235.112	992.259
207.534	26.586	1233.993	991.436
208.548	26.406	1233.879	990.271
209.563	26.535	1232.795	990.018
210.577	26.631	1231.505	989.422
211.592	26.542	1231.120	988.538
212.607	26.500	1230.628	987.829
213.621	26.616	1229.570	987.523
214.636	26.568	1228.902	986.636
215.650	26.616	1227.700	985.845
216.665	26.566	1226.880	984.831
217.680	26.680	1226.078	984.715
218.694	26.679	1225.277	983.982
219.709	26.618	1225.047	983.378
220.723	26.701	1223.906	982.825
221.738	26.546	1223.616	981.664
222.753	26.544	1222.842	980.946
223.767	26.542	1222.200	980.333
224.782	26.609	1221.592	980.120
225.796	26.706	1220.992	980.082
226.811	26.769	1220.323	979.796
227.826	26.828	1219.658	979.492
228.840	26.672	1219.666	978.569
229.855	26.564	1218.981	977.351
230.869	26.688	1217.934	977.092
231.884	26.673	1217.030	976.203
232.899	26.757	1216.373	976.041
233.913	26.725	1216.304	975.724
234.928	26.811	1215.463	975.431
235.942	26.829	1214.931	975.012
236.957	26.588	1214.546	973.320
237.972	26.723	1213.512	973.132
238.986	26.730	1212.521	972.290
240.001	26.802	1212.408	972.497
241.015	26.926	1211.108	972.032
242.030	26.799	1210.720	970.958
243.045	26.946	1209.677	970.822
244.059	26.810	1209.071	969.522
245.074	26.910	1208.020	969.124
246.088	27.046	1207.087	969.019
247.103	26.997	1206.115	967.891
248.117	26.970	1205.691	967.321
249.132	26.845	1205.126	966.115
250.147	26.862	1204.627	965.719
251.161	26.954	1203.670	965.357
252.176	26.908	1202.984	964.479
253.190	26.942	1202.495	964.181
254.205	26.913	1201.799	963.384
255.220	27.018	1200.845	963.091
256.234	26.947	1200.705	962.517
257.249	26.973	1200.110	962.093
258.263	26.880	1199.594	961.101
259.278	26.999	1198.819	961.023
260.293	26.865	1198.440	959.927
261.307	26.986	1197.648	959.848
262.322	27.014	1197.140	959.502
263.336	26.956	1196.682	958.742
264.351	27.013	1196.067	958.468
265.366	26.946	1195.435	957.523
266.380	27.051	1194.614	957.332
267.395	27.098	1193.763	956.818
268.409	27.003	1193.193	955.775
269.424	26.981	1192.978	955.403
270.439	27.033	1192.248	955.004
271.453	27.058	1191.864	954.742
272.468	27.109	1190.580	953.897
273.482	27.029	1189.950	952.892
274.497	27.079	1189.394	952.624
275.512	27.008	1189.287	952.080
276.526	27.079	1188.466	951.714
277.541	27.036	1188.002	951.030
278.555	27.180	1186.772	950.714
279.570	27.241	1186.052	950.371
280.585	27.111	1185.699	949.329
281.599	27.053	1184.692	948.136
282.614	27.098	1183.928	947.675
283.628	27.112	1183.093	946.992
284.643	27.255	1181.649	946.496
285.657	27.126	1181.394	945.537
286.672	27.163	1180.236	944.723
287.687	27.242	1179.255	944.263
288.701	27.251	1178.720	943.795
289.716	27.307	1178.206	943.591
290.730	27.253	1177.545	942.699
291.745	27.234	1177.078	942.144
292.760	27.196	1176.398	941.318
293.774	27.232	1175.816	940.959
294.789	27.388	1175.031	941.050
295.803	27.390	1174.892	940.869
296.818	27.301	1174.211	939.782
297.833	27.366	1173.443	939.418
298.847	27.404	1172.779	939.000
299.862	27.360	1172.184	938.214
300.876	27.312	1171.122	937.034
301.891	27.356	1170.846	936.955
302.906	27.385	1169.978	936.324
303.920	27.439	1169.514	936.150
304.935	27.365	1168.701	935.035
305.949	27.327	1168.037	934.228
306.964	27.369	1167.571	933.987
307.979	27.327	1167.244	933.428
308.993	27.486	1166.232	933.350
310.008	27.401	1165.462	932.216
311.022	27.465	1164.688	931.844
312.037	27.533	1163.905	931.482
313.052	27.520	1162.945	930.563
314.066	27.414	1162.354	929.467
315.081	27.486	1161.521	929.084
316.095	27.656	1160.774	929.274
317.110	27.565	1160.427	928.452
318.125	27.508	1159.912	927.663
319.139	27.348	1159.125	926.137
320.154	27.526	1158.579	926.527
321.168	27.492	1158.075	925.866
322.183	27.546	1157.583	925.668
323.197	27.483	1157.194	924.952
324.212	27.615	1156.305	924.832
325.227	27.564	1155.924	924.187
326.241	27.581	1155.705	924.015
327.256	27.608	1154.535	923.134
328.270	27.592	1153.914	922.475
329.285	27.563	1153.142	921.633
330.300	27.663	1151.949	921.099
331.314	27.451	1151.874	919.890
332.329	27.596	1150.580	919.503
333.343	27.696	1149.898	919.385
334.358	27.786	1148.973	919.013
335.373	27.781	1148.316	918.384
336.387	27.709	1147.697	917.446
337.402	27.626	1147.225	916.567
338.416	27.883	1146.345	917.074
339.431	27.733	1145.527	915.586
340.446	27.890	1144.895	915.791
341.460	27.841	1144.281	914.970
342.475	27.775	1143.382	913.841
343.489	27.806	1142.641	913.321
344.504	27.865	1141.624	912.722
345.519	27.805	1141.017	911.859
346.533	27.720	1140.215	910.714
347.548	27.816	1139.744	910.736
348.562	27.828	1138.948	910.079
349.577	27.801	1138.179	909.248
350.592	27.732	1137.594	908.358
351.606	27.810	1136.860	908.079
352.621	27.833	1136.588	907.896
353.635	27.857	1135.731	907.252
354.650	27.844	1135.083	906.587
355.665	27.841	1134.587	906.098
356.679	27.949	1133.933	906.027
357.694	27.820	1133.635	905.071
358.708	27.859	1132.589	904.349
359.723	27.911	1131.881	903.961
360.738	27.939	1131.194	903.470
361.752	27.945	1130.627	902.967
362.767	27.912	1130.454	902.588
363.781	28.016	1129.548	902.299
364.796	27.969	1129.040	901.582
365.810	27.924	1128.445	900.800
366.825	28.085	1127.774	900.982
367.840	28.151	1127.522	901.025
368.854	28.076	1126.823	900.015
369.869	28.161	1126.097	899.773
370.883	28.062	1125.164	898.466
371.898	28.114	1124.694	898.266
372.913	28.157	1124.172	897.981
373.927	28.129	1123.670	897.362
374.942	28.134	1123.087	896.838
375.956	28.136	1122.550	896.342
376.971	28.276	1121.843	896.385
377.986	28.194	1121.555	895.671
379.000	28.256	1120.939	895.407
380.015	28.370	1119.989	895.124
381.029	28.195	1119.540	893.833
382.044	28.147	1119.154	893.209
383.059	28.341	1117.962	893.124
384.073	28.286	1117.419	892.346
385.088	28.191	1117.089	891.538
386.102	28.247	1115.810	890.711
387.117	28.310	1115.101	890.376
388.132	28.289	1114.165	889.447
389.146	28.390	1113.498	889.325
390.161	28.353	1112.864	888.560
391.175	28.308	1112.397	887.890
392.190	28.370	1111.645	887.510
393.205	28.264	1111.047	886.441
394.219	28.425	1110.401	886.630
395.234	28.331	1109.459	885.342
396.248	28.392	1108.376	884.696
397.263	28.335	1107.939	883.993
398.278	28.357	1107.480	883.654
399.292	28.457	1106.390	883.187
400.307	28.397	1106.219	882.684
401.321	28.414	1105.497	882.112
402.336	28.379	1104.800	881.312
403.350	28.368	1104.211	880.708
404.365	28.525	1103.426	880.761
405.380	28.589	1102.556	880.293
406.394	28.498	1102.012	879.344
407.409	28.476	1101.263	878.563
408.423	28.671	1100.467	878.783
409.438	28.609	1099.757	877.845
410.453	28.602	1099.102	877.210
411.467	28.616	1098.755	876.924
412.482	28.580	1097.931	876.014
413.496	28.634	1097.777	876.072
414.511	28.702	1096.965	875.670
415.526	28.627	1096.282	874.692
416.540	28.642	1096.002	874.463
417.555	28.537	1095.775	873.705
418.569	28.524	1095.095	873.024
419.584	28.615	1094.541	872.937
420.599	28.759	1094.172	873.249
421.613	98.243	1312.807	1424.825
422.628	91.747	1344.638	1424.945
