DTS Sentinel unit serial number:	SN413079Multiplexer serial number:	ORYXHardware model number:	OX4-SRSoftware version number:	ORYX F/W v4.00 Oryx Data Collector v3.7.2.0data status	okinstallation	princeton_trtdifferential loss correction	single-endedforward channel	channel 2reverse channel	N/Adate	2019/09/11time	02:17:11forward acquisition time	60.00reverse acquisition time	0.00gamma	496.2192k internal	0.2331k external	0.2331temperature offset calibration	0.9945default loss term (dB/km)	0.3790temperature slope calibration	1.0000multiplexer offset coefficient	1.0000multiplexer slope coefficient	1.0000fibre end	0.00T internal ref (°C)	29.19T ext. ref 1 (°C)	-0.30T ext. ref 2 (°C)	23.48length (m)	temperature (°C)	Stokes	anti-Stokes-747.200	-16.089	0.236	-0.151
-746.185	-200.000	0.016	-0.328
-745.171	19.617	0.142	0.115
-744.156	136.311	-0.114	0.149
-743.142	57.506	0.153	-0.151
-742.127	-200.000	-0.009	0.319
-741.112	800.000	-0.050	0.198
-740.098	307.487	0.092	-0.172
-739.083	-42.341	0.191	0.098
-738.069	80.456	-0.158	0.171
-737.054	-7.733	0.220	-0.150
-736.039	-139.235	-0.651	-0.071
-735.025	-128.689	0.134	-0.019
-734.010	-200.000	-0.012	-0.150
-732.996	-91.355	-0.276	0.079
-731.981	-9.771	-0.143	-0.096
-730.966	-200.000	-0.019	-0.214
-729.952	-200.000	0.015	-0.406
-728.937	329.678	-0.017	-0.033
-727.923	299.677	-0.115	-0.213
-726.908	-150.914	0.088	-0.007
-725.894	59.415	0.231	0.229
-724.879	-41.064	-0.214	-0.111
-723.864	-200.000	0.001	-0.127
-722.850	-65.975	0.090	0.036
-721.835	-200.000	-0.004	-0.036
-720.821	475.720	0.084	0.191
-719.806	-173.000	-0.172	0.005
-718.791	-200.000	-0.015	-0.165
-717.777	685.206	0.071	-0.188
-716.762	102.703	-0.074	0.086
-715.748	54.560	0.081	0.079
-714.733	-9.004	-0.033	-0.023
-713.718	92.327	0.113	-0.128
-712.704	202.715	0.084	0.130
-711.689	122.332	0.097	-0.122
-710.675	-88.274	-0.211	0.063
-709.660	136.752	0.151	0.198
-708.645	355.420	-0.162	-0.323
-707.631	-151.755	-0.171	-0.013
-706.616	-139.471	-0.128	0.014
-705.602	-200.000	0.021	-0.319
-704.587	-200.000	-0.021	-0.284
-703.572	-200.000	-0.292	0.001
-702.558	-162.573	-0.300	0.015
-701.543	-57.079	-0.299	0.132
-700.529	-87.370	-0.059	0.018
-699.514	-61.226	-0.503	0.213
-698.499	-6.698	0.216	-0.148
-697.485	133.796	-0.067	-0.087
-696.470	-9.758	0.131	-0.088
-695.456	48.658	0.214	0.201
-694.441	-200.000	0.037	0.254
-693.426	280.270	-0.205	-0.368
-692.412	-78.964	-0.158	-0.054
-691.397	-200.000	0.019	0.160
-690.383	-154.573	-0.029	0.002
-689.368	-63.568	-0.072	0.030
-688.354	800.000	0.134	0.424
-687.339	-33.222	-0.165	-0.092
-686.324	-200.000	-0.058	-0.426
-685.310	17.090	-0.192	0.153
-684.295	-200.000	0.003	-0.086
-683.281	5.769	-0.199	0.148
-682.266	90.648	-0.261	-0.294
-681.251	10.698	0.363	-0.278
-680.237	435.984	-0.132	0.289
-679.222	-14.036	0.373	-0.242
-678.208	18.970	-0.031	-0.025
-677.193	-9.314	-0.113	0.075
-676.178	-200.000	0.031	0.200
-675.164	3.512	-0.094	-0.069
-674.149	-200.000	-0.014	0.120
-673.135	-73.888	0.137	-0.050
-672.120	52.992	-0.095	0.092
-671.105	463.337	-0.104	-0.234
-670.091	-111.883	0.135	0.027
-669.076	101.142	-0.164	-0.192
-668.062	26.253	-0.053	0.044
-667.047	83.600	-0.347	0.380
-666.032	-43.814	-0.395	-0.199
-665.018	387.966	-0.061	0.126
-664.003	313.651	0.047	-0.089
-662.989	-73.875	0.116	-0.042
-661.974	800.000	0.055	0.236
-660.959	71.029	-0.041	0.043
-659.945	165.740	-0.097	-0.138
-658.930	105.116	-0.216	-0.255
-657.916	85.962	-0.153	-0.169
-656.901	-150.560	-0.149	0.011
-655.886	667.196	-0.194	-0.504
-654.872	-200.000	0.057	-0.253
-653.857	-3.126	-0.267	-0.187
-652.843	467.787	0.061	-0.137
-651.828	-200.000	-0.028	-0.218
-650.814	62.098	0.063	0.063
-649.799	-26.919	-0.098	0.057
-648.784	47.072	0.060	0.056
-647.770	800.000	-0.083	0.333
-646.755	-93.972	0.283	-0.078
-645.741	-200.000	0.048	-0.284
-644.726	-178.723	0.252	0.006
-643.711	-59.463	-0.127	0.055
-642.697	616.946	0.129	-0.324
-641.682	-200.000	0.006	-0.068
-640.668	-137.317	0.199	-0.023
-639.653	-200.000	-0.043	-0.248
-638.638	-200.000	0.001	-0.173
-637.624	-152.269	0.078	0.006
-636.609	780.794	-0.127	-0.349
-635.595	-200.000	-0.016	-0.203
-634.580	22.016	-0.058	0.047
-633.565	86.683	0.027	-0.030
-632.551	-65.392	0.366	0.147
-631.536	-200.000	-0.003	-0.332
-630.522	-200.000	-0.028	0.155
-629.507	12.784	0.189	-0.146
-628.492	-75.733	0.116	-0.041
-627.478	-200.000	0.012	0.165
-626.463	-73.593	-0.137	-0.050
-625.449	224.817	-0.142	-0.229
-624.434	486.002	-0.067	-0.152
-623.419	125.635	-0.145	0.184
-622.405	-73.520	0.162	-0.059
-621.390	-137.586	-0.264	0.030
-620.376	166.043	-0.140	0.198
-619.361	800.000	-0.050	-0.176
-618.346	800.000	-0.063	-0.269
-617.332	323.077	-0.040	-0.076
-616.317	-107.690	0.375	0.082
-615.303	20.301	0.092	0.075
-614.288	9.942	-0.174	0.132
-613.273	225.455	0.044	-0.071
-612.259	3.950	0.304	-0.223
-611.244	-79.051	-0.218	0.074
-610.230	-21.662	0.136	0.083
-609.215	592.001	0.035	0.087
-608.201	800.000	-0.010	0.037
-607.186	-22.434	0.150	0.091
-606.171	58.068	0.038	0.037
-605.157	-200.000	-0.005	-0.187
-604.142	-132.196	0.048	-0.006
-603.128	800.000	0.031	0.091
-602.113	8.027	0.267	0.201
-601.098	-73.010	0.120	0.044
-600.084	266.318	-0.084	0.147
-599.069	455.901	0.142	0.315
-598.055	-200.000	0.041	0.261
-597.040	207.632	-0.035	0.055
-596.025	-13.268	0.329	-0.214
-595.011	800.000	0.060	-0.187
-593.996	-32.618	0.272	-0.151
-592.982	-29.898	0.270	-0.154
-591.967	-17.866	-0.255	0.160
-590.952	102.765	-0.110	-0.128
-589.938	55.110	-0.200	0.194
-588.923	90.712	0.150	0.168
-587.909	-106.622	-0.396	-0.088
-586.894	9.004	-0.131	-0.099
-585.879	15.230	0.281	0.220
-584.865	227.631	-0.235	-0.383
-583.850	-77.218	0.341	-0.119
-582.836	-25.337	0.273	-0.162
-581.821	162.633	-0.223	0.313
-580.806	53.816	-0.044	-0.043
-579.792	40.865	0.091	-0.082
-578.777	-51.855	-0.183	0.085
-577.763	86.930	-0.182	-0.201
-576.748	263.737	-0.179	-0.312
-575.733	-85.625	0.185	-0.058
-574.719	404.244	0.214	0.451
-573.704	-0.046	0.084	-0.060
-572.690	221.416	-0.020	0.033
-571.675	493.065	0.103	0.235
-570.661	471.380	-0.026	0.059
-569.646	-6.527	-0.135	-0.092
-568.631	212.439	-0.099	0.157
-567.617	-26.651	0.134	-0.078
-566.602	-158.429	-0.144	0.008
-565.588	-200.000	0.029	-0.501
-564.573	36.620	-0.311	-0.274
-563.558	-114.850	-0.106	-0.020
-562.544	41.558	0.107	-0.096
-561.529	229.824	-0.338	0.551
-560.515	-195.862	0.065	0.000
-559.500	-105.653	-0.103	-0.023
-558.485	-160.706	0.333	0.018
-557.471	419.578	0.017	-0.037
-556.456	-200.000	-0.024	-0.123
-555.442	213.083	-0.063	-0.100
-554.427	-84.855	0.215	0.067
-553.412	-200.000	0.007	0.051
-552.398	-159.875	-0.251	-0.014
-551.383	73.289	-0.218	-0.228
-550.369	800.000	-0.094	0.387
-549.354	-49.304	-0.272	-0.129
-548.339	-200.000	-0.040	-0.272
-547.325	291.384	-0.096	-0.174
-546.310	-5.893	-0.066	-0.045
-545.296	-200.000	-0.003	-0.362
-544.281	-85.793	-0.127	-0.039
-543.266	-117.383	0.098	-0.018
-542.252	-85.945	-0.306	0.094
-541.237	-200.000	-0.024	0.252
-540.223	800.000	-0.044	-0.165
-539.208	-55.963	0.317	-0.141
-538.193	800.000	-0.022	-0.068
-537.179	-146.322	-0.083	0.007
-536.164	424.709	-0.035	0.075
-535.150	800.000	0.054	0.149
-534.135	92.786	0.038	0.043
-533.121	60.310	-0.213	-0.210
-532.106	192.657	0.055	0.083
-531.091	70.756	-0.081	-0.083
-530.077	800.000	-0.059	-0.171
-529.062	-115.724	-0.098	-0.018
-528.048	242.454	-0.085	0.141
-527.033	-200.000	-0.038	0.325
-526.018	211.761	0.041	-0.065
-525.004	276.021	0.231	-0.408
-523.989	800.000	0.142	-0.474
-522.975	-200.000	0.003	0.107
-521.960	-4.291	0.209	-0.144
-520.945	-47.343	-0.267	0.130
-519.931	376.450	-0.187	0.381
-518.916	-200.000	-0.042	0.199
-517.902	268.313	-0.059	-0.103
-516.887	-184.682	-0.269	-0.004
-515.872	-200.000	-0.036	-0.190
-514.858	205.629	-0.149	-0.231
-513.843	-200.000	0.019	0.112
-512.829	-5.954	-0.140	0.095
-511.814	-81.815	0.111	0.036
-510.799	-200.000	-0.015	0.275
-509.785	86.269	0.117	-0.128
-508.770	-200.000	-0.007	-0.061
-507.756	66.991	-0.143	-0.145
-506.741	-15.271	-0.147	0.094
-505.726	-151.037	-0.162	-0.012
-504.712	-200.000	0.042	0.413
-503.697	281.030	0.103	0.184
-502.683	-102.590	-0.094	0.022
-501.668	-66.930	-0.299	0.118
-500.653	800.000	-0.042	-0.157
-499.639	-68.010	-0.362	-0.141
-498.624	-200.000	0.010	0.111
-497.610	210.386	-0.146	-0.228
-496.595	162.474	0.081	-0.113
-495.581	45.510	0.203	0.187
-494.566	244.216	0.148	-0.248
-493.551	800.000	0.078	0.277
-492.537	110.752	0.280	0.336
-491.522	201.291	0.140	0.214
-490.508	-200.000	-0.044	-0.210
-489.493	12.211	-0.174	0.134
-488.478	473.763	-0.143	0.320
-487.464	85.118	-0.087	-0.095
-486.449	243.580	-0.070	-0.117
-485.435	226.585	-0.078	0.126
-484.420	84.146	-0.225	0.244
-483.405	-51.075	-0.217	-0.101
-482.391	-66.450	0.461	0.182
-481.376	207.243	0.028	0.044
-480.362	-17.755	0.023	-0.014
-479.347	-67.260	-0.418	-0.164
-478.332	800.000	-0.042	-0.150
-477.318	156.146	-0.097	-0.133
-476.303	289.453	0.082	-0.148
-475.289	-134.589	0.139	0.017
-474.274	-89.936	-0.064	-0.019
-473.259	-94.155	-0.319	0.087
-472.245	-164.045	-0.080	-0.004
-471.230	187.041	0.069	0.102
-470.216	800.000	0.103	0.299
-469.201	146.710	0.194	0.259
-468.186	-52.804	-0.180	0.083
-467.172	-200.000	0.013	0.167
-466.157	-102.886	-0.223	-0.053
-465.143	-92.202	-0.161	-0.045
-464.128	478.721	0.139	0.314
-463.113	362.910	-0.175	0.349
-462.099	-116.272	-0.053	-0.010
-461.084	270.884	0.119	-0.208
-460.070	800.000	-0.135	-0.376
-459.055	-200.000	0.022	0.119
-458.040	-36.229	-0.139	-0.074
-457.026	103.911	-0.149	-0.174
-456.011	204.787	0.131	-0.202
-454.997	-30.162	-0.256	-0.145
-453.982	-145.025	-0.417	0.038
-452.968	-31.282	0.043	0.024
-451.953	-61.116	-0.344	0.144
-450.938	345.786	-0.044	0.086
-449.924	95.381	0.143	-0.162
-448.909	-200.000	0.030	0.263
-447.895	-75.652	0.107	-0.038
-446.880	41.098	-0.096	-0.086
-445.865	-55.590	-0.129	0.058
-444.851	-33.192	-0.141	-0.078
-443.836	-200.000	-0.052	0.253
-442.822	126.119	0.158	-0.198
-441.807	-111.314	-0.380	-0.077
-440.792	-36.229	0.306	0.164
-439.778	117.135	0.008	0.010
-438.763	764.232	0.039	0.105
-437.749	47.740	-0.128	-0.119
-436.734	230.421	0.150	0.244
-435.719	159.692	-0.040	0.056
-434.705	-159.644	-0.285	-0.016
-433.690	-90.014	-0.128	0.037
-432.676	800.000	0.061	0.210
-431.661	-200.000	-0.066	0.329
-430.646	-51.346	-0.104	-0.048
-429.632	211.874	0.222	-0.348
-428.617	47.734	-0.145	-0.135
-427.603	52.766	-0.060	0.057
-426.588	650.663	0.029	0.074
-425.573	-11.784	0.120	-0.078
-424.559	-92.966	-0.440	-0.122
-423.544	-119.498	-0.136	-0.023
-422.530	-200.000	-0.005	-0.409
-421.515	-17.524	-0.383	-0.239
-420.500	94.521	0.309	0.349
-419.486	-153.170	-0.417	0.029
-418.471	-200.000	0.025	-0.182
-417.457	57.351	0.123	-0.120
-416.442	-163.318	-0.234	-0.011
-415.428	-138.345	-0.158	-0.017
-414.413	539.244	0.052	-0.123
-413.398	-91.763	-0.162	0.046
-412.384	-89.852	0.203	0.059
-411.369	-75.515	-0.044	-0.016
-410.355	800.000	-0.067	-0.245
-409.340	-200.000	-0.013	0.090
-408.325	284.622	0.044	0.079
-407.311	-116.998	0.348	-0.063
-406.296	97.661	0.082	-0.094
-405.282	-129.853	0.252	0.034
-404.267	433.623	0.117	0.253
-403.252	16.072	0.329	0.257
-402.238	-149.067	-0.115	0.009
-401.223	4.707	-0.092	0.067
-400.209	714.040	-0.051	0.135
-399.194	-200.000	-0.004	0.381
-398.179	215.863	-0.095	-0.150
-397.165	-92.686	-0.338	0.094
-396.150	-106.876	0.181	-0.040
-395.136	33.325	-0.133	0.114
-394.121	504.799	0.075	0.172
-393.106	-60.424	0.043	0.018
-392.092	85.607	0.128	-0.140
-391.077	-134.649	-0.159	0.019
-390.063	213.962	-0.065	0.101
-389.048	-200.000	-0.002	0.086
-388.033	-200.000	0.005	0.103
-387.019	-58.456	0.126	0.054
-386.004	175.252	-0.084	-0.120
-384.990	10.389	-0.237	-0.179
-383.975	353.753	0.083	-0.164
-382.960	350.078	0.038	0.074
-381.946	-126.098	0.219	-0.033
-380.931	90.294	-0.305	0.339
-379.917	-107.871	-0.229	-0.049
-378.902	-200.000	-0.042	-0.253
-377.888	800.000	0.116	0.361
-376.873	-11.615	0.076	-0.050
-375.858	-144.362	0.412	0.038
-374.844	87.960	0.016	0.018
-373.829	87.405	-0.044	-0.049
-372.815	651.363	-0.072	0.184
-371.800	800.000	-0.067	0.231
-370.785	-49.504	-0.095	0.045
-369.771	-44.324	-0.058	0.029
-368.756	677.462	0.095	0.245
-367.742	800.000	0.091	0.320
-366.727	144.444	-0.294	0.390
-365.712	210.711	-0.191	-0.298
-364.698	-28.861	0.070	0.040
-363.683	-50.759	-0.010	0.005
-362.669	-122.812	0.358	-0.057
-361.654	-112.796	-0.112	-0.022
-360.639	-39.321	-0.187	-0.097
-359.625	-54.853	0.499	-0.223
-358.610	153.561	0.175	-0.238
-357.596	605.796	-0.098	0.242
-356.581	61.458	0.072	-0.071
-355.566	118.370	0.044	0.054
-354.552	800.000	-0.029	-0.123
-353.537	800.000	-0.073	-0.236
-352.523	-20.520	0.088	0.053
-351.508	-16.943	-0.119	0.075
-350.493	-200.000	0.006	-0.042
-349.479	301.764	0.145	-0.266
-348.464	800.000	-0.081	-0.287
-347.450	-200.000	-0.033	0.174
-346.435	-200.000	-0.031	0.152
-345.420	-141.265	-0.097	0.010
-344.406	81.033	0.297	-0.318
-343.391	452.901	-0.155	-0.340
-342.377	-3.902	0.278	-0.191
-341.362	-187.491	0.189	-0.003
-340.348	-12.318	-0.171	-0.111
-339.333	-200.000	0.032	-0.237
-338.318	-182.829	0.191	-0.003
-337.304	-200.000	-0.023	-0.116
-336.289	800.000	-0.040	-0.126
-335.275	291.364	0.080	-0.144
-334.260	-173.373	-0.266	0.008
-333.245	324.991	0.149	0.282
-332.231	388.782	0.150	0.308
-331.216	-92.087	0.329	0.092
-330.202	324.874	-0.094	0.177
-329.187	-68.677	0.095	0.036
-328.172	-28.592	-0.177	0.101
-327.158	424.353	0.108	-0.229
-326.143	-98.704	0.164	-0.041
-325.129	170.880	-0.092	-0.131
-324.114	145.202	0.121	0.160
-323.099	-1.418	0.186	0.130
-322.085	108.877	-0.093	0.110
-321.070	-99.685	-0.402	0.100
-320.056	-144.848	-0.142	0.013
-319.041	-53.127	0.175	0.080
-318.026	-78.696	-0.158	0.054
-317.012	44.562	0.210	0.191
-315.997	-68.035	-0.238	0.092
-314.983	197.437	-0.033	-0.050
-313.968	279.884	0.204	0.360
-312.953	-149.091	0.265	0.021
-311.939	-127.785	-0.222	0.032
-310.924	77.794	0.199	0.210
-309.910	345.676	0.136	-0.264
-308.895	-21.555	0.203	0.122
-307.880	-26.608	-0.056	0.032
-306.866	-96.339	0.322	0.084
-305.851	-56.043	-0.108	0.048
-304.837	252.101	0.120	0.202
-303.822	-96.982	-0.311	-0.081
-302.807	27.386	0.106	-0.088
-301.793	98.819	-0.246	-0.281
-300.778	800.000	0.137	0.404
-299.764	-200.000	-0.007	0.173
-298.749	-200.000	0.021	-0.114
-297.735	800.000	0.098	0.302
-296.720	-147.774	0.378	0.031
-295.705	-176.568	0.175	0.004
-294.691	-39.859	-0.256	0.132
-293.676	-200.000	-0.040	-0.276
-292.662	109.964	0.125	-0.148
-291.647	-33.471	-0.112	-0.061
-290.632	-200.000	0.054	0.283
-289.618	-77.460	-0.212	0.073
-288.603	-200.000	0.002	0.230
-287.589	-11.679	-0.238	-0.155
-286.574	-75.080	0.319	-0.113
-285.559	-8.022	0.231	0.154
-284.545	-111.245	0.117	0.024
-283.530	-200.000	0.011	0.189
-282.516	571.971	0.080	0.191
-281.501	8.630	0.050	-0.038
-280.486	186.167	-0.079	0.116
-279.472	-200.000	-0.008	0.162
-278.457	-80.161	-0.273	-0.090
-277.443	10.804	0.168	-0.127
-276.428	-100.339	-0.115	-0.028
-275.413	235.045	0.144	0.235
-274.399	83.400	0.069	0.075
-273.384	0.121	0.047	0.033
-272.370	98.318	0.061	-0.069
-271.355	-70.365	0.297	-0.111
-270.340	-89.022	0.128	0.037
-269.326	240.874	0.129	-0.213
-268.311	-200.000	0.027	0.154
-267.297	517.245	0.210	-0.485
-266.282	-32.767	0.210	-0.115
-265.267	-200.000	0.031	-0.318
-264.253	-200.000	0.052	-0.268
-263.238	-200.000	-0.034	0.272
-262.224	-200.000	-0.064	0.302
-261.209	-200.000	0.013	-0.179
-260.195	-124.399	0.097	-0.015
-259.180	-200.000	-0.034	-0.282
-258.165	-73.928	-0.225	-0.081
-257.151	58.435	-0.133	0.129
-256.136	350.933	-0.083	0.163
-255.122	800.000	-0.054	-0.159
-254.107	6.776	-0.084	-0.062
-253.092	-9.414	-0.142	-0.094
-252.078	-109.339	-0.129	-0.027
-251.063	-110.886	0.216	-0.044
-250.049	32.446	0.175	-0.149
-249.034	-93.797	-0.205	-0.056
-248.019	-93.735	-0.135	0.037
-247.005	387.393	0.070	0.143
-245.990	-141.503	-0.155	0.015
-244.976	208.853	0.296	0.458
-243.961	800.000	0.033	-0.112
-242.946	132.903	-0.025	-0.032
-241.932	64.321	-0.297	0.295
-240.917	48.664	0.107	0.099
-239.903	-130.050	0.442	-0.060
-238.888	800.000	0.058	-0.160
-237.873	56.620	-0.099	0.095
-236.859	-52.445	-0.216	-0.098
-235.844	-23.445	-0.240	-0.142
-234.830	800.000	0.026	0.112
-233.815	-200.000	0.003	0.217
-232.800	-170.232	0.494	0.017
-231.786	-49.307	0.095	0.045
-230.771	800.000	-0.067	0.251
-229.757	800.000	0.083	-0.300
-228.742	45.665	-0.237	-0.216
-227.727	-167.131	0.222	-0.009
-226.713	603.505	0.127	0.312
-225.698	-200.000	0.031	-0.146
-224.684	6.079	-0.121	-0.089
-223.669	10.757	-0.038	-0.029
-222.655	-165.553	0.128	-0.005
-221.640	22.541	-0.151	0.122
-220.625	320.849	0.082	0.154
-219.611	197.356	0.156	-0.235
-218.596	-40.272	-0.045	0.023
-217.582	-200.000	0.054	-0.396
-216.567	43.777	0.213	-0.192
-215.552	-157.993	-0.158	-0.009
-214.538	407.428	-0.093	0.193
-213.523	-41.457	-0.185	-0.094
-212.509	56.117	-0.090	0.086
-211.494	800.000	0.051	0.210
-210.479	-138.249	0.496	-0.054
-209.465	17.836	-0.237	-0.186
-208.450	-188.494	0.168	0.002
-207.436	-24.679	-0.116	0.068
-206.421	105.721	0.084	-0.098
-205.406	76.334	-0.201	-0.210
-204.392	-116.925	0.205	-0.037
-203.377	-68.562	0.450	0.172
-202.363	-31.252	-0.070	0.039
-201.348	-54.002	0.221	-0.099
-200.333	-98.202	-0.165	0.042
-199.319	800.000	-0.091	0.277
-198.304	-102.364	0.169	0.040
-197.290	45.458	-0.289	-0.263
-196.275	292.637	0.122	-0.220
-195.260	736.087	-0.066	0.174
-194.246	35.810	-0.115	-0.100
-193.231	44.000	0.135	-0.122
-192.217	65.722	0.270	-0.269
-191.202	-48.476	-0.134	-0.063
-190.187	570.160	0.059	-0.141
-189.173	-100.470	0.213	0.052
-188.158	146.186	0.284	-0.375
-187.144	188.253	0.171	-0.252
-186.129	-200.000	-0.055	0.335
-185.114	-157.755	-0.220	-0.013
-184.100	-142.010	0.082	-0.008
-183.085	-95.279	0.161	-0.043
-182.071	-77.834	-0.127	-0.043
-181.056	-117.052	0.155	-0.028
-180.042	51.333	-0.182	0.170
-179.027	-200.000	-0.117	0.553
-178.012	18.244	-0.151	0.118
-176.998	-115.710	0.244	-0.045
-175.983	-34.442	0.267	-0.144
-174.969	-136.219	-0.152	-0.017
-173.954	64.193	0.188	0.186
-172.939	671.718	-0.021	-0.054
-171.925	-2.237	0.201	-0.139
-170.910	248.809	-0.272	-0.453
-169.896	-200.000	0.000	-0.195
-168.881	-174.408	-0.177	-0.005
-167.866	-39.171	0.256	0.132
-166.852	-200.000	0.003	-0.023
-165.837	800.000	-0.209	-0.692
-164.823	544.601	0.113	-0.266
-163.808	48.764	-0.088	-0.081
-162.793	-200.000	-0.025	0.192
-161.779	13.440	-0.096	0.074
-160.764	165.104	0.192	0.267
-159.750	449.451	0.058	0.126
-158.735	-20.576	-0.074	0.045
-157.720	-200.000	-0.025	-0.237
-156.706	-200.000	-0.030	0.268
-155.691	-181.661	0.125	0.002
-154.677	56.169	-0.229	0.219
-153.662	298.000	-0.145	0.262
-152.647	-57.249	0.259	-0.112
-151.633	800.000	-0.060	0.194
-150.618	-200.000	-0.004	-0.216
-149.604	-99.188	-0.154	-0.038
-148.589	-16.663	-0.292	0.182
-147.574	-200.000	-0.001	-0.012
-146.560	-130.379	-0.148	0.020
-145.545	290.239	0.136	-0.243
-144.531	-94.893	0.373	-0.099
-143.516	-48.254	-0.525	-0.249
-142.502	-78.823	-0.158	0.053
-141.487	152.312	-0.150	-0.201
-140.472	-70.938	-0.073	0.027
-139.458	-134.714	-0.349	0.042
-138.443	267.042	-0.076	-0.130
-137.429	-11.987	0.334	-0.215
-136.414	-200.000	-0.028	0.193
-135.399	-37.910	-0.382	0.199
-134.385	-53.825	0.154	-0.069
-133.370	-46.302	0.184	0.089
-132.356	800.000	-0.147	-0.408
-131.341	-200.000	-0.085	-0.464
-130.326	-150.220	0.134	-0.010
-129.312	-38.130	-0.484	-0.252
-128.297	302.231	-0.030	0.055
-127.283	68.488	-0.164	0.166
-126.268	43.943	0.123	0.111
-125.253	-113.537	-0.348	-0.067
-124.239	-200.000	-0.008	-0.254
-123.224	-90.208	-0.425	0.121
-122.210	-88.144	0.191	-0.056
-121.195	-200.000	-0.057	-0.273
-120.180	13.406	-0.145	-0.111
-119.166	-200.000	-0.027	-0.268
-118.151	-200.000	0.026	0.138
-117.137	69.741	-0.244	0.247
-116.122	-200.000	-0.030	-0.144
-115.107	800.000	-0.051	-0.176
-114.093	767.264	-0.087	-0.232
-113.078	-110.955	0.095	0.019
-112.064	800.000	0.044	-0.165
-111.049	7.127	-0.078	-0.057
-110.034	-190.007	0.349	-0.004
-109.020	-72.218	-0.348	0.127
-108.005	800.000	-0.111	0.383
-106.991	31.413	-0.074	0.062
-105.976	-135.183	-0.093	-0.011
-104.962	-200.000	0.028	-0.128
-103.947	-200.000	0.041	-0.244
-102.932	656.344	-0.083	0.209
-101.918	-32.481	0.286	-0.156
-100.903	-108.545	0.171	-0.036
-99.889	-29.609	0.186	-0.104
-98.874	-200.000	-0.001	0.058
-97.859	-71.801	0.046	0.017
-96.845	602.405	0.121	-0.294
-95.830	129.300	-0.372	-0.466
-94.816	-130.595	0.083	0.011
-93.801	-30.833	0.165	-0.091
-92.786	201.817	0.080	-0.121
-91.772	-68.564	-0.485	-0.184
-90.757	673.455	0.015	0.038
-89.743	-200.000	0.120	0.000
-88.728	179.939	-0.039	0.056
-87.713	-162.822	-0.109	0.005
-86.699	71.433	-0.368	-0.375
-85.684	-119.328	0.359	0.061
-84.670	-200.000	-0.008	-0.050
-83.655	-24.121	0.397	-0.233
-82.640	80.925	0.156	-0.165
-81.626	-86.963	-0.223	-0.067
-80.611	-90.470	0.241	-0.068
-79.597	-101.890	0.034	0.008
-78.582	-117.003	-0.113	0.020
-77.567	349.429	-0.124	-0.240
-76.553	800.000	-0.068	-0.245
-75.538	-86.732	-0.157	0.047
-74.524	-79.519	-0.390	0.129
-73.509	-129.863	-0.111	-0.015
-72.494	94.069	-0.075	-0.084
-71.480	14.292	-0.301	-0.230
-70.465	-136.688	-0.311	0.035
-69.451	800.000	0.018	0.059
-68.436	-127.190	0.621	0.089
-67.422	-200.000	-0.009	-0.198
-66.407	90.953	-0.127	-0.140
-65.392	-70.382	0.128	-0.048
-64.378	62.407	-0.180	0.177
-63.363	800.000	-0.003	0.011
-62.349	-200.000	0.028	0.179
-61.334	92.796	-0.815	-0.901
-60.319	56.021	0.618	0.587
-59.305	-200.000	-0.131	-1.101
-58.290	313.100	0.659	1.213
-57.276	800.000	0.583	1.649
-56.261	-200.000	106.186	624.962
-55.246	519.766	1513.621	3474.612
-54.232	174.571	2714.096	3845.448
-53.217	104.842	2298.725	2654.598
-52.203	38.517	1902.755	1661.681
-51.188	32.367	1689.211	1428.606
-50.173	29.830	1645.764	1373.005
-49.159	48.981	1700.196	1563.418
-48.144	49.049	1715.616	1578.046
-47.130	32.023	1671.752	1411.036
-46.115	29.332	1657.393	1378.767
-45.100	29.116	1652.651	1373.158
-44.086	29.116	1649.818	1370.751
-43.071	29.119	1646.970	1368.349
-42.057	29.039	1644.840	1365.936
-41.042	29.110	1642.736	1364.659
-40.027	29.036	1641.223	1362.799
-39.013	29.068	1638.915	1361.066
-37.998	29.146	1636.826	1359.854
-36.984	29.139	1636.486	1359.464
-35.969	29.172	1634.930	1358.360
-34.954	29.236	1633.243	1357.381
-33.940	29.121	1631.809	1355.288
-32.925	29.139	1629.553	1353.492
-31.911	29.260	1627.742	1352.819
-30.896	29.044	1626.455	1350.115
-29.881	29.140	1624.494	1349.137
-28.867	29.122	1623.184	1347.861
-27.852	29.119	1621.809	1346.645
-26.838	29.262	1620.042	1346.170
-25.823	29.230	1618.177	1344.333
-24.809	29.307	1617.291	1344.100
-23.794	29.227	1616.225	1342.579
-22.779	29.280	1614.282	1341.297
-21.765	29.256	1612.661	1339.725
-20.750	29.147	1610.854	1337.378
-19.736	29.221	1609.790	1336.982
-18.721	29.148	1608.205	1335.081
-17.706	29.184	1607.195	1334.451
-16.692	29.163	1605.214	1332.600
-15.677	29.158	1604.398	1331.832
-14.663	29.280	1602.709	1331.264
-13.648	29.229	1601.566	1329.887
-12.633	29.234	1599.719	1328.340
-11.619	29.193	1598.328	1326.840
-10.604	29.255	1596.662	1325.850
-9.590	29.244	1595.022	1324.356
-8.575	29.222	1594.663	1323.842
-7.560	29.213	1593.535	1322.790
-6.546	29.222	1592.347	1321.816
-5.531	29.225	1591.019	1320.681
-4.517	29.218	1589.791	1319.565
-3.502	29.150	1589.246	1318.571
-2.487	29.323	1587.128	1318.000
-1.473	28.997	1575.320	1305.828
-0.458	26.354	1555.756	1271.006
0.556	20.786	1557.501	1241.797
1.571	18.634	1582.681	1246.146
2.586	18.309	1596.445	1254.494
3.600	16.696	1543.311	1201.199
4.615	8.920	1433.680	1064.331
5.629	1.243	1370.189	968.259
6.644	-0.118	1362.036	953.776
7.659	-0.360	1361.043	951.464
8.673	-0.304	1359.540	950.679
9.688	-0.418	1358.021	948.816
10.702	-0.518	1354.697	945.778
11.717	2.541	1361.061	969.519
12.731	11.726	1378.192	1040.286
13.746	19.441	1390.974	1099.187
14.761	21.505	1393.179	1113.988
15.775	21.682	1393.833	1115.538
16.790	21.736	1393.442	1115.468
17.804	21.859	1392.906	1115.725
18.819	22.079	1392.370	1116.597
19.834	22.215	1391.685	1116.811
20.848	22.073	1391.498	1115.660
21.863	22.147	1390.176	1114.972
22.877	22.191	1389.221	1114.386
23.892	22.145	1388.704	1113.580
24.907	22.142	1388.051	1112.942
25.921	22.211	1386.465	1112.003
26.936	22.154	1386.059	1111.221
27.950	22.268	1384.177	1110.332
28.965	22.158	1383.309	1108.846
29.980	22.165	1382.376	1108.040
30.994	22.177	1380.883	1106.822
32.009	22.110	1380.118	1105.692
33.023	22.138	1378.957	1104.843
34.038	22.209	1377.933	1104.369
35.053	22.218	1376.632	1103.282
36.067	22.144	1376.020	1102.229
37.082	22.246	1374.541	1101.587
38.096	22.156	1374.026	1100.516
39.111	22.288	1372.728	1100.201
40.126	22.172	1372.413	1099.125
41.140	22.249	1371.950	1099.144
42.155	22.106	1371.754	1097.996
43.169	22.138	1371.629	1097.997
44.184	22.178	1371.047	1097.682
45.199	22.196	1370.860	1097.550
46.213	22.224	1370.106	1097.022
47.228	22.161	1369.216	1095.820
48.242	22.294	1367.463	1095.150
49.257	22.147	1366.649	1093.483
50.271	22.170	1365.209	1092.377
51.286	22.103	1363.821	1090.758
52.301	22.150	1362.471	1089.870
53.315	22.077	1361.770	1088.760
54.330	22.241	1360.693	1088.821
55.344	22.186	1359.425	1087.367
56.359	22.198	1358.486	1086.595
57.374	22.133	1358.476	1086.091
58.388	22.106	1357.438	1084.997
59.403	22.134	1356.836	1084.589
60.417	22.175	1355.996	1084.076
61.432	22.144	1355.324	1083.252
62.447	22.143	1354.548	1082.528
63.461	22.172	1353.657	1081.902
64.476	22.217	1352.302	1081.002
65.490	22.285	1350.919	1080.216
66.505	22.168	1349.774	1078.485
67.520	22.216	1348.313	1077.516
68.534	22.279	1347.194	1076.914
69.549	22.275	1346.246	1076.034
70.563	22.184	1345.552	1074.829
71.578	22.253	1344.511	1074.328
72.593	22.149	1344.114	1073.275
73.607	22.108	1343.212	1072.215
74.622	22.168	1342.430	1071.862
75.636	22.148	1341.899	1071.217
76.651	22.145	1341.058	1070.436
77.666	22.156	1340.766	1070.174
78.680	22.172	1340.324	1069.821
79.695	22.171	1339.349	1068.945
80.709	22.202	1338.308	1068.209
81.724	22.215	1337.307	1067.395
82.739	22.179	1336.194	1066.193
83.753	22.250	1335.108	1065.658
84.768	22.150	1334.126	1064.175
85.782	22.193	1333.070	1063.500
86.797	22.279	1331.843	1062.949
87.812	22.129	1331.027	1061.296
88.826	22.279	1329.917	1061.220
89.841	22.163	1329.232	1059.881
90.855	22.136	1328.432	1058.989
91.870	22.260	1326.689	1058.252
92.884	22.276	1326.018	1057.720
93.899	22.285	1325.629	1057.372
94.914	22.219	1324.680	1056.119
95.928	22.205	1323.947	1055.361
96.943	22.318	1322.982	1055.175
97.957	22.273	1322.471	1054.404
98.972	22.316	1320.997	1053.394
99.987	22.352	1320.043	1052.754
101.001	22.188	1319.075	1050.911
102.016	22.310	1318.238	1050.880
103.030	22.222	1317.441	1049.626
104.045	22.262	1317.088	1049.492
105.060	22.267	1315.902	1048.481
106.074	22.335	1314.282	1047.503
107.089	22.351	1313.593	1046.954
108.103	22.244	1312.589	1045.427
109.118	22.280	1311.249	1044.479
110.133	22.363	1310.144	1044.001
111.147	22.338	1309.155	1042.973
112.162	22.368	1307.618	1041.831
113.176	22.371	1306.653	1040.992
114.191	22.327	1305.802	1039.960
115.206	22.388	1304.674	1039.326
116.220	22.381	1303.965	1038.634
117.235	22.456	1302.836	1038.083
118.249	22.293	1302.131	1036.468
119.264	22.389	1301.074	1036.103
120.279	22.288	1300.505	1034.959
121.293	22.383	1299.257	1034.436
122.308	22.314	1298.750	1033.537
123.322	22.420	1297.589	1033.144
124.337	22.383	1296.802	1032.203
125.352	22.466	1295.797	1031.800
126.366	22.460	1294.569	1030.697
127.381	22.392	1293.916	1029.689
128.395	22.517	1292.702	1029.363
129.410	22.474	1291.618	1028.154
130.424	22.437	1291.309	1027.605
131.439	22.399	1290.368	1026.543
132.454	22.346	1289.601	1025.534
133.468	22.405	1288.956	1025.271
134.483	22.420	1288.562	1024.955
135.497	22.348	1287.690	1023.751
136.512	22.419	1286.486	1023.119
137.527	22.365	1285.273	1021.748
138.541	22.444	1283.727	1020.887
139.556	22.368	1282.541	1019.415
140.570	22.434	1281.286	1018.708
141.585	22.413	1280.563	1017.923
142.600	22.420	1279.416	1016.961
143.614	22.418	1278.858	1016.416
144.629	22.401	1277.691	1015.298
145.643	22.246	1276.630	1013.473
146.658	22.356	1275.243	1012.915
147.673	22.349	1274.731	1012.381
148.687	22.337	1273.550	1011.284
149.702	22.277	1272.512	1010.022
150.716	22.373	1271.318	1009.537
151.731	22.358	1270.126	1008.419
152.746	22.384	1269.076	1007.642
153.760	22.421	1268.195	1007.064
154.775	22.432	1267.111	1006.178
155.789	22.357	1266.157	1004.905
156.804	22.320	1265.568	1004.138
157.819	22.349	1264.989	1003.751
158.833	22.495	1263.663	1003.442
159.848	22.454	1263.495	1002.990
160.862	22.366	1262.726	1001.786
161.877	22.391	1261.569	1000.922
162.892	22.437	1260.306	1000.095
163.906	22.402	1259.868	999.461
164.921	22.358	1259.568	998.880
165.935	22.437	1258.973	998.771
166.950	22.538	1258.134	998.590
167.964	22.546	1257.334	997.909
168.979	22.564	1256.563	997.315
169.994	22.571	1255.872	996.716
171.008	22.550	1255.353	996.097
172.023	22.554	1254.916	995.687
173.037	22.594	1253.558	994.745
174.052	22.664	1252.405	994.137
175.067	22.581	1251.958	993.227
176.081	22.580	1251.377	992.670
177.096	22.539	1250.600	991.736
178.110	22.613	1249.730	991.372
179.125	22.559	1249.189	990.554
180.140	22.486	1247.590	988.787
181.154	22.589	1246.480	988.397
182.169	22.480	1245.512	986.934
183.183	22.557	1244.449	986.435
184.198	22.597	1243.177	985.562
185.213	22.621	1242.202	984.837
186.227	22.675	1241.433	984.442
187.242	22.608	1240.773	983.458
188.256	22.614	1239.880	982.695
189.271	22.678	1238.526	981.895
190.286	22.607	1238.006	981.001
191.300	22.592	1238.012	980.833
192.315	22.596	1237.735	980.547
193.329	22.618	1236.960	979.971
194.344	22.671	1236.093	979.493
195.359	22.692	1235.647	979.167
196.373	22.589	1235.400	978.311
197.388	22.578	1234.988	977.841
198.402	22.445	1235.057	977.068
199.417	22.569	1234.727	977.410
200.432	22.567	1233.656	976.468
201.446	22.607	1233.150	976.201
202.461	22.502	1232.500	975.020
203.475	22.606	1231.303	974.560
204.490	22.544	1230.756	973.695
205.504	22.678	1229.402	973.280
206.519	22.721	1228.380	972.623
207.534	22.676	1227.667	971.724
208.548	22.689	1226.560	970.830
209.563	22.630	1226.067	970.030
210.577	22.777	1225.163	970.039
211.592	22.608	1224.615	968.592
212.607	22.680	1223.971	968.392
213.621	22.768	1222.713	967.793
214.636	22.730	1222.108	967.018
215.650	22.727	1221.152	966.163
216.665	22.700	1220.294	965.249
217.680	22.700	1219.588	964.602
218.694	22.792	1218.419	964.097
219.709	22.738	1218.058	963.432
220.723	22.910	1217.081	963.514
221.738	22.772	1216.485	962.202
222.753	22.686	1215.679	961.009
223.767	22.792	1215.343	961.240
224.782	22.914	1214.403	961.071
225.796	22.787	1214.290	960.209
226.811	22.836	1213.591	959.835
227.826	22.804	1213.099	959.190
228.840	22.791	1212.356	958.447
229.855	22.896	1211.538	958.285
230.869	22.910	1210.898	957.770
231.884	22.803	1210.191	956.545
232.899	22.811	1209.389	955.868
233.913	22.823	1209.134	955.646
234.928	22.908	1208.448	955.480
235.942	22.894	1207.719	954.745
236.957	22.848	1207.048	953.884
237.972	22.891	1206.272	953.414
238.986	22.909	1205.418	952.757
240.001	22.864	1205.560	952.542
241.015	22.917	1204.449	951.862
242.030	22.941	1203.720	951.330
243.045	22.941	1202.921	950.618
244.059	23.060	1202.171	950.581
245.074	23.000	1201.442	949.598
246.088	22.997	1200.666	948.881
247.103	22.995	1199.896	948.180
248.117	23.092	1198.759	947.718
249.132	22.907	1198.386	946.347
250.147	23.021	1197.803	946.413
251.161	23.085	1196.525	945.661
252.176	23.118	1195.838	945.214
253.190	23.091	1195.344	944.595
254.205	23.053	1195.132	944.139
255.220	23.176	1193.914	943.749
256.234	23.024	1193.969	942.897
257.249	23.019	1193.036	942.050
258.263	23.088	1192.392	941.826
259.278	23.155	1191.918	941.728
260.293	23.114	1191.346	940.973
261.307	23.101	1191.046	940.582
262.322	23.046	1190.262	939.588
263.336	23.140	1189.454	939.368
264.351	23.178	1188.996	939.124
265.366	23.092	1188.509	938.201
266.380	23.170	1187.662	937.865
267.395	23.178	1186.904	937.222
268.409	23.086	1186.553	936.374
269.424	23.202	1185.794	936.307
270.439	23.178	1185.507	935.872
271.453	23.226	1184.705	935.409
272.468	23.166	1183.517	934.072
273.482	23.060	1183.175	933.162
274.497	23.211	1182.611	933.429
275.512	23.176	1182.293	932.913
276.526	23.175	1181.504	932.198
277.541	23.268	1180.770	932.029
278.555	23.321	1179.849	931.495
279.570	23.281	1179.227	930.713
280.585	23.187	1178.669	929.699
281.599	23.213	1178.000	929.224
282.614	23.203	1176.922	928.237
283.628	23.280	1176.129	927.933
284.643	23.327	1175.136	927.313
285.657	23.392	1174.181	926.821
286.672	23.263	1173.820	925.778
287.687	23.179	1172.870	924.508
288.701	23.296	1171.859	924.237
289.716	23.303	1171.254	923.716
290.730	23.322	1170.999	923.534
291.745	23.403	1170.128	923.189
292.760	23.314	1169.747	922.340
293.774	23.340	1169.419	922.138
294.789	23.409	1168.820	921.939
295.803	23.369	1168.022	921.022
296.818	23.471	1167.231	920.849
297.833	23.471	1166.826	920.445
298.847	23.464	1166.014	919.686
299.862	23.484	1164.776	918.733
300.876	23.438	1164.430	918.142
301.891	23.580	1163.399	917.982
302.906	23.513	1162.811	917.090
303.920	23.581	1162.819	917.366
304.935	23.561	1161.737	916.329
305.949	23.492	1161.098	915.385
306.964	23.510	1160.804	915.165
307.979	23.513	1159.867	914.364
308.993	23.622	1159.347	914.434
310.008	23.593	1158.655	913.656
311.022	23.594	1157.854	912.949
312.037	23.629	1157.127	912.475
313.052	23.615	1155.899	911.357
314.066	23.592	1155.258	910.652
315.081	23.614	1154.748	910.282
316.095	23.691	1153.599	909.690
317.110	23.648	1153.582	909.374
318.125	23.699	1152.864	908.990
319.139	23.635	1152.260	908.104
320.154	23.624	1151.749	907.567
321.168	23.625	1151.154	907.024
322.183	23.656	1149.974	906.173
323.197	23.678	1149.596	905.907
324.212	23.581	1149.242	905.049
325.227	23.585	1149.262	905.010
326.241	23.696	1148.273	904.712
327.256	23.739	1147.351	904.125
328.270	23.847	1146.656	904.045
329.285	23.710	1145.936	902.703
330.300	23.745	1144.667	901.800
331.314	23.654	1144.230	900.914
332.329	23.746	1143.567	900.780
333.343	23.730	1142.981	900.159
334.358	23.727	1142.217	899.461
335.373	23.804	1141.369	899.104
336.387	23.905	1140.179	898.599
337.402	23.944	1139.888	898.487
338.416	23.892	1139.501	897.836
339.431	23.900	1138.602	897.092
340.446	23.898	1138.021	896.542
341.460	23.981	1137.146	896.195
342.475	23.905	1136.193	894.980
343.489	23.902	1135.659	894.468
344.504	23.968	1134.461	893.775
345.519	23.985	1133.863	893.311
346.533	24.039	1133.139	892.931
347.548	23.991	1132.527	892.131
348.562	23.929	1131.909	891.254
349.577	24.084	1130.739	891.028
350.592	23.886	1130.266	889.589
351.606	23.873	1130.027	889.256
352.621	24.012	1128.966	889.035
353.635	24.014	1128.381	888.509
354.650	24.000	1127.789	887.889
355.665	24.160	1126.906	887.918
356.679	24.092	1126.741	887.369
357.694	24.112	1126.184	886.950
358.708	24.125	1125.144	886.118
359.723	24.069	1124.515	885.264
360.738	24.074	1124.006	884.811
361.752	24.107	1123.557	884.544
362.767	24.092	1122.876	883.854
363.781	24.112	1122.678	883.719
364.796	24.122	1121.960	883.125
365.810	24.107	1121.086	882.285
366.825	24.170	1120.289	881.894
367.840	24.191	1120.242	881.882
368.854	24.172	1120.067	881.572
369.869	24.250	1118.851	880.920
370.883	24.212	1117.836	879.856
371.898	24.172	1117.253	879.123
372.913	24.204	1116.786	878.836
373.927	24.343	1116.360	879.109
374.942	24.359	1115.899	878.748
375.956	24.270	1115.556	877.960
376.971	24.299	1114.851	877.470
377.986	24.175	1114.635	876.612
379.000	24.396	1113.863	877.012
380.015	24.444	1112.886	876.405
381.029	24.297	1112.894	875.610
382.044	24.305	1112.066	874.919
383.059	24.254	1111.383	874.054
384.073	24.374	1110.456	873.838
385.088	24.332	1109.529	872.821
386.102	24.231	1109.336	872.103
387.117	24.324	1108.118	871.521
388.132	24.303	1107.289	870.688
389.146	24.477	1106.570	870.894
390.161	24.369	1106.291	870.073
391.175	24.501	1105.082	869.688
392.190	24.458	1104.693	869.097
393.205	24.553	1104.044	868.970
394.219	24.467	1103.522	868.062
395.234	24.473	1102.687	867.360
396.248	24.604	1101.360	866.872
397.263	24.505	1100.788	865.865
398.278	24.581	1100.458	865.897
399.292	24.427	1099.642	864.435
400.307	24.582	1099.126	864.704
401.321	24.574	1098.046	863.739
402.336	24.599	1097.251	863.158
403.350	24.494	1096.975	862.356
404.365	24.562	1096.401	862.157
405.380	24.664	1095.544	861.900
406.394	24.654	1094.647	861.069
407.409	24.666	1093.666	860.280
408.423	24.626	1093.319	859.736
409.438	24.685	1092.815	859.550
410.453	24.823	1091.754	859.299
411.467	24.742	1090.830	858.111
412.482	24.795	1090.457	857.992
413.496	24.650	1090.202	857.023
414.511	24.721	1089.326	856.596
415.526	24.786	1089.026	856.596
416.540	24.713	1088.571	855.814
417.555	24.842	1088.204	856.069
418.569	24.778	1087.586	855.198
419.584	24.802	1087.197	854.934
420.599	24.838	1086.469	854.456
421.613	148.881	1402.185	1798.876
422.628	137.658	1448.158	1798.967
