DTS Sentinel unit serial number:	SN413079Multiplexer serial number:	ORYXHardware model number:	OX4-SRSoftware version number:	ORYX F/W v4.00 Oryx Data Collector v3.7.2.0data status	okinstallation	princeton_trtdifferential loss correction	single-endedforward channel	channel 2reverse channel	N/Adate	2019/09/12time	18:44:49forward acquisition time	15.00reverse acquisition time	0.00gamma	496.2192k internal	0.2324k external	0.2324temperature offset calibration	1.0136default loss term (dB/km)	0.3790temperature slope calibration	1.0000multiplexer offset coefficient	1.0000multiplexer slope coefficient	1.0000fibre end	0.00T internal ref (°C)	33.00T ext. ref 1 (°C)	2.97T ext. ref 2 (°C)	27.52length (m)	temperature (°C)	Stokes	anti-Stokes-747.200	332.629	0.145	0.283
-746.185	255.880	-0.349	-0.604
-745.171	36.929	-0.406	0.363
-744.156	-6.105	0.799	-0.551
-743.142	-200.000	-0.161	0.844
-742.127	800.000	0.200	0.629
-741.112	-19.482	0.424	-0.265
-740.098	82.222	-0.097	-0.106
-739.083	463.450	0.357	0.804
-738.069	-65.166	-0.719	-0.293
-737.054	705.062	0.121	-0.321
-736.039	-103.364	-0.437	0.104
-735.025	-147.888	-0.073	0.006
-734.010	-52.682	-0.412	0.192
-732.996	128.492	-0.386	0.496
-731.981	522.324	-0.091	-0.216
-730.966	105.317	-0.630	-0.750
-729.952	-200.000	-0.063	-0.359
-728.937	-164.684	0.568	0.026
-727.923	185.917	0.543	-0.814
-726.908	138.413	-0.530	-0.701
-725.894	-7.735	-0.505	-0.344
-724.879	-160.306	-0.837	-0.046
-723.864	-72.270	0.930	-0.348
-722.850	-155.189	-0.298	-0.020
-721.835	-200.000	0.003	-0.541
-720.821	-200.000	-0.037	-0.585
-719.806	-200.000	-0.011	-0.311
-718.791	-40.269	0.624	0.327
-717.777	800.000	0.040	-0.159
-716.762	-74.351	0.290	0.106
-715.748	-200.000	-0.238	1.105
-714.733	659.887	0.186	-0.484
-713.718	-200.000	0.075	-1.065
-712.704	-57.791	-0.819	-0.361
-711.689	289.636	0.070	0.129
-710.675	-38.569	0.910	-0.485
-709.660	-128.681	-0.339	0.048
-708.645	-200.000	-0.015	0.462
-707.631	298.278	-0.331	0.613
-706.616	-23.235	-0.030	0.018
-705.602	-200.000	0.046	0.275
-704.587	-152.363	-0.644	0.047
-703.572	-200.000	-0.063	-0.584
-702.558	-40.101	-0.336	-0.177
-701.543	50.719	0.427	-0.408
-700.529	-86.177	-0.481	0.149
-699.514	-43.763	-0.412	0.209
-698.499	800.000	-0.294	1.032
-697.485	186.051	0.696	1.043
-696.470	-134.164	-1.234	-0.153
-695.456	-84.823	-0.457	-0.145
-694.441	-200.000	-0.028	0.147
-693.426	108.353	0.268	0.322
-692.412	86.973	0.163	-0.181
-691.397	-59.524	-0.257	0.111
-690.383	380.779	-0.186	0.385
-689.368	-41.694	0.394	-0.204
-688.354	-131.277	-0.035	-0.005
-687.339	13.901	-0.276	0.217
-686.324	230.253	0.443	-0.730
-685.310	800.000	0.070	-0.238
-684.295	-143.329	0.154	0.015
-683.281	-36.307	-0.671	0.364
-682.266	85.113	0.228	0.252
-681.251	-200.000	0.002	-0.180
-680.237	12.033	0.189	0.146
-679.222	-148.342	0.399	0.033
-678.208	-53.157	-0.541	-0.250
-677.193	-25.129	0.241	-0.144
-676.178	-19.904	-0.411	0.256
-675.164	40.753	0.147	-0.133
-674.149	800.000	0.242	-0.735
-673.135	-101.583	-0.436	0.107
-672.120	-200.000	-0.045	-0.444
-671.105	800.000	0.229	-0.669
-670.091	622.592	0.055	0.138
-669.076	-107.871	0.616	0.135
-668.062	103.249	-0.177	0.209
-667.047	-200.000	0.090	0.674
-666.032	18.865	-0.266	0.214
-665.018	-95.058	-0.199	-0.054
-664.003	-200.000	0.018	-0.619
-662.989	-79.940	0.396	-0.134
-661.974	60.611	0.464	0.462
-660.959	152.151	0.338	-0.463
-659.945	-89.771	0.365	-0.108
-658.930	628.089	0.166	-0.421
-657.916	-59.727	-0.195	0.084
-656.901	-108.059	-0.702	-0.153
-655.886	-200.000	-0.022	0.320
-654.872	-34.470	-0.745	-0.411
-653.857	-73.150	-0.210	0.077
-652.843	313.249	0.356	0.674
-651.828	-49.536	-1.098	0.526
-650.814	330.787	-0.181	-0.351
-649.799	-113.227	-0.807	0.160
-648.784	61.388	0.400	0.400
-647.770	31.399	-0.286	0.247
-646.755	99.741	0.312	-0.364
-645.741	-124.077	0.276	0.044
-644.726	67.504	-0.374	0.384
-643.711	59.275	-0.323	-0.320
-642.697	-200.000	0.023	0.271
-641.682	-78.197	0.827	-0.286
-640.668	130.898	0.353	0.456
-639.653	-56.861	-0.781	0.347
-638.638	97.555	-0.193	-0.223
-637.624	8.252	-0.157	-0.119
-636.609	-200.000	-0.018	-0.197
-635.595	42.236	-0.323	-0.295
-634.580	-66.757	-0.638	-0.254
-633.565	-69.311	0.432	0.167
-632.551	143.853	-0.236	0.317
-631.536	-176.874	1.062	0.027
-630.522	-75.950	-0.432	-0.154
-629.507	259.241	0.356	0.617
-628.492	-93.983	0.274	-0.076
-627.478	-118.005	1.811	0.326
-626.463	39.601	1.234	-1.112
-625.449	-200.000	0.085	0.756
-624.434	-200.000	0.051	-0.353
-623.419	-112.081	-0.529	-0.107
-622.405	-87.906	-0.313	0.095
-621.390	800.000	0.214	-0.600
-620.376	-200.000	0.073	-0.757
-619.361	-124.200	0.276	0.043
-618.346	209.201	-0.353	-0.556
-617.332	800.000	0.182	-0.538
-616.317	23.937	0.846	-0.701
-615.303	-86.926	0.453	-0.139
-614.288	-130.985	0.438	-0.059
-613.273	347.085	-0.352	0.697
-612.259	800.000	-0.214	0.737
-611.244	-86.345	0.783	0.242
-610.230	-37.309	0.306	0.164
-609.215	486.271	0.137	0.313
-608.201	209.806	0.193	-0.303
-607.186	-17.578	-0.543	-0.342
-606.171	41.726	-0.193	0.175
-605.157	20.996	-0.676	0.551
-604.142	193.837	0.421	-0.640
-603.128	475.407	-0.278	0.630
-602.113	295.647	0.082	0.151
-601.098	316.612	-0.505	-0.958
-600.084	176.930	0.185	0.270
-599.069	270.439	-0.182	0.321
-598.055	800.000	0.322	0.900
-597.040	-10.081	0.403	-0.269
-596.025	-200.000	-0.063	-0.953
-595.011	-21.071	-0.662	0.407
-593.996	800.000	0.161	0.703
-592.982	250.879	0.286	-0.487
-591.967	-200.000	-0.050	0.432
-590.952	188.575	0.557	0.837
-589.938	-116.898	0.295	-0.054
-588.923	-200.000	-0.049	0.561
-587.909	85.932	-0.379	0.418
-586.894	800.000	-0.219	0.730
-585.879	651.116	0.381	-0.979
-584.865	-161.532	-0.444	-0.023
-583.850	-114.705	-0.292	-0.056
-582.836	361.097	0.245	0.492
-581.821	-200.000	-0.020	-0.174
-580.806	48.468	0.181	0.170
-579.792	-25.736	-0.370	-0.219
-578.777	800.000	0.091	0.276
-577.763	-149.422	0.405	-0.032
-576.748	265.758	-0.317	-0.555
-575.733	-200.000	0.016	-0.267
-574.719	-62.355	-0.341	0.142
-573.704	115.974	0.442	0.542
-572.690	-68.047	-0.436	0.171
-571.675	576.085	0.074	0.182
-570.661	-200.000	-0.059	-0.606
-569.646	-87.292	-0.375	-0.114
-568.631	-200.000	-0.118	-0.622
-567.617	-200.000	-0.059	0.371
-566.602	-200.000	-0.101	0.529
-565.588	-65.599	0.474	-0.191
-564.573	153.238	0.116	-0.159
-563.558	800.000	-0.135	0.551
-562.544	48.481	-0.279	-0.262
-561.529	-200.000	0.015	-0.999
-560.515	-200.000	-0.011	0.224
-559.500	-194.210	0.653	0.005
-558.485	-55.326	-0.309	0.139
-557.471	-77.759	-0.463	0.160
-556.456	31.515	-0.037	0.032
-555.442	21.690	-0.496	-0.405
-554.427	362.169	-0.234	-0.471
-553.412	-125.229	0.858	0.132
-552.398	-115.167	-0.558	-0.106
-551.383	-147.792	-0.758	-0.064
-550.369	-117.722	0.965	0.174
-549.354	749.331	-0.260	0.703
-548.339	313.942	0.245	-0.461
-547.325	185.570	0.121	-0.180
-546.310	-16.172	-0.299	0.190
-545.296	-200.000	-0.046	-1.103
-544.281	227.177	-0.162	-0.264
-543.266	379.046	0.209	0.430
-542.252	-200.000	-0.124	-0.656
-541.237	389.690	-0.265	0.549
-540.223	-55.277	-0.731	-0.329
-539.208	325.697	-0.195	-0.375
-538.193	-83.049	0.629	-0.203
-537.179	207.075	-0.180	0.282
-536.164	-200.000	-0.063	-0.774
-535.150	-200.000	0.082	0.873
-534.135	383.822	-0.414	-0.854
-533.121	38.292	0.331	-0.295
-532.106	512.101	0.528	1.230
-531.091	-200.000	-0.046	0.723
-530.077	-117.681	-0.523	0.094
-529.062	-32.255	0.677	-0.378
-528.048	-77.148	0.314	-0.110
-527.033	-200.000	-0.017	-0.946
-526.018	-185.368	-1.092	0.017
-525.004	-112.233	-0.593	0.119
-523.989	28.546	-0.497	0.421
-522.975	-126.197	-0.293	0.044
-521.960	42.090	-0.561	-0.509
-520.945	-200.000	-0.013	1.166
-519.931	800.000	0.177	0.513
-518.916	800.000	-0.153	0.517
-517.902	-71.460	0.487	0.182
-516.887	-200.000	0.001	0.677
-515.872	42.137	0.454	-0.413
-514.858	-11.432	-0.241	0.159
-513.843	349.411	-0.045	0.089
-512.829	-200.000	-0.123	0.580
-511.814	530.428	0.098	-0.231
-510.799	437.415	0.235	-0.513
-509.785	-27.970	0.607	-0.352
-508.770	40.860	-0.029	-0.026
-507.756	-61.878	0.138	0.058
-506.741	71.719	-0.199	-0.206
-505.726	-128.833	-0.638	0.090
-504.712	-200.000	0.019	0.388
-503.697	-106.913	1.143	-0.253
-502.683	140.454	-0.162	-0.214
-501.668	104.811	-0.100	-0.118
-500.653	-149.306	0.460	0.037
-499.639	-200.000	0.012	-0.311
-498.624	-149.602	0.329	-0.026
-497.610	9.109	-0.378	-0.286
-496.595	800.000	0.169	-0.512
-495.581	44.080	0.378	-0.347
-494.566	298.148	-0.258	0.474
-493.551	-200.000	-0.058	0.481
-492.537	91.156	0.196	-0.220
-491.522	185.485	0.256	-0.380
-490.508	101.721	-0.711	-0.829
-489.493	800.000	0.031	0.126
-488.478	10.468	0.661	0.503
-487.464	-174.146	-0.681	-0.020
-486.449	-200.000	-0.038	0.218
-485.435	-163.894	1.009	0.047
-484.420	-54.521	-0.128	-0.058
-483.405	-67.287	0.458	-0.180
-482.391	-126.785	0.244	0.036
-481.376	-66.752	-0.354	0.140
-480.362	-69.969	-0.913	-0.348
-479.347	-65.764	-0.303	-0.121
-478.332	-107.197	-0.076	0.017
-477.318	-200.000	-0.052	-0.717
-476.303	285.797	-0.222	-0.399
-475.289	-57.149	0.611	0.269
-474.274	-48.329	0.614	-0.296
-473.259	-200.000	0.002	-0.403
-472.245	-23.082	-0.541	-0.326
-471.230	-155.704	-1.149	0.074
-470.216	-43.158	0.037	-0.019
-469.201	-62.369	-0.392	-0.163
-468.186	-200.000	-0.001	0.039
-467.172	-99.404	-0.359	-0.090
-466.157	-56.445	-0.393	0.174
-465.143	-38.441	-0.238	0.126
-464.128	-40.053	0.489	0.254
-463.113	-156.636	-0.522	-0.032
-462.099	167.361	0.411	0.582
-461.084	380.568	0.511	1.047
-460.070	-8.256	0.799	0.537
-459.055	279.135	-0.087	0.154
-458.040	-200.000	-0.003	0.621
-457.026	-200.000	-0.022	-0.295
-456.011	-172.322	-0.822	0.026
-454.997	-77.973	0.582	-0.200
-453.982	-52.637	-0.521	0.240
-452.968	-11.725	0.519	0.340
-451.953	-110.148	0.376	0.078
-450.938	86.210	-0.253	-0.278
-449.924	-5.667	-0.037	0.026
-448.909	36.120	0.263	0.231
-447.895	-90.262	-0.332	-0.096
-446.880	27.608	-0.435	-0.366
-445.865	222.459	0.218	-0.350
-444.851	-200.000	0.136	-0.850
-443.836	198.897	-0.180	-0.275
-442.822	-64.272	1.121	-0.456
-441.807	-21.204	0.852	-0.519
-440.792	-86.163	0.331	-0.102
-439.778	17.253	0.928	0.735
-438.763	-18.359	-0.974	0.607
-437.749	5.856	0.580	0.428
-436.734	-36.724	-0.595	-0.319
-435.719	-200.000	-0.063	-0.463
-434.705	-164.154	0.428	0.020
-433.690	-81.246	0.098	-0.032
-432.676	-157.869	0.393	0.023
-431.661	-124.499	0.413	-0.064
-430.646	800.000	0.018	0.053
-429.632	800.000	-0.200	-0.763
-428.617	787.459	-0.209	0.572
-427.603	69.995	-0.820	0.844
-426.588	800.000	0.172	0.540
-425.573	-200.000	-0.006	0.171
-424.559	92.682	0.501	0.564
-423.544	64.586	0.034	-0.034
-422.530	800.000	0.177	0.563
-421.515	-26.319	0.226	0.132
-420.500	-200.000	-0.014	-0.130
-419.486	-200.000	-0.030	0.586
-418.471	172.367	0.150	0.215
-417.457	-98.697	0.684	0.174
-416.442	408.771	-0.266	0.562
-415.428	800.000	-0.443	-1.718
-414.413	213.818	0.227	-0.358
-413.398	-17.366	0.553	-0.347
-412.384	-2.340	0.219	-0.153
-411.369	-52.945	0.393	-0.180
-410.355	-200.000	0.014	0.557
-409.340	-77.951	0.764	0.263
-408.325	800.000	0.194	-0.705
-407.311	424.051	-0.319	-0.683
-406.296	2.641	0.343	-0.248
-405.282	-27.657	0.036	-0.021
-404.267	-56.506	-0.221	-0.098
-403.252	800.000	-0.487	-1.380
-402.238	-200.000	-0.060	0.420
-401.223	-130.469	-1.173	-0.158
-400.209	-31.493	0.607	0.340
-399.194	-127.390	-0.542	-0.079
-398.179	-44.281	-0.225	0.112
-397.165	58.470	0.268	0.262
-396.150	157.434	-0.385	0.531
-395.136	480.331	-0.547	-1.236
-394.121	-89.389	-0.201	0.059
-393.106	-169.326	0.448	-0.016
-392.092	135.056	0.495	-0.640
-391.077	21.947	-0.399	-0.324
-390.063	-200.000	-0.104	0.562
-389.048	21.406	-0.628	0.508
-388.033	312.313	0.107	0.199
-387.019	-69.735	0.079	-0.030
-386.004	-116.071	0.399	-0.074
-384.990	-142.015	-0.167	-0.017
-383.975	78.335	-0.582	-0.619
-382.960	21.281	-0.268	0.217
-381.946	-34.714	0.779	0.424
-380.931	800.000	-0.157	0.541
-379.917	-115.741	0.279	0.052
-378.902	535.438	0.448	-1.059
-377.888	300.365	0.543	-0.998
-376.873	-20.471	-0.178	0.109
-375.858	148.391	-0.314	-0.422
-374.844	800.000	0.142	-0.469
-373.829	110.730	-0.556	-0.665
-372.815	266.825	-0.066	-0.115
-371.800	-200.000	-0.013	0.386
-370.785	212.346	-0.156	-0.244
-369.771	-63.058	0.876	0.360
-368.756	-47.783	0.275	0.132
-367.742	227.467	-0.414	0.670
-366.727	11.382	-0.251	-0.191
-365.712	150.326	-0.609	-0.823
-364.698	800.000	0.164	0.515
-363.683	49.472	-0.416	0.390
-362.669	365.621	0.184	-0.368
-361.654	10.715	-0.720	-0.546
-360.639	-200.000	-0.035	-0.752
-359.625	-200.000	0.025	-0.159
-358.610	553.860	0.141	0.338
-357.596	-86.859	-0.603	0.183
-356.581	-31.192	-0.302	0.170
-355.566	800.000	-0.203	-0.593
-354.552	134.384	-0.211	-0.271
-353.537	-140.227	-0.040	0.004
-352.523	-200.000	-0.082	-0.669
-351.508	-104.076	0.502	0.116
-350.493	-200.000	-0.002	0.242
-349.479	-2.816	0.375	-0.261
-348.464	464.552	-0.171	0.379
-347.450	-200.000	-0.119	0.959
-346.435	800.000	0.122	0.458
-345.420	684.334	0.344	0.891
-344.406	555.986	0.214	-0.512
-343.391	-200.000	-0.009	0.641
-342.377	800.000	0.022	0.086
-341.362	800.000	-0.268	-0.886
-340.348	32.884	0.532	-0.458
-339.333	-200.000	-0.005	-0.273
-338.318	-109.002	0.920	-0.195
-337.304	65.829	0.186	-0.187
-336.289	-157.812	0.539	-0.032
-335.275	71.136	-0.545	-0.561
-334.260	-111.768	0.290	0.058
-333.245	264.364	-0.322	0.557
-332.231	54.983	-0.790	0.758
-331.216	87.053	0.083	0.092
-330.202	-117.210	0.269	0.049
-329.187	243.481	0.253	-0.422
-328.172	-140.554	-0.129	0.013
-327.158	-43.469	0.238	-0.119
-326.143	327.917	0.267	0.510
-325.129	-200.000	-0.069	-0.652
-324.114	-200.000	-0.028	0.575
-323.099	-132.091	-0.546	0.071
-322.085	178.217	-0.122	0.177
-321.070	237.465	0.291	0.479
-320.056	-31.886	-0.458	-0.255
-319.041	-200.000	-0.045	-0.493
-318.026	-200.000	-0.107	-0.679
-317.012	723.081	-0.194	-0.513
-315.997	800.000	0.025	-0.093
-314.983	-15.783	-0.380	0.240
-313.968	75.508	-0.222	-0.233
-312.953	286.372	0.452	0.809
-311.939	-200.000	0.078	-0.483
-310.924	621.589	-0.260	-0.648
-309.910	126.497	0.643	0.808
-308.895	-112.056	-0.302	0.060
-307.880	-200.000	-0.957	-0.001
-306.866	101.772	0.142	0.164
-305.851	-200.000	0.096	0.994
-304.837	7.351	-0.387	-0.287
-303.822	-200.000	-0.038	0.501
-302.807	715.944	0.032	0.083
-301.793	-200.000	-0.027	0.307
-300.778	800.000	-0.223	-0.626
-299.764	24.722	-0.615	0.505
-298.749	-174.982	0.352	-0.010
-297.735	-126.621	-0.646	0.095
-296.720	-105.341	-0.756	-0.171
-295.705	-5.961	0.798	-0.542
-294.691	-186.047	0.253	0.004
-293.676	25.105	-0.526	-0.433
-292.662	360.916	0.013	0.025
-291.647	-200.000	-0.019	-0.247
-290.632	9.370	0.581	-0.436
-289.618	-15.777	-0.462	0.292
-288.603	800.000	0.208	0.596
-287.589	-86.753	-0.686	0.208
-286.574	92.678	0.215	-0.241
-285.559	-200.000	-0.086	0.390
-284.545	-200.000	0.082	0.852
-283.530	27.385	-0.235	0.196
-282.516	-29.076	-0.572	0.325
-281.501	-53.515	-0.140	-0.063
-280.486	33.204	0.532	0.457
-279.472	-23.253	0.699	0.417
-278.457	800.000	-0.069	-0.244
-277.443	-61.961	-1.053	0.436
-276.428	-25.770	0.624	0.365
-275.413	-200.000	-0.046	-0.319
-274.399	800.000	-0.205	0.616
-273.384	800.000	0.174	0.549
-272.370	-200.000	0.010	0.071
-271.355	-200.000	-0.023	0.326
-270.340	100.222	0.348	-0.400
-269.326	24.676	-0.216	0.177
-268.311	238.018	-0.546	0.898
-267.297	-200.000	-0.093	0.422
-266.282	80.835	0.377	-0.403
-265.267	-83.136	0.251	-0.080
-264.253	395.484	0.363	0.750
-263.238	-173.495	0.513	0.015
-262.224	-66.618	0.586	-0.230
-261.209	275.178	-0.050	-0.087
-260.195	262.388	-0.201	0.345
-259.180	97.196	-0.084	0.096
-258.165	-84.676	1.256	-0.392
-257.151	-200.000	0.114	0.962
-256.136	162.397	-0.101	0.140
-255.122	-180.576	-0.762	0.016
-254.107	197.159	0.245	-0.371
-253.092	241.394	-0.339	0.561
-252.078	156.155	0.074	-0.101
-251.063	-200.000	0.053	-0.713
-250.049	85.311	-0.325	0.353
-249.034	-126.240	0.618	-0.091
-248.019	-164.277	1.055	0.048
-247.005	-176.204	-0.636	-0.017
-245.990	187.623	0.320	0.473
-244.976	124.772	0.250	0.312
-243.961	-186.801	-0.414	-0.006
-242.946	-144.629	0.633	-0.058
-241.932	-200.000	-0.036	0.310
-240.917	395.264	-0.290	-0.599
-239.903	153.489	-0.368	-0.499
-238.888	52.666	-0.545	0.515
-237.873	269.638	-0.344	-0.598
-236.859	343.299	-0.138	0.267
-235.844	-0.642	-0.457	0.321
-234.830	399.925	-0.269	0.558
-233.815	22.580	0.646	-0.523
-232.800	-91.966	-0.586	-0.164
-231.786	112.354	-0.309	0.369
-230.771	-108.794	0.233	-0.049
-229.757	800.000	-0.053	0.211
-228.742	45.102	-0.494	0.450
-227.727	392.525	-0.712	1.465
-226.713	-200.000	-0.063	-0.671
-225.698	259.519	0.317	-0.541
-224.684	19.574	-0.335	-0.266
-223.669	-122.874	0.942	0.150
-222.655	-175.008	0.404	-0.011
-221.640	-91.994	-0.888	-0.249
-220.625	800.000	0.212	-0.607
-219.611	590.358	-0.442	1.078
-218.596	197.311	-0.319	-0.481
-217.582	-9.119	-1.023	-0.677
-216.567	-6.797	-0.860	0.579
-215.552	7.298	0.147	0.108
-214.538	800.000	-0.184	-0.524
-213.523	74.948	-0.111	0.115
-212.509	30.890	-0.216	-0.183
-211.494	-139.296	-0.499	-0.053
-210.479	800.000	0.357	1.000
-209.465	438.126	0.438	0.944
-208.450	-27.069	-0.087	-0.050
-207.436	88.399	0.397	-0.436
-206.421	24.450	0.347	0.283
-205.406	127.072	-0.119	-0.149
-204.392	-63.860	-0.485	-0.196
-203.377	210.603	-0.128	-0.199
-202.363	50.776	-0.031	-0.029
-201.348	-79.551	0.386	-0.129
-200.333	-200.000	0.007	-0.430
-199.319	399.893	0.158	-0.326
-198.304	-168.711	-0.412	-0.015
-197.290	-200.000	-0.037	-1.296
-196.275	-149.356	-0.721	-0.057
-195.260	462.347	0.045	0.099
-194.246	193.982	0.430	0.643
-193.231	-67.604	1.020	0.395
-192.217	-65.639	-0.789	-0.313
-191.202	54.257	-0.187	-0.178
-190.187	800.000	-0.181	-0.654
-189.173	-158.673	-0.384	-0.022
-188.158	127.406	0.349	0.437
-187.144	-200.000	0.013	0.190
-186.129	3.255	-0.500	0.360
-185.114	-53.170	-0.883	-0.401
-184.100	-82.628	0.849	0.272
-183.085	-65.313	-0.292	0.116
-182.071	800.000	0.195	-0.572
-181.056	-134.998	-0.339	0.040
-180.042	-4.551	0.393	-0.268
-179.027	632.314	0.180	-0.451
-178.012	-47.573	0.766	0.367
-176.998	-73.651	0.186	-0.067
-175.983	29.402	0.277	-0.233
-174.969	-145.120	-0.251	-0.023
-173.954	-200.000	-0.025	0.612
-172.939	-200.000	0.073	-0.606
-171.925	-94.576	0.736	-0.198
-170.910	-200.000	-0.041	-0.583
-169.896	-76.802	0.332	0.115
-168.881	-23.955	0.309	0.182
-167.866	-84.273	-0.341	-0.107
-166.852	-26.618	0.401	0.232
-165.837	39.292	-0.254	-0.224
-164.823	-89.089	-0.166	-0.048
-163.808	-200.000	-0.070	-0.615
-162.793	5.719	-0.634	0.463
-161.779	-0.979	0.097	0.068
-160.764	38.743	-0.709	0.624
-159.750	-106.939	0.678	-0.148
-158.735	-200.000	-0.020	-0.774
-157.720	-42.116	-0.215	0.109
-156.706	31.741	0.282	0.239
-155.691	-97.692	0.872	0.223
-154.677	800.000	-0.149	-0.502
-153.662	-121.055	0.682	0.113
-152.647	-76.558	0.560	-0.194
-151.633	175.623	0.118	-0.169
-150.618	34.087	-0.380	0.327
-149.604	-200.000	-0.092	0.888
-148.589	-38.663	-1.206	0.628
-147.574	12.618	-0.773	0.588
-146.560	-200.000	-0.065	0.516
-145.545	-164.635	0.142	-0.006
-144.531	522.816	-0.240	0.555
-143.516	-99.594	0.750	-0.186
-142.502	-3.040	-0.570	-0.392
-141.487	240.627	-0.436	0.718
-140.472	31.341	-0.535	0.453
-139.458	-158.641	0.470	0.027
-138.443	86.175	-0.311	0.338
-137.429	-28.964	0.715	0.405
-136.414	-0.195	0.154	0.108
-135.399	115.085	-0.405	-0.487
-134.385	-76.912	0.161	-0.055
-133.370	685.687	-0.144	0.372
-132.356	3.331	0.138	0.099
-131.341	197.624	-0.632	-0.951
-130.326	44.869	0.364	-0.330
-129.312	-142.302	-0.053	-0.005
-128.297	-183.156	0.276	0.005
-127.283	-90.619	-0.323	-0.092
-126.268	-79.244	-0.314	-0.105
-125.253	800.000	-0.013	-0.045
-124.239	800.000	0.144	0.551
-123.224	-172.905	-0.045	-0.001
-122.210	29.383	-0.744	0.623
-121.195	800.000	-0.077	0.328
-120.180	599.499	0.236	0.578
-119.166	77.283	0.292	0.306
-118.151	-70.443	-0.472	0.176
-117.137	265.341	0.135	-0.232
-116.122	-30.590	-0.417	0.233
-115.107	375.797	-0.492	0.989
-114.093	17.186	0.183	0.143
-113.078	395.632	-0.191	-0.393
-112.064	-99.304	-0.296	-0.074
-111.049	-200.000	0.017	-0.329
-110.034	-200.000	0.035	-0.200
-109.020	-28.880	-0.597	-0.338
-108.005	41.815	0.811	-0.724
-106.991	-26.894	0.378	0.217
-105.976	-28.603	-0.515	-0.292
-104.962	800.000	-0.238	0.674
-103.947	-21.717	-0.501	-0.300
-102.932	-65.091	0.350	0.139
-101.918	-109.392	0.409	0.085
-100.903	77.683	-0.382	0.401
-99.889	-200.000	-0.118	0.696
-98.874	77.068	0.894	0.936
-97.859	-119.141	-1.264	-0.217
-96.845	58.393	0.232	0.224
-95.830	800.000	0.150	0.438
-94.816	800.000	0.089	0.260
-93.801	456.549	-0.082	0.179
-92.786	42.839	0.661	-0.593
-91.772	129.092	-0.150	-0.188
-90.757	154.228	0.213	0.288
-89.743	43.423	0.206	-0.185
-88.728	-65.062	0.334	-0.133
-87.713	-100.139	-0.823	-0.202
-86.699	-13.777	-0.250	-0.159
-85.684	1.399	-0.149	0.105
-84.670	800.000	-0.181	0.546
-83.655	277.331	-0.121	-0.211
-82.640	-200.000	0.031	-0.273
-81.626	201.665	-0.510	0.773
-80.611	114.961	0.330	0.396
-79.597	-80.357	0.204	-0.067
-78.582	468.238	0.637	-1.406
-77.567	7.816	-0.393	-0.290
-76.553	-139.129	-0.601	-0.064
-75.538	165.148	-0.153	-0.212
-74.524	203.771	-0.275	-0.419
-73.509	-200.000	-0.023	0.322
-72.494	-200.000	-0.072	-0.933
-71.480	-115.385	-0.068	-0.013
-70.465	-92.860	-0.356	-0.098
-69.451	800.000	0.115	-0.421
-68.436	129.281	-0.580	0.728
-67.422	-5.538	0.172	-0.116
-66.407	27.910	0.456	-0.378
-65.392	135.517	-0.605	0.773
-64.378	29.745	0.513	0.429
-63.363	44.869	-0.184	0.166
-62.349	-149.741	-0.261	0.020
-61.334	-86.407	-0.584	-0.176
-60.319	455.161	0.202	0.440
-59.305	251.170	-0.601	-1.005
-58.290	534.535	0.688	1.602
-57.276	676.765	0.612	1.563
-56.261	-200.000	95.121	574.701
-55.246	657.461	1362.466	3442.166
-54.232	201.324	2537.630	3839.662
-53.217	112.474	2252.261	2678.031
-52.203	42.369	1883.163	1682.280
-51.188	36.306	1672.825	1448.978
-50.173	33.542	1630.684	1392.151
-49.159	52.034	1680.189	1572.597
-48.144	53.117	1694.518	1593.994
-47.130	35.856	1656.555	1431.313
-46.115	33.052	1642.131	1398.079
-45.100	32.958	1636.910	1392.882
-44.086	32.896	1633.549	1389.511
-43.071	32.592	1631.717	1385.664
-42.057	32.740	1628.103	1383.627
-41.042	33.081	1626.093	1384.364
-40.027	32.970	1624.139	1381.831
-39.013	32.738	1624.356	1380.265
-37.998	32.894	1620.688	1378.229
-36.984	32.774	1620.471	1377.114
-35.969	33.045	1618.856	1377.667
-34.954	33.054	1616.440	1375.620
-33.940	32.927	1615.738	1374.040
-32.925	33.019	1614.008	1373.188
-31.911	33.103	1611.437	1371.553
-30.896	33.001	1609.612	1369.205
-29.881	32.914	1609.492	1368.419
-28.867	33.024	1606.426	1366.552
-27.852	32.900	1606.558	1365.718
-26.838	32.948	1604.647	1364.383
-25.823	33.274	1601.785	1364.247
-24.809	33.036	1600.253	1361.170
-23.794	32.884	1599.772	1359.614
-22.779	33.146	1596.616	1358.763
-21.765	33.081	1596.489	1358.135
-20.750	32.918	1595.450	1356.022
-19.736	32.995	1593.441	1354.817
-18.721	33.030	1591.770	1353.589
-17.706	33.231	1589.495	1353.043
-16.692	33.011	1588.634	1350.685
-15.677	32.820	1588.430	1349.088
-14.663	32.956	1586.166	1348.084
-13.648	33.206	1584.220	1348.161
-12.633	32.970	1583.790	1346.057
-11.619	33.006	1582.178	1344.891
-10.604	32.957	1579.851	1342.512
-9.590	33.028	1578.926	1342.177
-8.575	33.077	1577.554	1341.306
-7.560	33.168	1576.485	1340.986
-6.546	33.182	1575.190	1339.929
-5.531	32.941	1574.730	1337.781
-4.517	33.062	1573.660	1337.676
-3.502	33.002	1572.218	1335.968
-2.487	32.932	1572.029	1335.260
-1.473	32.697	1557.591	1321.297
-0.458	29.963	1538.372	1285.989
0.556	27.306	1538.323	1252.383
1.571	24.874	1561.455	1254.084
2.586	24.389	1573.272	1260.041
3.600	21.526	1522.069	1199.332
4.615	12.353	1413.749	1055.217
5.629	4.474	1348.496	957.988
6.644	2.877	1340.797	942.635
7.659	3.123	1339.057	942.832
8.673	2.866	1338.233	940.597
9.688	3.014	1335.922	939.795
10.702	2.737	1331.635	935.008
11.717	6.424	1339.622	963.110
12.731	15.804	1356.921	1033.314
13.746	23.237	1369.333	1088.559
14.761	24.593	1370.854	1098.011
15.775	24.927	1370.144	1099.399
16.790	25.175	1369.055	1099.946
17.804	25.171	1368.560	1099.428
18.819	25.608	1368.321	1101.814
19.834	25.379	1367.545	1099.688
20.848	25.485	1366.364	1099.294
21.863	25.383	1365.985	1098.268
22.877	25.393	1365.040	1097.468
23.892	25.567	1364.113	1097.690
24.907	25.695	1362.885	1097.384
25.921	25.635	1362.656	1096.740
26.936	25.396	1361.963	1094.625
27.950	25.438	1361.772	1094.632
28.965	25.325	1359.319	1091.877
29.980	25.568	1358.905	1092.926
30.994	25.266	1358.120	1090.359
32.009	25.478	1357.267	1090.866
33.023	25.593	1355.483	1090.036
34.038	25.397	1354.845	1088.238
35.053	25.534	1354.373	1088.590
36.067	25.723	1352.174	1087.868
37.082	25.426	1351.549	1085.478
38.096	25.410	1350.831	1084.710
39.111	25.533	1350.230	1084.871
40.126	25.813	1349.615	1085.971
41.140	25.515	1349.503	1083.989
42.155	25.409	1348.958	1082.814
43.169	25.734	1347.904	1083.827
44.184	25.742	1347.368	1083.353
45.199	25.663	1347.682	1083.034
46.213	25.538	1348.254	1082.640
47.228	25.397	1347.608	1081.180
48.242	25.513	1345.830	1080.355
49.257	25.506	1344.359	1079.038
50.271	25.595	1341.768	1077.392
51.286	25.355	1340.781	1075.067
52.301	25.285	1340.844	1074.608
53.315	25.632	1339.247	1075.306
54.330	25.607	1337.857	1073.945
55.344	25.653	1336.816	1073.286
56.359	25.502	1336.927	1072.381
57.374	25.551	1336.007	1071.841
58.388	25.378	1334.790	1069.739
59.403	25.585	1334.975	1071.029
60.417	25.773	1333.631	1070.974
61.432	25.454	1334.563	1069.726
62.447	25.453	1333.334	1068.642
63.461	25.497	1331.798	1067.578
64.476	25.529	1331.847	1067.710
65.490	25.560	1330.634	1066.825
66.505	25.690	1327.910	1065.318
67.520	25.500	1327.169	1063.507
68.534	25.400	1326.357	1062.171
69.549	25.639	1325.041	1062.437
70.563	25.372	1324.449	1060.291
71.578	25.559	1323.505	1060.541
72.593	25.451	1322.529	1059.034
73.607	25.791	1321.569	1060.168
74.622	25.838	1320.921	1059.836
75.636	25.463	1320.758	1057.399
76.651	25.582	1319.926	1057.344
77.666	25.493	1320.819	1057.437
78.680	25.729	1319.622	1057.776
79.695	25.824	1318.363	1057.229
80.709	25.792	1316.878	1055.757
81.724	25.643	1316.880	1054.793
82.739	25.685	1316.072	1054.297
83.753	25.741	1314.670	1053.410
84.768	25.646	1313.049	1051.464
85.782	25.728	1312.110	1051.096
86.797	25.699	1311.730	1050.530
87.812	25.518	1310.802	1048.637
88.826	25.656	1309.422	1048.243
89.841	25.399	1309.785	1046.943
90.855	25.576	1307.736	1046.242
91.870	25.847	1306.674	1046.878
92.884	25.441	1307.171	1044.825
93.899	25.383	1306.262	1043.664
94.914	25.765	1304.111	1044.074
95.928	25.736	1303.700	1043.483
96.943	25.763	1302.622	1042.683
97.957	25.734	1302.897	1042.644
98.972	25.691	1301.629	1041.285
99.987	25.546	1300.748	1039.650
101.001	25.600	1300.376	1039.575
102.016	25.589	1299.780	1038.943
103.030	25.758	1298.133	1038.511
104.045	26.076	1296.285	1038.770
105.060	25.730	1296.181	1036.601
106.074	25.574	1295.133	1034.774
107.089	25.787	1293.998	1034.999
108.103	25.723	1292.464	1033.317
109.118	25.808	1292.146	1033.458
110.133	25.813	1290.347	1031.958
111.147	25.752	1289.103	1030.522
112.162	25.745	1288.615	1030.000
113.176	25.888	1288.055	1030.276
114.191	25.872	1286.912	1029.181
115.206	25.559	1286.446	1026.931
116.220	25.882	1285.065	1027.577
117.235	25.765	1284.184	1026.114
118.249	25.815	1282.058	1024.613
119.264	25.665	1281.339	1023.093
120.279	25.630	1281.187	1022.682
121.293	25.751	1280.986	1023.118
122.308	25.846	1279.943	1022.733
123.322	25.706	1279.025	1021.114
124.337	25.655	1278.287	1020.147
125.352	25.851	1277.845	1020.818
126.366	25.987	1276.280	1020.244
127.381	25.785	1275.422	1018.329
128.395	25.935	1274.032	1017.976
129.410	25.874	1273.754	1017.320
130.424	25.702	1273.527	1016.073
131.439	25.763	1272.892	1015.821
132.454	25.806	1271.649	1014.984
133.468	25.709	1270.607	1013.517
134.483	25.841	1269.743	1013.482
135.497	26.051	1268.090	1013.251
136.512	25.837	1268.532	1012.310
137.527	25.970	1266.502	1011.347
138.541	25.872	1265.729	1010.091
139.556	25.784	1264.552	1008.569
140.570	25.635	1264.693	1007.760
141.585	25.610	1263.037	1006.208
142.600	25.682	1262.095	1005.771
143.614	25.790	1260.977	1005.397
144.629	25.648	1260.852	1004.418
145.643	25.665	1259.032	1002.971
146.658	25.420	1258.898	1001.410
147.673	25.825	1257.397	1002.382
148.687	25.442	1256.928	999.788
149.702	25.629	1254.733	998.995
150.716	25.851	1253.332	999.021
151.731	25.876	1253.255	999.009
152.746	25.842	1251.129	997.039
153.760	25.925	1250.719	997.079
154.775	25.880	1249.930	996.114
155.789	25.878	1248.985	995.262
156.804	25.809	1248.302	994.249
157.819	25.717	1246.764	992.429
158.833	26.076	1246.323	993.970
159.848	25.965	1245.800	992.853
160.862	25.898	1244.634	991.468
161.877	26.129	1243.163	991.477
162.892	25.728	1243.876	989.754
163.906	26.144	1242.372	990.755
164.921	26.147	1241.887	990.293
165.935	25.803	1241.414	987.942
166.950	25.804	1241.719	988.102
167.964	25.982	1239.192	986.980
168.979	25.919	1240.324	987.451
169.994	26.124	1238.661	987.159
171.008	26.085	1238.501	986.733
172.023	25.736	1237.501	983.939
173.037	25.979	1236.535	984.410
174.052	26.087	1235.568	984.145
175.067	25.989	1234.288	982.504
176.081	25.955	1234.218	982.175
177.096	26.115	1233.585	982.455
178.110	25.830	1232.979	980.338
179.125	26.225	1231.055	980.862
180.140	26.030	1230.402	979.200
181.154	25.923	1230.026	978.235
182.169	26.091	1228.040	977.479
183.183	26.333	1226.569	977.527
184.198	26.008	1226.410	975.556
185.213	26.057	1224.940	974.564
186.227	26.089	1224.596	974.379
187.242	25.950	1223.977	973.053
188.256	25.813	1223.348	971.725
189.271	25.887	1221.328	970.431
190.286	25.880	1221.791	970.676
191.300	25.837	1220.224	969.115
192.315	25.916	1220.605	969.755
193.329	26.189	1219.417	970.194
194.344	25.934	1219.768	969.020
195.359	26.058	1217.522	967.811
196.373	25.934	1217.424	966.985
197.388	25.854	1218.189	967.077
198.402	25.857	1217.448	966.421
199.417	25.961	1216.178	965.881
200.432	26.128	1215.861	966.442
201.446	25.828	1215.566	964.516
202.461	26.339	1213.939	965.870
203.475	26.029	1213.682	963.921
204.490	26.089	1211.998	962.818
205.504	26.093	1211.504	962.364
206.519	26.095	1209.963	961.067
207.534	26.030	1209.830	960.528
208.548	26.154	1209.091	960.516
209.563	25.886	1208.067	958.195
210.577	25.764	1207.974	957.384
211.592	26.097	1206.096	957.581
212.607	26.219	1206.137	958.174
213.621	26.328	1204.847	957.643
214.636	25.883	1204.924	955.264
215.650	26.019	1203.630	954.869
216.665	26.106	1202.779	954.574
217.680	26.113	1200.779	952.939
218.694	26.029	1201.100	952.662
219.709	25.867	1200.089	950.923
220.723	26.137	1198.958	951.366
221.738	26.260	1197.684	950.919
222.753	25.997	1198.042	949.735
223.767	26.039	1197.928	949.777
224.782	26.248	1197.038	950.087
225.796	26.212	1197.270	950.001
226.811	26.400	1194.904	949.027
227.826	26.256	1194.460	947.833
228.840	25.847	1195.549	946.467
229.855	25.957	1195.125	946.622
230.869	26.010	1193.346	945.408
231.884	25.845	1193.434	944.530
232.899	25.870	1191.972	943.423
233.913	25.933	1191.185	943.046
234.928	26.311	1190.238	944.184
235.942	26.235	1188.913	942.655
236.957	26.113	1189.486	942.386
237.972	25.970	1188.757	940.982
238.986	26.071	1187.858	940.714
240.001	26.041	1187.105	939.876
241.015	26.176	1186.765	940.228
242.030	26.193	1186.350	939.906
243.045	26.146	1185.035	938.533
244.059	26.277	1183.876	938.213
245.074	26.074	1183.499	936.780
246.088	26.050	1182.877	936.081
247.103	26.550	1181.121	937.194
248.117	26.377	1180.433	935.669
249.132	26.380	1180.867	935.949
250.147	26.194	1179.492	933.813
251.161	26.063	1179.565	933.109
252.176	26.596	1178.471	934.918
253.190	26.319	1177.500	932.636
254.205	26.549	1176.754	933.146
255.220	26.339	1177.050	932.216
256.234	26.644	1175.686	932.626
257.249	26.248	1175.016	929.971
258.263	26.431	1174.272	930.240
259.278	26.359	1173.849	929.454
260.293	26.576	1173.058	929.863
261.307	26.361	1173.595	929.099
262.322	26.454	1171.963	928.202
263.336	26.270	1171.204	926.577
264.351	26.086	1171.163	925.518
265.366	26.216	1170.673	925.714
266.380	26.534	1169.238	926.127
267.395	26.277	1168.746	924.341
268.409	26.335	1168.679	924.500
269.424	26.293	1168.700	924.222
270.439	26.308	1167.006	922.875
271.453	26.597	1165.676	923.216
272.468	26.370	1164.994	921.436
273.482	26.282	1165.424	921.246
274.497	26.650	1164.022	921.930
275.512	26.556	1163.078	920.622
276.526	26.344	1163.240	919.590
277.541	26.233	1163.296	918.990
278.555	26.005	1162.777	917.341
279.570	26.359	1161.826	918.305
280.585	26.264	1161.199	917.246
281.599	26.342	1160.027	916.636
282.614	26.248	1159.538	915.694
283.628	26.281	1157.934	914.515
284.643	26.519	1156.844	914.776
285.657	26.741	1154.878	914.257
286.672	26.642	1154.513	913.391
287.687	26.620	1154.641	913.298
288.701	26.782	1153.273	912.950
289.716	26.454	1152.635	910.715
290.730	26.026	1153.372	909.059
291.745	26.493	1151.177	909.598
292.760	26.552	1150.532	909.306
293.774	26.274	1150.784	908.027
294.789	26.575	1149.522	908.461
295.803	26.318	1149.906	907.395
296.818	26.393	1148.163	906.312
297.833	26.537	1148.376	907.125
298.847	26.784	1146.738	906.983
299.862	26.595	1146.271	905.592
300.876	26.514	1146.043	904.924
301.891	26.707	1146.140	905.886
302.906	26.639	1144.997	904.564
303.920	26.737	1144.341	904.451
304.935	26.642	1143.090	902.914
305.949	26.592	1142.651	902.234
306.964	26.746	1142.091	902.481
307.979	26.931	1141.474	902.836
308.993	26.412	1140.676	899.542
310.008	26.482	1140.347	899.550
311.022	26.684	1139.280	899.632
312.037	26.664	1138.643	898.951
313.052	26.678	1137.991	898.425
314.066	26.564	1136.941	896.953
315.081	26.787	1135.778	897.060
316.095	26.486	1135.553	895.312
317.110	26.415	1134.772	894.266
318.125	26.278	1134.723	893.473
319.139	26.603	1132.752	893.444
320.154	26.424	1133.035	892.706
321.168	26.475	1133.077	892.913
322.183	26.805	1130.784	892.649
323.197	26.609	1130.409	891.310
324.212	26.736	1129.766	891.351
325.227	26.853	1128.837	891.111
326.241	26.766	1129.080	890.798
327.256	26.634	1128.734	889.795
328.270	26.761	1127.662	889.496
329.285	26.523	1127.122	887.826
330.300	26.841	1125.540	888.057
331.314	26.810	1125.269	887.613
332.329	26.690	1124.583	886.407
333.343	26.728	1123.648	885.776
334.358	26.577	1123.931	885.185
335.373	26.684	1123.468	885.264
336.387	26.537	1121.887	883.222
337.402	26.762	1121.201	883.699
338.416	26.718	1121.317	883.498
339.431	26.802	1120.178	882.934
340.446	26.631	1119.014	881.104
341.460	26.914	1118.434	881.945
342.475	26.764	1117.702	880.564
343.489	26.816	1116.829	880.050
344.504	26.723	1116.141	878.977
345.519	26.938	1115.036	879.074
346.533	26.741	1114.918	877.949
347.548	26.994	1113.500	877.978
348.562	26.836	1111.802	875.795
349.577	26.748	1111.765	875.267
350.592	26.867	1111.217	875.332
351.606	26.569	1111.294	873.876
352.621	26.668	1110.551	873.692
353.635	26.795	1109.565	873.449
354.650	26.794	1109.208	873.090
355.665	26.685	1108.562	871.979
356.679	26.763	1108.120	871.930
357.694	26.810	1107.634	871.693
358.708	26.924	1106.275	871.092
359.723	26.778	1106.271	870.315
360.738	26.704	1105.040	868.914
361.752	26.928	1104.826	869.743
362.767	26.911	1104.540	869.358
363.781	26.769	1103.263	867.597
364.796	26.694	1103.792	867.577
365.810	27.041	1102.435	868.094
366.825	26.890	1101.407	866.486
367.840	27.040	1101.410	867.128
368.854	27.022	1100.463	866.217
369.869	26.568	1101.119	864.493
370.883	27.020	1098.180	864.260
371.898	26.782	1097.941	862.862
372.913	26.384	1098.633	861.432
373.927	26.921	1098.056	863.461
374.942	26.885	1096.834	862.252
375.956	26.800	1096.595	861.584
376.971	26.587	1096.503	860.424
377.986	26.960	1095.367	861.225
379.000	27.277	1094.033	861.602
380.015	27.257	1093.280	860.840
381.029	26.905	1093.527	859.293
382.044	26.851	1092.736	858.339
383.059	26.829	1092.295	857.811
384.073	27.151	1090.766	858.058
385.088	26.986	1089.918	856.536
386.102	26.899	1089.222	855.499
387.117	26.720	1089.117	854.498
388.132	26.502	1088.551	852.950
389.146	26.958	1087.541	854.231
390.161	26.881	1085.952	852.548
391.175	26.943	1086.261	853.006
392.190	26.868	1085.343	851.857
393.205	26.823	1085.146	851.413
394.219	26.688	1084.036	849.834
395.234	26.939	1082.721	849.903
396.248	26.894	1082.193	849.206
397.263	26.737	1080.621	847.164
398.278	26.808	1080.545	847.360
399.292	26.888	1079.779	847.059
400.307	26.746	1079.755	846.301
401.321	26.853	1079.199	846.290
402.336	26.740	1078.845	845.409
403.350	26.989	1076.517	844.671
404.365	27.331	1075.283	845.215
405.380	26.853	1076.266	843.692
406.394	26.677	1075.674	842.334
407.409	26.857	1074.377	842.078
408.423	27.015	1073.249	841.853
409.438	26.903	1073.520	841.471
410.453	26.894	1072.589	840.624
411.467	27.036	1071.735	840.539
412.482	26.904	1071.289	839.506
413.496	26.811	1071.105	838.857
414.511	27.031	1069.775	838.755
415.526	26.977	1069.373	838.119
416.540	26.844	1069.263	837.345
417.555	26.842	1068.464	836.633
418.569	26.775	1068.510	836.286
419.584	26.831	1068.031	836.097
420.599	26.816	1067.338	835.408
421.613	152.803	1404.726	1793.273
422.628	140.641	1453.849	1793.354
