DTS Sentinel unit serial number:	SN413079Multiplexer serial number:	ORYXHardware model number:	OX4-SRSoftware version number:	ORYX F/W v4.00 Oryx Data Collector v3.7.2.0data status	okinstallation	princeton_trtdifferential loss correction	single-endedforward channel	channel 2reverse channel	N/Adate	2019/09/13time	06:19:35forward acquisition time	60.00reverse acquisition time	0.00gamma	496.2192k internal	0.2338k external	0.2338temperature offset calibration	1.0193default loss term (dB/km)	0.3790temperature slope calibration	1.0000multiplexer offset coefficient	1.0000multiplexer slope coefficient	1.0000fibre end	0.00T internal ref (°C)	26.12T ext. ref 1 (°C)	4.08T ext. ref 2 (°C)	20.84length (m)	temperature (°C)	Stokes	anti-Stokes-747.200	-34.429	-0.183	0.101
-746.185	-92.931	-0.517	0.145
-745.171	8.228	-0.264	-0.199
-744.156	-127.070	-0.353	0.052
-743.142	-39.321	-0.072	0.038
-742.127	37.022	0.292	0.259
-741.112	-200.000	0.014	0.143
-740.098	29.231	-0.126	-0.108
-739.083	-109.275	-0.204	0.043
-738.069	32.470	-0.236	-0.205
-737.054	-1.692	0.159	-0.112
-736.039	-89.013	-0.460	-0.137
-735.025	-89.379	0.203	0.060
-734.010	-72.107	-0.261	0.097
-732.996	-41.619	0.097	-0.050
-731.981	800.000	-0.049	-0.149
-730.966	5.487	0.126	-0.093
-729.952	83.272	0.164	0.179
-728.937	800.000	-0.019	0.076
-727.923	8.602	-0.209	0.158
-726.908	800.000	0.087	-0.331
-725.894	-2.530	0.277	-0.194
-724.879	800.000	0.073	-0.311
-723.864	30.239	-0.097	-0.083
-722.850	800.000	0.109	-0.338
-721.835	-61.742	-0.100	-0.042
-720.821	800.000	-0.086	-0.243
-719.806	-106.882	-0.095	-0.021
-718.791	-157.478	-0.172	-0.010
-717.777	299.779	-0.111	-0.205
-716.762	271.826	0.067	-0.118
-715.748	-85.403	-0.244	-0.076
-714.733	-134.372	-0.311	0.038
-713.718	-200.000	-0.024	-0.195
-712.704	800.000	0.038	-0.136
-711.689	-200.000	-0.007	-0.317
-710.675	-41.045	0.121	0.062
-709.660	11.167	0.047	-0.036
-708.645	16.467	-0.379	-0.300
-707.631	518.572	-0.045	-0.105
-706.616	230.026	-0.147	0.241
-705.602	-200.000	0.001	0.077
-704.587	295.060	0.116	0.213
-703.572	-3.567	-0.300	0.209
-702.558	226.435	-0.071	-0.115
-701.543	-200.000	-0.070	0.380
-700.529	276.473	-0.079	0.140
-699.514	-200.000	-0.014	-0.109
-698.499	800.000	-0.020	-0.068
-697.485	570.151	-0.018	0.044
-696.470	-90.985	-0.363	-0.105
-695.456	800.000	-0.106	-0.299
-694.441	800.000	0.036	-0.109
-693.426	-41.371	0.080	-0.041
-692.412	331.191	0.090	-0.174
-691.397	571.339	-0.116	-0.283
-690.383	-200.000	-0.003	0.079
-689.368	-81.300	0.350	0.116
-688.354	-200.000	0.036	0.175
-687.339	202.278	0.158	0.244
-686.324	-184.876	0.297	-0.005
-685.310	724.492	-0.071	0.189
-684.295	202.055	-0.097	0.150
-683.281	-181.300	-0.273	0.005
-682.266	800.000	-0.137	-0.390
-681.251	-119.381	0.244	0.042
-680.237	800.000	-0.015	-0.051
-679.222	-126.568	-0.152	-0.023
-678.208	119.092	-0.133	0.165
-677.193	-153.105	0.182	0.013
-676.178	-159.958	-0.067	-0.004
-675.164	-200.000	0.030	-0.157
-674.149	91.788	-0.061	0.069
-673.135	-74.440	0.304	-0.110
-672.120	-200.000	-0.005	0.180
-671.105	109.930	0.111	-0.133
-670.091	800.000	0.022	-0.061
-669.076	-86.223	-0.262	-0.081
-668.062	75.510	0.193	-0.204
-667.047	-16.679	0.066	0.042
-666.032	-42.742	0.151	0.077
-665.018	-171.313	0.189	-0.006
-664.003	800.000	0.036	0.145
-662.989	167.528	-0.253	0.360
-661.974	-157.683	0.169	-0.010
-660.959	-200.000	0.002	0.275
-659.945	-156.781	0.070	0.004
-658.930	-81.915	-0.103	-0.034
-657.916	-84.359	0.338	0.107
-656.901	800.000	-0.048	0.191
-655.886	-63.520	0.050	-0.020
-654.872	19.837	0.104	0.084
-653.857	-7.780	-0.229	0.155
-652.843	19.347	0.233	-0.187
-651.828	169.429	-0.060	0.085
-650.814	66.214	0.199	-0.202
-649.799	-5.618	-0.171	-0.117
-648.784	-43.012	-0.151	-0.077
-647.770	112.700	0.101	-0.122
-646.755	-73.416	-0.172	-0.063
-645.741	-71.342	-0.492	-0.184
-644.726	-200.000	-0.003	-0.266
-643.711	71.190	-0.066	-0.068
-642.697	-200.000	-0.006	-0.404
-641.682	-98.580	-0.313	0.080
-640.668	-42.222	-0.344	0.176
-639.653	800.000	-0.151	0.418
-638.638	800.000	-0.076	0.222
-637.624	-200.000	-0.072	0.542
-636.609	800.000	0.113	-0.331
-635.595	-139.110	-0.187	0.020
-634.580	53.520	-0.080	0.077
-633.565	403.670	-0.077	-0.162
-632.551	376.742	0.110	0.225
-631.536	-75.093	0.244	0.087
-630.522	72.064	-0.011	-0.011
-629.507	149.091	-0.041	-0.056
-628.492	-10.754	-0.159	0.105
-627.478	69.811	-0.270	0.278
-626.463	-6.227	-0.101	0.069
-625.449	800.000	0.091	0.357
-624.434	168.176	-0.236	0.335
-623.419	264.979	0.091	0.159
-622.405	15.392	-0.034	-0.027
-621.390	33.058	0.135	-0.117
-620.376	360.966	0.143	0.287
-619.361	-19.934	-0.192	0.118
-618.346	-15.176	0.154	0.099
-617.332	-43.131	-0.188	-0.095
-616.317	542.697	-0.082	0.194
-615.303	291.987	-0.200	0.363
-614.288	-163.018	0.100	-0.005
-613.273	590.221	-0.062	0.152
-612.259	-48.510	0.108	0.052
-611.244	-200.000	-0.021	-0.102
-610.230	761.398	0.074	0.200
-609.215	-200.000	0.016	-0.221
-608.201	-10.550	-0.224	0.148
-607.186	-200.000	0.010	-0.077
-606.171	104.423	-0.184	-0.216
-605.157	-92.056	-0.213	0.060
-604.142	163.882	0.177	0.248
-603.128	-200.000	-0.014	0.136
-602.113	-103.818	0.305	-0.071
-601.098	800.000	-0.028	0.113
-600.084	-81.247	-0.225	0.074
-599.069	20.536	-0.108	0.087
-598.055	-200.000	-0.048	-0.292
-597.040	-131.894	0.136	0.018
-596.025	-200.000	0.049	-0.227
-595.011	-111.424	0.213	-0.043
-593.996	128.516	-0.184	0.233
-592.982	297.023	-0.096	0.176
-591.967	-100.906	-0.172	0.042
-590.952	-200.000	0.066	-0.343
-589.938	85.631	-0.092	0.101
-588.923	-200.000	0.007	0.283
-587.909	-110.020	0.223	-0.047
-586.894	387.065	0.120	0.246
-585.879	138.883	-0.311	-0.407
-584.865	578.678	-0.056	-0.137
-583.850	-60.257	-0.175	0.074
-582.836	-200.000	-0.016	-0.376
-581.821	-200.000	0.053	-0.247
-580.806	-73.393	-0.123	0.045
-579.792	-18.344	-0.168	0.105
-578.777	-65.986	0.414	0.165
-577.763	-29.437	0.021	-0.012
-576.748	-200.000	-0.081	-0.413
-575.733	-23.721	0.083	0.050
-574.719	-200.000	-0.010	0.058
-573.704	800.000	0.082	-0.338
-572.690	388.489	-0.127	0.262
-571.675	29.920	0.143	-0.122
-570.661	-200.000	0.011	-0.077
-569.646	-86.812	0.141	0.043
-568.631	-200.000	0.110	0.581
-567.617	-200.000	-0.006	0.205
-566.602	35.256	-0.064	0.056
-565.588	800.000	0.075	-0.318
-564.573	233.962	0.046	0.076
-563.558	385.439	0.241	0.495
-562.544	-144.145	-0.292	-0.027
-561.529	-200.000	-0.017	-0.195
-560.515	-200.000	0.009	0.286
-559.500	5.285	-0.188	0.138
-558.485	-73.084	0.052	-0.019
-557.471	215.655	-0.121	0.191
-556.456	140.941	-0.180	0.236
-555.442	507.471	0.031	0.071
-554.427	-29.235	-0.147	0.084
-553.412	16.464	-0.125	-0.098
-552.398	-130.499	0.356	-0.048
-551.383	800.000	0.035	-0.129
-550.369	-45.144	-0.135	-0.067
-549.354	-200.000	0.029	0.176
-548.339	-107.346	-0.201	0.044
-547.325	-200.000	-0.051	0.313
-546.310	634.677	0.121	-0.305
-545.296	21.731	0.146	0.118
-544.281	614.612	0.124	-0.309
-543.266	-42.934	0.224	0.113
-542.252	-60.220	0.282	0.120
-541.237	-87.749	0.495	0.149
-540.223	-200.000	0.006	0.355
-539.208	-53.977	0.391	-0.177
-538.193	260.275	-0.105	-0.181
-537.179	198.340	0.026	0.040
-536.164	520.748	0.092	-0.215
-535.150	-79.801	-0.037	-0.013
-534.135	234.113	0.038	-0.063
-533.121	-200.000	-0.030	0.413
-532.106	-200.000	-0.022	0.166
-531.091	-100.090	-0.346	0.086
-530.077	800.000	-0.084	-0.313
-529.062	39.068	-0.071	-0.064
-528.048	-21.523	0.211	0.128
-527.033	800.000	-0.018	-0.077
-526.018	-101.894	-0.163	0.039
-525.004	-62.295	-0.264	-0.109
-523.989	-27.374	0.106	0.061
-522.975	-200.000	-0.050	0.349
-521.960	-20.629	-0.115	0.070
-520.945	-37.748	-0.276	0.146
-519.931	-91.341	0.164	0.047
-518.916	-200.000	-0.015	-0.156
-517.902	229.267	-0.136	0.220
-516.887	43.311	-0.053	0.048
-515.872	160.323	-0.118	0.163
-514.858	275.396	-0.100	0.176
-513.843	47.989	-0.175	0.163
-512.829	70.379	-0.207	-0.213
-511.814	-54.862	-0.032	-0.014
-510.799	432.283	-0.029	0.063
-509.785	-200.000	0.052	-0.311
-508.770	502.420	0.111	-0.254
-507.756	-8.782	0.202	-0.135
-506.741	-111.160	0.355	-0.072
-505.726	26.548	0.290	0.242
-504.712	131.511	-0.067	-0.086
-503.697	-48.370	0.043	0.020
-502.683	253.103	0.162	0.275
-501.668	-112.300	-0.096	0.019
-500.653	-29.767	-0.124	0.070
-499.639	-200.000	-0.007	-0.267
-498.624	82.496	-0.129	0.139
-497.610	-11.777	0.292	-0.190
-496.595	105.679	0.121	-0.142
-495.581	-122.664	-0.204	-0.033
-494.566	-80.858	0.379	0.125
-493.551	-200.000	-0.028	0.248
-492.537	-7.713	-0.169	0.114
-491.522	553.246	0.024	-0.058
-490.508	7.346	-0.221	0.164
-489.493	144.541	0.122	0.162
-488.478	166.104	-0.162	-0.228
-487.464	-82.839	0.111	0.036
-486.449	-48.682	-0.119	-0.057
-485.435	800.000	-0.080	0.258
-484.420	207.296	-0.135	0.209
-483.405	18.991	-0.250	0.199
-482.391	-95.007	0.065	-0.017
-481.376	566.610	0.089	0.215
-480.362	327.552	-0.225	-0.429
-479.347	127.698	-0.122	-0.154
-478.332	-104.945	0.410	0.093
-477.318	-19.290	-0.277	0.171
-476.303	-200.000	-0.037	-0.180
-475.289	-2.425	0.357	0.249
-474.274	-200.000	0.022	0.176
-473.259	-200.000	0.052	-0.235
-472.245	-200.000	0.035	0.161
-471.230	-27.983	0.324	-0.186
-470.216	-150.603	0.228	-0.017
-469.201	-54.757	-0.170	0.076
-468.186	11.337	0.148	-0.113
-467.172	-135.154	0.144	-0.017
-466.157	291.813	-0.163	0.295
-465.143	15.775	0.028	-0.021
-464.128	45.922	-0.046	0.042
-463.113	800.000	0.022	0.078
-462.099	800.000	-0.046	0.171
-461.084	4.052	-0.088	0.064
-460.070	800.000	-0.087	0.318
-459.055	-200.000	-0.029	0.206
-458.040	6.480	0.173	0.128
-457.026	48.445	-0.169	0.157
-456.011	-65.826	-0.062	-0.024
-454.997	-77.118	0.146	-0.050
-453.982	-93.147	0.120	-0.033
-452.968	-200.000	0.017	-0.079
-451.953	56.653	-0.112	-0.109
-450.938	-168.524	0.258	-0.010
-449.924	15.516	0.195	0.152
-448.909	73.917	-0.247	-0.257
-447.895	56.790	0.157	0.151
-446.880	800.000	-0.009	-0.027
-445.865	-145.226	0.299	0.027
-444.851	-85.446	-0.220	-0.068
-443.836	14.257	-0.183	0.141
-442.822	-12.991	-0.103	0.066
-441.807	165.781	-0.031	0.044
-440.792	-128.414	0.164	-0.023
-439.778	-121.744	-0.314	0.052
-438.763	800.000	-0.033	0.102
-437.749	88.331	-0.104	-0.115
-436.734	-95.845	0.225	0.059
-435.719	-111.833	-0.234	-0.047
-434.705	-128.179	-0.096	0.014
-433.690	-134.666	-0.199	0.024
-432.676	105.750	0.315	-0.369
-431.661	-200.000	0.010	0.097
-430.646	-200.000	-0.024	0.216
-429.632	-42.499	-0.055	0.028
-428.617	-96.346	0.198	0.052
-427.603	-91.619	0.311	-0.088
-426.588	-139.492	0.240	-0.025
-425.573	-26.705	0.143	-0.083
-424.559	-151.673	-0.207	0.015
-423.544	8.557	-0.130	0.097
-422.530	315.217	0.128	0.239
-421.515	638.948	0.086	-0.216
-420.500	507.029	-0.083	-0.190
-419.486	234.809	0.200	-0.328
-418.471	20.935	-0.146	-0.117
-417.457	-200.000	0.044	0.251
-416.442	-200.000	-0.002	-0.388
-415.428	295.743	-0.083	0.150
-414.413	-133.647	0.063	0.008
-413.398	-104.318	-0.110	-0.025
-412.384	800.000	-0.034	-0.125
-411.369	-200.000	-0.014	0.158
-410.355	-67.461	-0.231	-0.090
-409.340	-129.203	0.279	0.039
-408.325	75.903	0.070	-0.073
-407.311	-78.224	-0.270	0.092
-406.296	-97.669	-0.213	0.055
-405.282	22.460	-0.067	-0.054
-404.267	65.507	0.144	-0.144
-403.252	800.000	-0.114	0.331
-402.238	-57.031	0.050	-0.022
-401.223	-153.694	-0.068	0.005
-400.209	-36.779	0.169	0.090
-399.194	-200.000	0.018	-0.082
-398.179	-124.368	0.118	0.018
-397.165	123.324	0.150	0.186
-396.150	190.921	0.155	0.231
-395.136	148.355	0.094	0.126
-394.121	-1.769	-0.229	0.159
-393.106	800.000	-0.026	-0.096
-392.092	329.296	-0.117	-0.222
-391.077	-115.914	0.184	0.034
-390.063	800.000	0.092	-0.268
-389.048	192.742	0.218	-0.326
-388.033	800.000	-0.065	-0.191
-387.019	334.471	0.060	0.116
-386.004	-200.000	0.012	-0.265
-384.990	-101.943	0.082	-0.020
-383.975	55.912	0.153	-0.147
-382.960	125.960	0.276	-0.345
-381.946	-40.430	-0.085	-0.044
-380.931	396.081	-0.061	0.126
-379.917	-144.196	-0.244	-0.023
-378.902	-197.682	0.237	-0.001
-377.888	-146.530	0.248	-0.021
-376.873	-200.000	0.013	-0.061
-375.858	-200.000	-0.049	-0.236
-374.844	-200.000	0.039	-0.266
-373.829	207.099	0.188	-0.290
-372.815	226.212	-0.152	0.243
-371.800	453.594	0.103	-0.226
-370.785	394.665	0.174	0.359
-369.771	334.340	-0.044	-0.084
-368.756	8.003	0.206	0.152
-367.742	-200.000	0.002	-0.113
-366.727	-50.927	-0.331	-0.154
-365.712	41.930	-0.096	-0.086
-364.698	-200.000	0.014	-0.228
-363.683	280.509	0.022	0.038
-362.669	315.294	0.173	-0.323
-361.654	-200.000	-0.038	0.408
-360.639	461.341	-0.085	0.187
-359.625	89.201	-0.015	-0.017
-358.610	-200.000	0.023	0.217
-357.596	382.974	-0.084	-0.171
-356.581	69.226	-0.151	-0.153
-355.566	-139.244	-0.302	-0.032
-354.552	-200.000	-0.021	-0.132
-353.537	347.787	0.133	-0.259
-352.523	-15.029	-0.191	-0.121
-351.508	-93.094	-0.194	-0.053
-350.493	-32.860	0.242	0.133
-349.479	-23.770	-0.095	0.056
-348.464	-158.290	0.388	-0.022
-347.450	-168.681	0.189	-0.007
-346.435	-120.264	-0.156	0.026
-345.420	-200.000	0.005	0.055
-344.406	-100.220	0.314	-0.077
-343.391	-17.321	-0.096	-0.060
-342.377	-200.000	-0.009	0.207
-341.362	102.650	-0.145	-0.168
-340.348	-41.688	-0.393	-0.199
-339.333	278.340	-0.079	-0.140
-338.318	800.000	-0.058	0.175
-337.304	-124.734	0.298	-0.045
-336.289	181.680	-0.150	-0.218
-335.275	-102.266	-0.177	-0.042
-334.260	29.057	0.235	-0.197
-333.245	240.204	0.126	0.207
-332.231	-200.000	0.010	0.229
-331.216	-34.616	0.428	0.231
-330.202	45.468	-0.220	-0.200
-329.187	136.991	0.313	-0.404
-328.172	-200.000	0.053	-0.373
-327.158	-200.000	0.300	-0.001
-326.143	-200.000	-0.009	-0.416
-325.129	-100.242	0.302	-0.074
-324.114	-139.522	-0.203	0.021
-323.099	800.000	0.024	-0.073
-322.085	800.000	0.108	0.326
-321.070	126.484	0.151	-0.189
-320.056	189.785	0.070	-0.104
-319.041	92.242	-0.175	-0.195
-318.026	-52.771	-0.260	-0.118
-317.012	78.929	0.033	0.035
-315.997	-83.139	-0.208	0.066
-314.983	-200.000	0.027	0.234
-313.968	60.315	-0.229	0.223
-312.953	51.080	-0.043	-0.040
-311.939	554.125	0.100	0.237
-310.924	314.481	0.097	-0.181
-309.910	437.778	-0.080	-0.171
-308.895	-167.481	0.271	0.011
-307.880	495.090	-0.111	-0.252
-306.866	-150.451	-0.167	0.013
-305.851	22.202	0.239	-0.193
-304.837	-26.933	0.310	0.179
-303.822	264.612	-0.157	-0.270
-302.807	-200.000	0.006	0.064
-301.793	-52.093	-0.119	-0.054
-300.778	-200.000	-0.026	0.150
-299.764	-162.671	0.350	0.017
-298.749	-89.991	-0.618	0.178
-297.735	-42.123	0.344	0.173
-296.720	171.367	0.138	-0.195
-295.705	-165.510	0.116	-0.005
-294.691	9.662	-0.280	0.209
-293.676	24.772	-0.120	-0.098
-292.662	-200.000	-0.032	-0.155
-291.647	800.000	-0.050	-0.186
-290.632	-55.240	-0.108	-0.048
-289.618	-138.370	-0.188	-0.020
-288.603	-58.287	-0.107	-0.046
-287.589	78.065	0.052	0.055
-286.574	-18.334	0.223	0.138
-285.559	108.289	-0.129	-0.152
-284.545	-119.734	0.271	-0.046
-283.530	156.039	-0.088	-0.120
-282.516	-188.550	-0.301	-0.004
-281.501	-120.381	0.065	-0.011
-280.486	17.744	0.173	-0.136
-279.472	800.000	-0.035	-0.140
-278.457	-200.000	-0.029	-0.276
-277.443	-200.000	0.027	-0.131
-276.428	535.195	-0.054	0.126
-275.413	157.344	0.193	0.263
-274.399	130.180	-0.113	0.143
-273.384	-200.000	0.016	-0.133
-272.370	155.267	0.190	-0.257
-271.355	-200.000	-0.014	-0.294
-270.340	-105.962	-0.263	0.058
-269.326	-200.000	-0.275	0.000
-268.311	196.339	0.040	0.060
-267.297	-200.000	-0.014	0.301
-266.282	69.981	-0.015	0.015
-265.267	409.637	-0.135	0.282
-264.253	-196.159	0.191	-0.001
-263.238	332.358	-0.049	-0.094
-262.224	354.812	0.145	-0.284
-261.209	77.810	-0.255	-0.268
-260.195	178.782	-0.134	0.193
-259.180	-42.598	0.178	0.089
-258.165	608.359	-0.213	-0.524
-257.151	-43.491	-0.170	-0.085
-256.136	800.000	0.030	0.109
-255.122	170.772	-0.040	0.056
-254.107	800.000	-0.048	0.198
-253.092	-103.086	0.509	-0.119
-252.078	43.681	0.092	-0.083
-251.063	-200.000	0.003	-0.102
-250.049	-200.000	-0.002	0.138
-249.034	-200.000	0.077	0.411
-248.019	283.716	-0.157	0.278
-247.005	205.223	-0.219	-0.335
-245.990	800.000	-0.059	-0.161
-244.976	49.781	-0.146	0.136
-243.961	-51.808	0.113	-0.052
-242.946	-123.618	0.139	0.022
-241.932	720.686	-0.011	-0.028
-240.917	-79.119	-0.191	0.064
-239.903	-67.188	-0.086	0.033
-238.888	-121.630	0.226	-0.037
-237.873	-171.241	-0.261	0.009
-236.859	-69.866	-0.118	0.044
-235.844	-200.000	0.014	0.200
-234.830	-200.000	0.022	0.116
-233.815	800.000	0.016	0.058
-232.800	620.266	-0.110	-0.271
-231.786	-82.747	-0.166	0.053
-230.771	-200.000	-0.003	0.034
-229.757	526.509	0.042	-0.097
-228.742	-117.864	-0.370	-0.065
-227.727	593.385	-0.067	0.162
-226.713	118.652	-0.039	0.048
-225.698	-53.590	0.181	0.081
-224.684	-74.660	0.315	-0.111
-223.669	164.734	-0.009	-0.012
-222.655	-27.359	0.137	-0.078
-221.640	57.929	0.165	-0.158
-220.625	-200.000	-0.033	-0.306
-219.611	16.464	0.196	-0.152
-218.596	-130.191	0.065	-0.009
-217.582	800.000	0.019	-0.055
-216.567	614.314	0.019	-0.048
-215.552	-200.000	-0.003	0.198
-214.538	-172.822	0.289	-0.009
-213.523	-123.004	0.269	-0.043
-212.509	800.000	-0.093	-0.283
-211.494	-111.837	0.217	0.043
-210.479	28.823	0.249	-0.207
-209.465	379.979	-0.094	0.190
-208.450	800.000	0.072	0.213
-207.436	-200.000	0.031	0.212
-206.421	-52.624	-0.023	0.010
-205.406	800.000	0.094	-0.371
-204.392	57.688	0.161	-0.154
-203.377	207.510	0.145	0.222
-202.363	45.964	0.195	-0.177
-201.348	-69.884	0.214	-0.080
-200.333	-72.662	0.112	0.041
-199.319	322.960	-0.025	-0.046
-198.304	539.904	-0.122	0.285
-197.290	-59.656	-0.206	-0.087
-196.275	800.000	-0.044	-0.127
-195.260	-200.000	-0.009	-0.317
-194.246	413.766	-0.016	0.034
-193.231	129.825	-0.013	0.016
-192.217	246.513	-0.229	-0.380
-191.202	-104.959	-0.300	-0.068
-190.187	9.241	-0.090	-0.067
-189.173	-200.000	0.108	-0.483
-188.158	118.262	-0.199	0.241
-187.144	-200.000	-0.010	0.107
-186.129	800.000	-0.046	-0.147
-185.114	800.000	0.052	0.173
-184.100	368.173	-0.084	-0.167
-183.085	-57.193	-0.116	-0.050
-182.071	-63.965	-0.187	-0.075
-181.056	-35.610	-0.148	0.079
-180.042	-200.000	0.005	0.247
-179.027	800.000	-0.082	0.344
-178.012	244.328	-0.057	-0.094
-176.998	38.331	0.074	-0.065
-175.983	-84.882	-0.177	0.054
-174.969	-99.731	0.308	0.076
-173.954	800.000	0.052	-0.155
-172.939	-110.388	-0.307	0.063
-171.925	-6.737	0.026	0.018
-170.910	-200.000	-0.051	0.225
-169.896	800.000	0.088	-0.262
-168.881	-93.487	0.134	0.037
-167.866	-17.804	0.031	-0.019
-166.852	-18.077	0.075	-0.046
-165.837	-4.871	0.288	0.195
-164.823	326.611	0.023	0.043
-163.808	411.580	0.145	0.303
-162.793	36.007	0.158	-0.137
-161.779	31.400	0.359	0.303
-160.764	21.941	-0.154	0.123
-159.750	12.770	-0.328	-0.248
-158.735	449.250	-0.056	-0.122
-157.720	54.334	0.290	0.274
-156.706	717.766	0.053	-0.139
-155.691	55.242	-0.182	0.173
-154.677	-122.758	-0.279	-0.044
-153.662	-4.807	0.362	-0.245
-152.647	102.393	0.053	0.061
-151.633	-47.154	0.037	-0.018
-150.618	-42.504	0.028	0.014
-149.604	-135.571	0.321	-0.037
-148.589	-200.000	0.026	-0.226
-147.574	-110.160	-0.161	0.033
-146.560	150.299	0.140	0.186
-145.545	-82.704	-0.408	-0.130
-144.531	-84.507	0.211	0.065
-143.516	-49.180	-0.132	0.062
-142.502	-135.597	-0.128	-0.015
-141.487	-36.997	0.119	0.062
-140.472	800.000	0.046	0.160
-139.458	120.574	0.307	0.373
-138.443	0.649	-0.270	-0.189
-137.429	800.000	-0.045	-0.163
-136.414	-61.215	0.539	-0.223
-135.399	-155.103	-0.207	-0.013
-134.385	-114.777	0.100	-0.019
-133.370	800.000	-0.063	-0.173
-132.356	-82.318	-0.116	-0.037
-131.341	800.000	0.066	0.226
-130.326	-135.767	-0.226	-0.026
-129.312	474.623	0.061	-0.134
-128.297	239.713	0.022	0.036
-127.283	73.880	-0.079	0.081
-126.268	360.165	-0.031	-0.061
-125.253	-95.777	-0.290	-0.076
-124.239	195.779	0.120	-0.178
-123.224	494.615	-0.123	-0.278
-122.210	27.469	0.259	-0.213
-121.195	-56.728	-0.422	0.183
-120.180	312.606	0.102	-0.187
-119.166	-195.890	0.227	-0.002
-118.151	307.175	0.064	-0.116
-117.137	-25.311	0.108	-0.063
-116.122	166.763	0.141	0.195
-115.107	-200.000	0.039	0.259
-114.093	260.116	0.087	0.147
-113.078	9.537	0.089	0.066
-112.064	194.637	-0.061	0.090
-111.049	62.660	0.074	-0.072
-110.034	-68.421	0.298	0.113
-109.020	-122.504	-0.355	0.057
-108.005	-69.476	0.271	-0.102
-106.991	11.295	-0.127	0.095
-105.976	-159.830	-0.041	-0.002
-104.962	-200.000	-0.002	-0.024
-103.947	-57.733	0.273	-0.117
-102.932	-34.864	-0.273	-0.146
-101.918	72.762	-0.277	-0.283
-100.903	800.000	-0.056	0.162
-99.889	-113.827	0.069	0.013
-98.874	31.241	-0.133	-0.111
-97.859	81.883	-0.080	-0.085
-96.845	800.000	0.032	-0.132
-95.830	222.245	0.180	0.284
-94.816	667.886	-0.184	-0.464
-93.801	335.563	0.055	-0.104
-92.786	-12.873	0.197	0.126
-91.772	-77.323	0.161	0.055
-90.757	-100.806	-0.235	0.057
-89.743	800.000	-0.074	-0.254
-88.728	16.085	0.183	-0.141
-87.713	182.986	0.099	-0.143
-86.699	-200.000	0.016	-0.176
-85.684	-111.862	0.344	0.068
-84.670	-200.000	0.069	-0.369
-83.655	529.679	0.022	-0.052
-82.640	-80.140	0.306	0.100
-81.626	-200.000	0.004	0.056
-80.611	-4.711	0.059	0.040
-79.597	-77.172	0.109	0.037
-78.582	800.000	-0.032	0.122
-77.567	279.398	0.126	0.220
-76.553	-38.109	0.287	0.149
-75.538	16.135	-0.322	0.248
-74.524	-200.000	-0.002	0.308
-73.509	511.997	0.120	0.274
-72.494	-200.000	0.048	-0.342
-71.480	566.981	-0.068	-0.160
-70.465	152.080	-0.167	-0.222
-69.451	-200.000	0.012	-0.204
-68.436	277.025	-0.164	0.285
-67.422	-55.162	-0.322	0.142
-66.407	54.789	0.134	-0.126
-65.392	-53.512	-0.277	0.124
-64.378	-200.000	0.020	-0.146
-63.363	-28.852	0.058	0.032
-62.349	518.882	0.073	0.167
-61.334	48.638	-1.259	-1.153
-60.319	-59.800	0.715	0.299
-59.305	583.710	-0.403	-0.967
-58.290	800.000	0.358	0.996
-57.276	800.000	0.570	1.572
-56.261	-200.000	117.651	643.302
-55.246	485.394	1552.818	3455.317
-54.232	172.934	2730.572	3842.398
-53.217	97.323	2295.563	2574.079
-52.203	35.132	1901.550	1627.327
-51.188	29.263	1696.409	1407.063
-50.173	26.798	1655.678	1354.831
-49.159	46.666	1713.481	1553.833
-48.144	45.735	1726.610	1558.604
-47.130	28.787	1683.597	1392.606
-46.115	26.167	1669.710	1361.342
-45.100	26.025	1664.257	1355.775
-44.086	26.009	1662.112	1353.855
-43.071	26.070	1659.250	1351.927
-42.057	26.018	1656.967	1349.624
-41.042	26.018	1655.060	1348.016
-40.027	25.995	1652.633	1345.814
-39.013	25.915	1650.928	1343.774
-37.998	25.987	1649.474	1343.076
-36.984	26.020	1648.386	1342.384
-35.969	26.086	1646.887	1341.596
-34.954	26.187	1645.186	1340.905
-33.940	26.153	1643.393	1339.139
-32.925	26.177	1641.379	1337.626
-31.911	26.146	1640.292	1336.458
-30.896	26.017	1638.708	1334.158
-29.881	26.101	1637.092	1333.413
-28.867	26.032	1635.824	1331.814
-27.852	26.120	1634.001	1330.925
-26.838	26.142	1632.650	1329.937
-25.823	26.134	1631.452	1328.850
-24.809	26.266	1629.620	1328.275
-23.794	26.083	1628.965	1326.345
-22.779	26.164	1626.870	1325.179
-21.765	26.091	1625.358	1323.362
-20.750	26.082	1623.693	1321.886
-19.736	26.119	1622.288	1320.962
-18.721	26.211	1620.550	1320.163
-17.706	26.128	1619.429	1318.595
-16.692	26.198	1617.617	1317.576
-15.677	26.159	1616.184	1316.072
-14.663	26.210	1615.080	1315.496
-13.648	26.166	1613.841	1314.109
-12.633	26.189	1611.785	1312.555
-11.619	26.160	1610.764	1311.457
-10.604	26.179	1608.953	1310.067
-9.590	26.292	1607.205	1309.415
-8.575	26.193	1605.884	1307.568
-7.560	26.146	1604.949	1306.416
-6.546	26.188	1604.220	1306.074
-5.531	26.052	1602.980	1304.025
-4.517	26.173	1601.807	1303.898
-3.502	26.190	1600.345	1302.780
-2.487	26.241	1598.756	1301.798
-1.473	25.925	1586.653	1289.632
-0.458	23.002	1567.651	1253.440
0.556	21.577	1569.110	1222.714
1.571	19.144	1593.366	1224.226
2.586	18.669	1605.760	1230.235
3.600	16.935	1551.654	1176.653
4.615	10.802	1444.852	1055.832
5.629	5.129	1385.506	976.943
6.644	4.046	1377.992	964.812
7.659	4.036	1376.864	963.877
8.673	4.152	1375.894	963.832
9.688	4.085	1374.177	962.129
10.702	4.185	1371.109	960.513
11.717	6.939	1375.740	980.774
12.731	14.195	1389.515	1035.824
13.746	20.700	1400.324	1084.470
14.761	22.544	1402.844	1097.823
15.775	22.090	1400.892	1093.375
16.790	21.160	1398.659	1085.756
17.804	20.544	1396.221	1079.937
18.819	20.191	1394.989	1076.700
19.834	19.986	1394.343	1074.831
20.848	20.067	1393.418	1074.525
21.863	19.934	1391.872	1072.414
22.877	19.733	1391.373	1070.689
23.892	19.695	1390.201	1069.459
24.907	19.674	1389.220	1068.480
25.921	19.568	1388.917	1067.496
26.936	19.719	1387.360	1067.140
27.950	19.847	1386.358	1067.064
28.965	19.986	1385.284	1067.001
29.980	20.009	1385.050	1066.865
30.994	20.078	1383.732	1066.181
32.009	20.147	1382.919	1065.885
33.023	20.180	1380.969	1064.492
34.038	19.924	1379.940	1062.031
35.053	19.901	1378.723	1060.860
36.067	19.908	1377.343	1059.746
37.082	19.873	1376.576	1058.853
38.096	19.887	1376.132	1058.503
39.111	20.116	1374.989	1058.928
40.126	19.850	1373.888	1056.358
41.140	19.536	1372.843	1053.552
42.155	19.324	1372.295	1051.743
43.169	19.386	1371.964	1051.771
44.184	19.380	1371.505	1051.288
45.199	19.426	1371.299	1051.319
46.213	19.564	1370.715	1051.622
47.228	19.755	1370.574	1052.582
48.242	19.781	1369.572	1051.879
49.257	19.786	1367.744	1050.408
50.271	19.686	1366.479	1048.742
51.286	19.840	1365.091	1048.513
52.301	19.733	1363.793	1046.775
53.315	19.562	1362.739	1044.841
54.330	19.476	1361.540	1043.311
55.344	19.345	1360.651	1041.746
56.359	19.456	1359.204	1041.215
57.374	19.353	1358.204	1039.738
58.388	19.267	1357.771	1038.790
59.403	19.201	1357.639	1038.203
60.417	19.208	1356.172	1037.028
61.432	19.229	1355.515	1036.560
62.447	19.067	1354.731	1034.897
63.461	19.093	1352.975	1033.622
64.476	19.038	1352.356	1032.727
65.490	19.145	1350.630	1031.956
66.505	19.194	1349.352	1031.187
67.520	19.085	1348.424	1029.733
68.534	19.129	1347.286	1029.032
69.549	19.119	1346.004	1027.903
70.563	19.035	1344.990	1026.537
71.578	18.942	1343.727	1024.931
72.593	18.860	1343.173	1023.927
73.607	18.909	1342.147	1023.345
74.622	18.860	1342.040	1022.882
75.636	18.903	1340.906	1022.182
76.651	18.910	1340.488	1021.818
77.666	19.027	1339.442	1021.622
78.680	19.076	1339.441	1021.822
79.695	19.089	1338.806	1021.322
80.709	19.186	1338.395	1021.498
81.724	19.274	1337.307	1021.097
82.739	19.489	1336.271	1021.485
83.753	19.639	1336.249	1022.266
84.768	19.929	1334.884	1022.849
85.782	19.941	1334.328	1022.402
86.797	20.007	1332.859	1021.573
87.812	19.911	1331.292	1019.718
88.826	19.739	1330.418	1017.945
89.841	19.964	1329.130	1018.195
90.855	20.001	1328.407	1017.768
91.870	20.058	1327.752	1017.511
92.884	20.007	1327.206	1016.704
93.899	20.136	1326.319	1016.687
94.914	20.179	1325.155	1015.961
95.928	20.113	1324.306	1014.832
96.943	20.009	1323.507	1013.522
97.957	19.888	1322.859	1012.225
98.972	19.927	1321.738	1011.506
99.987	19.956	1320.819	1010.887
101.001	20.011	1319.744	1010.295
102.016	20.009	1318.795	1009.468
103.030	20.014	1317.776	1008.628
104.045	19.904	1317.386	1007.596
105.060	19.865	1315.155	1005.576
106.074	19.477	1313.977	1002.335
107.089	19.154	1312.216	999.030
108.103	19.045	1311.168	997.510
109.118	19.140	1309.726	996.874
110.133	19.135	1308.400	995.745
111.147	19.124	1307.388	994.823
112.162	19.284	1305.800	994.454
113.176	19.307	1304.939	993.842
114.191	19.389	1304.026	993.534
115.206	19.396	1302.742	992.505
116.220	19.345	1301.604	991.254
117.235	19.362	1300.151	990.160
118.249	19.177	1299.290	988.353
119.264	19.137	1298.315	987.294
120.279	19.021	1297.160	985.667
121.293	18.946	1296.190	984.413
122.308	18.919	1294.568	982.939
123.322	18.845	1293.499	981.619
124.337	18.826	1292.761	980.863
125.352	18.872	1291.787	980.298
126.366	18.858	1290.609	979.241
127.381	18.746	1289.487	977.663
128.395	18.832	1288.432	977.269
129.410	18.921	1287.931	977.308
130.424	19.056	1287.001	977.281
131.439	19.100	1286.591	977.132
132.454	19.154	1285.584	976.586
133.468	19.226	1284.738	976.263
134.483	19.218	1284.273	975.781
135.497	19.385	1282.664	975.418
136.512	19.393	1281.853	974.759
137.527	19.210	1281.035	973.016
138.541	19.412	1279.497	972.904
139.556	19.458	1278.244	972.123
140.570	19.669	1277.637	972.765
141.585	19.590	1276.520	971.385
142.600	19.758	1275.360	971.355
143.614	19.835	1274.471	971.028
144.629	19.916	1273.800	970.882
145.643	19.821	1272.501	969.276
146.658	19.733	1271.503	967.936
147.673	19.466	1270.353	965.483
148.687	19.435	1268.136	963.539
149.702	19.352	1266.905	962.057
150.716	19.357	1265.602	961.006
151.731	19.300	1264.510	959.779
152.746	19.318	1263.400	958.951
153.760	19.413	1262.610	958.796
154.775	19.427	1261.693	958.091
155.789	19.546	1260.602	957.837
156.804	19.632	1259.642	957.497
157.819	19.833	1258.390	957.574
158.833	19.816	1257.692	956.863
159.848	20.004	1257.347	957.558
160.862	19.929	1256.322	956.279
161.877	19.588	1254.395	952.845
162.892	19.332	1253.516	950.684
163.906	19.358	1252.601	950.047
164.921	19.361	1251.386	949.059
165.935	19.354	1251.205	948.800
166.950	19.582	1250.527	949.457
167.964	19.481	1249.421	947.974
168.979	19.392	1249.040	947.115
169.994	19.383	1248.491	946.568
171.008	19.408	1247.653	945.982
172.023	19.636	1246.555	946.318
173.037	19.869	1246.468	947.440
174.052	19.858	1245.230	946.357
175.067	19.480	1243.840	943.153
176.081	19.285	1242.872	941.271
177.096	19.305	1241.943	940.589
178.110	19.472	1240.717	940.490
179.125	19.423	1239.615	939.304
180.140	19.559	1238.629	939.213
181.154	19.664	1237.747	939.032
182.169	19.792	1236.708	938.859
183.183	19.930	1235.456	938.569
184.198	19.809	1234.167	936.853
185.213	19.921	1233.425	936.814
186.227	19.985	1232.441	936.329
187.242	20.012	1231.479	935.661
188.256	20.044	1230.414	934.945
189.271	20.110	1229.557	934.567
190.286	19.775	1228.575	931.930
191.300	19.451	1226.913	928.844
192.315	19.380	1226.190	927.829
193.329	19.462	1225.312	927.525
194.344	19.482	1224.906	927.246
195.359	19.543	1224.919	927.500
196.373	19.598	1224.301	927.244
197.388	19.852	1224.368	928.576
198.402	19.983	1223.895	928.838
199.417	20.308	1222.851	929.705
200.432	20.462	1222.418	930.119
201.446	20.518	1221.871	929.922
202.461	20.609	1221.046	929.698
203.475	20.398	1220.519	928.083
204.490	20.112	1218.801	925.171
205.504	19.910	1217.547	923.059
206.519	19.869	1216.229	921.760
207.534	19.807	1214.800	920.264
208.548	19.890	1213.967	919.995
209.563	19.855	1213.391	919.291
210.577	19.833	1212.484	918.407
211.592	20.085	1211.386	918.827
212.607	20.219	1210.967	919.139
213.621	20.275	1210.245	918.809
214.636	20.027	1209.254	916.661
215.650	20.158	1208.111	916.408
216.665	20.319	1207.287	916.551
217.680	20.445	1206.727	916.708
218.694	20.583	1205.729	916.599
219.709	20.350	1205.559	915.160
220.723	20.416	1204.057	914.286
221.738	20.248	1203.402	912.822
222.753	20.282	1202.708	912.397
223.767	20.355	1201.762	911.979
224.782	20.467	1201.242	912.094
225.796	20.645	1200.763	912.583
226.811	20.543	1200.226	911.556
227.826	20.409	1199.389	910.141
228.840	20.261	1198.338	908.485
229.855	20.125	1197.768	907.261
230.869	20.256	1196.649	907.018
231.884	20.119	1195.776	905.561
232.899	20.015	1194.847	904.235
233.913	20.037	1193.995	903.627
234.928	19.964	1193.050	902.451
235.942	19.952	1192.716	902.053
236.957	19.865	1191.724	900.772
237.972	19.839	1190.868	899.911
238.986	19.905	1190.441	899.848
240.001	19.865	1190.097	899.300
241.015	20.009	1188.967	899.115
242.030	20.169	1188.249	899.326
243.045	20.350	1187.191	899.383
244.059	20.297	1186.825	898.751
245.074	20.227	1186.439	898.014
246.088	20.436	1185.284	898.144
247.103	20.645	1184.288	898.387
248.117	20.497	1184.448	897.664
249.132	20.714	1183.703	898.144
250.147	21.038	1183.129	899.296
251.161	21.237	1182.408	899.698
252.176	21.274	1181.768	899.322
253.190	21.271	1181.776	899.231
254.205	21.339	1181.288	899.128
255.220	21.350	1180.594	898.579
256.234	21.288	1179.691	897.494
257.249	21.297	1178.699	896.705
258.263	21.336	1177.941	896.247
259.278	21.320	1177.380	895.661
260.293	21.375	1176.941	895.530
261.307	21.390	1176.472	895.170
262.322	21.560	1175.796	895.448
263.336	21.408	1175.301	894.213
264.351	21.354	1174.341	893.127
265.366	21.385	1174.003	892.949
266.380	21.587	1172.856	893.027
267.395	21.400	1171.910	891.276
268.409	21.163	1171.176	889.434
269.424	21.142	1170.299	888.582
270.439	21.216	1170.135	888.756
271.453	21.150	1169.250	887.666
272.468	21.011	1167.904	885.861
273.482	20.955	1167.099	884.889
274.497	21.005	1166.899	884.910
275.512	21.028	1166.238	884.449
276.526	20.860	1165.314	882.820
277.541	20.917	1164.508	882.418
278.555	21.126	1163.987	883.003
279.570	21.273	1163.237	883.101
280.585	21.448	1162.868	883.624
281.599	21.422	1161.970	882.732
282.614	21.245	1160.377	880.552
283.628	21.161	1159.373	879.290
284.643	21.095	1158.437	878.172
285.657	21.161	1157.464	877.686
286.672	21.115	1156.715	876.811
287.687	21.171	1155.998	876.468
288.701	21.212	1155.171	875.972
289.716	21.242	1154.230	875.328
290.730	21.261	1153.686	874.937
291.745	21.291	1152.940	874.444
292.760	21.395	1152.088	874.237
293.774	21.408	1151.796	874.004
294.789	21.425	1151.557	873.830
295.803	21.555	1150.703	873.754
296.818	21.302	1149.725	871.674
297.833	21.209	1148.599	870.280
298.847	21.344	1147.897	870.343
299.862	21.143	1147.506	868.968
300.876	21.244	1146.798	868.857
301.891	21.424	1146.330	869.322
302.906	21.492	1146.011	869.340
303.920	21.701	1145.006	869.539
304.935	21.768	1144.522	869.425
305.949	21.900	1144.126	869.704
306.964	21.861	1143.336	868.831
307.979	21.723	1142.232	867.235
308.993	21.662	1141.824	866.545
310.008	21.825	1140.800	866.497
311.022	21.800	1139.986	865.679
312.037	21.748	1139.376	864.880
313.052	21.549	1138.345	863.042
314.066	21.454	1136.869	861.375
315.081	21.173	1136.354	859.526
316.095	21.268	1135.163	859.016
317.110	21.282	1134.315	858.368
318.125	21.384	1133.844	858.438
319.139	21.261	1133.193	857.264
320.154	21.281	1132.475	856.745
321.168	21.251	1131.774	855.993
322.183	21.328	1132.007	856.471
323.197	21.340	1131.037	855.716
324.212	21.336	1130.352	855.104
325.227	21.432	1129.663	854.976
326.241	21.390	1129.018	854.207
327.256	21.399	1128.414	853.719
328.270	21.304	1127.180	852.246
329.285	21.320	1126.299	851.582
330.300	21.304	1125.491	850.818
331.314	21.391	1124.628	850.513
332.329	21.399	1123.551	849.665
333.343	21.505	1122.453	849.273
334.358	21.514	1122.030	848.920
335.373	21.799	1121.505	849.832
336.387	21.827	1120.459	849.099
337.402	21.739	1119.972	848.228
338.416	21.652	1119.730	847.552
339.431	21.866	1118.823	847.825
340.446	22.088	1118.106	848.276
341.460	22.237	1117.860	848.735
342.475	22.387	1116.914	848.664
343.489	22.298	1116.005	847.468
344.504	22.361	1115.544	847.347
345.519	22.388	1114.372	846.511
346.533	22.533	1113.597	846.546
347.548	22.397	1113.496	845.742
348.562	22.365	1112.202	844.530
349.577	22.053	1111.415	842.359
350.592	21.948	1109.884	840.624
351.606	21.740	1109.391	839.179
352.621	21.856	1108.469	838.961
353.635	21.701	1107.680	837.549
354.650	21.645	1107.015	836.704
355.665	21.840	1106.375	837.079
356.679	21.865	1106.145	836.948
357.694	21.996	1105.787	837.229
358.708	21.892	1105.261	836.262
359.723	22.014	1104.190	835.958
360.738	22.279	1103.074	836.297
361.752	22.078	1102.706	834.993
362.767	22.102	1102.581	834.938
363.781	22.153	1102.197	834.816
364.796	22.305	1101.531	834.957
365.810	22.467	1101.004	835.253
366.825	22.685	1100.900	836.135
367.840	22.818	1100.000	836.005
368.854	22.690	1099.689	835.089
369.869	22.767	1098.765	834.678
370.883	22.595	1097.741	833.013
371.898	22.424	1096.872	831.471
372.913	22.453	1096.238	831.056
373.927	22.574	1096.003	831.376
374.942	22.501	1096.178	831.091
375.956	22.697	1094.710	830.826
376.971	22.532	1094.123	829.531
377.986	22.577	1093.871	829.477
379.000	22.837	1093.283	830.182
380.015	22.888	1092.773	829.962
381.029	22.946	1092.025	829.593
382.044	22.915	1091.545	829.005
383.059	22.883	1090.473	827.968
384.073	22.835	1089.728	827.107
385.088	22.987	1088.514	826.821
386.102	22.858	1087.693	825.523
387.117	22.744	1086.434	823.961
388.132	22.422	1085.840	821.934
389.146	22.495	1084.352	821.078
390.161	22.564	1083.938	821.011
391.175	22.421	1083.286	819.778
392.190	22.492	1083.014	819.832
393.205	22.718	1082.508	820.428
394.219	22.604	1081.716	819.225
395.234	22.441	1080.649	817.589
396.248	22.392	1079.675	816.549
397.263	22.526	1078.301	816.059
398.278	22.404	1077.335	814.693
399.292	22.300	1076.300	813.356
400.307	22.209	1075.933	812.586
401.321	22.199	1075.602	812.221
402.336	22.181	1074.671	811.360
403.350	22.206	1074.083	810.962
404.365	22.300	1073.615	810.968
405.380	22.476	1072.934	811.195
406.394	22.465	1072.560	810.787
407.409	22.718	1071.377	810.984
408.423	22.852	1070.850	811.133
409.438	22.881	1070.281	810.760
410.453	22.977	1070.005	810.923
411.467	23.096	1068.948	810.593
412.482	23.243	1068.326	810.721
413.496	23.229	1067.555	810.000
414.511	23.196	1067.087	809.423
415.526	23.315	1067.237	810.011
416.540	23.302	1067.028	809.722
417.555	23.364	1066.002	809.154
418.569	23.263	1065.338	808.116
419.584	23.221	1065.050	807.635
420.599	23.175	1064.189	806.702
421.613	158.002	1404.891	1797.721
422.628	145.424	1454.515	1797.791
