DTS Sentinel unit serial number:	SN413079Multiplexer serial number:	ORYXHardware model number:	OX4-SRSoftware version number:	ORYX F/W v4.00 Oryx Data Collector v3.7.2.0data status	okinstallation	princeton_trtdifferential loss correction	single-endedforward channel	channel 2reverse channel	N/Adate	2019/09/11time	16:29:11forward acquisition time	60.00reverse acquisition time	0.00gamma	496.2192k internal	0.2285k external	0.2285temperature offset calibration	1.0017default loss term (dB/km)	0.3790temperature slope calibration	1.0000multiplexer offset coefficient	1.0000multiplexer slope coefficient	1.0000fibre end	0.00T internal ref (°C)	43.64T ext. ref 1 (°C)	1.09T ext. ref 2 (°C)	39.55length (m)	temperature (°C)	Stokes	anti-Stokes-747.200	-118.790	0.285	0.051
-746.185	800.000	-0.180	0.528
-745.171	-200.000	-0.028	-0.218
-744.156	27.047	-0.080	0.069
-743.142	-153.448	0.058	-0.004
-742.127	107.367	-0.146	0.179
-741.112	-200.000	-0.048	0.402
-740.098	-200.000	0.034	0.321
-739.083	-75.170	-0.232	0.085
-738.069	45.506	-0.351	0.333
-737.054	-71.854	-0.524	-0.200
-736.039	398.426	-0.069	0.148
-735.025	-10.384	0.278	-0.189
-734.010	-62.785	0.205	0.087
-732.996	-9.882	-0.319	-0.218
-731.981	800.000	-0.056	0.175
-730.966	-172.779	-0.286	0.009
-729.952	-5.881	0.073	-0.051
-728.937	-200.000	-0.011	0.387
-727.923	-158.504	0.058	0.003
-726.908	405.432	-0.145	-0.314
-725.894	70.761	-0.166	-0.176
-724.879	-100.193	-0.428	0.109
-723.864	-9.267	-0.265	0.182
-722.850	165.253	-0.182	0.264
-721.835	76.768	0.216	-0.235
-720.821	30.952	-0.356	0.313
-719.806	-200.000	-0.009	-0.205
-718.791	339.728	-0.064	0.129
-717.777	-200.000	0.039	0.205
-716.762	-3.622	0.162	0.115
-715.748	-25.438	-0.096	0.058
-714.733	-43.238	0.114	0.059
-713.718	-16.689	-0.136	0.088
-712.704	800.000	-0.026	0.082
-711.689	-200.000	0.021	-0.196
-710.675	-128.796	0.234	-0.034
-709.660	168.805	0.232	-0.340
-708.645	-128.804	0.178	0.026
-707.631	103.989	0.042	0.050
-706.616	145.674	-0.098	0.134
-705.602	49.597	-0.128	0.124
-704.587	-159.532	0.166	0.009
-703.572	37.532	0.064	0.059
-702.558	800.000	-0.037	0.115
-701.543	14.375	-0.137	0.109
-700.529	-21.430	-0.073	0.046
-699.514	306.493	-0.050	-0.095
-698.499	165.265	0.119	-0.172
-697.485	441.672	-0.018	-0.041
-696.470	800.000	-0.030	0.123
-695.456	800.000	0.116	-0.353
-694.441	739.209	-0.091	-0.250
-693.426	-93.529	-0.027	-0.008
-692.412	800.000	-0.139	0.437
-691.397	43.049	0.153	0.143
-690.383	-80.706	-0.141	-0.048
-689.368	-200.000	0.038	-0.366
-688.354	-69.069	-0.210	-0.083
-687.339	-84.807	-0.054	-0.017
-686.324	-24.822	-0.168	0.102
-685.310	2.304	-0.199	0.147
-684.295	-173.755	0.292	-0.009
-683.281	-131.826	0.120	-0.016
-682.266	-148.827	0.095	-0.008
-681.251	1.654	-0.191	0.141
-680.237	-74.124	-0.393	0.146
-679.222	-11.348	-0.219	0.148
-678.208	176.308	0.219	0.326
-677.193	766.965	0.057	0.159
-676.178	59.349	-0.092	0.093
-675.164	23.405	-0.236	-0.198
-674.149	596.335	0.141	0.357
-673.135	32.533	0.159	0.141
-672.120	800.000	0.079	0.273
-671.105	-200.000	-0.081	0.377
-670.091	482.952	0.179	0.418
-669.076	97.514	-0.064	-0.076
-668.062	364.343	0.075	0.153
-667.047	-28.473	-0.222	-0.131
-666.032	-118.634	0.160	-0.029
-665.018	-200.000	-0.035	0.294
-664.003	222.377	-0.134	-0.220
-662.989	-162.330	0.254	0.013
-661.974	-200.000	-0.017	0.199
-660.959	-147.940	-0.194	-0.017
-659.945	217.011	-0.163	0.266
-658.930	427.236	-0.154	-0.339
-657.916	67.331	0.173	0.181
-656.901	221.309	-0.105	-0.172
-655.886	-113.984	-0.075	0.015
-654.872	-14.302	0.307	-0.202
-653.857	31.864	0.101	-0.089
-652.843	-126.349	-0.127	-0.019
-651.828	111.999	-0.101	0.125
-650.814	-39.899	0.095	-0.051
-649.799	21.354	-0.241	-0.200
-648.784	100.547	0.156	0.185
-647.770	705.583	0.070	-0.188
-646.755	85.602	-0.216	0.242
-645.741	15.737	0.127	-0.102
-644.726	248.629	0.103	0.178
-643.711	57.296	0.115	-0.115
-642.697	1.327	0.205	-0.150
-641.682	-141.498	-0.226	0.023
-640.668	20.262	-0.361	0.298
-639.653	-82.419	-0.253	0.084
-638.638	-200.000	0.002	0.011
-637.624	119.088	0.142	-0.180
-636.609	-200.000	0.009	-0.110
-635.595	322.579	0.128	0.248
-634.580	95.211	0.228	0.266
-633.565	-163.697	0.253	-0.012
-632.551	234.680	0.276	-0.466
-631.536	-58.201	-0.343	-0.153
-630.522	-136.344	-0.245	-0.029
-629.507	261.085	-0.057	0.101
-628.492	-162.911	0.299	0.015
-627.478	558.862	0.066	0.163
-626.463	-8.545	0.118	-0.081
-625.449	800.000	0.056	-0.226
-624.434	291.309	-0.018	-0.033
-623.419	537.123	0.209	-0.508
-622.405	-200.000	-0.000	-0.267
-621.390	71.772	-0.209	0.222
-620.376	-30.109	0.062	0.036
-619.361	-108.064	-0.229	0.051
-618.346	174.000	-0.074	-0.110
-617.332	800.000	0.072	0.304
-616.317	-2.053	0.293	0.210
-615.303	181.499	0.087	0.130
-614.288	-7.429	0.148	-0.102
-613.273	-105.679	-0.101	-0.023
-612.259	188.474	-0.127	0.193
-611.244	139.903	-0.197	0.265
-610.230	66.459	0.288	-0.299
-609.215	-200.000	0.019	-0.262
-608.201	-61.957	0.278	-0.119
-607.186	46.425	-0.124	-0.118
-606.171	98.298	-0.093	0.109
-605.157	-60.152	0.368	0.160
-604.142	-200.000	-0.046	-0.222
-603.128	-16.557	-0.139	-0.090
-602.113	265.248	0.156	-0.277
-601.098	48.793	0.062	0.059
-600.084	-200.000	-0.037	0.306
-599.069	-21.520	-0.084	0.052
-598.055	128.942	-0.299	0.389
-597.040	-9.492	0.378	-0.257
-596.025	53.779	-0.291	-0.285
-595.011	-71.530	0.197	0.075
-593.996	-3.549	0.456	0.324
-592.982	-117.270	-0.194	0.036
-591.967	-200.000	0.032	0.249
-590.952	325.421	-0.132	-0.257
-589.938	-63.232	0.375	0.158
-588.923	587.049	0.017	-0.042
-587.909	45.033	-0.239	-0.224
-586.894	-173.150	-0.146	0.005
-585.879	173.404	0.175	-0.257
-584.865	800.000	0.045	-0.139
-583.850	-17.461	-0.121	0.078
-582.836	-120.719	0.237	-0.041
-581.821	25.868	0.125	0.107
-580.806	800.000	-0.095	0.352
-579.792	-53.622	0.240	-0.112
-578.777	800.000	-0.089	-0.339
-577.763	-106.116	0.157	0.036
-576.748	-190.006	-0.066	-0.001
-575.733	-14.807	-0.204	-0.134
-574.719	-20.450	-0.135	0.085
-573.704	-200.000	-0.023	-0.193
-572.690	615.698	-0.108	0.275
-571.675	-43.662	-0.095	-0.049
-570.661	-120.574	0.296	-0.051
-569.646	-200.000	-0.041	-0.237
-568.631	-64.421	0.367	-0.152
-567.617	-42.552	-0.050	-0.026
-566.602	670.576	0.071	0.188
-565.588	215.194	0.024	0.038
-564.573	-31.400	0.204	-0.117
-563.558	-7.218	-0.092	0.063
-562.544	-105.693	0.177	0.041
-561.529	-16.721	0.120	-0.077
-560.515	307.795	-0.030	0.057
-559.500	-164.943	0.217	-0.010
-558.485	-200.000	-0.015	0.282
-557.471	13.109	-0.410	0.323
-556.456	800.000	-0.069	0.197
-555.442	57.181	-0.074	0.073
-554.427	-200.000	0.006	0.179
-553.412	505.196	0.062	-0.146
-552.398	-64.177	0.104	0.043
-551.383	800.000	0.053	0.237
-550.369	-54.608	0.172	0.079
-549.354	-41.740	0.195	-0.102
-548.339	-41.045	0.244	-0.128
-547.325	282.689	-0.074	0.136
-546.310	-1.566	0.263	0.189
-545.296	73.392	0.075	0.080
-544.281	-200.000	0.000	-0.084
-543.266	-77.004	0.287	0.102
-542.252	74.109	-0.064	-0.068
-541.237	-111.229	-0.325	-0.068
-540.223	-144.946	-0.154	0.014
-539.208	-121.857	-0.113	0.019
-538.193	555.140	-0.007	0.017
-537.179	470.761	0.074	-0.169
-536.164	114.164	-0.078	0.096
-535.150	-187.143	0.273	-0.004
-534.135	112.315	0.098	0.121
-533.121	-134.802	0.121	-0.015
-532.106	198.782	-0.183	-0.286
-531.091	66.431	-0.237	-0.245
-530.077	-21.033	-0.246	-0.154
-529.062	-58.894	-0.049	0.022
-528.048	-16.446	-0.267	0.172
-527.033	181.084	0.056	-0.084
-526.018	391.654	-0.070	0.148
-525.004	800.000	0.027	0.077
-523.989	224.562	0.042	0.070
-522.975	3.044	0.071	-0.052
-521.960	-200.000	0.030	-0.152
-520.945	-19.027	-0.235	0.149
-519.931	800.000	0.059	-0.168
-518.916	64.300	-0.026	-0.027
-517.902	800.000	0.119	0.391
-516.887	-143.212	-0.278	0.027
-515.872	733.525	-0.091	0.249
-514.858	23.899	-0.085	0.071
-513.843	-64.274	0.291	-0.121
-512.829	30.885	-0.183	-0.160
-511.814	-87.469	-0.074	0.023
-510.799	21.583	0.074	0.062
-509.785	800.000	0.015	-0.062
-508.770	111.161	0.294	-0.360
-507.756	470.678	-0.083	-0.189
-506.741	-200.000	0.013	0.433
-505.726	-111.018	-0.268	-0.056
-504.712	26.630	-0.128	-0.109
-503.697	-118.838	-0.242	-0.043
-502.683	-112.535	-0.403	-0.082
-501.668	308.004	-0.075	0.142
-500.653	272.162	-0.109	0.196
-499.639	-47.306	0.414	-0.205
-498.624	-87.667	0.174	-0.053
-497.610	-122.723	-0.230	-0.038
-496.595	-200.000	0.047	0.219
-495.581	-168.220	-0.193	-0.008
-494.566	-200.000	0.066	0.330
-493.551	-67.125	0.409	0.164
-492.537	800.000	0.064	0.263
-491.522	246.024	-0.085	0.146
-490.508	2.173	0.249	0.183
-489.493	-104.733	-0.083	0.019
-488.478	-91.646	-0.146	0.042
-487.464	400.379	0.138	-0.295
-486.449	335.960	0.115	-0.228
-485.435	-200.000	-0.045	-0.308
-484.420	706.421	-0.087	-0.232
-483.405	-200.000	-0.018	-0.140
-482.391	236.640	-0.092	0.154
-481.376	-133.900	-0.132	-0.017
-480.362	4.812	-0.101	0.075
-479.347	59.602	0.164	0.164
-478.332	-133.798	0.092	-0.012
-477.318	274.222	-0.076	0.136
-476.303	-99.035	-0.252	0.065
-475.289	-162.999	-0.099	0.005
-474.274	35.114	0.100	-0.089
-473.259	-35.595	0.236	-0.130
-472.245	-200.000	0.023	-0.207
-471.230	-22.096	0.303	0.187
-470.216	32.026	-0.210	-0.184
-469.201	800.000	-0.082	-0.337
-468.186	386.336	-0.043	0.089
-467.172	35.246	0.263	-0.234
-466.157	-129.893	0.271	-0.038
-465.143	-39.100	-0.226	-0.121
-464.128	-121.371	-0.395	0.067
-463.113	-200.000	0.007	0.060
-462.099	-200.000	-0.026	0.215
-461.084	362.748	0.099	0.201
-460.070	293.507	0.187	-0.346
-459.055	170.273	-0.106	-0.153
-458.040	-43.256	0.132	-0.068
-457.026	-200.000	-0.036	-0.248
-456.011	-109.338	-0.283	-0.061
-454.997	314.849	0.021	0.040
-453.982	-136.170	0.354	0.042
-452.968	-26.291	0.243	-0.145
-451.953	-4.277	0.481	0.338
-450.938	-200.000	-0.001	0.027
-449.924	163.535	-0.152	-0.217
-448.909	-56.644	-0.218	0.098
-447.895	-66.408	-0.092	0.037
-446.880	-83.109	0.185	-0.061
-445.865	70.976	0.273	0.287
-444.851	-43.849	0.150	-0.077
-443.836	14.247	-0.230	-0.182
-442.822	-156.730	-0.280	-0.018
-441.807	-200.000	0.018	-0.298
-440.792	-200.000	0.014	0.206
-439.778	-32.500	0.352	0.199
-438.763	-81.551	-0.061	0.020
-437.749	-76.082	-0.061	-0.022
-436.734	2.624	-0.072	-0.053
-435.719	41.621	-0.109	-0.100
-434.705	-112.626	-0.196	-0.040
-433.690	52.817	-0.175	-0.169
-432.676	94.677	0.074	0.085
-431.661	-200.000	-0.014	0.087
-430.646	215.051	-0.028	0.046
-429.632	21.886	-0.290	0.240
-428.617	487.082	0.084	0.195
-427.603	-45.574	0.202	-0.101
-426.588	-200.000	0.015	0.213
-425.573	269.325	0.171	0.305
-424.559	-124.943	-0.132	0.021
-423.544	10.180	-0.225	0.173
-422.530	-78.994	-0.064	-0.022
-421.515	-123.786	-0.282	-0.045
-420.500	621.991	0.111	-0.284
-419.486	73.277	0.095	-0.101
-418.471	-5.289	0.139	-0.097
-417.457	37.227	0.212	0.191
-416.442	-154.632	0.303	0.020
-415.428	800.000	0.061	-0.236
-414.413	-71.966	-0.264	0.100
-413.398	283.808	0.161	-0.292
-412.384	590.565	-0.082	-0.206
-411.369	-188.127	0.153	0.002
-410.355	-200.000	0.052	-0.281
-409.340	-200.000	-0.010	0.143
-408.325	572.225	-0.091	0.224
-407.311	77.175	-0.203	0.218
-406.296	139.318	-0.217	0.290
-405.282	281.852	-0.034	-0.063
-404.267	-1.675	-0.208	-0.148
-403.252	800.000	-0.010	-0.042
-402.238	-30.253	-0.363	0.209
-401.223	-11.449	-0.316	0.211
-400.209	-34.469	-0.169	0.094
-399.194	-76.098	-0.052	-0.019
-398.179	-169.036	-0.204	0.008
-397.165	384.088	-0.118	-0.246
-396.150	-125.537	-0.161	0.025
-395.136	190.813	0.144	0.220
-394.121	-200.000	-0.023	-0.199
-393.106	800.000	-0.013	-0.045
-392.092	-46.991	-0.267	0.132
-391.077	-68.785	0.033	0.013
-390.063	-174.088	0.441	-0.013
-389.048	-58.569	-0.287	-0.126
-388.033	11.687	0.147	-0.114
-387.019	-200.000	0.043	0.220
-386.004	-190.489	0.177	-0.002
-384.990	-71.178	-0.378	0.144
-383.975	-200.000	0.002	0.357
-382.960	37.572	0.060	0.054
-381.946	391.144	-0.025	-0.053
-380.931	-54.864	-0.248	0.113
-379.917	-84.766	-0.235	-0.075
-378.902	-140.704	0.219	-0.023
-377.888	206.257	-0.123	-0.194
-376.873	57.195	-0.183	-0.180
-375.858	-200.000	0.042	0.442
-374.844	-200.000	-0.084	-0.423
-373.829	-200.000	-0.050	-0.232
-372.815	351.235	-0.065	-0.130
-371.800	-56.473	0.410	-0.184
-370.785	367.577	-0.086	-0.175
-369.771	75.372	-0.287	-0.306
-368.756	41.569	-0.210	-0.192
-367.742	-134.754	0.232	0.028
-366.727	247.454	-0.200	-0.342
-365.712	-29.996	-0.210	0.121
-364.698	-183.218	0.314	-0.006
-363.683	-102.661	0.047	-0.011
-362.669	-27.557	0.079	-0.047
-361.654	-200.000	-0.005	-0.388
-360.639	293.782	-0.096	-0.177
-359.625	-200.000	-0.028	0.284
-358.610	311.135	0.120	-0.228
-357.596	-60.860	0.301	0.129
-356.581	301.218	0.096	0.180
-355.566	-87.229	0.073	0.023
-354.552	-200.000	-0.016	0.104
-353.537	-106.628	0.104	-0.023
-352.523	-69.041	0.114	-0.045
-351.508	-144.451	-0.240	0.023
-350.493	800.000	0.085	0.276
-349.479	800.000	0.071	0.200
-348.464	23.836	0.079	0.066
-347.450	142.796	-0.115	-0.154
-346.435	-200.000	-0.004	0.116
-345.420	235.328	-0.132	0.220
-344.406	-200.000	0.032	-0.202
-343.391	707.648	-0.056	0.151
-342.377	88.713	0.310	-0.348
-341.362	800.000	-0.043	0.174
-340.348	-51.706	0.083	-0.039
-339.333	-32.331	0.259	-0.146
-338.318	117.769	-0.074	-0.092
-337.304	-117.256	0.292	0.054
-336.289	-126.997	-0.254	-0.038
-335.275	-0.658	-0.297	0.213
-334.260	-44.610	-0.022	0.011
-333.245	-200.000	0.026	0.152
-332.231	458.627	0.050	-0.112
-331.216	-200.000	0.022	0.213
-330.202	800.000	-0.084	0.321
-329.187	40.105	0.161	0.146
-328.172	-127.939	-0.121	-0.018
-327.158	182.990	-0.128	-0.190
-326.143	486.019	-0.091	-0.209
-325.129	9.853	0.325	0.249
-324.114	10.216	-0.139	0.107
-323.099	-200.000	-0.009	-0.228
-322.085	-62.346	0.182	-0.076
-321.070	360.520	-0.062	-0.125
-320.056	-118.280	-0.267	0.048
-319.041	226.371	-0.181	0.297
-318.026	-29.922	0.031	-0.018
-317.012	-120.988	0.315	0.053
-315.997	-51.223	0.165	-0.078
-314.983	4.489	0.162	-0.120
-313.968	82.657	-0.050	-0.055
-312.953	-33.443	-0.121	-0.067
-311.939	103.847	-0.026	-0.031
-310.924	-154.962	0.277	-0.018
-309.910	-64.221	-0.377	0.155
-308.895	800.000	-0.061	-0.203
-307.880	800.000	0.101	-0.309
-306.866	-22.373	-0.277	0.169
-305.851	800.000	0.081	-0.240
-304.837	15.141	0.202	0.160
-303.822	24.463	0.022	-0.018
-302.807	187.919	0.146	0.220
-301.793	-179.710	0.206	0.005
-300.778	35.637	0.081	-0.072
-299.764	800.000	-0.079	0.247
-298.749	-103.871	-0.354	-0.083
-297.735	145.914	0.089	0.120
-296.720	-200.000	-0.059	-0.355
-295.705	37.528	-0.104	0.093
-294.691	-200.000	-0.013	-0.153
-293.676	-200.000	-0.004	0.250
-292.662	230.424	0.030	-0.050
-291.647	109.643	0.142	-0.171
-290.632	-200.000	0.027	0.145
-289.618	-160.455	-0.355	-0.019
-288.603	-145.745	-0.185	0.017
-287.589	184.027	0.099	-0.148
-286.574	-200.000	-0.026	0.343
-285.559	800.000	-0.018	0.068
-284.545	-200.000	0.034	0.202
-283.530	-15.324	0.084	0.054
-282.516	35.388	0.313	0.277
-281.501	-124.096	-0.225	-0.036
-280.486	-200.000	0.025	0.304
-279.472	-200.000	0.001	-0.432
-278.457	800.000	0.046	0.183
-277.443	-200.000	0.061	0.282
-276.428	-101.004	-0.194	-0.048
-275.413	-145.638	0.083	-0.008
-274.399	-81.341	-0.152	-0.051
-273.384	193.559	0.272	0.415
-272.370	-76.564	0.222	0.079
-271.355	567.164	-0.029	0.070
-270.340	-85.661	-0.478	-0.149
-269.326	-24.748	-0.179	0.107
-268.311	-82.383	0.311	-0.102
-267.297	-91.660	-0.221	-0.063
-266.282	800.000	0.025	-0.071
-265.267	-87.415	0.422	-0.129
-264.253	24.558	-0.242	0.202
-263.238	-126.211	-0.387	-0.058
-262.224	-25.166	-0.401	-0.239
-261.209	-133.666	-0.567	-0.071
-260.195	-61.806	-0.219	-0.093
-259.180	800.000	0.110	-0.369
-258.165	393.497	0.020	0.041
-257.151	-176.326	0.301	0.008
-256.136	-200.000	-0.055	-0.307
-255.122	-137.212	0.113	0.013
-254.107	-200.000	-0.004	-0.081
-253.092	-200.000	0.004	0.223
-252.078	-23.641	-0.061	0.037
-251.063	-200.000	-0.010	-0.180
-250.049	-56.404	-0.069	-0.031
-249.034	800.000	0.022	-0.063
-248.019	-150.440	0.328	0.025
-247.005	-200.000	0.019	-0.202
-245.990	800.000	-0.103	0.417
-244.976	-43.040	0.322	0.164
-243.961	-18.807	-0.190	-0.119
-242.946	4.767	0.058	0.043
-241.932	-85.267	0.116	-0.036
-240.917	-24.002	-0.253	-0.152
-239.903	306.795	0.084	0.158
-238.888	-200.000	0.005	0.286
-237.873	-25.396	-0.256	-0.152
-236.859	-16.748	-0.268	0.171
-235.844	125.982	0.122	-0.156
-234.830	-200.000	-0.010	-0.187
-233.815	27.961	-0.151	-0.128
-232.800	85.402	-0.246	0.272
-231.786	-0.306	-0.188	-0.135
-230.771	-53.336	0.042	0.019
-229.757	66.124	-0.156	0.160
-228.742	185.586	0.077	0.115
-227.727	297.365	0.054	0.099
-226.713	800.000	-0.052	0.152
-225.698	307.699	0.091	0.171
-224.684	-200.000	0.015	-0.132
-223.669	145.485	-0.195	0.263
-222.655	67.416	-0.245	0.252
-221.640	430.238	0.060	-0.132
-220.625	-140.945	0.107	0.011
-219.611	264.202	-0.161	-0.281
-218.596	-200.000	0.031	0.163
-217.582	-200.000	0.016	-0.288
-216.567	-144.442	0.155	0.014
-215.552	-139.515	0.236	-0.025
-214.538	-5.442	-0.120	0.083
-213.523	-27.900	0.245	-0.143
-212.509	-12.604	-0.034	0.023
-211.494	372.015	0.131	0.267
-210.479	-200.000	0.070	0.395
-209.465	-88.966	0.119	-0.035
-208.450	4.319	-0.153	-0.113
-207.436	-133.376	0.028	-0.004
-206.421	97.300	0.197	-0.228
-205.406	73.703	-0.087	0.092
-204.392	91.480	0.058	0.065
-203.377	-200.000	-0.021	-0.163
-202.363	77.775	0.135	0.145
-201.348	74.386	0.225	0.238
-200.333	800.000	-0.042	-0.161
-199.319	70.848	0.322	-0.336
-198.304	-200.000	0.024	0.269
-197.290	57.547	-0.341	-0.334
-196.275	-200.000	-0.036	-0.193
-195.260	-58.178	0.290	-0.127
-194.246	-200.000	-0.026	0.259
-193.231	800.000	0.096	0.268
-192.217	-163.727	-0.338	-0.016
-191.202	139.471	0.061	0.081
-190.187	-33.595	-0.216	-0.120
-189.173	800.000	0.002	0.009
-188.158	-125.198	0.040	-0.006
-187.144	17.656	-0.186	-0.149
-186.129	-200.000	0.049	-0.479
-185.114	800.000	0.083	0.268
-184.100	199.814	0.111	-0.171
-183.085	-101.091	0.217	-0.053
-182.071	112.550	-0.141	-0.171
-181.056	201.692	0.226	0.350
-180.042	-200.000	-0.022	0.209
-179.027	800.000	-0.007	-0.025
-178.012	-116.602	0.291	-0.054
-176.998	237.932	-0.157	-0.261
-175.983	363.194	-0.139	-0.281
-174.969	-46.862	-0.166	-0.082
-173.954	95.234	0.112	0.128
-172.939	-200.000	0.024	-0.258
-171.925	249.003	0.101	0.171
-170.910	800.000	0.055	-0.199
-169.896	-36.753	-0.118	0.064
-168.881	-68.762	0.178	-0.069
-167.866	-178.565	0.183	-0.004
-166.852	-200.000	-0.000	-0.088
-165.837	800.000	-0.029	0.111
-164.823	42.708	0.167	0.152
-163.808	20.562	0.219	0.178
-162.793	800.000	0.061	-0.233
-161.779	-46.346	0.348	0.171
-160.764	-79.027	0.108	0.037
-159.750	-57.130	0.036	-0.016
-158.735	-186.232	-0.233	0.003
-157.720	4.409	-0.256	-0.188
-156.706	48.415	-0.171	0.160
-155.691	-179.695	-0.071	0.002
-154.677	800.000	-0.108	0.325
-153.662	800.000	0.047	0.172
-152.647	-200.000	0.018	-0.283
-151.633	-41.458	0.189	-0.098
-150.618	-200.000	-0.005	-0.087
-149.604	36.220	-0.149	0.132
-148.589	-116.049	-0.060	0.011
-147.574	-143.416	0.077	-0.007
-146.560	20.205	-0.082	-0.066
-145.545	249.709	-0.168	-0.285
-144.531	-170.290	0.222	0.008
-143.516	-21.994	0.139	0.085
-142.502	-200.000	-0.037	-0.262
-141.487	55.052	0.190	-0.184
-140.472	-99.876	-0.175	0.044
-139.458	800.000	-0.102	0.349
-138.443	235.730	-0.129	0.214
-137.429	-200.000	-0.015	0.272
-136.414	416.401	-0.040	-0.085
-135.399	-30.201	0.387	0.220
-134.385	157.987	-0.132	0.183
-133.370	800.000	0.097	0.337
-132.356	190.991	-0.155	0.233
-131.341	-200.000	-0.037	0.248
-130.326	-11.411	0.059	0.039
-129.312	-108.669	-0.234	-0.050
-128.297	800.000	-0.170	0.511
-127.283	-200.000	0.004	0.205
-126.268	-83.132	-0.400	-0.129
-125.253	-186.483	-0.376	0.005
-124.239	-118.081	-0.283	-0.051
-123.224	511.015	0.012	-0.028
-122.210	-164.258	0.286	0.013
-121.195	-200.000	-0.049	0.483
-120.180	194.645	0.103	-0.157
-119.166	266.747	0.076	0.134
-118.151	-200.000	-0.001	0.043
-117.137	-131.055	-0.086	-0.012
-116.122	-91.722	0.220	-0.063
-115.107	4.477	0.097	0.071
-114.093	-200.000	0.033	-0.171
-113.078	80.410	0.101	0.109
-112.064	91.681	-0.090	0.101
-111.049	107.397	0.193	0.230
-110.034	62.855	-0.045	-0.045
-109.020	-200.000	0.051	0.250
-108.005	-71.757	-0.181	-0.068
-106.991	84.490	-0.092	-0.101
-105.976	423.626	-0.093	0.201
-104.962	570.681	0.079	0.192
-103.947	-53.370	-0.031	-0.014
-102.932	-52.639	-0.115	0.053
-101.918	-58.174	0.086	-0.038
-100.903	170.140	-0.066	-0.095
-99.889	7.652	-0.202	0.151
-98.874	-134.933	0.117	0.014
-97.859	-135.594	-0.280	0.033
-96.845	-118.259	-0.017	0.003
-95.830	-63.950	-0.115	0.047
-94.816	800.000	-0.126	-0.371
-93.801	-200.000	0.052	-0.265
-92.786	-153.539	0.123	-0.009
-91.772	137.003	0.038	0.049
-90.757	207.436	-0.116	0.181
-89.743	138.254	0.158	0.208
-88.728	156.769	0.076	-0.106
-87.713	-200.000	-0.030	0.249
-86.699	70.572	-0.137	-0.142
-85.684	800.000	-0.016	-0.066
-84.670	-22.354	0.282	0.171
-83.655	-200.000	-0.027	0.124
-82.640	466.529	-0.019	-0.043
-81.626	-200.000	-0.035	-0.248
-80.611	-200.000	-0.014	0.147
-79.597	-200.000	-0.010	0.123
-78.582	-115.480	-0.164	0.031
-77.567	800.000	-0.039	-0.150
-76.553	-23.127	-0.092	0.056
-75.538	185.293	0.134	0.200
-74.524	172.757	-0.182	0.262
-73.509	-28.032	-0.336	-0.194
-72.494	800.000	-0.036	-0.157
-71.480	-200.000	0.006	0.216
-70.465	-2.900	-0.083	0.058
-69.451	-200.000	-0.030	-0.245
-68.436	90.765	-0.051	0.057
-67.422	633.331	0.037	0.094
-66.407	233.984	-0.211	-0.347
-65.392	54.357	-0.328	-0.316
-64.378	-86.422	0.308	-0.095
-63.363	-200.000	-0.029	0.254
-62.349	-200.000	-0.057	0.394
-61.334	-45.861	-0.759	-0.374
-60.319	-154.010	0.498	-0.034
-59.305	800.000	-0.177	-0.639
-58.290	267.037	0.434	0.759
-57.276	467.489	0.609	1.364
-56.261	-200.000	71.176	528.442
-55.246	606.213	1272.654	3169.583
-54.232	147.005	2496.588	3355.620
-53.217	115.752	2341.394	2861.962
-52.203	53.700	1960.460	1880.739
-51.188	47.288	1747.860	1626.548
-50.173	44.151	1700.641	1558.494
-49.159	57.867	1731.192	1692.634
-48.144	64.560	1749.596	1762.148
-47.130	47.149	1713.737	1593.462
-46.115	43.611	1701.026	1554.451
-45.100	43.579	1695.930	1549.489
-44.086	43.473	1693.471	1546.366
-43.071	43.492	1690.980	1544.177
-42.057	43.503	1688.501	1541.933
-41.042	43.449	1686.814	1539.920
-40.027	43.543	1684.700	1538.650
-39.013	43.430	1683.264	1536.412
-37.998	43.481	1680.994	1534.668
-36.984	43.415	1680.012	1533.214
-35.969	43.627	1678.061	1532.980
-34.954	43.702	1676.661	1532.206
-33.940	43.672	1674.510	1529.956
-32.925	43.689	1672.705	1528.371
-31.911	43.599	1671.093	1526.154
-30.896	43.632	1669.558	1524.947
-29.881	43.675	1667.062	1522.929
-28.867	43.638	1665.628	1521.281
-27.852	43.546	1664.884	1519.844
-26.838	43.621	1663.180	1518.796
-25.823	43.671	1661.500	1517.579
-24.809	43.679	1660.278	1516.461
-23.794	43.632	1658.788	1514.688
-22.779	43.737	1657.093	1513.863
-21.765	43.661	1655.423	1511.707
-20.750	43.714	1653.868	1510.628
-19.736	43.719	1652.480	1509.339
-18.721	43.715	1650.757	1507.672
-17.706	43.616	1649.403	1505.637
-16.692	43.596	1647.655	1503.834
-15.677	43.713	1645.534	1502.706
-14.663	43.681	1644.887	1501.823
-13.648	43.711	1643.545	1500.756
-12.633	43.682	1641.825	1498.916
-11.619	43.633	1640.145	1496.957
-10.604	43.718	1638.667	1496.180
-9.590	43.719	1637.428	1494.994
-8.575	43.694	1636.053	1493.496
-7.560	43.675	1634.813	1492.166
-6.546	43.661	1633.477	1490.782
-5.531	43.696	1632.823	1490.380
-4.517	43.635	1631.552	1488.714
-3.502	43.762	1629.760	1487.951
-2.487	43.784	1628.591	1486.986
-1.473	43.800	1617.928	1477.309
-0.458	41.621	1598.700	1443.961
0.556	36.604	1596.615	1405.437
1.571	33.462	1620.056	1402.733
2.586	32.509	1634.385	1407.891
3.600	28.515	1580.065	1332.038
4.615	15.566	1458.755	1142.207
5.629	3.689	1381.201	1004.520
6.644	1.276	1370.790	981.271
7.659	1.137	1368.988	978.992
8.673	0.964	1367.931	977.038
9.688	0.983	1366.279	975.893
10.702	0.722	1363.416	972.082
11.717	4.586	1371.941	1003.045
12.731	15.915	1393.025	1092.232
13.746	23.834	1406.816	1154.607
14.761	24.685	1407.383	1160.496
15.775	24.908	1406.903	1161.447
16.790	24.948	1406.124	1160.961
17.804	24.960	1405.528	1160.442
18.819	25.182	1405.170	1161.479
19.834	25.220	1404.644	1161.187
20.848	25.235	1403.879	1160.551
21.863	25.216	1403.112	1159.692
22.877	25.360	1401.409	1159.109
23.892	25.296	1400.980	1158.238
24.907	25.200	1400.228	1156.897
25.921	25.246	1399.633	1156.600
26.936	25.250	1398.334	1155.448
27.950	25.237	1397.276	1154.386
28.965	25.237	1395.978	1153.214
29.980	25.199	1394.774	1151.872
30.994	25.218	1393.701	1151.008
32.009	25.338	1392.325	1150.542
33.023	25.172	1391.560	1148.745
34.038	25.302	1390.072	1148.242
35.053	25.318	1388.637	1147.061
36.067	25.164	1388.417	1145.792
37.082	25.233	1387.028	1144.983
38.096	25.214	1386.368	1144.218
39.111	25.248	1385.117	1143.301
40.126	25.188	1384.774	1142.531
41.140	25.254	1383.992	1142.207
42.155	25.243	1383.514	1141.639
43.169	25.244	1383.663	1141.668
44.184	25.218	1383.461	1141.236
45.199	25.184	1383.009	1140.545
46.213	25.310	1382.034	1140.445
47.228	25.297	1381.304	1139.654
48.242	25.197	1380.162	1137.980
49.257	25.225	1378.466	1136.655
50.271	25.310	1376.777	1135.702
51.286	25.200	1376.014	1134.274
52.301	25.160	1375.071	1133.149
53.315	25.138	1374.188	1132.178
54.330	25.268	1372.670	1131.648
55.344	25.186	1371.756	1130.277
56.359	25.131	1371.185	1129.361
57.374	25.217	1370.433	1129.180
58.388	25.219	1369.505	1128.330
59.403	25.103	1369.275	1127.313
60.417	25.237	1368.142	1127.119
61.432	25.104	1368.253	1126.278
62.447	25.119	1367.297	1125.485
63.461	25.193	1365.663	1124.505
64.476	25.235	1364.631	1123.816
65.490	25.165	1363.597	1122.428
66.505	25.215	1362.153	1121.454
67.520	25.171	1360.778	1119.951
68.534	25.288	1360.080	1120.003
69.549	25.313	1359.000	1119.172
70.563	25.299	1357.684	1117.902
71.578	25.234	1356.811	1116.678
72.593	25.226	1356.258	1116.078
73.607	25.287	1355.365	1115.622
74.622	25.205	1354.727	1114.488
75.636	25.142	1354.406	1113.732
76.651	25.238	1353.454	1113.450
77.666	25.283	1352.640	1112.963
78.680	25.286	1352.134	1112.465
79.695	25.288	1351.350	1111.733
80.709	25.274	1350.447	1110.807
81.724	25.283	1349.696	1110.142
82.739	25.307	1348.481	1109.195
83.753	25.221	1347.666	1107.897
84.768	25.125	1347.094	1106.733
85.782	25.147	1345.655	1105.590
86.797	25.311	1344.322	1105.406
87.812	25.206	1343.640	1104.102
88.826	25.235	1342.252	1103.043
89.841	25.154	1341.232	1101.609
90.855	25.254	1339.653	1100.827
91.870	25.313	1339.512	1100.979
92.884	25.310	1338.485	1100.020
93.899	25.322	1338.107	1099.683
94.914	25.238	1337.420	1098.504
95.928	25.402	1336.109	1098.338
96.943	25.324	1335.885	1097.576
97.957	25.250	1334.928	1096.244
98.972	25.329	1333.749	1095.658
99.987	25.261	1333.073	1094.592
101.001	25.263	1331.934	1093.570
102.016	25.303	1331.074	1093.012
103.030	25.286	1329.697	1091.683
104.045	25.180	1329.467	1090.752
105.060	25.305	1328.642	1090.740
106.074	25.350	1327.433	1089.922
107.089	25.241	1326.668	1088.535
108.103	25.347	1325.080	1087.778
109.118	25.355	1324.012	1086.857
110.133	25.381	1322.878	1085.983
111.147	25.296	1321.861	1084.542
112.162	25.325	1320.676	1083.648
113.176	25.429	1319.636	1083.324
114.191	25.318	1318.921	1081.976
115.206	25.436	1317.388	1081.332
116.220	25.362	1316.560	1080.109
117.235	25.376	1315.956	1079.601
118.249	25.343	1314.705	1078.283
119.264	25.276	1314.378	1077.518
120.279	25.357	1313.466	1077.161
121.293	25.259	1312.823	1075.948
122.308	25.392	1311.612	1075.658
123.322	25.406	1310.792	1074.974
124.337	25.387	1310.361	1074.412
125.352	25.424	1309.386	1073.739
126.366	25.483	1308.317	1073.117
127.381	25.417	1307.786	1072.196
128.395	25.445	1306.953	1071.581
129.410	25.399	1306.195	1070.591
130.424	25.484	1305.667	1070.570
131.439	25.449	1304.682	1069.459
132.454	25.439	1303.980	1068.733
133.468	25.403	1302.995	1067.618
134.483	25.360	1302.899	1067.185
135.497	25.409	1302.064	1066.699
136.512	25.369	1301.020	1065.514
137.527	25.391	1299.934	1064.663
138.541	25.376	1298.225	1063.075
139.556	25.503	1296.986	1062.722
140.570	25.443	1296.365	1061.765
141.585	25.414	1295.305	1060.627
142.600	25.475	1293.411	1059.345
143.614	25.459	1293.269	1059.040
144.629	25.304	1292.762	1057.620
145.643	25.410	1291.374	1057.012
146.658	25.425	1290.018	1055.897
147.673	25.261	1289.282	1054.236
148.687	25.457	1287.629	1053.946
149.702	25.341	1287.012	1052.666
150.716	25.392	1285.376	1051.529
151.731	25.362	1284.820	1050.808
152.746	25.348	1283.690	1049.710
153.760	25.384	1282.703	1049.019
154.775	25.427	1281.647	1048.314
155.789	25.423	1280.591	1047.336
156.804	25.389	1279.628	1046.258
157.819	25.342	1279.407	1045.706
158.833	25.407	1278.228	1045.030
159.848	25.446	1277.546	1044.607
160.862	25.302	1276.845	1043.107
161.877	25.477	1276.085	1043.409
162.892	25.400	1275.068	1042.039
163.906	25.494	1274.306	1041.866
164.921	25.537	1273.433	1041.309
165.935	25.496	1272.477	1040.197
166.950	25.474	1271.970	1039.566
167.964	25.415	1271.528	1038.770
168.979	25.487	1271.208	1038.833
169.994	25.600	1270.274	1038.630
171.008	25.510	1269.652	1037.513
172.023	25.587	1268.969	1037.307
173.037	25.473	1268.344	1036.048
174.052	25.424	1267.942	1035.346
175.067	25.499	1266.274	1034.325
176.081	25.538	1265.680	1033.972
177.096	25.480	1265.112	1033.080
178.110	25.435	1264.203	1031.988
179.125	25.522	1263.017	1031.430
180.140	25.458	1262.168	1030.278
181.154	25.606	1260.668	1029.807
182.169	25.547	1259.961	1028.801
183.183	25.575	1258.897	1028.000
184.198	25.465	1257.888	1026.458
185.213	25.517	1256.967	1025.911
186.227	25.624	1255.799	1025.481
187.242	25.606	1255.035	1024.660
188.256	25.527	1254.363	1023.572
189.271	25.557	1253.729	1023.138
190.286	25.600	1252.457	1022.251
191.300	25.562	1252.562	1022.030
192.315	25.558	1251.632	1021.162
193.329	25.521	1251.492	1020.745
194.344	25.627	1250.741	1020.643
195.359	25.513	1250.523	1019.730
196.373	25.514	1249.881	1019.123
197.388	25.484	1249.851	1018.837
198.402	25.411	1249.699	1018.208
199.417	25.541	1248.970	1018.259
200.432	25.632	1248.070	1017.952
201.446	25.521	1247.638	1016.879
202.461	25.646	1246.737	1016.763
203.475	25.637	1245.676	1015.754
204.490	25.573	1245.133	1014.864
205.504	25.590	1243.939	1013.895
206.519	25.737	1242.758	1013.672
207.534	25.686	1242.245	1012.876
208.548	25.627	1241.223	1011.623
209.563	25.640	1240.319	1010.869
210.577	25.626	1239.933	1010.387
211.592	25.698	1238.757	1009.740
212.607	25.657	1238.256	1009.015
213.621	25.774	1236.935	1008.505
214.636	25.679	1236.960	1007.905
215.650	25.606	1236.113	1006.715
216.665	25.678	1234.729	1005.898
217.680	25.782	1233.836	1005.667
218.694	25.715	1233.138	1004.633
219.709	25.814	1231.872	1004.063
220.723	25.825	1231.297	1003.569
221.738	25.755	1231.015	1002.863
222.753	25.590	1230.147	1001.148
223.767	25.686	1229.499	1001.062
224.782	25.731	1229.082	1000.887
225.796	25.732	1228.801	1000.572
226.811	25.831	1227.619	1000.072
227.826	25.727	1227.411	999.238
228.840	25.794	1226.783	999.012
229.855	25.794	1226.067	998.338
230.869	25.913	1225.380	998.351
231.884	25.835	1224.320	996.968
232.899	25.749	1223.900	996.062
233.913	25.858	1223.190	995.994
234.928	25.904	1222.625	995.700
235.942	25.884	1222.048	995.035
236.957	25.873	1221.489	994.430
237.972	25.966	1220.689	994.202
238.986	25.804	1220.073	992.722
240.001	25.882	1219.614	992.690
241.015	25.882	1218.771	991.916
242.030	25.983	1217.630	991.455
243.045	26.061	1217.111	991.374
244.059	25.963	1216.264	990.058
245.074	25.991	1215.224	989.274
246.088	25.870	1214.983	988.327
247.103	26.045	1213.763	988.208
248.117	26.095	1212.676	987.511
249.132	25.986	1212.319	986.536
250.147	26.055	1211.608	986.249
251.161	26.015	1210.820	985.301
252.176	25.961	1210.430	984.597
253.190	26.092	1209.500	984.469
254.205	25.997	1209.283	983.690
255.220	26.074	1208.038	983.009
256.234	26.189	1207.720	983.288
257.249	26.189	1207.201	982.778
258.263	26.081	1206.476	981.515
259.278	26.089	1206.218	981.264
260.293	26.171	1205.239	980.826
261.307	26.058	1205.295	980.170
262.322	26.062	1204.516	979.471
263.336	26.106	1203.803	979.045
264.351	26.077	1203.144	978.260
265.366	26.087	1202.436	977.655
266.380	26.067	1202.067	977.158
267.395	26.188	1201.112	976.952
268.409	26.017	1200.563	975.492
269.424	25.941	1200.695	975.102
270.439	26.116	1199.762	975.204
271.453	26.042	1199.218	974.277
272.468	26.230	1197.841	974.086
273.482	26.163	1197.226	973.138
274.497	26.094	1196.813	972.348
275.512	26.100	1196.487	972.028
276.526	26.178	1195.619	971.654
277.541	26.242	1194.735	971.194
278.555	26.205	1194.438	970.670
279.570	26.244	1193.290	969.860
280.585	26.191	1192.872	969.150
281.599	26.282	1191.758	968.644
282.614	26.234	1190.658	967.410
283.628	26.326	1190.027	967.305
284.643	26.300	1188.999	966.244
285.657	26.290	1188.265	965.511
286.672	26.281	1187.298	964.591
287.687	26.294	1186.769	964.145
288.701	26.381	1185.904	963.818
289.716	26.419	1185.372	963.502
290.730	26.350	1184.711	962.514
291.745	26.310	1183.960	961.607
292.760	26.379	1183.244	961.304
293.774	26.313	1183.016	960.687
294.789	26.404	1182.246	960.459
295.803	26.429	1181.691	960.054
296.818	26.508	1180.609	959.508
297.833	26.362	1180.161	958.287
298.847	26.423	1179.585	958.059
299.862	26.506	1178.909	957.865
300.876	26.423	1178.455	956.968
301.891	26.445	1178.018	956.647
302.906	26.438	1177.495	956.102
303.920	26.491	1176.267	955.300
304.935	26.502	1175.605	954.735
305.949	26.483	1175.096	954.134
306.964	26.547	1173.985	953.489
307.979	26.564	1173.934	953.453
308.993	26.434	1173.489	952.321
310.008	26.584	1172.501	952.224
311.022	26.608	1171.652	951.577
312.037	26.504	1171.098	950.495
313.052	26.706	1169.635	950.282
314.066	26.460	1169.458	948.763
315.081	26.437	1168.833	948.054
316.095	26.604	1167.952	948.128
317.110	26.598	1167.421	947.583
318.125	26.542	1166.915	946.796
319.139	26.526	1166.254	946.093
320.154	26.628	1165.172	945.664
321.168	26.705	1164.756	945.643
322.183	26.591	1164.395	944.674
323.197	26.596	1164.235	944.488
324.212	26.629	1163.255	943.778
325.227	26.710	1162.771	943.724
326.241	26.676	1162.673	943.386
327.256	26.711	1161.728	942.717
328.270	26.702	1160.373	941.485
329.285	26.739	1160.063	941.344
330.300	26.705	1158.729	940.003
331.314	26.671	1158.308	939.400
332.329	26.743	1157.396	938.949
333.343	26.759	1156.557	938.272
334.358	26.816	1155.805	937.871
335.373	26.778	1155.628	937.451
336.387	26.862	1154.715	937.060
337.402	26.807	1153.772	935.930
338.416	26.847	1153.157	935.554
339.431	26.765	1153.149	935.040
340.446	26.921	1151.983	934.813
341.460	26.948	1151.296	934.314
342.475	26.899	1150.549	933.373
343.489	26.970	1149.403	932.725
344.504	26.880	1148.549	931.490
345.519	26.844	1148.067	930.828
346.533	26.843	1147.281	930.104
347.548	27.019	1146.462	930.259
348.562	26.768	1145.897	928.436
349.577	26.800	1145.668	928.333
350.592	26.878	1144.261	927.507
351.606	26.931	1143.752	927.286
352.621	26.968	1143.372	927.085
353.635	26.950	1142.721	926.380
354.650	26.920	1142.147	925.680
355.665	26.963	1141.473	925.272
356.679	26.998	1140.727	924.764
357.694	27.114	1140.051	924.723
358.708	27.092	1139.650	924.203
359.723	27.068	1138.244	922.858
360.738	27.041	1137.684	922.188
361.752	27.034	1137.340	921.792
362.767	27.082	1137.177	921.824
363.781	27.152	1136.481	921.532
364.796	27.025	1136.064	920.469
365.810	27.070	1135.189	919.906
366.825	27.080	1135.003	919.723
367.840	27.198	1134.023	919.444
368.854	27.217	1133.595	919.113
369.869	27.086	1133.132	917.992
370.883	27.213	1131.888	917.546
371.898	27.195	1131.641	917.172
372.913	27.263	1130.883	916.819
373.927	27.146	1130.622	915.939
374.942	27.354	1129.896	916.317
375.956	27.290	1129.460	915.558
376.971	27.277	1128.650	914.755
377.986	27.283	1128.175	914.320
379.000	27.390	1127.338	914.098
380.015	27.329	1126.935	913.383
381.029	27.256	1126.677	912.731
382.044	27.281	1126.065	912.277
383.059	27.306	1125.232	911.649
384.073	27.365	1124.747	911.467
385.088	27.230	1123.688	909.858
386.102	27.378	1122.893	909.869
387.117	27.279	1122.252	908.774
388.132	27.306	1121.267	908.031
389.146	27.325	1120.524	907.447
390.161	27.262	1120.142	906.740
391.175	27.442	1119.106	906.718
392.190	27.462	1118.543	906.284
393.205	27.541	1117.751	905.955
394.219	27.541	1116.640	904.975
395.234	27.424	1116.477	904.179
396.248	27.420	1115.467	903.262
397.263	27.607	1114.296	903.160
398.278	27.507	1114.054	902.390
399.292	27.607	1113.326	902.213
400.307	27.590	1112.959	901.751
401.321	27.538	1112.095	900.718
402.336	27.628	1111.317	900.449
403.350	27.526	1110.930	899.556
404.365	27.596	1110.162	899.200
405.380	27.571	1109.518	898.472
406.394	27.594	1109.039	898.120
407.409	27.706	1108.041	897.781
408.423	27.563	1107.359	896.446
409.438	27.706	1106.561	896.427
410.453	27.631	1106.225	895.708
411.467	27.877	1104.630	895.539
412.482	27.786	1104.337	894.778
413.496	27.749	1103.960	894.213
414.511	27.776	1103.241	893.685
415.526	27.826	1102.719	893.424
416.540	27.797	1102.253	892.826
417.555	27.751	1101.955	892.281
418.569	27.787	1101.464	891.983
419.584	27.735	1101.140	891.385
420.599	27.834	1100.901	891.598
421.613	77.044	1280.728	1307.534
422.628	72.154	1306.933	1307.663
