DTS Sentinel unit serial number:	SN413079Multiplexer serial number:	ORYXHardware model number:	OX4-SRSoftware version number:	ORYX F/W v4.00 Oryx Data Collector v3.7.2.0data status	okinstallation	princeton_trtdifferential loss correction	single-endedforward channel	channel 2reverse channel	N/Adate	2019/09/14time	06:43:35forward acquisition time	60.00reverse acquisition time	0.00gamma	496.2192k internal	0.2338k external	0.2338temperature offset calibration	1.0132default loss term (dB/km)	0.3790temperature slope calibration	1.0000multiplexer offset coefficient	1.0000multiplexer slope coefficient	1.0000fibre end	0.00T internal ref (°C)	26.31T ext. ref 1 (°C)	3.41T ext. ref 2 (°C)	20.57length (m)	temperature (°C)	Stokes	anti-Stokes-747.200	800.000	0.073	0.217
-746.185	103.182	-0.128	-0.151
-745.171	90.441	0.066	-0.075
-744.156	375.082	0.099	0.203
-743.142	800.000	-0.116	-0.322
-742.127	203.856	-0.169	0.263
-741.112	-19.733	0.102	-0.063
-740.098	-112.835	0.179	0.036
-739.083	-1.633	-0.243	0.172
-738.069	-200.000	0.002	0.047
-737.054	130.970	0.058	0.075
-736.039	128.551	-0.155	-0.198
-735.025	-200.000	0.031	0.292
-734.010	-200.000	-0.070	-0.563
-732.996	742.209	0.040	-0.107
-731.981	-200.000	0.010	-0.321
-730.966	-34.110	-0.105	-0.058
-729.952	-200.000	0.021	-0.244
-728.937	-24.617	0.155	0.092
-727.923	84.664	-0.090	-0.099
-726.908	-200.000	-0.011	0.291
-725.894	-20.855	-0.293	0.180
-724.879	-4.071	-0.236	0.164
-723.864	27.220	0.051	0.043
-722.850	194.815	0.198	0.301
-721.835	-96.073	-0.463	-0.123
-720.821	800.000	-0.017	-0.073
-719.806	-200.000	0.005	-0.125
-718.791	75.135	-0.081	-0.085
-717.777	353.420	0.070	0.139
-716.762	-172.884	-0.326	-0.010
-715.748	-112.225	0.168	-0.034
-714.733	-34.665	-0.260	-0.143
-713.718	111.125	0.101	0.122
-712.704	-64.865	-0.218	-0.088
-711.689	-127.238	0.177	-0.026
-710.675	-89.836	-0.210	0.062
-709.660	-69.915	0.131	-0.050
-708.645	-200.000	0.014	-0.163
-707.631	359.024	-0.112	-0.224
-706.616	-200.000	0.028	-0.131
-705.602	524.404	-0.106	-0.249
-704.587	-200.000	0.021	-0.343
-703.572	800.000	-0.024	0.078
-702.558	-151.565	0.235	-0.017
-701.543	551.281	0.110	0.266
-700.529	-200.000	0.003	0.213
-699.514	-27.855	-0.088	-0.051
-698.499	-93.335	-0.236	0.066
-697.485	13.375	-0.343	-0.266
-696.470	599.580	0.064	0.159
-695.456	-10.856	-0.196	0.130
-694.441	81.784	-0.142	-0.154
-693.426	41.678	0.234	-0.212
-692.412	296.917	-0.155	-0.285
-691.397	152.828	0.054	-0.074
-690.383	55.462	-0.131	-0.127
-689.368	31.642	-0.064	0.055
-688.354	242.886	0.131	-0.219
-687.339	167.167	0.057	0.081
-686.324	-70.822	0.212	0.080
-685.310	-99.314	-0.287	-0.073
-684.295	283.396	0.056	-0.101
-683.281	-94.022	0.166	-0.046
-682.266	-145.291	0.068	0.006
-681.251	39.303	0.196	-0.176
-680.237	48.987	-0.050	0.047
-679.222	-134.114	0.148	-0.018
-678.208	137.565	-0.196	-0.257
-677.193	36.355	0.036	-0.031
-676.178	-143.508	-0.175	0.017
-675.164	800.000	0.064	-0.258
-674.149	218.033	-0.103	-0.164
-673.135	170.354	0.117	-0.168
-672.120	800.000	0.060	-0.196
-671.105	14.327	0.044	0.035
-670.091	-176.565	0.101	-0.003
-669.076	-76.422	0.056	-0.020
-668.062	-47.601	-0.174	0.084
-667.047	800.000	-0.099	-0.301
-666.032	126.053	0.236	-0.299
-665.018	497.348	0.054	0.124
-664.003	-19.272	-0.247	-0.153
-662.989	-200.000	-0.016	-0.121
-661.974	115.569	0.067	-0.082
-660.959	-9.934	0.047	-0.031
-659.945	-200.000	-0.009	0.127
-658.930	147.368	-0.174	0.234
-657.916	-20.575	-0.142	0.087
-656.901	479.197	0.125	-0.284
-655.886	-200.000	0.021	-0.110
-654.872	57.253	0.185	-0.181
-653.857	-118.582	0.266	-0.047
-652.843	-148.177	-0.115	0.009
-651.828	38.311	0.115	0.102
-650.814	800.000	0.084	0.235
-649.799	339.683	-0.084	0.164
-648.784	238.091	0.059	-0.098
-647.770	248.914	0.053	-0.090
-646.755	-200.000	0.042	0.241
-645.741	166.499	0.133	-0.188
-644.726	-87.840	-0.183	0.055
-643.711	-200.000	-0.005	-0.026
-642.697	-4.509	0.173	0.120
-641.682	-84.419	0.328	0.104
-640.668	800.000	0.037	-0.104
-639.653	38.218	0.218	-0.194
-638.638	800.000	0.075	-0.304
-637.624	-93.538	-0.159	-0.044
-636.609	-156.887	-0.295	0.018
-635.595	-200.000	-0.014	-0.172
-634.580	-46.342	-0.184	-0.090
-633.565	-200.000	0.000	-0.192
-632.551	800.000	0.074	-0.280
-631.536	-200.000	0.031	-0.144
-630.522	552.900	-0.107	-0.257
-629.507	-114.014	-0.246	0.048
-628.492	502.015	-0.150	0.347
-627.478	44.705	0.166	-0.152
-626.463	-200.000	-0.066	-0.456
-625.449	43.449	0.141	0.129
-624.434	-68.859	0.232	-0.089
-623.419	-61.210	-0.212	0.089
-622.405	-183.821	0.335	-0.006
-621.390	165.058	-0.120	-0.169
-620.376	36.347	-0.198	-0.174
-619.361	215.820	-0.073	-0.116
-618.346	156.412	-0.170	-0.235
-617.332	612.923	-0.091	-0.228
-616.317	-14.224	-0.392	-0.253
-615.303	-200.000	-0.018	0.190
-614.288	100.911	-0.142	-0.164
-613.273	-75.283	0.046	0.016
-612.259	-99.050	0.228	-0.058
-611.244	-200.000	0.005	-0.078
-610.230	-6.142	-0.053	0.036
-609.215	-4.487	0.129	0.089
-608.201	-200.000	0.033	0.282
-607.186	-100.504	0.326	0.080
-606.171	150.260	-0.145	0.196
-605.157	-200.000	-0.004	-0.036
-604.142	-200.000	0.019	-0.158
-603.128	-131.298	-0.430	-0.057
-602.113	160.056	-0.231	-0.321
-601.098	-133.250	0.405	-0.051
-600.084	160.597	-0.064	0.089
-599.069	-28.995	-0.271	0.155
-598.055	254.966	0.278	0.475
-597.040	800.000	-0.043	-0.149
-596.025	32.736	0.232	0.200
-595.011	-200.000	-0.022	-0.122
-593.996	150.978	-0.115	-0.156
-592.982	298.557	0.109	-0.200
-591.967	-26.471	0.085	0.050
-590.952	-46.306	-0.260	-0.127
-589.938	-39.408	-0.189	-0.099
-588.923	-154.693	0.308	0.020
-587.909	-200.000	0.089	-0.449
-586.894	-47.938	-0.143	0.069
-585.879	-200.000	0.051	0.271
-584.865	-66.075	-0.226	0.090
-583.850	563.007	-0.007	0.017
-582.836	8.246	-0.253	-0.189
-581.821	-120.403	0.415	0.070
-580.806	-153.274	0.078	0.005
-579.792	499.346	0.114	0.262
-578.777	-200.000	0.029	0.141
-577.763	-107.291	-0.198	0.043
-576.748	-133.383	-0.256	0.032
-575.733	60.863	0.056	-0.055
-574.719	587.392	0.036	0.089
-573.704	159.388	-0.128	-0.178
-572.690	292.155	-0.221	0.401
-571.675	-89.814	-0.220	0.064
-570.661	251.190	0.156	-0.265
-569.646	-166.981	-0.474	-0.019
-568.631	-65.956	-0.039	0.016
-567.617	-200.000	-0.003	0.020
-566.602	486.643	-0.071	-0.162
-565.588	-3.538	-0.257	-0.178
-564.573	-20.320	-0.348	-0.213
-563.558	-114.107	-0.274	-0.053
-562.544	68.065	0.106	-0.108
-561.529	-113.677	0.043	0.008
-560.515	-36.728	-0.226	-0.121
-559.500	-0.983	-0.366	-0.258
-558.485	-33.035	-0.172	-0.095
-557.471	447.955	0.041	0.091
-556.456	37.951	-0.055	0.048
-555.442	-121.689	0.249	0.041
-554.427	-108.708	0.281	0.060
-553.412	-62.159	0.071	-0.030
-552.398	800.000	-0.032	0.097
-551.383	-200.000	0.013	-0.067
-550.369	101.805	-0.177	-0.206
-549.354	-143.942	0.137	0.013
-548.339	800.000	-0.035	-0.100
-547.325	800.000	-0.093	-0.336
-546.310	-200.000	-0.031	0.336
-545.296	-14.083	-0.190	-0.122
-544.281	120.002	0.108	0.134
-543.266	42.704	-0.044	-0.040
-542.252	695.714	-0.151	-0.395
-541.237	644.273	-0.108	-0.273
-540.223	800.000	0.066	0.259
-539.208	127.112	-0.115	-0.145
-538.193	-200.000	0.044	0.197
-537.179	-102.686	-0.115	0.027
-536.164	-130.696	0.136	0.018
-535.150	353.520	-0.020	0.040
-534.135	-147.024	-0.051	0.004
-533.121	-200.000	-0.018	-0.126
-532.106	-18.825	-0.260	0.161
-531.091	-75.440	0.324	-0.115
-530.077	-117.184	-0.229	-0.041
-529.062	-66.922	0.189	-0.074
-528.048	336.170	-0.210	0.405
-527.033	-114.813	0.037	-0.007
-526.018	-65.720	-0.132	0.053
-525.004	299.968	-0.070	-0.128
-523.989	-155.265	-0.322	-0.021
-522.975	-39.401	0.206	0.108
-521.960	200.590	-0.092	0.141
-520.945	70.453	-0.185	0.190
-519.931	-162.038	0.108	-0.005
-518.916	550.709	0.072	-0.171
-517.902	102.918	0.114	-0.132
-516.887	800.000	-0.086	0.253
-515.872	85.179	-0.168	-0.183
-514.858	172.550	-0.075	-0.107
-513.843	136.573	0.078	-0.102
-512.829	-42.016	0.385	0.196
-511.814	-40.622	0.088	-0.045
-510.799	800.000	0.084	-0.355
-509.785	800.000	-0.085	-0.364
-508.770	800.000	-0.088	-0.247
-507.756	223.595	0.016	-0.026
-506.741	165.110	-0.118	-0.165
-505.726	800.000	-0.111	0.462
-504.712	-119.540	0.047	0.008
-503.697	-55.573	-0.161	-0.072
-502.683	-200.000	0.008	-0.132
-501.668	-200.000	0.003	0.038
-500.653	-185.757	-0.088	0.001
-499.639	37.035	-0.424	0.372
-498.624	-134.976	0.394	0.047
-497.610	310.207	0.055	-0.103
-496.595	135.377	0.121	0.156
-495.581	-173.686	-0.037	-0.001
-494.566	16.453	0.209	0.164
-493.551	-88.164	-0.077	-0.023
-492.537	360.088	0.150	-0.299
-491.522	0.310	0.148	-0.105
-490.508	-3.192	0.108	-0.075
-489.493	-200.000	0.049	0.304
-488.478	203.369	-0.228	0.350
-487.464	578.796	0.066	0.161
-486.449	800.000	-0.092	-0.284
-485.435	800.000	-0.053	-0.160
-484.420	-9.873	0.020	0.013
-483.405	188.717	0.216	0.320
-482.391	167.693	-0.123	-0.174
-481.376	592.750	-0.110	0.270
-480.362	40.732	-0.318	0.284
-479.347	-38.886	-0.231	-0.121
-478.332	-41.684	-0.335	0.171
-477.318	290.641	0.160	-0.289
-476.303	-144.264	0.112	0.010
-475.289	-64.419	0.330	-0.133
-474.274	-62.732	-0.432	0.178
-473.259	-39.841	0.214	-0.111
-472.245	-77.526	-0.240	-0.083
-471.230	-110.028	-0.246	-0.051
-470.216	-95.609	-0.021	0.005
-469.201	-156.324	0.347	0.022
-468.186	-200.000	-0.012	-0.322
-467.172	-200.000	0.015	-0.071
-466.157	-127.151	-0.244	0.035
-465.143	-200.000	0.046	-0.279
-464.128	-20.516	0.107	0.065
-463.113	800.000	-0.128	0.388
-462.099	-85.749	0.153	0.047
-461.084	-200.000	-0.046	-0.351
-460.070	-200.000	0.007	-0.167
-459.055	-56.185	-0.365	-0.161
-458.040	-115.891	-0.359	-0.067
-457.026	168.107	-0.122	-0.173
-456.011	800.000	0.111	0.332
-454.997	-82.326	-0.231	-0.074
-453.982	-200.000	0.009	-0.050
-452.968	-200.000	-0.298	0.001
-451.953	-93.986	0.078	-0.021
-450.938	-200.000	-0.072	0.384
-449.924	800.000	0.047	-0.167
-448.909	-32.309	-0.146	0.081
-447.895	26.545	0.101	-0.083
-446.880	207.317	-0.126	-0.195
-445.865	396.780	-0.067	0.140
-444.851	-186.590	0.437	-0.006
-443.836	-200.000	-0.008	-0.071
-442.822	33.395	0.271	0.233
-441.807	287.698	-0.061	0.109
-440.792	-81.058	0.131	0.043
-439.778	1.141	-0.290	0.206
-438.763	800.000	0.017	-0.064
-437.749	226.554	0.070	0.112
-436.734	-15.676	-0.144	-0.091
-435.719	-200.000	0.033	-0.272
-434.705	-164.368	0.145	-0.007
-433.690	-16.663	-0.154	0.096
-432.676	403.390	0.107	0.223
-431.661	-44.447	0.295	0.146
-430.646	133.659	0.223	-0.286
-429.632	4.483	0.033	-0.024
-428.617	-106.244	-0.031	0.007
-427.603	451.349	0.103	0.225
-426.588	46.024	-0.088	0.081
-425.573	-200.000	0.028	0.246
-424.559	-69.455	0.227	-0.086
-423.544	423.923	0.033	-0.071
-422.530	778.981	-0.054	-0.146
-421.515	-105.186	-0.234	-0.053
-420.500	-136.416	0.199	-0.023
-419.486	-84.536	0.174	-0.054
-418.471	31.340	0.104	0.089
-417.457	165.270	-0.106	-0.148
-416.442	-96.173	-0.157	0.041
-415.428	-200.000	-0.017	-0.128
-414.413	-15.557	-0.266	-0.168
-413.398	465.062	-0.069	-0.154
-412.384	-142.772	-0.205	-0.020
-411.369	800.000	0.104	0.316
-410.355	-30.357	-0.195	0.110
-409.340	229.671	0.089	-0.144
-408.325	37.685	0.123	-0.108
-407.311	457.402	0.128	0.281
-406.296	123.117	-0.253	0.314
-405.282	279.321	-0.042	0.074
-404.267	-81.418	-0.095	0.031
-403.252	19.371	0.146	0.116
-402.238	-200.000	-0.022	0.182
-401.223	1.324	-0.126	0.090
-400.209	800.000	0.045	0.169
-399.194	391.247	-0.018	0.037
-398.179	-90.109	-0.104	-0.030
-397.165	-200.000	0.015	-0.123
-396.150	18.266	0.065	0.051
-395.136	227.635	-0.139	-0.223
-394.121	-68.600	0.376	-0.144
-393.106	84.252	0.224	-0.243
-392.092	-70.276	-0.244	0.092
-391.077	685.186	0.096	-0.248
-390.063	165.259	0.151	0.212
-389.048	-4.377	0.212	0.145
-388.033	-16.458	0.076	-0.048
-387.019	-200.000	-0.008	0.119
-386.004	-123.320	-0.406	-0.064
-384.990	-200.000	0.083	0.439
-383.975	-14.122	0.173	0.110
-382.960	181.874	0.139	-0.202
-381.946	181.389	0.222	0.323
-380.931	502.023	0.132	0.302
-379.917	166.423	-0.074	0.104
-378.902	-70.752	-0.246	-0.092
-377.888	413.089	-0.091	-0.191
-376.873	-59.275	-0.240	0.102
-375.858	-129.771	-0.299	-0.041
-374.844	73.936	-0.169	-0.175
-373.829	-157.131	0.196	-0.012
-372.815	-164.847	-0.204	0.009
-371.800	800.000	-0.053	-0.214
-370.785	-8.054	0.148	0.098
-369.771	-128.406	-0.274	-0.039
-368.756	36.044	-0.167	-0.145
-367.742	-200.000	-0.001	0.244
-366.727	35.346	0.125	0.108
-365.712	800.000	0.051	0.140
-364.698	17.960	0.132	0.104
-363.683	-4.135	-0.299	0.204
-362.669	800.000	0.055	-0.188
-361.654	-52.852	0.281	0.128
-360.639	-21.481	-0.350	-0.211
-359.625	259.034	-0.145	-0.247
-358.610	101.504	0.126	-0.145
-357.596	-60.950	0.109	0.045
-356.581	180.949	0.182	-0.264
-355.566	-36.478	0.256	-0.136
-354.552	-26.334	0.191	0.111
-353.537	5.230	0.225	-0.164
-352.523	-24.961	0.094	-0.055
-351.508	210.204	0.093	-0.144
-350.493	800.000	-0.037	-0.138
-349.479	-200.000	-0.017	-0.137
-348.464	-50.147	0.243	0.114
-347.450	487.955	0.048	0.109
-346.435	42.296	-0.127	0.114
-345.420	-16.271	0.454	0.285
-344.406	42.322	-0.081	-0.072
-343.391	-182.624	0.071	0.001
-342.377	251.594	-0.050	-0.084
-341.362	-89.386	0.068	0.020
-340.348	136.114	0.186	0.240
-339.333	-39.345	0.491	-0.254
-338.318	-200.000	-0.061	0.275
-337.304	-158.598	0.134	-0.008
-336.289	82.198	0.189	0.203
-335.275	13.130	0.060	-0.046
-334.260	-64.081	0.188	0.076
-333.245	800.000	0.049	-0.169
-332.231	-122.337	-0.257	-0.041
-331.216	-14.138	-0.219	0.139
-330.202	49.055	-0.281	0.261
-329.187	-148.802	-0.342	0.027
-328.172	474.990	-0.048	0.107
-327.158	130.533	0.073	-0.092
-326.143	30.387	0.388	-0.327
-325.129	-144.732	-0.120	0.011
-324.114	1.538	-0.222	-0.157
-323.099	800.000	0.034	0.121
-322.085	79.475	0.178	0.188
-321.070	267.415	0.069	-0.118
-320.056	-140.103	-0.043	-0.004
-319.041	-200.000	-0.020	-0.431
-318.026	-21.978	0.082	0.049
-317.012	-152.681	-0.176	0.012
-315.997	-38.347	0.246	0.128
-314.983	-23.606	-0.176	0.104
-313.968	-200.000	0.031	-0.182
-312.953	800.000	0.040	0.158
-311.939	-6.769	0.210	-0.141
-310.924	-200.000	-0.018	0.180
-309.910	41.605	0.138	-0.124
-308.895	-200.000	-0.030	-0.194
-307.880	103.104	0.085	0.098
-306.866	-1.295	-0.216	0.150
-305.851	68.079	0.007	0.007
-304.837	800.000	0.026	-0.108
-303.822	-86.489	-0.214	-0.065
-302.807	266.758	0.067	0.115
-301.793	-200.000	-0.011	-0.197
-300.778	-200.000	-0.077	0.443
-299.764	-8.412	0.127	-0.084
-298.749	-81.160	-0.042	-0.014
-297.735	535.823	0.021	0.048
-296.720	-50.850	-0.060	0.028
-295.705	127.867	-0.135	0.169
-294.691	337.463	-0.101	0.194
-293.676	183.725	-0.066	0.096
-292.662	-200.000	0.044	-0.392
-291.647	154.569	-0.176	0.239
-290.632	3.116	-0.068	0.048
-289.618	-88.497	0.085	-0.025
-288.603	-200.000	-0.002	0.087
-287.589	-200.000	0.005	0.137
-286.574	-166.789	-0.166	0.007
-285.559	176.751	0.144	0.206
-284.545	623.738	0.106	-0.264
-283.530	654.211	0.035	0.089
-282.516	87.040	0.127	-0.138
-281.501	83.731	0.239	-0.257
-280.486	136.986	0.131	-0.169
-279.472	550.534	-0.084	0.198
-278.457	-16.611	-0.172	0.107
-277.443	-17.544	0.098	-0.061
-276.428	-104.006	0.076	-0.017
-275.413	-125.902	0.207	-0.031
-274.399	-106.358	0.119	0.026
-273.384	396.803	-0.117	0.241
-272.370	70.221	0.112	-0.114
-271.355	800.000	0.012	0.033
-270.340	-35.047	0.126	0.068
-269.326	800.000	0.105	0.424
-268.311	242.335	0.110	-0.182
-267.297	36.157	-0.269	0.233
-266.282	229.716	0.069	0.111
-265.267	172.872	0.182	0.259
-264.253	800.000	0.114	0.336
-263.238	-129.291	-0.269	-0.037
-262.224	-200.000	0.020	-0.163
-261.209	16.418	0.124	0.097
-260.195	-200.000	-0.035	-0.369
-259.180	-139.425	-0.118	0.012
-258.165	-115.092	0.203	-0.038
-257.151	-100.543	0.162	-0.039
-256.136	-152.588	0.153	0.011
-255.122	-11.159	0.068	-0.044
-254.107	-63.637	-0.092	-0.037
-253.092	62.749	-0.138	-0.136
-252.078	379.004	-0.130	0.262
-251.063	-200.000	0.050	0.246
-250.049	800.000	0.080	-0.276
-249.034	-158.127	0.152	-0.009
-248.019	-109.517	0.279	0.058
-247.005	-98.999	0.093	0.023
-245.990	43.527	0.164	0.148
-244.976	399.015	-0.156	0.321
-243.961	800.000	-0.023	-0.071
-242.946	-184.426	-0.146	0.002
-241.932	436.486	0.200	0.428
-240.917	-200.000	0.009	0.210
-239.903	-156.415	0.344	-0.021
-238.888	7.543	0.144	0.106
-237.873	96.444	0.164	0.185
-236.859	22.728	0.113	0.091
-235.844	-118.100	-0.251	-0.044
-234.830	172.395	0.140	-0.198
-233.815	-101.913	0.026	-0.006
-232.800	-158.007	-0.134	-0.008
-231.786	277.552	0.160	0.280
-230.771	800.000	-0.018	0.056
-229.757	-200.000	-0.003	-0.015
-228.742	125.546	-0.283	-0.351
-227.727	41.878	-0.113	-0.101
-226.713	-71.612	0.216	0.079
-225.698	89.860	-0.053	-0.058
-224.684	-200.000	0.028	0.328
-223.669	-76.055	-0.260	0.090
-222.655	151.528	-0.123	0.164
-221.640	225.423	-0.133	-0.211
-220.625	606.878	-0.075	-0.184
-219.611	-2.073	0.260	-0.179
-218.596	228.213	0.066	0.105
-217.582	-200.000	-0.022	0.548
-216.567	253.305	0.167	0.281
-215.552	800.000	-0.077	0.286
-214.538	213.479	-0.071	0.110
-213.523	65.756	0.137	0.137
-212.509	411.819	0.064	-0.133
-211.494	6.927	0.055	-0.040
-210.479	125.101	-0.054	0.066
-209.465	-62.144	-0.376	-0.154
-208.450	-53.525	0.097	0.043
-207.436	-25.411	0.200	-0.116
-206.421	25.541	-0.058	0.047
-205.406	323.869	-0.057	0.106
-204.392	7.471	0.103	0.075
-203.377	-200.000	-0.027	-0.326
-202.363	201.119	-0.062	0.094
-201.348	565.152	0.037	0.089
-200.333	-156.895	0.212	-0.013
-199.319	330.443	0.048	-0.091
-198.304	-62.571	-0.040	-0.016
-197.290	-200.000	0.009	0.061
-196.275	-95.766	-0.381	-0.100
-195.260	-200.000	-0.108	-0.001
-194.246	308.049	0.059	-0.108
-193.231	93.640	0.021	0.024
-192.217	77.737	0.085	0.089
-191.202	-162.068	0.245	0.012
-190.187	-17.396	-0.297	0.184
-189.173	237.630	-0.125	0.203
-188.158	-97.329	0.101	0.026
-187.144	-36.254	0.287	-0.152
-186.129	-200.000	0.018	-0.096
-185.114	-200.000	0.004	-0.202
-184.100	190.700	0.067	-0.099
-183.085	-5.340	0.248	-0.167
-182.071	-200.000	0.002	0.109
-181.056	-114.153	0.415	0.079
-180.042	126.970	0.187	0.233
-179.027	-174.981	0.116	-0.003
-178.012	-200.000	0.002	0.207
-176.998	32.414	-0.220	-0.187
-175.983	-57.058	-0.294	0.127
-174.969	800.000	-0.042	0.141
-173.954	-200.000	0.059	-0.435
-172.939	-90.047	0.145	-0.042
-171.925	-109.959	-0.316	0.065
-170.910	800.000	0.019	-0.064
-169.896	800.000	-0.076	-0.306
-168.881	800.000	-0.025	0.073
-167.866	-119.494	0.168	-0.029
-166.852	-200.000	-0.013	0.422
-165.837	-26.993	0.384	0.220
-164.823	800.000	0.040	-0.129
-163.808	-90.724	0.411	0.116
-162.793	112.356	0.055	0.065
-161.779	114.944	0.178	-0.213
-160.764	182.157	-0.074	0.107
-159.750	447.580	0.041	-0.090
-158.735	426.233	-0.051	0.108
-157.720	-15.987	-0.255	-0.159
-156.706	118.328	0.215	0.261
-155.691	800.000	-0.096	0.302
-154.677	-200.000	-0.000	-0.184
-153.662	800.000	0.118	-0.386
-152.647	800.000	-0.108	-0.331
-151.633	800.000	0.106	-0.354
-150.618	59.322	0.389	-0.376
-149.604	-80.795	-0.166	0.054
-148.589	7.909	-0.116	-0.085
-147.574	-103.083	0.399	-0.093
-146.560	36.740	-0.248	-0.215
-145.545	-86.725	0.086	-0.026
-144.531	23.915	-0.221	-0.179
-143.516	-200.000	0.061	-0.293
-142.502	-42.337	-0.324	-0.162
-141.487	-33.318	0.454	0.246
-140.472	-111.081	0.238	-0.048
-139.458	187.756	0.074	-0.109
-138.443	-89.393	0.088	-0.025
-137.429	-15.926	-0.272	-0.169
-136.414	800.000	0.079	-0.273
-135.399	517.634	0.021	-0.048
-134.385	-72.906	-0.041	0.015
-133.370	45.463	0.155	0.140
-132.356	-111.542	-0.171	0.034
-131.341	-200.000	-0.010	-0.096
-130.326	-200.000	0.016	0.358
-129.312	-57.229	0.264	0.114
-128.297	267.513	0.049	-0.085
-127.283	50.940	-0.121	-0.112
-126.268	-200.000	0.050	0.392
-125.253	-27.441	0.436	0.248
-124.239	-200.000	-0.001	0.060
-123.224	373.899	-0.028	0.056
-122.210	-13.812	-0.206	-0.130
-121.195	141.349	0.250	-0.323
-120.180	800.000	-0.036	0.124
-119.166	-173.602	0.429	0.013
-118.151	-4.029	-0.094	-0.064
-117.137	651.835	-0.073	0.184
-116.122	204.015	-0.064	0.098
-115.107	-61.947	0.262	0.107
-114.093	171.636	0.087	-0.122
-113.078	11.012	-0.063	-0.047
-112.064	-200.000	0.035	0.183
-111.049	-200.000	0.022	-0.100
-110.034	-145.877	-0.346	0.030
-109.020	214.311	0.120	0.186
-108.005	-89.081	-0.176	0.051
-106.991	-200.000	-0.025	0.142
-105.976	274.092	-0.067	0.117
-104.962	-8.305	-0.276	0.182
-103.947	752.649	0.041	-0.110
-102.932	-200.000	0.000	0.169
-101.918	57.476	-0.108	0.103
-100.903	-151.959	0.272	0.019
-99.889	-92.381	-0.056	0.016
-98.874	-10.621	0.379	-0.245
-97.859	-63.021	-0.121	-0.049
-96.845	-200.000	0.014	0.114
-95.830	-72.478	0.079	0.029
-94.816	89.808	0.037	-0.040
-93.801	-14.287	-0.099	0.062
-92.786	73.899	0.169	0.173
-91.772	-124.555	-0.424	0.064
-90.757	639.888	-0.054	0.135
-89.743	-63.173	0.173	-0.070
-88.728	-200.000	0.025	-0.115
-87.713	193.688	-0.180	0.266
-86.699	-46.100	0.125	0.060
-85.684	277.599	-0.174	0.302
-84.670	18.882	0.309	0.242
-83.655	800.000	0.072	0.286
-82.640	43.056	-0.117	-0.105
-81.626	343.088	0.136	0.261
-80.611	-74.204	0.097	-0.034
-79.597	377.757	0.127	0.254
-78.582	19.256	0.350	0.275
-77.567	-131.062	0.358	0.047
-76.553	-24.196	0.086	-0.050
-75.538	158.141	0.365	0.495
-74.524	-92.122	0.150	0.041
-73.509	565.899	0.118	-0.279
-72.494	-200.000	0.012	0.315
-71.480	24.401	0.225	-0.182
-70.465	-1.119	-0.182	0.126
-69.451	31.518	0.293	0.246
-68.436	55.391	0.231	0.218
-67.422	588.675	-0.052	0.126
-66.407	-117.427	0.219	-0.039
-65.392	-200.000	0.030	0.322
-64.378	586.716	-0.043	-0.103
-63.363	-147.679	0.139	0.011
-62.349	332.617	0.059	-0.111
-61.334	82.388	-1.124	-1.192
-60.319	-41.896	0.852	0.427
-59.305	-200.000	-0.154	-1.217
-58.290	155.139	1.060	1.424
-57.276	286.762	0.842	1.486
-56.261	-200.000	117.175	634.446
-55.246	477.035	1552.188	3428.338
-54.232	172.341	2734.442	3841.603
-53.217	96.805	2303.544	2577.821
-52.203	35.273	1909.498	1635.097
-51.188	29.424	1703.176	1413.710
-50.173	27.183	1661.449	1362.247
-49.159	46.475	1720.601	1558.625
-48.144	45.295	1732.886	1560.691
-47.130	28.890	1689.892	1398.398
-46.115	26.396	1675.530	1367.622
-45.100	26.196	1670.801	1362.201
-44.086	26.165	1668.222	1359.809
-43.071	26.273	1665.348	1358.222
-42.057	26.183	1663.214	1355.756
-41.042	26.221	1661.151	1354.302
-40.027	26.110	1659.656	1352.199
-39.013	26.175	1656.907	1350.396
-37.998	26.051	1655.906	1348.596
-36.984	26.263	1654.211	1348.744
-35.969	26.262	1652.877	1347.596
-34.954	26.272	1651.338	1346.366
-33.940	26.202	1649.966	1344.667
-32.925	26.350	1647.717	1343.882
-31.911	26.303	1646.060	1342.130
-30.896	26.269	1644.639	1340.667
-29.881	26.302	1642.607	1339.201
-28.867	26.333	1641.064	1338.123
-27.852	26.237	1640.293	1336.731
-26.838	26.305	1638.488	1335.707
-25.823	26.332	1636.962	1334.609
-24.809	26.321	1635.721	1333.463
-23.794	26.337	1634.470	1332.510
-22.779	26.425	1632.601	1331.582
-21.765	26.303	1631.461	1329.701
-20.750	26.320	1629.771	1328.395
-19.736	26.376	1628.083	1327.376
-18.721	26.412	1626.490	1326.291
-17.706	26.417	1624.820	1324.914
-16.692	26.362	1623.504	1323.386
-15.677	26.401	1622.165	1322.526
-14.663	26.312	1621.440	1321.233
-13.648	26.294	1619.939	1319.823
-12.633	26.472	1617.762	1319.295
-11.619	26.344	1616.562	1317.331
-10.604	26.382	1614.520	1315.892
-9.590	26.325	1613.638	1314.706
-8.575	26.453	1612.041	1314.282
-7.560	26.420	1610.826	1312.999
-6.546	26.299	1610.201	1311.563
-5.531	26.223	1609.405	1310.311
-4.517	26.270	1608.187	1309.608
-3.502	26.379	1606.509	1308.979
-2.487	26.450	1604.638	1307.917
-1.473	25.935	1593.290	1294.916
-0.458	23.056	1572.539	1257.553
0.556	20.416	1574.824	1226.266
1.571	18.240	1598.693	1229.132
2.586	17.762	1611.384	1235.317
3.600	15.759	1555.818	1178.590
4.615	9.429	1448.197	1055.565
5.629	4.238	1390.194	980.442
6.644	3.423	1383.040	970.186
7.659	3.420	1381.897	969.277
8.673	3.371	1380.957	968.225
9.688	3.435	1378.884	967.089
10.702	3.387	1375.845	964.569
11.717	5.859	1380.036	982.923
12.731	12.930	1392.756	1036.473
13.746	18.820	1402.516	1080.811
14.761	20.226	1404.266	1090.911
15.775	19.579	1402.580	1085.436
16.790	18.678	1399.482	1077.293
17.804	17.872	1397.167	1070.365
18.819	17.531	1396.172	1067.368
19.834	17.319	1395.073	1065.108
20.848	17.080	1394.007	1062.700
21.863	16.981	1392.410	1060.769
22.877	16.809	1391.618	1058.997
23.892	16.702	1390.699	1057.536
24.907	16.761	1389.547	1056.936
25.921	16.820	1388.410	1056.349
26.936	16.823	1387.840	1055.836
27.950	16.887	1386.721	1055.294
28.965	16.851	1386.037	1054.453
29.980	16.972	1384.842	1054.201
30.994	17.107	1383.437	1053.876
32.009	17.126	1382.307	1053.043
33.023	17.142	1381.102	1052.129
34.038	17.086	1379.756	1050.665
35.053	16.965	1378.334	1048.738
36.067	16.874	1377.717	1047.615
37.082	16.951	1376.623	1047.168
38.096	17.078	1375.502	1047.003
39.111	17.023	1374.708	1045.969
40.126	16.970	1374.070	1045.065
41.140	16.711	1372.993	1042.557
42.155	16.660	1372.486	1041.764
43.169	16.651	1371.648	1040.986
44.184	16.630	1371.897	1040.949
45.199	16.695	1371.213	1040.738
46.213	16.804	1370.749	1040.965
47.228	16.858	1369.512	1040.264
48.242	16.931	1368.665	1039.979
49.257	16.876	1367.119	1038.371
50.271	16.884	1365.799	1037.327
51.286	16.941	1364.233	1036.397
52.301	16.865	1363.321	1035.145
53.315	16.842	1362.546	1034.326
54.330	16.825	1361.154	1033.075
55.344	16.685	1359.748	1031.064
56.359	16.780	1358.866	1030.885
57.374	16.631	1358.231	1029.402
58.388	16.633	1357.229	1028.566
59.403	16.533	1357.053	1027.732
60.417	16.521	1356.498	1027.146
61.432	16.583	1354.708	1026.078
62.447	16.452	1354.163	1024.779
63.461	16.352	1352.895	1023.123
64.476	16.466	1351.565	1022.718
65.490	16.401	1350.873	1021.713
66.505	16.512	1348.365	1020.395
67.520	16.579	1347.828	1020.298
68.534	16.583	1346.440	1019.183
69.549	16.484	1345.519	1017.799
70.563	16.477	1344.609	1016.983
71.578	16.431	1343.387	1015.689
72.593	16.340	1342.959	1014.728
73.607	16.247	1342.250	1013.545
74.622	16.291	1341.635	1013.254
75.636	16.337	1340.534	1012.609
76.651	16.412	1339.630	1012.287
77.666	16.338	1339.087	1011.344
78.680	16.465	1338.728	1011.741
79.695	16.357	1338.447	1010.796
80.709	16.685	1337.083	1011.635
81.724	16.560	1337.089	1010.803
82.739	16.786	1335.690	1011.005
83.753	16.832	1334.815	1010.529
84.768	16.957	1333.468	1010.166
85.782	16.919	1332.937	1009.444
86.797	16.870	1331.319	1007.839
87.812	16.792	1330.337	1006.546
88.826	16.915	1328.811	1006.033
89.841	16.899	1327.666	1004.980
90.855	16.999	1327.103	1005.059
91.870	16.948	1326.417	1004.149
92.884	17.017	1325.021	1003.406
93.899	17.000	1324.760	1003.020
94.914	17.060	1323.472	1002.310
95.928	17.191	1322.292	1002.103
96.943	17.070	1321.835	1000.956
97.957	16.966	1321.159	999.740
98.972	16.898	1320.048	998.414
99.987	17.039	1318.672	998.113
101.001	17.011	1317.345	996.855
102.016	17.012	1317.260	996.706
103.030	17.008	1315.965	995.617
104.045	17.018	1314.708	994.633
105.060	16.936	1313.677	993.288
106.074	16.691	1312.266	990.700
107.089	16.503	1310.626	988.273
108.103	16.485	1309.963	987.584
109.118	16.485	1308.337	986.268
110.133	16.457	1307.180	985.146
111.147	16.587	1305.637	984.651
112.162	16.544	1304.646	983.568
113.176	16.695	1304.145	983.979
114.191	16.708	1302.725	982.898
115.206	16.703	1301.637	981.961
116.220	16.673	1300.555	980.887
117.235	16.725	1298.954	979.893
118.249	16.720	1298.378	979.338
119.264	16.561	1297.175	977.430
120.279	16.563	1295.580	976.154
121.293	16.469	1294.656	974.824
122.308	16.470	1293.520	973.894
123.322	16.370	1292.783	972.674
124.337	16.385	1292.141	972.193
125.352	16.404	1290.170	970.732
126.366	16.409	1289.233	969.968
127.381	16.363	1288.340	968.950
128.395	16.381	1286.916	967.896
129.410	16.527	1286.084	968.021
130.424	16.468	1285.560	967.202
131.439	16.580	1284.561	967.007
132.454	16.645	1284.048	966.905
133.468	16.579	1283.190	965.795
134.483	16.609	1282.563	965.412
135.497	16.717	1281.018	964.778
136.512	16.743	1280.283	964.284
137.527	16.744	1278.459	962.833
138.541	16.662	1277.285	961.397
139.556	16.747	1275.710	960.608
140.570	16.898	1274.796	960.690
141.585	16.966	1273.870	960.294
142.600	17.006	1272.810	959.635
143.614	16.955	1271.965	958.625
144.629	17.078	1270.956	958.474
145.643	17.059	1269.536	957.212
146.658	16.953	1268.278	955.583
147.673	16.853	1266.691	953.736
148.687	16.707	1265.659	952.058
149.702	16.752	1264.003	950.978
150.716	16.720	1262.848	949.847
151.731	16.708	1261.780	948.893
152.746	16.802	1260.488	948.361
153.760	16.802	1259.520	947.552
154.775	16.836	1258.415	946.824
155.789	17.045	1257.199	946.992
156.804	16.902	1256.629	945.683
157.819	16.982	1255.553	945.236
158.833	17.058	1254.425	944.723
159.848	17.139	1253.572	944.451
160.862	17.153	1252.608	943.716
161.877	16.982	1251.450	941.811
162.892	16.788	1250.227	939.732
163.906	16.824	1249.091	938.996
164.921	16.748	1248.902	938.346
165.935	16.963	1247.464	938.376
166.950	16.928	1247.219	937.913
167.964	17.017	1246.289	937.626
168.979	16.937	1245.579	936.565
169.994	16.942	1244.729	935.870
171.008	17.038	1243.797	935.616
172.023	17.047	1243.386	935.275
173.037	17.186	1242.721	935.456
174.052	17.151	1241.450	934.224
175.067	16.907	1240.379	931.992
176.081	16.970	1239.131	931.319
177.096	16.886	1238.231	930.099
178.110	16.995	1237.151	929.807
179.125	16.955	1236.004	928.642
180.140	17.042	1234.898	928.205
181.154	17.102	1234.139	927.878
182.169	17.092	1232.997	926.881
183.183	17.106	1232.040	926.156
184.198	17.244	1230.303	925.522
185.213	17.237	1229.347	924.681
186.227	17.239	1228.282	923.809
187.242	17.207	1227.428	922.913
188.256	17.371	1226.398	922.946
189.271	17.350	1225.366	921.977
190.286	17.161	1224.613	920.303
191.300	16.947	1223.304	918.082
192.315	16.910	1222.370	917.098
193.329	16.953	1221.755	916.789
194.344	16.906	1221.696	916.410
195.359	17.100	1220.726	916.648
196.373	17.164	1220.305	916.596
197.388	17.263	1220.271	917.021
198.402	17.328	1220.243	917.271
199.417	17.533	1219.093	917.430
200.432	17.527	1218.461	916.842
201.446	17.577	1217.611	916.388
202.461	17.620	1216.579	915.763
203.475	17.702	1215.485	915.296
204.490	17.450	1213.857	912.641
205.504	17.368	1213.123	911.566
206.519	17.498	1211.372	910.867
207.534	17.359	1210.633	909.486
208.548	17.338	1209.848	908.704
209.563	17.423	1208.783	908.278
210.577	17.470	1207.860	907.758
211.592	17.536	1207.033	907.407
212.607	17.651	1206.030	907.180
213.621	17.614	1205.231	906.306
214.636	17.647	1204.209	905.630
215.650	17.575	1203.487	904.624
216.665	17.676	1202.858	904.609
217.680	17.788	1202.017	904.490
218.694	17.960	1200.565	904.230
219.709	17.760	1200.359	902.933
220.723	17.766	1199.529	902.262
221.738	17.761	1198.368	901.281
222.753	17.692	1198.003	900.566
223.767	17.770	1197.180	900.277
224.782	17.915	1196.756	900.642
225.796	17.826	1196.272	899.732
226.811	18.019	1195.004	899.714
227.826	17.878	1194.227	898.307
228.840	17.734	1193.489	896.916
229.855	17.681	1193.107	896.272
230.869	17.794	1191.969	895.931
231.884	17.648	1191.507	894.738
232.899	17.616	1190.493	893.730
233.913	17.554	1189.614	892.666
234.928	17.625	1189.060	892.543
235.942	17.493	1187.992	890.970
236.957	17.611	1187.107	890.845
237.972	17.665	1186.177	890.348
238.986	17.573	1185.924	889.602
240.001	17.580	1184.982	888.850
241.015	17.814	1184.184	889.396
242.030	17.775	1183.741	888.781
243.045	17.689	1183.289	887.914
244.059	17.744	1182.319	887.392
245.074	17.890	1181.517	887.472
246.088	17.890	1180.316	886.490
247.103	18.030	1179.516	886.541
248.117	18.093	1178.965	886.375
249.132	18.248	1178.385	886.660
250.147	18.268	1177.876	886.305
251.161	18.441	1177.184	886.597
252.176	18.438	1176.401	885.916
253.190	18.420	1176.112	885.529
254.205	18.480	1175.490	885.291
255.220	18.576	1174.504	884.965
256.234	18.399	1174.404	883.897
257.249	18.443	1173.026	883.010
258.263	18.527	1172.672	883.100
259.278	18.618	1171.764	882.804
260.293	18.427	1171.690	881.687
261.307	18.597	1170.568	881.641
262.322	18.540	1170.361	881.111
263.336	18.567	1169.675	880.657
264.351	18.618	1168.917	880.270
265.366	18.695	1168.112	879.980
266.380	18.592	1167.727	879.085
267.395	18.615	1166.403	878.129
268.409	18.556	1165.488	877.061
269.424	18.515	1165.162	876.529
270.439	18.630	1164.679	876.671
271.453	18.636	1163.002	875.366
272.468	18.491	1162.568	874.222
273.482	18.471	1162.262	873.811
274.497	18.440	1161.590	873.070
275.512	18.528	1160.591	872.690
276.526	18.487	1159.861	871.856
277.541	18.524	1159.028	871.342
278.555	18.611	1158.257	871.126
279.570	18.673	1157.807	871.025
280.585	18.604	1157.553	870.404
281.599	18.741	1156.037	869.882
282.614	18.726	1154.681	868.713
283.628	18.632	1153.721	867.436
284.643	18.659	1153.013	866.963
285.657	18.664	1152.214	866.309
286.672	18.612	1151.333	865.310
287.687	18.646	1150.212	864.563
288.701	18.677	1149.965	864.454
289.716	18.824	1148.785	864.233
290.730	18.628	1148.468	862.930
291.745	18.781	1147.390	862.812
292.760	18.829	1146.880	862.597
293.774	18.869	1146.000	862.057
294.789	18.913	1145.881	862.112
295.803	18.929	1144.973	861.431
296.818	18.682	1144.272	859.595
297.833	18.774	1143.321	859.261
298.847	18.725	1142.935	858.649
299.862	18.784	1141.920	858.106
300.876	18.828	1140.941	857.516
301.891	18.938	1140.492	857.653
302.906	18.931	1140.100	857.243
303.920	19.128	1139.349	857.587
304.935	19.084	1138.893	856.946
305.949	19.229	1137.833	856.794
306.964	19.236	1137.171	856.256
307.979	19.191	1136.538	855.481
308.993	19.113	1136.042	854.642
310.008	19.097	1134.925	853.646
311.022	19.170	1134.516	853.627
312.037	19.167	1133.225	852.567
313.052	19.094	1132.469	851.561
314.066	19.032	1131.194	850.218
315.081	18.836	1130.759	848.849
316.095	18.963	1129.785	848.668
317.110	18.904	1129.172	847.843
318.125	18.927	1128.325	847.247
319.139	18.953	1127.663	846.802
320.154	19.000	1127.033	846.486
321.168	18.972	1126.378	845.781
322.183	19.042	1125.664	845.516
323.197	18.998	1125.010	844.734
324.212	19.160	1124.438	845.021
325.227	18.968	1124.342	843.932
326.241	19.124	1123.443	843.948
327.256	18.998	1122.723	842.716
328.270	19.081	1121.459	842.097
329.285	19.004	1120.638	841.030
330.300	19.168	1119.234	840.702
331.314	19.104	1118.349	839.650
332.329	18.997	1117.910	838.728
333.343	19.130	1116.846	838.502
334.358	19.162	1116.338	838.200
335.373	19.246	1115.718	838.072
336.387	19.345	1114.453	837.530
337.402	19.219	1114.196	836.647
338.416	19.401	1113.315	836.795
339.431	19.295	1112.875	835.875
340.446	19.451	1112.374	836.184
341.460	19.449	1111.801	835.667
342.475	19.630	1111.178	836.004
343.489	19.688	1109.572	835.000
344.504	19.656	1108.826	834.209
345.519	19.662	1107.967	833.521
346.533	19.777	1107.309	833.508
347.548	19.835	1106.622	833.196
348.562	19.964	1105.462	832.868
349.577	19.651	1104.914	830.875
350.592	19.582	1103.438	829.360
351.606	19.455	1103.284	828.563
352.621	19.475	1102.255	827.811
353.635	19.446	1101.710	827.188
354.650	19.340	1101.352	826.340
355.665	19.437	1100.666	826.216
356.679	19.596	1099.819	826.267
357.694	19.514	1099.411	825.498
358.708	19.573	1098.519	825.034
359.723	19.547	1098.231	824.622
360.738	19.605	1097.084	823.963
361.752	19.618	1096.763	823.713
362.767	19.636	1096.435	823.481
363.781	19.630	1095.590	822.742
364.796	19.884	1094.871	823.338
365.810	19.900	1094.684	823.201
366.825	19.918	1094.447	823.036
367.840	20.087	1093.386	822.971
368.854	20.151	1092.644	822.643
369.869	20.107	1092.092	821.946
370.883	19.902	1091.381	820.363
371.898	19.988	1090.230	819.833
372.913	20.038	1089.435	819.400
373.927	19.955	1089.126	818.701
374.942	20.113	1088.706	819.062
375.956	20.156	1088.194	818.804
376.971	20.055	1087.543	817.770
377.986	20.034	1087.139	817.294
379.000	20.356	1086.344	818.139
380.015	20.311	1085.832	817.469
381.029	20.298	1085.342	816.968
382.044	20.235	1084.601	816.042
383.059	20.345	1083.602	815.735
384.073	20.289	1083.318	815.188
385.088	20.297	1082.032	814.183
386.102	20.179	1081.629	813.253
387.117	20.146	1080.108	811.885
388.132	20.175	1079.077	811.174
389.146	20.089	1078.399	810.189
390.161	19.948	1077.713	808.943
391.175	20.115	1076.740	808.920
392.190	20.324	1076.031	809.293
393.205	20.357	1075.427	808.921
394.219	20.232	1074.611	807.653
395.234	20.205	1073.648	806.733
396.248	20.125	1073.183	805.938
397.263	20.153	1071.589	804.800
398.278	20.140	1070.758	804.047
399.292	20.148	1070.307	803.670
400.307	20.055	1069.388	802.481
401.321	20.050	1069.108	802.177
402.336	20.100	1068.414	801.815
403.350	20.090	1067.679	801.146
404.365	20.100	1066.992	800.607
405.380	20.190	1066.318	800.446
406.394	20.208	1065.955	800.186
407.409	20.314	1064.991	799.880
408.423	20.449	1064.300	799.912
409.438	20.605	1062.999	799.582
410.453	20.529	1062.928	799.106
411.467	20.595	1062.607	799.100
412.482	20.552	1061.767	798.199
413.496	20.691	1061.080	798.247
414.511	20.652	1060.779	797.774
415.526	20.799	1060.221	797.955
416.540	20.734	1059.859	797.317
417.555	20.798	1058.770	796.721
418.569	20.760	1058.361	796.165
419.584	20.758	1057.942	795.771
420.599	20.727	1057.482	795.211
421.613	155.570	1405.149	1796.972
422.628	142.883	1455.795	1797.016
