DTS Sentinel unit serial number:	SN413079Multiplexer serial number:	ORYXHardware model number:	OX4-SRSoftware version number:	ORYX F/W v4.00 Oryx Data Collector v3.7.2.0data status	okinstallation	princeton_trtdifferential loss correction	single-endedforward channel	channel 2reverse channel	N/Adate	2019/09/14time	10:03:34forward acquisition time	60.00reverse acquisition time	0.00gamma	496.2192k internal	0.2319k external	0.2319temperature offset calibration	1.0129default loss term (dB/km)	0.3790temperature slope calibration	1.0000multiplexer offset coefficient	1.0000multiplexer slope coefficient	1.0000fibre end	0.00T internal ref (°C)	33.27T ext. ref 1 (°C)	4.02T ext. ref 2 (°C)	32.21length (m)	temperature (°C)	Stokes	anti-Stokes-747.200	-74.954	-0.163	0.059
-746.185	161.534	0.108	0.153
-745.171	41.651	0.186	0.170
-744.156	97.638	0.137	0.159
-743.142	-20.482	0.316	0.197
-742.127	-60.485	-0.510	-0.219
-741.112	-41.847	-0.294	0.152
-740.098	27.728	-0.388	0.331
-739.083	-200.000	-0.007	-0.177
-738.069	-144.410	-0.312	0.029
-737.054	26.124	-0.075	-0.063
-736.039	-6.578	-0.346	-0.239
-735.025	-24.081	0.161	0.097
-734.010	800.000	-0.059	-0.176
-732.996	-16.492	-0.186	-0.119
-731.981	-200.000	0.051	-0.228
-730.966	-200.000	-0.054	-0.387
-729.952	68.119	-0.052	-0.054
-728.937	-200.000	0.038	-0.322
-727.923	-48.059	-0.166	-0.081
-726.908	94.395	0.300	-0.345
-725.894	-108.598	-0.211	-0.046
-724.879	200.156	0.157	-0.244
-723.864	63.884	0.033	0.034
-722.850	-69.546	0.537	0.208
-721.835	800.000	-0.025	-0.075
-720.821	-200.000	0.056	0.000
-719.806	-149.268	-0.256	0.021
-718.791	-13.503	-0.112	0.073
-717.777	-47.750	0.229	0.112
-716.762	800.000	0.014	-0.054
-715.748	464.505	-0.042	0.096
-714.733	92.796	-0.335	-0.383
-713.718	-2.452	-0.236	-0.167
-712.704	-21.111	-0.156	0.097
-711.689	-200.000	-0.012	-0.087
-710.675	-200.000	-0.011	-0.150
-709.660	7.466	-0.256	0.193
-708.645	800.000	-0.069	-0.282
-707.631	71.074	0.156	-0.163
-706.616	-106.928	-0.229	-0.051
-705.602	-200.000	0.001	-0.191
-704.587	-116.560	-0.216	-0.040
-703.572	33.020	0.109	-0.095
-702.558	-36.708	0.287	-0.156
-701.543	35.677	0.307	-0.272
-700.529	56.610	0.142	-0.140
-699.514	-22.015	-0.031	0.019
-698.499	-103.842	0.110	0.026
-697.485	-200.000	-0.015	0.087
-696.470	41.571	0.211	-0.193
-695.456	123.208	0.101	-0.128
-694.441	-103.434	-0.228	0.054
-693.426	21.225	-0.111	-0.091
-692.412	800.000	0.053	0.227
-691.397	148.450	0.044	-0.060
-690.383	-200.000	0.041	0.311
-689.368	45.685	0.116	0.108
-688.354	-2.400	-0.125	0.089
-687.339	207.478	-0.124	-0.196
-686.324	-200.000	-0.000	-0.377
-685.310	-200.000	-0.024	-0.234
-684.295	83.215	-0.084	0.093
-683.281	-200.000	0.025	-0.231
-682.266	-49.876	-0.252	-0.121
-681.251	41.887	-0.138	0.126
-680.237	41.901	0.127	0.116
-679.222	171.454	-0.113	0.164
-678.208	61.964	-0.184	-0.185
-677.193	-129.771	-0.109	0.015
-676.178	-200.000	-0.460	-0.002
-675.164	0.399	-0.045	-0.032
-674.149	800.000	-0.014	-0.052
-673.135	149.551	0.214	-0.293
-672.120	422.450	0.135	-0.292
-671.105	34.449	-0.170	-0.150
-670.091	-108.753	0.299	0.065
-669.076	238.786	0.069	0.116
-668.062	107.096	-0.173	0.208
-667.047	-112.686	-0.244	-0.049
-666.032	61.994	0.152	0.153
-665.018	-200.000	-0.016	0.118
-664.003	35.127	0.036	-0.032
-662.989	163.370	-0.101	0.143
-661.974	-21.996	0.120	-0.074
-660.959	-105.824	-0.273	-0.062
-659.945	70.113	-0.095	-0.099
-658.930	800.000	0.011	-0.038
-657.916	42.263	0.119	0.109
-656.901	-72.333	-0.187	0.070
-655.886	360.785	-0.155	-0.313
-654.872	107.155	-0.204	-0.244
-653.857	-174.972	0.089	-0.003
-652.843	-59.232	0.156	0.068
-651.828	-200.000	0.003	-0.169
-650.814	-200.000	0.038	0.266
-649.799	-64.213	-0.189	-0.078
-648.784	-31.591	-0.270	-0.153
-647.770	95.369	0.116	-0.133
-646.755	47.000	-0.232	0.217
-645.741	-200.000	0.008	-0.038
-644.726	-64.468	-0.072	0.029
-643.711	12.535	-0.292	-0.227
-642.697	276.199	-0.111	0.198
-641.682	-120.888	0.228	0.039
-640.668	800.000	-0.028	-0.083
-639.653	-200.000	-0.037	0.232
-638.638	20.754	-0.340	-0.277
-637.624	337.815	0.224	-0.440
-636.609	-200.000	-0.026	-0.192
-635.595	-114.981	-0.090	0.017
-634.580	-200.000	0.023	-0.511
-633.565	79.137	-0.251	-0.271
-632.551	429.669	-0.107	-0.233
-631.536	-52.176	0.223	0.104
-630.522	-89.533	0.357	-0.106
-629.507	566.735	0.111	0.271
-628.492	126.730	-0.066	0.084
-627.478	800.000	-0.066	0.256
-626.463	3.980	0.040	0.029
-625.449	266.804	-0.065	-0.115
-624.434	185.331	-0.221	-0.330
-623.419	105.607	-0.103	-0.123
-622.405	127.798	-0.136	0.174
-621.390	44.011	-0.115	0.106
-620.376	795.151	-0.049	0.136
-619.361	166.295	0.172	-0.246
-618.346	800.000	0.033	0.137
-617.332	-173.477	-0.317	-0.010
-616.317	-144.132	-0.345	-0.033
-615.303	687.531	0.041	0.107
-614.288	-200.000	-0.002	0.119
-613.273	266.660	0.114	-0.201
-612.259	101.942	-0.211	-0.248
-611.244	-106.445	-0.355	0.080
-610.230	70.657	0.142	0.148
-609.215	452.207	0.025	-0.055
-608.201	800.000	0.052	-0.189
-607.186	337.037	0.099	-0.194
-606.171	-93.674	0.070	0.019
-605.157	-21.777	-0.433	-0.265
-604.142	-9.028	-0.015	-0.010
-603.128	155.481	0.111	-0.154
-602.113	-63.120	-0.135	0.056
-601.098	-200.000	-0.015	0.252
-600.084	-124.398	-0.283	0.044
-599.069	348.273	-0.168	-0.333
-598.055	96.761	0.260	-0.300
-597.040	372.295	-0.043	-0.088
-596.025	800.000	-0.094	-0.351
-595.011	105.613	0.280	0.332
-593.996	80.648	-0.320	-0.346
-592.982	-109.628	0.250	0.053
-591.967	-108.147	-0.100	0.022
-590.952	-114.753	0.232	-0.045
-589.938	800.000	-0.045	0.190
-588.923	-129.028	0.043	0.006
-587.909	170.415	-0.105	-0.151
-586.894	-160.044	-0.265	-0.015
-585.879	386.380	0.130	0.269
-584.865	-126.842	-0.090	-0.013
-583.850	-200.000	0.003	0.207
-582.836	-84.005	-0.305	0.097
-581.821	-18.322	0.296	0.186
-580.806	194.104	0.080	0.122
-579.792	-96.462	0.245	-0.065
-578.777	-42.549	0.381	-0.195
-577.763	-132.650	0.203	-0.026
-576.748	33.045	-0.135	0.118
-575.733	-124.066	0.163	0.026
-574.719	-200.000	-0.037	0.338
-573.704	-200.000	0.014	0.164
-572.690	0.773	-0.493	0.355
-571.675	-44.743	-0.136	0.068
-570.661	246.825	-0.112	0.190
-569.646	140.568	0.196	-0.260
-568.631	281.447	-0.176	-0.317
-567.617	-109.809	-0.248	-0.052
-566.602	191.292	0.217	0.329
-565.588	800.000	-0.009	0.039
-564.573	-200.000	-0.020	0.362
-563.558	62.956	-0.137	0.138
-562.544	16.604	-0.172	-0.137
-561.529	-4.559	0.021	-0.015
-560.515	45.428	0.078	0.072
-559.500	-95.595	0.292	-0.079
-558.485	41.134	0.092	0.083
-557.471	615.536	-0.013	-0.033
-556.456	33.073	0.030	0.026
-555.442	13.698	-0.074	-0.058
-554.427	-179.244	0.126	-0.003
-553.412	744.288	-0.088	0.238
-552.398	-106.285	-0.277	0.062
-551.383	10.692	-0.142	-0.109
-550.369	-90.668	-0.114	-0.033
-549.354	49.483	0.095	-0.090
-548.339	-28.719	-0.149	0.086
-547.325	289.507	0.042	-0.076
-546.310	800.000	0.024	-0.081
-545.296	-4.762	0.250	-0.173
-544.281	-157.767	0.241	-0.014
-543.266	103.456	-0.092	0.108
-542.252	-81.943	-0.262	-0.086
-541.237	-84.285	0.302	-0.096
-540.223	-51.418	0.331	0.155
-539.208	64.645	-0.004	0.004
-538.193	98.359	0.072	0.083
-537.179	432.398	-0.098	0.214
-536.164	82.892	-0.065	-0.071
-535.150	148.485	-0.283	-0.384
-534.135	5.639	0.075	0.055
-533.121	-10.112	0.168	0.112
-532.106	-168.769	0.446	-0.017
-531.091	28.290	-0.081	0.069
-530.077	-184.192	0.205	-0.003
-529.062	-85.632	0.246	-0.077
-528.048	390.538	-0.123	0.257
-527.033	307.251	0.123	0.230
-526.018	722.826	0.057	-0.152
-525.004	800.000	-0.060	-0.201
-523.989	-40.393	0.356	-0.186
-522.975	-200.000	0.017	-0.352
-521.960	95.033	0.174	-0.199
-520.945	-18.661	0.282	0.176
-519.931	570.626	0.020	-0.049
-518.916	800.000	0.053	0.146
-517.902	653.471	-0.135	-0.347
-516.887	26.279	-0.230	-0.193
-515.872	492.233	-0.109	0.250
-514.858	73.411	-0.118	-0.123
-513.843	63.673	0.289	-0.291
-512.829	-154.594	0.092	-0.006
-511.814	800.000	-0.079	-0.295
-510.799	35.489	-0.039	0.034
-509.785	4.750	-0.063	0.047
-508.770	-124.016	0.329	-0.052
-507.756	165.691	0.168	0.238
-506.741	-27.282	0.098	0.057
-505.726	800.000	0.036	0.154
-504.712	-89.504	0.196	-0.058
-503.697	456.793	0.096	0.213
-502.683	-22.361	0.436	0.265
-501.668	-200.000	-0.059	-0.513
-500.653	-2.356	0.109	-0.077
-499.639	-138.911	-0.268	0.029
-498.624	-50.041	-0.128	-0.061
-497.610	-200.000	0.012	-0.064
-496.595	-82.081	-0.148	0.048
-495.581	800.000	0.134	0.387
-494.566	58.400	0.194	0.191
-493.551	279.361	-0.107	-0.191
-492.537	208.304	0.163	0.255
-491.522	158.229	-0.115	0.159
-490.508	272.221	-0.144	0.254
-489.493	-17.303	0.241	0.152
-488.478	-36.208	0.232	0.126
-487.464	800.000	-0.167	0.515
-486.449	-88.282	-0.251	-0.075
-485.435	-52.736	0.159	-0.073
-484.420	393.820	0.012	-0.025
-483.405	1.551	0.034	0.025
-482.391	103.612	0.014	-0.017
-481.376	-6.136	0.165	0.113
-480.362	-200.000	-0.025	-0.154
-479.347	118.775	-0.120	0.149
-478.332	11.961	-0.140	-0.107
-477.318	111.258	-0.254	0.306
-476.303	800.000	0.027	0.114
-475.289	-129.866	0.242	-0.033
-474.274	-45.397	0.253	0.126
-473.259	11.891	-0.150	-0.115
-472.245	406.360	0.133	-0.281
-471.230	-131.860	-0.060	-0.008
-470.216	101.987	-0.160	-0.186
-469.201	667.413	0.134	0.347
-468.186	-109.715	-0.378	0.080
-467.172	131.993	-0.146	-0.188
-466.157	-128.679	-0.464	0.066
-465.143	384.850	-0.117	-0.241
-464.128	-39.625	0.281	0.147
-463.113	-47.141	-0.171	0.083
-462.099	46.544	0.119	-0.111
-461.084	-103.637	0.339	0.079
-460.070	339.509	-0.078	-0.151
-459.055	-57.534	0.090	0.040
-458.040	-91.621	0.165	-0.047
-457.026	79.336	-0.137	-0.147
-456.011	404.310	0.113	0.238
-454.997	-41.181	0.199	-0.103
-453.982	113.205	-0.261	0.316
-452.968	-148.690	-0.211	-0.017
-451.953	545.994	0.080	0.192
-450.938	490.380	-0.121	0.277
-449.924	769.105	0.109	0.295
-448.909	138.451	-0.171	0.224
-447.895	18.120	-0.041	0.033
-446.880	65.817	0.094	0.095
-445.865	48.548	0.220	0.206
-444.851	-200.000	0.007	-0.142
-443.836	390.719	0.110	0.229
-442.822	800.000	-0.027	-0.085
-441.807	-22.751	-0.198	0.119
-440.792	-2.582	0.024	-0.017
-439.778	39.548	0.173	-0.155
-438.763	207.507	-0.199	0.311
-437.749	-200.000	-0.091	0.635
-436.734	130.130	0.056	-0.072
-435.719	-165.751	0.180	0.008
-434.705	39.130	-0.225	0.201
-433.690	743.234	0.048	0.129
-432.676	-13.777	-0.054	0.035
-431.661	-113.253	-0.015	0.003
-430.646	-66.883	0.158	0.063
-429.632	-200.000	-0.000	-0.050
-428.617	-11.318	-0.041	0.027
-427.603	37.060	-0.059	0.052
-426.588	-178.028	0.424	-0.010
-425.573	87.849	-0.047	-0.052
-424.559	-200.000	-0.039	0.306
-423.544	97.344	-0.147	-0.169
-422.530	239.339	-0.185	-0.308
-421.515	-128.510	0.405	-0.057
-420.500	190.294	0.115	-0.172
-419.486	800.000	0.054	-0.161
-418.471	-129.173	0.174	0.024
-417.457	48.246	-0.088	-0.082
-416.442	-168.430	-0.128	0.005
-415.428	-98.670	0.285	0.073
-414.413	56.820	-0.238	0.232
-413.398	70.543	-0.217	0.224
-412.384	-98.390	-0.141	-0.036
-411.369	-58.880	-0.084	0.036
-410.355	-200.000	0.040	0.211
-409.340	-15.987	0.160	0.102
-408.325	-38.807	-0.369	-0.195
-407.311	800.000	0.104	0.316
-406.296	-200.000	-0.025	-0.314
-405.282	-29.325	0.283	0.162
-404.267	-46.585	0.230	-0.113
-403.252	-134.232	0.124	0.015
-402.238	-200.000	0.007	-0.306
-401.223	-113.779	-0.322	-0.063
-400.209	-200.000	0.006	-0.126
-399.194	-111.108	-0.021	-0.004
-398.179	-67.189	0.073	-0.029
-397.165	-200.000	-0.042	-0.283
-396.150	-24.468	-0.153	0.091
-395.136	-68.646	-0.146	-0.056
-394.121	-169.242	0.181	0.007
-393.106	79.338	-0.143	-0.153
-392.092	-200.000	-0.046	-0.332
-391.077	-19.947	0.210	-0.130
-390.063	-135.567	-0.067	-0.008
-389.048	-181.097	0.130	-0.003
-388.033	-197.295	0.166	0.001
-387.019	-10.418	0.132	-0.087
-386.004	21.761	-0.302	-0.246
-384.990	-200.000	0.013	-0.248
-383.975	-126.105	-0.480	0.072
-382.960	4.004	-0.150	0.109
-381.946	-10.698	0.182	-0.120
-380.931	-24.286	0.110	0.065
-379.917	-200.000	-0.019	0.347
-378.902	800.000	0.026	0.076
-377.888	169.892	0.129	-0.184
-376.873	-158.765	0.407	0.023
-375.858	344.504	-0.046	-0.090
-374.844	260.828	-0.085	-0.146
-373.829	5.595	-0.087	-0.064
-372.815	16.204	-0.105	-0.083
-371.800	-113.525	-0.277	0.054
-370.785	13.336	0.304	-0.235
-369.771	-166.648	-0.305	0.013
-368.756	800.000	0.058	-0.195
-367.742	-156.459	0.336	-0.021
-366.727	38.692	-0.099	0.088
-365.712	30.117	-0.094	-0.080
-364.698	-192.348	0.213	0.002
-363.683	-49.613	0.271	0.129
-362.669	-64.110	0.355	-0.144
-361.654	236.352	-0.154	-0.254
-360.639	-200.000	-0.022	0.368
-359.625	-149.188	-0.314	0.025
-358.610	800.000	-0.070	0.300
-357.596	-129.510	-0.165	-0.023
-356.581	-120.643	-0.022	0.004
-355.566	735.144	-0.121	-0.323
-354.552	139.221	0.171	-0.224
-353.537	-50.394	-0.208	0.098
-352.523	-200.000	-0.015	-0.122
-351.508	-78.807	-0.186	-0.063
-350.493	-139.199	0.484	0.052
-349.479	291.549	0.124	-0.224
-348.464	-93.359	-0.094	-0.026
-347.450	-118.889	0.069	-0.012
-346.435	-3.349	-0.091	0.063
-345.420	-73.085	0.256	-0.094
-344.406	800.000	-0.076	-0.291
-343.391	173.061	-0.184	-0.264
-342.377	351.091	-0.045	-0.089
-341.362	-3.000	0.171	-0.119
-340.348	386.792	0.077	-0.158
-339.333	-16.191	0.103	-0.065
-338.318	800.000	-0.012	-0.032
-337.304	300.781	-0.028	0.051
-336.289	12.129	-0.219	-0.168
-335.275	-111.609	0.386	-0.078
-334.260	177.358	-0.118	-0.172
-333.245	-60.685	-0.262	0.111
-332.231	800.000	-0.162	0.487
-331.216	222.427	0.253	-0.406
-330.202	-168.649	-0.096	-0.004
-329.187	-94.406	0.135	0.037
-328.172	-38.007	0.096	0.051
-327.158	-62.629	-0.111	0.046
-326.143	-128.756	0.204	-0.029
-325.129	150.155	0.219	0.296
-324.114	-86.334	0.085	0.026
-323.099	-29.728	0.163	0.093
-322.085	-58.734	0.181	0.078
-321.070	460.752	-0.071	-0.158
-320.056	-48.697	0.178	-0.085
-319.041	800.000	-0.046	-0.192
-318.026	300.614	-0.089	0.163
-317.012	-200.000	-0.022	0.220
-315.997	-200.000	0.001	-0.124
-314.983	138.554	-0.256	0.334
-313.968	555.420	-0.090	0.217
-312.953	89.858	-0.038	0.042
-311.939	373.474	0.055	0.112
-310.924	202.765	0.123	-0.189
-309.910	-200.000	0.025	-0.251
-308.895	-1.857	-0.089	0.062
-307.880	-200.000	-0.011	-0.241
-306.866	-115.260	0.261	-0.049
-305.851	-142.607	-0.301	0.029
-304.837	79.581	-0.142	0.151
-303.822	-19.287	0.210	-0.129
-302.807	-200.000	0.006	-0.103
-301.793	269.751	-0.063	0.110
-300.778	-200.000	-0.008	-0.055
-299.764	6.083	0.257	-0.189
-298.749	-200.000	-0.036	-0.314
-297.735	-200.000	0.028	-0.173
-296.720	527.218	0.026	-0.060
-295.705	-76.679	-0.219	-0.076
-294.691	800.000	0.129	-0.403
-293.676	-54.902	-0.266	-0.119
-292.662	-108.514	-0.248	0.053
-291.647	-182.486	-0.401	-0.007
-290.632	7.862	0.378	0.281
-289.618	-52.372	-0.237	-0.109
-288.603	17.033	-0.223	0.175
-287.589	-3.078	-0.338	0.234
-286.574	358.651	-0.024	-0.047
-285.559	-200.000	-0.043	0.278
-284.545	280.590	-0.125	-0.223
-283.530	455.660	0.089	0.197
-282.516	-94.400	0.252	0.068
-281.501	-200.000	0.001	-0.288
-280.486	466.166	0.163	0.364
-279.472	119.041	0.193	-0.237
-278.457	800.000	0.031	-0.099
-277.443	-127.309	-0.341	0.049
-276.428	122.408	-0.077	-0.095
-275.413	104.351	0.068	0.080
-274.399	91.900	-0.046	0.051
-273.384	183.494	0.174	0.256
-272.370	-22.117	0.214	0.129
-271.355	-200.000	0.007	0.152
-270.340	-200.000	0.010	-0.046
-269.326	-116.707	-0.025	0.005
-268.311	800.000	0.030	-0.101
-267.297	230.569	0.130	-0.211
-266.282	-3.085	0.106	0.074
-265.267	4.490	0.032	-0.023
-264.253	-49.733	-0.227	0.107
-263.238	625.774	0.168	0.422
-262.224	-31.579	0.123	0.069
-261.209	-137.992	-0.255	0.028
-260.195	13.598	-0.148	0.114
-259.180	534.060	0.061	0.143
-258.165	187.189	0.147	-0.218
-257.151	-200.000	0.016	-0.109
-256.136	800.000	0.085	-0.249
-255.122	-200.000	-0.010	-0.071
-254.107	-100.448	-0.104	-0.026
-253.092	-111.603	-0.025	-0.005
-252.078	-200.000	0.003	-0.177
-251.063	-200.000	0.000	0.118
-250.049	38.291	0.025	0.022
-249.034	-133.318	-0.209	0.026
-248.019	-133.233	0.219	0.027
-247.005	-157.770	-0.155	-0.009
-245.990	30.272	-0.123	-0.104
-244.976	739.797	0.093	-0.247
-243.961	351.443	0.182	0.357
-242.946	95.598	-0.245	0.278
-241.932	-17.983	-0.235	-0.146
-240.917	-101.832	-0.082	-0.020
-239.903	-200.000	0.035	0.191
-238.888	41.947	0.385	0.346
-237.873	13.415	0.495	0.381
-236.859	-122.142	-0.447	0.073
-235.844	-5.416	0.022	0.015
-234.830	-200.000	-0.020	0.186
-233.815	-116.575	-0.190	-0.035
-232.800	-58.490	-0.194	-0.083
-231.786	74.094	0.173	0.180
-230.771	92.652	-0.196	-0.219
-229.757	-61.094	-0.285	0.119
-228.742	-137.902	-0.092	-0.010
-227.727	28.105	0.249	-0.209
-226.713	-200.000	-0.068	0.325
-225.698	69.955	0.211	-0.216
-224.684	16.426	-0.094	-0.074
-223.669	-28.885	-0.113	0.065
-222.655	-24.001	0.339	-0.201
-221.640	-200.000	-0.084	0.408
-220.625	-11.366	-0.203	-0.133
-219.611	800.000	0.015	-0.043
-218.596	-28.097	0.058	-0.033
-217.582	800.000	-0.052	0.176
-216.567	177.792	0.071	0.102
-215.552	-22.901	-0.288	0.172
-214.538	-0.022	-0.462	0.326
-213.523	126.408	0.105	-0.132
-212.509	-73.869	0.066	-0.024
-211.494	800.000	0.107	0.318
-210.479	-31.057	-0.257	0.144
-209.465	800.000	-0.067	-0.218
-208.450	-161.002	0.278	-0.014
-207.436	-124.316	0.257	-0.040
-206.421	800.000	-0.055	0.165
-205.406	94.778	0.150	0.170
-204.392	182.814	0.143	-0.210
-203.377	95.654	0.200	0.226
-202.363	90.434	0.212	0.235
-201.348	140.387	0.426	-0.557
-200.333	-28.321	0.358	-0.205
-199.319	-118.579	0.237	0.042
-198.304	-75.561	-0.137	-0.048
-197.290	27.203	-0.216	-0.179
-196.275	-200.000	0.061	0.281
-195.260	-147.895	-0.233	-0.019
-194.246	-40.259	0.195	0.100
-193.231	-200.000	0.013	0.261
-192.217	7.415	-0.166	-0.123
-191.202	-13.583	-0.364	0.233
-190.187	727.498	-0.107	-0.283
-189.173	129.353	-0.148	-0.187
-188.158	15.310	0.048	-0.037
-187.144	-200.000	0.014	-0.259
-186.129	-52.684	0.084	0.038
-185.114	-58.671	-0.115	0.050
-184.100	-200.000	-0.013	0.103
-183.085	-0.529	-0.203	0.143
-182.071	800.000	0.063	0.194
-181.056	-47.763	0.137	-0.066
-180.042	116.419	-0.141	-0.172
-179.027	-26.449	-0.068	-0.039
-178.012	232.975	-0.152	0.247
-176.998	-98.369	-0.188	-0.048
-175.983	-3.362	0.118	0.082
-174.969	499.263	0.083	0.190
-173.954	-138.730	-0.163	-0.018
-172.939	93.821	0.019	-0.021
-171.925	19.659	-0.119	-0.095
-170.910	-10.377	0.123	0.081
-169.896	-104.088	-0.313	-0.072
-168.881	47.647	-0.030	-0.028
-167.866	800.000	0.079	-0.244
-166.852	151.291	-0.076	-0.103
-165.837	261.096	0.124	0.213
-164.823	132.280	0.099	0.126
-163.808	53.041	-0.030	-0.028
-162.793	164.236	0.105	0.146
-161.779	-199.300	-0.156	0.001
-160.764	-113.273	0.256	-0.050
-159.750	130.357	0.289	-0.367
-158.735	-185.978	0.233	-0.003
-157.720	58.538	0.098	-0.095
-156.706	82.122	-0.196	-0.211
-155.691	-163.104	0.166	-0.008
-154.677	-200.000	-0.016	0.142
-153.662	77.528	-0.159	-0.168
-152.647	-117.761	0.150	-0.027
-151.633	20.794	-0.067	-0.053
-150.618	-116.190	0.133	0.024
-149.604	735.455	-0.092	-0.242
-148.589	-200.000	-0.044	-0.438
-147.574	-171.359	0.168	0.006
-146.560	-13.300	0.279	0.179
-145.545	800.000	-0.023	-0.100
-144.531	129.808	0.167	-0.211
-143.516	-200.000	0.019	0.145
-142.502	-125.747	0.396	-0.059
-141.487	-200.000	0.009	-0.057
-140.472	-2.409	-0.125	-0.086
-139.458	-99.143	0.227	0.057
-138.443	-138.315	0.205	0.022
-137.429	39.732	-0.197	-0.174
-136.414	527.720	0.135	0.315
-135.399	152.630	-0.018	0.024
-134.385	-43.022	0.238	-0.119
-133.370	-94.521	0.373	0.100
-132.356	-36.156	0.204	0.109
-131.341	-35.359	-0.166	-0.089
-130.326	-128.731	0.133	0.019
-129.312	-24.034	-0.253	-0.149
-128.297	-13.578	0.316	-0.202
-127.283	153.841	0.191	-0.259
-126.268	-104.471	0.326	0.074
-125.253	-200.000	-0.005	0.264
-124.239	93.366	-0.262	0.293
-123.224	800.000	0.120	0.372
-122.210	32.200	0.125	-0.106
-121.195	-89.995	-0.206	0.059
-120.180	800.000	-0.059	0.203
-119.166	-133.164	-0.042	-0.005
-118.151	800.000	0.073	-0.253
-117.137	94.598	-0.151	-0.169
-116.122	263.160	0.096	0.164
-115.107	-77.965	-0.129	0.044
-114.093	-200.000	0.053	0.259
-113.078	-83.395	0.180	-0.057
-112.064	38.740	-0.233	-0.205
-111.049	-200.000	-0.034	-0.259
-110.034	159.898	-0.074	0.102
-109.020	230.162	0.181	0.292
-108.005	120.291	-0.277	-0.339
-106.991	255.281	0.085	-0.143
-105.976	-71.461	-0.223	-0.082
-104.962	-99.891	-0.288	0.071
-103.947	-25.974	0.390	0.226
-102.932	-200.000	0.079	-0.403
-101.918	-81.273	-0.146	-0.047
-100.903	593.431	0.047	0.115
-99.889	-29.712	0.219	-0.124
-98.874	800.000	0.046	-0.135
-97.859	-135.677	-0.139	0.016
-96.845	-200.000	0.008	0.161
-95.830	195.200	-0.087	-0.131
-94.816	-14.925	0.247	-0.156
-93.801	-133.417	0.200	-0.025
-92.786	-112.932	-0.085	-0.017
-91.772	542.870	-0.116	0.274
-90.757	-36.685	0.102	-0.054
-89.743	-200.000	-0.045	-0.298
-88.728	-176.775	-0.281	-0.007
-87.713	-99.685	0.251	0.062
-86.699	8.737	-0.376	-0.279
-85.684	31.570	0.042	-0.036
-84.670	-200.000	0.005	0.245
-83.655	-92.749	-0.351	-0.097
-82.640	-2.279	-0.129	0.089
-81.626	71.286	0.043	-0.044
-80.611	-200.000	-0.014	0.200
-79.597	-103.397	-0.277	0.064
-78.582	-200.000	-0.014	-0.086
-77.567	331.309	-0.124	0.236
-76.553	-200.000	0.031	0.324
-75.538	144.744	0.115	0.152
-74.524	-200.000	0.001	0.302
-73.509	-200.000	-0.033	0.178
-72.494	129.789	0.171	0.215
-71.480	800.000	0.030	-0.129
-70.465	-200.000	-0.016	0.097
-69.451	13.258	0.171	-0.131
-68.436	-153.696	-0.117	0.008
-67.422	-55.916	-0.291	-0.128
-66.407	707.827	0.049	-0.127
-65.392	800.000	-0.062	0.255
-64.378	-32.348	-0.096	-0.053
-63.363	-13.308	0.087	-0.056
-62.349	189.768	-0.095	-0.141
-61.334	32.051	-0.946	-0.803
-60.319	297.029	0.354	0.639
-59.305	549.785	-0.277	-0.654
-58.290	258.891	0.580	0.985
-57.276	800.000	0.589	1.900
-56.261	-200.000	98.128	590.459
-55.246	617.108	1432.478	3540.483
-54.232	179.164	2662.900	3836.468
-53.217	113.599	2337.388	2795.884
-52.203	42.775	1944.120	1744.121
-51.188	36.435	1730.927	1503.643
-50.173	33.733	1685.905	1443.953
-49.159	51.280	1735.132	1621.872
-48.144	53.995	1751.932	1658.428
-47.130	36.297	1708.031	1482.456
-46.115	33.361	1692.863	1446.840
-45.100	33.177	1687.917	1441.149
-44.086	33.169	1685.419	1438.905
-43.071	33.178	1682.747	1436.634
-42.057	33.160	1679.688	1433.824
-41.042	33.174	1677.938	1432.380
-40.027	33.201	1675.921	1430.810
-39.013	33.129	1673.720	1428.328
-37.998	33.130	1672.159	1426.944
-36.984	33.180	1671.080	1426.344
-35.969	33.256	1670.100	1426.022
-34.954	33.254	1667.956	1424.123
-33.940	33.289	1666.172	1422.808
-32.925	33.289	1664.183	1421.050
-31.911	33.287	1662.103	1419.203
-30.896	33.223	1660.270	1417.105
-29.881	33.276	1658.412	1415.860
-28.867	33.242	1656.938	1414.291
-27.852	33.308	1655.581	1413.567
-26.838	33.247	1653.896	1411.619
-25.823	33.318	1652.564	1410.955
-24.809	33.366	1651.190	1410.079
-23.794	33.314	1649.768	1408.426
-22.779	33.296	1648.253	1406.942
-21.765	33.265	1646.698	1405.332
-20.750	33.288	1644.930	1403.934
-19.736	33.337	1643.131	1402.707
-18.721	33.414	1641.160	1401.540
-17.706	33.365	1640.141	1400.250
-16.692	33.310	1638.699	1398.560
-15.677	33.127	1637.717	1396.311
-14.663	33.295	1636.114	1396.131
-13.648	33.208	1634.839	1394.344
-12.633	33.331	1632.620	1393.304
-11.619	33.267	1631.267	1391.621
-10.604	33.271	1630.021	1390.532
-9.590	33.258	1628.830	1389.365
-8.575	33.313	1627.621	1388.686
-7.560	33.303	1626.089	1387.247
-6.546	33.274	1625.153	1386.181
-5.531	33.250	1623.952	1384.926
-4.517	33.263	1622.473	1383.707
-3.502	33.277	1621.628	1383.035
-2.487	33.324	1619.940	1381.879
-1.473	33.420	1609.608	1373.712
-0.458	31.659	1591.241	1345.341
0.556	29.688	1592.402	1317.112
1.571	27.610	1616.928	1322.226
2.586	26.782	1630.145	1326.859
3.600	23.103	1572.983	1254.180
4.615	13.292	1457.313	1097.071
5.629	5.254	1391.337	996.217
6.644	4.128	1382.464	982.640
7.659	3.992	1380.939	980.610
8.673	3.935	1380.241	979.662
9.688	4.025	1378.419	978.852
10.702	3.920	1375.906	976.322
11.717	7.483	1383.114	1003.915
12.731	16.291	1398.968	1071.466
13.746	21.313	1406.425	1109.038
14.761	20.742	1404.035	1103.438
15.775	19.885	1400.901	1095.457
16.790	18.722	1399.197	1086.669
17.804	17.897	1396.704	1079.423
18.819	17.581	1395.627	1076.498
19.834	17.360	1393.723	1073.538
20.848	17.056	1393.186	1071.109
21.863	16.876	1391.608	1068.666
22.877	16.821	1390.290	1067.213
23.892	16.697	1389.874	1066.023
24.907	16.704	1388.545	1064.951
25.921	16.730	1387.460	1064.185
26.936	16.729	1387.160	1063.854
27.950	16.790	1385.992	1063.252
28.965	16.857	1385.052	1062.856
29.980	16.933	1384.141	1062.540
30.994	17.098	1382.827	1062.468
32.009	17.181	1381.700	1062.027
33.023	17.053	1380.424	1060.150
34.038	17.047	1378.828	1058.797
35.053	16.866	1378.170	1057.070
36.067	16.892	1377.013	1056.247
37.082	16.929	1375.737	1055.405
38.096	16.945	1375.242	1055.031
39.111	16.908	1374.494	1054.137
40.126	16.914	1373.087	1053.000
41.140	16.753	1372.512	1051.469
42.155	16.707	1371.424	1050.256
43.169	16.561	1371.327	1049.186
44.184	16.631	1370.940	1049.229
45.199	16.580	1370.554	1048.526
46.213	16.821	1369.907	1049.427
47.228	16.812	1369.416	1048.903
48.242	16.852	1367.879	1047.881
49.257	16.816	1366.612	1046.594
50.271	16.858	1365.123	1045.625
51.286	16.938	1363.666	1044.905
52.301	16.843	1362.588	1043.405
53.315	16.763	1361.168	1041.735
54.330	16.629	1360.662	1040.427
55.344	16.573	1359.306	1038.954
56.359	16.749	1358.334	1039.204
57.374	16.660	1357.589	1037.995
58.388	16.542	1356.589	1036.415
59.403	16.461	1356.158	1035.499
60.417	16.604	1354.950	1035.356
61.432	16.598	1354.144	1034.613
62.447	16.475	1353.072	1032.948
63.461	16.340	1351.659	1030.959
64.476	16.404	1350.951	1030.719
65.490	16.440	1349.410	1029.672
66.505	16.488	1347.991	1028.788
67.520	16.457	1346.852	1027.641
68.534	16.461	1346.204	1027.078
69.549	16.428	1345.218	1026.032
70.563	16.353	1344.002	1024.560
71.578	16.461	1342.191	1023.746
72.593	16.306	1341.815	1022.426
73.607	16.269	1341.047	1021.528
74.622	16.250	1340.117	1020.614
75.636	16.383	1339.227	1020.650
76.651	16.261	1339.335	1019.908
77.666	16.302	1338.254	1019.241
78.680	16.419	1337.955	1019.629
79.695	16.435	1337.092	1018.978
80.709	16.509	1336.317	1018.737
81.724	16.674	1335.312	1018.878
82.739	16.775	1334.410	1018.708
83.753	16.756	1334.006	1018.193
84.768	16.905	1332.873	1018.134
85.782	17.016	1331.630	1017.762
86.797	16.884	1330.426	1015.961
87.812	16.827	1329.063	1014.486
88.826	16.831	1327.609	1013.310
89.841	16.860	1326.799	1012.777
90.855	16.942	1325.558	1012.227
91.870	16.893	1325.550	1011.843
92.884	16.867	1324.384	1010.707
93.899	16.958	1323.353	1010.373
94.914	17.071	1322.599	1010.381
95.928	17.046	1321.907	1009.610
96.943	16.996	1320.703	1008.305
97.957	16.886	1319.832	1006.903
98.972	16.888	1318.752	1005.997
99.987	16.897	1317.616	1005.095
101.001	17.011	1316.505	1004.832
102.016	16.917	1316.178	1003.939
103.030	16.976	1314.912	1003.235
104.045	16.998	1314.047	1002.615
105.060	16.893	1312.639	1000.830
106.074	16.718	1311.223	998.632
107.089	16.533	1309.762	996.341
108.103	16.463	1308.165	994.625
109.118	16.486	1306.872	993.691
110.133	16.494	1305.930	992.932
111.147	16.530	1304.474	991.952
112.162	16.535	1303.318	991.012
113.176	16.545	1302.569	990.417
114.191	16.681	1301.286	990.146
115.206	16.603	1300.422	988.944
116.220	16.672	1298.910	988.114
117.235	16.632	1297.588	986.783
118.249	16.611	1296.423	985.686
119.264	16.567	1295.268	984.468
120.279	16.487	1294.469	983.306
121.293	16.456	1292.912	981.856
122.308	16.405	1292.643	981.271
123.322	16.442	1291.383	980.440
124.337	16.449	1290.301	979.577
125.352	16.518	1288.990	978.893
126.366	16.373	1287.861	977.110
127.381	16.455	1286.735	976.642
128.395	16.423	1286.037	975.842
129.410	16.534	1284.318	975.089
130.424	16.442	1284.170	974.363
131.439	16.632	1282.945	974.441
132.454	16.630	1282.257	973.819
133.468	16.626	1281.416	973.071
134.483	16.702	1280.789	972.945
135.497	16.573	1279.904	971.450
136.512	16.580	1278.632	970.436
137.527	16.702	1276.825	969.678
138.541	16.588	1275.652	968.049
139.556	16.810	1273.902	967.903
140.570	16.736	1273.339	966.966
141.585	16.815	1271.987	966.305
142.600	16.931	1271.011	966.143
143.614	17.012	1270.329	965.997
144.629	17.072	1269.054	965.283
145.643	16.990	1268.259	964.128
146.658	16.793	1267.198	962.118
147.673	16.859	1265.134	960.839
148.687	16.716	1264.213	959.247
149.702	16.767	1262.923	958.467
150.716	16.810	1261.377	957.453
151.731	16.690	1260.416	955.964
152.746	16.662	1259.099	954.720
153.760	16.830	1258.149	954.864
154.775	16.807	1257.156	953.897
155.789	16.893	1256.088	953.482
156.804	16.923	1255.174	952.873
157.819	16.989	1254.092	952.339
158.833	17.064	1253.283	952.064
159.848	17.192	1252.056	951.764
160.862	17.154	1251.074	950.718
161.877	16.887	1250.007	948.333
162.892	16.821	1249.011	947.120
163.906	16.821	1248.119	946.363
164.921	16.780	1247.162	945.324
165.935	16.810	1246.447	944.867
166.950	16.872	1245.700	944.562
167.964	16.881	1244.512	943.629
168.979	16.862	1244.005	943.056
169.994	16.926	1242.959	942.531
171.008	16.946	1242.505	942.214
172.023	16.970	1241.627	941.602
173.037	17.172	1241.005	942.167
174.052	17.051	1240.289	940.866
175.067	16.860	1239.082	938.811
176.081	16.900	1237.510	937.758
177.096	16.854	1237.020	937.051
178.110	16.864	1235.628	935.968
179.125	16.900	1234.515	935.242
180.140	16.982	1233.100	934.541
181.154	17.003	1232.088	933.803
182.169	17.103	1230.777	933.279
183.183	17.048	1230.261	932.503
184.198	17.172	1228.835	932.017
185.213	17.096	1227.857	930.776
186.227	17.254	1226.304	930.382
187.242	17.261	1225.646	929.842
188.256	17.278	1224.873	929.267
189.271	17.213	1223.903	928.090
190.286	17.165	1222.542	926.713
191.300	16.909	1221.415	924.385
192.315	16.849	1220.644	923.393
193.329	16.783	1220.263	922.659
194.344	16.947	1219.983	923.261
195.359	17.030	1218.906	922.813
196.373	17.126	1218.549	922.984
197.388	17.223	1218.298	923.241
198.402	17.252	1217.958	923.059
199.417	17.412	1217.375	923.405
200.432	17.580	1216.319	923.433
201.446	17.522	1215.488	922.408
202.461	17.476	1214.855	921.592
203.475	17.530	1213.875	921.061
204.490	17.523	1212.151	919.635
205.504	17.314	1211.490	917.920
206.519	17.244	1209.927	916.279
207.534	17.361	1208.433	915.697
208.548	17.326	1207.878	915.006
209.563	17.303	1207.088	914.206
210.577	17.333	1205.836	913.337
211.592	17.403	1205.383	913.289
212.607	17.515	1204.538	913.169
213.621	17.466	1203.751	912.226
214.636	17.469	1202.534	911.242
215.650	17.556	1201.591	910.909
216.665	17.628	1200.454	910.355
217.680	17.635	1200.348	910.228
218.694	17.659	1198.986	909.245
219.709	17.669	1198.514	908.858
220.723	17.590	1197.660	907.708
221.738	17.695	1196.961	907.661
222.753	17.640	1196.147	906.670
223.767	17.740	1195.362	906.524
224.782	17.691	1194.851	905.796
225.796	17.824	1194.141	905.888
226.811	17.926	1193.053	905.520
227.826	17.673	1192.950	904.023
228.840	17.745	1191.812	903.457
229.855	17.708	1190.968	902.546
230.869	17.745	1190.132	902.027
231.884	17.571	1189.530	900.571
232.899	17.552	1188.714	899.772
233.913	17.538	1187.927	899.026
234.928	17.549	1187.112	898.387
235.942	17.533	1186.015	897.390
236.957	17.523	1185.569	896.923
237.972	17.597	1184.625	896.519
238.986	17.613	1183.962	896.021
240.001	17.603	1183.232	895.338
241.015	17.649	1182.315	894.806
242.030	17.769	1181.566	894.788
243.045	17.788	1180.490	893.995
244.059	17.762	1180.166	893.534
245.074	17.826	1179.383	893.198
246.088	17.873	1178.775	892.904
247.103	17.932	1177.619	892.259
248.117	18.073	1176.780	892.277
249.132	18.188	1176.503	892.591
250.147	18.270	1175.781	892.391
251.161	18.313	1175.231	892.120
252.176	18.352	1174.421	891.627
253.190	18.277	1174.257	891.036
254.205	18.480	1173.174	891.189
255.220	18.403	1172.893	890.497
256.234	18.463	1171.971	890.029
257.249	18.403	1171.667	889.407
258.263	18.395	1171.349	889.046
259.278	18.518	1169.831	888.453
260.293	18.535	1169.383	888.123
261.307	18.528	1169.394	888.017
262.322	18.565	1168.320	887.312
263.336	18.520	1167.417	886.314
264.351	18.592	1167.106	886.374
265.366	18.599	1166.526	885.892
266.380	18.576	1165.724	885.083
267.395	18.596	1164.459	884.149
268.409	18.422	1164.113	882.909
269.424	18.551	1163.066	882.703
270.439	18.504	1162.593	882.026
271.453	18.426	1162.047	881.128
272.468	18.357	1161.132	880.006
273.482	18.466	1159.953	879.591
274.497	18.393	1159.401	878.720
275.512	18.425	1158.952	878.464
276.526	18.459	1158.026	877.860
277.541	18.496	1157.297	877.422
278.555	18.601	1156.928	877.598
279.570	18.611	1156.141	876.979
280.585	18.729	1155.071	876.691
281.599	18.702	1154.198	875.811
282.614	18.675	1153.137	874.792
283.628	18.543	1151.756	872.995
284.643	18.591	1150.971	872.569
285.657	18.617	1149.778	871.718
286.672	18.516	1149.514	870.927
287.687	18.623	1148.665	870.751
288.701	18.712	1147.730	870.417
289.716	18.841	1146.512	870.070
290.730	18.621	1146.418	868.804
291.745	18.660	1145.398	868.152
292.760	18.772	1144.697	868.109
293.774	18.794	1144.231	867.791
294.789	18.894	1144.116	868.133
295.803	18.819	1143.416	867.146
296.818	18.760	1142.375	865.984
297.833	18.750	1141.765	865.392
298.847	18.767	1140.947	864.783
299.862	18.847	1139.626	864.106
300.876	18.758	1139.119	863.201
301.891	18.885	1138.837	863.545
302.906	19.024	1137.948	863.494
303.920	19.056	1137.316	863.099
304.935	19.095	1137.103	863.058
305.949	19.154	1136.001	862.440
306.964	19.273	1135.114	862.284
307.979	19.106	1134.672	861.036
308.993	19.039	1134.079	860.179
310.008	19.101	1133.431	859.919
311.022	19.193	1132.780	859.807
312.037	19.189	1131.483	858.728
313.052	19.068	1130.614	857.388
314.066	19.054	1129.541	856.431
315.081	18.893	1128.484	854.750
316.095	18.832	1127.994	854.003
317.110	19.020	1127.128	854.207
318.125	18.912	1126.336	852.993
319.139	18.872	1125.999	852.463
320.154	19.004	1124.730	852.083
321.168	18.981	1124.705	851.873
322.183	18.965	1123.903	851.112
323.197	18.934	1123.212	850.360
324.212	18.971	1122.782	850.142
325.227	19.102	1122.033	850.144
326.241	18.953	1121.704	849.088
327.256	19.097	1120.496	848.808
328.270	19.057	1119.383	847.692
329.285	19.046	1118.571	846.948
330.300	18.971	1117.902	845.997
331.314	19.075	1116.839	845.628
332.329	19.121	1115.687	844.906
333.343	19.143	1115.121	844.513
334.358	19.130	1114.603	843.982
335.373	19.205	1113.898	843.741
336.387	19.250	1113.119	843.295
337.402	19.174	1112.780	842.591
338.416	19.202	1111.825	841.931
339.431	19.371	1111.029	842.081
340.446	19.452	1110.544	842.032
341.460	19.602	1109.707	842.054
342.475	19.619	1108.921	841.466
343.489	19.675	1108.243	841.148
344.504	19.602	1107.037	839.808
345.519	19.595	1106.708	839.446
346.533	19.790	1105.466	839.377
347.548	19.635	1104.869	838.098
348.562	19.674	1104.215	837.717
349.577	19.534	1103.520	836.439
350.592	19.520	1102.000	835.142
351.606	19.441	1101.568	834.363
352.621	19.340	1100.625	833.086
353.635	19.401	1100.146	832.943
354.650	19.452	1099.604	832.703
355.665	19.361	1098.965	831.710
356.679	19.441	1098.506	831.672
357.694	19.595	1097.781	831.794
358.708	19.749	1096.740	831.673
359.723	19.626	1096.423	830.767
360.738	19.520	1096.025	829.881
361.752	19.594	1094.955	829.350
362.767	19.764	1094.571	829.806
363.781	19.635	1094.092	828.747
364.796	19.826	1093.205	828.921
365.810	19.775	1092.811	828.303
366.825	19.878	1092.368	828.387
367.840	19.978	1092.207	828.669
368.854	20.039	1091.468	828.326
369.869	19.988	1090.493	827.270
370.883	20.062	1089.461	826.769
371.898	19.928	1088.800	825.556
372.913	19.876	1088.595	825.079
373.927	19.982	1087.752	824.869
374.942	19.992	1087.614	824.738
375.956	20.022	1086.663	824.091
376.971	19.989	1085.900	823.281
377.986	20.144	1085.262	823.463
379.000	20.183	1085.147	823.487
380.015	20.258	1084.436	823.230
381.029	20.267	1083.817	822.730
382.044	20.283	1082.706	821.888
383.059	20.230	1082.110	821.112
384.073	20.225	1081.379	820.460
385.088	20.301	1080.773	820.291
386.102	20.298	1079.774	819.444
387.117	20.234	1078.639	818.208
388.132	20.079	1077.698	816.689
389.146	20.144	1076.388	815.931
390.161	19.978	1076.087	814.848
391.175	20.143	1075.011	814.741
392.190	20.225	1074.584	814.728
393.205	20.312	1073.867	814.520
394.219	20.244	1073.142	813.580
395.234	20.108	1072.794	812.609
396.248	20.126	1071.128	811.359
397.263	20.084	1070.202	810.390
398.278	20.125	1069.426	809.921
399.292	20.008	1068.784	808.814
400.307	20.018	1068.239	808.377
401.321	20.058	1067.477	807.917
402.336	20.101	1066.626	807.401
403.350	20.047	1066.211	806.764
404.365	20.023	1065.490	806.036
405.380	20.184	1064.504	805.966
406.394	20.261	1063.899	805.796
407.409	20.240	1063.229	805.118
408.423	20.449	1062.419	805.404
409.438	20.398	1061.963	804.751
410.453	20.437	1061.697	804.660
411.467	20.555	1060.603	804.305
412.482	20.525	1060.285	803.854
413.496	20.559	1059.610	803.429
414.511	20.735	1058.854	803.594
415.526	20.781	1058.512	803.477
416.540	20.741	1058.335	803.088
417.555	20.793	1057.080	802.305
418.569	20.767	1056.512	801.681
419.584	20.683	1056.130	800.932
420.599	20.690	1055.696	800.566
421.613	151.356	1402.835	1788.859
422.628	138.930	1453.396	1788.982
