DTS Sentinel unit serial number:	SN413079Multiplexer serial number:	ORYXHardware model number:	OX4-SRSoftware version number:	ORYX F/W v4.00 Oryx Data Collector v3.7.2.0data status	okinstallation	princeton_trtdifferential loss correction	single-endedforward channel	channel 2reverse channel	N/Adate	2019/09/12time	00:37:11forward acquisition time	60.00reverse acquisition time	0.00gamma	496.2192k internal	0.2325k external	0.2325temperature offset calibration	1.0087default loss term (dB/km)	0.3790temperature slope calibration	1.0000multiplexer offset coefficient	1.0000multiplexer slope coefficient	1.0000fibre end	0.00T internal ref (°C)	33.36T ext. ref 1 (°C)	2.07T ext. ref 2 (°C)	27.93length (m)	temperature (°C)	Stokes	anti-Stokes-747.200	38.501	0.058	0.052
-746.185	177.644	0.096	-0.141
-745.171	800.000	-0.034	0.139
-744.156	288.745	-0.063	0.115
-743.142	800.000	-0.015	0.058
-742.127	-30.023	0.189	0.109
-741.112	-61.047	0.225	-0.096
-740.098	46.431	-0.130	-0.121
-739.083	-200.000	0.070	-0.400
-738.069	26.439	0.014	0.012
-737.054	-11.112	-0.111	-0.074
-736.039	215.020	-0.212	-0.339
-735.025	149.479	0.167	0.228
-734.010	23.248	-0.043	-0.036
-732.996	-113.230	-0.378	-0.075
-731.981	-154.556	-0.288	-0.019
-730.966	-200.000	0.029	0.264
-729.952	-29.334	-0.206	-0.119
-728.937	113.476	-0.051	0.063
-727.923	391.672	0.056	0.118
-726.908	-19.127	-0.123	-0.077
-725.894	1.496	0.230	-0.167
-724.879	521.718	-0.070	0.166
-723.864	-151.960	-0.207	-0.015
-722.850	-105.943	-0.356	-0.081
-721.835	800.000	0.191	0.579
-720.821	-105.348	-0.385	0.088
-719.806	-84.904	-0.177	-0.056
-718.791	-107.626	-0.177	0.039
-717.777	-33.936	0.327	-0.182
-716.762	-200.000	0.005	-0.152
-715.748	-100.865	0.171	0.042
-714.733	496.126	0.054	-0.126
-713.718	-200.000	-0.011	0.184
-712.704	96.539	0.177	0.204
-711.689	800.000	0.043	-0.125
-710.675	-200.000	0.175	-0.000
-709.660	-151.805	-0.300	0.022
-708.645	-200.000	0.046	0.274
-707.631	-123.680	0.140	0.022
-706.616	386.317	0.053	0.111
-705.602	-39.527	0.227	-0.120
-704.587	181.823	0.045	0.067
-703.572	-200.000	-0.063	-0.360
-702.558	-200.000	-0.064	-0.381
-701.543	116.477	0.317	0.391
-700.529	-104.247	0.176	-0.041
-699.514	66.545	-0.264	-0.271
-698.499	-104.389	-0.493	-0.115
-697.485	293.854	0.037	0.068
-696.470	31.396	-0.235	0.203
-695.456	263.459	-0.121	-0.211
-694.441	-96.648	0.395	-0.105
-693.426	-102.651	-0.289	-0.069
-692.412	-17.721	0.141	0.089
-691.397	-163.790	0.039	-0.002
-690.383	-56.641	-0.192	0.086
-689.368	-137.606	0.213	-0.024
-688.354	800.000	-0.038	-0.117
-687.339	-54.618	0.164	-0.075
-686.324	-200.000	0.011	-0.084
-685.310	281.464	-0.137	-0.247
-684.295	-143.810	-0.122	0.012
-683.281	13.389	0.250	-0.195
-682.266	800.000	0.073	-0.216
-681.251	-134.260	0.185	0.023
-680.237	673.713	-0.089	-0.233
-679.222	-66.242	-0.204	-0.082
-678.208	-161.839	-0.400	-0.020
-677.193	57.935	-0.070	0.069
-676.178	-27.580	-0.337	0.197
-675.164	-13.913	0.010	-0.007
-674.149	-200.000	-0.009	-0.172
-673.135	195.516	-0.216	-0.331
-672.120	800.000	0.054	0.187
-671.105	-57.487	-0.054	0.024
-670.091	-15.438	-0.244	0.157
-669.076	-123.353	-0.243	0.039
-668.062	42.623	0.282	0.258
-667.047	-200.000	-0.002	-0.181
-666.032	-140.062	-0.088	-0.009
-665.018	27.460	0.095	0.080
-664.003	-167.138	-0.339	0.014
-662.989	4.117	-0.106	-0.078
-661.974	-200.000	0.028	0.289
-660.959	-43.558	-0.183	0.093
-659.945	-11.664	-0.228	0.151
-658.930	416.962	0.174	-0.373
-657.916	-72.674	0.082	-0.030
-656.901	-109.429	0.086	0.018
-655.886	-140.340	-0.297	0.031
-654.872	489.866	-0.067	-0.153
-653.857	253.588	-0.144	0.247
-652.843	-106.071	-0.178	-0.040
-651.828	-109.497	-0.076	-0.016
-650.814	114.607	-0.042	0.051
-649.799	11.253	-0.256	-0.197
-648.784	-200.000	0.024	0.194
-647.770	192.264	0.147	-0.222
-646.755	-159.357	-0.300	0.017
-645.741	800.000	-0.102	0.381
-644.726	724.805	-0.122	0.327
-643.711	800.000	0.067	-0.257
-642.697	17.402	-0.116	-0.092
-641.682	181.745	-0.141	-0.208
-640.668	-33.962	0.446	-0.247
-639.653	-77.557	0.214	-0.075
-638.638	-115.917	0.241	-0.045
-637.624	800.000	0.139	-0.476
-636.609	-95.369	0.216	0.058
-635.595	631.876	-0.112	-0.284
-634.580	800.000	-0.039	-0.111
-633.565	-129.389	-0.254	0.035
-632.551	-102.446	-0.195	-0.047
-631.536	-26.282	0.076	0.045
-630.522	-200.000	-0.004	0.149
-629.507	-200.000	0.013	0.150
-628.492	-200.000	0.004	-0.364
-627.478	-200.000	-0.021	-0.294
-626.463	-11.662	-0.149	-0.098
-625.449	-35.092	-0.166	-0.091
-624.434	-153.758	-0.428	-0.029
-623.419	-11.147	0.029	-0.019
-622.405	-172.781	-0.519	0.016
-621.390	-200.000	-0.032	-0.187
-620.376	-38.012	-0.112	-0.060
-619.361	10.609	-0.305	-0.234
-618.346	-200.000	-0.014	0.150
-617.332	800.000	-0.069	-0.225
-616.317	-70.486	-0.395	-0.150
-615.303	344.858	-0.165	-0.324
-614.288	-31.985	-0.189	0.106
-613.273	800.000	0.014	0.051
-612.259	-200.000	-0.017	0.227
-611.244	-138.831	0.191	-0.021
-610.230	-200.000	-0.051	-0.260
-609.215	-200.000	0.015	-0.140
-608.201	-105.918	-0.151	-0.034
-607.186	59.065	-0.074	0.073
-606.171	52.837	-0.129	0.124
-605.157	-89.264	-0.311	-0.092
-604.142	-110.626	-0.052	0.011
-603.128	-48.783	-0.398	-0.192
-602.113	89.741	-0.057	0.064
-601.098	-196.833	0.368	0.002
-600.084	-88.505	-0.187	-0.056
-599.069	119.678	-0.191	0.238
-598.055	-26.690	-0.386	-0.227
-597.040	-200.000	0.004	-0.345
-596.025	-200.000	-0.023	-0.251
-595.011	94.682	0.106	-0.121
-593.996	-46.646	0.167	0.082
-592.982	-125.204	0.046	-0.007
-591.967	-38.072	0.423	0.225
-590.952	-101.037	0.136	0.033
-589.938	-55.037	0.278	0.126
-588.923	-200.000	-0.015	0.171
-587.909	800.000	-0.118	-0.354
-586.894	40.244	0.160	-0.144
-585.879	800.000	0.094	0.269
-584.865	16.413	-0.200	-0.159
-583.850	-127.159	-0.111	-0.016
-582.836	87.113	0.066	0.073
-581.821	459.979	-0.073	0.163
-580.806	-72.920	-0.239	-0.088
-579.792	223.500	0.165	-0.266
-578.777	452.179	-0.090	-0.199
-577.763	19.477	0.157	0.127
-576.748	-43.164	-0.280	0.142
-575.733	-200.000	-0.029	-0.149
-574.719	800.000	-0.125	0.454
-573.704	-24.531	0.135	-0.080
-572.690	117.509	0.124	0.153
-571.675	-74.720	0.286	-0.103
-570.661	-200.000	0.042	-0.223
-569.646	-69.285	0.359	-0.138
-568.631	-200.000	0.008	-0.213
-567.617	-138.953	-0.232	0.025
-566.602	-58.228	-0.285	0.125
-565.588	209.096	-0.196	0.307
-564.573	800.000	0.109	0.343
-563.558	-154.870	-0.262	0.017
-562.544	-7.921	0.244	0.165
-561.529	-83.424	0.063	0.020
-560.515	-200.000	-0.001	-0.213
-559.500	-114.520	-0.503	0.097
-558.485	42.285	-0.195	-0.178
-557.471	-200.000	-0.024	0.244
-556.456	92.252	-0.194	0.219
-555.442	-152.513	0.245	0.018
-554.427	18.735	-0.204	-0.163
-553.412	-200.000	-0.011	-0.188
-552.398	800.000	-0.023	0.095
-551.383	-47.116	-0.063	-0.031
-550.369	-31.600	0.037	0.021
-549.354	-27.450	0.262	-0.152
-548.339	-102.781	0.219	-0.052
-547.325	-51.317	0.151	0.071
-546.310	110.629	0.334	0.403
-545.296	-99.490	0.300	0.076
-544.281	5.633	-0.066	-0.049
-543.266	273.582	-0.107	0.189
-542.252	252.006	-0.161	0.274
-541.237	-114.364	-0.278	-0.054
-540.223	-200.000	-0.007	-0.220
-539.208	-34.495	-0.162	-0.089
-538.193	147.970	0.301	-0.407
-537.179	-200.000	-0.012	0.139
-536.164	100.008	0.119	-0.138
-535.150	252.057	0.100	-0.171
-534.135	-200.000	-0.030	-0.232
-533.121	-162.017	0.296	-0.015
-532.106	-48.941	0.263	-0.126
-531.091	800.000	0.020	-0.082
-530.077	210.791	0.116	0.182
-529.062	366.468	0.056	-0.113
-528.048	-200.000	-0.031	0.364
-527.033	471.520	-0.182	0.410
-526.018	-45.806	-0.379	0.188
-525.004	358.278	0.063	0.125
-523.989	-200.000	-0.025	-0.205
-522.975	-15.162	-0.379	0.242
-521.960	-200.000	0.036	0.183
-520.945	-44.353	-0.016	-0.008
-519.931	-95.733	-0.429	-0.115
-518.916	-23.354	-0.135	0.081
-517.902	-88.663	-0.152	-0.045
-516.887	8.441	-0.410	-0.308
-515.872	88.756	0.182	-0.202
-514.858	31.523	0.170	-0.146
-513.843	110.533	-0.172	-0.207
-512.829	-81.006	0.103	0.034
-511.814	-200.000	0.006	0.263
-510.799	145.305	0.147	0.196
-509.785	-55.494	-0.404	0.181
-508.770	-200.000	0.004	0.142
-507.756	-91.356	0.245	0.070
-506.741	-88.062	-0.322	0.097
-505.726	98.960	-0.180	0.208
-504.712	-200.000	0.033	0.176
-503.697	800.000	-0.086	0.307
-502.683	89.609	0.057	0.064
-501.668	7.750	0.207	0.155
-500.653	128.539	-0.192	-0.245
-499.639	-152.746	-0.229	-0.016
-498.624	246.446	-0.075	0.126
-497.610	-200.000	-0.040	-0.544
-496.595	-200.000	0.002	0.253
-495.581	221.810	0.158	0.253
-494.566	258.177	-0.100	-0.173
-493.551	174.463	-0.046	0.066
-492.537	208.756	-0.101	-0.158
-491.522	-92.317	-0.145	0.041
-490.508	800.000	0.080	-0.226
-489.493	-200.000	-0.007	0.139
-488.478	-40.393	-0.145	-0.075
-487.464	-142.249	0.273	0.027
-486.449	426.399	-0.143	0.308
-485.435	161.432	-0.077	0.108
-484.420	458.401	-0.053	0.117
-483.405	375.260	0.120	0.244
-482.391	800.000	0.055	-0.188
-481.376	109.719	-0.100	-0.120
-480.362	-70.137	-0.242	-0.092
-479.347	-150.873	-0.270	0.020
-478.332	25.291	-0.230	0.191
-477.318	800.000	-0.034	-0.097
-476.303	-50.251	-0.356	0.168
-475.289	15.861	0.191	-0.150
-474.274	582.467	-0.061	-0.148
-473.259	-29.783	-0.103	0.059
-472.245	-40.983	0.176	0.091
-471.230	-8.271	-0.103	-0.069
-470.216	212.882	0.089	-0.141
-469.201	-200.000	-0.010	0.137
-468.186	41.134	-0.241	-0.217
-467.172	-173.321	-0.560	0.017
-466.157	221.788	-0.103	0.166
-465.143	-95.575	0.171	-0.046
-464.128	145.161	0.196	0.262
-463.113	800.000	0.090	-0.349
-462.099	-200.000	0.042	-0.390
-461.084	93.652	0.074	0.084
-460.070	49.782	0.271	-0.255
-459.055	-200.000	-0.006	-0.233
-458.040	-199.211	-0.152	-0.001
-457.026	-94.146	0.309	0.084
-456.011	800.000	0.048	0.146
-454.997	800.000	0.083	-0.237
-453.982	8.230	-0.067	-0.050
-452.968	-83.373	0.060	-0.019
-451.953	800.000	0.031	0.102
-450.938	-96.011	-0.265	-0.070
-449.924	-103.878	-0.229	-0.053
-448.909	-12.883	-0.312	-0.202
-447.895	-200.000	-0.046	0.218
-446.880	-56.895	0.224	0.099
-445.865	-200.000	-0.053	0.244
-444.851	-140.055	-0.478	-0.050
-443.836	140.313	0.191	-0.251
-442.822	-128.963	0.213	0.030
-441.807	206.281	-0.112	-0.173
-440.792	92.411	0.439	0.494
-439.778	-109.600	0.291	-0.061
-438.763	126.264	-0.068	0.085
-437.749	-200.000	0.045	-0.331
-436.734	-155.064	-0.260	0.017
-435.719	-115.522	-0.045	0.008
-434.705	489.991	-0.091	0.208
-433.690	-200.000	-0.041	0.203
-432.676	-31.449	0.302	0.170
-431.661	-200.000	-0.003	-0.173
-430.646	-40.088	0.353	-0.183
-429.632	-66.289	0.240	-0.095
-428.617	-81.615	0.225	0.074
-427.603	298.072	-0.168	0.308
-426.588	-200.000	0.024	-0.107
-425.573	-185.258	-0.083	0.001
-424.559	-24.592	0.197	-0.117
-423.544	21.847	0.129	-0.105
-422.530	171.044	0.115	-0.164
-421.515	442.279	-0.116	-0.254
-420.500	18.961	0.031	0.025
-419.486	-81.505	-0.065	-0.021
-418.471	37.241	0.247	-0.218
-417.457	33.643	0.321	0.278
-416.442	-46.354	-0.098	0.048
-415.428	-200.000	0.002	-0.251
-414.413	15.551	-0.128	0.100
-413.398	-86.029	-0.293	-0.090
-412.384	78.526	-0.097	-0.103
-411.369	44.593	0.081	-0.074
-410.355	-159.693	-0.095	0.005
-409.340	-200.000	-0.007	-0.221
-408.325	-200.000	0.048	0.274
-407.311	451.100	0.094	-0.207
-406.296	800.000	0.071	0.310
-405.282	71.815	-0.105	0.109
-404.267	23.547	0.129	-0.105
-403.252	90.970	-0.088	-0.098
-402.238	800.000	0.036	-0.107
-401.223	-200.000	0.027	-0.297
-400.209	44.001	0.189	-0.173
-399.194	-6.767	-0.468	-0.317
-398.179	-200.000	0.008	-0.124
-397.165	-50.261	-0.126	-0.059
-396.150	620.017	0.036	0.091
-395.136	-13.794	-0.240	0.154
-394.121	-63.815	-0.108	-0.044
-393.106	214.087	0.155	-0.244
-392.092	-56.569	-0.176	0.078
-391.077	-191.040	-0.121	-0.001
-390.063	-95.588	0.126	-0.034
-389.048	148.296	-0.163	0.219
-388.033	-200.000	0.007	-0.203
-387.019	-35.511	-0.316	-0.171
-386.004	-200.000	0.022	-0.158
-384.990	233.834	0.065	-0.106
-383.975	-48.182	-0.346	-0.166
-382.960	96.450	0.148	-0.169
-381.946	316.965	0.082	0.154
-380.931	21.088	-0.307	-0.247
-379.917	-127.491	-0.184	-0.027
-378.902	671.946	-0.111	0.285
-377.888	149.051	-0.154	-0.208
-376.873	42.112	0.220	0.199
-375.858	-103.930	0.191	0.044
-374.844	-140.577	-0.228	0.024
-373.829	-200.000	0.013	0.116
-372.815	-200.000	-0.321	-0.001
-371.800	-59.186	-0.108	-0.046
-370.785	0.984	0.471	0.335
-369.771	800.000	0.047	-0.138
-368.756	405.275	0.063	-0.132
-367.742	-200.000	0.028	0.306
-366.727	-136.581	0.197	-0.023
-365.712	-200.000	-0.003	-0.145
-364.698	-200.000	-0.001	0.152
-363.683	391.456	0.082	0.170
-362.669	-154.929	-0.326	0.021
-361.654	-30.657	0.357	0.201
-360.639	800.000	0.024	0.089
-359.625	32.595	-0.150	0.129
-358.610	-63.628	0.201	0.082
-357.596	278.205	-0.080	0.142
-356.581	-152.774	0.140	-0.010
-355.566	-119.363	0.148	0.026
-354.552	33.684	-0.310	0.268
-353.537	-34.013	0.156	-0.085
-352.523	-16.703	0.187	-0.118
-351.508	71.128	-0.228	-0.234
-350.493	-129.717	-0.141	0.019
-349.479	149.734	-0.218	0.294
-348.464	-200.000	0.000	-0.068
-347.450	-200.000	0.007	0.201
-346.435	165.899	0.262	-0.369
-345.420	800.000	0.027	0.093
-344.406	-38.222	0.274	-0.144
-343.391	-171.421	0.214	-0.007
-342.377	30.220	-0.029	0.025
-341.362	302.891	-0.087	0.159
-340.348	-83.631	0.305	0.097
-339.333	-108.879	-0.283	0.060
-338.318	-200.000	-0.021	0.102
-337.304	800.000	-0.060	-0.207
-336.289	800.000	0.067	-0.241
-335.275	94.894	0.086	-0.097
-334.260	108.937	0.062	-0.074
-333.245	-33.109	-0.214	0.118
-332.231	259.056	0.223	0.382
-331.216	-34.435	0.204	0.111
-330.202	144.819	0.039	-0.052
-329.187	441.718	-0.129	0.281
-328.172	202.935	-0.134	-0.206
-327.158	60.940	0.319	-0.314
-326.143	-18.799	-0.084	-0.052
-325.129	-179.528	0.107	-0.002
-324.114	800.000	0.031	-0.098
-323.099	56.925	0.185	0.178
-322.085	-90.121	0.112	0.032
-321.070	-11.748	0.080	0.052
-320.056	-200.000	-0.043	-0.332
-319.041	-200.000	-0.008	0.108
-318.026	-22.810	0.277	-0.166
-317.012	30.229	-0.116	0.098
-315.997	-200.000	-0.029	-0.332
-314.983	-200.000	-0.054	0.450
-313.968	129.572	-0.301	0.381
-312.953	133.420	0.277	-0.355
-311.939	-141.061	-0.103	-0.010
-310.924	-89.173	-0.307	-0.090
-309.910	320.902	0.082	-0.154
-308.895	-81.023	-0.096	0.032
-307.880	-200.000	0.024	-0.346
-306.866	800.000	-0.060	-0.174
-305.851	-200.000	0.002	0.285
-304.837	74.782	0.015	-0.015
-303.822	800.000	0.096	-0.287
-302.807	-177.529	-0.272	0.007
-301.793	516.409	-0.068	0.159
-300.778	28.066	-0.313	-0.262
-299.764	-146.760	0.205	-0.018
-298.749	-7.776	-0.145	-0.097
-297.735	183.959	-0.056	0.082
-296.720	-96.432	0.256	0.067
-295.705	-75.737	0.017	0.006
-294.691	-122.032	-0.108	-0.018
-293.676	-60.683	-0.074	0.031
-292.662	14.814	-0.244	-0.189
-291.647	800.000	0.088	-0.339
-290.632	-75.338	0.204	0.072
-289.618	168.014	0.116	0.163
-288.603	23.211	-0.207	-0.168
-287.589	-200.000	-0.001	-0.254
-286.574	-191.700	-0.161	-0.002
-285.559	228.071	0.014	-0.023
-284.545	-112.963	0.057	0.011
-283.530	-200.000	0.000	0.028
-282.516	-75.107	-0.097	0.035
-281.501	800.000	0.044	-0.137
-280.486	406.706	-0.089	0.185
-279.472	-105.925	0.390	-0.087
-278.457	-200.000	-0.027	0.135
-277.443	-120.730	-0.390	-0.065
-276.428	-31.829	-0.139	-0.077
-275.413	86.432	0.049	-0.053
-274.399	91.485	-0.200	-0.222
-273.384	-37.366	0.411	-0.217
-272.370	-151.580	0.139	-0.010
-271.355	301.267	0.128	-0.234
-270.340	-63.214	0.262	-0.107
-269.326	58.829	-0.419	-0.408
-268.311	-135.446	-0.151	0.018
-267.297	180.867	-0.067	0.097
-266.282	-76.895	0.273	-0.094
-265.267	-190.965	0.250	-0.003
-264.253	-6.916	0.083	-0.056
-263.238	62.174	-0.158	0.156
-262.224	-78.345	0.390	0.132
-261.209	-60.860	-0.163	0.068
-260.195	-103.931	0.176	-0.041
-259.180	-90.126	0.153	0.044
-258.165	-86.247	0.177	-0.054
-257.151	75.875	0.192	-0.201
-256.136	-95.978	0.124	0.033
-255.122	23.375	-0.151	0.123
-254.107	236.865	0.168	-0.276
-253.092	-98.996	-0.096	0.024
-252.078	-200.000	0.002	-0.233
-251.063	-94.002	0.195	-0.053
-250.049	69.764	-0.104	-0.106
-249.034	800.000	-0.043	0.155
-248.019	507.700	-0.128	0.295
-247.005	367.014	0.056	0.112
-245.990	-24.940	0.111	-0.065
-244.976	-125.101	0.285	0.043
-243.961	-200.000	-0.006	0.229
-242.946	-134.934	0.134	0.016
-241.932	148.086	-0.174	-0.232
-240.917	800.000	-0.026	0.108
-239.903	93.221	-0.179	0.200
-238.888	-45.816	0.218	-0.106
-237.873	-34.185	-0.118	-0.064
-236.859	-97.998	0.138	-0.035
-235.844	800.000	-0.071	0.253
-234.830	-78.586	0.298	0.101
-233.815	44.344	0.116	-0.105
-232.800	19.072	0.070	-0.055
-231.786	-36.500	-0.400	-0.213
-230.771	-41.200	-0.327	0.167
-229.757	-200.000	0.029	0.343
-228.742	79.746	0.275	0.292
-227.727	-200.000	0.066	-0.313
-226.713	76.698	-0.179	-0.188
-225.698	-49.598	0.152	-0.071
-224.684	-148.509	0.236	0.019
-223.669	-95.304	0.107	0.028
-222.655	-93.298	-0.747	0.205
-221.640	297.447	0.233	0.422
-220.625	-151.358	0.205	-0.015
-219.611	87.195	0.109	0.119
-218.596	-75.394	-0.233	-0.082
-217.582	224.514	-0.142	-0.226
-216.567	-14.463	0.282	0.180
-215.552	472.761	0.050	0.111
-214.538	609.576	0.143	0.352
-213.523	-200.000	0.011	-0.087
-212.509	538.260	-0.172	-0.403
-211.494	-31.671	0.482	0.267
-210.479	-37.731	0.274	0.144
-209.465	790.986	-0.046	0.126
-208.450	-29.079	0.143	-0.081
-207.436	10.692	0.142	-0.107
-206.421	90.074	-0.032	-0.036
-205.406	70.573	0.280	0.286
-204.392	-103.362	0.352	-0.082
-203.377	135.568	-0.082	0.106
-202.363	372.410	-0.120	0.240
-201.348	-200.000	0.076	0.487
-200.333	-103.200	-0.285	-0.066
-199.319	-200.000	-0.046	-0.255
-198.304	17.545	0.226	0.178
-197.290	-200.000	-0.002	0.079
-196.275	292.044	-0.091	0.164
-195.260	-173.378	0.400	-0.012
-194.246	800.000	0.167	0.480
-193.231	-136.155	0.413	0.048
-192.217	800.000	-0.054	0.191
-191.202	-200.000	0.049	0.408
-190.187	104.207	0.360	0.418
-189.173	-146.784	0.187	0.016
-188.158	-200.000	-0.017	0.113
-187.144	47.833	0.006	0.005
-186.129	-96.932	0.390	0.101
-185.114	-15.499	0.313	-0.197
-184.100	-58.101	0.212	0.091
-183.085	615.971	0.122	0.301
-182.071	-200.000	0.023	0.262
-181.056	93.727	0.142	0.159
-180.042	17.157	-0.073	0.057
-179.027	-174.319	-0.295	-0.008
-178.012	-43.846	0.093	0.046
-176.998	353.915	-0.098	-0.192
-175.983	-95.644	0.088	-0.023
-174.969	800.000	-0.063	0.217
-173.954	313.598	-0.123	0.229
-172.939	-200.000	0.046	0.261
-171.925	575.945	0.161	-0.388
-170.910	197.418	0.055	-0.082
-169.896	92.098	0.030	0.033
-168.881	-67.071	-0.183	0.071
-167.866	49.109	0.186	-0.173
-166.852	800.000	-0.023	0.085
-165.837	-127.249	0.256	-0.037
-164.823	-200.000	-0.045	-0.269
-163.808	-105.715	-0.146	0.032
-162.793	-192.919	-0.428	-0.004
-161.779	800.000	0.070	0.209
-160.764	9.861	0.120	-0.090
-159.750	446.350	0.170	0.368
-158.735	-154.251	0.111	-0.007
-157.720	-87.709	-0.262	0.078
-156.706	609.579	0.046	0.112
-155.691	-98.763	0.235	-0.059
-154.677	-9.699	0.159	0.105
-153.662	-73.651	0.262	0.094
-152.647	-32.893	0.125	0.069
-151.633	-200.000	-0.024	0.182
-150.618	-64.505	0.042	-0.017
-149.604	263.264	-0.092	-0.157
-148.589	548.873	-0.050	-0.118
-147.574	-88.165	-0.162	-0.048
-146.560	-31.417	-0.133	-0.074
-145.545	800.000	0.018	-0.054
-144.531	255.464	0.310	0.524
-143.516	-108.709	-0.197	-0.042
-142.502	-200.000	0.014	0.324
-141.487	-114.531	0.077	-0.014
-140.472	24.503	0.219	0.179
-139.458	-145.024	-0.216	-0.019
-138.443	-200.000	0.009	-0.136
-137.429	484.808	0.055	-0.124
-136.414	-25.846	-0.130	-0.075
-135.399	-200.000	0.037	-0.182
-134.385	-80.247	0.109	0.036
-133.370	-196.523	0.214	0.001
-132.356	-134.472	-0.151	-0.018
-131.341	-200.000	0.009	0.135
-130.326	-200.000	-0.033	0.295
-129.312	-136.569	-0.364	-0.042
-128.297	-200.000	0.016	0.478
-127.283	178.838	-0.131	-0.189
-126.268	-131.797	-0.311	0.040
-125.253	-46.206	0.044	0.021
-124.239	9.326	-0.530	0.395
-123.224	-0.192	-0.170	-0.119
-122.210	-200.000	-0.026	0.116
-121.195	78.720	-0.157	0.165
-120.180	119.114	-0.110	0.134
-119.166	-200.000	0.003	0.061
-118.151	164.067	0.102	-0.141
-117.137	-200.000	0.031	0.224
-116.122	37.595	0.235	-0.205
-115.107	-36.303	-0.037	0.020
-114.093	-200.000	-0.003	-0.189
-113.078	800.000	0.051	0.179
-112.064	164.481	-0.165	-0.229
-111.049	-35.252	-0.097	0.052
-110.034	-164.792	-0.112	0.005
-109.020	68.088	-0.118	-0.119
-108.005	-200.000	-0.070	-0.325
-106.991	94.216	-0.047	0.052
-105.976	168.076	-0.133	0.186
-104.962	176.667	0.038	-0.054
-103.947	-81.470	-0.212	-0.069
-102.932	-200.000	-0.012	0.347
-101.918	136.028	0.112	0.144
-100.903	14.783	-0.164	0.126
-99.889	93.826	0.297	-0.332
-98.874	-56.228	-0.191	-0.084
-97.859	-200.000	0.033	0.204
-96.845	442.542	0.029	0.062
-95.830	662.953	0.011	-0.029
-94.816	-200.000	0.036	-0.305
-93.801	800.000	0.065	-0.214
-92.786	478.861	0.037	-0.083
-91.772	800.000	-0.075	-0.247
-90.757	-95.038	0.156	0.041
-89.743	-116.563	0.165	0.030
-88.728	-200.000	-0.001	-0.013
-87.713	-34.577	-0.328	0.177
-86.699	-200.000	0.023	-0.101
-85.684	-200.000	0.033	0.257
-84.670	-41.899	-0.104	0.052
-83.655	29.392	0.233	-0.194
-82.640	157.126	0.258	0.351
-81.626	-132.229	-0.104	0.013
-80.611	-90.557	0.044	-0.012
-79.597	-87.876	-0.448	-0.133
-78.582	-25.786	0.111	0.064
-77.567	-200.000	0.017	-0.229
-76.553	-182.778	0.229	-0.004
-75.538	610.933	-0.091	-0.223
-74.524	-166.721	-0.210	0.009
-73.509	110.328	-0.052	0.062
-72.494	-200.000	-0.034	-0.165
-71.480	58.781	-0.226	0.218
-70.465	-200.000	-0.008	0.090
-69.451	-133.085	0.153	0.019
-68.436	-50.822	0.053	0.025
-67.422	-143.427	-0.088	-0.008
-66.407	-200.000	0.008	0.232
-65.392	338.117	0.140	0.268
-64.378	-52.723	-0.205	0.093
-63.363	89.664	0.069	0.076
-62.349	-140.199	0.188	0.019
-61.334	-12.114	-1.044	-0.671
-60.319	263.190	0.353	0.602
-59.305	-200.000	-0.037	-0.636
-58.290	385.981	0.581	1.178
-57.276	488.595	0.812	1.821
-56.261	-200.000	96.550	576.845
-55.246	547.158	1386.128	3257.317
-54.232	157.559	2576.066	3502.344
-53.217	105.778	2272.669	2639.658
-52.203	42.463	1895.329	1692.731
-51.188	36.768	1686.152	1462.969
-50.173	33.975	1641.811	1403.850
-49.159	51.116	1688.403	1572.346
-48.144	52.995	1704.985	1601.782
-47.130	36.243	1664.674	1440.188
-46.115	33.503	1650.350	1407.425
-45.100	33.264	1645.409	1401.384
-44.086	33.289	1642.427	1398.974
-43.071	33.255	1639.993	1396.588
-42.057	33.267	1637.391	1394.408
-41.042	33.273	1635.816	1393.060
-40.027	33.246	1633.760	1391.055
-39.013	33.239	1631.307	1388.854
-37.998	33.253	1630.093	1387.869
-36.984	33.279	1628.919	1387.005
-35.969	33.408	1627.139	1386.382
-34.954	33.396	1625.375	1384.732
-33.940	33.379	1623.899	1383.295
-32.925	33.362	1622.106	1381.594
-31.911	33.314	1620.449	1379.777
-30.896	33.341	1618.813	1378.524
-29.881	33.341	1616.755	1376.719
-28.867	33.286	1615.531	1375.223
-27.852	33.305	1613.531	1373.603
-26.838	33.362	1612.280	1372.895
-25.823	33.371	1610.703	1371.563
-24.809	33.440	1609.447	1370.939
-23.794	33.425	1607.750	1369.328
-22.779	33.345	1606.635	1367.747
-21.765	33.377	1605.432	1366.898
-20.750	33.290	1603.710	1364.755
-19.736	33.431	1601.828	1364.111
-18.721	33.415	1600.470	1362.787
-17.706	33.303	1599.173	1360.823
-16.692	33.392	1597.607	1360.078
-15.677	33.368	1596.407	1358.826
-14.663	33.418	1594.647	1357.634
-13.648	33.392	1592.999	1355.992
-12.633	33.390	1591.856	1354.950
-11.619	33.379	1589.976	1353.222
-10.604	33.426	1588.831	1352.525
-9.590	33.380	1587.830	1351.293
-8.575	33.516	1585.780	1350.459
-7.560	33.404	1584.971	1348.919
-6.546	33.388	1583.871	1347.819
-5.531	33.359	1582.970	1346.793
-4.517	33.369	1581.851	1345.860
-3.502	33.394	1580.449	1344.792
-2.487	33.388	1578.718	1343.218
-1.473	33.114	1567.619	1331.795
-0.458	30.483	1548.583	1297.226
0.556	27.536	1549.678	1268.392
1.571	25.448	1573.276	1272.819
2.586	25.069	1587.578	1281.567
3.600	22.434	1533.711	1219.750
4.615	12.747	1422.409	1068.586
5.629	3.787	1355.723	962.781
6.644	2.287	1346.801	947.079
7.659	2.039	1345.780	944.740
8.673	2.021	1344.689	943.779
9.688	1.923	1342.552	941.593
10.702	1.637	1339.686	937.735
11.717	5.340	1346.742	965.499
12.731	15.591	1366.870	1043.828
13.746	24.061	1380.617	1107.147
14.761	26.157	1383.185	1122.152
15.775	26.417	1382.875	1123.416
16.790	26.519	1382.496	1123.644
17.804	26.551	1381.873	1123.235
18.819	26.742	1381.831	1124.290
19.834	26.856	1381.087	1124.290
20.848	26.904	1380.097	1123.684
21.863	26.840	1379.427	1122.641
22.877	26.867	1378.820	1122.218
23.892	26.969	1377.392	1121.582
24.907	26.944	1376.660	1120.734
25.921	26.895	1376.168	1119.934
26.936	26.852	1374.828	1118.478
27.950	26.961	1373.664	1118.101
28.965	26.915	1372.370	1116.668
29.980	26.885	1371.376	1115.573
30.994	26.974	1370.019	1114.921
32.009	26.878	1368.960	1113.370
33.023	26.875	1367.980	1112.455
34.038	26.947	1367.049	1112.044
35.053	26.869	1365.854	1110.497
36.067	26.743	1365.152	1109.057
37.082	26.874	1363.936	1108.768
38.096	26.886	1363.033	1108.009
39.111	26.929	1362.321	1107.596
40.126	26.937	1361.755	1107.085
41.140	26.827	1361.271	1105.925
42.155	26.916	1360.657	1105.870
43.169	26.990	1360.500	1106.095
44.184	26.933	1360.410	1105.579
45.199	26.915	1359.890	1104.946
46.213	26.874	1359.543	1104.319
47.228	26.903	1358.593	1103.625
48.242	26.857	1357.643	1102.473
49.257	26.972	1356.068	1101.799
50.271	26.889	1354.865	1100.216
51.286	26.879	1353.648	1099.070
52.301	26.886	1352.199	1097.838
53.315	26.898	1350.853	1096.725
54.330	26.852	1350.471	1096.040
55.344	26.858	1349.498	1095.189
56.359	26.854	1348.438	1094.206
57.374	26.873	1347.266	1093.271
58.388	26.829	1346.925	1092.632
59.403	26.932	1346.483	1092.798
60.417	26.925	1345.956	1092.235
61.432	26.862	1345.366	1091.281
62.447	26.825	1344.749	1090.459
63.461	26.931	1343.273	1089.800
64.476	26.967	1342.374	1089.196
65.490	26.952	1340.802	1087.733
66.505	26.921	1339.326	1086.249
67.520	26.902	1338.133	1085.074
68.534	27.006	1337.531	1085.114
69.549	27.013	1336.242	1084.010
70.563	26.974	1335.285	1082.908
71.578	26.837	1334.884	1081.669
72.593	26.970	1334.163	1081.783
73.607	26.898	1333.182	1080.464
74.622	26.956	1332.158	1079.884
75.636	26.916	1331.828	1079.284
76.651	26.906	1330.733	1078.237
77.666	26.876	1330.771	1077.994
78.680	26.883	1330.181	1077.462
79.695	26.935	1329.166	1076.854
80.709	26.838	1328.548	1075.683
81.724	26.908	1327.670	1075.293
82.739	26.942	1326.615	1074.542
83.753	26.901	1325.809	1073.552
84.768	26.912	1324.702	1072.626
85.782	26.879	1323.655	1071.492
86.797	26.981	1321.992	1070.650
87.812	26.934	1321.442	1069.836
88.826	26.902	1320.920	1069.125
89.841	26.871	1319.449	1067.662
90.855	27.024	1318.363	1067.587
91.870	26.868	1317.904	1066.202
92.884	26.960	1316.836	1065.787
93.899	26.902	1315.956	1064.636
94.914	26.982	1315.102	1064.322
95.928	26.922	1314.372	1063.285
96.943	26.919	1313.815	1062.721
97.957	27.026	1312.858	1062.479
98.972	27.072	1311.783	1061.788
99.987	26.953	1310.982	1060.347
101.001	26.897	1310.347	1059.415
102.016	26.887	1309.545	1058.613
103.030	26.990	1308.661	1058.408
104.045	26.974	1307.588	1057.353
105.060	26.934	1306.722	1056.327
106.074	27.016	1305.830	1055.988
107.089	26.977	1304.945	1054.952
108.103	26.963	1303.774	1053.832
109.118	27.062	1302.874	1053.584
110.133	27.031	1301.499	1052.199
111.147	27.037	1300.277	1051.153
112.162	27.027	1299.318	1050.228
113.176	27.110	1298.159	1049.678
114.191	26.998	1297.505	1048.410
115.206	27.013	1296.359	1047.473
116.220	26.997	1295.379	1046.498
117.235	26.990	1294.425	1045.595
118.249	26.951	1294.003	1044.937
119.264	27.093	1292.731	1044.632
120.279	27.141	1291.542	1043.858
121.293	27.122	1291.212	1043.388
122.308	27.110	1290.095	1042.323
123.322	27.156	1289.697	1042.175
124.337	27.142	1288.766	1041.251
125.352	27.078	1287.515	1039.782
126.366	27.065	1287.102	1039.281
127.381	27.183	1286.007	1038.979
128.395	27.219	1285.143	1038.394
129.410	27.203	1283.987	1037.279
130.424	27.105	1283.979	1036.620
131.439	27.040	1283.092	1035.445
132.454	27.172	1282.356	1035.510
133.468	27.120	1281.028	1034.046
134.483	27.096	1281.526	1034.225
135.497	27.107	1280.475	1033.346
136.512	27.055	1279.209	1031.938
137.527	27.097	1277.876	1031.008
138.541	27.024	1277.070	1029.854
139.556	27.130	1275.479	1029.080
140.570	27.075	1275.049	1028.333
141.585	27.168	1273.801	1027.759
142.600	27.097	1272.782	1026.443
143.614	27.083	1272.008	1025.649
144.629	27.071	1271.295	1024.916
145.643	27.052	1270.086	1023.742
146.658	27.036	1269.090	1022.759
147.673	27.085	1268.099	1022.148
148.687	27.010	1266.978	1020.730
149.702	26.977	1265.845	1019.544
150.716	26.985	1264.739	1018.607
151.731	27.043	1264.043	1018.284
152.746	27.011	1263.068	1017.228
153.760	27.131	1261.943	1016.903
154.775	27.212	1260.887	1016.412
155.789	27.107	1259.881	1014.925
156.804	27.013	1259.249	1013.803
157.819	27.042	1258.167	1013.005
158.833	27.062	1258.160	1013.019
159.848	27.199	1256.919	1012.695
160.862	27.121	1256.134	1011.537
161.877	27.161	1255.713	1011.333
162.892	27.071	1254.640	1009.879
163.906	27.151	1253.899	1009.638
164.921	27.192	1253.021	1009.067
165.935	27.132	1252.935	1008.574
166.950	27.201	1252.210	1008.288
167.964	27.198	1251.609	1007.700
168.979	27.221	1250.490	1006.833
169.994	27.225	1249.981	1006.356
171.008	27.277	1249.330	1006.031
172.023	27.222	1248.482	1004.957
173.037	27.223	1247.572	1004.138
174.052	27.181	1247.367	1003.654
175.067	27.159	1246.225	1002.524
176.081	27.274	1245.655	1002.615
177.096	27.156	1244.848	1001.222
178.110	27.198	1243.808	1000.529
179.125	27.313	1242.604	1000.105
180.140	27.292	1241.613	999.102
181.154	27.300	1240.354	998.046
182.169	27.148	1239.683	996.587
183.183	27.236	1239.222	996.609
184.198	27.317	1237.497	995.575
185.213	27.286	1236.964	994.892
186.227	27.263	1236.069	993.955
187.242	27.331	1234.759	993.186
188.256	27.349	1234.338	992.855
189.271	27.338	1233.457	991.999
190.286	27.334	1232.515	991.133
191.300	27.304	1232.070	990.527
192.315	27.248	1231.936	990.024
193.329	27.231	1231.771	989.710
194.344	27.480	1230.765	990.172
195.359	27.259	1230.437	988.616
196.373	27.301	1229.979	988.391
197.388	27.190	1229.847	987.592
198.402	27.261	1228.840	987.080
199.417	27.278	1228.694	986.972
200.432	27.405	1228.194	987.169
201.446	27.355	1227.675	986.397
202.461	27.265	1226.852	985.155
203.475	27.254	1226.189	984.477
204.490	27.283	1225.209	983.763
205.504	27.326	1224.041	982.972
206.519	27.375	1223.283	982.539
207.534	27.373	1222.404	981.733
208.548	27.281	1221.668	980.560
209.563	27.320	1220.855	980.033
210.577	27.370	1219.734	979.315
211.592	27.268	1219.435	978.441
212.607	27.395	1218.359	978.173
213.621	27.508	1217.371	977.896
214.636	27.408	1216.824	976.833
215.650	27.423	1216.103	976.249
216.665	27.319	1215.352	975.004
217.680	27.450	1213.705	974.295
218.694	27.443	1213.365	973.902
219.709	27.520	1212.598	973.609
220.723	27.421	1211.979	972.501
221.738	27.436	1211.311	971.957
222.753	27.425	1210.616	971.254
223.767	27.363	1210.050	970.385
224.782	27.430	1210.119	970.711
225.796	27.565	1208.958	970.414
226.811	27.471	1208.429	969.399
227.826	27.468	1207.839	968.828
228.840	27.620	1207.060	968.923
229.855	27.465	1206.750	967.766
230.869	27.562	1205.747	967.391
231.884	27.421	1205.224	966.137
232.899	27.484	1204.546	965.845
233.913	27.525	1203.591	965.211
234.928	27.664	1203.300	965.624
235.942	27.609	1202.863	964.899
236.957	27.497	1201.929	963.474
237.972	27.473	1201.433	962.861
238.986	27.513	1200.975	962.623
240.001	27.647	1200.488	962.855
241.015	27.590	1199.294	961.508
242.030	27.704	1198.788	961.619
243.045	27.728	1197.740	960.821
244.059	27.574	1197.119	959.429
245.074	27.784	1196.248	959.748
246.088	27.752	1195.614	958.985
247.103	27.704	1194.667	957.887
248.117	27.726	1194.168	957.521
249.132	27.713	1193.477	956.815
250.147	27.710	1193.024	956.348
251.161	27.871	1191.637	955.997
252.176	27.685	1191.634	954.939
253.190	27.779	1190.539	954.467
254.205	27.830	1190.212	954.385
255.220	27.825	1189.556	953.747
256.234	27.683	1189.197	952.634
257.249	27.833	1188.444	952.729
258.263	27.651	1188.010	951.350
259.278	27.892	1187.137	951.820
260.293	27.924	1186.672	951.532
261.307	27.825	1186.209	950.560
262.322	27.903	1185.155	950.035
263.336	27.747	1185.052	949.058
264.351	27.727	1183.961	947.999
265.366	27.758	1183.743	947.901
266.380	27.873	1182.509	947.426
267.395	27.849	1182.911	947.541
268.409	27.767	1181.652	946.021
269.424	27.735	1181.255	945.456
270.439	27.885	1180.575	945.600
271.453	27.935	1179.866	945.211
272.468	27.865	1178.975	944.052
273.482	27.850	1178.407	943.433
274.497	27.915	1178.329	943.622
275.512	27.959	1177.484	943.090
276.526	28.008	1176.120	942.170
277.541	27.960	1176.057	941.789
278.555	28.040	1175.531	941.696
279.570	28.015	1174.897	940.973
280.585	27.945	1173.913	939.744
281.599	27.825	1173.063	938.364
282.614	27.926	1171.800	937.789
283.628	28.093	1170.875	937.823
284.643	28.034	1170.103	936.817
285.657	27.906	1169.654	935.718
286.672	27.999	1168.570	935.247
287.687	27.966	1168.101	934.618
288.701	28.094	1167.367	934.604
289.716	28.150	1166.618	934.207
290.730	28.074	1166.151	933.362
291.745	28.063	1165.570	932.760
292.760	28.110	1164.737	932.250
293.774	28.109	1164.475	931.952
294.789	28.249	1163.564	931.854
295.803	28.165	1163.381	931.196
296.818	27.938	1163.371	929.950
297.833	28.207	1162.213	930.310
298.847	28.127	1161.447	929.209
299.862	28.146	1160.254	928.267
300.876	28.029	1159.933	927.333
301.891	28.137	1159.489	927.444
302.906	28.194	1158.690	927.012
303.920	28.201	1158.192	926.566
304.935	28.198	1157.716	926.091
305.949	28.148	1156.863	925.074
306.964	28.191	1156.396	924.835
307.979	28.232	1156.068	924.698
308.993	28.267	1154.753	923.743
310.008	28.373	1154.093	923.663
311.022	28.255	1153.409	922.441
312.037	28.249	1152.620	921.700
313.052	28.149	1152.242	920.811
314.066	28.190	1151.125	920.042
315.081	28.239	1150.346	919.586
316.095	28.413	1149.287	919.530
317.110	28.406	1148.882	919.090
318.125	28.416	1148.472	918.734
319.139	28.286	1147.634	917.327
320.154	28.360	1147.259	917.319
321.168	28.246	1146.891	916.374
322.183	28.446	1146.122	916.678
323.197	28.444	1145.603	916.171
324.212	28.392	1144.954	915.312
325.227	28.463	1144.540	915.252
326.241	28.567	1143.986	915.249
327.256	28.481	1143.233	914.138
328.270	28.334	1142.356	912.623
329.285	28.333	1141.884	912.157
330.300	28.495	1140.781	912.003
331.314	28.377	1139.952	910.671
332.329	28.505	1139.249	910.666
333.343	28.475	1138.551	909.879
334.358	28.534	1137.893	909.564
335.373	28.566	1137.339	909.200
336.387	28.556	1136.631	908.504
337.402	28.666	1135.761	908.271
338.416	28.537	1135.371	907.242
339.431	28.596	1134.701	906.919
340.446	28.609	1134.193	906.496
341.460	28.609	1133.385	905.773
342.475	28.640	1132.949	905.496
343.489	28.668	1131.714	904.567
344.504	28.669	1130.409	903.446
345.519	28.707	1129.878	903.129
346.533	28.760	1128.995	902.605
347.548	28.748	1128.172	901.807
348.562	28.645	1127.984	901.075
349.577	28.626	1127.307	900.358
350.592	28.706	1126.171	899.765
351.606	28.571	1126.101	898.966
352.621	28.592	1125.439	898.463
353.635	28.641	1124.875	898.173
354.650	28.699	1124.258	897.884
355.665	28.733	1123.378	897.266
356.679	28.845	1122.828	897.294
357.694	28.727	1122.536	896.405
358.708	28.801	1121.676	896.000
359.723	28.728	1120.852	894.907
360.738	28.741	1120.218	894.385
361.752	28.877	1119.840	894.668
362.767	28.717	1119.520	893.555
363.781	28.850	1119.019	893.724
364.796	28.929	1118.041	893.243
365.810	28.848	1117.252	892.141
366.825	28.931	1116.623	891.966
367.840	28.931	1116.392	891.700
368.854	28.913	1115.872	891.118
369.869	29.008	1115.027	890.824
370.883	29.026	1114.331	890.278
371.898	29.019	1113.604	889.586
372.913	28.890	1113.530	888.824
373.927	28.925	1113.069	888.544
374.942	28.977	1112.198	888.022
375.956	28.990	1111.793	887.683
376.971	28.962	1111.262	887.047
377.986	28.928	1110.842	886.469
379.000	29.029	1110.552	886.645
380.015	29.142	1109.761	886.477
381.029	29.014	1109.165	885.309
382.044	29.039	1108.581	884.883
383.059	29.117	1107.573	884.376
384.073	29.128	1107.082	883.960
385.088	29.185	1105.853	883.170
386.102	29.086	1105.320	882.194
387.117	29.153	1103.973	881.361
388.132	29.084	1103.538	880.608
389.146	29.229	1103.062	880.840
390.161	29.092	1102.425	879.599
391.175	29.214	1101.594	879.440
392.190	29.182	1100.964	878.710
393.205	29.150	1100.549	878.148
394.219	29.182	1099.881	877.690
395.234	29.212	1098.981	877.034
396.248	29.148	1098.194	876.025
397.263	29.152	1097.408	875.341
398.278	29.299	1096.967	875.609
399.292	29.338	1096.348	875.221
400.307	29.404	1095.466	874.755
401.321	29.255	1095.319	873.852
402.336	29.264	1094.341	873.039
403.350	29.413	1093.413	872.926
404.365	29.332	1092.934	872.082
405.380	29.300	1092.875	871.805
406.394	29.386	1091.925	871.381
407.409	29.419	1090.669	870.454
408.423	29.520	1090.201	870.482
409.438	29.361	1089.713	869.263
410.453	29.460	1088.968	869.058
411.467	29.400	1088.494	868.320
412.482	29.390	1087.851	867.684
413.496	29.495	1086.936	867.371
414.511	29.547	1086.179	866.933
415.526	29.552	1085.729	866.521
416.540	29.581	1085.609	866.485
417.555	29.497	1084.910	865.458
418.569	29.499	1084.580	865.127
419.584	29.490	1084.191	864.697
420.599	29.597	1083.767	864.784
421.613	103.830	1320.030	1454.415
422.628	96.651	1354.412	1454.518
