DTS Sentinel unit serial number:	SN413079Multiplexer serial number:	ORYXHardware model number:	OX4-SRSoftware version number:	ORYX F/W v4.00 Oryx Data Collector v3.7.2.0data status	okinstallation	princeton_trtdifferential loss correction	single-endedforward channel	channel 2reverse channel	N/Adate	2019/09/12time	01:09:11forward acquisition time	60.00reverse acquisition time	0.00gamma	496.2192k internal	0.2325k external	0.2325temperature offset calibration	1.0091default loss term (dB/km)	0.3790temperature slope calibration	1.0000multiplexer offset coefficient	1.0000multiplexer slope coefficient	1.0000fibre end	0.00T internal ref (°C)	33.06T ext. ref 1 (°C)	2.07T ext. ref 2 (°C)	27.60length (m)	temperature (°C)	Stokes	anti-Stokes-747.200	-28.798	0.184	-0.107
-746.185	732.762	-0.112	0.302
-745.171	179.128	0.250	0.368
-744.156	196.289	0.170	0.261
-743.142	-200.000	0.008	0.059
-742.127	800.000	-0.043	0.161
-741.112	393.377	0.238	-0.500
-740.098	-200.000	0.018	0.268
-739.083	-200.000	0.012	0.244
-738.069	382.854	0.062	0.129
-737.054	800.000	0.125	-0.352
-736.039	-123.195	-0.181	-0.029
-735.025	-62.738	-0.129	-0.054
-734.010	82.659	-0.161	0.177
-732.996	-66.446	0.157	-0.063
-731.981	556.551	-0.057	-0.138
-730.966	-101.887	-0.332	-0.081
-729.952	-23.102	-0.094	-0.057
-728.937	59.498	-0.345	-0.343
-727.923	800.000	-0.054	0.186
-726.908	192.586	-0.131	0.200
-725.894	-103.969	-0.399	-0.094
-724.879	-200.000	0.039	-0.299
-723.864	-200.000	0.007	-0.136
-722.850	305.023	-0.134	-0.250
-721.835	-200.000	0.056	-0.274
-720.821	117.321	-0.234	0.289
-719.806	-199.585	0.157	-0.001
-718.791	108.224	0.285	-0.342
-717.777	226.670	-0.139	-0.228
-716.762	-106.197	0.103	-0.023
-715.748	64.084	0.370	-0.375
-714.733	81.108	0.086	0.094
-713.718	-149.090	0.192	0.016
-712.704	800.000	-0.026	-0.072
-711.689	-200.000	-0.004	0.245
-710.675	-200.000	-0.006	-0.060
-709.660	15.879	-0.117	0.093
-708.645	-146.695	-0.287	-0.025
-707.631	-94.345	0.245	0.067
-706.616	-45.449	0.088	-0.044
-705.602	-18.523	-0.180	0.113
-704.587	-161.573	-0.311	0.016
-703.572	-99.833	-0.305	0.077
-702.558	-200.000	-0.002	0.049
-701.543	-4.836	0.206	0.143
-700.529	-200.000	-0.001	0.102
-699.514	-108.626	-0.443	-0.096
-698.499	366.437	-0.029	-0.058
-697.485	-77.622	0.348	-0.121
-696.470	-200.000	-0.114	-0.597
-695.456	-64.930	0.131	-0.053
-694.441	-105.954	0.325	0.074
-693.426	-33.362	-0.073	0.041
-692.412	-200.000	-0.016	-0.207
-691.397	-13.389	0.061	0.040
-690.383	800.000	-0.062	0.223
-689.368	202.185	-0.107	-0.167
-688.354	-35.363	0.099	-0.054
-687.339	-200.000	-0.074	0.376
-686.324	88.316	0.208	-0.232
-685.310	-14.405	-0.220	0.143
-684.295	-200.000	-0.018	0.157
-683.281	472.920	-0.142	0.323
-682.266	274.515	-0.117	-0.209
-681.251	-200.000	0.042	0.449
-680.237	-51.468	-0.297	-0.140
-679.222	-51.560	-0.487	0.229
-678.208	256.826	-0.097	-0.168
-677.193	-20.670	0.215	0.133
-676.178	-51.170	-0.126	-0.059
-675.164	53.876	0.320	0.309
-674.149	800.000	-0.068	-0.212
-673.135	-200.000	-0.013	-0.085
-672.120	-188.507	-0.430	0.005
-671.105	-32.643	-0.229	0.128
-670.091	800.000	-0.108	0.410
-669.076	76.106	-0.220	0.234
-668.062	574.140	-0.043	-0.105
-667.047	-72.242	0.208	-0.078
-666.032	-54.353	0.045	-0.021
-665.018	621.169	-0.039	0.099
-664.003	-17.520	-0.333	0.210
-662.989	-32.353	0.166	0.093
-661.974	274.915	0.026	-0.047
-660.959	800.000	0.040	0.173
-659.945	-56.513	-0.156	-0.069
-658.930	142.257	-0.066	-0.087
-657.916	-99.440	-0.293	-0.074
-656.901	-13.567	-0.100	0.065
-655.886	-59.813	-0.234	-0.101
-654.872	-51.787	-0.216	0.101
-653.857	10.321	0.166	-0.127
-652.843	800.000	0.036	-0.151
-651.828	-200.000	-0.022	-0.200
-650.814	-99.112	0.098	-0.025
-649.799	-117.797	0.107	-0.019
-648.784	-59.306	-0.043	0.018
-647.770	239.718	0.197	-0.330
-646.755	-57.486	-0.271	-0.119
-645.741	111.206	-0.119	-0.144
-644.726	-85.850	-0.412	-0.128
-643.711	268.852	0.157	0.277
-642.697	507.836	-0.062	0.146
-641.682	-200.000	-0.002	-0.064
-640.668	210.428	0.135	-0.213
-639.653	-14.931	0.182	-0.117
-638.638	-171.089	-0.333	0.011
-637.624	328.036	0.054	0.104
-636.609	170.015	-0.167	0.240
-635.595	27.277	0.216	-0.183
-634.580	800.000	-0.095	0.302
-633.565	-3.080	-0.179	-0.125
-632.551	470.327	0.073	-0.164
-631.536	336.354	-0.112	-0.218
-630.522	37.131	-0.114	-0.102
-629.507	280.594	-0.388	-0.697
-628.492	-87.990	-0.376	0.113
-627.478	800.000	-0.034	0.104
-626.463	-172.182	0.310	-0.010
-625.449	-155.223	-0.173	0.011
-624.434	-45.383	-0.181	0.090
-623.419	-200.000	0.014	-0.111
-622.405	-54.092	-0.281	-0.128
-621.390	91.928	0.004	0.004
-620.376	-144.092	0.065	0.006
-619.361	-77.528	0.177	-0.062
-618.346	800.000	0.073	0.260
-617.332	800.000	0.132	-0.446
-616.317	-182.092	-0.153	0.003
-615.303	-18.557	-0.061	-0.038
-614.288	-59.148	-0.198	-0.086
-613.273	-200.000	-0.023	-0.263
-612.259	-101.386	0.050	-0.012
-611.244	-200.000	-0.022	0.185
-610.230	800.000	-0.058	0.181
-609.215	112.792	0.037	0.045
-608.201	800.000	0.115	0.354
-607.186	-70.126	-0.223	-0.085
-606.171	-53.059	-0.138	0.063
-605.157	-14.510	-0.123	-0.079
-604.142	-200.000	-0.052	-0.348
-603.128	-48.399	0.425	-0.206
-602.113	46.854	-0.284	-0.265
-601.098	-102.002	-0.145	-0.035
-600.084	-45.865	-0.232	0.115
-599.069	-138.514	-0.051	-0.006
-598.055	-200.000	-0.020	0.117
-597.040	114.815	0.052	0.064
-596.025	-44.172	0.339	-0.171
-595.011	-120.733	0.241	-0.041
-593.996	155.002	-0.147	-0.203
-592.982	62.818	-0.156	0.156
-591.967	255.229	-0.078	-0.135
-590.952	-52.432	0.337	0.156
-589.938	20.350	-0.237	0.192
-588.923	362.854	0.113	-0.227
-587.909	-200.000	-0.009	0.233
-586.894	65.638	0.126	0.128
-585.879	-146.839	-0.317	-0.027
-584.865	-200.000	0.006	-0.071
-583.850	-200.000	-0.001	-0.153
-582.836	206.883	0.135	0.210
-581.821	-200.000	0.002	0.196
-580.806	-124.318	-0.233	0.036
-579.792	212.611	0.087	0.138
-578.777	143.000	0.082	0.109
-577.763	-146.051	-0.103	0.009
-576.748	135.535	-0.180	-0.234
-575.733	-200.000	-0.035	0.243
-574.719	60.670	-0.197	-0.196
-573.704	62.413	0.253	0.254
-572.690	-200.000	0.035	-0.240
-571.675	-89.348	0.216	-0.064
-570.661	-116.514	0.214	-0.040
-569.646	-72.945	-0.271	0.100
-568.631	149.226	-0.074	-0.100
-567.617	15.407	0.264	-0.207
-566.602	-159.696	-0.055	-0.003
-565.588	43.815	0.193	0.177
-564.573	-200.000	-0.072	0.348
-563.558	100.579	0.202	0.235
-562.544	61.238	-0.138	0.138
-561.529	439.635	0.030	0.066
-560.515	20.585	-0.196	-0.159
-559.500	-200.000	-0.032	-0.152
-558.485	-143.274	-0.308	0.030
-557.471	800.000	0.063	-0.238
-556.456	213.126	-0.173	-0.273
-555.442	-34.516	0.171	0.094
-554.427	-153.320	-0.274	-0.019
-553.412	800.000	0.056	0.239
-552.398	800.000	-0.023	-0.086
-551.383	-200.000	-0.005	0.130
-550.369	53.101	-0.215	-0.206
-549.354	-162.165	-0.454	-0.023
-548.339	-200.000	0.010	0.069
-547.325	-200.000	-0.071	-0.528
-546.310	-133.420	0.251	-0.032
-545.296	-116.433	-0.087	0.016
-544.281	236.160	-0.169	0.280
-543.266	-73.489	-0.168	-0.061
-542.252	10.511	0.070	0.053
-541.237	800.000	-0.049	-0.160
-540.223	55.094	-0.200	0.194
-539.208	364.705	-0.165	0.333
-538.193	101.448	-0.124	0.144
-537.179	112.968	0.163	-0.197
-536.164	-52.861	0.248	-0.115
-535.150	-140.765	0.040	-0.004
-534.135	74.749	-0.148	-0.156
-533.121	800.000	0.099	-0.290
-532.106	800.000	0.048	-0.170
-531.091	-81.016	-0.298	-0.099
-530.077	-200.000	0.004	-0.051
-529.062	205.459	0.141	-0.220
-528.048	81.005	-0.085	-0.092
-527.033	-200.000	-0.022	0.118
-526.018	-18.056	-0.114	0.072
-525.004	-200.000	-0.045	-0.519
-523.989	-149.856	0.205	0.016
-522.975	96.385	0.169	-0.193
-521.960	-177.697	-0.096	-0.002
-520.945	-172.008	0.016	0.001
-519.931	116.539	0.203	-0.249
-518.916	-200.000	-0.019	-0.212
-517.902	-92.818	0.313	0.088
-516.887	-32.882	-0.127	-0.071
-515.872	-133.142	0.145	-0.018
-514.858	800.000	0.033	0.101
-513.843	-200.000	0.035	0.198
-512.829	-191.451	-0.361	0.004
-511.814	-122.592	0.224	0.036
-510.799	-116.109	-0.320	0.059
-509.785	92.745	0.123	0.138
-508.770	72.024	0.141	-0.147
-507.756	-37.163	-0.230	0.123
-506.741	800.000	-0.060	0.257
-505.726	-57.861	-0.268	-0.117
-504.712	166.009	-0.133	-0.188
-503.697	-200.000	-0.030	0.216
-502.683	7.242	0.296	0.220
-501.668	800.000	-0.055	-0.165
-500.653	315.853	0.032	-0.061
-499.639	-200.000	0.035	-0.298
-498.624	-82.545	0.046	-0.015
-497.610	800.000	-0.032	0.103
-496.595	43.838	-0.159	-0.146
-495.581	173.374	-0.152	-0.219
-494.566	255.274	-0.104	-0.178
-493.551	-99.451	0.164	-0.041
-492.537	-200.000	-0.008	0.086
-491.522	240.549	-0.068	-0.114
-490.508	166.406	0.084	0.119
-489.493	-200.000	-0.044	-0.210
-488.478	-165.520	-0.169	-0.007
-487.464	-138.024	0.219	0.024
-486.449	44.465	-0.063	-0.058
-485.435	50.060	-0.079	0.074
-484.420	130.520	-0.339	0.433
-483.405	-8.211	-0.350	-0.235
-482.391	286.594	-0.139	0.250
-481.376	135.042	0.167	-0.217
-480.362	-21.399	-0.330	0.201
-479.347	-200.000	-0.001	0.285
-478.332	-200.000	-0.016	-0.093
-477.318	42.885	-0.114	-0.104
-476.303	-31.445	0.117	0.066
-475.289	-153.988	-0.293	0.020
-474.274	800.000	0.030	-0.091
-473.259	53.100	0.179	-0.171
-472.245	-200.000	0.017	0.168
-471.230	-200.000	0.011	0.344
-470.216	800.000	0.051	0.144
-469.201	15.751	0.048	0.037
-468.186	-200.000	-0.002	-0.045
-467.172	-51.666	0.200	0.093
-466.157	-200.000	-0.049	-0.250
-465.143	331.938	0.117	-0.225
-464.128	-70.773	0.220	-0.083
-463.113	-200.000	-0.042	-0.221
-462.099	-81.257	-0.053	0.017
-461.084	800.000	-0.080	0.276
-460.070	-200.000	-0.005	-0.034
-459.055	800.000	0.087	0.326
-458.040	-200.000	0.011	0.120
-457.026	-200.000	0.106	0.535
-456.011	128.186	0.297	0.377
-454.997	-200.000	0.009	-0.091
-453.982	168.439	-0.212	0.301
-452.968	-98.893	0.296	0.075
-451.953	-66.363	0.233	0.092
-450.938	-165.967	0.204	-0.009
-449.924	73.174	0.206	0.215
-448.909	23.111	0.123	-0.101
-447.895	118.653	-0.215	-0.265
-446.880	-160.283	-0.222	-0.012
-445.865	569.935	-0.220	-0.533
-444.851	42.767	-0.224	0.204
-443.836	-99.842	-0.112	-0.028
-442.822	24.424	0.259	-0.214
-441.807	113.764	0.115	0.139
-440.792	-200.000	-0.027	-0.133
-439.778	153.535	0.173	-0.236
-438.763	32.409	0.104	-0.090
-437.749	800.000	-0.036	-0.150
-436.734	-81.573	0.071	0.023
-435.719	-200.000	0.044	0.230
-434.705	50.711	-0.166	-0.157
-433.690	-55.205	-0.204	0.091
-432.676	574.335	0.082	0.198
-431.661	263.609	-0.183	-0.317
-430.646	441.994	-0.023	0.051
-429.632	-200.000	-0.017	0.099
-428.617	265.268	-0.201	0.349
-427.603	28.562	0.147	0.124
-426.588	-32.977	-0.312	0.172
-425.573	-200.000	-0.056	-0.272
-424.559	-168.088	0.247	-0.010
-423.544	-83.251	-0.064	0.021
-422.530	-58.522	-0.261	-0.113
-421.515	-183.042	-0.306	0.005
-420.500	24.608	-0.373	0.308
-419.486	203.696	0.149	0.229
-418.471	-2.990	0.172	-0.119
-417.457	204.777	0.030	-0.047
-416.442	30.468	0.120	0.102
-415.428	-105.037	0.436	-0.099
-414.413	-103.485	-0.265	0.062
-413.398	26.433	0.109	0.091
-412.384	-85.765	0.425	-0.131
-411.369	2.471	0.053	0.038
-410.355	18.916	-0.257	0.205
-409.340	-200.000	0.011	0.067
-408.325	418.836	0.081	0.173
-407.311	134.262	0.074	-0.096
-406.296	154.727	-0.140	-0.191
-405.282	-65.720	-0.304	-0.121
-404.267	-109.335	-0.129	-0.027
-403.252	-200.000	0.051	-0.317
-402.238	800.000	-0.085	-0.264
-401.223	-200.000	-0.018	-0.135
-400.209	-106.283	0.227	0.051
-399.194	155.265	-0.196	0.268
-398.179	-200.000	0.036	-0.379
-397.165	102.725	0.191	0.223
-396.150	-184.504	-0.214	0.003
-395.136	-87.631	0.128	0.038
-394.121	-140.417	-0.223	-0.023
-393.106	-135.355	-0.123	0.015
-392.092	-91.922	0.372	0.105
-391.077	-14.218	0.051	-0.033
-390.063	-31.491	-0.153	-0.086
-389.048	16.446	0.061	-0.048
-388.033	-200.000	-0.017	-0.125
-387.019	-200.000	-0.016	0.089
-386.004	-200.000	0.027	0.515
-384.990	-200.000	0.030	0.328
-383.975	-52.917	0.206	0.094
-382.960	456.953	-0.076	-0.168
-381.946	-83.383	0.063	0.020
-380.931	-140.611	0.232	-0.024
-379.917	13.697	0.450	0.348
-378.902	-101.719	-0.303	0.073
-377.888	-46.743	0.099	0.048
-376.873	73.045	-0.021	0.022
-375.858	-154.227	0.175	0.012
-374.844	89.056	0.262	-0.290
-373.829	287.093	0.011	-0.019
-372.815	-66.133	0.098	-0.039
-371.800	130.766	0.259	0.331
-370.785	5.482	-0.200	0.147
-369.771	88.136	-0.146	0.161
-368.756	105.479	0.148	-0.174
-367.742	574.750	0.064	0.156
-366.727	-180.211	-0.110	0.002
-365.712	-200.000	-0.003	-0.135
-364.698	444.063	0.043	0.094
-363.683	-65.959	-0.172	0.068
-362.669	-147.747	0.391	0.033
-361.654	-200.000	0.023	0.118
-360.639	-159.544	0.267	-0.015
-359.625	-200.000	0.002	0.150
-358.610	-200.000	0.021	-0.200
-357.596	-48.051	-0.204	0.098
-356.581	-171.110	0.201	-0.007
-355.566	-72.460	-0.096	0.035
-354.552	67.814	-0.054	0.054
-353.537	147.388	-0.223	-0.298
-352.523	-200.000	-0.034	0.220
-351.508	-200.000	-0.017	-0.166
-350.493	-149.409	-0.249	-0.020
-349.479	51.433	-0.129	-0.122
-348.464	-60.760	-0.155	-0.065
-347.450	-43.521	-0.388	-0.195
-346.435	7.721	0.198	0.148
-345.420	-126.782	0.112	0.016
-344.406	706.745	-0.065	-0.171
-343.391	278.528	-0.152	0.269
-342.377	-200.000	-0.019	-0.099
-341.362	711.178	0.033	-0.086
-340.348	430.143	0.065	-0.140
-339.333	-200.000	0.074	-0.370
-338.318	-45.640	-0.109	-0.054
-337.304	227.991	-0.085	-0.138
-336.289	606.974	0.060	-0.149
-335.275	800.000	-0.019	0.069
-334.260	772.934	0.077	-0.210
-333.245	228.626	-0.123	-0.199
-332.231	-155.289	-0.167	-0.011
-331.216	800.000	0.152	0.427
-330.202	-98.745	-0.202	0.051
-329.187	97.115	0.168	-0.191
-328.172	335.848	0.109	-0.210
-327.158	352.717	-0.135	-0.265
-326.143	715.170	0.046	0.120
-325.129	-153.402	0.301	-0.021
-324.114	625.568	0.047	0.118
-323.099	800.000	0.048	0.134
-322.085	-200.000	-0.039	0.229
-321.070	-200.000	0.065	0.327
-320.056	629.778	0.072	0.181
-319.041	243.321	0.174	0.290
-318.026	-18.932	0.067	0.041
-317.012	-63.057	-0.088	-0.036
-315.997	317.054	0.141	-0.265
-314.983	-60.354	-0.165	0.070
-313.968	62.764	-0.177	0.176
-312.953	45.081	0.138	0.126
-311.939	-29.007	0.138	-0.078
-310.924	18.635	0.146	-0.116
-309.910	-155.537	0.187	0.012
-308.895	-84.419	-0.124	0.039
-307.880	-85.013	0.021	0.007
-306.866	16.920	-0.180	0.141
-305.851	-64.412	0.157	0.063
-304.837	275.489	0.066	-0.116
-303.822	103.872	0.197	-0.230
-302.807	26.074	-0.169	0.140
-301.793	523.257	0.068	0.158
-300.778	249.225	0.139	0.233
-299.764	610.728	0.030	-0.074
-298.749	30.786	-0.232	0.197
-297.735	-30.518	-0.136	-0.076
-296.720	-161.636	-0.197	0.010
-295.705	-162.234	0.322	-0.016
-294.691	162.168	0.090	0.125
-293.676	1.144	-0.026	0.019
-292.662	84.112	-0.116	-0.126
-291.647	166.202	-0.226	0.317
-290.632	129.780	0.063	0.080
-289.618	-180.445	0.444	0.009
-288.603	120.822	0.130	-0.160
-287.589	108.764	0.213	0.252
-286.574	20.601	0.082	0.066
-285.559	17.966	-0.165	-0.130
-284.545	587.981	-0.093	0.228
-283.530	-200.000	0.000	0.061
-282.516	46.321	0.218	0.200
-281.501	-54.908	0.055	0.024
-280.486	-200.000	0.058	0.341
-279.472	-200.000	0.033	0.213
-278.457	66.859	-0.136	-0.137
-277.443	-200.000	0.041	-0.209
-276.428	800.000	0.158	-0.669
-275.413	-151.608	0.115	0.008
-274.399	800.000	0.089	0.356
-273.384	-166.253	0.296	-0.012
-272.370	-188.752	-0.290	-0.004
-271.355	355.161	-0.178	0.350
-270.340	-48.129	0.330	0.158
-269.326	-7.025	-0.303	-0.204
-268.311	36.774	0.197	-0.172
-267.297	-200.000	-0.003	0.405
-266.282	52.907	-0.271	0.256
-265.267	-41.985	-0.275	0.140
-264.253	-9.948	-0.161	0.106
-263.238	-13.520	0.183	0.117
-262.224	-132.337	0.317	0.041
-261.209	-129.008	0.307	-0.043
-260.195	88.344	-0.339	-0.373
-259.180	-200.000	0.024	0.167
-258.165	587.136	-0.047	-0.115
-257.151	-101.715	0.148	0.036
-256.136	-2.613	-0.198	0.137
-255.122	800.000	-0.043	-0.140
-254.107	197.210	0.091	0.137
-253.092	-177.995	0.261	0.006
-252.078	57.724	-0.219	0.212
-251.063	171.107	0.238	-0.337
-250.049	-200.000	-0.001	-0.042
-249.034	-200.000	0.017	0.271
-248.019	154.851	0.120	0.163
-247.005	-200.000	0.019	0.106
-245.990	-55.161	0.261	0.116
-244.976	-67.998	-0.013	0.005
-243.961	88.205	-0.207	0.227
-242.946	800.000	-0.098	-0.278
-241.932	315.026	-0.050	-0.094
-240.917	-180.239	-0.118	0.002
-239.903	-74.980	0.110	-0.039
-238.888	-117.004	-0.134	0.024
-237.873	23.183	0.051	0.042
-236.859	11.389	0.095	-0.072
-235.844	-200.000	-0.047	-0.285
-234.830	99.180	0.266	0.304
-233.815	-167.999	-0.408	0.016
-232.800	-143.142	0.099	-0.009
-231.786	-7.955	0.094	0.062
-230.771	746.898	-0.097	-0.258
-229.757	37.462	-0.089	-0.078
-228.742	-200.000	0.002	-0.312
-227.727	160.495	0.085	-0.117
-226.713	-82.404	0.282	-0.090
-225.698	164.301	0.203	0.282
-224.684	65.163	-0.227	0.227
-223.669	7.154	-0.141	0.104
-222.655	394.331	-0.177	-0.365
-221.640	114.578	-0.241	-0.290
-220.625	800.000	0.106	-0.292
-219.611	800.000	-0.024	-0.101
-218.596	-66.379	0.112	-0.044
-217.582	7.826	-0.106	0.079
-216.567	-110.741	0.406	-0.083
-215.552	112.890	0.174	0.208
-214.538	800.000	0.059	0.199
-213.523	-200.000	0.003	-0.041
-212.509	-41.518	-0.273	0.139
-211.494	-92.320	0.291	-0.081
-210.479	98.737	-0.045	-0.052
-209.465	259.888	0.137	-0.234
-208.450	-200.000	0.003	-0.174
-207.436	-55.812	0.402	0.177
-206.421	-184.730	-0.352	-0.006
-205.406	-119.250	-0.180	0.031
-204.392	399.544	-0.095	-0.197
-203.377	226.989	-0.069	-0.111
-202.363	-61.059	0.583	0.243
-201.348	-98.758	-0.302	-0.076
-200.333	135.777	-0.124	0.159
-199.319	800.000	-0.036	-0.144
-198.304	-150.754	-0.100	0.007
-197.290	-72.719	-0.237	0.086
-196.275	29.095	0.340	-0.285
-195.260	800.000	0.076	-0.286
-194.246	-89.080	0.262	-0.076
-193.231	-73.686	0.153	-0.055
-192.217	-19.065	0.235	-0.144
-191.202	214.192	0.139	0.217
-190.187	-168.793	0.361	-0.013
-189.173	380.486	0.075	-0.151
-188.158	-174.220	-0.111	0.003
-187.144	800.000	-0.017	0.059
-186.129	-31.695	-0.278	-0.154
-185.114	-38.889	-0.128	-0.067
-184.100	-143.524	0.241	-0.023
-183.085	-200.000	0.034	0.429
-182.071	22.185	0.149	0.120
-181.056	-110.379	0.272	0.056
-180.042	800.000	0.028	0.104
-179.027	-18.500	-0.310	-0.191
-178.012	800.000	-0.109	-0.346
-176.998	-13.191	-0.099	0.064
-175.983	-95.380	0.053	0.014
-174.969	-135.444	0.144	0.017
-173.954	800.000	-0.031	-0.120
-172.939	800.000	0.095	-0.278
-171.925	800.000	0.026	0.081
-170.910	-2.510	0.130	-0.090
-169.896	260.219	-0.101	-0.171
-168.881	-62.874	0.139	-0.057
-167.866	-200.000	0.010	0.287
-166.852	144.705	0.183	0.241
-165.837	800.000	0.040	0.159
-164.823	-200.000	0.062	0.279
-163.808	-36.644	-0.207	0.110
-162.793	-114.955	0.112	0.021
-161.779	-200.000	-0.044	0.438
-160.764	38.193	0.172	0.151
-159.750	-95.033	0.275	0.073
-158.735	26.973	-0.250	-0.206
-157.720	459.579	0.047	-0.104
-156.706	714.231	-0.030	-0.079
-155.691	31.538	0.079	-0.067
-154.677	800.000	-0.028	-0.113
-153.662	8.544	-0.335	-0.249
-152.647	-176.820	0.322	0.008
-151.633	-200.000	-0.004	0.168
-150.618	345.552	0.048	-0.094
-149.604	180.755	-0.078	-0.113
-148.589	-53.137	-0.504	-0.228
-147.574	800.000	-0.031	0.124
-146.560	800.000	0.071	0.207
-145.545	128.766	0.249	0.313
-144.531	-147.186	0.315	0.026
-143.516	-165.785	-0.054	-0.002
-142.502	-200.000	-0.045	-0.358
-141.487	117.279	0.059	0.072
-140.472	800.000	0.071	-0.251
-139.458	470.133	0.225	0.499
-138.443	17.936	0.161	0.127
-137.429	-200.000	-0.017	0.203
-136.414	18.106	0.038	-0.030
-135.399	13.800	0.109	-0.084
-134.385	-200.000	0.032	0.184
-133.370	-200.000	0.016	0.328
-132.356	-19.260	0.037	0.023
-131.341	-158.080	-0.232	0.013
-130.326	-81.247	0.080	0.026
-129.312	800.000	0.075	-0.212
-128.297	34.692	-0.255	-0.220
-127.283	-7.985	-0.412	-0.273
-126.268	-200.000	0.021	-0.325
-125.253	-68.945	-0.152	0.058
-124.239	-103.920	-0.080	0.018
-123.224	-168.602	0.208	-0.008
-122.210	12.355	0.073	-0.056
-121.195	229.189	-0.097	0.155
-120.180	-34.962	0.200	-0.108
-119.166	28.046	0.191	-0.158
-118.151	165.998	0.098	-0.137
-117.137	-92.001	-0.197	0.055
-116.122	4.328	-0.127	0.092
-115.107	-61.070	-0.219	0.091
-114.093	403.030	0.138	-0.286
-113.078	191.232	0.102	0.150
-112.064	-156.629	0.025	0.002
-111.049	800.000	0.088	-0.251
-110.034	137.593	-0.069	-0.089
-109.020	421.847	-0.088	-0.185
-108.005	-24.292	-0.245	-0.144
-106.991	37.595	0.250	-0.218
-105.976	800.000	-0.070	-0.205
-104.962	-119.836	-0.227	0.039
-103.947	-2.667	0.241	-0.166
-102.932	106.091	0.160	0.186
-101.918	259.797	0.098	-0.167
-100.903	56.116	0.167	-0.160
-99.889	-200.000	-0.050	-0.249
-98.874	-200.000	-0.003	0.217
-97.859	-178.469	0.102	-0.002
-96.845	-2.013	0.300	0.208
-95.830	244.726	0.080	0.132
-94.816	800.000	0.051	0.168
-93.801	-200.000	0.126	-0.000
-92.786	-79.338	-0.197	0.066
-91.772	36.474	0.403	-0.350
-90.757	459.244	-0.060	-0.131
-89.743	-8.101	-0.300	-0.199
-88.728	26.916	0.331	-0.273
-87.713	662.593	0.122	-0.308
-86.699	-68.064	-0.262	0.101
-85.684	-165.118	-0.213	-0.009
-84.670	-200.000	-0.008	-0.472
-83.655	-200.000	0.041	-0.401
-82.640	-200.000	-0.010	-0.084
-81.626	453.394	-0.150	0.327
-80.611	-23.649	-0.208	0.122
-79.597	800.000	-0.036	0.147
-78.582	-121.526	0.160	-0.026
-77.567	96.694	0.178	0.201
-76.553	-159.955	-0.258	-0.014
-75.538	-126.679	-0.336	0.049
-74.524	-87.930	0.421	0.124
-73.509	800.000	-0.095	0.266
-72.494	-69.370	-0.361	0.136
-71.480	-200.000	-0.004	-0.040
-70.465	-94.372	-0.187	0.050
-69.451	17.148	0.190	-0.148
-68.436	800.000	-0.128	0.392
-67.422	216.540	-0.177	-0.277
-66.407	63.980	-0.041	-0.040
-65.392	-28.519	-0.071	-0.040
-64.378	-141.008	0.315	0.032
-63.363	-56.691	-0.151	-0.066
-62.349	337.022	0.022	0.043
-61.334	3.634	-0.691	-0.495
-60.319	479.271	0.175	0.388
-59.305	-200.000	-0.133	-1.147
-58.290	344.027	0.598	1.152
-57.276	800.000	0.525	1.433
-56.261	-200.000	96.604	572.624
-55.246	548.663	1379.546	3245.265
-54.232	159.318	2564.362	3502.621
-53.217	105.379	2268.327	2630.837
-52.203	42.275	1893.096	1689.058
-51.188	36.331	1683.697	1457.458
-50.173	33.675	1639.124	1399.265
-49.159	50.632	1685.468	1565.937
-48.144	52.428	1701.686	1594.366
-47.130	35.814	1661.939	1434.542
-46.115	33.226	1647.318	1402.706
-45.100	33.038	1642.696	1397.321
-44.086	32.986	1640.174	1394.740
-43.071	32.952	1637.306	1391.993
-42.057	32.965	1635.346	1390.366
-41.042	33.043	1632.221	1388.231
-40.027	32.877	1630.802	1385.750
-39.013	32.926	1628.958	1384.486
-37.998	32.933	1627.132	1382.929
-36.984	32.876	1626.741	1382.130
-35.969	33.133	1624.368	1381.932
-34.954	33.064	1623.448	1380.596
-33.940	33.126	1621.343	1379.200
-32.925	33.109	1619.705	1377.631
-31.911	33.057	1618.052	1375.792
-30.896	33.099	1615.678	1374.023
-29.881	33.024	1614.191	1372.160
-28.867	33.027	1612.591	1370.763
-27.852	33.152	1610.681	1369.994
-26.838	33.017	1610.165	1368.519
-25.823	33.048	1608.273	1367.081
-24.809	33.092	1606.902	1366.182
-23.794	33.052	1605.906	1364.991
-22.779	33.124	1604.132	1363.951
-21.765	33.036	1602.530	1361.896
-20.750	33.010	1601.048	1360.400
-19.736	33.014	1599.570	1359.114
-18.721	33.103	1597.928	1358.309
-17.706	33.078	1597.020	1357.304
-16.692	33.131	1594.998	1355.907
-15.677	33.149	1593.515	1354.727
-14.663	33.096	1592.262	1353.229
-13.648	33.091	1590.688	1351.800
-12.633	33.144	1589.286	1350.936
-11.619	33.112	1587.636	1349.246
-10.604	33.137	1585.941	1347.933
-9.590	33.062	1585.155	1346.676
-8.575	33.120	1583.993	1346.049
-7.560	33.096	1582.575	1344.617
-6.546	33.080	1581.314	1343.382
-5.531	33.043	1580.442	1342.325
-4.517	33.049	1579.571	1341.572
-3.502	33.042	1578.600	1340.647
-2.487	33.028	1576.521	1338.725
-1.473	32.784	1564.335	1326.608
-0.458	30.038	1545.626	1291.577
0.556	27.235	1546.574	1263.161
1.571	25.162	1570.406	1267.876
2.586	24.757	1583.978	1275.833
3.600	22.139	1531.163	1215.102
4.615	12.722	1419.939	1066.065
5.629	3.851	1353.873	961.411
6.644	2.174	1345.290	944.865
7.659	2.110	1343.948	943.445
8.673	2.001	1343.007	942.029
9.688	1.996	1340.672	940.275
10.702	1.664	1338.085	936.335
11.717	5.259	1345.059	963.334
12.731	15.547	1364.476	1041.232
13.746	24.031	1378.494	1104.736
14.761	26.104	1381.566	1119.981
15.775	26.489	1381.235	1122.001
16.790	26.533	1380.602	1121.660
17.804	26.697	1379.682	1121.828
18.819	26.816	1379.855	1122.607
19.834	26.905	1379.671	1122.907
20.848	26.931	1378.865	1122.317
21.863	27.068	1377.408	1121.876
22.877	27.037	1376.890	1121.163
23.892	26.930	1375.988	1119.667
24.907	26.997	1375.082	1119.245
25.921	27.029	1374.153	1118.589
26.936	27.036	1373.094	1117.670
27.950	27.043	1372.075	1116.783
28.965	26.971	1370.535	1114.993
29.980	26.963	1369.554	1114.041
30.994	26.986	1368.162	1112.958
32.009	26.899	1367.563	1111.836
33.023	26.971	1366.103	1110.992
34.038	27.015	1365.025	1110.283
35.053	26.977	1363.932	1109.068
36.067	26.996	1362.767	1108.136
37.082	26.956	1362.115	1107.261
38.096	26.996	1361.175	1106.643
39.111	27.010	1360.316	1105.933
40.126	26.967	1359.590	1104.986
41.140	27.007	1359.047	1104.687
42.155	27.001	1359.335	1104.789
43.169	27.005	1359.035	1104.470
44.184	26.958	1358.990	1104.050
45.199	27.051	1357.717	1103.482
46.213	26.939	1357.701	1102.696
47.228	26.992	1356.588	1102.016
48.242	26.941	1355.639	1100.834
49.257	26.978	1354.420	1099.973
50.271	26.995	1352.570	1098.475
51.286	26.920	1351.275	1096.873
52.301	26.941	1350.473	1096.255
53.315	26.849	1349.869	1095.111
54.330	26.965	1348.549	1094.640
55.344	26.945	1347.327	1093.432
56.359	26.889	1346.630	1092.435
57.374	26.945	1345.697	1091.914
58.388	26.924	1345.097	1091.204
59.403	26.970	1344.511	1090.911
60.417	26.949	1344.304	1090.521
61.432	26.911	1343.413	1089.474
62.447	26.983	1342.594	1089.146
63.461	26.965	1341.508	1088.057
64.476	26.974	1340.630	1087.307
65.490	26.986	1339.515	1086.375
66.505	26.849	1338.306	1084.478
67.520	26.945	1337.013	1083.911
68.534	27.028	1335.563	1083.132
69.549	27.020	1334.624	1082.231
70.563	27.014	1333.495	1081.181
71.578	26.944	1332.830	1080.128
72.593	27.037	1332.062	1079.965
73.607	26.930	1331.885	1079.087
74.622	27.039	1330.566	1078.575
75.636	26.944	1330.189	1077.610
76.651	26.908	1329.605	1076.828
77.666	26.961	1328.660	1076.277
78.680	26.956	1328.802	1076.271
79.695	26.971	1327.231	1074.990
80.709	26.982	1326.664	1074.504
81.724	26.917	1326.324	1073.747
82.739	26.984	1324.623	1072.673
83.753	26.979	1324.140	1072.154
84.768	26.936	1323.056	1070.928
85.782	26.960	1321.988	1070.109
86.797	26.935	1321.092	1069.142
87.812	26.915	1319.702	1067.807
88.826	27.173	1317.947	1067.807
89.841	27.086	1317.495	1066.838
90.855	27.039	1316.403	1065.581
91.870	27.055	1315.702	1065.015
92.884	26.984	1315.003	1063.937
93.899	27.027	1314.426	1063.630
94.914	27.013	1313.308	1062.549
95.928	27.043	1312.616	1062.068
96.943	27.028	1311.924	1061.329
97.957	26.972	1311.311	1060.414
98.972	27.077	1310.282	1060.095
99.987	27.122	1309.172	1059.369
101.001	26.990	1308.611	1058.050
102.016	27.041	1307.383	1057.261
103.030	27.215	1306.621	1057.563
104.045	26.960	1306.037	1055.516
105.060	27.058	1304.794	1054.988
106.074	27.104	1304.064	1054.571
107.089	27.017	1303.169	1053.250
108.103	26.982	1302.263	1052.218
109.118	27.215	1300.872	1052.352
110.133	27.133	1300.108	1051.166
111.147	27.151	1298.448	1049.838
112.162	27.176	1297.655	1049.243
113.176	27.109	1296.138	1047.539
114.191	27.144	1295.812	1047.385
115.206	27.135	1294.794	1046.420
116.220	27.078	1293.667	1045.087
117.235	27.106	1292.213	1043.979
118.249	27.075	1292.070	1043.594
119.264	27.191	1291.027	1043.326
120.279	27.102	1290.566	1042.350
121.293	27.177	1289.631	1041.932
122.308	27.157	1288.866	1041.108
123.322	27.115	1288.332	1040.345
124.337	27.228	1287.450	1040.187
125.352	27.295	1286.262	1039.519
126.366	27.104	1285.836	1037.990
127.381	27.086	1284.881	1037.027
128.395	27.176	1283.821	1036.592
129.410	27.264	1283.086	1036.405
130.424	27.261	1282.089	1035.493
131.439	27.187	1281.553	1034.546
132.454	27.109	1281.004	1033.571
133.468	27.175	1280.260	1033.255
134.483	27.133	1279.788	1032.539
135.497	27.214	1279.047	1032.314
136.512	27.087	1277.881	1030.557
137.527	27.178	1276.904	1030.198
138.541	27.138	1275.654	1028.868
139.556	27.084	1274.540	1027.572
140.570	27.132	1273.441	1026.868
141.585	27.121	1272.365	1025.847
142.600	27.047	1271.432	1024.587
143.614	27.148	1270.546	1024.352
144.629	27.056	1269.758	1023.107
145.643	27.180	1268.460	1022.668
146.658	27.007	1267.756	1021.037
147.673	27.110	1266.338	1020.386
148.687	27.052	1265.961	1019.667
149.702	27.025	1264.525	1018.267
150.716	27.043	1263.618	1017.545
151.731	27.046	1262.441	1016.528
152.746	27.098	1261.627	1016.074
153.760	27.223	1260.033	1015.395
154.775	27.188	1259.533	1014.708
155.789	27.185	1258.461	1013.738
156.804	27.133	1257.680	1012.727
157.819	27.194	1256.836	1012.299
158.833	27.100	1256.494	1011.414
159.848	27.231	1255.580	1011.314
160.862	27.160	1254.816	1010.214
161.877	27.274	1253.887	1010.014
162.892	27.179	1253.048	1008.719
163.906	27.262	1252.035	1008.272
164.921	27.223	1251.843	1007.816
165.935	27.241	1250.949	1007.104
166.950	27.214	1250.906	1006.834
167.964	27.265	1249.769	1006.111
168.979	27.300	1249.102	1005.677
169.994	27.332	1248.554	1005.322
171.008	27.336	1247.757	1004.615
172.023	27.278	1247.122	1003.696
173.037	27.234	1246.968	1003.239
174.052	27.361	1245.554	1002.712
175.067	27.318	1245.084	1002.009
176.081	27.268	1244.053	1000.815
177.096	27.255	1243.651	1000.333
178.110	27.226	1242.565	999.213
179.125	27.326	1241.572	998.870
180.140	27.391	1240.343	998.154
181.154	27.276	1239.562	996.804
182.169	27.214	1238.421	995.462
183.183	27.349	1237.321	995.227
184.198	27.308	1236.036	993.880
185.213	27.328	1235.523	993.491
186.227	27.349	1234.782	992.918
187.242	27.407	1233.694	992.272
188.256	27.358	1232.656	991.085
189.271	27.314	1232.040	990.259
190.286	27.396	1231.241	989.978
191.300	27.306	1230.887	989.116
192.315	27.295	1230.520	988.675
193.329	27.333	1230.237	988.566
194.344	27.460	1229.288	988.403
195.359	27.323	1229.144	987.458
196.373	27.426	1228.196	987.170
197.388	27.319	1228.137	986.455
198.402	27.254	1228.252	986.105
199.417	27.195	1227.826	985.356
200.432	27.318	1226.716	985.047
201.446	27.371	1226.125	984.766
202.461	27.393	1225.175	984.038
203.475	27.354	1224.663	983.331
204.490	27.286	1223.975	982.321
205.504	27.486	1222.483	982.117
206.519	27.467	1221.789	981.372
207.534	27.413	1220.841	980.228
208.548	27.439	1219.800	979.450
209.563	27.462	1219.345	979.118
210.577	27.492	1218.182	978.258
211.592	27.407	1217.669	977.305
212.607	27.479	1216.907	976.995
213.621	27.522	1215.960	976.375
214.636	27.466	1215.591	975.696
215.650	27.448	1214.604	974.720
216.665	27.500	1213.441	973.981
217.680	27.576	1212.735	973.732
218.694	27.511	1211.782	972.534
219.709	27.473	1211.380	971.922
220.723	27.540	1210.673	971.624
221.738	27.520	1209.936	970.840
222.753	27.363	1209.492	969.561
223.767	27.521	1208.901	969.844
224.782	27.448	1208.893	969.364
225.796	27.639	1207.643	969.292
226.811	27.641	1206.871	968.595
227.826	27.652	1206.296	968.105
228.840	27.597	1205.684	967.239
229.855	27.679	1204.983	967.027
230.869	27.611	1204.289	966.021
231.884	27.691	1203.419	965.661
232.899	27.646	1202.845	964.878
233.913	27.562	1202.340	963.944
234.928	27.623	1201.943	963.861
235.942	27.604	1201.513	963.334
236.957	27.637	1200.485	962.595
237.972	27.527	1200.164	961.675
238.986	27.474	1199.680	960.920
240.001	27.658	1198.882	961.165
241.015	27.719	1197.934	960.642
242.030	27.771	1197.447	960.443
243.045	27.719	1196.716	959.498
244.059	27.747	1196.013	958.994
245.074	27.807	1195.136	958.523
246.088	27.776	1194.076	957.424
247.103	27.775	1193.287	956.702
248.117	27.881	1192.077	956.202
249.132	27.764	1191.917	955.379
250.147	27.818	1191.331	955.103
251.161	27.820	1190.486	954.355
252.176	27.747	1189.787	953.326
253.190	27.916	1188.970	953.470
254.205	27.855	1188.592	952.764
255.220	27.856	1187.861	952.098
256.234	27.693	1187.933	951.224
257.249	27.921	1186.694	951.337
258.263	27.971	1186.446	951.313
259.278	28.046	1185.304	950.701
260.293	27.944	1185.103	949.928
261.307	27.871	1184.566	949.033
262.322	27.887	1184.083	948.646
263.336	27.909	1183.265	948.021
264.351	27.917	1182.853	947.647
265.366	27.933	1182.157	947.087
266.380	27.835	1181.862	946.260
267.395	27.881	1181.147	945.845
268.409	27.830	1180.416	944.908
269.424	27.909	1179.853	944.784
270.439	27.923	1179.302	944.331
271.453	27.977	1178.677	944.025
272.468	27.939	1177.398	942.724
273.482	27.980	1176.674	942.272
274.497	27.959	1176.805	942.186
275.512	28.100	1175.858	942.069
276.526	28.030	1175.097	941.016
277.541	27.991	1174.625	940.354
278.555	27.954	1174.198	939.740
279.570	27.943	1173.587	939.108
280.585	28.037	1172.427	938.581
281.599	28.048	1171.343	937.687
282.614	28.071	1170.751	937.250
283.628	28.054	1170.036	936.503
284.643	28.086	1169.071	935.812
285.657	28.027	1168.030	934.595
286.672	28.080	1167.259	934.167
287.687	28.066	1166.480	933.387
288.701	28.167	1166.108	933.527
289.716	28.135	1165.287	932.622
290.730	28.098	1164.738	931.912
291.745	28.074	1164.339	931.389
292.760	28.199	1163.811	931.518
293.774	28.213	1163.042	930.890
294.789	28.205	1162.047	929.974
295.803	28.087	1162.371	929.550
296.818	28.104	1161.182	928.605
297.833	28.278	1160.481	928.845
298.847	28.303	1159.677	928.244
299.862	28.239	1159.358	927.580
300.876	28.187	1158.540	926.582
301.891	28.285	1157.874	926.466
302.906	28.342	1157.010	925.977
303.920	28.339	1156.552	925.514
304.935	28.348	1156.103	925.121
305.949	28.315	1155.258	924.193
306.964	28.377	1154.683	923.964
307.979	28.310	1154.203	923.163
308.993	28.307	1153.614	922.592
310.008	28.402	1152.774	922.317
311.022	28.386	1151.752	921.337
312.037	28.339	1151.149	920.541
313.052	28.248	1150.686	919.630
314.066	28.315	1149.612	919.025
315.081	28.247	1149.243	918.310
316.095	28.310	1148.636	918.060
317.110	28.342	1147.755	917.435
318.125	28.444	1147.101	917.339
319.139	28.404	1146.291	916.411
320.154	28.468	1145.748	916.216
321.168	28.426	1145.452	915.686
322.183	28.404	1144.747	914.933
323.197	28.422	1144.218	914.518
324.212	28.331	1144.138	913.918
325.227	28.518	1142.969	913.840
326.241	28.466	1142.803	913.366
327.256	28.489	1141.766	912.571
328.270	28.465	1140.710	911.527
329.285	28.350	1140.662	910.837
330.300	28.616	1139.205	910.914
331.314	28.488	1138.847	909.909
332.329	28.490	1138.040	909.195
333.343	28.538	1137.303	908.765
334.358	28.666	1136.120	908.373
335.373	28.768	1135.201	908.062
336.387	28.594	1135.178	907.100
337.402	28.683	1134.177	906.663
338.416	28.593	1133.834	905.863
339.431	28.667	1133.312	905.731
340.446	28.663	1132.699	905.141
341.460	28.677	1132.177	904.712
342.475	28.679	1131.421	904.036
343.489	28.633	1130.555	903.040
344.504	28.647	1129.824	902.446
345.519	28.704	1128.582	901.650
346.533	28.848	1127.669	901.551
347.548	28.753	1127.150	900.588
348.562	28.872	1126.349	900.455
349.577	28.734	1125.725	899.200
350.592	28.778	1125.105	898.841
351.606	28.758	1124.679	898.322
352.621	28.750	1123.882	897.566
353.635	28.739	1123.568	897.183
354.650	28.764	1122.777	896.592
355.665	28.724	1122.687	896.244
356.679	28.914	1121.389	896.056
357.694	28.888	1120.939	895.491
358.708	28.794	1120.311	894.453
359.723	28.763	1120.037	894.005
360.738	28.806	1119.003	893.310
361.752	28.812	1118.831	893.123
362.767	28.926	1118.045	892.969
363.781	28.914	1117.527	892.418
364.796	28.888	1116.783	891.618
365.810	28.973	1116.385	891.634
366.825	29.034	1115.543	891.179
367.840	28.964	1115.451	890.686
368.854	28.948	1114.875	890.073
369.869	28.944	1114.366	889.566
370.883	28.993	1113.141	888.748
371.898	29.107	1112.629	888.809
372.913	29.055	1111.995	887.974
373.927	29.011	1111.540	887.321
374.942	29.016	1111.055	886.879
375.956	29.003	1110.498	886.292
376.971	29.057	1109.714	885.847
377.986	29.070	1108.999	885.262
379.000	29.187	1108.623	885.445
380.015	29.140	1108.188	884.795
381.029	29.130	1107.256	883.924
382.044	29.219	1107.070	884.126
383.059	29.111	1106.235	882.863
384.073	28.997	1105.537	881.679
385.088	29.159	1104.885	881.857
386.102	29.132	1103.925	880.884
387.117	29.315	1102.932	880.887
388.132	29.129	1102.302	879.418
389.146	29.180	1101.739	879.135
390.161	29.182	1100.826	878.335
391.175	29.228	1100.559	878.264
392.190	29.317	1099.649	877.886
393.205	29.159	1099.372	876.838
394.219	29.260	1098.342	876.414
395.234	29.274	1097.450	875.692
396.248	29.290	1097.169	875.466
397.263	29.400	1096.092	875.055
398.278	29.291	1095.924	874.325
399.292	29.391	1094.734	873.770
400.307	29.357	1094.135	873.055
401.321	29.323	1093.636	872.419
402.336	29.359	1092.937	871.955
403.350	29.413	1092.297	871.620
404.365	29.360	1091.914	870.987
405.380	29.424	1091.093	870.559
406.394	29.480	1090.354	870.158
407.409	29.492	1089.323	869.312
408.423	29.588	1088.774	869.252
409.438	29.549	1088.382	868.677
410.453	29.593	1087.722	868.279
411.467	29.558	1086.938	867.413
412.482	29.570	1085.909	866.570
413.496	29.512	1085.508	865.902
414.511	29.582	1084.991	865.741
415.526	29.480	1084.832	865.060
416.540	29.579	1084.324	865.043
417.555	29.476	1083.984	864.210
418.569	29.465	1083.367	863.594
419.584	29.701	1082.218	863.701
420.599	29.594	1082.215	863.122
421.613	104.011	1320.041	1454.655
422.628	96.777	1354.685	1454.786
