DTS Sentinel unit serial number:	SN413079Multiplexer serial number:	ORYXHardware model number:	OX4-SRSoftware version number:	ORYX F/W v4.00 Oryx Data Collector v3.7.2.0data status	okinstallation	princeton_trtdifferential loss correction	single-endedforward channel	channel 2reverse channel	N/Adate	2019/09/17time	23:07:35forward acquisition time	60.00reverse acquisition time	0.00gamma	496.2192k internal	0.2346k external	0.2346temperature offset calibration	0.9981default loss term (dB/km)	0.3790temperature slope calibration	1.0000multiplexer offset coefficient	1.0000multiplexer slope coefficient	1.0000fibre end	0.00T internal ref (°C)	24.62T ext. ref 1 (°C)	0.17T ext. ref 2 (°C)	17.75length (m)	temperature (°C)	Stokes	anti-Stokes-747.200	-101.562	0.169	-0.041
-746.185	-51.414	-0.471	0.220
-745.171	37.539	-0.323	-0.287
-744.156	-109.184	0.476	0.101
-743.142	-106.847	-0.116	0.026
-742.127	35.162	-0.151	-0.133
-741.112	54.066	-0.160	0.154
-740.098	-130.782	-0.183	0.025
-739.083	-200.000	0.052	-0.362
-738.069	-5.938	0.063	0.043
-737.054	800.000	0.133	0.460
-736.039	441.497	-0.125	-0.274
-735.025	-200.000	0.027	0.182
-734.010	-68.627	-0.497	-0.192
-732.996	-200.000	-0.044	-0.199
-731.981	800.000	-0.144	-0.409
-730.966	-21.731	-0.160	-0.097
-729.952	800.000	0.055	-0.153
-728.937	-200.000	0.003	0.087
-727.923	-55.634	-0.112	-0.050
-726.908	-45.364	-0.236	-0.117
-725.894	588.727	0.107	-0.262
-724.879	-53.834	-0.269	0.122
-723.864	387.153	-0.067	-0.138
-722.850	800.000	-0.038	-0.126
-721.835	671.328	0.122	-0.317
-720.821	-178.672	-0.176	-0.004
-719.806	83.159	0.301	-0.328
-718.791	212.668	-0.224	0.353
-717.777	222.545	-0.209	0.336
-716.762	-25.311	-0.162	0.095
-715.748	800.000	-0.114	-0.325
-714.733	-200.000	-0.014	-0.249
-713.718	21.573	-0.071	0.057
-712.704	800.000	0.059	0.224
-711.689	191.971	-0.121	0.183
-710.675	-200.000	0.008	-0.207
-709.660	119.634	0.224	-0.277
-708.645	28.469	-0.072	-0.061
-707.631	-86.008	-0.246	0.076
-706.616	175.233	0.028	-0.041
-705.602	-47.667	0.226	-0.110
-704.587	-1.775	0.125	-0.088
-703.572	-200.000	0.070	-0.412
-702.558	-130.103	0.080	-0.011
-701.543	-200.000	-0.003	-0.029
-700.529	-107.997	0.084	-0.018
-699.514	-70.422	0.340	-0.129
-698.499	531.201	-0.029	-0.069
-697.485	-91.713	0.362	0.103
-696.470	270.962	-0.228	-0.400
-695.456	-181.381	-0.099	0.002
-694.441	583.117	-0.045	-0.111
-693.426	10.747	0.045	-0.034
-692.412	169.693	0.177	0.253
-691.397	378.784	-0.109	-0.224
-690.383	18.837	-0.159	-0.127
-689.368	150.828	0.210	-0.285
-688.354	204.562	0.192	-0.296
-687.339	-42.890	-0.053	0.027
-686.324	-200.000	-0.004	0.126
-685.310	17.157	-0.256	-0.202
-684.295	30.034	0.039	0.033
-683.281	468.443	0.030	0.067
-682.266	-71.841	0.133	-0.050
-681.251	-189.068	0.398	0.005
-680.237	-41.312	-0.150	0.077
-679.222	-56.358	0.160	-0.071
-678.208	103.378	-0.154	0.180
-677.193	-29.386	-0.210	-0.120
-676.178	131.839	-0.230	0.295
-675.164	146.787	-0.080	-0.107
-674.149	-97.768	-0.212	0.055
-673.135	40.696	0.108	-0.097
-672.120	-200.000	-0.024	-0.211
-671.105	-65.456	-0.127	0.051
-670.091	-200.000	0.026	-0.120
-669.076	106.795	0.274	0.324
-668.062	625.630	-0.110	-0.277
-667.047	320.810	0.031	0.059
-666.032	159.381	0.174	0.242
-665.018	288.202	-0.048	0.086
-664.003	-133.544	0.126	0.016
-662.989	-52.394	-0.231	-0.106
-661.974	800.000	-0.065	-0.191
-660.959	-148.726	-0.235	0.019
-659.945	195.819	-0.102	-0.155
-658.930	-83.236	-0.211	0.067
-657.916	-36.622	0.091	-0.049
-656.901	-133.536	-0.134	0.017
-655.886	-200.000	0.022	-0.136
-654.872	-6.928	0.320	-0.217
-653.857	167.509	-0.017	-0.024
-652.843	-42.208	-0.314	0.160
-651.828	800.000	-0.099	0.397
-650.814	800.000	-0.069	-0.195
-649.799	800.000	0.076	-0.276
-648.784	-79.853	0.242	-0.081
-647.770	350.013	0.059	0.116
-646.755	-131.535	-0.252	0.033
-645.741	-179.278	0.250	-0.006
-644.726	-200.000	0.041	0.220
-643.711	-71.994	-0.235	0.087
-642.697	-81.511	-0.447	0.147
-641.682	-200.000	-0.004	-0.066
-640.668	8.586	0.074	0.055
-639.653	183.442	0.077	-0.114
-638.638	-200.000	-0.060	-0.334
-637.624	-2.320	0.270	0.189
-636.609	43.801	-0.118	0.108
-635.595	-138.825	-0.430	0.047
-634.580	-117.730	-0.229	0.041
-633.565	800.000	0.084	-0.313
-632.551	-200.000	0.013	-0.267
-631.536	-30.779	-0.136	0.076
-630.522	-16.358	-0.095	0.060
-629.507	-9.701	-0.096	-0.064
-628.492	-13.942	0.286	0.184
-627.478	13.903	-0.075	0.058
-626.463	174.307	-0.188	-0.270
-625.449	205.312	-0.137	0.212
-624.434	-87.428	-0.233	-0.070
-623.419	-22.966	-0.191	0.114
-622.405	142.003	-0.108	0.143
-621.390	226.320	-0.206	0.333
-620.376	18.136	-0.099	0.078
-619.361	800.000	-0.112	-0.378
-618.346	-200.000	-0.032	-0.160
-617.332	525.575	0.105	0.245
-616.317	317.285	0.071	0.134
-615.303	187.155	-0.143	-0.212
-614.288	-200.000	-0.023	-0.152
-613.273	-63.952	0.130	-0.053
-612.259	4.519	-0.213	0.155
-611.244	569.243	-0.101	-0.243
-610.230	279.823	-0.135	0.240
-609.215	800.000	0.120	0.363
-608.201	800.000	-0.035	-0.134
-607.186	-200.000	-0.004	0.081
-606.171	49.024	-0.046	0.043
-605.157	-82.775	0.044	0.014
-604.142	-200.000	-0.003	0.262
-603.128	800.000	0.035	0.110
-602.113	-124.427	0.105	-0.016
-601.098	-26.034	0.042	0.024
-600.084	-6.255	-0.138	0.093
-599.069	800.000	-0.060	0.191
-598.055	123.082	-0.084	-0.104
-597.040	-200.000	0.020	-0.228
-596.025	381.488	0.068	-0.138
-595.011	403.038	-0.101	-0.210
-593.996	18.395	0.189	0.150
-592.982	-184.045	0.199	-0.003
-591.967	185.922	0.059	-0.088
-590.952	92.575	-0.073	-0.082
-589.938	244.294	0.057	-0.094
-588.923	-200.000	-0.010	-0.403
-587.909	-121.913	0.092	0.015
-586.894	26.503	0.115	-0.095
-585.879	800.000	0.076	-0.281
-584.865	-122.732	-0.225	0.036
-583.850	-200.000	0.017	0.163
-582.836	36.255	-0.208	0.182
-581.821	-200.000	0.033	0.267
-580.806	-200.000	-0.011	0.081
-579.792	-16.578	-0.120	-0.076
-578.777	-119.531	0.112	0.019
-577.763	-82.877	0.160	-0.051
-576.748	-121.303	0.088	0.015
-575.733	-81.526	-0.349	0.114
-574.719	-200.000	0.021	0.321
-573.704	-200.000	-0.038	0.193
-572.690	338.629	-0.107	0.207
-571.675	132.842	0.114	0.147
-570.661	-38.855	0.047	0.025
-569.646	800.000	0.024	-0.079
-568.631	-200.000	0.046	0.231
-567.617	-134.485	-0.245	-0.030
-566.602	800.000	-0.134	0.476
-565.588	-40.342	-0.172	0.089
-564.573	-53.427	-0.263	0.120
-563.558	-124.019	-0.194	-0.030
-562.544	800.000	0.063	-0.238
-561.529	-123.267	0.348	-0.055
-560.515	-57.427	-0.147	0.064
-559.500	-200.000	0.043	0.345
-558.485	277.235	-0.167	0.296
-557.471	-131.303	-0.382	-0.050
-556.456	261.974	-0.215	-0.370
-555.442	-200.000	0.059	-0.314
-554.427	800.000	0.071	-0.265
-553.412	498.210	-0.028	0.065
-552.398	-65.919	-0.056	-0.022
-551.383	-200.000	-0.006	0.045
-550.369	59.106	-0.366	-0.357
-549.354	-40.387	-0.111	-0.057
-548.339	-19.007	0.331	0.204
-547.325	-200.000	0.005	-0.098
-546.310	-0.980	-0.157	0.110
-545.296	-133.415	-0.057	0.007
-544.281	-40.832	0.098	0.050
-543.266	-200.000	0.021	-0.143
-542.252	96.835	-0.193	-0.219
-541.237	-200.000	0.018	0.111
-540.223	-22.664	0.253	-0.152
-539.208	-156.215	-0.209	-0.013
-538.193	-200.000	0.022	0.110
-537.179	800.000	-0.071	-0.219
-536.164	181.923	-0.063	0.091
-535.150	-200.000	0.013	0.273
-534.135	60.184	0.179	-0.175
-533.121	-200.000	-0.012	-0.112
-532.106	-200.000	0.057	-0.306
-531.091	-197.889	-0.098	-0.001
-530.077	-93.078	-0.316	0.087
-529.062	317.535	0.078	0.145
-528.048	800.000	0.088	0.318
-527.033	368.984	0.070	-0.141
-526.018	225.547	0.102	0.164
-525.004	-200.000	0.016	-0.105
-523.989	-100.737	-0.197	0.048
-522.975	800.000	0.112	-0.382
-521.960	800.000	-0.041	0.163
-520.945	-112.728	-0.520	0.102
-519.931	-134.447	-0.169	-0.021
-518.916	-86.056	0.428	-0.131
-517.902	-200.000	0.011	0.360
-516.887	16.127	0.277	0.216
-515.872	-116.969	0.530	-0.096
-514.858	800.000	0.079	0.228
-513.843	-157.230	0.040	-0.002
-512.829	-24.242	0.315	-0.186
-511.814	800.000	-0.006	0.020
-510.799	130.399	0.138	0.176
-509.785	-45.355	0.211	-0.104
-508.770	-98.239	0.099	0.025
-507.756	-104.215	0.094	-0.022
-506.741	800.000	-0.066	0.271
-505.726	-200.000	0.047	-0.221
-504.712	-115.320	0.249	0.047
-503.697	-200.000	0.014	-0.166
-502.683	-142.456	0.218	-0.021
-501.668	282.453	-0.113	-0.201
-500.653	280.984	-0.124	-0.219
-499.639	33.424	-0.182	-0.157
-498.624	-94.212	0.428	-0.116
-497.610	-57.588	0.088	0.038
-496.595	71.706	0.211	-0.217
-495.581	122.206	-0.165	-0.205
-494.566	800.000	0.071	-0.294
-493.551	-23.383	0.257	-0.153
-492.537	-57.987	-0.445	-0.192
-491.522	127.749	-0.089	-0.112
-490.508	-124.098	-0.208	0.032
-489.493	-14.219	0.067	-0.043
-488.478	-127.631	0.417	-0.060
-487.464	716.589	-0.022	-0.058
-486.449	93.108	-0.076	-0.085
-485.435	-52.926	0.251	0.114
-484.420	-30.258	-0.044	0.025
-483.405	-93.665	-0.127	0.035
-482.391	-43.836	-0.325	0.162
-481.376	-139.363	0.252	-0.027
-480.362	-200.000	-0.008	-0.097
-479.347	256.022	-0.107	0.181
-478.332	286.468	-0.086	-0.153
-477.318	-118.990	0.168	-0.029
-476.303	-76.565	-0.331	0.115
-475.289	-107.464	0.046	0.010
-474.274	-78.560	-0.201	0.068
-473.259	-6.911	-0.165	0.111
-472.245	443.077	0.044	0.095
-471.230	-112.614	-0.389	-0.077
-470.216	800.000	-0.051	0.172
-469.201	69.808	0.184	-0.188
-468.186	-79.701	-0.480	0.160
-467.172	17.597	0.340	0.267
-466.157	-200.000	-0.018	0.222
-465.143	391.542	0.126	-0.259
-464.128	369.212	-0.148	0.297
-463.113	-147.091	-0.156	0.013
-462.099	691.061	-0.024	-0.062
-461.084	-39.347	-0.403	0.209
-460.070	-185.697	0.369	0.005
-459.055	33.258	0.086	-0.074
-458.040	-200.000	-0.002	-0.036
-457.026	203.951	0.166	0.254
-456.011	73.046	-0.169	0.174
-454.997	11.536	0.242	-0.183
-453.982	-147.008	0.161	-0.014
-452.968	227.341	0.094	0.151
-451.953	225.242	-0.285	-0.456
-450.938	800.000	-0.060	0.179
-449.924	157.138	0.121	-0.166
-448.909	649.970	0.152	0.384
-447.895	-51.917	-0.181	-0.083
-446.880	-84.214	-0.279	-0.088
-445.865	383.033	0.098	-0.200
-444.851	-200.000	0.001	0.114
-443.836	130.862	-0.007	0.009
-442.822	18.440	-0.269	-0.213
-441.807	62.108	0.210	-0.207
-440.792	-119.870	0.036	-0.006
-439.778	-200.000	0.009	0.358
-438.763	-104.930	0.120	-0.027
-437.749	-77.317	-0.243	0.083
-436.734	98.402	0.018	-0.020
-435.719	-132.408	-0.312	0.040
-434.705	-200.000	0.017	-0.253
-433.690	-33.492	-0.070	-0.038
-432.676	-55.196	0.227	-0.101
-431.661	32.744	0.265	0.226
-430.646	-63.910	-0.323	-0.131
-429.632	118.200	0.042	-0.051
-428.617	80.154	-0.056	0.059
-427.603	261.713	0.256	0.438
-426.588	-182.680	-0.308	-0.006
-425.573	689.697	-0.029	0.076
-424.559	110.185	-0.163	0.194
-423.544	800.000	0.081	-0.285
-422.530	-132.752	-0.224	-0.028
-421.515	103.048	-0.060	0.070
-420.500	31.189	0.095	0.080
-419.486	-2.026	-0.205	0.143
-418.471	800.000	0.100	-0.336
-417.457	-200.000	-0.003	-0.019
-416.442	-38.698	0.325	-0.169
-415.428	-31.067	0.153	-0.085
-414.413	-63.377	0.204	-0.083
-413.398	722.986	0.166	-0.436
-412.384	107.685	-0.181	-0.213
-411.369	-48.141	0.233	0.111
-410.355	-56.191	-0.239	-0.105
-409.340	401.276	0.250	-0.517
-408.325	367.795	0.025	-0.051
-407.311	66.773	0.119	0.120
-406.296	-200.000	-0.068	0.305
-405.282	800.000	0.071	0.284
-404.267	800.000	-0.075	-0.298
-403.252	-125.785	-0.130	-0.019
-402.238	96.629	0.368	-0.415
-401.223	204.954	0.134	0.206
-400.209	12.235	0.066	-0.050
-399.194	171.623	0.031	0.044
-398.179	7.146	-0.268	-0.198
-397.165	227.166	0.117	-0.187
-396.150	79.777	0.179	-0.190
-395.136	-57.505	0.219	-0.095
-394.121	610.721	0.129	-0.317
-393.106	44.255	0.152	0.138
-392.092	-140.096	-0.248	-0.026
-391.077	602.883	-0.104	-0.255
-390.063	86.819	-0.181	-0.197
-389.048	372.014	-0.082	-0.163
-388.033	-98.294	-0.386	-0.098
-387.019	293.700	-0.169	0.304
-386.004	-73.933	-0.101	0.036
-384.990	112.112	-0.233	0.277
-383.975	-200.000	-0.042	0.298
-382.960	-200.000	-0.049	0.283
-381.946	-102.050	0.164	-0.039
-380.931	-200.000	0.002	0.133
-379.917	141.369	0.060	-0.078
-378.902	192.645	0.113	0.167
-377.888	-28.912	-0.110	0.062
-376.873	76.170	0.101	0.105
-375.858	-200.000	0.014	0.222
-374.844	65.899	0.108	0.108
-373.829	-200.000	-0.058	0.360
-372.815	-200.000	-0.023	-0.184
-371.800	3.631	0.352	-0.253
-370.785	-200.000	-0.040	-0.197
-369.771	-27.209	-0.117	-0.067
-368.756	-56.474	0.126	-0.055
-367.742	-200.000	0.007	0.191
-366.727	-29.491	-0.158	0.089
-365.712	800.000	0.078	-0.233
-364.698	158.853	0.122	0.167
-363.683	196.282	0.160	-0.240
-362.669	452.228	0.023	0.051
-361.654	-49.875	0.044	-0.021
-360.639	-118.511	-0.174	-0.030
-359.625	132.781	0.082	-0.105
-358.610	-200.000	-0.002	-0.206
-357.596	282.168	0.069	-0.122
-356.581	616.322	-0.111	-0.274
-355.566	219.944	-0.209	0.329
-354.552	460.666	0.063	0.139
-353.537	-200.000	0.001	-0.096
-352.523	44.767	0.140	-0.126
-351.508	550.392	-0.173	0.409
-350.493	-85.119	-0.185	0.057
-349.479	85.026	0.216	-0.233
-348.464	-28.137	0.172	0.098
-347.450	81.192	0.028	0.030
-346.435	-62.927	-0.394	-0.160
-345.420	-200.000	-0.008	-0.038
-344.406	200.644	-0.246	0.372
-343.391	-96.718	-0.250	0.065
-342.377	-17.195	-0.234	0.145
-341.362	83.920	-0.122	0.132
-340.348	113.274	-0.104	0.124
-339.333	-89.580	0.113	0.033
-338.318	-0.508	0.266	-0.186
-337.304	237.194	0.267	-0.436
-336.289	24.940	0.069	-0.056
-335.275	-85.988	-0.146	0.044
-334.260	-46.698	0.044	-0.021
-333.245	-104.689	-0.139	0.031
-332.231	72.497	-0.067	0.069
-331.216	-162.388	-0.395	-0.019
-330.202	-118.352	0.159	0.028
-329.187	800.000	0.055	0.170
-328.172	-200.000	0.050	0.328
-327.158	-193.370	0.419	-0.004
-326.143	-187.048	0.099	0.001
-325.129	-154.554	0.224	-0.015
-324.114	-145.710	-0.233	-0.020
-323.099	-127.314	-0.125	-0.018
-322.085	-119.326	0.440	-0.075
-321.070	215.765	-0.143	-0.223
-320.056	-35.842	-0.063	-0.034
-319.041	-54.380	-0.216	0.097
-318.026	25.864	-0.060	0.049
-317.012	-138.656	-0.363	0.039
-315.997	-39.348	0.337	-0.174
-314.983	334.753	0.264	-0.503
-313.968	106.333	-0.110	-0.128
-312.953	755.695	0.102	0.272
-311.939	620.163	0.087	-0.214
-310.924	261.610	-0.055	0.094
-309.910	-52.501	-0.328	0.149
-308.895	179.598	-0.147	0.212
-307.880	106.924	0.252	-0.294
-306.866	464.481	-0.093	-0.205
-305.851	449.279	0.190	-0.412
-304.837	-52.734	0.092	-0.042
-303.822	800.000	-0.107	0.334
-302.807	-76.147	0.070	-0.024
-301.793	800.000	-0.021	-0.079
-300.778	-170.491	-0.293	0.010
-299.764	800.000	-0.099	0.277
-298.749	-77.477	0.177	-0.060
-297.735	82.523	0.221	-0.235
-296.720	40.985	0.068	0.060
-295.705	-200.000	0.001	0.053
-294.691	156.608	0.139	0.188
-293.676	800.000	-0.009	-0.032
-292.662	-200.000	0.028	0.288
-291.647	87.419	-0.228	0.248
-290.632	56.019	-0.160	0.153
-289.618	444.639	0.105	-0.227
-288.603	-200.000	0.026	0.148
-287.589	-143.852	-0.067	-0.006
-286.574	-190.681	0.194	0.002
-285.559	-161.153	0.382	0.020
-284.545	196.691	0.117	0.176
-283.530	68.064	0.338	-0.340
-282.516	231.469	-0.093	0.149
-281.501	284.599	0.152	0.268
-280.486	-108.801	-0.075	0.016
-279.472	-200.000	0.032	0.150
-278.457	-124.595	-0.081	-0.012
-277.443	584.306	-0.026	-0.063
-276.428	9.439	0.234	-0.174
-275.413	479.628	-0.098	0.218
-274.399	212.785	0.096	-0.148
-273.384	-100.400	0.288	0.070
-272.370	-37.650	-0.385	0.201
-271.355	-55.073	-0.110	-0.049
-270.340	136.559	0.171	0.219
-269.326	286.222	0.123	0.218
-268.311	256.555	0.104	0.175
-267.297	629.315	0.103	-0.257
-266.282	270.624	0.127	0.219
-265.267	-55.347	-0.017	0.007
-264.253	43.512	0.230	-0.206
-263.238	-34.395	0.060	0.032
-262.224	800.000	-0.053	0.160
-261.209	-43.496	-0.343	0.170
-260.195	-200.000	-0.017	-0.103
-259.180	-102.932	0.158	-0.037
-258.165	70.450	-0.167	-0.169
-257.151	-115.413	0.243	0.045
-256.136	-123.711	0.081	0.013
-255.122	-200.000	-0.009	-0.223
-254.107	-127.481	-0.269	-0.038
-253.092	-75.117	-0.187	0.066
-252.078	3.162	-0.093	0.066
-251.063	-95.142	0.087	-0.023
-250.049	470.457	-0.049	-0.108
-249.034	-200.000	-0.033	0.149
-248.019	776.524	-0.042	0.113
-247.005	-48.092	-0.038	-0.018
-245.990	-51.478	0.211	0.097
-244.976	796.047	-0.033	-0.089
-243.961	-200.000	0.002	-0.025
-242.946	-200.000	0.037	0.378
-241.932	-100.765	-0.115	0.028
-240.917	9.771	-0.294	-0.219
-239.903	800.000	0.059	0.209
-238.888	-200.000	0.009	-0.229
-237.873	155.132	0.162	-0.219
-236.859	-200.000	0.009	-0.174
-235.844	22.557	0.314	-0.252
-234.830	-200.000	0.011	-0.133
-233.815	523.361	-0.043	-0.100
-232.800	109.407	0.160	-0.188
-231.786	37.241	0.106	-0.092
-230.771	800.000	0.069	0.284
-229.757	-37.704	0.081	0.042
-228.742	422.114	-0.048	0.101
-227.727	800.000	-0.014	-0.046
-226.713	145.103	0.032	-0.042
-225.698	-195.263	0.055	0.000
-224.684	800.000	-0.119	0.454
-223.669	-200.000	0.001	0.060
-222.655	800.000	-0.038	-0.122
-221.640	170.838	-0.142	-0.199
-220.625	177.375	-0.136	-0.194
-219.611	-58.914	0.362	0.153
-218.596	-200.000	-0.016	-0.075
-217.582	800.000	0.102	0.279
-216.567	45.099	-0.036	-0.032
-215.552	244.117	-0.214	0.352
-214.538	-4.564	-0.138	-0.093
-213.523	-193.162	-0.184	0.002
-212.509	210.512	-0.035	-0.053
-211.494	178.117	-0.133	0.189
-210.479	-8.583	-0.057	0.038
-209.465	-19.019	0.163	-0.099
-208.450	324.950	-0.166	-0.310
-207.436	-22.156	-0.041	0.024
-206.421	-4.068	-0.232	0.157
-205.406	131.008	0.161	0.203
-204.392	-200.000	0.007	0.439
-203.377	-173.015	-0.141	0.004
-202.363	-117.000	0.460	-0.082
-201.348	-200.000	0.029	0.240
-200.333	-70.412	0.485	0.180
-199.319	-170.022	0.484	0.017
-198.304	800.000	0.086	-0.364
-197.290	-200.000	-0.017	-0.076
-196.275	755.029	-0.103	-0.272
-195.260	-39.209	-0.143	-0.074
-194.246	138.497	-0.063	0.081
-193.231	-200.000	0.005	-0.423
-192.217	-41.861	-0.155	-0.078
-191.202	555.938	0.053	0.124
-190.187	-56.658	-0.125	0.054
-189.173	632.253	0.081	0.200
-188.158	800.000	0.096	0.300
-187.144	-42.607	-0.463	0.231
-186.129	-200.000	-0.014	-0.174
-185.114	800.000	-0.078	-0.218
-184.100	-200.000	0.032	0.196
-183.085	237.835	0.138	0.224
-182.071	393.701	-0.070	-0.143
-181.056	165.340	-0.086	-0.119
-180.042	800.000	-0.083	-0.323
-179.027	362.525	-0.060	0.117
-178.012	-182.129	0.178	0.003
-176.998	-21.368	0.288	-0.172
-175.983	23.408	-0.198	-0.159
-174.969	-87.473	0.075	-0.022
-173.954	-6.058	-0.031	-0.020
-172.939	167.149	-0.063	0.088
-171.925	-62.712	0.124	0.050
-170.910	262.792	0.099	0.168
-169.896	-200.000	0.007	-0.232
-168.881	462.969	0.032	-0.069
-167.866	-17.261	0.483	-0.298
-166.852	143.028	0.164	0.213
-165.837	46.672	-0.206	-0.187
-164.823	-148.986	0.165	0.013
-163.808	452.184	-0.146	0.316
-162.793	64.416	-0.087	-0.086
-161.779	-200.000	0.006	0.506
-160.764	-59.346	0.282	-0.118
-159.750	-136.727	0.235	-0.027
-158.735	-136.890	0.429	-0.048
-157.720	212.779	-0.086	0.133
-156.706	210.677	-0.222	-0.342
-155.691	-200.000	-0.004	-0.260
-154.677	800.000	0.071	0.254
-153.662	-176.522	0.077	0.002
-152.647	-200.000	0.015	-0.081
-151.633	-200.000	0.073	-0.000
-150.618	214.586	-0.112	0.173
-149.604	-200.000	-0.026	-0.272
-148.589	671.716	0.097	-0.246
-147.574	78.615	0.176	0.184
-146.560	-1.090	-0.205	0.142
-145.545	-47.432	0.251	-0.119
-144.531	60.522	0.090	0.087
-143.516	542.905	0.177	-0.412
-142.502	-60.658	-0.155	0.064
-141.487	-200.000	-0.005	-0.123
-140.472	209.533	0.038	-0.058
-139.458	-200.000	-0.039	0.210
-138.443	531.603	0.092	-0.214
-137.429	211.681	0.167	-0.257
-136.414	-36.224	0.395	0.208
-135.399	-72.160	-0.138	-0.050
-134.385	-175.542	0.186	-0.005
-133.370	-6.048	-0.076	-0.051
-132.356	-140.032	0.093	-0.010
-131.341	92.039	-0.204	-0.225
-130.326	800.000	0.029	-0.087
-129.312	-121.967	0.146	-0.023
-128.297	40.319	0.099	0.087
-127.283	183.891	0.157	-0.227
-126.268	2.309	0.139	0.098
-125.253	195.755	0.088	-0.131
-124.239	86.380	0.172	-0.185
-123.224	800.000	0.030	0.111
-122.210	261.536	0.102	-0.172
-121.195	800.000	0.024	0.075
-120.180	800.000	-0.031	-0.132
-119.166	800.000	-0.028	0.077
-118.151	139.005	0.126	-0.162
-117.137	-80.525	-0.282	-0.092
-116.122	63.451	0.048	0.047
-115.107	-171.169	-0.216	-0.007
-114.093	10.484	0.054	-0.040
-113.078	-91.790	-0.069	-0.019
-112.064	-149.573	-0.248	0.019
-111.049	121.729	0.157	0.191
-110.034	-200.000	0.075	-0.468
-109.020	-31.508	-0.130	0.071
-108.005	-200.000	0.061	0.304
-106.991	-122.880	-0.372	-0.059
-105.976	52.334	-0.128	-0.119
-104.962	-93.634	0.224	0.060
-103.947	-63.617	-0.582	0.233
-102.932	-200.000	-0.037	-0.201
-101.918	-39.361	0.173	-0.088
-100.903	-165.911	0.100	0.004
-99.889	-132.970	0.208	0.026
-98.874	-154.592	-0.233	-0.015
-97.859	51.788	-0.244	-0.226
-96.845	-35.421	0.153	-0.081
-95.830	800.000	-0.093	0.284
-94.816	201.450	-0.105	-0.157
-93.801	800.000	0.071	0.254
-92.786	25.000	-0.132	0.107
-91.772	-2.290	0.269	-0.184
-90.757	800.000	-0.115	0.383
-89.743	-85.884	0.166	-0.050
-88.728	800.000	0.042	0.113
-87.713	28.053	0.178	-0.146
-86.699	-170.011	0.180	0.006
-85.684	74.363	0.259	-0.265
-84.670	47.613	-0.064	0.058
-83.655	89.935	-0.119	-0.129
-82.640	-200.000	-0.003	-0.160
-81.626	790.738	0.167	0.447
-80.611	-199.761	-0.118	-0.001
-79.597	-200.000	0.005	-0.029
-78.582	4.753	0.231	0.166
-77.567	189.680	-0.061	-0.090
-76.553	254.952	-0.058	0.097
-75.538	50.335	-0.188	-0.173
-74.524	-200.000	-0.059	-0.407
-73.509	800.000	-0.040	-0.147
-72.494	-168.016	-0.304	-0.012
-71.480	-165.078	0.219	0.009
-70.465	-151.207	-0.055	-0.004
-69.451	-12.547	0.273	0.174
-68.436	-124.519	0.052	-0.008
-67.422	-200.000	0.086	-0.394
-66.407	-119.060	-0.218	0.037
-65.392	-73.690	0.163	0.058
-64.378	54.953	-0.323	0.303
-63.363	6.304	0.144	0.104
-62.349	800.000	0.108	0.298
-61.334	123.740	-1.015	-1.240
-60.319	208.283	0.433	0.659
-59.305	800.000	-0.456	-1.378
-58.290	334.007	0.787	1.482
-57.276	310.832	0.873	1.591
-56.261	-200.000	119.922	619.176
-55.246	426.140	1524.839	3198.149
-54.232	149.597	2679.494	3532.761
-53.217	91.710	2266.516	2480.414
-52.203	33.348	1884.897	1592.083
-51.188	27.697	1682.178	1378.249
-50.173	25.407	1643.606	1329.664
-49.159	45.219	1709.210	1533.347
-48.144	43.415	1722.137	1531.223
-47.130	27.090	1674.417	1367.101
-46.115	24.719	1659.327	1337.019
-45.100	24.589	1654.025	1331.728
-44.086	24.535	1652.357	1329.931
-43.071	24.567	1649.641	1327.931
-42.057	24.496	1646.847	1325.097
-41.042	24.555	1645.028	1324.023
-40.027	24.539	1643.000	1322.221
-39.013	24.373	1642.018	1320.145
-37.998	24.444	1640.456	1319.362
-36.984	24.498	1638.837	1318.408
-35.969	24.584	1637.198	1317.674
-34.954	24.659	1636.040	1317.244
-33.940	24.633	1634.209	1315.523
-32.925	24.597	1632.447	1313.788
-31.911	24.637	1630.487	1312.454
-30.896	24.637	1629.258	1311.410
-29.881	24.707	1627.586	1310.526
-28.867	24.651	1626.059	1308.832
-27.852	24.647	1624.594	1307.572
-26.838	24.654	1623.210	1306.460
-25.823	24.625	1622.097	1305.301
-24.809	24.640	1620.712	1304.244
-23.794	24.595	1619.279	1302.709
-22.779	24.659	1617.902	1302.013
-21.765	24.665	1616.038	1300.507
-20.750	24.623	1614.383	1298.821
-19.736	24.584	1613.194	1297.530
-18.721	24.684	1611.775	1297.064
-17.706	24.586	1610.758	1295.478
-16.692	24.664	1608.893	1294.495
-15.677	24.673	1607.563	1293.435
-14.663	24.652	1606.309	1292.225
-13.648	24.664	1604.962	1291.180
-12.633	24.658	1603.492	1289.902
-11.619	24.665	1601.627	1288.399
-10.604	24.725	1599.976	1287.452
-9.590	24.700	1599.038	1286.467
-8.575	24.722	1597.743	1285.534
-7.560	24.647	1596.557	1283.984
-6.546	24.637	1595.802	1283.255
-5.531	24.707	1594.915	1282.994
-4.517	24.627	1593.308	1281.081
-3.502	24.654	1592.366	1280.466
-2.487	24.741	1590.268	1279.351
-1.473	24.189	1578.643	1266.028
-0.458	21.070	1559.366	1228.590
0.556	15.786	1561.063	1196.644
1.571	13.396	1584.696	1197.375
2.586	13.030	1596.551	1203.561
3.600	11.887	1543.024	1155.043
4.615	6.608	1438.288	1041.756
5.629	1.289	1379.275	965.172
6.644	0.236	1372.264	953.518
7.659	0.155	1371.026	952.061
8.673	0.114	1370.222	951.154
9.688	0.185	1367.950	949.941
10.702	-0.039	1365.119	946.483
11.717	2.628	1367.924	965.151
12.731	9.419	1379.069	1015.927
13.746	15.349	1387.298	1059.462
14.761	16.835	1388.935	1070.008
15.775	16.119	1386.917	1063.839
16.790	15.157	1384.520	1055.849
17.804	14.411	1382.269	1049.342
18.819	14.194	1380.180	1046.298
19.834	13.768	1379.735	1043.188
20.848	13.662	1377.994	1041.119
21.863	13.330	1377.172	1038.318
22.877	13.214	1375.657	1036.356
23.892	13.086	1374.925	1034.913
24.907	13.079	1374.175	1034.214
25.921	13.170	1372.880	1033.713
26.936	13.143	1372.216	1032.958
27.950	13.208	1371.531	1032.753
28.965	13.310	1369.902	1032.071
29.980	13.257	1369.602	1031.427
30.994	13.435	1368.371	1031.515
32.009	13.450	1367.622	1030.952
33.023	13.325	1366.796	1029.463
34.038	13.373	1365.220	1028.482
35.053	13.371	1364.125	1027.554
36.067	13.233	1363.210	1025.919
37.082	13.331	1361.798	1025.369
38.096	13.378	1360.445	1024.554
39.111	13.374	1359.825	1023.968
40.126	13.201	1359.809	1022.800
41.140	13.192	1358.967	1022.019
42.155	13.144	1358.210	1021.063
43.169	13.161	1357.872	1020.819
44.184	13.042	1357.875	1019.997
45.199	13.137	1357.087	1019.901
46.213	13.254	1356.414	1020.030
47.228	13.220	1355.431	1018.992
48.242	13.243	1354.299	1018.193
49.257	13.245	1353.056	1017.177
50.271	13.271	1351.315	1015.940
51.286	13.350	1349.783	1015.182
52.301	13.274	1348.922	1013.976
53.315	13.224	1347.721	1012.677
54.330	13.154	1347.115	1011.704
55.344	13.237	1345.753	1011.102
56.359	13.228	1344.577	1010.071
57.374	13.125	1343.865	1008.821
58.388	13.103	1342.942	1007.905
59.403	13.126	1342.619	1007.712
60.417	13.031	1341.903	1006.507
61.432	13.053	1341.050	1005.909
62.447	12.945	1340.248	1004.566
63.461	13.062	1338.713	1004.034
64.476	13.110	1337.471	1003.306
65.490	13.009	1336.244	1001.684
66.505	13.084	1334.717	1000.904
67.520	12.979	1333.902	999.571
68.534	13.094	1332.543	999.161
69.549	13.087	1331.184	998.007
70.563	13.075	1330.378	997.247
71.578	13.019	1329.012	995.792
72.593	13.062	1327.675	994.963
73.607	12.979	1327.485	994.236
74.622	12.927	1326.831	993.343
75.636	12.939	1325.910	992.636
76.651	12.978	1325.328	992.348
77.666	12.970	1324.896	991.890
78.680	13.000	1324.318	991.549
79.695	13.042	1322.857	990.619
80.709	12.953	1322.661	989.853
81.724	13.070	1321.569	989.648
82.739	13.072	1320.662	988.896
83.753	13.178	1319.754	988.760
84.768	13.330	1318.186	988.403
85.782	13.206	1317.139	986.792
86.797	13.249	1316.196	986.258
87.812	13.266	1314.723	985.167
88.826	13.077	1313.714	983.198
89.841	13.169	1312.857	983.014
90.855	13.235	1311.797	982.530
91.870	13.245	1310.707	981.683
92.884	13.274	1310.074	981.293
93.899	13.282	1309.316	980.690
94.914	13.353	1308.293	980.253
95.928	13.318	1307.651	979.480
96.943	13.379	1306.479	978.878
97.957	13.428	1305.113	978.058
98.972	13.232	1304.527	976.372
99.987	13.213	1303.574	975.463
101.001	13.188	1302.636	974.527
102.016	13.274	1301.434	974.050
103.030	13.395	1300.270	973.803
104.045	13.355	1299.808	973.135
105.060	13.222	1298.340	971.169
106.074	13.274	1297.522	970.776
107.089	13.200	1295.968	969.092
108.103	13.133	1294.642	967.626
109.118	13.079	1293.220	966.157
110.133	13.097	1291.876	965.177
111.147	13.139	1290.681	964.443
112.162	13.205	1289.452	963.821
113.176	13.259	1288.125	963.059
114.191	13.201	1287.735	962.346
115.206	13.219	1286.335	961.320
116.220	13.162	1285.260	960.099
117.235	13.191	1284.521	959.629
118.249	13.169	1283.417	958.591
119.264	13.079	1282.632	957.397
120.279	13.127	1281.291	956.595
121.293	13.229	1280.067	956.186
122.308	13.137	1279.278	954.976
123.322	13.131	1278.224	954.073
124.337	13.187	1276.962	953.370
125.352	13.141	1276.068	952.354
126.366	13.147	1274.548	951.170
127.381	13.180	1273.687	950.631
128.395	13.149	1272.882	949.770
129.410	13.247	1270.963	948.815
130.424	13.140	1270.789	947.986
131.439	13.190	1269.623	947.320
132.454	13.161	1268.905	946.532
133.468	13.209	1267.811	945.913
134.483	13.252	1266.864	945.365
135.497	13.236	1265.915	944.484
136.512	13.270	1264.571	943.593
137.527	13.267	1263.139	942.421
138.541	13.195	1261.735	940.882
139.556	13.329	1260.198	940.410
140.570	13.399	1259.262	940.026
141.585	13.329	1258.609	939.058
142.600	13.395	1257.456	938.489
143.614	13.348	1256.370	937.331
144.629	13.412	1255.204	936.741
145.643	13.450	1253.722	935.767
146.658	13.314	1253.079	934.438
147.673	13.400	1251.248	933.473
148.687	13.230	1250.951	932.207
149.702	13.301	1249.189	931.214
150.716	13.349	1247.682	930.280
151.731	13.331	1246.548	929.252
152.746	13.341	1245.504	928.445
153.760	13.323	1244.287	927.356
154.775	13.380	1243.553	927.047
155.789	13.360	1242.421	926.007
156.804	13.488	1241.046	925.617
157.819	13.498	1240.265	925.006
158.833	13.567	1239.143	924.476
159.848	13.491	1238.456	923.456
160.862	13.529	1237.314	922.736
161.877	13.545	1236.296	921.980
162.892	13.463	1234.883	920.389
163.906	13.432	1234.207	919.634
164.921	13.477	1233.287	919.116
165.935	13.517	1232.607	918.751
166.950	13.423	1231.922	917.637
167.964	13.611	1230.900	917.835
168.979	13.477	1230.450	916.676
169.994	13.593	1229.528	916.553
171.008	13.595	1228.405	915.644
172.023	13.620	1227.893	915.323
173.037	13.727	1226.712	914.951
174.052	13.671	1225.993	914.022
175.067	13.606	1225.188	912.984
176.081	13.498	1224.541	911.825
177.096	13.492	1223.511	910.945
178.110	13.533	1222.170	910.093
179.125	13.560	1221.213	909.448
180.140	13.649	1220.031	908.975
181.154	13.618	1218.785	907.797
182.169	13.678	1217.457	907.054
183.183	13.714	1216.221	906.251
184.198	13.736	1214.842	905.261
185.213	13.802	1213.989	904.905
186.227	13.803	1213.216	904.258
187.242	13.815	1211.952	903.301
188.256	13.850	1211.152	902.812
189.271	13.824	1210.078	901.790
190.286	13.802	1208.733	900.590
191.300	13.637	1208.293	899.289
192.315	13.602	1207.821	898.667
193.329	13.640	1207.342	898.439
194.344	13.659	1206.727	898.004
195.359	13.842	1205.559	898.043
196.373	13.775	1205.216	897.345
197.388	13.885	1204.994	897.697
198.402	13.859	1204.538	897.136
199.417	13.923	1203.370	896.533
200.432	14.004	1202.755	896.434
201.446	14.047	1202.076	896.079
202.461	14.131	1200.971	895.630
203.475	14.058	1199.831	894.309
204.490	14.039	1198.870	893.411
205.504	14.040	1197.672	892.444
206.519	14.081	1196.166	891.464
207.534	14.012	1195.270	890.344
208.548	14.016	1194.358	889.607
209.563	14.065	1193.714	889.313
210.577	14.000	1192.834	888.232
211.592	14.124	1191.630	887.920
212.607	14.114	1190.882	887.228
213.621	14.193	1189.784	886.753
214.636	14.143	1189.195	885.970
215.650	14.247	1188.072	885.605
216.665	14.244	1187.038	884.740
217.680	14.211	1186.379	883.996
218.694	14.337	1185.581	883.995
219.709	14.233	1185.136	883.033
220.723	14.261	1184.050	882.293
221.738	14.314	1183.471	882.063
222.753	14.232	1182.948	881.162
223.767	14.411	1181.558	880.997
224.782	14.332	1181.218	880.248
225.796	14.448	1180.662	880.365
226.811	14.385	1179.805	879.318
227.826	14.521	1179.076	879.413
228.840	14.314	1178.803	878.042
229.855	14.302	1178.118	877.391
230.869	14.453	1177.175	877.406
231.884	14.428	1176.123	876.411
232.899	14.301	1175.171	874.956
233.913	14.335	1174.561	874.602
234.928	14.310	1173.980	873.960
235.942	14.299	1173.280	873.306
236.957	14.308	1172.413	872.632
237.972	14.370	1171.705	872.350
238.986	14.451	1170.923	872.115
240.001	14.343	1170.278	870.993
241.015	14.405	1169.277	870.495
242.030	14.442	1168.617	870.122
243.045	14.449	1167.945	869.579
244.059	14.443	1167.040	868.799
245.074	14.521	1166.108	868.434
246.088	14.671	1165.245	868.493
247.103	14.583	1164.543	867.434
248.117	14.748	1163.268	867.269
249.132	14.641	1163.175	866.565
250.147	14.705	1162.208	866.103
251.161	14.712	1161.885	865.819
252.176	14.739	1161.116	865.311
253.190	14.781	1160.293	864.835
254.205	14.874	1159.783	864.862
255.220	14.849	1159.294	864.290
256.234	14.885	1158.532	863.834
257.249	14.920	1157.761	863.359
258.263	14.823	1157.448	862.550
259.278	14.890	1156.636	862.216
260.293	14.899	1156.148	861.823
261.307	14.946	1155.464	861.477
262.322	14.941	1154.804	860.882
263.336	14.986	1154.133	860.539
264.351	15.113	1153.387	860.556
265.366	15.078	1153.156	860.132
266.380	15.053	1152.183	859.201
267.395	15.054	1151.403	858.548
268.409	15.067	1150.348	857.752
269.424	14.886	1150.261	856.685
270.439	14.982	1149.657	856.652
271.453	15.025	1148.424	855.873
272.468	15.128	1147.208	855.418
273.482	15.024	1147.087	854.722
274.497	14.945	1146.631	853.904
275.512	15.063	1145.337	853.464
276.526	15.165	1144.574	853.340
277.541	15.174	1143.594	852.580
278.555	15.156	1143.323	852.212
279.570	15.179	1142.671	851.768
280.585	15.168	1141.752	850.950
281.599	15.239	1140.903	850.601
282.614	15.284	1139.876	849.992
283.628	15.338	1138.656	849.279
284.643	15.295	1137.773	848.326
285.657	15.224	1137.179	847.449
286.672	15.262	1136.281	846.897
287.687	15.318	1135.416	846.462
288.701	15.396	1134.138	845.825
289.716	15.342	1133.535	845.032
290.730	15.389	1133.054	844.833
291.745	15.249	1132.637	843.746
292.760	15.303	1131.479	843.075
293.774	15.456	1130.784	843.256
294.789	15.502	1130.363	843.098
295.803	15.392	1130.093	842.266
296.818	15.308	1129.211	841.115
297.833	15.353	1128.110	840.446
298.847	15.470	1127.413	840.435
299.862	15.460	1126.570	839.683
300.876	15.457	1126.030	839.191
301.891	15.562	1125.309	839.107
302.906	15.508	1124.734	838.335
303.920	15.568	1123.871	837.917
304.935	15.693	1123.154	837.928
305.949	15.660	1122.518	837.216
306.964	15.693	1121.983	836.908
307.979	15.621	1121.298	835.964
308.993	15.670	1120.376	835.449
310.008	15.590	1119.815	834.555
311.022	15.661	1119.185	834.368
312.037	15.734	1117.722	833.564
313.052	15.633	1117.397	832.745
314.066	15.612	1116.255	831.719
315.081	15.670	1115.328	831.243
316.095	15.573	1115.014	830.454
317.110	15.729	1113.891	830.314
318.125	15.774	1113.125	829.893
319.139	15.824	1112.796	829.818
320.154	15.675	1111.861	828.315
321.168	15.690	1111.717	828.210
322.183	15.657	1110.793	827.283
323.197	15.797	1110.364	827.582
324.212	15.646	1109.471	826.098
325.227	15.758	1109.383	826.512
326.241	15.765	1108.478	825.800
327.256	15.802	1107.524	825.195
328.270	15.803	1106.521	824.378
329.285	15.686	1106.022	823.362
330.300	15.755	1104.565	822.541
331.314	15.718	1103.668	821.621
332.329	15.798	1102.719	821.231
333.343	15.949	1101.593	821.056
334.358	15.928	1101.122	820.533
335.373	15.894	1100.750	820.016
336.387	15.895	1100.104	819.469
337.402	15.916	1099.098	818.747
338.416	15.945	1098.650	818.481
339.431	16.054	1097.865	818.353
340.446	16.162	1097.156	818.278
341.460	16.036	1096.208	816.886
342.475	16.096	1095.617	816.665
343.489	16.083	1095.144	816.178
344.504	16.206	1093.718	815.638
345.519	16.208	1093.164	815.160
346.533	16.216	1091.990	814.251
347.548	16.296	1091.370	814.105
348.562	16.256	1090.779	813.398
349.577	16.351	1089.713	812.989
350.592	16.228	1089.348	812.051
351.606	16.303	1087.989	811.327
352.621	16.192	1087.498	810.355
353.635	16.143	1087.126	809.771
354.650	16.245	1086.198	809.498
355.665	16.191	1085.733	808.820
356.679	16.280	1085.095	808.702
357.694	16.245	1084.607	808.101
358.708	16.313	1083.348	807.416
359.723	16.282	1083.184	807.072
360.738	16.298	1082.508	806.571
361.752	16.172	1081.954	805.490
362.767	16.372	1081.233	805.836
363.781	16.379	1080.861	805.519
364.796	16.379	1080.197	804.954
365.810	16.432	1079.444	804.571
366.825	16.550	1078.642	804.464
367.840	16.494	1078.612	804.103
368.854	16.667	1077.627	804.122
369.869	16.597	1077.123	803.342
370.883	16.547	1076.189	802.338
371.898	16.408	1075.793	801.314
372.913	16.557	1074.931	801.303
373.927	16.542	1074.852	801.105
374.942	16.601	1073.561	800.349
375.956	16.668	1072.745	799.988
376.971	16.704	1072.295	799.752
377.986	16.620	1072.127	799.156
379.000	16.636	1071.561	798.740
380.015	16.794	1070.923	798.941
381.029	16.821	1070.306	798.535
382.044	16.705	1069.581	797.379
383.059	16.878	1068.336	797.194
384.073	16.846	1067.853	796.612
385.088	16.938	1066.942	796.293
386.102	16.845	1066.142	795.189
387.117	16.857	1065.150	794.435
388.132	16.858	1064.269	793.713
389.146	16.742	1063.407	792.459
390.161	16.934	1062.406	792.538
391.175	16.789	1062.278	791.696
392.190	16.829	1061.436	791.185
393.205	17.045	1060.311	791.284
394.219	16.948	1059.669	790.284
395.234	16.887	1059.133	789.527
396.248	16.815	1057.806	788.136
397.263	16.931	1056.975	787.986
398.278	16.937	1056.093	787.287
399.292	16.884	1055.355	786.422
400.307	16.798	1054.948	785.650
401.321	16.962	1054.154	785.749
402.336	16.788	1053.969	784.736
403.350	16.954	1052.986	784.700
404.365	17.099	1051.843	784.448
405.380	17.054	1051.516	783.930
406.394	17.058	1050.929	783.441
407.409	17.176	1049.691	782.991
408.423	17.124	1049.093	782.235
409.438	17.047	1048.947	781.703
410.453	17.197	1047.876	781.528
411.467	17.272	1047.056	781.190
412.482	17.226	1046.557	780.539
413.496	17.210	1045.995	779.978
414.511	17.335	1045.433	780.061
415.526	17.371	1044.940	779.791
416.540	17.355	1044.307	779.175
417.555	17.427	1043.833	779.082
418.569	17.274	1043.572	778.117
419.584	17.402	1042.751	778.024
420.599	17.361	1042.347	777.465
421.613	107.746	1328.167	1485.635
422.628	98.983	1369.764	1485.741
