DTS Sentinel unit serial number:	SN413079Multiplexer serial number:	ORYXHardware model number:	OX4-SRSoftware version number:	ORYX F/W v4.00 Oryx Data Collector v3.7.2.0data status	okinstallation	princeton_trtdifferential loss correction	single-endedforward channel	channel 2reverse channel	N/Adate	2019/09/12time	11:09:11forward acquisition time	60.00reverse acquisition time	0.00gamma	496.2192k internal	0.2305k external	0.2305temperature offset calibration	1.0071default loss term (dB/km)	0.3790temperature slope calibration	1.0000multiplexer offset coefficient	1.0000multiplexer slope coefficient	1.0000fibre end	0.00T internal ref (°C)	38.70T ext. ref 1 (°C)	1.95T ext. ref 2 (°C)	35.65length (m)	temperature (°C)	Stokes	anti-Stokes-747.200	26.231	0.200	-0.170
-746.185	30.644	0.276	-0.241
-745.171	-200.000	0.071	-0.376
-744.156	800.000	0.155	0.439
-743.142	-200.000	0.012	-0.227
-742.127	8.551	0.142	0.108
-741.112	-200.000	0.004	0.062
-740.098	50.709	0.317	0.306
-739.083	800.000	0.095	0.356
-738.069	161.776	0.025	0.036
-737.054	-31.684	-0.118	0.068
-736.039	-80.541	0.343	0.116
-735.025	-7.466	-0.096	-0.066
-734.010	-27.002	-0.371	0.220
-732.996	800.000	-0.163	0.597
-731.981	-136.329	-0.407	-0.048
-730.966	-92.066	0.245	0.070
-729.952	341.138	0.030	-0.060
-728.937	-155.245	-0.167	-0.011
-727.923	-131.534	-0.408	-0.055
-726.908	306.554	0.153	-0.290
-725.894	800.000	0.037	0.127
-724.879	-137.423	-0.408	-0.047
-723.864	800.000	-0.044	-0.195
-722.850	-103.108	-0.266	-0.064
-721.835	457.638	-0.066	-0.149
-720.821	-200.000	-0.071	0.392
-719.806	-180.670	-0.281	-0.006
-718.791	52.562	-0.128	-0.124
-717.777	-52.033	0.415	0.196
-716.762	26.672	0.274	-0.233
-715.748	-114.967	0.226	-0.044
-714.733	14.137	-0.051	-0.040
-713.718	800.000	0.121	0.339
-712.704	92.116	0.058	0.067
-711.689	94.396	0.082	0.094
-710.675	402.610	0.167	-0.356
-709.660	-177.866	0.070	0.002
-708.645	-200.000	-0.040	-0.417
-707.631	63.520	-0.148	-0.151
-706.616	-48.326	0.381	-0.187
-705.602	74.199	-0.099	0.106
-704.587	229.350	0.142	-0.236
-703.572	11.093	0.185	-0.144
-702.558	-180.017	0.181	0.004
-701.543	46.199	0.231	0.217
-700.529	82.654	-0.080	0.088
-699.514	-162.510	0.138	0.007
-698.499	-28.200	-0.346	-0.203
-697.485	190.947	-0.075	-0.114
-696.470	-200.000	0.031	-0.163
-695.456	79.717	0.055	-0.060
-694.441	20.120	0.050	-0.041
-693.426	-1.451	-0.160	-0.115
-692.412	-200.000	-0.040	-0.231
-691.397	68.409	0.123	0.128
-690.383	533.391	-0.121	-0.291
-689.368	-200.000	0.018	0.112
-688.354	561.193	-0.123	0.302
-687.339	745.713	0.071	-0.194
-686.324	-139.871	-0.099	0.011
-685.310	68.034	-0.208	-0.216
-684.295	104.385	0.165	0.198
-683.281	-116.748	-0.266	-0.050
-682.266	48.178	-0.103	0.098
-681.251	-32.685	0.252	-0.142
-680.237	128.597	-0.107	-0.139
-679.222	-111.293	0.224	-0.047
-678.208	-200.000	-0.015	-0.300
-677.193	-200.000	-0.018	-0.117
-676.178	-53.266	-0.269	-0.125
-675.164	639.581	0.108	0.279
-674.149	-144.051	-0.063	0.006
-673.135	156.520	0.140	0.197
-672.120	109.708	0.162	-0.197
-671.105	800.000	-0.083	-0.316
-670.091	285.757	-0.013	0.025
-669.076	-72.312	0.302	-0.114
-668.062	-155.286	0.197	-0.013
-667.047	170.302	0.188	0.273
-666.032	434.720	0.086	-0.190
-665.018	651.672	-0.098	0.254
-664.003	-5.249	0.412	0.287
-662.989	-200.000	0.204	-0.001
-661.974	-200.000	-0.039	0.401
-660.959	-127.871	-0.100	0.015
-659.945	-200.000	-0.030	0.349
-658.930	-1.573	0.149	-0.106
-657.916	16.247	-0.171	-0.137
-656.901	69.961	-0.268	-0.280
-655.886	-151.314	-0.101	0.008
-654.872	-103.439	0.200	0.048
-653.857	220.012	-0.087	-0.141
-652.843	146.356	-0.146	0.198
-651.828	114.120	-0.019	0.024
-650.814	-122.380	-0.514	0.085
-649.799	23.670	0.195	0.163
-648.784	105.863	-0.082	0.098
-647.770	0.791	0.064	0.047
-646.755	349.587	0.024	-0.048
-645.741	-63.006	-0.097	-0.041
-644.726	708.787	0.106	-0.284
-643.711	250.042	-0.063	-0.108
-642.697	-115.044	0.108	0.021
-641.682	215.050	-0.132	-0.212
-640.668	800.000	-0.049	-0.218
-639.653	-121.078	-0.297	-0.051
-638.638	5.089	-0.131	0.098
-637.624	143.263	-0.157	0.212
-636.609	-7.564	0.116	0.080
-635.595	-35.544	-0.228	0.126
-634.580	-71.010	-0.144	0.055
-633.565	-93.873	0.140	0.039
-632.551	-200.000	0.029	-0.129
-631.536	-72.348	-0.372	0.140
-630.522	-111.972	-0.356	0.073
-629.507	178.005	-0.071	-0.106
-628.492	70.075	0.304	0.318
-627.478	288.297	0.075	0.138
-626.463	26.183	-0.141	-0.119
-625.449	78.103	0.312	-0.337
-624.434	-137.754	-0.334	-0.038
-623.419	13.106	-0.272	0.214
-622.405	-74.692	0.283	0.103
-621.390	800.000	0.114	0.368
-620.376	57.574	0.312	-0.309
-619.361	-21.413	-0.245	-0.152
-618.346	-51.656	-0.280	-0.132
-617.332	182.321	-0.084	-0.126
-616.317	-45.986	-0.477	0.238
-615.303	-51.432	0.085	-0.040
-614.288	504.833	0.038	0.089
-613.273	64.204	0.213	0.218
-612.259	16.299	-0.049	-0.039
-611.244	-23.864	0.346	-0.210
-610.230	-56.956	-0.324	-0.145
-609.215	185.262	0.233	-0.350
-608.201	-164.632	-0.199	-0.009
-607.186	-200.000	0.001	-0.128
-606.171	-200.000	0.002	0.119
-605.157	-27.270	-0.068	0.040
-604.142	-154.645	-0.180	-0.012
-603.128	-106.372	0.329	0.075
-602.113	448.784	0.143	-0.319
-601.098	-200.000	0.007	0.176
-600.084	-34.767	0.174	0.096
-599.069	-200.000	-0.027	-0.217
-598.055	-125.299	-0.238	-0.037
-597.040	-200.000	0.007	-0.109
-596.025	158.209	-0.041	-0.058
-595.011	-58.126	0.226	-0.100
-593.996	-200.000	0.000	-0.080
-592.982	17.781	-0.138	-0.111
-591.967	138.195	-0.066	-0.088
-590.952	8.366	0.176	0.134
-589.938	-156.549	-0.289	0.018
-588.923	-200.000	-0.003	0.244
-587.909	-5.743	-0.186	-0.129
-586.894	-200.000	0.031	0.186
-585.879	800.000	-0.085	0.318
-584.865	359.548	0.116	0.236
-583.850	-45.079	-0.316	0.159
-582.836	-104.281	0.392	0.092
-581.821	688.130	0.054	0.142
-580.806	800.000	0.069	-0.239
-579.792	357.227	-0.162	0.328
-578.777	-40.827	-0.106	0.055
-577.763	-200.000	-0.050	-0.228
-576.748	20.068	0.309	-0.252
-575.733	800.000	-0.126	-0.418
-574.719	800.000	0.039	-0.135
-573.704	-60.829	-0.223	0.096
-572.690	85.346	0.057	-0.063
-571.675	-96.671	-0.145	0.039
-570.661	-21.572	0.306	0.189
-569.646	800.000	0.144	0.444
-568.631	94.427	0.196	0.225
-567.617	231.954	0.054	0.090
-566.602	800.000	-0.098	0.419
-565.588	-200.000	0.010	-0.059
-564.573	75.236	-0.111	-0.118
-563.558	-123.543	0.199	-0.032
-562.544	147.868	0.153	0.208
-561.529	-55.601	-0.215	-0.097
-560.515	48.066	0.027	0.026
-559.500	453.769	0.076	-0.170
-558.485	284.459	-0.068	-0.124
-557.471	-92.366	-0.261	-0.074
-556.456	1.787	0.124	0.090
-555.442	-173.436	0.255	0.008
-554.427	-24.915	-0.128	0.077
-553.412	-200.000	0.027	0.301
-552.398	-47.119	0.234	0.116
-551.383	-174.863	0.217	0.006
-550.369	-198.144	0.165	-0.001
-549.354	321.392	0.067	0.128
-548.339	800.000	0.011	-0.039
-547.325	-200.000	-0.008	0.370
-546.310	106.815	-0.042	-0.050
-545.296	-109.135	0.271	-0.058
-544.281	45.199	-0.075	-0.070
-543.266	-42.742	-0.461	-0.237
-542.252	-200.000	-0.064	-0.318
-541.237	93.308	0.086	-0.099
-540.223	-200.000	-0.019	0.285
-539.208	-200.000	-0.045	0.304
-538.193	136.240	-0.191	-0.252
-537.179	172.168	-0.169	-0.245
-536.164	-200.000	-0.004	-0.113
-535.150	-37.649	0.224	0.121
-534.135	-87.383	0.327	-0.100
-533.121	78.631	-0.073	-0.079
-532.106	44.486	-0.364	-0.337
-531.091	327.651	0.083	-0.161
-530.077	68.960	0.184	-0.191
-529.062	-104.885	0.190	-0.044
-528.048	-47.120	-0.263	-0.130
-527.033	800.000	0.055	-0.158
-526.018	800.000	0.097	-0.374
-525.004	-82.333	0.215	0.071
-523.989	800.000	-0.026	0.087
-522.975	-119.096	0.241	0.043
-521.960	130.023	-0.152	-0.196
-520.945	-52.823	-0.257	0.120
-519.931	771.789	0.023	0.064
-518.916	-81.469	-0.154	0.051
-517.902	-200.000	0.000	-0.153
-516.887	-58.909	-0.371	-0.162
-515.872	-61.251	-0.140	0.060
-514.858	-169.291	-0.090	0.003
-513.843	-200.000	-0.014	-0.184
-512.829	-135.716	0.491	-0.059
-511.814	-200.000	-0.025	0.375
-510.799	-200.000	0.018	-0.092
-509.785	-67.331	0.417	-0.165
-508.770	-89.015	-0.249	-0.074
-507.756	800.000	-0.048	0.186
-506.741	146.535	-0.041	-0.055
-505.726	-159.237	0.166	-0.009
-504.712	-200.000	0.062	0.311
-503.697	0.383	0.116	0.083
-502.683	-120.106	0.313	-0.054
-501.668	128.752	0.087	-0.112
-500.653	-200.000	-0.029	0.246
-499.639	-161.615	0.140	-0.007
-498.624	62.691	-0.166	0.167
-497.610	800.000	-0.044	-0.125
-496.595	800.000	-0.039	-0.164
-495.581	-8.934	0.238	-0.161
-494.566	-44.287	0.178	0.090
-493.551	-71.615	-0.165	-0.062
-492.537	123.013	-0.140	0.177
-491.522	87.848	0.030	-0.034
-490.508	318.726	0.042	-0.080
-489.493	48.839	0.082	0.078
-488.478	-11.473	0.245	-0.162
-487.464	14.321	0.198	-0.156
-486.449	-69.570	-0.041	0.016
-485.435	-102.768	-0.206	0.049
-484.420	-171.738	0.155	-0.005
-483.405	36.686	0.126	-0.112
-482.391	800.000	-0.074	-0.259
-481.376	-95.987	-0.271	-0.073
-480.362	42.955	0.104	-0.096
-479.347	184.367	0.026	-0.038
-478.332	800.000	0.043	0.127
-477.318	800.000	-0.028	0.087
-476.303	219.929	0.063	0.102
-475.289	19.389	0.237	-0.192
-474.274	-63.356	-0.341	0.141
-473.259	10.161	0.284	-0.217
-472.245	-87.569	0.269	-0.082
-471.230	-89.962	0.053	0.016
-470.216	1.014	0.305	-0.220
-469.201	-29.368	0.158	0.091
-468.186	33.887	-0.105	0.092
-467.172	-158.745	-0.140	-0.008
-466.157	660.344	-0.020	-0.053
-465.143	-105.061	0.339	0.078
-464.128	506.712	0.196	0.458
-463.113	-164.088	-0.378	-0.018
-462.099	-137.620	0.119	0.013
-461.084	156.398	0.181	0.251
-460.070	-200.000	0.005	0.160
-459.055	119.606	-0.307	0.383
-458.040	148.712	0.131	0.178
-457.026	-200.000	0.026	0.158
-456.011	7.995	-0.175	-0.132
-454.997	800.000	0.050	-0.219
-453.982	-105.304	-0.245	0.056
-452.968	58.866	0.181	-0.179
-451.953	-48.217	0.395	0.192
-450.938	656.356	0.134	0.346
-449.924	-200.000	0.018	0.134
-448.909	79.520	-0.149	0.161
-447.895	-200.000	-0.086	-0.432
-446.880	-80.534	0.276	-0.093
-445.865	800.000	0.057	-0.243
-444.851	-200.000	0.019	0.163
-443.836	-31.419	0.286	0.162
-442.822	294.606	-0.125	-0.230
-441.807	364.029	0.055	-0.110
-440.792	-200.000	-0.032	0.202
-439.778	58.090	0.304	-0.299
-438.763	131.693	0.078	0.101
-437.749	24.096	-0.158	-0.131
-436.734	-129.895	-0.383	0.053
-435.719	68.250	0.094	-0.096
-434.705	800.000	0.052	-0.190
-433.690	-2.823	0.229	-0.161
-432.676	-0.204	0.202	-0.144
-431.661	102.568	-0.158	0.186
-430.646	-152.476	-0.427	-0.031
-429.632	-90.268	0.087	-0.025
-428.617	800.000	-0.041	0.170
-427.603	-43.917	0.216	-0.109
-426.588	-165.777	0.249	-0.011
-425.573	-66.448	-0.072	-0.029
-424.559	800.000	-0.069	0.240
-423.544	-200.000	0.018	0.549
-422.530	72.727	-0.170	-0.178
-421.515	6.627	-0.211	0.158
-420.500	-136.645	-0.403	-0.047
-419.486	800.000	-0.122	0.364
-418.471	44.680	0.102	0.094
-417.457	-8.262	0.073	-0.049
-416.442	-145.462	-0.277	-0.025
-415.428	112.249	0.237	-0.288
-414.413	202.118	-0.030	-0.046
-413.398	-20.835	-0.287	0.177
-412.384	-129.035	0.314	0.044
-411.369	-164.429	0.358	0.016
-410.355	217.065	-0.178	-0.286
-409.340	-72.669	0.141	-0.052
-408.325	-152.518	0.180	0.013
-407.311	137.881	-0.129	-0.169
-406.296	-3.418	-0.595	-0.416
-405.282	481.608	-0.183	-0.418
-404.267	-138.956	-0.157	0.017
-403.252	800.000	0.051	0.145
-402.238	34.040	-0.138	-0.120
-401.223	51.656	0.086	0.082
-400.209	-109.190	-0.142	0.030
-399.194	-200.000	-0.014	-0.079
-398.179	56.004	0.227	-0.221
-397.165	800.000	0.062	-0.215
-396.150	-50.451	0.099	0.047
-395.136	587.312	0.121	0.300
-394.121	-146.856	0.064	0.006
-393.106	-125.659	0.256	0.039
-392.092	-65.745	-0.091	0.036
-391.077	-96.002	0.183	0.049
-390.063	-200.000	-0.003	-0.114
-389.048	59.241	0.142	0.140
-388.033	144.430	-0.135	-0.181
-387.019	-200.000	0.002	-0.485
-386.004	482.495	-0.047	0.108
-384.990	-200.000	-0.037	-0.203
-383.975	707.205	0.005	0.014
-382.960	5.308	0.089	-0.066
-381.946	-200.000	-0.027	-0.303
-380.931	-200.000	0.038	0.216
-379.917	-34.157	-0.056	0.031
-378.902	-200.000	-0.025	-0.174
-377.888	93.413	0.233	-0.265
-376.873	-200.000	0.003	0.230
-375.858	555.965	0.142	0.344
-374.844	800.000	0.118	0.401
-373.829	-93.722	-0.110	-0.030
-372.815	-111.934	0.267	-0.054
-371.800	-183.969	-0.181	-0.003
-370.785	800.000	-0.048	0.181
-369.771	-117.078	0.229	-0.042
-368.756	-6.718	0.257	-0.176
-367.742	-169.278	0.171	-0.006
-366.727	95.405	-0.128	-0.147
-365.712	166.644	0.043	0.061
-364.698	-200.000	-0.033	-0.377
-363.683	-39.881	-0.146	0.076
-362.669	-125.484	0.109	0.017
-361.654	-189.286	0.331	0.004
-360.639	115.105	0.019	0.024
-359.625	81.430	0.069	-0.075
-358.610	439.045	-0.103	-0.226
-357.596	169.862	-0.231	0.330
-356.581	128.702	-0.222	-0.283
-355.566	800.000	-0.036	-0.157
-354.552	-78.960	0.133	0.045
-353.537	-69.036	-0.086	-0.033
-352.523	800.000	-0.067	-0.189
-351.508	298.117	0.079	-0.145
-350.493	529.078	-0.070	-0.165
-349.479	73.243	-0.092	0.097
-348.464	-47.227	0.099	0.048
-347.450	-46.109	0.173	0.085
-346.435	-105.562	-0.227	-0.052
-345.420	-51.764	-0.046	0.021
-344.406	41.843	0.120	-0.109
-343.391	-88.485	-0.155	-0.046
-342.377	256.485	-0.044	0.076
-341.362	-55.536	-0.013	-0.006
-340.348	103.190	-0.172	-0.202
-339.333	568.779	-0.021	-0.052
-338.318	800.000	-0.055	0.221
-337.304	8.932	-0.108	-0.082
-336.289	326.095	-0.051	-0.099
-335.275	364.335	0.129	-0.260
-334.260	800.000	0.013	-0.059
-333.245	-109.563	-0.318	0.067
-332.231	800.000	-0.068	-0.279
-331.216	72.456	-0.101	-0.106
-330.202	800.000	-0.077	0.255
-329.187	142.844	-0.100	0.133
-328.172	-137.397	0.121	0.014
-327.158	190.878	-0.058	0.087
-326.143	-31.232	-0.065	0.037
-325.129	464.254	-0.247	0.554
-324.114	-8.112	-0.028	0.019
-323.099	-56.776	0.385	-0.170
-322.085	-200.000	-0.005	-0.049
-321.070	56.973	-0.299	-0.292
-320.056	-200.000	0.008	-0.074
-319.041	-17.897	0.337	-0.212
-318.026	-200.000	0.011	0.048
-317.012	211.392	-0.055	0.087
-315.997	800.000	-0.069	-0.209
-314.983	297.310	-0.237	-0.436
-313.968	101.934	-0.131	0.153
-312.953	-200.000	-0.134	-0.000
-311.939	211.555	-0.127	-0.201
-310.924	-125.379	-0.171	0.026
-309.910	196.859	0.033	-0.050
-308.895	259.285	0.023	0.040
-307.880	-90.193	-0.097	0.028
-306.866	-63.282	-0.101	0.042
-305.851	606.281	-0.041	-0.103
-304.837	-108.934	0.132	-0.028
-303.822	-100.666	-0.052	0.013
-302.807	800.000	0.032	0.107
-301.793	175.505	0.077	0.112
-300.778	-120.008	0.274	0.047
-299.764	800.000	0.080	0.245
-298.749	187.542	-0.103	-0.153
-297.735	-200.000	-0.047	-0.299
-296.720	199.435	-0.110	-0.169
-295.705	127.674	-0.238	0.303
-294.691	-200.000	-0.011	0.173
-293.676	84.846	0.136	-0.149
-292.662	-200.000	-0.026	-0.222
-291.647	-78.633	-0.193	0.066
-290.632	3.825	0.280	-0.204
-289.618	348.203	-0.096	0.189
-288.603	222.591	-0.122	0.196
-287.589	450.013	0.099	-0.219
-286.574	78.750	-0.374	0.400
-285.559	123.065	-0.255	0.319
-284.545	-103.432	-0.296	0.070
-283.530	-85.580	-0.264	0.082
-282.516	242.934	0.251	-0.421
-281.501	-200.000	0.076	-0.479
-280.486	-200.000	0.013	0.186
-279.472	-10.175	0.159	-0.106
-278.457	-20.122	0.118	0.072
-277.443	800.000	0.091	-0.286
-276.428	168.097	0.208	0.296
-275.413	68.769	0.275	0.282
-274.399	-81.696	-0.156	0.051
-273.384	-67.717	-0.353	0.138
-272.370	50.724	-0.190	0.180
-271.355	192.165	0.158	-0.239
-270.340	318.772	0.051	-0.097
-269.326	-47.026	-0.283	0.138
-268.311	115.549	0.019	0.023
-267.297	242.937	-0.035	-0.059
-266.282	119.825	0.084	0.104
-265.267	-46.200	-0.013	0.006
-264.253	54.214	-0.157	0.151
-263.238	489.443	-0.167	0.382
-262.224	-200.000	0.034	0.310
-261.209	262.038	0.027	0.047
-260.195	-119.760	-0.249	0.043
-259.180	44.752	-0.245	0.225
-258.165	154.842	0.378	0.519
-257.151	35.697	0.023	-0.020
-256.136	427.679	-0.032	0.069
-255.122	-79.027	0.200	0.068
-254.107	-200.000	0.004	0.262
-253.092	-52.603	0.041	0.019
-252.078	-200.000	-0.030	0.219
-251.063	74.090	0.214	0.224
-250.049	342.223	0.155	0.303
-249.034	-161.148	0.269	-0.014
-248.019	800.000	0.031	-0.103
-247.005	-200.000	0.012	0.166
-245.990	-178.341	0.010	-0.000
-244.976	-200.000	0.013	0.121
-243.961	-200.000	0.056	-0.311
-242.946	-154.416	0.327	-0.022
-241.932	-200.000	0.082	0.375
-240.917	37.688	0.343	0.304
-239.903	50.526	-0.093	0.087
-238.888	204.106	0.014	-0.021
-237.873	-4.773	-0.104	0.072
-236.859	61.510	-0.101	-0.100
-235.844	85.412	-0.220	0.241
-234.830	6.257	-0.299	0.222
-233.815	52.889	0.085	0.081
-232.800	439.470	0.154	0.335
-231.786	61.298	0.125	0.124
-230.771	-200.000	-0.018	-0.081
-229.757	-17.621	0.175	-0.110
-228.742	-26.022	0.319	0.187
-227.727	-200.000	0.038	0.231
-226.713	335.824	0.072	0.139
-225.698	94.670	-0.082	-0.093
-224.684	-66.323	-0.318	0.126
-223.669	39.388	-0.165	0.148
-222.655	-104.318	0.092	-0.021
-221.640	-21.956	0.152	0.092
-220.625	89.178	0.193	0.214
-219.611	-90.950	0.090	-0.026
-218.596	-127.548	0.226	0.033
-217.582	-59.101	0.042	0.018
-216.567	469.847	-0.137	0.308
-215.552	622.572	0.169	-0.424
-214.538	-74.450	0.036	-0.013
-213.523	12.700	-0.170	-0.131
-212.509	614.998	-0.163	0.408
-211.494	800.000	-0.061	0.194
-210.479	31.444	0.064	-0.055
-209.465	-135.612	0.110	-0.013
-208.450	53.193	-0.082	-0.078
-207.436	51.588	-0.260	-0.246
-206.421	641.644	-0.064	-0.163
-205.406	800.000	-0.044	0.170
-204.392	358.251	-0.216	-0.431
-203.377	-34.901	-0.034	0.019
-202.363	-21.022	-0.153	-0.093
-201.348	-20.800	-0.168	0.103
-200.333	800.000	0.062	0.187
-199.319	-87.472	0.150	0.045
-198.304	731.482	-0.029	-0.078
-197.290	-68.351	-0.231	-0.090
-196.275	-86.085	-0.248	-0.076
-195.260	126.916	0.094	0.119
-194.246	-56.786	-0.153	0.067
-193.231	800.000	0.088	-0.353
-192.217	130.748	0.129	-0.165
-191.202	19.302	0.361	-0.288
-190.187	-68.652	0.133	0.051
-189.173	-49.030	0.108	0.052
-188.158	-20.767	0.238	-0.145
-187.144	-200.000	-0.035	0.304
-186.129	-200.000	-0.000	-0.361
-185.114	-59.366	-0.116	0.049
-184.100	-73.137	-0.167	0.061
-183.085	-85.827	0.193	0.059
-182.071	236.532	-0.088	0.144
-181.056	4.829	-0.208	-0.152
-180.042	-105.331	0.292	0.066
-179.027	800.000	0.112	-0.329
-178.012	-100.965	0.157	-0.038
-176.998	-178.958	-0.393	-0.009
-175.983	-93.054	-0.249	-0.069
-174.969	-118.747	-0.105	-0.018
-173.954	800.000	0.026	-0.086
-172.939	-83.290	0.133	-0.042
-171.925	347.782	-0.083	-0.162
-170.910	-200.000	-0.039	0.172
-169.896	-122.925	-0.315	-0.051
-168.881	-96.358	0.096	-0.025
-167.866	-153.775	0.327	0.022
-166.852	62.060	-0.076	0.076
-165.837	43.691	0.105	-0.095
-164.823	63.325	0.069	-0.069
-163.808	800.000	-0.027	0.103
-162.793	-122.453	-0.357	0.058
-161.779	800.000	0.077	-0.245
-160.764	-200.000	-0.060	-0.322
-159.750	411.016	0.086	0.183
-158.735	0.828	-0.331	-0.236
-157.720	800.000	-0.036	0.110
-156.706	-200.000	0.034	0.169
-155.691	389.245	0.138	-0.285
-154.677	-19.897	0.418	0.257
-153.662	31.510	-0.191	-0.164
-152.647	-24.238	-0.248	-0.147
-151.633	-164.738	-0.075	0.003
-150.618	-200.000	0.002	0.010
-149.604	-7.970	0.260	0.174
-148.589	192.962	0.062	-0.094
-147.574	-130.816	0.127	0.017
-146.560	800.000	0.134	-0.390
-145.545	7.853	0.235	0.175
-144.531	-123.634	0.111	-0.017
-143.516	201.632	0.231	-0.354
-142.502	75.669	0.310	-0.325
-141.487	690.961	-0.066	-0.171
-140.472	-103.842	-0.101	0.023
-139.458	-102.435	-0.147	0.035
-138.443	-200.000	0.009	-0.048
-137.429	-143.010	0.345	-0.033
-136.414	-139.100	0.546	0.059
-135.399	274.926	-0.098	0.173
-134.385	-34.879	0.562	0.305
-133.370	-200.000	0.010	-0.153
-132.356	-200.000	0.020	0.118
-131.341	-200.000	-0.057	-0.258
-130.326	90.166	0.076	-0.085
-129.312	-84.497	0.286	-0.090
-128.297	508.182	-0.097	0.224
-127.283	301.968	-0.197	0.363
-126.268	-200.000	-0.005	0.476
-125.253	386.623	-0.087	-0.178
-124.239	-200.000	0.009	0.113
-123.224	656.989	-0.086	0.219
-122.210	293.214	0.139	0.252
-121.195	-93.054	0.303	0.084
-120.180	-111.237	0.395	0.080
-119.166	388.688	0.120	-0.246
-118.151	-149.619	0.196	0.015
-117.137	-200.000	0.032	0.293
-116.122	-88.065	0.039	-0.012
-115.107	28.239	-0.122	0.103
-114.093	554.396	0.037	-0.088
-113.078	800.000	-0.033	0.139
-112.064	-200.000	-0.066	-0.326
-111.049	40.724	-0.340	-0.305
-110.034	61.436	-0.105	0.104
-109.020	-71.331	0.064	-0.024
-108.005	-54.474	0.248	-0.111
-106.991	28.117	-0.128	0.107
-105.976	800.000	0.079	-0.259
-104.962	-200.000	-0.022	-0.139
-103.947	88.906	0.055	0.061
-102.932	-137.971	-0.203	0.022
-101.918	769.373	-0.050	-0.134
-100.903	-105.184	0.157	-0.036
-99.889	3.540	0.307	0.222
-98.874	37.798	-0.070	-0.062
-97.859	-200.000	0.003	0.127
-96.845	435.476	-0.100	0.215
-95.830	-50.964	0.214	0.100
-94.816	148.044	-0.126	-0.168
-93.801	-36.923	0.068	-0.036
-92.786	-118.871	-0.323	-0.056
-91.772	-20.996	-0.207	0.126
-90.757	76.353	-0.334	-0.351
-89.743	-70.798	0.381	-0.142
-88.728	-157.328	0.093	-0.006
-87.713	-137.401	-0.167	-0.019
-86.699	-57.308	-0.321	0.140
-85.684	77.403	-0.158	0.167
-84.670	-144.296	-0.179	-0.017
-83.655	800.000	-0.049	0.157
-82.640	-68.586	0.043	-0.016
-81.626	-39.633	-0.372	0.193
-80.611	52.018	-0.105	0.099
-79.597	-102.462	0.399	-0.095
-78.582	103.355	-0.118	-0.138
-77.567	-134.398	0.191	0.023
-76.553	-200.000	-0.005	0.090
-75.538	125.472	-0.011	-0.014
-74.524	800.000	0.123	0.362
-73.509	20.203	-0.093	-0.074
-72.494	400.638	-0.179	0.372
-71.480	800.000	0.064	0.226
-70.465	-54.697	-0.075	0.034
-69.451	-84.288	-0.297	-0.093
-68.436	56.590	0.230	0.222
-67.422	-153.354	0.227	0.016
-66.407	-113.031	-0.250	0.049
-65.392	214.124	0.108	-0.170
-64.378	-200.000	0.026	0.113
-63.363	27.479	0.162	0.135
-62.349	-15.015	0.142	-0.090
-61.334	84.990	-0.871	-0.946
-60.319	352.771	-0.088	0.172
-59.305	121.205	-0.480	-0.592
-58.290	192.509	0.370	0.553
-57.276	800.000	0.459	1.566
-56.261	-200.000	81.489	497.935
-55.246	478.463	1375.435	3085.746
-54.232	143.829	2611.920	3449.545
-53.217	105.971	2364.319	2772.561
-52.203	47.518	1968.329	1818.192
-51.188	41.878	1752.785	1574.781
-50.173	39.131	1706.557	1512.091
-49.159	53.362	1744.474	1656.463
-48.144	57.739	1762.795	1707.787
-47.130	41.825	1725.413	1549.531
-46.115	38.693	1711.169	1512.558
-45.100	38.655	1706.250	1507.855
-44.086	38.594	1703.842	1505.201
-43.071	38.607	1701.441	1503.121
-42.057	38.485	1698.920	1499.894
-41.042	38.586	1696.207	1498.212
-40.027	38.599	1694.410	1496.666
-39.013	38.481	1692.561	1494.072
-37.998	38.546	1690.938	1493.075
-36.984	38.615	1689.137	1491.955
-35.969	38.744	1687.854	1491.743
-34.954	38.732	1686.208	1490.140
-33.940	38.730	1684.202	1488.294
-32.925	38.723	1682.623	1486.785
-31.911	38.705	1680.696	1484.884
-30.896	38.679	1678.983	1483.116
-29.881	38.790	1676.697	1481.881
-28.867	38.721	1675.330	1480.093
-27.852	38.733	1673.700	1478.679
-26.838	38.704	1672.865	1477.666
-25.823	38.780	1670.745	1476.307
-24.809	38.780	1669.473	1475.123
-23.794	38.804	1668.020	1473.962
-22.779	38.663	1666.800	1471.764
-21.765	38.712	1664.979	1470.469
-20.750	38.663	1663.458	1468.697
-19.736	38.682	1661.994	1467.490
-18.721	38.756	1660.527	1466.690
-17.706	38.655	1659.069	1464.592
-16.692	38.659	1657.902	1463.533
-15.677	38.778	1655.863	1462.559
-14.663	38.739	1654.854	1461.319
-13.648	38.761	1653.112	1459.888
-12.633	38.729	1651.449	1458.124
-11.619	38.628	1649.871	1455.921
-10.604	38.745	1648.309	1455.355
-9.590	38.703	1647.682	1454.434
-8.575	38.742	1645.790	1452.994
-7.560	38.823	1644.344	1452.258
-6.546	38.747	1643.428	1450.828
-5.531	38.707	1641.772	1449.013
-4.517	38.719	1640.958	1448.325
-3.502	38.612	1640.271	1446.875
-2.487	38.800	1638.259	1446.425
-1.473	38.782	1627.525	1436.760
-0.458	36.452	1607.137	1401.823
0.556	32.848	1606.494	1367.478
1.571	30.146	1631.093	1368.377
2.586	29.293	1645.002	1373.573
3.600	25.224	1589.207	1297.507
4.615	13.755	1469.126	1122.222
5.629	3.810	1396.912	1002.717
6.644	2.064	1387.686	984.747
7.659	2.039	1385.713	983.099
8.673	1.922	1384.354	981.296
9.688	1.775	1382.748	979.128
10.702	1.502	1380.137	975.436
11.717	5.256	1387.556	1004.778
12.731	16.346	1409.234	1092.490
13.746	24.937	1423.508	1159.340
14.761	26.554	1425.443	1171.286
15.775	26.729	1425.059	1171.993
16.790	26.743	1424.942	1171.889
17.804	26.773	1424.090	1171.278
18.819	27.012	1423.925	1172.579
19.834	26.989	1423.773	1172.200
20.848	27.200	1422.255	1172.209
21.863	27.057	1421.836	1170.836
22.877	27.124	1420.794	1170.310
23.892	27.125	1419.783	1169.378
24.907	27.118	1419.199	1168.752
25.921	27.151	1417.972	1167.846
26.936	27.030	1417.479	1166.562
27.950	27.117	1415.669	1165.527
28.965	27.081	1414.620	1164.327
29.980	27.116	1413.234	1163.311
30.994	27.130	1411.971	1162.253
32.009	27.138	1411.086	1161.473
33.023	27.105	1410.086	1160.340
34.038	27.123	1408.646	1159.169
35.053	27.113	1407.673	1158.198
36.067	27.105	1406.773	1157.308
37.082	27.106	1405.977	1156.553
38.096	27.076	1405.049	1155.500
39.111	27.030	1404.161	1154.371
40.126	27.114	1403.434	1154.204
41.140	26.958	1403.205	1152.924
42.155	27.090	1403.038	1153.527
43.169	27.147	1402.831	1153.611
44.184	27.051	1402.752	1152.840
45.199	27.084	1401.781	1152.147
46.213	27.072	1401.230	1151.516
47.228	27.102	1400.004	1150.599
48.242	27.053	1399.162	1149.494
49.257	27.138	1397.649	1148.686
50.271	26.950	1396.327	1146.308
51.286	27.033	1395.057	1145.692
52.301	27.114	1393.238	1144.606
53.315	26.960	1393.185	1143.489
54.330	27.064	1391.728	1142.850
55.344	27.015	1390.686	1141.585
56.359	27.174	1389.735	1141.702
57.374	27.120	1388.964	1140.626
58.388	27.060	1388.289	1139.597
59.403	26.979	1387.965	1138.717
60.417	27.115	1386.985	1138.665
61.432	27.107	1386.214	1137.884
62.447	27.076	1385.537	1137.034
63.461	27.038	1384.641	1135.962
64.476	27.110	1383.527	1135.391
65.490	27.119	1382.162	1134.230
66.505	27.144	1380.423	1132.861
67.520	27.171	1379.452	1132.131
68.534	27.164	1378.281	1131.024
69.549	27.211	1377.240	1130.362
70.563	27.147	1376.507	1129.265
71.578	27.126	1375.512	1128.215
72.593	27.158	1374.714	1127.662
73.607	27.088	1373.895	1126.455
74.622	27.149	1373.311	1126.258
75.636	27.064	1372.972	1125.352
76.651	27.108	1372.280	1124.954
77.666	27.039	1371.616	1123.886
78.680	27.087	1370.835	1123.441
79.695	27.016	1369.851	1122.097
80.709	27.067	1369.441	1121.980
81.724	27.016	1368.736	1120.984
82.739	27.195	1367.492	1120.971
83.753	27.062	1366.489	1119.230
84.768	27.084	1365.591	1118.532
85.782	27.100	1364.630	1117.744
86.797	27.104	1363.183	1116.488
87.812	27.145	1362.014	1115.679
88.826	27.109	1361.201	1114.695
89.841	27.109	1360.067	1113.668
90.855	27.172	1358.812	1112.929
91.870	27.183	1357.832	1112.092
92.884	27.158	1357.396	1111.488
93.899	27.231	1356.275	1110.913
94.914	27.184	1355.756	1110.104
95.928	27.204	1354.733	1109.293
96.943	27.217	1354.028	1108.694
97.957	27.195	1353.383	1107.936
98.972	27.134	1352.855	1107.031
99.987	27.213	1351.380	1106.208
101.001	27.165	1350.585	1105.165
102.016	27.088	1349.649	1103.835
103.030	27.144	1348.778	1103.369
104.045	27.144	1348.039	1102.661
105.060	27.155	1347.138	1101.897
106.074	27.174	1346.103	1101.068
107.089	27.229	1344.940	1100.354
108.103	27.318	1343.650	1099.738
109.118	27.112	1342.882	1097.769
110.133	27.222	1342.047	1097.653
111.147	27.195	1340.872	1096.430
112.162	27.257	1339.557	1095.631
113.176	27.221	1338.651	1094.579
114.191	27.206	1337.705	1093.615
115.206	27.228	1336.355	1092.546
116.220	27.286	1335.411	1092.025
117.235	27.205	1334.784	1090.929
118.249	27.236	1333.633	1090.083
119.264	27.196	1333.229	1089.416
120.279	27.185	1332.678	1088.802
121.293	27.236	1331.991	1088.448
122.308	27.387	1330.429	1087.980
123.322	27.311	1329.836	1086.943
124.337	27.303	1329.094	1086.193
125.352	27.242	1328.240	1085.036
126.366	27.262	1327.692	1084.610
127.381	27.126	1327.158	1083.270
128.395	27.246	1325.516	1082.545
129.410	27.297	1324.971	1082.309
130.424	27.377	1324.135	1082.005
131.439	27.180	1323.635	1080.329
132.454	27.285	1322.849	1080.219
133.468	27.348	1321.675	1079.536
134.483	27.359	1321.133	1079.063
135.497	27.270	1320.556	1077.970
136.512	27.331	1319.515	1077.386
137.527	27.338	1318.488	1076.491
138.541	27.248	1317.080	1074.715
139.556	27.274	1315.839	1073.762
140.570	27.272	1314.801	1072.810
141.585	27.296	1313.927	1072.139
142.600	27.250	1312.594	1070.689
143.614	27.244	1312.285	1070.307
144.629	27.243	1310.860	1069.043
145.643	27.156	1309.978	1067.721
146.658	27.158	1309.094	1066.913
147.673	27.257	1307.842	1066.382
148.687	27.132	1307.152	1064.991
149.702	27.132	1305.976	1063.939
150.716	27.157	1304.357	1062.675
151.731	27.162	1303.814	1062.167
152.746	27.169	1302.896	1061.363
153.760	27.268	1301.713	1060.882
154.775	27.224	1300.948	1059.909
155.789	27.254	1299.923	1059.154
156.804	27.280	1298.878	1058.363
157.819	27.262	1297.953	1057.409
158.833	27.148	1297.428	1056.229
159.848	27.303	1296.924	1056.625
160.862	27.247	1295.867	1055.344
161.877	27.369	1294.687	1054.996
162.892	27.320	1294.195	1054.221
163.906	27.309	1293.568	1053.551
164.921	27.276	1292.733	1052.589
165.935	27.305	1291.849	1051.940
166.950	27.335	1291.405	1051.661
167.964	27.413	1290.379	1051.180
168.979	27.359	1290.274	1050.693
169.994	27.366	1289.743	1050.206
171.008	27.312	1288.985	1049.183
172.023	27.449	1288.009	1049.089
173.037	27.350	1287.020	1047.620
174.052	27.351	1286.712	1047.281
175.067	27.320	1285.617	1046.121
176.081	27.333	1285.140	1045.712
177.096	27.392	1283.853	1044.910
178.110	27.336	1283.364	1044.102
179.125	27.409	1281.612	1042.998
180.140	27.398	1281.112	1042.436
181.154	27.467	1279.726	1041.615
182.169	27.369	1279.001	1040.368
183.183	27.410	1277.304	1039.134
184.198	27.483	1276.737	1038.997
185.213	27.414	1276.016	1037.923
186.227	27.485	1274.707	1037.172
187.242	27.360	1274.097	1035.872
188.256	27.484	1273.042	1035.626
189.271	27.413	1272.732	1034.878
190.286	27.423	1271.996	1034.248
191.300	27.425	1271.308	1033.609
192.315	27.335	1270.909	1032.682
193.329	27.453	1270.391	1032.836
194.344	27.460	1270.186	1032.621
195.359	27.537	1269.114	1032.092
196.373	27.349	1269.171	1030.982
197.388	27.358	1268.694	1030.557
198.402	27.383	1268.101	1030.124
199.417	27.473	1267.579	1030.120
200.432	27.543	1266.573	1029.602
201.446	27.375	1266.823	1028.766
202.461	27.401	1265.627	1027.849
203.475	27.452	1264.540	1027.168
204.490	27.471	1263.832	1026.607
205.504	27.272	1263.208	1024.887
206.519	27.540	1261.944	1025.277
207.534	27.562	1260.509	1024.149
208.548	27.395	1259.805	1022.543
209.563	27.489	1259.418	1022.671
210.577	27.413	1258.726	1021.589
211.592	27.585	1257.266	1021.279
212.607	27.606	1256.809	1020.937
213.621	27.567	1256.218	1020.145
214.636	27.580	1255.369	1019.440
215.650	27.687	1254.353	1019.120
216.665	27.547	1253.588	1017.630
217.680	27.611	1252.460	1016.981
218.694	27.611	1251.849	1016.393
219.709	27.559	1251.424	1015.671
220.723	27.623	1250.518	1015.202
221.738	27.509	1249.567	1013.701
222.753	27.586	1248.785	1013.406
223.767	27.573	1248.636	1013.127
224.782	27.739	1247.696	1013.195
225.796	27.591	1247.404	1012.045
226.811	27.687	1246.638	1011.870
227.826	27.661	1246.136	1011.225
228.840	27.681	1245.468	1010.705
229.855	27.618	1244.901	1009.806
230.869	27.689	1243.952	1009.342
231.884	27.766	1243.415	1009.242
232.899	27.604	1242.902	1007.840
233.913	27.632	1242.128	1007.281
234.928	27.763	1241.901	1007.727
235.942	27.790	1241.127	1007.160
236.957	27.762	1240.242	1006.196
237.972	27.732	1239.626	1005.445
238.986	27.674	1238.937	1004.479
240.001	27.774	1238.473	1004.564
241.015	27.810	1237.824	1004.148
242.030	27.854	1236.919	1003.565
243.045	27.908	1235.873	1002.925
244.059	27.838	1234.850	1001.621
245.074	27.805	1234.000	1000.660
246.088	27.809	1233.847	1000.469
247.103	27.819	1233.038	999.782
248.117	27.897	1231.580	998.939
249.132	27.852	1231.181	998.280
250.147	27.934	1230.501	998.087
251.161	27.894	1229.831	997.236
252.176	27.967	1228.982	996.860
253.190	27.941	1228.141	995.947
254.205	27.987	1227.744	995.790
255.220	27.873	1227.365	994.771
256.234	27.776	1226.833	993.725
257.249	28.000	1225.455	993.737
258.263	27.994	1225.113	993.339
259.278	27.922	1224.937	992.719
260.293	28.071	1223.958	992.647
261.307	28.009	1223.852	992.133
262.322	27.998	1222.931	991.241
263.336	27.864	1222.459	990.044
264.351	28.029	1221.600	990.154
265.366	27.986	1221.263	989.558
266.380	27.983	1220.450	988.799
267.395	27.947	1219.927	988.092
268.409	27.933	1219.491	987.578
269.424	28.010	1218.469	987.076
270.439	28.060	1218.219	987.058
271.453	28.001	1217.503	986.069
272.468	28.044	1216.302	985.244
273.482	28.032	1215.659	984.573
274.497	28.084	1215.634	984.745
275.512	28.101	1214.948	984.193
276.526	28.107	1213.836	983.234
277.541	28.101	1212.982	982.427
278.555	28.007	1213.097	981.929
279.570	28.126	1211.826	981.450
280.585	28.153	1211.181	980.986
281.599	28.118	1210.438	980.111
282.614	28.115	1209.659	979.377
283.628	28.040	1208.501	977.950
284.643	28.150	1207.620	977.739
285.657	28.120	1206.928	976.929
286.672	28.151	1206.019	976.272
287.687	28.158	1205.244	975.597
288.701	28.093	1204.956	974.931
289.716	28.242	1203.755	974.668
290.730	28.170	1203.024	973.608
291.745	28.249	1202.506	973.523
292.760	28.226	1202.271	973.123
293.774	28.275	1201.460	972.642
294.789	28.381	1200.429	972.281
295.803	28.306	1200.304	971.694
296.818	28.313	1199.479	970.981
297.833	28.216	1198.905	969.917
298.847	28.353	1198.191	969.975
299.862	28.343	1197.355	969.162
300.876	28.244	1196.939	968.218
301.891	28.283	1196.272	967.797
302.906	28.405	1195.643	967.846
303.920	28.356	1194.981	966.964
304.935	28.432	1194.247	966.688
305.949	28.413	1193.747	966.099
306.964	28.485	1192.728	965.566
307.979	28.410	1192.418	964.834
308.993	28.417	1191.613	964.137
310.008	28.384	1191.057	963.426
311.022	28.425	1190.331	962.970
312.037	28.532	1189.427	962.715
313.052	28.426	1188.649	961.446
314.066	28.445	1187.859	960.818
315.081	28.425	1187.078	959.996
316.095	28.565	1186.340	960.049
317.110	28.527	1185.706	959.252
318.125	28.431	1185.445	958.455
319.139	28.458	1184.523	957.766
320.154	28.524	1183.869	957.498
321.168	28.437	1183.689	956.812
322.183	28.511	1182.977	956.538
323.197	28.478	1182.428	955.837
324.212	28.534	1181.942	955.653
325.227	28.515	1181.189	954.861
326.241	28.550	1180.792	954.633
327.256	28.577	1179.948	954.007
328.270	28.636	1178.897	953.378
329.285	28.650	1177.845	952.520
330.300	28.557	1177.591	951.746
331.314	28.601	1176.580	951.075
332.329	28.820	1175.602	951.333
333.343	28.709	1174.756	949.991
334.358	28.686	1174.483	949.567
335.373	28.683	1173.582	948.739
336.387	28.660	1173.142	948.180
337.402	28.674	1172.214	947.417
338.416	28.716	1171.746	947.174
339.431	28.723	1171.031	946.549
340.446	28.747	1170.603	946.240
341.460	28.790	1169.712	945.658
342.475	28.683	1168.836	944.315
343.489	28.784	1168.098	944.152
344.504	28.793	1166.941	943.184
345.519	28.753	1166.627	942.640
346.533	28.844	1165.329	941.973
347.548	28.934	1164.584	941.750
348.562	28.834	1164.102	940.763
349.577	28.791	1163.406	939.901
350.592	28.660	1162.643	938.530
351.606	28.723	1162.026	938.268
352.621	28.810	1161.558	938.255
353.635	28.912	1160.755	938.043
354.650	28.819	1160.508	937.286
355.665	28.898	1159.321	936.644
356.679	28.983	1158.571	936.390
357.694	28.972	1158.208	935.960
358.708	28.947	1157.640	935.289
359.723	29.022	1156.764	934.882
360.738	28.910	1155.984	933.596
361.752	28.924	1155.541	933.231
362.767	28.956	1154.909	932.798
363.781	28.894	1154.852	932.352
364.796	28.995	1154.452	932.460
365.810	29.080	1153.170	931.773
366.825	29.075	1152.887	931.439
367.840	29.115	1152.139	930.953
368.854	29.156	1151.600	930.642
369.869	29.102	1151.138	929.912
370.883	29.078	1150.228	928.973
371.898	29.040	1149.419	928.047
372.913	29.188	1148.699	928.127
373.927	29.192	1148.564	927.961
374.942	29.183	1147.814	927.224
375.956	29.077	1147.282	926.179
376.971	29.123	1146.924	926.042
377.986	29.233	1146.125	925.868
379.000	29.199	1146.175	925.652
380.015	29.191	1145.534	925.015
381.029	29.263	1144.276	924.279
382.044	29.200	1144.007	923.665
383.059	29.224	1143.445	923.246
384.073	29.324	1142.468	922.879
385.088	29.234	1141.574	921.623
386.102	29.285	1140.966	921.304
387.117	29.310	1140.288	920.803
388.132	29.273	1139.298	919.737
389.146	29.276	1138.376	918.928
390.161	29.359	1137.713	918.724
391.175	29.392	1137.144	918.348
392.190	29.479	1136.340	918.049
393.205	29.365	1135.799	916.965
394.219	29.387	1134.883	916.250
395.234	29.403	1134.242	915.734
396.248	29.479	1133.177	915.167
397.263	29.369	1132.662	914.126
398.278	29.351	1132.387	913.735
399.292	29.447	1131.676	913.556
400.307	29.489	1130.881	913.040
401.321	29.505	1130.304	912.575
402.336	29.445	1129.692	911.703
403.350	29.544	1128.700	911.308
404.365	29.534	1128.334	910.884
405.380	29.429	1127.625	909.712
406.394	29.462	1126.761	909.096
407.409	29.588	1126.102	909.108
408.423	29.661	1125.464	908.871
409.438	29.672	1124.521	908.083
410.453	29.736	1123.606	907.578
411.467	29.692	1123.027	906.812
412.482	29.608	1122.657	906.021
413.496	29.606	1121.958	905.370
414.511	29.625	1121.303	904.851
415.526	29.556	1120.806	904.033
416.540	29.682	1120.508	904.328
417.555	29.653	1119.811	903.546
418.569	29.675	1119.599	903.402
419.584	29.623	1119.156	902.712
420.599	29.657	1118.737	902.457
421.613	92.624	1310.464	1401.527
422.628	87.074	1338.375	1401.647
