DTS Sentinel unit serial number:	SN413079Multiplexer serial number:	ORYXHardware model number:	OX4-SRSoftware version number:	ORYX F/W v4.00 Oryx Data Collector v3.7.2.0data status	okinstallation	princeton_trtdifferential loss correction	single-endedforward channel	channel 2reverse channel	N/Adate	2019/09/11time	04:33:11forward acquisition time	60.00reverse acquisition time	0.00gamma	496.2192k internal	0.2330k external	0.2330temperature offset calibration	0.9936default loss term (dB/km)	0.3790temperature slope calibration	1.0000multiplexer offset coefficient	1.0000multiplexer slope coefficient	1.0000fibre end	0.00T internal ref (°C)	29.56T ext. ref 1 (°C)	-0.29T ext. ref 2 (°C)	23.28length (m)	temperature (°C)	Stokes	anti-Stokes-747.200	432.371	0.171	-0.372
-746.185	118.914	-0.222	0.276
-745.171	133.346	0.189	-0.246
-744.156	-62.475	0.262	0.110
-743.142	14.171	-0.198	-0.155
-742.127	800.000	-0.014	0.048
-741.112	-33.790	0.244	0.135
-740.098	3.139	-0.119	0.087
-739.083	-78.708	0.142	-0.049
-738.069	115.713	-0.153	0.188
-737.054	290.264	0.095	0.173
-736.039	259.893	-0.010	0.018
-735.025	-62.628	0.298	0.124
-734.010	-135.682	-0.417	-0.050
-732.996	-81.408	-0.114	-0.038
-731.981	-17.102	-0.364	0.231
-730.966	26.738	0.097	0.082
-729.952	306.308	-0.080	0.151
-728.937	5.759	-0.325	-0.242
-727.923	-143.006	-0.138	-0.013
-726.908	254.984	-0.224	0.385
-725.894	-73.598	-0.130	0.048
-724.879	70.238	-0.156	0.162
-723.864	-83.123	-0.183	-0.059
-722.850	111.960	-0.145	0.176
-721.835	-200.000	-0.052	-0.367
-720.821	-5.163	0.294	0.204
-719.806	82.158	-0.137	-0.150
-718.791	800.000	0.029	0.089
-717.777	800.000	-0.076	-0.255
-716.762	-12.367	-0.048	0.032
-715.748	11.391	0.111	0.085
-714.733	-200.000	0.001	0.244
-713.718	-152.088	-0.115	0.008
-712.704	-200.000	-0.014	0.082
-711.689	-4.151	-0.194	-0.135
-710.675	-200.000	0.003	-0.071
-709.660	-62.456	-0.241	0.101
-708.645	-59.337	-0.110	0.047
-707.631	-200.000	0.038	0.354
-706.616	626.881	0.116	-0.294
-705.602	-43.048	-0.063	-0.032
-704.587	102.647	-0.123	-0.145
-703.572	-126.989	-0.401	-0.059
-702.558	219.202	-0.037	-0.060
-701.543	88.837	-0.094	-0.105
-700.529	-200.000	0.080	-0.371
-699.514	-35.454	0.077	-0.042
-698.499	389.425	-0.117	-0.245
-697.485	-200.000	0.045	-0.292
-696.470	330.502	-0.163	-0.316
-695.456	-200.000	-0.025	0.227
-694.441	-132.364	-0.096	0.013
-693.426	49.245	0.049	0.046
-692.412	-43.300	0.385	0.196
-691.397	-136.535	0.197	0.023
-690.383	-200.000	-0.102	-0.000
-689.368	-127.152	-0.266	0.039
-688.354	-81.258	0.060	-0.020
-687.339	-200.000	-0.011	0.228
-686.324	-34.093	-0.251	-0.139
-685.310	113.987	-0.087	0.106
-684.295	-24.736	0.061	-0.037
-683.281	-200.000	-0.045	-0.319
-682.266	-18.948	-0.335	-0.209
-681.251	-83.071	0.220	-0.071
-680.237	149.937	-0.200	0.273
-679.222	-200.000	-0.019	-0.261
-678.208	-101.825	-0.088	-0.021
-677.193	800.000	0.081	0.341
-676.178	490.158	-0.033	-0.076
-675.164	-91.127	-0.471	-0.136
-674.149	-200.000	0.001	0.203
-673.135	188.510	-0.137	-0.206
-672.120	-44.119	-0.120	0.060
-671.105	-200.000	-0.010	-0.109
-670.091	98.091	-0.183	-0.212
-669.076	59.814	-0.203	-0.202
-668.062	198.839	0.220	-0.339
-667.047	-43.863	-0.288	-0.145
-666.032	41.397	-0.145	-0.131
-665.018	-8.383	-0.153	-0.104
-664.003	37.954	-0.243	0.217
-662.989	800.000	0.047	-0.200
-661.974	-200.000	0.028	0.198
-660.959	-58.643	-0.307	0.133
-659.945	-71.170	-0.110	0.041
-658.930	8.239	0.101	-0.076
-657.916	-1.985	-0.149	0.105
-656.901	800.000	-0.089	-0.382
-655.886	-164.302	0.085	0.004
-654.872	800.000	0.055	-0.235
-653.857	-176.978	-0.192	-0.005
-652.843	-148.330	0.294	-0.024
-651.828	-69.549	0.303	0.116
-650.814	-200.000	-0.010	-0.169
-649.799	131.774	0.061	-0.078
-648.784	36.085	-0.232	-0.205
-647.770	39.867	0.363	0.327
-646.755	363.100	-0.070	0.140
-645.741	47.149	-0.183	0.171
-644.726	-33.149	0.127	0.070
-643.711	-200.000	0.007	0.057
-642.697	22.915	0.117	-0.097
-641.682	27.990	-0.139	0.118
-640.668	-200.000	0.025	-0.131
-639.653	-120.945	-0.248	0.042
-638.638	-200.000	-0.025	-0.320
-637.624	-200.000	0.040	-0.261
-636.609	-96.464	0.383	-0.102
-635.595	231.790	-0.085	0.141
-634.580	-144.105	-0.206	0.019
-633.565	-90.732	-0.147	0.043
-632.551	800.000	0.029	-0.104
-631.536	399.565	0.208	0.436
-630.522	-200.000	-0.050	0.399
-629.507	-33.483	0.199	0.110
-628.492	89.743	0.036	-0.040
-627.478	-11.222	-0.475	0.314
-626.463	-17.560	0.084	0.053
-625.449	17.425	-0.058	0.046
-624.434	-58.274	0.225	0.098
-623.419	-41.382	-0.184	-0.095
-622.405	69.618	0.105	0.108
-621.390	702.671	0.011	-0.030
-620.376	23.029	-0.158	0.130
-619.361	550.916	0.013	0.030
-618.346	-65.671	-0.318	-0.128
-617.332	-62.836	0.249	-0.103
-616.317	210.445	0.077	-0.121
-615.303	242.638	-0.153	-0.256
-614.288	239.368	-0.127	-0.212
-613.273	116.725	-0.170	0.209
-612.259	206.274	-0.076	0.118
-611.244	-200.000	0.030	0.330
-610.230	419.124	-0.073	-0.157
-609.215	-119.254	-0.348	-0.061
-608.201	132.079	0.370	-0.477
-607.186	52.710	-0.203	-0.194
-606.171	-121.850	-0.086	0.014
-605.157	211.697	-0.091	-0.143
-604.142	800.000	-0.067	0.250
-603.128	171.703	0.151	-0.218
-602.113	493.273	-0.044	-0.102
-601.098	586.833	0.107	-0.264
-600.084	59.306	0.135	-0.133
-599.069	-26.143	0.271	-0.159
-598.055	220.417	-0.079	0.126
-597.040	-200.000	-0.024	-0.517
-596.025	-200.000	-0.001	-0.052
-595.011	800.000	0.065	-0.264
-593.996	-65.928	-0.277	-0.111
-592.982	-43.186	-0.183	-0.093
-591.967	206.326	-0.346	-0.539
-590.952	-119.930	-0.213	0.037
-589.938	800.000	-0.024	-0.102
-588.923	-9.793	0.207	0.138
-587.909	-200.000	0.013	0.374
-586.894	-7.403	-0.129	-0.087
-585.879	800.000	-0.024	0.076
-584.865	-200.000	-0.042	-0.437
-583.850	-60.520	0.214	0.091
-582.836	800.000	0.054	-0.152
-581.821	-200.000	0.000	-0.154
-580.806	-187.155	-0.232	0.003
-579.792	-16.469	-0.048	0.031
-578.777	800.000	0.029	-0.093
-577.763	256.287	-0.022	-0.038
-576.748	-200.000	0.003	0.140
-575.733	422.396	0.055	-0.118
-574.719	-5.771	-0.117	0.080
-573.704	262.137	-0.126	0.218
-572.690	26.418	0.018	0.015
-571.675	148.865	0.171	-0.231
-570.661	-25.447	0.397	-0.235
-569.646	-15.628	-0.261	0.166
-568.631	-200.000	-0.039	0.415
-567.617	-81.535	0.209	-0.069
-566.602	58.626	0.218	-0.214
-565.588	-78.970	-0.289	-0.098
-564.573	-97.063	0.345	-0.090
-563.558	45.986	0.182	-0.168
-562.544	800.000	-0.057	0.158
-561.529	-200.000	-0.022	0.150
-560.515	-200.000	0.051	-0.271
-559.500	800.000	-0.108	0.398
-558.485	-8.520	0.206	-0.138
-557.471	-97.192	0.074	0.019
-556.456	172.347	0.118	-0.170
-555.442	390.211	0.079	-0.163
-554.427	744.699	-0.072	-0.192
-553.412	-21.219	-0.118	0.072
-552.398	89.180	0.263	0.293
-551.383	-126.614	-0.075	-0.011
-550.369	-110.900	0.305	-0.063
-549.354	-200.000	0.021	-0.118
-548.339	97.389	0.138	-0.159
-547.325	800.000	0.094	0.368
-546.310	-169.319	0.144	-0.005
-545.296	-110.146	-0.296	-0.062
-544.281	-200.000	0.005	-0.038
-543.266	32.170	-0.199	-0.171
-542.252	-55.573	0.237	-0.106
-541.237	-200.000	-0.024	-0.284
-540.223	591.315	-0.075	-0.186
-539.208	560.042	-0.028	0.068
-538.193	-43.147	0.240	0.121
-537.179	-200.000	-0.000	-0.017
-536.164	156.921	0.123	-0.170
-535.150	-23.899	0.251	0.150
-534.135	117.927	-0.205	0.252
-533.121	211.888	-0.305	0.480
-532.106	11.770	0.133	0.102
-531.091	-200.000	-0.014	0.118
-530.077	-165.639	-0.306	0.013
-529.062	515.362	-0.068	0.159
-528.048	-173.145	0.134	-0.004
-527.033	281.915	-0.071	0.127
-526.018	-141.935	0.066	-0.007
-525.004	178.403	0.095	-0.138
-523.989	170.628	-0.106	-0.151
-522.975	-163.356	-0.041	-0.002
-521.960	-41.719	-0.234	0.120
-520.945	11.504	0.089	0.068
-519.931	-86.055	0.236	-0.073
-518.916	-133.208	-0.067	-0.009
-517.902	-200.000	-0.006	-0.180
-516.887	392.534	0.031	-0.065
-515.872	-200.000	-0.024	0.384
-514.858	-12.870	0.116	0.075
-513.843	218.979	-0.183	-0.292
-512.829	-1.717	0.217	0.153
-511.814	-85.967	0.200	0.062
-510.799	-200.000	0.008	-0.288
-509.785	-159.334	0.020	-0.001
-508.770	-87.703	0.310	0.093
-507.756	-128.939	-0.353	0.049
-506.741	55.104	-0.069	0.066
-505.726	-18.822	-0.197	0.123
-504.712	-200.000	-0.007	0.033
-503.697	44.811	0.176	-0.162
-502.683	10.535	-0.162	-0.123
-501.668	-126.611	0.331	-0.049
-500.653	-54.662	0.209	-0.094
-499.639	177.884	-0.081	0.117
-498.624	-14.321	-0.286	-0.184
-497.610	800.000	0.010	-0.032
-496.595	100.227	-0.107	-0.124
-495.581	49.475	-0.153	-0.144
-494.566	-153.899	-0.131	-0.009
-493.551	800.000	-0.061	0.174
-492.537	144.974	0.218	0.291
-491.522	800.000	0.057	0.179
-490.508	-156.835	0.211	-0.013
-489.493	652.861	-0.005	-0.014
-488.478	-64.838	-0.247	-0.100
-487.464	29.744	0.361	0.307
-486.449	800.000	-0.121	0.475
-485.435	-200.000	0.019	0.262
-484.420	222.229	-0.088	-0.141
-483.405	-17.430	0.127	-0.080
-482.391	42.609	-0.243	0.220
-481.376	800.000	-0.038	0.144
-480.362	-200.000	0.006	-0.123
-479.347	23.075	-0.048	-0.040
-478.332	19.406	-0.290	0.233
-477.318	53.277	0.088	0.084
-476.303	116.019	0.210	0.256
-475.289	28.478	0.080	-0.067
-474.274	800.000	0.037	-0.131
-473.259	800.000	-0.040	0.154
-472.245	8.626	0.303	-0.228
-471.230	85.084	0.096	-0.104
-470.216	-73.166	-0.378	0.138
-469.201	18.311	-0.084	-0.067
-468.186	-200.000	-0.009	0.291
-467.172	334.595	-0.119	0.230
-466.157	192.675	-0.066	-0.099
-465.143	148.032	-0.201	0.269
-464.128	391.942	0.034	-0.070
-463.113	800.000	-0.053	-0.179
-462.099	-200.000	0.038	0.218
-461.084	-126.955	0.196	-0.029
-460.070	279.563	-0.047	0.084
-459.055	-121.131	-0.311	-0.052
-458.040	-119.599	0.302	-0.052
-457.026	-200.000	-0.016	-0.102
-456.011	800.000	0.095	-0.312
-454.997	-200.000	0.110	0.552
-453.982	723.962	0.038	0.100
-452.968	-25.553	-0.154	0.091
-451.953	262.053	-0.135	0.234
-450.938	234.681	-0.286	0.470
-449.924	63.013	-0.121	0.121
-448.909	513.448	-0.083	-0.192
-447.895	-86.292	-0.019	0.006
-446.880	-101.591	-0.125	0.030
-445.865	800.000	0.037	-0.120
-444.851	14.400	-0.348	0.271
-443.836	800.000	0.054	0.224
-442.822	800.000	0.051	-0.201
-441.807	-200.000	-0.040	-0.327
-440.792	406.334	-0.071	0.149
-439.778	141.894	0.087	0.115
-438.763	48.590	0.232	-0.216
-437.749	-200.000	-0.051	0.371
-436.734	-139.081	-0.115	-0.012
-435.719	-115.720	0.215	-0.040
-434.705	-6.954	0.150	-0.102
-433.690	-200.000	-0.011	0.136
-432.676	83.231	-0.042	-0.046
-431.661	-27.559	-0.095	-0.055
-430.646	75.815	0.255	0.268
-429.632	314.489	-0.189	0.353
-428.617	355.460	-0.113	0.223
-427.603	730.161	0.039	-0.105
-426.588	127.231	-0.202	0.255
-425.573	800.000	-0.089	-0.311
-424.559	-118.527	-0.191	0.034
-423.544	82.688	-0.195	-0.211
-422.530	-200.000	-0.017	0.142
-421.515	208.949	-0.066	0.103
-420.500	253.063	-0.237	0.402
-419.486	-119.870	-0.106	0.018
-418.471	774.606	0.063	0.171
-417.457	800.000	0.077	-0.297
-416.442	800.000	-0.028	0.096
-415.428	-200.000	-0.033	-0.144
-414.413	-36.033	0.084	-0.045
-413.398	-60.762	-0.207	-0.087
-412.384	2.132	-0.188	0.135
-411.369	-51.231	-0.187	0.087
-410.355	250.975	0.152	0.256
-409.340	-156.441	0.130	-0.008
-408.325	-80.927	0.039	-0.013
-407.311	55.325	0.102	-0.098
-406.296	-72.695	-0.190	-0.070
-405.282	-107.719	0.256	-0.056
-404.267	459.258	-0.061	0.134
-403.252	510.477	0.112	-0.259
-402.238	-62.392	-0.315	-0.130
-401.223	-200.000	0.014	0.348
-400.209	-200.000	-0.029	-0.222
-399.194	125.365	0.294	-0.368
-398.179	-130.680	-0.328	-0.044
-397.165	23.248	-0.165	-0.135
-396.150	-94.541	0.062	0.017
-395.136	507.193	0.073	0.168
-394.121	160.472	-0.180	-0.250
-393.106	-119.569	0.283	-0.049
-392.092	185.160	0.098	0.144
-391.077	-200.000	0.004	-0.128
-390.063	-191.771	-0.202	0.002
-389.048	217.771	0.034	0.054
-388.033	-94.379	0.329	0.089
-387.019	-200.000	0.001	-0.389
-386.004	180.183	-0.093	-0.135
-384.990	-152.405	0.060	0.004
-383.975	99.240	-0.227	0.261
-382.960	88.457	-0.176	-0.194
-381.946	-32.880	-0.213	-0.118
-380.931	-97.603	-0.409	0.105
-379.917	43.175	-0.141	-0.128
-378.902	49.213	-0.099	0.092
-377.888	-200.000	-0.036	-0.285
-376.873	383.877	-0.028	0.056
-375.858	-27.143	0.148	0.086
-374.844	11.835	-0.102	-0.078
-373.829	800.000	-0.038	0.155
-372.815	77.707	0.238	0.252
-371.800	-53.359	0.144	-0.066
-370.785	-182.926	0.270	-0.005
-369.771	-104.754	0.242	-0.055
-368.756	-147.157	0.204	0.017
-367.742	-200.000	-0.022	0.233
-366.727	-200.000	0.006	-0.085
-365.712	-200.000	0.006	0.097
-364.698	800.000	-0.051	0.185
-363.683	136.951	-0.127	-0.165
-362.669	251.507	0.073	-0.124
-361.654	-200.000	0.018	-0.360
-360.639	311.362	0.179	-0.333
-359.625	-200.000	0.018	-0.167
-358.610	-200.000	-0.005	-0.199
-357.596	256.076	-0.064	-0.110
-356.581	526.714	0.050	0.116
-355.566	-200.000	-0.029	-0.182
-354.552	182.489	0.067	-0.097
-353.537	-91.993	0.328	-0.092
-352.523	15.818	-0.171	0.134
-351.508	-25.969	-0.139	0.081
-350.493	41.567	-0.132	-0.119
-349.479	10.246	0.055	0.042
-348.464	-200.000	0.106	-0.000
-347.450	33.052	-0.198	-0.170
-346.435	-200.000	0.005	0.098
-345.420	135.889	-0.116	0.150
-344.406	-61.950	0.203	0.084
-343.391	266.757	-0.102	-0.177
-342.377	-200.000	0.022	-0.197
-341.362	96.352	-0.081	0.092
-340.348	-144.438	-0.210	-0.019
-339.333	-200.000	0.017	0.089
-338.318	37.630	-0.170	0.149
-337.304	146.329	0.070	0.093
-336.289	-105.005	-0.281	-0.064
-335.275	-62.023	0.234	-0.097
-334.260	800.000	-0.029	0.119
-333.245	-200.000	0.011	0.164
-332.231	-122.158	-0.214	-0.035
-331.216	-91.773	-0.144	-0.041
-330.202	-70.018	-0.178	-0.067
-329.187	800.000	0.034	-0.124
-328.172	-200.000	-0.005	-0.099
-327.158	800.000	0.070	-0.276
-326.143	-136.691	0.182	-0.021
-325.129	-200.000	-0.013	-0.209
-324.114	-66.142	0.310	0.123
-323.099	-110.218	-0.212	-0.044
-322.085	-108.751	0.329	-0.070
-321.070	134.457	-0.204	-0.262
-320.056	-200.000	-0.007	-0.362
-319.041	508.602	0.140	-0.321
-318.026	-95.451	-0.159	-0.042
-317.012	-156.445	0.342	0.021
-315.997	-81.383	-0.172	-0.056
-314.983	170.080	-0.118	0.168
-313.968	-113.408	-0.189	0.037
-312.953	-120.509	0.086	-0.014
-311.939	-200.000	0.025	0.109
-310.924	24.574	-0.276	-0.226
-309.910	-200.000	-0.032	-0.218
-308.895	800.000	0.075	-0.246
-307.880	24.151	-0.344	0.281
-306.866	-200.000	-0.031	0.305
-305.851	-200.000	0.063	-0.404
-304.837	-18.048	0.227	0.141
-303.822	158.141	-0.118	0.163
-302.807	157.139	-0.168	0.230
-301.793	67.333	0.271	0.274
-300.778	14.113	-0.150	-0.116
-299.764	-30.075	0.181	0.102
-298.749	800.000	0.090	-0.298
-297.735	800.000	0.067	0.191
-296.720	59.263	0.120	0.117
-295.705	-200.000	-0.019	0.226
-294.691	-125.593	-0.045	-0.007
-293.676	-29.209	-0.275	-0.156
-292.662	314.870	0.227	0.424
-291.647	216.691	-0.094	-0.148
-290.632	-167.334	0.091	0.004
-289.618	40.645	0.037	0.033
-288.603	22.929	-0.108	0.088
-287.589	181.335	0.065	0.095
-286.574	-200.000	0.001	0.062
-285.559	-85.872	0.142	0.044
-284.545	210.792	0.118	-0.183
-283.530	800.000	-0.044	0.135
-282.516	800.000	0.069	-0.264
-281.501	-162.776	-0.217	0.010
-280.486	-103.021	-0.300	-0.070
-279.472	-57.351	-0.163	0.071
-278.457	3.206	-0.184	-0.132
-277.443	-128.768	0.253	-0.035
-276.428	-71.572	0.256	0.094
-275.413	-40.251	-0.026	0.013
-274.399	48.934	-0.039	0.036
-273.384	-60.007	0.332	-0.140
-272.370	-97.826	0.096	0.025
-271.355	-62.236	0.237	0.098
-270.340	543.334	0.060	-0.142
-269.326	-69.672	0.241	0.091
-268.311	28.957	-0.062	-0.052
-267.297	-122.690	0.223	0.036
-266.282	116.737	0.110	0.133
-265.267	-118.577	0.118	0.021
-264.253	164.418	0.093	0.130
-263.238	307.493	0.085	0.156
-262.224	-32.223	0.096	-0.053
-261.209	-200.000	-0.003	0.103
-260.195	795.091	-0.053	-0.145
-259.180	800.000	0.127	0.366
-258.165	800.000	0.115	-0.327
-257.151	128.344	0.221	-0.278
-256.136	-154.232	0.193	-0.013
-255.122	-30.726	-0.225	-0.126
-254.107	-27.237	0.208	-0.120
-253.092	686.047	0.094	-0.243
-252.078	152.290	-0.211	-0.284
-251.063	-74.820	-0.062	-0.022
-250.049	-84.985	0.359	-0.111
-249.034	196.428	-0.116	-0.175
-248.019	800.000	-0.067	0.213
-247.005	-200.000	0.024	-0.258
-245.990	-183.256	0.277	0.005
-244.976	-200.000	0.008	-0.041
-243.961	-90.498	0.209	-0.060
-242.946	-154.942	-0.337	0.022
-241.932	-6.501	-0.316	0.212
-240.917	54.896	-0.098	-0.094
-239.903	314.513	0.084	0.156
-238.888	144.005	-0.266	-0.350
-237.873	800.000	0.079	-0.253
-236.859	31.614	0.239	0.203
-235.844	-46.832	-0.314	0.151
-234.830	72.537	0.254	-0.262
-233.815	131.125	-0.138	-0.176
-232.800	-167.020	0.371	0.015
-231.786	169.290	0.214	0.301
-230.771	684.150	-0.017	0.043
-229.757	-91.100	0.081	-0.023
-228.742	800.000	-0.066	-0.212
-227.727	163.700	-0.176	-0.244
-226.713	-200.000	0.002	-0.024
-225.698	-1.952	-0.228	-0.158
-224.684	41.157	-0.241	0.215
-223.669	227.084	0.095	0.152
-222.655	275.189	0.193	0.338
-221.640	102.824	0.150	0.173
-220.625	800.000	-0.075	0.236
-219.611	16.103	0.150	0.117
-218.596	-73.573	-0.043	0.015
-217.582	-200.000	-0.009	0.277
-216.567	-41.311	0.282	-0.143
-215.552	-79.917	0.187	-0.062
-214.538	800.000	-0.077	-0.217
-213.523	-200.000	0.022	0.243
-212.509	-115.656	0.283	0.052
-211.494	-200.000	0.023	-0.280
-210.479	143.448	-0.125	0.165
-209.465	-200.000	0.030	-0.165
-208.450	-61.182	-0.221	0.092
-207.436	-187.943	-0.341	0.004
-206.421	117.639	-0.186	0.226
-205.406	93.593	-0.103	-0.115
-204.392	-161.998	0.272	-0.014
-203.377	502.815	0.092	0.210
-202.363	346.665	0.099	-0.193
-201.348	-154.536	0.181	0.012
-200.333	668.500	-0.023	-0.058
-199.319	-200.000	-0.007	0.230
-198.304	656.983	-0.106	0.269
-197.290	800.000	0.098	-0.269
-196.275	-64.022	-0.090	0.036
-195.260	174.246	-0.175	0.249
-194.246	-61.970	0.265	0.109
-193.231	800.000	0.035	-0.128
-192.217	-200.000	-0.040	0.260
-191.202	-66.439	-0.138	0.054
-190.187	243.731	-0.161	-0.266
-189.173	-168.571	-0.219	0.008
-188.158	-152.220	0.134	-0.010
-187.144	-110.949	-0.221	-0.045
-186.129	-200.000	-0.030	0.193
-185.114	34.091	0.070	-0.060
-184.100	16.598	0.075	-0.058
-183.085	-38.430	-0.132	0.069
-182.071	352.251	-0.050	-0.099
-181.056	-57.905	0.107	0.046
-180.042	30.619	0.193	-0.163
-179.027	173.444	0.072	-0.102
-178.012	-200.000	0.046	0.412
-176.998	64.345	-0.236	0.234
-175.983	31.924	0.092	0.078
-174.969	90.510	0.208	-0.229
-173.954	800.000	0.018	-0.066
-172.939	-32.768	0.387	-0.212
-171.925	-21.781	-0.139	-0.083
-170.910	-200.000	0.002	0.069
-169.896	-91.100	-0.209	0.059
-168.881	-35.093	0.230	0.124
-167.866	-36.817	-0.167	0.088
-166.852	800.000	0.098	0.270
-165.837	365.331	-0.034	0.067
-164.823	221.437	0.082	-0.130
-163.808	101.224	-0.101	-0.115
-162.793	59.430	0.137	0.133
-161.779	-94.933	0.180	-0.048
-160.764	800.000	0.082	-0.241
-159.750	-200.000	0.037	0.328
-158.735	-57.695	-0.090	-0.039
-157.720	-200.000	-0.004	0.068
-156.706	-200.000	-0.018	0.080
-155.691	-200.000	-0.026	-0.124
-154.677	-26.550	-0.106	0.061
-153.662	-135.347	0.179	0.021
-152.647	324.311	0.100	0.188
-151.633	40.512	0.102	-0.091
-150.618	-14.056	0.039	-0.025
-149.604	169.548	0.067	0.095
-148.589	-142.560	0.094	0.009
-147.574	-29.827	0.248	0.139
-146.560	212.156	0.105	-0.162
-145.545	-110.324	-0.110	-0.023
-144.531	208.192	0.089	0.136
-143.516	-47.887	0.210	-0.100
-142.502	176.541	0.052	-0.075
-141.487	-200.000	0.040	-0.201
-140.472	-120.949	0.192	0.032
-139.458	-99.649	0.323	0.080
-138.443	-53.040	-0.330	0.149
-137.429	95.741	-0.073	0.082
-136.414	28.647	-0.275	0.229
-135.399	15.106	0.184	0.142
-134.385	31.499	0.251	-0.212
-133.370	-95.829	-0.140	-0.037
-132.356	616.725	0.090	0.221
-131.341	-126.630	-0.369	0.054
-130.326	-200.000	-0.007	0.204
-129.312	-200.000	0.011	0.156
-128.297	-174.089	-0.229	0.007
-127.283	-200.000	-0.007	0.345
-126.268	-21.277	-0.324	0.194
-125.253	-200.000	0.034	-0.156
-124.239	86.583	-0.096	-0.104
-123.224	-102.314	0.411	-0.097
-122.210	800.000	0.037	-0.121
-121.195	-200.000	0.001	0.455
-120.180	80.085	-0.236	0.249
-119.166	101.498	-0.202	0.231
-118.151	-200.000	-0.040	0.234
-117.137	4.398	0.239	0.172
-116.122	-183.248	-0.169	-0.003
-115.107	800.000	0.042	0.116
-114.093	446.969	0.167	0.361
-113.078	-98.976	-0.410	-0.102
-112.064	-200.000	-0.352	-0.001
-111.049	-75.720	-0.225	0.079
-110.034	800.000	0.043	-0.127
-109.020	-65.146	0.438	0.174
-108.005	564.031	-0.093	0.222
-106.991	247.087	0.109	-0.182
-105.976	-84.544	-0.120	0.037
-104.962	57.518	-0.195	-0.187
-103.947	-75.557	0.059	-0.021
-102.932	-62.317	0.515	0.211
-101.918	473.018	-0.095	0.210
-100.903	-92.765	0.295	-0.081
-99.889	-200.000	-0.044	0.211
-98.874	455.957	-0.150	0.326
-97.859	800.000	-0.052	0.159
-96.845	570.070	-0.079	0.189
-95.830	-200.000	0.007	-0.045
-94.816	81.630	-0.332	0.353
-93.801	800.000	-0.067	0.203
-92.786	800.000	-0.026	0.092
-91.772	-200.000	-0.014	0.118
-90.757	-138.285	-0.119	-0.013
-89.743	-95.855	-0.129	0.034
-88.728	-114.470	-0.116	0.022
-87.713	168.091	-0.163	0.227
-86.699	342.553	0.094	-0.181
-85.684	800.000	-0.109	0.311
-84.670	177.658	-0.190	0.272
-83.655	800.000	-0.111	0.331
-82.640	-110.240	0.125	-0.026
-81.626	319.826	-0.043	-0.081
-80.611	321.684	0.135	-0.252
-79.597	-26.166	0.212	0.122
-78.582	-130.609	0.282	-0.037
-77.567	-200.000	0.036	-0.226
-76.553	-200.000	-0.003	0.066
-75.538	-89.456	0.185	0.053
-74.524	-101.821	0.053	0.013
-73.509	161.189	-0.161	-0.221
-72.494	-21.931	0.253	-0.151
-71.480	-132.864	0.097	-0.012
-70.465	58.224	0.131	0.126
-69.451	-89.391	-0.307	-0.089
-68.436	-77.467	-0.103	-0.035
-67.422	-25.038	0.112	0.065
-66.407	-200.000	-0.021	0.150
-65.392	92.691	-0.169	-0.187
-64.378	-77.395	0.369	0.126
-63.363	231.319	0.167	0.269
-62.349	101.774	0.079	-0.090
-61.334	108.196	-0.976	-1.142
-60.319	477.997	0.295	0.656
-59.305	-200.000	-0.218	-0.983
-58.290	781.035	0.446	1.196
-57.276	454.139	0.709	1.540
-56.261	-200.000	106.128	614.245
-55.246	505.582	1507.502	3423.847
-54.232	174.807	2710.156	3844.920
-53.217	104.745	2301.727	2659.106
-52.203	38.726	1905.576	1667.141
-51.188	32.698	1691.343	1433.974
-50.173	30.119	1648.508	1378.455
-49.159	49.233	1701.797	1567.917
-48.144	49.362	1717.813	1583.589
-47.130	32.317	1674.635	1416.718
-46.115	29.737	1659.497	1384.565
-45.100	29.519	1654.915	1379.059
-44.086	29.421	1652.395	1376.172
-43.071	29.470	1649.300	1373.906
-42.057	29.434	1647.114	1371.763
-41.042	29.508	1645.337	1370.778
-40.027	29.367	1643.941	1368.511
-39.013	29.424	1641.413	1366.778
-37.998	29.369	1639.983	1365.127
-36.984	29.457	1638.598	1364.571
-35.969	29.618	1636.787	1364.192
-34.954	29.527	1635.238	1362.176
-33.940	29.543	1633.483	1360.783
-32.925	29.553	1631.458	1359.110
-31.911	29.579	1630.051	1358.080
-30.896	29.457	1628.579	1355.897
-29.881	29.536	1626.899	1355.028
-28.867	29.604	1625.217	1354.069
-27.852	29.485	1623.921	1352.067
-26.838	29.549	1622.239	1351.078
-25.823	29.622	1620.953	1350.490
-24.809	29.571	1620.070	1349.331
-23.794	29.505	1618.590	1347.559
-22.779	29.561	1616.794	1346.421
-21.765	29.492	1615.493	1344.779
-20.750	29.510	1613.670	1343.342
-19.736	29.579	1612.228	1342.592
-18.721	29.662	1610.880	1342.015
-17.706	29.630	1609.158	1340.298
-16.692	29.490	1608.516	1338.694
-15.677	29.546	1606.756	1337.579
-14.663	29.666	1604.909	1336.858
-13.648	29.724	1603.218	1335.814
-12.633	29.565	1602.567	1334.073
-11.619	29.644	1600.223	1332.639
-10.604	29.583	1599.198	1331.291
-9.590	29.586	1598.053	1330.303
-8.575	29.712	1596.780	1330.099
-7.560	29.724	1595.071	1328.711
-6.546	29.682	1594.714	1328.057
-5.531	29.607	1593.422	1326.392
-4.517	29.674	1592.050	1325.679
-3.502	29.633	1591.527	1324.898
-2.487	29.756	1589.297	1323.866
-1.473	29.342	1577.805	1311.302
-0.458	26.607	1558.509	1275.969
0.556	20.690	1560.242	1245.375
1.571	18.601	1584.437	1249.371
2.586	18.273	1598.580	1258.006
3.600	16.574	1546.070	1204.487
4.615	8.859	1435.877	1067.341
5.629	1.290	1372.214	971.610
6.644	-0.182	1364.218	956.491
7.659	-0.274	1362.587	954.681
8.673	-0.409	1362.252	953.499
9.688	-0.305	1359.690	952.286
10.702	-0.527	1357.009	948.914
11.717	3.098	1364.047	976.805
12.731	12.391	1381.538	1048.798
13.746	19.752	1394.017	1105.418
14.761	21.613	1397.200	1119.756
15.775	21.978	1396.229	1121.215
16.790	22.063	1395.819	1121.327
17.804	22.176	1395.268	1121.505
18.819	22.349	1395.211	1122.462
19.834	22.391	1394.565	1122.114
20.848	22.454	1393.661	1121.687
21.863	22.457	1392.954	1121.041
22.877	22.416	1391.978	1119.889
23.892	22.415	1391.074	1119.057
24.907	22.429	1390.333	1118.450
25.921	22.440	1389.580	1117.821
26.936	22.507	1388.209	1117.039
27.950	22.412	1387.618	1115.864
28.965	22.485	1386.332	1115.193
29.980	22.502	1384.923	1114.070
30.994	22.552	1383.643	1113.260
32.009	22.453	1382.487	1111.601
33.023	22.467	1381.616	1110.896
34.038	22.562	1380.599	1110.576
35.053	22.521	1379.200	1109.092
36.067	22.426	1379.008	1108.247
37.082	22.486	1377.606	1107.399
38.096	22.412	1377.147	1106.463
39.111	22.433	1375.991	1105.572
40.126	22.483	1375.735	1105.577
41.140	22.503	1374.577	1104.676
42.155	22.393	1374.681	1103.976
43.169	22.516	1374.354	1104.383
44.184	22.436	1374.506	1103.906
45.199	22.339	1373.965	1102.766
46.213	22.382	1373.197	1102.324
47.228	22.421	1371.982	1101.494
48.242	22.420	1371.192	1100.752
49.257	22.432	1369.570	1099.429
50.271	22.524	1368.270	1098.867
51.286	22.524	1366.685	1097.493
52.301	22.470	1365.153	1095.832
53.315	22.466	1364.620	1095.280
54.330	22.425	1364.152	1094.552
55.344	22.397	1363.167	1093.492
56.359	22.508	1361.261	1092.557
57.374	22.452	1360.827	1091.765
58.388	22.455	1360.006	1091.026
59.403	22.526	1360.037	1091.393
60.417	22.459	1359.222	1090.230
61.432	22.427	1358.612	1089.443
62.447	22.411	1357.715	1088.528
63.461	22.388	1356.292	1087.153
64.476	22.541	1354.957	1086.932
65.490	22.479	1353.742	1085.479
66.505	22.548	1352.219	1084.581
67.520	22.435	1351.415	1083.150
68.534	22.393	1350.834	1082.326
69.549	22.407	1349.897	1081.569
70.563	22.419	1348.770	1080.641
71.578	22.449	1347.832	1079.980
72.593	22.513	1347.134	1079.716
73.607	22.501	1346.264	1078.850
74.622	22.593	1344.813	1078.153
75.636	22.539	1344.744	1077.672
76.651	22.461	1343.998	1076.506
77.666	22.383	1343.361	1075.422
78.680	22.475	1342.689	1075.350
79.695	22.451	1341.926	1074.499
80.709	22.552	1341.085	1074.347
81.724	22.449	1340.386	1073.064
82.739	22.504	1339.151	1072.316
83.753	22.522	1338.087	1071.475
84.768	22.425	1337.777	1070.543
85.782	22.404	1336.640	1069.410
86.797	22.533	1335.246	1068.987
87.812	22.591	1333.861	1068.130
88.826	22.562	1332.603	1066.856
89.841	22.543	1332.083	1066.229
90.855	22.533	1330.750	1065.009
91.870	22.506	1329.886	1064.056
92.884	22.501	1329.208	1063.390
93.899	22.580	1328.417	1063.140
94.914	22.574	1327.699	1062.439
95.928	22.538	1327.025	1061.585
96.943	22.686	1326.208	1061.732
97.957	22.592	1325.166	1060.238
98.972	22.603	1324.174	1059.413
99.987	22.516	1323.695	1058.412
101.001	22.528	1322.602	1057.517
102.016	22.531	1321.722	1056.740
103.030	22.441	1321.271	1055.745
104.045	22.510	1320.093	1055.125
105.060	22.576	1318.882	1054.460
106.074	22.622	1317.797	1053.773
107.089	22.573	1317.022	1052.766
108.103	22.561	1315.352	1051.266
109.118	22.513	1314.827	1050.471
110.133	22.638	1313.620	1050.155
111.147	22.633	1311.897	1048.654
112.162	22.588	1310.924	1047.516
113.176	22.621	1309.761	1046.693
114.191	22.684	1309.370	1046.661
115.206	22.658	1308.066	1045.369
116.220	22.643	1307.210	1044.504
117.235	22.603	1306.206	1043.374
118.249	22.634	1305.332	1042.769
119.264	22.487	1304.659	1041.271
120.279	22.570	1303.709	1040.908
121.293	22.624	1302.848	1040.448
122.308	22.679	1301.775	1039.823
123.322	22.696	1300.863	1039.105
124.337	22.658	1300.006	1038.104
125.352	22.655	1299.349	1037.470
126.366	22.683	1298.149	1036.584
127.381	22.734	1297.449	1036.234
128.395	22.639	1296.497	1034.822
129.410	22.648	1295.443	1033.944
130.424	22.653	1295.038	1033.558
131.439	22.621	1294.265	1032.662
132.454	22.651	1293.129	1031.839
133.468	22.630	1292.690	1031.272
134.483	22.632	1292.354	1030.929
135.497	22.635	1291.107	1029.857
136.512	22.666	1289.944	1029.019
137.527	22.650	1288.847	1027.964
138.541	22.638	1287.333	1026.595
139.556	22.596	1286.029	1025.218
140.570	22.620	1285.219	1024.621
141.585	22.649	1284.337	1023.994
142.600	22.596	1283.389	1022.843
143.614	22.655	1282.073	1022.043
144.629	22.578	1281.055	1020.699
145.643	22.464	1280.340	1019.374
146.658	22.565	1279.093	1018.879
147.673	22.514	1278.488	1018.010
148.687	22.596	1277.391	1017.519
149.702	22.554	1276.131	1016.184
150.716	22.553	1274.955	1015.154
151.731	22.504	1274.302	1014.263
152.746	22.608	1273.065	1013.786
153.760	22.736	1271.586	1013.253
154.775	22.678	1270.928	1012.308
155.789	22.607	1269.976	1011.051
156.804	22.638	1269.084	1010.429
157.819	22.687	1267.932	1009.704
158.833	22.629	1267.636	1009.048
159.848	22.688	1266.569	1008.445
160.862	22.746	1266.006	1008.239
161.877	22.720	1265.106	1007.285
162.892	22.705	1264.291	1006.459
163.906	22.750	1263.401	1005.920
164.921	22.752	1262.546	1005.163
165.935	22.685	1262.166	1004.388
166.950	22.585	1261.853	1003.479
167.964	22.809	1260.746	1003.788
168.979	22.790	1260.276	1003.214
169.994	22.803	1259.750	1002.780
171.008	22.727	1258.852	1001.543
172.023	22.649	1258.587	1000.802
173.037	22.713	1257.691	1000.369
174.052	22.830	1256.763	1000.203
175.067	22.827	1256.019	999.505
176.081	22.764	1255.534	998.672
177.096	22.830	1254.257	997.944
178.110	22.758	1253.517	996.857
179.125	22.820	1252.084	995.981
180.140	22.883	1250.989	995.377
181.154	22.853	1250.113	994.423
182.169	22.857	1249.178	993.616
183.183	22.835	1248.232	992.648
184.198	22.862	1247.004	991.734
185.213	22.917	1245.946	991.114
186.227	22.889	1245.318	990.373
187.242	22.861	1244.686	989.623
188.256	22.847	1243.526	988.537
189.271	22.949	1242.863	988.493
190.286	22.760	1242.692	987.211
191.300	22.914	1241.513	987.048
192.315	22.854	1241.084	986.287
193.329	22.926	1240.630	986.238
194.344	22.971	1239.897	985.818
195.359	22.904	1239.721	985.221
196.373	22.830	1239.285	984.374
197.388	22.855	1238.774	984.018
198.402	22.840	1238.686	983.778
199.417	22.841	1237.988	983.142
200.432	22.798	1237.522	982.446
201.446	22.731	1237.103	981.655
202.461	22.839	1236.138	981.402
203.475	22.884	1235.505	981.061
204.490	22.857	1234.130	979.732
205.504	22.923	1232.767	978.930
206.519	23.030	1231.978	978.812
207.534	22.867	1231.284	977.270
208.548	22.945	1230.170	976.730
209.563	22.831	1229.510	975.489
210.577	22.888	1229.018	975.326
211.592	22.947	1227.809	974.606
212.607	22.956	1227.414	974.260
213.621	22.995	1226.441	973.612
214.636	23.063	1225.272	972.975
215.650	23.033	1224.546	972.145
216.665	23.102	1223.315	971.462
217.680	22.896	1223.188	970.142
218.694	22.993	1221.989	969.639
219.709	22.977	1221.606	969.163
220.723	23.046	1220.861	968.863
221.738	23.026	1219.854	967.868
222.753	23.021	1219.229	967.258
223.767	22.993	1218.739	966.633
224.782	23.054	1218.362	966.582
225.796	23.057	1217.843	966.101
226.811	23.043	1217.039	965.299
227.826	23.138	1216.537	965.336
228.840	23.097	1216.018	964.617
229.855	23.104	1215.312	964.006
230.869	23.091	1214.547	963.245
231.884	23.129	1213.705	962.699
232.899	23.070	1212.990	961.727
233.913	23.122	1212.687	961.684
234.928	23.143	1212.075	961.227
235.942	23.124	1211.616	960.675
236.957	23.236	1210.388	960.221
237.972	23.149	1209.931	959.303
238.986	23.056	1209.472	958.350
240.001	23.128	1208.593	957.958
241.015	23.265	1208.213	958.317
242.030	23.309	1207.201	957.667
243.045	23.134	1207.042	956.510
244.059	23.230	1205.611	955.806
245.074	23.282	1204.803	955.364
246.088	23.383	1203.938	955.139
247.103	23.283	1203.211	953.939
248.117	23.358	1202.500	953.694
249.132	23.318	1201.511	952.610
250.147	23.315	1200.962	952.074
251.161	23.338	1200.313	951.597
252.176	23.237	1199.813	950.576
253.190	23.318	1199.199	950.440
254.205	23.310	1198.607	949.844
255.220	23.376	1197.641	949.345
256.234	23.389	1197.604	949.303
257.249	23.294	1196.813	948.084
258.263	23.306	1196.087	947.492
259.278	23.309	1195.598	947.037
260.293	23.249	1195.362	946.445
261.307	23.378	1194.548	946.402
262.322	23.256	1194.634	945.737
263.336	23.480	1192.919	945.492
264.351	23.329	1192.738	944.457
265.366	23.283	1192.074	943.601
266.380	23.386	1191.191	943.370
267.395	23.376	1190.732	942.866
268.409	23.423	1190.080	942.522
269.424	23.408	1189.559	941.945
270.439	23.521	1188.687	941.768
271.453	23.403	1188.558	940.955
272.468	23.334	1187.764	939.877
273.482	23.415	1187.159	939.747
274.497	23.498	1186.361	939.471
275.512	23.484	1186.156	939.152
276.526	23.435	1185.340	938.166
277.541	23.507	1184.261	937.607
278.555	23.577	1183.565	937.346
279.570	23.624	1182.792	936.897
280.585	23.499	1182.111	935.614
281.599	23.470	1181.472	934.874
282.614	23.550	1180.981	934.825
283.628	23.546	1179.875	933.845
284.643	23.543	1178.883	932.959
285.657	23.496	1178.441	932.282
286.672	23.570	1177.293	931.679
287.687	23.570	1176.575	931.029
288.701	23.568	1175.887	930.389
289.716	23.594	1174.855	929.628
290.730	23.589	1174.477	929.219
291.745	23.713	1173.754	929.216
292.760	23.744	1172.932	928.645
293.774	23.673	1172.593	927.925
294.789	23.691	1172.276	927.686
295.803	23.703	1171.356	926.936
296.818	23.673	1170.761	926.229
297.833	23.745	1170.201	926.079
298.847	23.701	1169.605	925.297
299.862	23.644	1168.709	924.209
300.876	23.662	1168.088	923.730
301.891	23.694	1167.536	923.376
302.906	23.788	1166.697	923.118
303.920	23.835	1166.197	922.885
304.935	23.835	1165.459	922.222
305.949	23.838	1164.716	921.566
306.964	23.869	1163.690	920.835
307.979	23.849	1163.502	920.501
308.993	23.931	1162.675	920.188
310.008	23.919	1162.138	919.618
311.022	23.881	1161.144	918.556
312.037	23.848	1160.931	918.138
313.052	23.926	1159.383	917.233
314.066	23.801	1158.836	916.075
315.081	23.861	1158.083	915.710
316.095	23.847	1157.814	915.342
317.110	23.726	1157.432	914.333
318.125	23.893	1156.406	914.303
319.139	23.986	1155.402	913.906
320.154	23.907	1155.355	913.380
321.168	23.913	1154.794	912.890
322.183	23.772	1154.648	911.969
323.197	23.940	1153.737	912.030
324.212	23.939	1152.932	911.309
325.227	23.909	1152.913	911.057
326.241	23.943	1152.122	910.525
327.256	23.970	1151.278	909.916
328.270	24.028	1150.124	909.222
329.285	24.014	1149.450	908.538
330.300	23.934	1149.022	907.709
331.314	24.052	1148.018	907.438
332.329	24.103	1147.233	906.995
333.343	24.118	1146.564	906.466
334.358	24.011	1145.778	905.218
335.373	24.173	1145.055	905.388
336.387	24.119	1144.382	904.504
337.402	24.137	1143.575	903.874
338.416	24.130	1143.046	903.342
339.431	24.059	1142.468	902.447
340.446	24.166	1141.613	902.231
341.460	24.336	1140.839	902.403
342.475	24.147	1140.382	901.002
343.489	24.043	1139.664	899.832
344.504	24.153	1138.225	899.170
345.519	24.167	1137.583	898.656
346.533	24.174	1137.311	898.395
347.548	24.227	1136.501	897.944
348.562	24.169	1135.798	897.017
349.577	24.163	1134.791	896.114
350.592	24.218	1133.911	895.613
351.606	24.249	1133.387	895.277
352.621	24.269	1132.750	894.795
353.635	24.229	1132.421	894.254
354.650	24.316	1131.673	894.019
355.665	24.370	1130.593	893.358
356.679	24.526	1129.645	893.311
357.694	24.433	1129.464	892.624
358.708	24.404	1129.183	892.180
359.723	24.299	1128.204	890.804
360.738	24.270	1127.642	890.135
361.752	24.353	1127.257	890.167
362.767	24.368	1126.608	889.650
363.781	24.411	1126.170	889.438
364.796	24.502	1125.737	889.469
365.810	24.435	1125.018	888.491
366.825	24.389	1124.431	887.718
367.840	24.482	1123.558	887.415
368.854	24.472	1123.421	887.177
369.869	24.417	1122.470	886.075
370.883	24.443	1122.164	885.884
371.898	24.493	1121.486	885.519
372.913	24.514	1120.734	884.951
373.927	24.527	1120.231	884.537
374.942	24.607	1119.611	884.367
375.956	24.497	1118.916	883.196
376.971	24.678	1118.355	883.571
377.986	24.495	1118.221	882.484
379.000	24.519	1117.618	882.044
380.015	24.625	1116.772	881.825
381.029	24.666	1116.034	881.365
382.044	24.518	1115.772	880.349
383.059	24.679	1114.702	880.224
384.073	24.707	1114.445	880.080
385.088	24.727	1113.474	879.331
386.102	24.584	1112.541	877.815
387.117	24.679	1111.448	877.342
388.132	24.588	1110.721	876.241
389.146	24.561	1110.608	875.945
390.161	24.676	1109.637	875.662
391.175	24.798	1108.892	875.595
392.190	24.819	1107.873	874.818
393.205	24.795	1107.282	874.153
394.219	24.627	1107.102	873.115
395.234	24.671	1106.133	872.489
396.248	24.823	1104.927	872.202
397.263	24.961	1104.060	872.110
398.278	24.840	1103.861	871.289
399.292	24.734	1103.330	870.277
400.307	24.875	1102.556	870.276
401.321	24.851	1101.822	869.499
402.336	24.818	1101.187	868.762
403.350	24.837	1100.411	868.165
404.365	24.873	1099.685	867.693
405.380	24.952	1099.181	867.601
406.394	24.914	1098.602	866.882
407.409	24.817	1097.838	865.733
408.423	24.999	1096.975	865.857
409.438	25.043	1096.229	865.403
410.453	24.963	1096.201	864.918
411.467	24.950	1094.901	863.752
412.482	24.907	1094.135	862.863
413.496	25.021	1093.329	862.700
414.511	25.060	1093.150	862.671
415.526	25.059	1092.533	862.103
416.540	25.040	1092.085	861.582
417.555	25.092	1091.524	861.315
418.569	25.002	1091.525	860.808
419.584	25.122	1090.683	860.640
420.599	25.074	1090.453	860.152
421.613	147.803	1403.680	1798.377
422.628	136.732	1449.290	1798.467
