DTS Sentinel unit serial number:	SN413079Multiplexer serial number:	ORYXHardware model number:	OX4-SRSoftware version number:	ORYX F/W v4.00 Oryx Data Collector v3.7.2.0data status	okinstallation	princeton_trtdifferential loss correction	single-endedforward channel	channel 2reverse channel	N/Adate	2019/09/10time	18:05:10forward acquisition time	60.00reverse acquisition time	0.00gamma	496.2192k internal	0.2315k external	0.2315temperature offset calibration	0.9939default loss term (dB/km)	0.3790temperature slope calibration	1.0000multiplexer offset coefficient	1.0000multiplexer slope coefficient	1.0000fibre end	0.00T internal ref (°C)	36.95T ext. ref 1 (°C)	-0.37T ext. ref 2 (°C)	29.27length (m)	temperature (°C)	Stokes	anti-Stokes-747.200	-81.976	0.110	0.036
-746.185	31.440	-0.123	0.107
-745.171	-200.000	0.007	-0.259
-744.156	17.872	-0.110	0.089
-743.142	-30.283	-0.173	0.100
-742.127	800.000	0.085	0.305
-741.112	800.000	0.064	-0.259
-740.098	-97.637	-0.137	0.036
-739.083	371.289	0.068	-0.140
-738.069	-109.025	-0.212	-0.046
-737.054	37.154	-0.088	0.079
-736.039	12.413	0.165	-0.129
-735.025	374.475	-0.149	0.307
-734.010	-7.778	0.219	-0.150
-732.996	-8.553	-0.264	-0.180
-731.981	686.971	0.089	0.235
-730.966	291.235	0.012	0.023
-729.952	-200.000	0.001	-0.372
-728.937	-200.000	-0.028	-0.208
-727.923	37.784	-0.185	0.167
-726.908	176.654	0.215	-0.316
-725.894	602.413	0.052	-0.132
-724.879	-135.113	-0.337	-0.041
-723.864	-200.000	0.055	-0.326
-722.850	-200.000	-0.011	-0.408
-721.835	46.331	0.179	-0.168
-720.821	119.327	0.044	0.055
-719.806	-37.382	-0.091	0.049
-718.791	-9.878	-0.117	0.079
-717.777	800.000	-0.118	0.376
-716.762	-120.113	-0.259	-0.045
-715.748	-200.000	-0.021	-0.135
-714.733	765.571	-0.066	0.181
-713.718	-90.382	0.221	-0.065
-712.704	-200.000	0.007	-0.182
-711.689	800.000	-0.020	0.064
-710.675	125.179	0.110	-0.140
-709.660	-113.152	0.109	0.022
-708.645	310.367	-0.262	-0.496
-707.631	-24.515	-0.158	0.095
-706.616	6.292	-0.059	-0.044
-705.602	226.537	0.061	-0.101
-704.587	59.318	-0.137	0.136
-703.572	-4.888	0.072	0.050
-702.558	110.716	-0.101	0.123
-701.543	-200.000	-0.029	0.172
-700.529	-121.984	0.371	-0.062
-699.514	-6.772	0.179	0.123
-698.499	-186.174	0.074	-0.001
-697.485	411.102	-0.074	0.159
-696.470	1.169	-0.241	-0.175
-695.456	-157.259	0.062	0.004
-694.441	-200.000	0.037	-0.306
-693.426	-164.864	-0.152	-0.007
-692.412	-141.329	-0.410	-0.042
-691.397	44.871	0.081	0.076
-690.383	-53.140	0.315	-0.146
-689.368	410.089	-0.187	0.401
-688.354	127.225	-0.187	-0.240
-687.339	800.000	0.076	-0.271
-686.324	16.560	-0.145	0.116
-685.310	15.886	-0.134	0.107
-684.295	144.689	-0.177	-0.239
-683.281	-92.109	-0.253	-0.072
-682.266	-180.429	0.273	0.006
-681.251	-200.000	0.003	0.114
-680.237	99.103	-0.117	0.137
-679.222	-35.354	0.280	0.154
-678.208	504.362	-0.083	-0.193
-677.193	173.963	-0.052	0.076
-676.178	-96.200	-0.234	-0.063
-675.164	-15.907	-0.092	-0.059
-674.149	800.000	-0.099	-0.310
-673.135	-200.000	-0.015	-0.132
-672.120	-95.236	0.512	-0.139
-671.105	-200.000	0.027	0.200
-670.091	-200.000	0.030	-0.149
-669.076	462.064	-0.060	0.135
-668.062	441.467	0.084	-0.186
-667.047	-180.412	-0.215	0.005
-666.032	68.238	-0.216	-0.223
-665.018	-200.000	-0.005	0.034
-664.003	77.432	0.200	0.215
-662.989	196.440	0.075	-0.115
-661.974	800.000	0.057	-0.188
-660.959	-141.241	-0.419	0.043
-659.945	800.000	0.081	0.319
-658.930	395.882	0.078	0.165
-657.916	-200.000	0.034	-0.310
-656.901	-47.230	-0.110	-0.054
-655.886	10.422	0.061	0.047
-654.872	-53.130	-0.275	-0.128
-653.857	401.203	-0.067	-0.142
-652.843	236.355	-0.034	0.056
-651.828	310.448	-0.128	0.243
-650.814	-200.000	-0.028	0.202
-649.799	337.811	0.199	-0.392
-648.784	-145.430	-0.201	0.018
-647.770	800.000	0.003	0.008
-646.755	-157.249	-0.212	0.013
-645.741	-48.715	-0.249	-0.121
-644.726	501.706	0.042	-0.098
-643.711	-11.542	-0.188	-0.125
-642.697	-45.611	0.052	-0.026
-641.682	111.172	-0.276	-0.335
-640.668	-139.959	0.254	-0.027
-639.653	-200.000	-0.021	0.206
-638.638	270.291	0.107	0.189
-637.624	-12.268	0.291	-0.192
-636.609	-141.583	0.215	-0.022
-635.595	-65.618	0.547	-0.221
-634.580	219.151	0.194	-0.312
-633.565	-34.117	-0.114	0.063
-632.551	-125.720	-0.327	0.050
-631.536	-25.383	0.099	0.059
-630.522	-47.193	-0.287	0.141
-629.507	800.000	0.139	-0.580
-628.492	-18.092	0.294	-0.185
-627.478	262.583	0.188	0.329
-626.463	271.579	-0.154	-0.274
-625.449	-124.805	0.157	0.024
-624.434	-2.066	0.125	-0.088
-623.419	-42.145	-0.314	-0.162
-622.405	172.889	-0.169	0.245
-621.390	4.894	0.144	-0.107
-620.376	-101.966	-0.323	0.079
-619.361	16.113	-0.156	-0.124
-618.346	224.351	0.111	-0.182
-617.332	-149.153	-0.254	-0.021
-616.317	-55.514	-0.421	-0.190
-615.303	-59.675	-0.238	-0.103
-614.288	800.000	0.031	-0.120
-613.273	331.837	0.093	0.181
-612.259	-200.000	0.024	0.221
-611.244	139.521	-0.170	0.226
-610.230	169.282	0.128	-0.184
-609.215	-74.704	0.219	-0.079
-608.201	-200.000	0.006	-0.045
-607.186	109.470	0.078	0.094
-606.171	-200.000	0.024	-0.108
-605.157	5.798	-0.122	0.091
-604.142	-110.372	-0.365	-0.076
-603.128	-36.213	0.205	-0.111
-602.113	70.223	-0.053	-0.056
-601.098	-100.762	-0.133	-0.033
-600.084	-200.000	-0.047	-0.335
-599.069	-46.941	0.060	0.029
-598.055	-200.000	-0.051	0.253
-597.040	-45.837	-0.091	-0.045
-596.025	221.473	-0.070	0.113
-595.011	298.853	0.072	-0.133
-593.996	78.161	-0.175	-0.188
-592.982	-193.995	0.136	0.001
-591.967	191.796	-0.072	-0.109
-590.952	-200.000	0.018	-0.318
-589.938	-97.123	-0.178	-0.047
-588.923	-156.706	0.246	-0.015
-587.909	75.293	0.095	0.101
-586.894	-133.848	0.259	-0.032
-585.879	109.910	-0.093	-0.112
-584.865	191.627	0.045	-0.068
-583.850	504.372	-0.058	-0.136
-582.836	403.161	-0.189	-0.400
-581.821	-200.000	0.031	-0.157
-580.806	40.658	-0.150	-0.136
-579.792	800.000	0.140	-0.413
-578.777	211.504	0.038	-0.060
-577.763	118.559	-0.130	-0.162
-576.748	-200.000	-0.038	-0.225
-575.733	-200.000	0.006	-0.083
-574.719	-109.322	-0.151	-0.032
-573.704	124.400	0.075	-0.095
-572.690	6.867	0.286	0.214
-571.675	-144.678	-0.426	0.040
-570.661	668.780	-0.048	0.124
-569.646	-14.560	0.348	0.225
-568.631	800.000	0.060	-0.212
-567.617	50.023	-0.021	-0.020
-566.602	-113.322	-0.156	-0.031
-565.588	-200.000	-0.047	0.419
-564.573	-13.273	0.118	0.077
-563.558	303.497	-0.076	0.141
-562.544	57.656	-0.149	-0.147
-561.529	80.742	-0.150	0.162
-560.515	159.468	-0.057	-0.080
-559.500	-160.798	-0.216	0.011
-558.485	155.829	-0.229	-0.317
-557.471	-200.000	0.084	-0.458
-556.456	276.997	-0.096	0.172
-555.442	133.327	0.150	0.195
-554.427	191.910	0.146	-0.221
-553.412	42.455	-0.258	-0.236
-552.398	-200.000	0.018	0.080
-551.383	-129.865	-0.112	0.015
-550.369	25.702	0.160	0.134
-549.354	-200.000	0.027	0.186
-548.339	-44.359	-0.239	-0.121
-547.325	-200.000	-0.001	0.189
-546.310	-200.000	0.032	0.263
-545.296	-66.219	0.104	0.042
-544.281	-76.717	0.363	0.128
-543.266	461.867	-0.095	-0.212
-542.252	-14.656	-0.075	0.049
-541.237	156.411	0.108	-0.150
-540.223	-109.715	0.097	0.021
-539.208	-70.590	-0.228	0.087
-538.193	800.000	0.024	0.090
-537.179	-136.773	0.176	0.020
-536.164	800.000	0.067	-0.284
-535.150	149.396	0.150	0.204
-534.135	-200.000	0.006	-0.088
-533.121	-200.000	0.025	-0.124
-532.106	320.195	-0.055	-0.105
-531.091	-135.016	-0.147	-0.018
-530.077	106.917	-0.040	-0.048
-529.062	125.893	-0.163	-0.207
-528.048	-45.503	0.109	0.054
-527.033	-174.272	-0.165	0.005
-526.018	800.000	-0.096	0.321
-525.004	-111.375	0.230	-0.047
-523.989	-124.824	-0.088	0.014
-522.975	-185.476	-0.160	0.002
-521.960	-37.291	-0.118	0.063
-520.945	134.154	0.105	-0.136
-519.931	-200.000	-0.019	0.143
-518.916	-200.000	-0.069	-0.521
-517.902	279.047	-0.065	0.116
-516.887	33.428	-0.118	0.103
-515.872	-156.735	0.144	-0.009
-514.858	-120.437	-0.152	0.026
-513.843	-200.000	-0.007	0.231
-512.829	181.435	-0.128	0.189
-511.814	-200.000	-0.043	-0.241
-510.799	31.764	0.142	-0.123
-509.785	135.936	0.118	0.154
-508.770	-44.407	0.263	-0.132
-507.756	201.974	-0.136	-0.211
-506.741	66.774	0.096	-0.098
-505.726	-59.940	0.181	-0.078
-504.712	-103.422	0.257	0.061
-503.697	-200.000	-0.018	0.140
-502.683	800.000	-0.019	-0.074
-501.668	-146.989	0.467	-0.040
-500.653	-146.556	-0.079	-0.007
-499.639	260.736	-0.106	-0.185
-498.624	-200.000	0.037	0.182
-497.610	25.447	0.349	0.291
-496.595	405.704	-0.059	0.126
-495.581	-183.367	-0.079	-0.001
-494.566	179.467	-0.186	-0.273
-493.551	800.000	-0.120	-0.335
-492.537	-83.507	0.093	-0.030
-491.522	800.000	0.064	-0.249
-490.508	-47.278	-0.136	-0.067
-489.493	800.000	-0.104	-0.330
-488.478	-180.536	-0.405	0.008
-487.464	513.790	-0.041	0.095
-486.449	310.268	0.200	-0.375
-485.435	-21.122	0.122	-0.075
-484.420	-59.716	0.494	-0.212
-483.405	-71.956	-0.264	-0.098
-482.391	32.434	-0.529	0.459
-481.376	291.547	0.058	0.106
-480.362	98.139	-0.080	-0.093
-479.347	-85.433	-0.092	-0.029
-478.332	-24.959	0.138	0.082
-477.318	32.718	-0.052	-0.045
-476.303	81.425	-0.128	0.139
-475.289	-43.761	0.134	-0.068
-474.274	104.038	0.074	-0.087
-473.259	-56.110	0.313	0.140
-472.245	410.933	0.035	-0.074
-471.230	-161.579	-0.368	0.019
-470.216	-89.726	-0.085	-0.025
-469.201	221.546	-0.106	0.171
-468.186	311.076	0.103	0.193
-467.172	-5.600	0.157	-0.108
-466.157	166.992	-0.024	-0.034
-465.143	-121.446	0.350	-0.058
-464.128	-9.802	0.199	0.133
-463.113	-200.000	-0.004	-0.231
-462.099	171.725	-0.092	-0.133
-461.084	26.349	0.158	-0.132
-460.070	165.614	0.093	0.132
-459.055	213.550	0.152	-0.240
-458.040	-120.515	-0.383	0.065
-457.026	685.635	-0.157	0.410
-456.011	-57.211	0.158	-0.070
-454.997	-90.569	0.268	0.078
-453.982	629.381	-0.080	-0.203
-452.968	142.889	-0.172	-0.229
-451.953	-79.944	-0.332	-0.112
-450.938	-200.000	0.044	0.214
-449.924	-34.826	-0.068	-0.037
-448.909	76.894	-0.107	-0.113
-447.895	-200.000	-0.035	-0.251
-446.880	800.000	-0.069	0.209
-445.865	34.472	-0.231	-0.202
-444.851	116.297	-0.039	-0.048
-443.836	-81.735	-0.267	-0.088
-442.822	-30.784	-0.123	0.070
-441.807	-200.000	0.005	0.305
-440.792	800.000	0.047	0.192
-439.778	-55.185	0.223	-0.100
-438.763	800.000	-0.043	-0.168
-437.749	170.040	-0.066	0.094
-436.734	40.277	0.267	0.241
-435.719	201.432	-0.016	0.024
-434.705	399.640	-0.050	-0.105
-433.690	2.483	-0.097	0.070
-432.676	11.969	0.174	0.134
-431.661	800.000	0.090	0.394
-430.646	-200.000	-0.093	0.409
-429.632	-200.000	-0.020	-0.198
-428.617	317.117	0.086	0.162
-427.603	-200.000	-0.038	-0.240
-426.588	-31.942	-0.265	0.149
-425.573	-105.222	-0.202	-0.046
-424.559	-62.784	0.149	0.062
-423.544	-31.506	0.057	-0.032
-422.530	70.166	-0.151	0.156
-421.515	-72.883	0.197	0.072
-420.500	-52.525	-0.086	0.040
-419.486	-31.767	-0.167	0.094
-418.471	63.891	0.227	-0.229
-417.457	-8.570	0.036	0.024
-416.442	800.000	0.065	0.235
-415.428	-200.000	0.027	-0.193
-414.413	187.696	-0.059	-0.089
-413.398	10.095	-0.157	-0.120
-412.384	-8.360	0.145	-0.097
-411.369	346.098	-0.040	-0.079
-410.355	529.005	-0.145	0.342
-409.340	213.073	-0.136	-0.215
-408.325	107.301	0.110	-0.131
-407.311	800.000	-0.035	-0.149
-406.296	407.576	0.079	-0.166
-405.282	-95.030	-0.518	0.140
-404.267	-30.888	-0.137	0.078
-403.252	-105.482	-0.050	0.011
-402.238	189.634	-0.112	0.167
-401.223	151.747	0.202	0.275
-400.209	145.071	0.189	0.252
-399.194	-157.899	-0.172	-0.010
-398.179	-73.552	0.332	-0.121
-397.165	-163.833	0.306	-0.014
-396.150	-113.555	0.393	0.077
-395.136	-2.897	-0.160	0.112
-394.121	567.450	0.059	0.143
-393.106	8.872	0.216	-0.163
-392.092	-200.000	-0.052	-0.631
-391.077	-200.000	0.019	0.185
-390.063	30.680	-0.230	-0.197
-389.048	-200.000	-0.014	0.106
-388.033	298.359	-0.114	-0.210
-387.019	-200.000	0.010	0.193
-386.004	1.509	-0.073	0.053
-384.990	-200.000	-0.023	0.148
-383.975	800.000	0.132	0.396
-382.960	290.339	0.047	-0.086
-381.946	-200.000	-0.035	0.425
-380.931	75.140	-0.108	0.114
-379.917	221.385	0.006	0.010
-378.902	35.043	0.060	0.053
-377.888	291.873	-0.141	-0.256
-376.873	41.536	0.302	-0.274
-375.858	-50.635	-0.122	0.057
-374.844	616.687	0.103	0.259
-373.829	-1.950	-0.116	-0.082
-372.815	-15.278	0.139	0.089
-371.800	-70.428	-0.459	-0.174
-370.785	-117.665	0.115	0.021
-369.771	601.204	-0.029	-0.071
-368.756	362.701	0.055	0.110
-367.742	16.531	0.096	0.076
-366.727	141.804	-0.257	0.340
-365.712	63.478	0.095	0.095
-364.698	-138.010	0.138	-0.015
-363.683	12.279	0.369	-0.284
-362.669	-18.048	-0.368	0.230
-361.654	150.304	0.073	-0.099
-360.639	-100.860	0.127	0.031
-359.625	-136.912	0.102	0.012
-358.610	-48.814	-0.024	0.011
-357.596	-200.000	-0.005	0.050
-356.581	51.463	-0.228	-0.216
-355.566	-37.610	0.146	0.078
-354.552	-58.491	0.383	-0.166
-353.537	86.772	-0.101	0.111
-352.523	179.405	0.119	-0.174
-351.508	800.000	-0.012	-0.037
-350.493	800.000	0.054	0.218
-349.479	800.000	-0.023	-0.102
-348.464	81.052	-0.084	-0.091
-347.450	57.203	0.178	0.174
-346.435	71.474	-0.114	0.118
-345.420	652.663	0.092	-0.234
-344.406	-146.752	-0.052	-0.005
-343.391	772.174	-0.084	0.229
-342.377	800.000	-0.068	0.253
-341.362	-8.796	-0.144	0.096
-340.348	7.492	0.456	0.340
-339.333	800.000	-0.029	0.099
-338.318	48.973	0.219	-0.205
-337.304	-136.947	-0.195	-0.022
-336.289	-118.475	0.275	0.049
-335.275	-112.531	-0.069	0.014
-334.260	-27.058	0.090	0.053
-333.245	136.843	-0.225	0.294
-332.231	406.232	0.203	-0.428
-331.216	340.932	0.168	-0.328
-330.202	800.000	-0.082	-0.255
-329.187	-122.753	-0.254	0.041
-328.172	-4.408	-0.048	0.033
-327.158	-148.552	-0.336	0.027
-326.143	214.120	0.063	0.099
-325.129	-200.000	0.030	-0.150
-324.114	-189.415	0.223	-0.003
-323.099	33.743	0.174	0.151
-322.085	800.000	-0.033	-0.134
-321.070	67.330	-0.174	0.177
-320.056	-124.675	0.187	-0.029
-319.041	327.963	-0.153	0.292
-318.026	-85.139	0.200	-0.062
-317.012	-132.244	-0.108	0.014
-315.997	-125.994	0.351	0.053
-314.983	-52.043	-0.261	0.121
-313.968	135.476	0.130	0.168
-312.953	-200.000	0.005	-0.022
-311.939	-147.780	-0.221	0.018
-310.924	-0.937	0.258	-0.182
-309.910	-72.407	0.248	-0.092
-308.895	-200.000	0.017	-0.092
-307.880	148.032	0.234	0.315
-306.866	618.365	0.117	0.292
-305.851	-21.621	-0.027	0.016
-304.837	26.391	-0.297	0.247
-303.822	-165.682	-0.205	0.009
-302.807	27.078	0.155	-0.129
-301.793	-157.614	0.328	-0.020
-300.778	651.842	0.064	0.164
-299.764	79.247	-0.092	0.098
-298.749	15.467	0.196	-0.153
-297.735	118.767	-0.169	0.207
-296.720	-165.001	0.296	0.013
-295.705	661.335	-0.009	0.024
-294.691	-71.698	-0.212	-0.079
-293.676	-200.000	0.061	-0.286
-292.662	-5.734	-0.174	0.119
-291.647	85.027	0.136	0.149
-290.632	118.720	0.098	-0.121
-289.618	-31.254	0.356	-0.199
-288.603	-181.520	-0.234	0.005
-287.589	30.580	0.151	-0.128
-286.574	-125.004	-0.196	-0.030
-285.559	125.569	-0.081	0.102
-284.545	204.097	0.113	0.174
-283.530	36.467	-0.184	-0.162
-282.516	-29.918	0.078	-0.044
-281.501	-200.000	-0.010	0.106
-280.486	-112.256	-0.177	0.035
-279.472	202.594	-0.147	-0.226
-278.457	30.910	-0.320	-0.273
-277.443	134.669	-0.018	0.024
-276.428	800.000	0.128	0.357
-275.413	649.407	-0.070	0.177
-274.399	143.732	-0.118	0.156
-273.384	35.835	-0.055	-0.048
-272.370	657.327	0.038	0.096
-271.355	211.977	-0.207	-0.325
-270.340	116.732	-0.227	-0.278
-269.326	380.935	0.057	-0.117
-268.311	64.386	-0.192	-0.193
-267.297	27.758	0.373	-0.313
-266.282	213.678	-0.043	0.068
-265.267	-85.485	-0.256	-0.079
-264.253	35.407	0.196	-0.171
-263.238	-2.330	0.184	0.128
-262.224	217.945	-0.101	0.160
-261.209	537.043	-0.201	0.475
-260.195	-92.217	-0.262	0.074
-259.180	288.219	-0.119	-0.214
-258.165	-75.233	-0.378	-0.134
-257.151	155.777	0.164	0.225
-256.136	31.737	-0.197	0.169
-255.122	-151.971	-0.299	0.022
-254.107	-83.084	0.207	-0.066
-253.092	147.464	0.241	0.322
-252.078	-102.641	-0.239	0.057
-251.063	-200.000	0.026	0.278
-250.049	-43.091	0.113	0.057
-249.034	-114.428	-0.118	-0.022
-248.019	-170.395	-0.233	0.008
-247.005	-66.491	-0.122	-0.048
-245.990	6.641	-0.149	-0.110
-244.976	362.838	-0.178	0.355
-243.961	-85.096	0.141	-0.044
-242.946	-77.782	-0.145	0.050
-241.932	-89.289	0.160	0.047
-240.917	444.481	-0.129	-0.281
-239.903	-96.384	-0.118	-0.031
-238.888	614.983	-0.057	0.143
-237.873	-13.523	0.078	0.050
-236.859	-31.848	0.215	-0.120
-235.844	12.660	0.142	-0.109
-234.830	758.836	0.018	0.050
-233.815	800.000	0.050	0.169
-232.800	-143.115	0.335	-0.032
-231.786	-26.493	0.274	-0.159
-230.771	-52.833	0.342	-0.157
-229.757	800.000	0.125	0.413
-228.742	800.000	0.111	0.386
-227.727	-135.987	0.421	-0.049
-226.713	-75.314	0.109	-0.039
-225.698	79.193	-0.213	0.226
-224.684	543.935	0.164	0.390
-223.669	-32.381	-0.130	-0.072
-222.655	157.383	0.259	0.356
-221.640	648.159	0.046	0.117
-220.625	271.809	0.119	-0.208
-219.611	-107.439	-0.199	0.043
-218.596	-56.532	-0.119	0.052
-217.582	-93.325	-0.118	-0.032
-216.567	135.072	0.084	-0.108
-215.552	516.666	-0.084	0.195
-214.538	121.370	0.120	-0.148
-213.523	64.230	-0.201	0.201
-212.509	-200.000	-0.026	0.434
-211.494	7.207	0.124	0.092
-210.479	-49.586	0.179	0.085
-209.465	800.000	-0.060	0.230
-208.450	392.246	0.177	0.364
-207.436	293.778	0.216	-0.391
-206.421	-200.000	-0.017	0.301
-205.406	-120.357	0.207	0.035
-204.392	-22.648	-0.238	-0.143
-203.377	-153.746	0.263	0.018
-202.363	-200.000	0.055	0.285
-201.348	-200.000	-0.007	0.086
-200.333	164.275	-0.138	-0.193
-199.319	4.862	-0.191	-0.139
-198.304	32.351	-0.147	-0.126
-197.290	-200.000	0.049	-0.378
-196.275	-200.000	0.012	-0.067
-195.260	-200.000	-0.006	-0.254
-194.246	-27.764	0.144	-0.083
-193.231	-158.321	-0.497	-0.029
-192.217	-128.553	-0.074	0.010
-191.202	109.622	0.161	-0.192
-190.187	316.399	-0.077	-0.144
-189.173	-200.000	-0.010	-0.095
-188.158	446.834	0.143	0.312
-187.144	-200.000	0.092	0.426
-186.129	800.000	-0.007	0.023
-185.114	-25.343	0.214	0.126
-184.100	40.021	-0.123	0.109
-183.085	-41.936	0.101	0.051
-182.071	-75.861	-0.085	-0.030
-181.056	144.096	0.090	0.119
-180.042	-77.113	0.303	-0.105
-179.027	-72.419	-0.199	0.073
-178.012	583.852	-0.071	-0.172
-176.998	-99.628	0.308	0.077
-175.983	342.002	0.053	0.103
-174.969	-105.174	-0.131	-0.030
-173.954	35.131	-0.160	-0.139
-172.939	-76.606	-0.316	0.110
-171.925	115.932	0.123	0.149
-170.910	103.841	-0.055	-0.064
-169.896	271.975	0.167	-0.291
-168.881	459.864	0.060	0.131
-167.866	632.484	-0.075	0.189
-166.852	334.113	0.094	0.180
-165.837	-102.925	-0.464	-0.109
-164.823	150.884	0.239	0.321
-163.808	445.975	0.188	0.410
-162.793	800.000	0.049	0.210
-161.779	27.072	0.259	0.215
-160.764	-104.999	0.256	-0.058
-159.750	18.044	0.287	-0.227
-158.735	-120.895	-0.135	-0.023
-157.720	248.957	-0.221	0.371
-156.706	-34.802	0.262	-0.142
-155.691	-200.000	-0.001	-0.178
-154.677	-105.289	-0.407	-0.092
-153.662	-122.114	0.152	-0.025
-152.647	-200.000	0.030	-0.204
-151.633	334.336	-0.068	-0.130
-150.618	-200.000	0.024	-0.297
-149.604	-27.612	-0.157	-0.091
-148.589	-164.288	-0.076	-0.003
-147.574	-200.000	-0.041	-0.240
-146.560	241.542	0.136	0.224
-145.545	800.000	-0.021	-0.066
-144.531	155.116	-0.207	0.281
-143.516	6.477	0.066	0.049
-142.502	119.979	-0.258	-0.317
-141.487	-200.000	0.038	-0.200
-140.472	800.000	0.095	-0.307
-139.458	-35.769	-0.095	0.051
-138.443	-96.756	-0.237	-0.062
-137.429	-200.000	-0.040	0.192
-136.414	-37.608	-0.102	0.054
-135.399	-111.210	-0.214	0.043
-134.385	-200.000	0.002	0.397
-133.370	-122.336	-0.333	0.054
-132.356	800.000	0.050	0.146
-131.341	800.000	0.099	-0.303
-130.326	-107.759	0.132	-0.029
-129.312	-45.241	0.097	-0.048
-128.297	46.323	-0.040	-0.037
-127.283	404.005	-0.098	-0.204
-126.268	800.000	0.095	-0.373
-125.253	-200.000	-0.066	0.313
-124.239	-102.659	-0.143	-0.034
-123.224	484.928	-0.039	0.089
-122.210	208.692	0.176	0.273
-121.195	81.203	-0.123	-0.132
-120.180	7.783	-0.148	0.109
-119.166	65.933	-0.138	0.138
-118.151	800.000	0.020	-0.083
-117.137	601.362	-0.104	0.256
-116.122	-109.926	0.179	0.037
-115.107	-200.000	-0.081	-0.439
-114.093	2.314	0.198	-0.142
-113.078	-155.855	-0.112	0.007
-112.064	-58.913	0.224	0.096
-111.049	-200.000	0.006	0.070
-110.034	455.196	0.013	-0.028
-109.020	32.537	0.143	0.123
-108.005	129.055	-0.226	0.286
-106.991	-161.248	-0.227	0.012
-105.976	-103.682	0.185	-0.043
-104.962	-6.288	-0.243	0.164
-103.947	112.769	-0.031	-0.037
-102.932	-200.000	0.042	0.187
-101.918	-169.411	-0.276	-0.010
-100.903	-200.000	0.013	0.369
-99.889	-200.000	0.038	-0.167
-98.874	-161.451	0.426	-0.022
-97.859	-24.012	0.104	0.061
-96.845	449.409	-0.097	0.212
-95.830	-82.854	0.269	-0.086
-94.816	-52.166	-0.256	0.117
-93.801	226.681	0.075	-0.120
-92.786	63.965	-0.163	-0.162
-91.772	-35.054	-0.184	0.099
-90.757	141.873	-0.046	-0.061
-89.743	133.193	-0.144	-0.183
-88.728	123.584	0.166	-0.205
-87.713	-200.000	0.017	0.364
-86.699	198.745	-0.151	-0.228
-85.684	30.939	-0.208	-0.176
-84.670	-88.655	-0.156	0.046
-83.655	88.897	0.177	-0.194
-82.640	184.378	-0.204	0.298
-81.626	-200.000	0.024	-0.151
-80.611	15.112	0.197	-0.153
-79.597	-116.770	0.226	-0.041
-78.582	-102.259	-0.312	0.074
-77.567	254.906	0.006	-0.011
-76.553	-133.760	0.069	0.009
-75.538	800.000	-0.056	0.171
-74.524	89.174	0.073	0.080
-73.509	465.526	-0.252	-0.557
-72.494	-200.000	-0.021	-0.165
-71.480	213.210	0.054	0.084
-70.465	800.000	-0.070	0.193
-69.451	-200.000	0.020	-0.099
-68.436	-50.813	0.247	0.115
-67.422	176.119	0.230	-0.330
-66.407	37.489	0.332	0.290
-65.392	-200.000	-0.016	-0.150
-64.378	-200.000	0.064	-0.000
-63.363	-67.777	-0.297	-0.115
-62.349	363.297	0.061	0.121
-61.334	-15.218	-1.031	-0.651
-60.319	394.809	0.229	0.471
-59.305	-200.000	-0.105	-0.844
-58.290	186.627	0.590	0.867
-57.276	455.151	0.620	1.356
-56.261	-200.000	90.373	497.601
-55.246	540.396	1377.495	3235.599
-54.232	182.673	2633.250	3832.237
-53.217	111.732	2352.080	2800.606
-52.203	45.937	1962.513	1791.185
-51.188	40.215	1747.495	1550.223
-50.173	37.288	1702.600	1487.955
-49.159	52.257	1747.161	1643.332
-48.144	55.797	1765.873	1688.352
-47.130	39.812	1723.413	1525.502
-46.115	36.961	1708.578	1490.429
-45.100	36.842	1703.701	1485.202
-44.086	36.845	1700.321	1482.220
-43.071	36.793	1697.664	1479.444
-42.057	36.750	1695.334	1477.027
-41.042	36.918	1692.894	1476.127
-40.027	36.737	1691.760	1473.702
-39.013	36.801	1689.184	1471.885
-37.998	36.827	1687.242	1470.333
-36.984	36.773	1686.236	1468.982
-35.969	36.947	1684.254	1468.523
-34.954	36.965	1683.147	1467.631
-33.940	36.975	1681.202	1465.951
-32.925	36.897	1679.641	1463.947
-31.911	36.945	1677.669	1462.532
-30.896	36.917	1675.636	1460.488
-29.881	36.904	1674.609	1459.435
-28.867	36.994	1672.789	1458.470
-27.852	37.030	1671.249	1457.339
-26.838	36.956	1669.507	1455.209
-25.823	36.948	1668.145	1453.904
-24.809	36.972	1666.919	1452.957
-23.794	36.919	1665.489	1451.253
-22.779	37.068	1663.800	1450.844
-21.765	36.987	1662.203	1448.783
-20.750	36.963	1660.274	1446.868
-19.736	36.944	1658.839	1445.418
-18.721	37.050	1657.457	1444.943
-17.706	37.013	1656.087	1443.422
-16.692	37.030	1654.039	1441.705
-15.677	36.949	1653.346	1440.442
-14.663	36.924	1652.392	1439.370
-13.648	37.013	1650.213	1438.075
-12.633	37.038	1648.670	1436.855
-11.619	37.015	1646.770	1434.970
-10.604	37.069	1644.702	1433.510
-9.590	36.998	1644.192	1432.483
-8.575	36.922	1642.843	1430.692
-7.560	37.035	1641.271	1430.104
-6.546	36.852	1640.694	1428.193
-5.531	37.018	1639.051	1427.928
-4.517	36.967	1638.284	1426.826
-3.502	36.865	1637.797	1425.597
-2.487	37.067	1635.567	1425.083
-1.473	36.703	1622.627	1411.097
-0.458	33.243	1601.258	1367.500
0.556	26.309	1599.160	1325.540
1.571	23.441	1622.944	1323.752
2.586	22.861	1636.344	1330.194
3.600	20.498	1583.785	1270.111
4.615	11.018	1468.963	1113.356
5.629	1.747	1397.406	998.461
6.644	-0.268	1387.673	978.293
7.659	-0.325	1386.639	977.103
8.673	-0.424	1385.057	975.256
9.688	-0.452	1383.568	973.940
10.702	-0.628	1380.298	970.411
11.717	2.710	1387.409	997.057
12.731	12.010	1405.751	1071.180
13.746	17.862	1414.669	1116.268
14.761	17.803	1413.030	1114.488
15.775	17.665	1412.208	1112.836
16.790	17.603	1412.101	1112.253
17.804	17.684	1411.367	1112.105
18.819	17.902	1411.410	1113.459
19.834	17.924	1410.202	1112.551
20.848	17.969	1409.397	1112.112
21.863	17.909	1408.495	1110.914
22.877	18.005	1407.257	1110.462
23.892	17.934	1406.408	1109.232
24.907	17.912	1405.843	1108.545
25.921	17.995	1404.866	1108.213
26.936	18.039	1403.830	1107.583
27.950	17.969	1402.606	1106.070
28.965	17.989	1401.444	1105.184
29.980	17.867	1400.028	1103.181
30.994	17.913	1398.237	1101.970
32.009	17.966	1397.356	1101.516
33.023	17.953	1396.121	1100.362
34.038	17.872	1395.268	1099.074
35.053	17.892	1393.868	1097.999
36.067	17.895	1392.825	1097.103
37.082	17.920	1391.772	1096.335
38.096	17.939	1390.522	1095.378
39.111	17.921	1390.008	1094.760
40.126	17.961	1389.034	1094.150
41.140	17.889	1388.825	1093.427
42.155	17.911	1388.330	1093.082
43.169	17.884	1388.211	1092.717
44.184	17.987	1387.880	1093.021
45.199	17.894	1387.396	1091.950
46.213	17.919	1386.801	1091.544
47.228	17.945	1386.029	1091.005
48.242	17.945	1384.593	1089.780
49.257	17.921	1383.055	1088.317
50.271	17.979	1381.349	1087.252
51.286	17.926	1380.251	1085.954
52.301	17.805	1379.451	1084.458
53.315	17.952	1378.196	1084.306
54.330	17.969	1377.235	1083.562
55.344	17.898	1375.926	1081.986
56.359	17.853	1375.126	1080.978
57.374	17.915	1373.794	1080.229
58.388	17.863	1373.401	1079.493
59.403	17.804	1373.026	1078.732
60.417	17.967	1372.144	1078.975
61.432	17.852	1370.941	1077.206
62.447	17.938	1370.453	1077.272
63.461	17.924	1369.353	1076.221
64.476	17.972	1367.949	1075.324
65.490	17.938	1366.992	1074.261
66.505	17.930	1365.290	1072.778
67.520	17.957	1363.801	1071.683
68.534	17.932	1362.954	1070.769
69.549	17.900	1361.975	1069.704
70.563	17.894	1361.020	1068.824
71.578	17.950	1359.863	1068.170
72.593	17.928	1359.200	1067.414
73.607	17.926	1358.335	1066.631
74.622	17.967	1357.493	1066.128
75.636	18.006	1356.166	1065.239
76.651	17.974	1355.554	1064.459
77.666	17.957	1355.100	1063.904
78.680	17.976	1354.557	1063.505
79.695	18.008	1353.066	1062.438
80.709	17.893	1352.690	1061.335
81.724	17.942	1351.532	1060.635
82.739	17.966	1350.648	1059.993
83.753	17.906	1349.527	1058.654
84.768	17.974	1348.600	1058.251
85.782	17.915	1347.479	1056.912
86.797	17.980	1345.905	1055.989
87.812	17.957	1344.909	1054.968
88.826	17.950	1344.115	1054.208
89.841	18.038	1342.223	1053.174
90.855	18.066	1341.176	1052.434
91.870	18.027	1340.500	1051.570
92.884	18.053	1339.812	1051.099
93.899	17.951	1339.046	1049.773
94.914	17.958	1338.019	1048.923
95.928	18.038	1337.252	1048.717
96.943	18.068	1336.232	1048.011
97.957	17.924	1335.522	1046.478
98.972	18.024	1334.580	1046.261
99.987	18.064	1333.525	1045.583
101.001	17.967	1332.581	1044.159
102.016	17.991	1331.347	1043.244
103.030	18.000	1329.906	1042.081
104.045	18.003	1329.364	1041.583
105.060	18.021	1328.111	1040.616
106.074	18.046	1327.027	1039.827
107.089	18.057	1325.715	1038.773
108.103	17.988	1324.675	1037.447
109.118	18.009	1323.353	1036.450
110.133	18.019	1322.020	1035.374
111.147	18.155	1320.291	1034.751
112.162	18.080	1319.208	1033.358
113.176	18.067	1318.187	1032.387
114.191	17.998	1317.340	1031.215
115.206	18.095	1316.154	1030.779
116.220	18.027	1314.788	1029.212
117.235	18.061	1313.554	1028.359
118.249	17.912	1312.893	1026.850
119.264	17.978	1311.536	1026.098
120.279	18.100	1310.527	1025.952
121.293	18.144	1309.501	1025.322
122.308	18.016	1308.503	1023.680
123.322	18.025	1307.195	1022.618
124.337	18.053	1306.513	1022.163
125.352	18.125	1305.421	1021.649
126.366	18.126	1304.453	1020.805
127.381	18.115	1302.928	1019.459
128.395	18.095	1302.685	1019.060
129.410	18.114	1301.306	1018.001
130.424	18.138	1300.402	1017.351
131.439	18.145	1299.568	1016.649
132.454	18.088	1298.311	1015.237
133.468	17.995	1297.928	1014.296
134.483	18.094	1297.113	1014.157
135.497	18.152	1296.115	1013.629
136.512	18.112	1295.040	1012.462
137.527	18.096	1293.505	1011.079
138.541	18.206	1291.797	1010.300
139.556	18.059	1290.771	1008.541
140.570	18.102	1289.485	1007.700
141.585	18.075	1288.232	1006.474
142.600	18.015	1287.287	1005.298
143.614	18.052	1286.146	1004.533
144.629	18.013	1284.860	1003.208
145.643	18.029	1283.704	1002.311
146.658	17.970	1282.432	1000.884
147.673	18.022	1281.743	1000.564
148.687	17.979	1280.373	999.152
149.702	18.003	1279.053	998.176
150.716	18.057	1277.688	997.339
151.731	18.128	1276.843	997.002
152.746	17.992	1276.087	995.533
153.760	18.099	1274.210	994.601
154.775	18.128	1273.211	993.902
155.789	18.071	1272.599	993.009
156.804	17.957	1271.254	991.205
157.819	18.099	1270.153	991.082
158.833	18.118	1269.280	990.427
159.848	18.177	1268.476	990.055
160.862	18.109	1267.253	988.618
161.877	18.140	1266.554	988.161
162.892	18.123	1265.708	987.319
163.906	18.170	1264.847	986.832
164.921	18.104	1264.007	985.706
165.935	18.144	1262.956	985.028
166.950	18.203	1262.324	984.789
167.964	18.155	1261.366	983.677
168.979	18.080	1261.057	982.918
169.994	18.118	1260.242	982.419
171.008	18.150	1259.738	982.123
172.023	18.161	1258.911	981.454
173.037	18.141	1258.367	980.827
174.052	18.171	1257.472	980.213
175.067	18.175	1256.409	979.322
176.081	18.146	1255.672	978.491
177.096	18.164	1254.712	977.765
178.110	18.126	1253.962	976.874
179.125	18.287	1252.663	976.694
180.140	18.192	1251.507	975.167
181.154	18.213	1250.464	974.386
182.169	18.164	1249.528	973.291
183.183	18.179	1248.423	972.429
184.198	18.307	1246.620	971.665
185.213	18.222	1246.176	970.751
186.227	18.171	1245.781	970.068
187.242	18.229	1244.314	969.172
188.256	18.271	1243.405	968.612
189.271	18.283	1242.675	968.024
190.286	18.211	1241.864	966.901
191.300	18.348	1241.201	967.073
192.315	18.249	1240.713	966.048
193.329	18.292	1240.181	965.795
194.344	18.265	1239.963	965.383
195.359	18.296	1239.409	965.043
196.373	18.207	1238.482	963.736
197.388	18.157	1238.045	963.026
198.402	18.263	1237.812	963.358
199.417	18.227	1237.025	962.460
200.432	18.282	1236.533	962.299
201.446	18.265	1236.134	961.807
202.461	18.152	1234.961	960.176
203.475	18.199	1234.420	959.934
204.490	18.276	1233.159	959.302
205.504	18.261	1232.236	958.411
206.519	18.380	1230.817	957.889
207.534	18.329	1229.824	956.750
208.548	18.291	1229.172	955.941
209.563	18.226	1228.629	955.071
210.577	18.358	1227.780	955.065
211.592	18.302	1226.476	953.654
212.607	18.359	1225.931	953.462
213.621	18.409	1225.177	953.068
214.636	18.379	1224.209	952.066
215.650	18.355	1223.380	951.206
216.665	18.319	1222.530	950.260
217.680	18.353	1221.711	949.730
218.694	18.370	1220.528	948.818
219.709	18.428	1219.761	948.457
220.723	18.480	1218.868	947.967
221.738	18.382	1218.507	947.061
222.753	18.299	1217.690	945.883
223.767	18.378	1217.029	945.726
224.782	18.274	1216.666	944.785
225.796	18.340	1216.380	944.844
226.811	18.472	1215.354	944.688
227.826	18.441	1214.563	943.818
228.840	18.456	1214.252	943.578
229.855	18.368	1213.655	942.545
230.869	18.339	1212.907	941.721
231.884	18.418	1212.224	941.543
232.899	18.405	1211.567	940.879
233.913	18.535	1210.580	940.744
234.928	18.493	1210.126	940.076
235.942	18.543	1209.360	939.670
236.957	18.590	1208.428	939.119
237.972	18.501	1207.770	938.042
238.986	18.479	1207.355	937.513
240.001	18.593	1206.361	937.280
241.015	18.597	1205.891	936.855
242.030	18.540	1204.769	935.590
243.045	18.564	1204.225	935.216
244.059	18.586	1203.041	934.332
245.074	18.527	1203.146	934.011
246.088	18.648	1201.900	933.622
247.103	18.669	1200.643	932.676
248.117	18.536	1200.311	931.610
249.132	18.608	1199.661	931.417
250.147	18.631	1199.096	931.018
251.161	18.663	1197.804	930.109
252.176	18.640	1197.646	929.778
253.190	18.713	1196.797	929.431
254.205	18.670	1196.141	928.604
255.220	18.600	1195.537	927.678
256.234	18.784	1194.707	927.943
257.249	18.693	1194.099	926.897
258.263	18.732	1193.647	926.679
259.278	18.776	1193.334	926.589
260.293	18.719	1192.677	925.691
261.307	18.650	1192.558	925.142
262.322	18.699	1191.625	924.602
263.336	18.772	1190.441	923.996
264.351	18.775	1189.766	923.405
265.366	18.789	1189.199	922.957
266.380	18.662	1188.860	921.930
267.395	18.782	1188.357	922.102
268.409	18.724	1187.482	921.031
269.424	18.722	1186.938	920.516
270.439	18.868	1186.006	920.496
271.453	18.789	1185.580	919.662
272.468	18.822	1184.266	918.737
273.482	18.675	1184.062	917.710
274.497	18.716	1183.516	917.426
275.512	18.865	1182.903	917.666
276.526	18.718	1182.126	916.196
277.541	18.845	1181.538	916.339
278.555	18.865	1180.834	915.815
279.570	18.867	1180.079	915.159
280.585	18.797	1179.178	914.008
281.599	18.811	1178.233	913.272
282.614	18.905	1177.204	912.889
283.628	18.905	1176.658	912.386
284.643	18.740	1175.912	910.852
285.657	18.968	1175.005	911.280
286.672	18.976	1173.534	910.100
287.687	18.888	1173.054	909.182
288.701	18.851	1172.361	908.365
289.716	18.959	1171.551	908.228
290.730	18.916	1171.081	907.558
291.745	18.959	1170.317	907.110
292.760	19.006	1169.579	906.708
293.774	19.045	1168.809	906.235
294.789	18.933	1168.735	905.507
295.803	18.911	1167.967	904.715
296.818	18.969	1167.214	904.357
297.833	19.002	1166.569	903.954
298.847	19.060	1165.551	903.388
299.862	19.040	1164.682	902.527
300.876	19.051	1163.886	901.889
301.891	19.060	1163.605	901.639
302.906	19.134	1163.348	901.751
303.920	19.082	1162.566	900.788
304.935	19.093	1161.650	900.058
305.949	19.106	1161.234	899.723
306.964	19.097	1160.299	898.871
307.979	18.998	1160.177	898.185
308.993	19.066	1159.229	897.725
310.008	19.128	1158.514	897.417
311.022	19.130	1157.460	896.527
312.037	19.116	1156.666	895.761
313.052	19.179	1155.734	895.288
314.066	19.218	1154.895	894.760
315.081	19.138	1154.280	893.789
316.095	19.150	1153.488	893.161
317.110	19.172	1152.857	892.706
318.125	19.166	1152.172	892.068
319.139	19.246	1151.102	891.573
320.154	19.215	1150.634	890.973
321.168	19.167	1150.556	890.583
322.183	19.150	1149.991	889.979
323.197	19.134	1149.327	889.305
324.212	19.218	1148.685	889.160
325.227	19.380	1147.841	889.269
326.241	19.371	1147.112	888.574
327.256	19.371	1146.383	887.934
328.270	19.249	1145.416	886.480
329.285	19.247	1144.613	885.770
330.300	19.185	1144.226	885.069
331.314	19.236	1142.997	884.305
332.329	19.292	1142.247	883.931
333.343	19.425	1140.925	883.514
334.358	19.381	1140.319	882.742
335.373	19.356	1140.111	882.374
336.387	19.263	1139.540	881.377
337.402	19.356	1138.605	881.049
338.416	19.416	1137.992	880.805
339.431	19.328	1137.474	879.878
340.446	19.465	1136.591	879.816
341.460	19.481	1136.133	879.463
342.475	19.538	1134.575	878.472
343.489	19.422	1134.223	877.532
344.504	19.448	1133.143	876.749
345.519	19.422	1132.930	876.377
346.533	19.514	1131.784	875.876
347.548	19.542	1130.784	875.166
348.562	19.478	1129.963	874.133
349.577	19.525	1129.582	873.998
350.592	19.453	1128.827	872.973
351.606	19.437	1128.250	872.366
352.621	19.480	1127.224	871.714
353.635	19.624	1126.677	871.941
354.650	19.536	1126.224	871.070
355.665	19.552	1125.223	870.301
356.679	19.574	1124.947	870.116
357.694	19.483	1124.491	869.230
358.708	19.678	1123.513	869.377
359.723	19.660	1122.475	868.406
360.738	19.473	1122.229	867.201
361.752	19.577	1122.030	867.495
362.767	19.646	1121.117	867.059
363.781	19.744	1120.505	866.999
364.796	19.560	1120.453	865.958
365.810	19.647	1119.416	865.517
366.825	19.749	1118.645	865.356
367.840	19.749	1118.026	864.800
368.854	19.703	1117.711	864.251
369.869	19.596	1117.132	863.190
370.883	19.720	1116.065	862.906
371.898	19.782	1115.007	862.323
372.913	19.713	1115.181	862.038
373.927	19.701	1114.807	861.609
374.942	19.906	1113.959	861.903
375.956	19.736	1113.564	860.671
376.971	19.825	1112.686	860.360
377.986	19.745	1112.135	859.459
379.000	19.819	1111.361	859.156
380.015	19.822	1111.494	859.196
381.029	19.891	1110.124	858.404
382.044	19.794	1109.722	857.537
383.059	19.777	1108.903	856.741
384.073	20.023	1108.198	857.340
385.088	19.919	1107.311	856.063
386.102	19.966	1106.181	855.346
387.117	19.758	1106.023	854.120
388.132	19.823	1104.413	853.122
389.146	19.965	1103.937	853.382
390.161	19.969	1103.404	852.911
391.175	19.917	1102.882	852.179
392.190	19.838	1102.173	851.165
393.205	19.961	1101.325	851.039
394.219	20.012	1100.474	850.558
395.234	19.912	1099.895	849.543
396.248	20.077	1098.675	849.336
397.263	20.060	1097.692	848.416
398.278	19.912	1097.368	847.368
399.292	19.960	1096.911	847.175
400.307	20.068	1096.191	847.072
401.321	20.015	1095.527	846.222
402.336	20.043	1094.799	845.724
403.350	20.101	1093.952	845.276
404.365	20.124	1093.199	844.730
405.380	20.121	1092.237	843.898
406.394	20.052	1092.165	843.434
407.409	20.159	1091.320	843.225
408.423	20.136	1090.631	842.506
409.438	20.275	1089.455	842.202
410.453	20.287	1088.907	841.761
411.467	20.166	1088.127	840.497
412.482	20.264	1087.158	840.146
413.496	20.322	1086.339	839.723
414.511	20.218	1086.240	839.065
415.526	20.208	1085.757	838.569
416.540	20.226	1085.114	838.088
417.555	20.330	1084.593	838.114
418.569	20.287	1084.158	837.495
419.584	20.145	1083.857	836.503
420.599	20.291	1083.309	836.709
421.613	145.347	1394.608	1785.226
422.628	134.400	1439.960	1785.341
