DTS Sentinel unit serial number:	SN413079Multiplexer serial number:	ORYXHardware model number:	OX4-SRSoftware version number:	ORYX F/W v4.00 Oryx Data Collector v3.7.2.0data status	okinstallation	princeton_trtdifferential loss correction	single-endedforward channel	channel 2reverse channel	N/Adate	2019/09/19time	12:35:35forward acquisition time	60.00reverse acquisition time	0.00gamma	496.2192k internal	0.2335k external	0.2335temperature offset calibration	1.0016default loss term (dB/km)	0.3790temperature slope calibration	1.0000multiplexer offset coefficient	1.0000multiplexer slope coefficient	1.0000fibre end	0.00T internal ref (°C)	27.31T ext. ref 1 (°C)	0.87T ext. ref 2 (°C)	25.04length (m)	temperature (°C)	Stokes	anti-Stokes-747.200	-48.822	0.126	-0.061
-746.185	138.722	-0.028	-0.037
-745.171	800.000	-0.048	0.187
-744.156	149.302	-0.155	-0.211
-743.142	-91.366	0.691	0.199
-742.127	6.972	-0.222	-0.167
-741.112	35.510	0.056	0.050
-740.098	-146.204	-0.426	-0.038
-739.083	490.928	-0.011	-0.026
-738.069	217.522	-0.138	0.221
-737.054	40.282	0.084	-0.076
-736.039	787.197	-0.100	-0.275
-735.025	-200.000	-0.053	-0.398
-734.010	471.101	-0.230	0.521
-732.996	-91.689	-0.312	0.089
-731.981	153.092	-0.112	-0.153
-730.966	-57.482	0.187	-0.083
-729.952	37.482	-0.040	-0.036
-728.937	-90.485	-0.181	0.053
-727.923	272.739	-0.074	-0.131
-726.908	-80.055	0.377	-0.127
-725.894	172.982	-0.101	-0.147
-724.879	252.479	0.018	0.030
-723.864	-200.000	-0.069	0.642
-722.850	-200.000	0.060	0.302
-721.835	-200.000	-0.016	-0.075
-720.821	800.000	0.064	-0.246
-719.806	-83.664	-0.234	0.075
-718.791	-141.200	0.449	-0.046
-717.777	186.144	-0.159	-0.237
-716.762	800.000	-0.087	-0.359
-715.748	-200.000	-0.013	-0.220
-714.733	-200.000	-0.016	-0.143
-713.718	3.981	-0.268	0.197
-712.704	-0.249	0.075	-0.054
-711.689	-44.169	-0.151	-0.076
-710.675	-78.155	0.218	0.075
-709.660	219.995	-0.192	0.308
-708.645	-102.947	-0.072	-0.017
-707.631	59.089	-0.227	0.225
-706.616	-18.981	-0.034	-0.021
-705.602	-100.113	-0.227	0.057
-704.587	-149.260	-0.378	0.030
-703.572	599.535	0.101	-0.251
-702.558	-200.000	-0.005	0.136
-701.543	33.212	0.110	0.096
-700.529	-109.403	0.249	0.053
-699.514	-87.121	-0.282	-0.086
-698.499	-118.668	-0.391	0.069
-697.485	87.398	0.194	0.215
-696.470	-1.517	0.069	-0.049
-695.456	-200.000	0.036	-0.340
-694.441	-200.000	0.028	0.258
-693.426	-74.729	-0.219	0.079
-692.412	-200.000	0.021	-0.215
-691.397	-148.030	0.162	-0.013
-690.383	-118.421	-0.313	0.056
-689.368	-38.180	-0.151	0.081
-688.354	374.361	-0.170	-0.346
-687.339	-74.479	-0.195	0.070
-686.324	638.735	-0.064	-0.164
-685.310	-200.000	-0.031	-0.268
-684.295	249.480	-0.059	0.100
-683.281	-104.451	-0.301	0.070
-682.266	214.055	0.224	-0.355
-681.251	-200.000	-0.020	-0.535
-680.237	-104.120	0.221	-0.052
-679.222	-200.000	0.007	-0.110
-678.208	-2.285	-0.237	-0.167
-677.193	180.817	-0.147	-0.217
-676.178	800.000	0.044	0.147
-675.164	-144.361	-0.178	0.017
-674.149	-148.195	-0.310	0.026
-673.135	-200.000	0.010	-0.046
-672.120	48.298	-0.198	-0.186
-671.105	-133.454	-0.253	-0.032
-670.091	-200.000	-0.045	-0.244
-669.076	39.860	-0.070	0.063
-668.062	101.365	-0.249	0.290
-667.047	376.480	0.059	-0.121
-666.032	214.421	0.160	-0.253
-665.018	126.712	-0.195	-0.248
-664.003	-6.341	-0.285	0.195
-662.989	-200.000	0.034	-0.252
-661.974	-143.755	-0.313	-0.030
-660.959	311.226	0.100	0.188
-659.945	224.556	-0.010	0.016
-658.930	149.962	-0.112	-0.153
-657.916	-200.000	0.042	-0.214
-656.901	800.000	0.039	0.122
-655.886	67.600	-0.187	-0.192
-654.872	367.802	-0.121	-0.245
-653.857	-182.674	0.122	0.002
-652.843	-190.049	-0.104	-0.001
-651.828	84.743	0.128	-0.140
-650.814	106.576	-0.101	0.120
-649.799	-200.000	-0.025	-0.125
-648.784	66.299	0.050	0.051
-647.770	-87.622	-0.047	0.014
-646.755	416.446	0.179	0.383
-645.741	-145.262	0.152	-0.014
-644.726	134.784	-0.040	-0.052
-643.711	105.789	0.171	-0.203
-642.697	-200.000	0.030	0.260
-641.682	800.000	-0.064	-0.178
-640.668	800.000	-0.077	-0.294
-639.653	800.000	0.053	-0.217
-638.638	63.430	-0.090	-0.090
-637.624	112.950	0.157	0.190
-636.609	205.320	0.085	-0.133
-635.595	-58.483	-0.053	0.023
-634.580	800.000	0.020	0.057
-633.565	338.511	0.061	-0.118
-632.551	-200.000	-0.102	-0.467
-631.536	81.330	0.163	-0.177
-630.522	-136.078	0.098	-0.012
-629.507	-200.000	0.005	0.052
-628.492	800.000	-0.149	0.472
-627.478	-108.143	-0.345	0.075
-626.463	800.000	0.062	-0.188
-625.449	-199.936	0.091	-0.000
-624.434	-200.000	0.006	-0.209
-623.419	-95.808	-0.223	-0.059
-622.405	86.166	0.116	-0.128
-621.390	-62.996	-0.065	0.027
-620.376	-42.756	-0.291	-0.148
-619.361	103.143	0.152	-0.178
-618.346	486.077	-0.198	-0.450
-617.332	142.976	0.086	-0.114
-616.317	-7.066	0.090	-0.061
-615.303	800.000	-0.029	-0.092
-614.288	43.825	-0.140	-0.128
-613.273	74.671	0.073	-0.076
-612.259	-35.008	0.111	0.061
-611.244	-29.132	0.328	0.188
-610.230	-16.878	-0.103	-0.065
-609.215	-16.606	0.053	-0.034
-608.201	-125.094	0.013	-0.002
-607.186	-79.740	-0.457	0.154
-606.171	800.000	-0.089	0.320
-605.157	113.147	-0.121	0.147
-604.142	-79.039	-0.217	-0.074
-603.128	-200.000	0.013	-0.399
-602.113	-154.897	-0.369	-0.024
-601.098	61.592	0.227	0.226
-600.084	-200.000	0.016	-0.188
-599.069	800.000	0.047	-0.142
-598.055	178.493	0.182	-0.266
-597.040	-113.827	0.201	-0.039
-596.025	-149.120	-0.276	0.022
-595.011	28.804	0.141	-0.120
-593.996	-8.089	0.292	0.197
-592.982	191.707	0.116	-0.175
-591.967	386.647	0.120	0.249
-590.952	800.000	0.039	0.110
-589.938	-67.130	0.160	-0.063
-588.923	-39.414	-0.291	-0.152
-587.909	191.415	-0.149	0.223
-586.894	800.000	-0.050	0.140
-585.879	160.964	0.071	-0.099
-584.865	-87.123	0.175	-0.053
-583.850	-200.000	0.047	-0.242
-582.836	-135.811	-0.224	-0.026
-581.821	-200.000	0.018	-0.150
-580.806	-112.566	-0.298	0.059
-579.792	681.683	0.051	-0.132
-578.777	-118.179	-0.106	0.019
-577.763	-95.253	-0.149	-0.040
-576.748	-200.000	0.016	-0.111
-575.733	145.946	-0.302	0.404
-574.719	125.615	0.065	-0.081
-573.704	-63.928	0.264	-0.108
-572.690	-14.922	0.180	0.115
-571.675	188.808	0.049	0.073
-570.661	454.393	0.086	0.190
-569.646	-200.000	-0.040	-0.231
-568.631	-200.000	0.034	-0.179
-567.617	549.946	0.130	0.311
-566.602	800.000	-0.039	0.156
-565.588	-129.577	-0.105	-0.015
-564.573	-189.221	-0.338	0.004
-563.558	-200.000	-0.018	-0.173
-562.544	-102.706	-0.100	-0.024
-561.529	-200.000	0.041	0.249
-560.515	800.000	0.080	-0.251
-559.500	-30.494	0.309	-0.175
-558.485	161.751	-0.198	0.276
-557.471	-200.000	0.017	0.174
-556.456	-71.984	0.391	-0.145
-555.442	-24.932	-0.292	0.173
-554.427	-108.014	0.147	-0.032
-553.412	-40.193	-0.353	0.183
-552.398	6.231	-0.196	0.145
-551.383	-200.000	-0.024	-0.130
-550.369	-200.000	-0.001	-0.054
-549.354	-171.120	-0.229	0.008
-548.339	13.258	-0.214	-0.165
-547.325	800.000	-0.035	-0.114
-546.310	-21.101	-0.254	0.155
-545.296	-112.551	-0.332	-0.066
-544.281	-99.879	-0.122	0.030
-543.266	209.461	-0.210	0.328
-542.252	-139.583	0.449	-0.048
-541.237	641.438	0.152	-0.385
-540.223	800.000	-0.030	-0.118
-539.208	252.133	0.054	-0.092
-538.193	398.342	0.058	0.121
-537.179	-200.000	-0.028	0.167
-536.164	7.459	-0.072	-0.053
-535.150	-110.942	-0.049	0.010
-534.135	349.596	0.115	0.226
-533.121	-20.681	0.314	-0.192
-532.106	-200.000	-0.003	-0.212
-531.091	157.595	-0.023	-0.031
-530.077	-84.009	-0.156	0.050
-529.062	109.269	0.204	0.243
-528.048	18.581	0.150	0.120
-527.033	-94.280	0.166	0.045
-526.018	-6.142	-0.196	0.133
-525.004	-35.329	-0.180	-0.097
-523.989	-29.827	0.057	-0.032
-522.975	-200.000	0.049	0.516
-521.960	-135.744	0.367	0.043
-520.945	125.378	0.121	0.152
-519.931	-70.216	-0.280	0.106
-518.916	800.000	0.115	-0.398
-517.902	231.274	0.052	0.085
-516.887	408.015	-0.134	0.283
-515.872	83.261	-0.087	0.095
-514.858	-81.440	-0.045	-0.015
-513.843	-136.176	0.333	-0.039
-512.829	83.900	-0.221	0.240
-511.814	-113.995	-0.290	0.056
-510.799	-200.000	-0.025	-0.145
-509.785	-200.000	0.036	0.159
-508.770	214.571	0.157	0.247
-507.756	-76.254	0.110	0.039
-506.741	54.348	0.221	-0.212
-505.726	150.543	0.105	0.141
-504.712	148.334	0.209	0.281
-503.697	142.619	0.217	-0.287
-502.683	319.822	-0.148	-0.280
-501.668	-66.777	0.183	0.072
-500.653	3.142	0.176	-0.128
-499.639	-200.000	0.038	-0.194
-498.624	138.925	0.208	-0.272
-497.610	87.558	-0.159	-0.175
-496.595	-26.237	-0.270	0.158
-495.581	800.000	-0.132	0.441
-494.566	79.929	0.066	0.070
-493.551	-200.000	0.003	-0.044
-492.537	170.116	-0.077	-0.110
-491.522	-76.405	0.317	0.111
-490.508	-178.338	-0.090	0.002
-489.493	800.000	0.029	0.111
-488.478	-62.171	-0.196	0.081
-487.464	129.295	0.171	0.217
-486.449	-91.994	0.157	0.044
-485.435	-77.086	-0.431	-0.149
-484.420	-200.000	0.081	0.398
-483.405	28.949	-0.278	0.235
-482.391	51.150	-0.267	-0.252
-481.376	72.039	0.069	-0.072
-480.362	24.522	0.284	0.234
-479.347	-146.105	-0.266	-0.023
-478.332	168.894	-0.108	0.153
-477.318	120.482	-0.209	0.258
-476.303	-200.000	0.011	-0.120
-475.289	103.569	-0.101	0.118
-474.274	17.881	0.242	-0.192
-473.259	-105.448	-0.433	0.098
-472.245	-11.351	0.247	0.161
-471.230	0.006	-0.194	-0.137
-470.216	-200.000	-0.031	0.343
-469.201	5.799	-0.230	0.169
-468.186	477.657	0.098	-0.221
-467.172	-39.255	0.186	0.097
-466.157	186.674	0.173	0.256
-465.143	28.115	0.090	-0.075
-464.128	-200.000	-0.009	0.164
-463.113	-24.674	0.204	0.121
-462.099	523.451	0.072	0.167
-461.084	800.000	-0.018	-0.064
-460.070	30.776	-0.158	0.135
-459.055	305.462	-0.074	-0.137
-458.040	79.190	-0.120	0.128
-457.026	96.672	-0.141	-0.160
-456.011	48.039	0.340	-0.316
-454.997	124.115	-0.182	-0.227
-453.982	544.633	-0.075	-0.177
-452.968	-141.508	0.282	0.028
-451.953	428.135	-0.172	-0.370
-450.938	-24.097	-0.314	-0.186
-449.924	472.733	-0.098	0.219
-448.909	229.826	0.040	-0.065
-447.895	-139.194	-0.102	-0.011
-446.880	-188.922	0.050	-0.001
-445.865	-79.815	-0.120	-0.040
-444.851	28.707	-0.244	-0.205
-443.836	-200.000	-0.067	-0.423
-442.822	-122.539	0.325	0.052
-441.807	-148.556	0.137	-0.011
-440.792	310.327	-0.131	-0.243
-439.778	25.989	-0.202	0.168
-438.763	-76.311	0.190	0.067
-437.749	0.174	-0.138	-0.098
-436.734	800.000	0.052	0.211
-435.719	40.559	-0.154	-0.138
-434.705	-200.000	-0.029	-0.240
-433.690	-200.000	0.005	0.126
-432.676	180.050	-0.162	-0.235
-431.661	56.569	0.105	0.101
-430.646	47.684	0.126	-0.117
-429.632	-200.000	-0.013	0.230
-428.617	-60.547	0.189	0.079
-427.603	-86.107	0.386	-0.118
-426.588	476.271	-0.044	0.099
-425.573	13.589	-0.076	0.058
-424.559	-158.071	0.214	0.012
-423.544	9.507	-0.349	0.262
-422.530	-200.000	0.062	-0.399
-421.515	-135.770	0.159	-0.019
-420.500	45.119	-0.144	-0.132
-419.486	-80.057	-0.255	-0.085
-418.471	-92.866	0.339	0.094
-417.457	310.521	0.056	0.104
-416.442	-92.418	-0.256	-0.071
-415.428	-69.021	-0.267	0.102
-414.413	-6.197	0.107	0.073
-413.398	5.762	0.182	-0.134
-412.384	201.356	-0.038	0.058
-411.369	171.324	0.196	-0.279
-410.355	4.657	-0.086	-0.063
-409.340	-91.078	0.016	-0.005
-408.325	92.026	0.064	0.071
-407.311	-3.995	-0.086	-0.059
-406.296	-49.915	0.257	0.121
-405.282	190.800	-0.053	0.079
-404.267	-147.159	-0.160	-0.014
-403.252	690.827	0.036	-0.093
-402.238	18.053	0.202	0.160
-401.223	-27.319	-0.118	0.068
-400.209	-111.342	0.136	-0.028
-399.194	-73.070	0.268	0.098
-398.179	354.736	0.104	0.205
-397.165	558.956	-0.064	-0.153
-396.150	347.011	-0.029	-0.056
-395.136	639.291	-0.017	-0.044
-394.121	27.008	0.308	-0.256
-393.106	800.000	-0.056	-0.176
-392.092	139.234	-0.123	-0.160
-391.077	247.929	0.125	-0.210
-390.063	-41.940	-0.082	0.042
-389.048	256.492	0.052	0.088
-388.033	-200.000	0.017	0.344
-387.019	46.485	-0.093	0.085
-386.004	800.000	0.096	-0.321
-384.990	-131.612	0.256	0.033
-383.975	78.428	0.161	0.170
-382.960	33.977	0.204	0.176
-381.946	342.817	-0.237	-0.459
-380.931	-21.429	-0.122	-0.074
-379.917	150.903	0.036	0.048
-378.902	800.000	-0.099	0.346
-377.888	41.472	0.285	-0.255
-376.873	385.140	0.088	-0.179
-375.858	-37.136	-0.224	-0.119
-374.844	202.680	0.211	0.323
-373.829	-73.596	0.106	0.038
-372.815	160.838	0.083	0.115
-371.800	59.707	0.038	0.037
-370.785	65.583	-0.086	0.086
-369.771	234.762	0.118	0.193
-368.756	24.696	-0.078	0.064
-367.742	608.606	0.071	-0.175
-366.727	-183.861	0.240	0.004
-365.712	356.115	0.097	0.191
-364.698	-71.993	-0.291	0.107
-363.683	-30.419	0.130	0.073
-362.669	-36.595	-0.181	-0.097
-361.654	75.783	-0.102	0.106
-360.639	277.943	-0.166	-0.293
-359.625	-171.074	-0.248	-0.008
-358.610	71.921	-0.113	0.117
-357.596	-151.955	0.279	-0.020
-356.581	454.120	-0.049	0.108
-355.566	-68.357	0.282	-0.108
-354.552	283.340	0.111	0.197
-353.537	-150.133	0.062	-0.005
-352.523	-87.718	-0.183	-0.055
-351.508	-112.817	-0.064	-0.012
-350.493	-83.499	-0.090	0.028
-349.479	-170.525	0.107	0.004
-348.464	800.000	-0.106	0.294
-347.450	-120.981	0.371	-0.062
-346.435	24.533	-0.313	-0.256
-345.420	-200.000	-0.031	0.144
-344.406	-200.000	0.023	-0.213
-343.391	-19.910	-0.156	0.095
-342.377	583.838	-0.077	-0.188
-341.362	151.413	-0.294	0.395
-340.348	-137.856	0.167	-0.019
-339.333	-68.368	-0.081	-0.031
-338.318	92.464	0.073	-0.081
-337.304	501.147	-0.112	0.255
-336.289	236.481	0.127	-0.208
-335.275	-200.000	0.018	-0.110
-334.260	34.734	0.301	-0.260
-333.245	-82.382	-0.166	-0.053
-332.231	28.466	0.074	-0.062
-331.216	417.974	0.124	-0.262
-330.202	495.543	0.090	-0.205
-329.187	-21.775	-0.085	0.051
-328.172	-200.000	-0.023	0.597
-327.158	42.252	-0.169	-0.152
-326.143	88.573	0.216	-0.237
-325.129	-200.000	0.001	0.229
-324.114	-84.063	0.405	-0.127
-323.099	-107.277	0.241	-0.052
-322.085	700.534	-0.061	-0.160
-321.070	-86.611	0.132	-0.040
-320.056	420.817	0.034	0.072
-319.041	136.249	-0.157	-0.202
-318.026	-200.000	0.063	0.347
-317.012	-200.000	0.028	0.243
-315.997	-132.179	-0.426	-0.055
-314.983	800.000	0.103	-0.386
-313.968	-89.840	0.291	0.084
-312.953	-14.730	-0.109	0.069
-311.939	-200.000	-0.035	0.266
-310.924	61.416	0.223	-0.219
-309.910	35.563	-0.185	0.161
-308.895	-96.024	-0.295	-0.078
-307.880	-108.768	0.240	-0.051
-306.866	0.193	0.070	0.049
-305.851	538.297	0.059	-0.139
-304.837	-78.117	0.315	-0.107
-303.822	23.929	0.139	-0.114
-302.807	-105.498	0.183	0.041
-301.793	-21.845	-0.461	0.277
-300.778	-161.958	-0.264	0.013
-299.764	-200.000	0.049	-0.526
-298.749	349.003	0.024	-0.047
-297.735	440.241	0.044	-0.095
-296.720	-125.220	0.361	0.055
-295.705	-200.000	0.039	-0.204
-294.691	-200.000	-0.021	0.350
-293.676	14.169	0.262	0.201
-292.662	240.264	-0.194	-0.320
-291.647	216.894	-0.061	0.096
-290.632	10.535	-0.264	0.198
-289.618	800.000	0.086	0.276
-288.603	0.135	0.036	0.026
-287.589	800.000	-0.064	-0.204
-286.574	31.715	-0.192	-0.163
-285.559	-59.603	0.239	-0.101
-284.545	-126.642	-0.153	-0.022
-283.530	24.331	0.158	0.129
-282.516	18.294	-0.085	-0.067
-281.501	737.778	-0.044	-0.116
-280.486	661.127	-0.151	0.383
-279.472	-95.188	-0.181	0.048
-278.457	-54.380	-0.064	-0.028
-277.443	632.803	-0.030	-0.075
-276.428	13.616	0.139	-0.106
-275.413	411.878	0.079	0.164
-274.399	142.319	0.154	0.202
-273.384	46.413	-0.086	0.079
-272.370	165.897	0.180	-0.251
-271.355	30.770	0.246	-0.207
-270.340	-81.557	-0.372	0.121
-269.326	77.700	0.286	-0.300
-268.311	800.000	0.046	0.133
-267.297	103.306	-0.317	-0.366
-266.282	-19.428	0.182	-0.111
-265.267	800.000	-0.031	-0.087
-264.253	-18.117	-0.221	0.137
-263.238	800.000	0.026	0.099
-262.224	-200.000	-0.033	0.153
-261.209	-65.063	0.180	0.072
-260.195	800.000	0.038	0.159
-259.180	-167.912	0.165	0.006
-258.165	-92.398	-0.323	0.090
-257.151	-129.792	-0.546	0.074
-256.136	-2.734	0.236	-0.163
-255.122	549.254	-0.023	-0.055
-254.107	-128.332	-0.245	-0.034
-253.092	192.238	-0.145	0.216
-252.078	-73.918	0.143	0.051
-251.063	72.974	-0.108	0.111
-250.049	230.461	-0.038	0.061
-249.034	800.000	0.085	0.267
-248.019	-200.000	0.062	0.284
-247.005	188.277	-0.245	-0.361
-245.990	800.000	0.033	-0.101
-244.976	-128.158	-0.427	-0.060
-243.961	-54.820	0.207	0.092
-242.946	446.529	0.146	0.317
-241.932	-3.901	-0.166	-0.113
-240.917	-200.000	-0.002	-0.293
-239.903	-133.892	-0.201	-0.025
-238.888	-200.000	-0.003	-0.126
-237.873	54.525	-0.200	-0.190
-236.859	-15.628	-0.336	0.211
-235.844	-61.239	0.229	0.095
-234.830	-18.403	-0.191	0.118
-233.815	57.107	0.074	0.071
-232.800	-80.492	0.240	-0.079
-231.786	-171.925	0.111	-0.004
-230.771	192.811	-0.075	0.111
-229.757	17.107	0.195	0.152
-228.742	-79.238	-0.182	-0.061
-227.727	723.992	0.118	-0.309
-226.713	-200.000	-0.003	-0.077
-225.698	800.000	0.108	0.301
-224.684	-38.570	-0.068	0.036
-223.669	-52.048	0.055	-0.025
-222.655	95.246	0.118	0.132
-221.640	471.840	0.095	-0.211
-220.625	-52.459	0.055	0.025
-219.611	12.821	0.095	0.073
-218.596	86.166	-0.379	0.411
-217.582	-200.000	-0.059	0.272
-216.567	-182.707	0.217	0.004
-215.552	-137.280	0.178	-0.020
-214.538	-35.052	-0.121	0.065
-213.523	78.321	-0.192	-0.202
-212.509	-200.000	0.025	-0.159
-211.494	247.607	-0.097	0.161
-210.479	590.407	-0.081	-0.198
-209.465	-200.000	-0.023	0.207
-208.450	11.207	0.040	0.030
-207.436	800.000	-0.017	0.055
-206.421	6.247	0.083	-0.060
-205.406	201.208	-0.144	0.218
-204.392	-200.000	0.019	-0.316
-203.377	594.792	-0.140	0.341
-202.363	-55.167	0.199	-0.088
-201.348	198.707	-0.093	-0.140
-200.333	-200.000	-0.021	0.438
-199.319	86.708	0.063	0.068
-198.304	383.968	0.076	-0.154
-197.290	172.284	-0.085	0.120
-196.275	-76.285	0.240	0.083
-195.260	444.647	-0.064	0.138
-194.246	-24.997	0.159	-0.093
-193.231	-33.163	0.240	-0.131
-192.217	-119.086	0.323	-0.056
-191.202	36.463	-0.190	0.164
-190.187	-54.407	-0.185	0.082
-189.173	-103.981	0.087	-0.020
-188.158	-200.000	0.017	0.179
-187.144	800.000	0.027	-0.078
-186.129	-53.528	0.298	-0.134
-185.114	56.146	-0.209	-0.200
-184.100	-200.000	-0.029	0.269
-183.085	-7.042	0.245	0.163
-182.071	-200.000	0.016	-0.085
-181.056	800.000	-0.045	-0.178
-180.042	128.570	-0.078	-0.098
-179.027	-144.699	-0.090	0.008
-178.012	-64.050	0.194	-0.078
-176.998	87.285	-0.298	0.324
-175.983	136.428	-0.140	0.179
-174.969	-51.611	-0.209	-0.096
-173.954	-200.000	0.040	0.179
-172.939	800.000	-0.083	0.350
-171.925	115.482	-0.119	0.142
-170.910	-45.330	-0.281	-0.137
-169.896	-130.113	-0.216	-0.029
-168.881	289.498	0.100	-0.178
-167.866	-49.390	0.161	0.076
-166.852	34.285	-0.193	-0.165
-165.837	97.769	0.095	0.107
-164.823	-96.003	0.279	0.073
-163.808	9.685	0.170	-0.126
-162.793	240.739	0.090	0.147
-161.779	-47.826	0.238	-0.113
-160.764	-98.310	0.441	-0.111
-159.750	50.592	-0.161	-0.149
-158.735	-162.622	-0.362	-0.018
-157.720	-200.000	-0.032	-0.303
-156.706	53.077	-0.305	-0.286
-155.691	799.673	0.051	-0.139
-154.677	34.551	0.235	-0.202
-153.662	603.708	0.051	0.124
-152.647	63.757	0.063	0.062
-151.633	60.833	0.036	0.035
-150.618	-141.502	0.338	0.034
-149.604	800.000	0.104	-0.433
-148.589	-165.503	0.131	0.006
-147.574	800.000	0.095	0.290
-146.560	-200.000	0.052	-0.229
-145.545	-147.216	-0.085	0.007
-144.531	160.089	0.055	-0.075
-143.516	-117.479	-0.390	-0.069
-142.502	-172.633	0.236	-0.007
-141.487	49.124	-0.039	-0.036
-140.472	48.742	0.173	-0.159
-139.458	-84.883	0.344	0.106
-138.443	20.786	-0.071	0.056
-137.429	-81.826	0.273	0.088
-136.414	-200.000	-0.004	0.335
-135.399	-200.000	-0.034	-0.166
-134.385	243.030	0.099	0.163
-133.370	-200.000	0.006	0.150
-132.356	-52.237	0.293	-0.133
-131.341	-73.622	-0.262	0.094
-130.326	-109.933	0.101	0.021
-129.312	49.535	-0.199	0.183
-128.297	261.280	0.067	-0.113
-127.283	209.419	0.041	-0.063
-126.268	183.231	0.042	-0.061
-125.253	85.696	0.022	-0.023
-124.239	22.829	-0.150	0.120
-123.224	239.032	0.214	0.348
-122.210	123.407	0.092	0.113
-121.195	-91.665	0.107	-0.030
-120.180	313.634	-0.269	0.497
-119.166	228.444	-0.173	-0.276
-118.151	154.773	-0.156	-0.210
-117.137	670.438	-0.142	-0.361
-116.122	-200.000	-0.044	-0.201
-115.107	-8.338	-0.482	0.318
-114.093	272.618	0.206	-0.356
-113.078	-34.392	-0.244	0.131
-112.064	800.000	-0.041	-0.175
-111.049	68.991	-0.302	0.304
-110.034	256.261	0.264	0.445
-109.020	-89.840	-0.041	0.012
-108.005	-31.932	0.223	-0.123
-106.991	-200.000	0.007	-0.079
-105.976	52.137	0.161	0.151
-104.962	-116.149	0.082	0.015
-103.947	-200.000	-0.027	-0.238
-102.932	-114.181	-0.272	-0.052
-101.918	156.080	-0.423	-0.571
-100.903	-130.828	0.393	0.052
-99.889	-10.519	0.149	-0.096
-98.874	-108.070	-0.145	0.031
-97.859	119.739	-0.066	0.080
-96.845	403.905	-0.094	-0.194
-95.830	-42.960	0.251	-0.125
-94.816	-52.657	-0.172	-0.078
-93.801	170.591	0.151	0.211
-92.786	74.743	0.156	-0.161
-91.772	-200.000	-0.038	0.164
-90.757	229.407	0.149	0.237
-89.743	-12.117	-0.192	0.123
-88.728	-87.702	-0.397	0.117
-87.713	-154.888	0.195	-0.013
-86.699	30.274	-0.090	-0.075
-85.684	148.353	0.258	-0.340
-84.670	226.032	-0.088	-0.140
-83.655	800.000	0.051	0.171
-82.640	118.740	0.060	0.073
-81.626	74.008	0.191	0.196
-80.611	-200.000	0.041	-0.200
-79.597	107.537	0.203	0.237
-78.582	352.307	-0.090	-0.175
-77.567	-199.170	0.196	0.001
-76.553	-17.984	-0.156	0.096
-75.538	-154.110	-0.344	-0.023
-74.524	25.933	0.124	-0.101
-73.509	-7.687	0.021	-0.014
-72.494	-28.365	-0.325	-0.184
-71.480	-16.392	0.160	0.099
-70.465	-32.501	0.172	-0.094
-69.451	-152.636	0.263	0.018
-68.436	111.850	0.159	-0.188
-67.422	167.226	0.166	-0.230
-66.407	800.000	-0.030	-0.107
-65.392	-200.000	-0.035	0.192
-64.378	151.507	-0.040	-0.054
-63.363	122.427	-0.091	0.111
-62.349	-200.000	0.007	0.255
-61.334	47.076	-1.269	-1.155
-60.319	29.808	1.037	0.864
-59.305	-200.000	-0.084	-0.843
-58.290	392.092	0.668	1.358
-57.276	445.528	0.599	1.286
-56.261	-200.000	111.459	615.413
-55.246	432.433	1528.554	3242.408
-54.232	140.684	2728.776	3525.437
-53.217	96.107	2332.345	2607.083
-52.203	36.586	1932.709	1668.627
-51.188	30.411	1717.400	1435.141
-50.173	27.875	1674.166	1379.818
-49.159	48.998	1729.702	1588.249
-48.144	48.013	1743.333	1593.160
-47.130	30.137	1701.468	1419.500
-46.115	27.412	1686.618	1386.340
-45.100	27.223	1682.340	1381.334
-44.086	27.231	1679.084	1378.666
-43.071	27.257	1676.288	1376.507
-42.057	27.062	1674.168	1373.241
-41.042	27.197	1672.014	1372.439
-40.027	27.179	1670.330	1370.864
-39.013	27.128	1668.009	1368.524
-37.998	27.095	1666.884	1367.294
-36.984	27.139	1665.332	1366.299
-35.969	27.399	1662.798	1366.120
-34.954	27.238	1662.111	1364.289
-33.940	27.299	1660.329	1363.229
-32.925	27.237	1658.341	1361.080
-31.911	27.377	1656.434	1360.506
-30.896	27.266	1654.863	1358.333
-29.881	27.347	1652.955	1357.320
-28.867	27.285	1651.328	1355.465
-27.852	27.293	1649.924	1354.325
-26.838	27.328	1648.287	1353.184
-25.823	27.355	1646.751	1352.073
-24.809	27.312	1645.815	1350.931
-23.794	27.270	1644.640	1349.602
-22.779	27.455	1642.354	1349.039
-21.765	27.306	1641.132	1346.879
-20.750	27.308	1639.134	1345.201
-19.736	27.389	1638.022	1344.836
-18.721	27.420	1636.885	1344.075
-17.706	27.341	1635.533	1342.330
-16.692	27.279	1634.307	1340.810
-15.677	27.340	1632.704	1339.892
-14.663	27.396	1630.862	1338.743
-13.648	27.429	1629.955	1338.189
-12.633	27.367	1628.402	1336.405
-11.619	27.323	1627.133	1334.984
-10.604	27.320	1625.244	1333.359
-9.590	27.354	1624.261	1332.753
-8.575	27.330	1622.680	1331.222
-7.560	27.358	1621.459	1330.373
-6.546	27.399	1620.382	1329.741
-5.531	27.377	1619.358	1328.686
-4.517	27.326	1618.324	1327.411
-3.502	27.340	1617.363	1326.674
-2.487	27.456	1615.299	1325.774
-1.473	27.392	1604.201	1316.151
-0.458	25.349	1585.924	1286.480
0.556	21.124	1588.069	1257.726
1.571	18.490	1611.733	1257.066
2.586	17.766	1623.487	1260.767
3.600	16.316	1569.268	1208.192
4.615	9.174	1458.541	1075.185
5.629	2.347	1394.464	984.055
6.644	0.987	1386.597	969.712
7.659	0.892	1385.782	968.452
8.673	0.846	1384.826	967.403
9.688	0.774	1382.827	965.461
10.702	0.675	1379.207	962.216
11.717	3.664	1384.395	984.833
12.731	11.211	1394.920	1040.581
13.746	16.229	1402.081	1077.958
14.761	17.289	1402.657	1085.079
15.775	16.682	1401.060	1079.872
16.790	15.750	1398.278	1071.701
17.804	14.930	1396.392	1064.941
18.819	14.637	1394.507	1061.546
19.834	14.255	1393.573	1058.311
20.848	14.110	1391.630	1055.823
21.863	13.808	1390.573	1053.010
22.877	13.650	1389.294	1050.950
23.892	13.550	1388.531	1049.647
24.907	13.548	1387.642	1048.868
25.921	13.689	1386.440	1048.759
26.936	13.538	1386.241	1047.561
27.950	13.666	1384.774	1047.165
28.965	13.723	1383.898	1046.768
29.980	13.736	1382.890	1045.999
30.994	13.743	1382.038	1045.305
32.009	13.734	1381.204	1044.527
33.023	13.799	1380.293	1044.154
34.038	13.778	1378.413	1042.505
35.053	13.701	1377.599	1041.312
36.067	13.693	1376.518	1040.354
37.082	13.597	1375.944	1039.229
38.096	13.720	1374.886	1039.107
39.111	13.689	1374.117	1038.239
40.126	13.770	1373.010	1037.816
41.140	13.589	1372.707	1036.363
42.155	13.530	1372.125	1035.467
43.169	13.584	1371.895	1035.535
44.184	13.674	1371.356	1035.601
45.199	13.592	1370.885	1034.643
46.213	13.607	1370.549	1034.389
47.228	13.760	1368.988	1034.073
48.242	13.648	1367.729	1032.335
49.257	13.671	1366.594	1031.531
50.271	13.601	1365.516	1030.192
51.286	13.713	1364.061	1029.694
52.301	13.703	1362.179	1028.125
53.315	13.666	1361.435	1027.238
54.330	13.627	1361.013	1026.591
55.344	13.632	1359.095	1025.081
56.359	13.583	1358.471	1024.217
57.374	13.521	1357.966	1023.367
58.388	13.528	1356.702	1022.362
59.403	13.495	1356.494	1021.911
60.417	13.442	1355.412	1020.681
61.432	13.685	1354.189	1021.166
62.447	13.435	1354.027	1019.415
63.461	13.409	1352.676	1018.145
64.476	13.508	1351.491	1017.771
65.490	13.623	1349.870	1017.170
66.505	13.540	1348.527	1015.557
67.520	13.548	1347.396	1014.664
68.534	13.486	1346.516	1013.536
69.549	13.544	1345.276	1012.868
70.563	13.558	1344.318	1012.139
71.578	13.461	1343.238	1010.642
72.593	13.449	1342.279	1009.760
73.607	13.512	1341.400	1009.396
74.622	13.469	1340.345	1008.251
75.636	13.392	1339.985	1007.423
76.651	13.461	1338.924	1006.953
77.666	13.480	1338.184	1006.426
78.680	13.424	1338.103	1005.934
79.695	13.470	1336.962	1005.265
80.709	13.581	1336.156	1005.242
81.724	13.572	1335.021	1004.248
82.739	13.563	1333.660	1003.082
83.753	13.609	1333.235	1002.952
84.768	13.689	1332.102	1002.491
85.782	13.656	1331.270	1001.578
86.797	13.706	1329.918	1000.771
87.812	13.581	1328.319	998.730
88.826	13.679	1327.088	998.304
89.841	13.549	1326.261	996.812
90.855	13.673	1325.203	996.673
91.870	13.722	1324.080	996.039
92.884	13.665	1323.499	995.166
93.899	13.744	1322.238	994.606
94.914	13.807	1321.383	994.249
95.928	13.746	1320.893	993.431
96.943	13.860	1319.457	992.945
97.957	13.678	1318.849	991.310
98.972	13.772	1317.806	991.001
99.987	13.675	1317.005	989.734
101.001	13.675	1316.100	988.963
102.016	13.756	1314.922	988.472
103.030	13.749	1313.878	987.560
104.045	13.788	1312.726	986.837
105.060	13.755	1311.602	985.709
106.074	13.604	1310.449	983.862
107.089	13.633	1309.102	982.936
108.103	13.583	1307.725	981.518
109.118	13.621	1306.145	980.466
110.133	13.640	1305.249	979.821
111.147	13.538	1304.057	978.240
112.162	13.601	1302.344	977.237
113.176	13.653	1301.190	976.592
114.191	13.543	1300.608	975.421
115.206	13.665	1299.147	974.957
116.220	13.660	1297.704	973.760
117.235	13.652	1296.694	972.867
118.249	13.715	1295.659	972.372
119.264	13.631	1294.397	970.851
120.279	13.637	1293.272	969.956
121.293	13.601	1292.805	969.310
122.308	13.519	1292.017	968.153
123.322	13.634	1290.722	967.769
124.337	13.621	1289.335	966.563
125.352	13.626	1288.343	965.764
126.366	13.660	1287.278	965.080
127.381	13.602	1286.041	963.729
128.395	13.698	1284.326	962.917
129.410	13.697	1283.166	961.955
130.424	13.688	1283.257	961.888
131.439	13.641	1282.100	960.661
132.454	13.650	1281.117	959.890
133.468	13.694	1280.313	959.461
134.483	13.673	1279.596	958.716
135.497	13.628	1278.536	957.577
136.512	13.620	1276.918	956.233
137.527	13.711	1275.429	955.562
138.541	13.630	1274.042	953.971
139.556	13.676	1272.821	953.237
140.570	13.825	1271.146	952.750
141.585	13.704	1270.293	951.332
142.600	13.735	1269.103	950.535
143.614	13.804	1268.129	950.117
144.629	13.815	1267.140	949.356
145.643	13.792	1266.257	948.480
146.658	13.793	1264.486	947.074
147.673	13.761	1263.630	946.167
148.687	13.769	1262.234	945.085
149.702	13.786	1260.754	943.988
150.716	13.791	1259.618	943.081
151.731	13.672	1258.575	941.542
152.746	13.783	1256.755	940.727
153.760	13.889	1255.884	940.595
154.775	13.830	1254.742	939.321
155.789	13.900	1253.497	938.701
156.804	13.850	1252.798	937.810
157.819	13.956	1252.021	937.745
158.833	13.889	1250.942	936.478
159.848	13.935	1250.034	935.973
160.862	13.855	1248.905	934.595
161.877	13.889	1247.891	933.944
162.892	13.880	1246.824	933.014
163.906	13.860	1246.257	932.393
164.921	13.973	1244.492	931.624
165.935	14.036	1243.744	931.332
166.950	13.990	1243.194	930.581
167.964	13.940	1242.623	929.795
168.979	13.918	1242.146	929.230
169.994	13.974	1241.194	928.752
171.008	14.041	1240.144	928.257
172.023	14.157	1239.135	928.064
173.037	14.079	1238.319	926.938
174.052	14.036	1237.593	926.075
175.067	14.091	1236.491	925.474
176.081	14.172	1235.518	925.113
177.096	14.085	1234.537	923.812
178.110	14.116	1233.979	923.485
179.125	14.174	1231.953	922.211
180.140	14.063	1231.188	920.942
181.154	14.048	1230.253	920.077
182.169	14.155	1228.668	919.401
183.183	14.187	1227.795	918.842
184.198	14.172	1226.589	917.779
185.213	14.209	1225.274	916.917
186.227	14.216	1223.874	915.824
187.242	14.318	1222.811	915.509
188.256	14.392	1222.226	915.397
189.271	14.240	1221.419	913.878
190.286	14.220	1220.216	912.785
191.300	14.149	1219.440	911.738
192.315	14.178	1219.099	911.561
193.329	14.131	1218.423	910.714
194.344	14.244	1217.324	910.434
195.359	14.247	1216.954	910.092
196.373	14.249	1216.670	909.810
197.388	14.323	1215.780	909.469
198.402	14.290	1215.863	909.267
199.417	14.369	1214.860	908.870
200.432	14.337	1214.253	908.158
201.446	14.492	1213.051	908.024
202.461	14.464	1211.833	906.883
203.475	14.514	1210.872	906.354
204.490	14.456	1210.049	905.339
205.504	14.478	1208.457	904.193
206.519	14.342	1207.498	902.655
207.534	14.428	1206.294	902.139
208.548	14.484	1205.197	901.543
209.563	14.522	1204.432	901.099
210.577	14.490	1203.790	900.362
211.592	14.540	1202.625	899.680
212.607	14.645	1201.690	899.469
213.621	14.566	1201.182	898.586
214.636	14.587	1200.285	897.949
215.650	14.639	1199.234	897.359
216.665	14.616	1198.224	896.401
217.680	14.554	1197.843	895.706
218.694	14.758	1196.570	895.768
219.709	14.667	1195.838	894.654
220.723	14.700	1195.164	894.248
221.738	14.782	1193.827	893.605
222.753	14.751	1193.362	893.011
223.767	14.723	1192.579	892.200
224.782	14.860	1192.038	892.445
225.796	14.712	1191.536	891.203
226.811	14.837	1190.767	891.213
227.826	14.809	1189.939	890.363
228.840	14.834	1189.479	890.076
229.855	14.897	1188.446	889.562
230.869	14.688	1188.275	888.239
231.884	14.743	1187.160	887.623
232.899	14.748	1186.150	886.813
233.913	14.700	1185.650	886.108
234.928	14.829	1184.703	886.004
235.942	14.794	1184.057	885.259
236.957	14.799	1183.018	884.428
237.972	14.856	1182.165	884.016
238.986	14.840	1181.609	883.436
240.001	14.801	1181.308	882.929
241.015	14.884	1179.918	882.250
242.030	14.977	1179.594	882.416
243.045	14.918	1178.746	881.395
244.059	14.938	1177.682	880.628
245.074	14.937	1177.118	880.122
246.088	15.106	1175.903	880.026
247.103	15.100	1175.138	879.344
248.117	14.986	1174.821	878.429
249.132	15.076	1174.651	878.695
250.147	15.225	1173.347	878.422
251.161	15.180	1172.321	877.343
252.176	15.089	1171.965	876.522
253.190	15.234	1171.481	876.843
254.205	15.258	1170.431	876.104
255.220	15.246	1170.129	875.735
256.234	15.168	1169.986	875.143
257.249	15.369	1168.192	874.772
258.263	15.288	1167.796	873.979
259.278	15.293	1167.355	873.594
260.293	15.450	1166.412	873.630
261.307	15.407	1166.258	873.212
262.322	15.408	1165.349	872.463
263.336	15.457	1164.491	871.994
264.351	15.473	1163.898	871.559
265.366	15.557	1163.224	871.410
266.380	15.520	1162.519	870.613
267.395	15.479	1161.638	869.665
268.409	15.511	1161.579	869.709
269.424	15.450	1161.001	868.883
270.439	15.480	1159.888	868.131
271.453	15.571	1158.852	867.746
272.468	15.530	1158.329	867.067
273.482	15.562	1157.389	866.450
274.497	15.553	1156.953	866.001
275.512	15.461	1156.522	865.126
276.526	15.460	1155.768	864.484
277.541	15.515	1155.038	864.142
278.555	15.554	1154.025	863.509
279.570	15.622	1153.134	863.117
280.585	15.607	1152.735	862.664
281.599	15.658	1151.605	862.004
282.614	15.759	1150.575	861.674
283.628	15.695	1149.690	860.610
284.643	15.739	1148.768	860.065
285.657	15.783	1147.670	859.393
286.672	15.730	1147.071	858.595
287.687	15.771	1145.909	857.863
288.701	15.729	1145.072	856.946
289.716	15.893	1144.201	857.050
290.730	15.729	1143.735	855.793
291.745	15.836	1143.004	855.715
292.760	15.799	1142.466	855.046
293.774	15.952	1141.550	855.064
294.789	15.757	1141.328	853.829
295.803	15.845	1140.474	853.561
296.818	15.877	1139.841	853.173
297.833	15.860	1139.048	852.420
298.847	15.871	1138.346	851.874
299.862	15.898	1137.374	851.207
300.876	15.937	1136.592	850.745
301.891	15.901	1136.036	850.071
302.906	16.089	1135.230	850.342
303.920	16.011	1134.760	849.524
304.935	16.049	1133.657	848.811
305.949	16.062	1132.654	848.049
306.964	16.138	1132.209	848.027
307.979	16.150	1131.979	847.840
308.993	16.095	1131.254	846.943
310.008	16.073	1130.764	846.390
311.022	16.097	1129.522	845.506
312.037	16.120	1128.695	844.929
313.052	16.218	1127.645	844.561
314.066	16.091	1127.041	843.397
315.081	16.079	1126.183	842.622
316.095	16.133	1125.243	842.113
317.110	16.107	1124.891	841.643
318.125	16.194	1123.673	841.095
319.139	16.179	1123.477	840.799
320.154	16.154	1122.539	839.894
321.168	16.167	1122.150	839.596
322.183	16.230	1121.560	839.393
323.197	16.098	1120.840	838.125
324.212	16.198	1120.249	838.105
325.227	16.192	1119.708	837.596
326.241	16.269	1118.543	837.029
327.256	16.278	1117.858	836.491
328.270	16.207	1117.297	835.643
329.285	16.198	1116.322	834.795
330.300	16.285	1115.341	834.420
331.314	16.358	1113.857	833.593
332.329	16.337	1112.955	832.745
333.343	16.339	1111.966	831.941
334.358	16.300	1112.081	831.758
335.373	16.415	1110.775	831.274
336.387	16.417	1110.043	830.664
337.402	16.392	1109.489	830.054
338.416	16.434	1108.656	829.561
339.431	16.520	1107.935	829.370
340.446	16.464	1107.677	828.829
341.460	16.641	1106.345	828.625
342.475	16.577	1105.841	827.864
343.489	16.476	1105.267	826.866
344.504	16.646	1103.758	826.495
345.519	16.656	1102.992	825.896
346.533	16.583	1102.686	825.237
347.548	16.743	1101.562	825.100
348.562	16.638	1100.944	824.057
349.577	16.639	1100.511	823.664
350.592	16.755	1099.137	823.125
351.606	16.565	1098.788	821.868
352.621	16.651	1098.122	821.715
353.635	16.641	1097.596	821.203
354.650	16.707	1096.504	820.629
355.665	16.721	1095.947	820.207
356.679	16.681	1095.451	819.574
357.694	16.743	1094.552	819.126
358.708	16.750	1094.118	818.764
359.723	16.751	1093.619	818.322
360.738	16.807	1092.757	817.874
361.752	16.831	1092.672	817.854
362.767	16.778	1092.122	817.113
363.781	16.826	1090.855	816.324
364.796	16.860	1090.657	816.271
365.810	17.017	1089.742	816.268
366.825	16.959	1089.023	815.377
367.840	17.033	1088.378	815.179
368.854	17.111	1088.065	815.245
369.869	17.007	1087.625	814.346
370.883	17.002	1086.432	813.358
371.898	16.945	1085.696	812.459
372.913	17.090	1085.010	812.568
373.927	17.149	1084.458	812.366
374.942	17.143	1083.774	811.754
375.956	17.072	1083.657	811.253
376.971	17.033	1082.899	810.430
377.986	17.174	1082.426	810.678
379.000	17.116	1081.878	809.919
380.015	17.105	1081.345	809.393
381.029	17.215	1080.571	809.268
382.044	17.279	1079.706	808.851
383.059	17.293	1079.391	808.612
384.073	17.280	1078.226	807.605
385.088	17.332	1077.057	806.905
386.102	17.326	1076.396	806.307
387.117	17.328	1075.785	805.791
388.132	17.276	1074.847	804.771
389.146	17.311	1074.065	804.280
390.161	17.343	1073.256	803.752
391.175	17.308	1072.407	802.882
392.190	17.292	1071.930	802.375
393.205	17.341	1071.082	801.903
394.219	17.503	1070.087	801.850
395.234	17.419	1069.482	800.931
396.248	17.461	1068.286	800.164
397.263	17.409	1067.141	798.987
398.278	17.408	1066.507	798.437
399.292	17.482	1065.562	798.009
400.307	17.387	1065.397	797.368
401.321	17.385	1064.736	796.793
402.336	17.352	1063.988	796.010
403.350	17.491	1063.278	796.055
404.365	17.402	1062.916	795.302
405.380	17.470	1061.448	794.446
406.394	17.492	1061.106	794.223
407.409	17.547	1060.522	793.974
408.423	17.610	1059.400	793.356
409.438	17.620	1059.079	793.092
410.453	17.604	1058.262	792.337
411.467	17.561	1057.902	791.799
412.482	17.695	1057.065	791.723
413.496	17.708	1056.305	791.145
414.511	17.759	1055.302	790.557
415.526	17.817	1055.298	790.753
416.540	17.884	1054.704	790.548
417.555	17.803	1054.424	789.897
418.569	17.743	1053.806	789.082
419.584	17.789	1053.401	788.926
420.599	17.847	1053.083	788.885
421.613	106.143	1326.284	1477.572
422.628	97.814	1366.028	1477.666
